DTS Sentinel unit serial number:	SN413079Multiplexer serial number:	ORYXHardware model number:	OX4-SRSoftware version number:	ORYX F/W v4.00 Oryx Data Collector v3.7.2.0data status	okinstallation	princeton_trtdifferential loss correction	single-endedforward channel	channel 1reverse channel	N/Adate	2019/09/13time	23:18:35forward acquisition time	60.00reverse acquisition time	0.00gamma	496.2192k internal	0.2335k external	0.2335temperature offset calibration	1.0083default loss term (dB/km)	0.3790temperature slope calibration	1.0000multiplexer offset coefficient	1.0000multiplexer slope coefficient	1.0000fibre end	0.00T internal ref (°C)	27.03T ext. ref 1 (°C)	3.18T ext. ref 2 (°C)	20.93length (m)	temperature (°C)	Stokes	anti-Stokes-747.200	341.768	-0.054	-0.106
-746.185	440.306	0.136	0.299
-745.171	-98.440	-0.005	-0.001
-744.156	164.125	-0.125	-0.177
-743.142	-74.553	-0.137	0.050
-742.127	-48.560	-0.182	0.088
-741.112	-79.507	0.156	-0.053
-740.098	119.713	0.088	-0.109
-739.083	-63.407	-0.091	0.037
-738.069	800.000	-0.091	-0.344
-737.054	-198.960	-0.185	-0.001
-736.039	-139.707	-0.374	-0.040
-735.025	84.938	0.194	0.214
-734.010	249.514	-0.113	-0.193
-732.996	131.314	0.113	-0.145
-731.981	627.680	0.088	0.222
-730.966	92.334	-0.214	-0.243
-729.952	-200.000	0.008	0.068
-728.937	800.000	0.065	-0.228
-727.923	786.601	-0.053	-0.146
-726.908	88.470	0.200	-0.223
-725.894	701.632	-0.096	-0.253
-724.879	-197.389	0.137	-0.001
-723.864	-200.000	0.006	0.069
-722.850	-79.679	-0.366	0.124
-721.835	-29.931	0.189	0.108
-720.821	800.000	0.091	0.290
-719.806	-75.151	0.088	0.032
-718.791	-200.000	-0.032	-0.278
-717.777	121.882	-0.239	-0.299
-716.762	-17.041	-0.250	-0.159
-715.748	-41.793	0.169	-0.087
-714.733	9.767	-0.206	-0.157
-713.718	62.319	-0.187	-0.187
-712.704	86.340	0.322	-0.356
-711.689	-200.000	0.004	0.131
-710.675	-70.437	-0.044	-0.017
-709.660	-12.145	0.151	-0.099
-708.645	721.201	-0.158	-0.421
-707.631	-47.874	0.209	-0.102
-706.616	154.792	-0.165	0.228
-705.602	71.058	0.243	-0.252
-704.587	800.000	0.079	-0.226
-703.572	-6.782	0.097	-0.066
-702.558	800.000	0.067	-0.192
-701.543	800.000	0.133	-0.437
-700.529	-101.557	-0.036	-0.009
-699.514	335.092	-0.046	0.090
-698.499	-107.632	-0.246	0.054
-697.485	-176.289	-0.249	-0.007
-696.470	99.131	-0.022	-0.025
-695.456	266.351	-0.075	-0.131
-694.441	-200.000	0.029	0.195
-693.426	-100.014	0.322	0.081
-692.412	-109.562	0.161	-0.034
-691.397	-47.901	-0.232	-0.113
-690.383	-200.000	0.060	-0.308
-689.368	-93.949	0.129	-0.035
-688.354	-200.000	-0.053	-0.471
-687.339	38.133	-0.184	-0.164
-686.324	-200.000	0.027	-0.240
-685.310	514.443	-0.179	-0.418
-684.295	210.091	0.279	-0.439
-683.281	-200.000	-0.043	-0.436
-682.266	23.070	-0.108	-0.089
-681.251	-182.393	-0.335	-0.006
-680.237	800.000	0.025	-0.091
-679.222	800.000	0.051	0.154
-678.208	-200.000	0.011	-0.054
-677.193	-148.659	-0.071	0.006
-676.178	-21.280	-0.134	0.082
-675.164	-200.000	0.016	0.202
-674.149	-70.603	-0.325	0.123
-673.135	473.349	0.039	-0.089
-672.120	161.316	-0.203	-0.284
-671.105	775.629	0.069	0.188
-670.091	45.819	0.146	-0.135
-669.076	76.356	-0.170	-0.181
-668.062	124.453	-0.167	-0.210
-667.047	652.355	0.132	-0.338
-666.032	-116.081	-0.250	-0.047
-665.018	-200.000	-0.025	-0.157
-664.003	100.679	0.030	0.034
-662.989	28.621	-0.033	-0.028
-661.974	-98.939	0.325	-0.083
-660.959	800.000	0.079	-0.257
-659.945	34.308	-0.058	0.050
-658.930	-200.000	-0.063	-0.288
-657.916	-22.873	-0.057	-0.035
-656.901	800.000	-0.089	-0.248
-655.886	-200.000	-0.002	-0.127
-654.872	215.916	-0.098	0.155
-653.857	38.816	0.170	0.152
-652.843	-95.751	-0.348	-0.093
-651.828	-122.306	0.403	0.066
-650.814	100.057	-0.214	-0.248
-649.799	139.724	-0.064	0.084
-648.784	-3.671	0.128	-0.089
-647.770	7.259	0.149	-0.111
-646.755	47.947	-0.289	0.270
-645.741	-21.954	-0.111	0.068
-644.726	277.400	0.170	0.303
-643.711	98.982	-0.145	0.167
-642.697	114.659	0.033	-0.040
-641.682	800.000	0.062	0.250
-640.668	35.243	-0.239	0.209
-639.653	68.159	-0.192	-0.196
-638.638	481.941	-0.084	0.190
-637.624	259.995	0.102	0.176
-636.609	419.828	-0.045	-0.097
-635.595	-140.452	0.195	-0.020
-634.580	-55.225	-0.361	-0.162
-633.565	-23.725	0.137	0.082
-632.551	-24.909	0.175	-0.104
-631.536	2.167	-0.133	-0.096
-630.522	203.336	0.153	0.236
-629.507	-100.962	-0.097	0.024
-628.492	719.675	0.112	-0.297
-627.478	105.453	-0.197	-0.233
-626.463	192.691	0.058	0.088
-625.449	-186.265	-0.258	0.004
-624.434	-104.314	-0.138	-0.032
-623.419	28.829	0.137	-0.116
-622.405	-200.000	-0.065	0.297
-621.390	-200.000	0.047	-0.289
-620.376	-156.629	0.287	-0.018
-619.361	-79.508	-0.383	0.129
-618.346	190.098	0.245	0.367
-617.332	-61.609	0.164	0.069
-616.317	-200.000	-0.013	0.159
-615.303	-17.687	0.072	-0.045
-614.288	-54.485	-0.178	-0.080
-613.273	-200.000	0.028	-0.321
-612.259	-48.373	-0.189	-0.091
-611.244	83.300	-0.028	-0.030
-610.230	50.181	0.364	-0.343
-609.215	-27.751	0.165	-0.096
-608.201	785.413	-0.048	-0.131
-607.186	423.821	-0.077	0.166
-606.171	325.268	-0.081	-0.155
-605.157	-1.838	0.110	0.077
-604.142	-104.064	0.057	0.013
-603.128	177.436	-0.079	-0.115
-602.113	-112.527	0.273	0.054
-601.098	-64.472	0.371	-0.150
-600.084	-200.000	0.021	-0.165
-599.069	97.300	-0.181	0.207
-598.055	97.337	0.201	-0.231
-597.040	51.840	-0.167	-0.159
-596.025	-200.000	0.033	0.226
-595.011	-62.833	-0.214	0.089
-593.996	269.721	0.068	-0.119
-592.982	-7.578	0.161	0.109
-591.967	7.477	-0.067	-0.050
-590.952	129.992	0.071	0.091
-589.938	-71.470	0.207	-0.077
-588.923	-200.000	-0.030	0.251
-587.909	800.000	-0.037	0.127
-586.894	-179.075	-0.081	0.002
-585.879	632.043	0.027	-0.067
-584.865	-86.930	0.287	-0.087
-583.850	-200.000	-0.004	0.064
-582.836	-200.000	-0.105	-0.505
-581.821	0.403	-0.300	-0.214
-580.806	266.263	0.083	-0.144
-579.792	191.097	0.122	0.183
-578.777	-149.644	0.241	-0.019
-577.763	-153.830	-0.208	-0.014
-576.748	-177.604	0.182	-0.004
-575.733	386.059	0.154	0.316
-574.719	-33.015	-0.195	0.108
-573.704	-200.000	-0.016	-0.108
-572.690	-200.000	0.033	-0.190
-571.675	-163.679	-0.070	0.003
-570.661	-62.690	-0.326	-0.135
-569.646	744.848	-0.077	-0.207
-568.631	64.942	-0.048	-0.048
-567.617	800.000	0.026	0.071
-566.602	-200.000	-0.048	0.258
-565.588	-90.767	0.336	0.097
-564.573	-200.000	0.028	0.236
-563.558	-166.804	-0.145	0.006
-562.544	153.733	0.034	-0.047
-561.529	-81.039	-0.160	-0.053
-560.515	-119.623	-0.286	-0.049
-559.500	573.078	-0.093	0.225
-558.485	-163.527	-0.122	-0.006
-557.471	-145.415	0.167	0.015
-556.456	-200.000	0.009	0.430
-555.442	-102.723	-0.220	0.052
-554.427	440.240	-0.020	0.044
-553.412	-200.000	0.030	0.251
-552.398	2.559	-0.169	-0.122
-551.383	-88.431	-0.193	-0.057
-550.369	40.079	-0.149	0.133
-549.354	-86.817	-0.148	-0.045
-548.339	-5.852	-0.128	0.087
-547.325	35.028	-0.037	-0.033
-546.310	373.422	-0.021	-0.043
-545.296	800.000	0.032	0.132
-544.281	800.000	0.109	0.447
-543.266	-162.111	0.077	0.004
-542.252	-24.957	-0.104	-0.062
-541.237	800.000	-0.118	0.432
-540.223	266.798	-0.163	-0.284
-539.208	-200.000	0.004	-0.151
-538.193	45.816	0.075	-0.069
-537.179	-172.951	0.225	-0.007
-536.164	-96.774	-0.181	0.047
-535.150	-63.625	0.044	-0.018
-534.135	800.000	-0.071	-0.296
-533.121	-200.000	-0.003	0.105
-532.106	-200.000	0.017	-0.371
-531.091	-200.000	-0.005	-0.096
-530.077	194.911	0.155	-0.235
-529.062	141.117	-0.025	0.033
-528.048	-33.089	0.408	0.225
-527.033	-174.592	0.140	-0.004
-526.018	800.000	-0.112	0.345
-525.004	-101.067	-0.209	0.051
-523.989	-52.304	0.070	0.032
-522.975	12.744	0.311	0.239
-521.960	-20.348	-0.223	0.137
-520.945	-200.000	-0.024	0.164
-519.931	51.906	-0.045	-0.042
-518.916	197.974	-0.050	0.076
-517.902	-47.222	-0.174	-0.084
-516.887	-45.303	-0.143	-0.070
-515.872	-200.000	0.010	0.222
-514.858	29.874	0.142	-0.120
-513.843	227.059	0.128	-0.207
-512.829	42.174	-0.039	-0.035
-511.814	-131.168	-0.202	-0.027
-510.799	-95.724	-0.177	-0.047
-509.785	-146.871	-0.377	-0.032
-508.770	52.942	0.217	0.207
-507.756	97.529	-0.175	0.200
-506.741	11.487	-0.150	-0.114
-505.726	-130.777	0.284	-0.038
-504.712	99.116	0.137	-0.158
-503.697	-186.567	0.302	-0.004
-502.683	-125.811	0.283	-0.043
-501.668	-47.709	-0.186	-0.090
-500.653	46.828	0.296	-0.273
-499.639	-200.000	0.007	-0.081
-498.624	-96.708	0.255	0.067
-497.610	320.464	0.187	-0.354
-496.595	-172.651	-0.332	-0.010
-495.581	640.367	0.018	-0.046
-494.566	-1.752	0.200	0.140
-493.551	800.000	0.056	-0.208
-492.537	-135.558	0.175	-0.021
-491.522	-200.000	-0.025	-0.180
-490.508	-200.000	0.004	-0.192
-489.493	-44.301	-0.191	0.095
-488.478	141.109	0.145	-0.191
-487.464	-56.573	-0.050	0.022
-486.449	-102.627	0.439	0.104
-485.435	-170.254	-0.059	-0.002
-484.420	-102.258	-0.134	0.032
-483.405	800.000	-0.055	-0.192
-482.391	90.627	0.046	0.051
-481.376	800.000	-0.089	-0.279
-480.362	171.872	-0.112	-0.160
-479.347	800.000	0.052	0.187
-478.332	0.073	0.127	0.090
-477.318	-119.938	0.230	-0.039
-476.303	383.482	0.155	0.318
-475.289	800.000	0.033	-0.097
-474.274	-145.925	-0.051	0.004
-473.259	-108.316	-0.290	0.062
-472.245	160.367	-0.076	-0.105
-471.230	-63.396	-0.280	-0.114
-470.216	57.241	-0.142	-0.138
-469.201	-200.000	-0.050	-0.311
-468.186	-85.338	0.208	0.064
-467.172	-50.427	0.484	0.227
-466.157	-51.722	-0.170	0.079
-465.143	-81.201	-0.202	-0.066
-464.128	800.000	0.071	0.278
-463.113	120.298	-0.088	0.109
-462.099	-90.857	-0.205	-0.059
-461.084	-54.108	0.081	-0.037
-460.070	20.702	0.315	0.254
-459.055	285.726	0.094	-0.168
-458.040	-31.868	0.187	-0.104
-457.026	606.362	0.080	0.199
-456.011	417.823	-0.063	-0.134
-454.997	-39.878	0.311	-0.161
-453.982	-200.000	0.051	-0.262
-452.968	-19.300	-0.060	-0.037
-451.953	-3.320	-0.571	-0.395
-450.938	-95.793	-0.313	-0.083
-449.924	-93.946	0.229	-0.062
-448.909	321.783	0.059	0.111
-447.895	-58.259	-0.234	0.101
-446.880	205.141	0.023	0.035
-445.865	299.147	-0.133	0.244
-444.851	-132.690	-0.229	-0.029
-443.836	111.714	-0.134	-0.160
-442.822	685.651	0.091	-0.235
-441.807	420.219	-0.117	0.248
-440.792	800.000	0.049	0.165
-439.778	-19.252	0.143	0.088
-438.763	-31.313	0.324	-0.181
-437.749	-9.360	-0.331	0.220
-436.734	-112.968	0.208	0.041
-435.719	800.000	0.024	0.083
-434.705	24.789	-0.164	0.135
-433.690	-114.319	0.181	-0.035
-432.676	800.000	-0.023	0.075
-431.661	93.382	-0.331	0.372
-430.646	731.308	0.082	0.218
-429.632	557.424	0.057	-0.136
-428.617	17.607	0.218	-0.172
-427.603	179.667	-0.231	-0.335
-426.588	800.000	-0.035	-0.101
-425.573	37.495	-0.296	0.261
-424.559	42.166	-0.056	0.050
-423.544	148.916	-0.093	-0.124
-422.530	75.543	-0.065	0.068
-421.515	254.021	0.062	-0.104
-420.500	-200.000	0.032	0.385
-419.486	-80.360	-0.210	0.069
-418.471	-19.686	0.175	-0.107
-417.457	800.000	-0.052	0.150
-416.442	-17.937	0.246	-0.153
-415.428	-51.094	-0.291	-0.135
-414.413	-145.485	0.140	0.012
-413.398	50.605	-0.149	-0.140
-412.384	157.419	0.217	0.298
-411.369	-200.000	0.042	0.298
-410.355	-47.260	-0.153	0.074
-409.340	126.775	0.072	0.090
-408.325	-47.976	-0.185	0.089
-407.311	28.368	0.053	-0.045
-406.296	562.692	-0.037	-0.089
-405.282	92.989	0.099	-0.110
-404.267	232.820	-0.065	-0.106
-403.252	187.023	0.125	0.185
-402.238	-10.888	-0.342	0.224
-401.223	800.000	0.058	0.222
-400.209	213.794	-0.102	-0.159
-399.194	-65.085	0.346	-0.138
-398.179	164.931	-0.145	0.202
-397.165	-111.841	0.142	0.028
-396.150	74.196	-0.120	0.125
-395.136	-200.000	0.023	-0.222
-394.121	29.483	-0.143	-0.120
-393.106	518.520	0.121	0.280
-392.092	-82.899	-0.084	-0.027
-391.077	352.532	-0.223	-0.438
-390.063	100.686	-0.170	-0.196
-389.048	112.127	-0.018	0.022
-388.033	466.679	-0.161	-0.358
-387.019	512.184	-0.113	-0.262
-386.004	-126.036	0.095	0.014
-384.990	-158.290	0.234	0.014
-383.975	-69.502	-0.116	-0.044
-382.960	128.153	0.094	0.119
-381.946	800.000	0.033	0.143
-380.931	-33.994	-0.192	0.105
-379.917	-48.966	0.179	-0.085
-378.902	-146.461	-0.215	0.019
-377.888	665.146	0.077	-0.197
-376.873	-200.000	-0.042	-0.280
-375.858	-143.189	-0.290	0.028
-374.844	-65.949	-0.250	0.099
-373.829	74.265	-0.163	0.169
-372.815	-149.162	0.124	0.010
-371.800	-200.000	0.022	-0.281
-370.785	-106.906	0.196	-0.043
-369.771	406.126	-0.099	0.206
-368.756	-113.204	0.524	-0.102
-367.742	453.858	0.061	0.134
-366.727	-200.000	-0.005	-0.100
-365.712	-200.000	-0.014	0.105
-364.698	-120.479	0.311	-0.052
-363.683	90.839	-0.103	0.114
-362.669	71.356	-0.210	0.216
-361.654	-200.000	-0.013	0.123
-360.639	-104.208	-0.314	0.072
-359.625	775.888	-0.093	0.251
-358.610	-11.497	0.158	0.103
-357.596	800.000	0.048	-0.135
-356.581	113.855	0.098	0.118
-355.566	339.718	-0.140	-0.271
-354.552	169.368	-0.160	0.227
-353.537	-200.000	0.069	0.317
-352.523	188.335	0.108	-0.160
-351.508	41.575	-0.132	-0.118
-350.493	-143.777	0.144	-0.013
-349.479	-147.850	0.076	0.006
-348.464	114.386	0.234	0.281
-347.450	-3.450	-0.136	-0.094
-346.435	-122.169	-0.307	0.050
-345.420	244.203	0.125	0.207
-344.406	-200.000	0.058	-0.304
-343.391	-60.650	-0.255	0.107
-342.377	-77.128	-0.173	0.060
-341.362	-166.753	0.264	-0.011
-340.348	-92.394	0.066	-0.018
-339.333	-101.746	0.316	0.076
-338.318	-200.000	-0.334	-0.000
-337.304	140.656	0.113	0.147
-336.289	-190.941	-0.242	-0.003
-335.275	375.378	0.239	-0.482
-334.260	89.726	-0.013	-0.014
-333.245	-41.330	0.070	0.036
-332.231	-200.000	-0.039	-0.321
-331.216	151.616	0.057	0.077
-330.202	-87.612	-0.124	-0.037
-329.187	-115.193	-0.112	-0.021
-328.172	-200.000	-0.023	-0.166
-327.158	-9.430	-0.166	0.109
-326.143	65.835	-0.169	-0.169
-325.129	800.000	0.118	-0.409
-324.114	517.559	0.097	0.223
-323.099	257.994	0.132	-0.225
-322.085	799.857	-0.120	0.326
-321.070	-194.405	-0.171	0.001
-320.056	41.628	-0.080	0.072
-319.041	-12.176	-0.035	0.023
-318.026	-168.100	-0.263	0.010
-317.012	-186.294	0.106	0.002
-315.997	-103.281	-0.214	0.050
-314.983	800.000	-0.037	-0.128
-313.968	-64.853	-0.207	-0.083
-312.953	741.896	0.261	-0.692
-311.939	-8.643	-0.258	-0.171
-310.924	107.500	-0.046	0.054
-309.910	213.934	-0.063	0.098
-308.895	7.674	-0.158	0.117
-307.880	420.799	-0.037	0.079
-306.866	78.604	0.297	-0.313
-305.851	287.298	0.053	-0.094
-304.837	-138.444	-0.075	0.008
-303.822	-200.000	-0.000	-0.160
-302.807	800.000	-0.031	-0.100
-301.793	1.106	0.126	0.089
-300.778	-190.927	-0.069	-0.001
-299.764	228.437	0.150	0.242
-298.749	800.000	-0.086	0.320
-297.735	2.052	-0.062	0.044
-296.720	800.000	-0.055	0.215
-295.705	-70.937	-0.106	-0.040
-294.691	68.373	-0.087	0.088
-293.676	125.628	0.057	-0.071
-292.662	-200.000	-0.020	0.306
-291.647	644.489	-0.073	0.185
-290.632	-63.314	0.083	0.034
-289.618	42.317	0.193	-0.173
-288.603	280.037	0.063	-0.112
-287.589	-200.000	0.007	0.359
-286.574	800.000	-0.042	0.146
-285.559	3.665	0.073	0.052
-284.545	-2.936	0.228	-0.157
-283.530	439.343	0.035	0.076
-282.516	-31.053	-0.123	0.068
-281.501	358.588	0.254	-0.501
-280.486	-40.623	-0.140	0.072
-279.472	-200.000	-0.045	-0.361
-278.457	100.095	-0.145	0.166
-277.443	-115.771	-0.452	0.084
-276.428	-156.722	0.375	-0.023
-275.413	71.854	-0.048	0.049
-274.399	174.087	0.060	-0.086
-273.384	742.207	-0.075	-0.200
-272.370	-34.921	0.275	0.148
-271.355	-200.000	0.025	-0.122
-270.340	-101.555	0.260	-0.062
-269.326	-200.000	-0.024	-0.109
-268.311	422.779	-0.091	0.193
-267.297	-89.382	-0.406	0.118
-266.282	800.000	0.107	0.319
-265.267	-200.000	-0.025	-0.353
-264.253	77.427	-0.192	-0.202
-263.238	45.171	0.090	-0.082
-262.224	578.068	0.102	-0.246
-261.209	-200.000	0.033	0.169
-260.195	18.232	-0.073	0.058
-259.180	-146.800	0.096	0.008
-258.165	172.630	-0.139	0.197
-257.151	-161.284	-0.108	0.006
-256.136	3.875	0.227	-0.164
-255.122	80.907	0.174	0.185
-254.107	-134.383	-0.103	0.012
-253.092	-16.843	0.230	-0.143
-252.078	-200.000	-0.008	0.175
-251.063	-200.000	-0.026	0.193
-250.049	105.039	-0.269	0.313
-249.034	-200.000	0.032	0.202
-248.019	23.296	0.109	0.088
-247.005	800.000	-0.013	0.047
-245.990	800.000	-0.009	-0.029
-244.976	546.995	-0.072	0.169
-243.961	529.316	-0.159	0.369
-242.946	72.504	-0.138	0.142
-241.932	288.287	0.083	-0.148
-240.917	218.077	0.106	-0.167
-239.903	-200.000	0.037	-0.300
-238.888	645.147	-0.109	-0.274
-237.873	-135.435	0.229	0.027
-236.859	312.405	0.127	0.235
-235.844	-80.569	-0.270	-0.089
-234.830	87.122	-0.111	-0.121
-233.815	-200.000	0.089	0.528
-232.800	-200.000	-0.003	0.011
-231.786	66.182	-0.205	-0.205
-230.771	-93.510	0.161	-0.044
-229.757	-185.911	-0.063	0.001
-228.742	171.485	0.067	-0.095
-227.727	502.300	0.059	-0.135
-226.713	74.074	0.250	-0.258
-225.698	63.137	0.047	0.046
-224.684	-63.610	0.154	0.062
-223.669	159.000	0.109	-0.149
-222.655	-33.134	0.186	0.101
-221.640	-43.246	-0.124	0.062
-220.625	-200.000	0.019	-0.207
-219.611	541.508	0.113	0.264
-218.596	-106.971	0.138	0.030
-217.582	176.947	0.090	-0.129
-216.567	46.498	-0.140	-0.128
-215.552	-174.778	0.193	0.005
-214.538	434.752	-0.074	-0.158
-213.523	-200.000	0.050	0.284
-212.509	101.581	0.190	0.218
-211.494	-200.000	0.052	-0.228
-210.479	-97.684	-0.172	-0.044
-209.465	800.000	-0.022	-0.081
-208.450	478.034	0.100	-0.223
-207.436	-60.577	0.306	0.128
-206.421	800.000	-0.043	-0.171
-205.406	-197.605	-0.200	0.001
-204.392	-14.702	0.176	0.111
-203.377	185.413	0.176	-0.257
-202.363	-200.000	0.033	0.257
-201.348	-200.000	0.019	0.444
-200.333	-183.073	0.137	0.002
-199.319	493.394	0.097	0.218
-198.304	-6.976	0.173	0.116
-197.290	179.161	-0.114	-0.164
-196.275	-75.032	0.319	-0.112
-195.260	265.347	-0.117	0.200
-194.246	-21.479	0.110	-0.066
-193.231	82.321	0.284	0.303
-192.217	-61.912	-0.175	0.072
-191.202	-55.570	0.158	-0.069
-190.187	77.061	-0.249	0.260
-189.173	-164.828	0.273	0.012
-188.158	49.151	0.268	0.248
-187.144	-200.000	0.028	0.279
-186.129	-95.020	-0.343	0.091
-185.114	-106.123	0.161	0.035
-184.100	-92.758	-0.270	0.074
-183.085	-52.171	0.175	0.080
-182.071	-100.091	0.232	0.057
-181.056	52.958	-0.345	0.324
-180.042	-174.329	-0.083	-0.002
-179.027	800.000	0.015	-0.062
-178.012	-200.000	0.020	-0.179
-176.998	150.423	-0.246	-0.328
-175.983	563.020	0.078	-0.186
-174.969	-65.368	0.146	-0.058
-173.954	-90.928	-0.330	-0.093
-172.939	-200.000	0.004	-0.158
-171.925	-200.000	-0.003	0.100
-170.910	-59.090	0.201	-0.085
-169.896	-105.562	0.396	0.088
-168.881	-178.347	0.266	0.006
-167.866	-200.000	-0.075	-0.398
-166.852	62.816	-0.192	-0.189
-165.837	-200.000	-0.032	0.283
-164.823	-200.000	0.036	-0.183
-163.808	88.315	-0.085	-0.093
-162.793	800.000	0.067	0.281
-161.779	-200.000	0.007	-0.297
-160.764	519.972	0.071	0.164
-159.750	800.000	0.099	-0.300
-158.735	-111.489	0.200	-0.040
-157.720	286.301	0.178	-0.315
-156.706	-29.896	0.211	-0.118
-155.691	232.237	-0.043	-0.069
-154.677	-138.437	-0.153	-0.017
-153.662	-36.265	0.048	0.026
-152.647	-14.372	-0.276	-0.175
-151.633	132.355	-0.027	-0.035
-150.618	-116.726	0.154	0.028
-149.604	744.906	-0.050	-0.131
-148.589	418.667	-0.059	0.124
-147.574	-159.288	0.095	0.005
-146.560	387.713	0.041	0.083
-145.545	179.732	0.209	0.300
-144.531	142.479	0.384	0.501
-143.516	187.420	0.157	-0.230
-142.502	84.658	0.081	0.087
-141.487	68.630	-0.074	0.074
-140.472	224.152	0.126	-0.200
-139.458	476.663	-0.094	0.208
-138.443	-107.431	0.225	0.048
-137.429	-163.002	-0.010	0.000
-136.414	-51.902	0.057	-0.026
-135.399	-200.000	-0.024	0.274
-134.385	303.463	0.091	0.165
-133.370	-9.182	-0.112	0.073
-132.356	-69.435	-0.149	0.056
-131.341	-162.078	0.105	-0.005
-130.326	-62.760	0.267	0.108
-129.312	-171.765	-0.170	-0.005
-128.297	35.707	0.156	0.134
-127.283	-65.661	-0.189	0.074
-126.268	6.770	0.066	0.048
-125.253	-200.000	0.015	-0.312
-124.239	304.361	-0.136	-0.247
-123.224	-200.000	0.028	0.127
-122.210	-66.855	0.216	0.084
-121.195	-57.349	-0.311	0.134
-120.180	800.000	-0.031	-0.117
-119.166	-200.000	0.017	-0.341
-118.151	-54.188	0.178	-0.079
-117.137	-111.080	-0.139	0.028
-116.122	-37.431	0.173	-0.090
-115.107	-90.357	-0.223	-0.063
-114.093	-49.277	0.158	0.074
-113.078	-200.000	-0.057	0.252
-112.064	-22.077	0.218	0.130
-111.049	800.000	0.023	-0.075
-110.034	-24.118	-0.257	0.150
-109.020	79.439	0.127	-0.134
-108.005	800.000	0.047	0.179
-106.991	-200.000	-0.040	0.243
-105.976	-200.000	0.031	0.249
-104.962	127.639	0.124	0.155
-103.947	800.000	0.090	-0.294
-102.932	-104.177	-0.046	-0.010
-101.918	9.378	-0.338	0.251
-100.903	223.454	0.050	-0.079
-99.889	19.258	-0.052	0.041
-98.874	257.933	0.026	-0.043
-97.859	-200.000	0.020	0.133
-96.845	-103.612	-0.251	0.058
-95.830	-115.385	0.106	-0.020
-94.816	314.534	0.133	0.245
-93.801	81.327	0.124	0.131
-92.786	800.000	-0.033	0.132
-91.772	794.823	0.034	0.091
-90.757	-146.619	-0.139	-0.012
-89.743	21.407	0.181	-0.144
-88.728	-167.925	0.286	0.011
-87.713	-126.370	-0.504	0.074
-86.699	800.000	-0.097	-0.337
-85.684	201.876	0.208	0.314
-84.670	-159.645	0.332	0.018
-83.655	84.263	0.083	-0.089
-82.640	-100.158	0.372	-0.091
-81.626	69.011	0.059	-0.059
-80.611	-66.027	-0.247	-0.097
-79.597	-143.109	0.431	0.041
-78.582	-19.457	0.188	-0.114
-77.567	-166.593	0.396	-0.016
-76.553	36.879	0.184	-0.159
-75.538	-200.000	-0.033	-0.365
-74.524	-82.550	0.342	-0.109
-73.509	52.249	-0.035	-0.032
-72.494	-200.000	0.033	0.225
-71.480	-200.000	-0.012	-0.161
-70.465	65.675	0.187	-0.186
-69.451	-125.314	0.382	-0.057
-68.436	-48.635	-0.269	-0.126
-67.422	-200.000	-0.106	0.000
-66.407	-137.366	0.157	0.017
-65.392	-59.211	0.177	0.074
-64.378	-82.814	-0.448	-0.142
-63.363	-200.000	-0.001	0.007
-62.349	210.132	0.119	0.182
-61.334	17.531	-1.278	-0.993
-60.319	52.635	0.634	0.593
-59.305	539.415	-0.476	-1.107
-58.290	373.263	0.511	1.015
-57.276	290.499	0.707	1.256
-56.261	-200.000	116.470	656.509
-55.246	524.968	1527.031	3513.349
-54.232	178.173	2691.561	3840.439
-53.217	107.013	2143.142	2489.038
-52.203	38.537	1585.403	1382.173
-51.188	30.308	1330.868	1111.199
-50.173	27.535	1292.499	1062.965
-49.159	54.109	1350.183	1269.589
-48.144	52.460	1363.801	1272.534
-47.130	30.582	1318.633	1102.430
-46.115	27.225	1300.877	1067.869
-45.100	26.860	1296.273	1061.908
-44.086	26.925	1293.198	1059.729
-43.071	26.871	1290.889	1057.477
-42.057	26.866	1288.601	1055.533
-41.042	26.934	1287.226	1054.760
-40.027	26.892	1285.634	1053.170
-39.013	26.894	1284.029	1051.825
-37.998	26.961	1281.994	1050.507
-36.984	26.937	1280.343	1048.969
-35.969	26.975	1278.521	1047.659
-34.954	26.987	1277.168	1046.576
-33.940	27.007	1275.829	1045.552
-32.925	26.997	1274.506	1044.366
-31.911	27.020	1272.874	1043.120
-30.896	27.092	1271.447	1042.323
-29.881	27.208	1269.731	1041.543
-28.867	27.264	1268.264	1040.616
-27.852	27.117	1267.302	1038.943
-26.838	27.228	1265.505	1038.062
-25.823	27.163	1264.728	1037.017
-24.809	27.247	1263.000	1036.035
-23.794	27.088	1261.956	1034.235
-22.779	27.171	1260.241	1033.256
-21.765	27.151	1259.396	1032.409
-20.750	27.183	1257.753	1031.208
-19.736	27.035	1256.660	1029.430
-18.721	26.923	1256.049	1028.255
-17.706	27.004	1254.825	1027.669
-16.692	27.032	1253.335	1026.564
-15.677	26.924	1252.965	1025.615
-14.663	27.008	1251.200	1024.597
-13.648	26.914	1250.203	1023.215
-12.633	26.992	1249.363	1022.925
-11.619	26.922	1248.660	1021.917
-10.604	27.057	1247.370	1021.579
-9.590	26.896	1246.873	1020.226
-8.575	26.971	1245.898	1019.808
-7.560	26.932	1244.935	1018.757
-6.546	27.016	1244.355	1018.715
-5.531	26.973	1242.877	1017.222
-4.517	26.982	1242.324	1016.781
-3.502	27.055	1241.123	1016.165
-2.487	26.952	1240.322	1014.895
-1.473	26.919	1236.207	1011.305
-0.458	25.240	1221.104	989.657
0.556	21.815	1204.187	950.827
1.571	17.976	1209.415	933.919
2.586	17.104	1223.825	940.136
3.600	16.800	1211.874	929.206
4.615	12.494	1141.802	853.103
5.629	5.924	1071.886	768.708
6.644	3.345	1053.966	743.357
7.659	3.138	1051.980	740.894
8.673	3.122	1050.448	739.670
9.688	3.135	1049.778	739.199
10.702	3.243	1047.495	738.042
11.717	6.960	1052.186	759.155
12.731	14.265	1062.875	802.113
13.746	18.924	1068.215	828.577
14.761	19.747	1068.719	832.863
15.775	18.901	1067.674	827.902
16.790	18.045	1065.186	821.783
17.804	17.332	1063.739	817.170
18.819	16.989	1062.578	814.557
19.834	16.867	1062.051	813.495
20.848	16.772	1061.007	812.172
21.863	16.486	1060.397	810.261
22.877	16.238	1059.802	808.547
23.892	16.333	1059.313	808.559
24.907	16.397	1057.885	807.703
25.921	16.250	1057.129	806.352
26.936	16.382	1055.731	805.841
27.950	16.407	1054.268	804.771
28.965	16.554	1053.003	804.435
29.980	16.669	1051.221	803.548
30.994	16.608	1050.758	802.836
32.009	16.630	1049.650	802.024
33.023	16.636	1048.492	801.095
34.038	16.440	1047.499	799.339
35.053	16.477	1046.515	798.690
36.067	16.415	1045.927	797.880
37.082	16.549	1044.504	797.354
38.096	16.653	1044.460	797.743
39.111	16.584	1043.527	796.632
40.126	16.477	1042.184	795.032
41.140	16.201	1040.695	792.532
42.155	16.215	1039.737	791.796
43.169	16.171	1038.462	790.552
44.184	16.083	1037.786	789.551
45.199	16.027	1036.923	788.563
46.213	16.302	1035.542	788.728
47.228	16.413	1034.897	788.685
48.242	16.456	1034.005	788.139
49.257	16.392	1032.934	786.952
50.271	16.516	1032.115	786.838
51.286	16.515	1031.431	786.244
52.301	16.410	1030.584	785.038
53.315	16.313	1029.380	783.604
54.330	16.234	1028.164	782.239
55.344	16.199	1027.096	781.197
56.359	16.319	1026.456	781.197
57.374	16.234	1025.657	780.125
58.388	16.164	1024.532	778.880
59.403	16.061	1023.983	777.915
60.417	16.097	1022.896	777.188
61.432	16.124	1022.129	776.662
62.447	16.013	1021.230	775.399
63.461	16.025	1020.431	774.780
64.476	15.918	1019.385	773.423
65.490	16.059	1018.699	773.483
66.505	16.003	1018.021	772.644
67.520	16.071	1017.414	772.424
68.534	16.098	1016.308	771.642
69.549	16.017	1016.182	771.107
70.563	16.028	1014.993	770.186
71.578	15.898	1013.962	768.743
72.593	15.705	1013.560	767.489
73.607	15.767	1013.260	767.476
74.622	15.818	1012.427	767.010
75.636	15.986	1011.363	766.900
76.651	15.866	1010.876	765.917
77.666	15.950	1010.142	765.674
78.680	15.991	1009.256	765.120
79.695	16.018	1008.564	764.653
80.709	16.094	1007.851	764.389
81.724	16.046	1007.541	763.867
82.739	16.240	1006.883	764.179
83.753	16.456	1006.027	764.438
84.768	16.632	1005.547	764.802
85.782	16.688	1005.011	764.578
86.797	16.587	1003.833	763.160
87.812	16.556	1002.221	761.730
88.826	16.435	1001.454	760.536
89.841	16.570	1000.921	760.667
90.855	16.813	999.691	760.760
91.870	16.687	999.257	759.794
92.884	16.562	998.585	758.658
93.899	16.769	997.274	758.519
94.914	16.702	997.171	758.073
95.928	16.718	996.148	757.300
96.943	16.555	995.275	755.843
97.957	16.587	993.987	754.942
98.972	16.629	993.373	754.592
99.987	16.594	992.634	753.808
101.001	16.729	991.106	753.185
102.016	16.510	990.869	751.962
103.030	16.722	989.425	751.741
104.045	16.761	989.006	751.529
105.060	16.503	988.490	749.926
106.074	16.443	986.973	748.443
107.089	16.213	985.808	746.478
108.103	16.042	985.088	745.112
109.118	16.115	984.223	744.712
110.133	16.094	983.050	743.664
111.147	16.053	982.408	742.934
112.162	16.144	981.730	742.756
113.176	16.280	981.512	743.123
114.191	16.321	980.645	742.584
115.206	16.249	979.848	741.595
116.220	16.198	978.788	740.507
117.235	16.210	977.732	739.695
118.249	16.182	976.976	738.933
119.264	16.061	975.951	737.566
120.279	16.105	975.468	737.327
121.293	16.071	974.501	736.379
122.308	15.961	973.732	735.255
123.322	15.923	972.885	734.384
124.337	15.979	971.570	733.573
125.352	15.903	970.874	732.648
126.366	15.988	969.447	731.879
127.381	16.033	968.194	731.061
128.395	15.952	967.943	730.458
129.410	16.069	966.641	729.915
130.424	16.026	965.951	729.146
131.439	16.280	965.394	729.758
132.454	16.256	964.728	729.086
133.468	16.194	963.873	728.110
134.483	16.224	962.669	727.265
135.497	16.369	962.057	727.362
136.512	16.098	961.391	725.625
137.527	16.230	960.387	725.373
138.541	16.225	959.413	724.550
139.556	16.312	959.096	724.622
140.570	16.444	958.616	724.762
141.585	16.549	957.639	724.407
142.600	16.578	956.578	723.663
143.614	16.569	956.061	723.172
144.629	16.663	955.619	723.174
145.643	16.528	954.160	721.428
146.658	16.563	953.333	720.889
147.673	16.556	952.108	719.872
148.687	16.307	951.513	718.297
149.702	16.231	950.522	717.164
150.716	16.306	949.905	716.953
151.731	16.253	949.392	716.278
152.746	16.262	948.766	715.779
153.760	16.336	948.238	715.631
154.775	16.449	947.823	715.734
155.789	16.501	947.275	715.476
156.804	16.624	946.209	715.128
157.819	16.747	945.332	714.921
158.833	16.719	944.827	714.358
159.848	16.808	943.894	713.963
160.862	16.635	943.308	712.728
161.877	16.487	941.860	710.950
162.892	16.318	940.844	709.410
163.906	16.276	939.793	708.377
164.921	16.430	938.782	708.199
165.935	16.495	937.947	707.777
166.950	16.582	937.005	707.368
167.964	16.485	936.692	706.665
168.979	16.495	935.413	705.679
169.994	16.421	934.857	704.887
171.008	16.597	934.120	705.004
172.023	16.737	933.486	705.045
173.037	16.775	933.023	704.792
174.052	16.688	932.237	703.775
175.067	16.475	931.374	702.175
176.081	16.320	930.816	701.048
177.096	16.479	929.967	701.009
178.110	16.540	929.346	700.731
179.125	16.535	928.889	700.304
180.140	16.574	928.473	700.088
181.154	16.579	928.403	699.995
182.169	16.875	927.752	700.663
183.183	16.935	926.929	700.231
184.198	16.841	926.138	699.183
185.213	16.910	925.571	698.977
186.227	16.825	925.345	698.395
187.242	17.013	924.393	698.385
188.256	17.037	924.051	698.165
189.271	16.944	923.620	697.398
190.286	16.595	922.564	695.103
191.300	16.382	921.510	693.373
192.315	16.353	920.891	692.729
193.329	16.328	920.487	692.259
194.344	16.649	919.795	692.991
195.359	16.621	919.303	692.448
196.373	16.801	918.615	692.603
197.388	16.974	918.110	692.866
198.402	17.104	917.712	693.035
199.417	17.171	917.333	692.962
200.432	17.187	917.034	692.738
201.446	17.314	916.360	692.686
202.461	17.342	916.187	692.608
203.475	17.079	915.921	691.277
204.490	17.060	914.579	690.126
205.504	16.966	913.545	688.900
206.519	16.729	913.284	687.682
207.534	16.892	912.084	687.378
208.548	16.881	911.878	687.116
209.563	17.128	910.709	687.174
210.577	17.060	909.692	686.071
211.592	17.226	909.518	686.550
212.607	17.326	908.963	686.476
213.621	16.975	908.798	684.875
214.636	17.152	907.398	684.471
215.650	17.231	906.609	684.135
216.665	17.374	905.739	683.989
217.680	17.377	905.626	683.858
218.694	17.433	904.731	683.347
219.709	17.313	904.208	682.411
220.723	17.215	903.644	681.529
221.738	17.213	902.879	680.883
222.753	17.464	901.672	680.921
223.767	17.355	901.998	680.669
224.782	17.334	901.539	680.177
225.796	17.505	900.830	680.268
226.811	17.540	899.893	679.638
227.826	17.248	899.265	677.937
228.840	17.252	898.534	677.343
229.855	17.458	897.400	677.251
230.869	17.368	896.493	676.146
231.884	17.320	896.142	675.631
232.899	17.311	895.266	674.877
233.913	17.162	894.481	673.633
234.928	17.233	893.677	673.249
235.942	17.108	893.441	672.515
236.957	17.120	893.061	672.221
237.972	17.126	892.586	671.828
238.986	17.220	891.804	671.550
240.001	17.194	891.082	670.843
241.015	17.282	890.865	670.968
242.030	17.267	889.746	670.006
243.045	17.325	889.807	670.220
244.059	17.264	889.138	669.418
245.074	17.298	888.525	669.033
246.088	17.633	887.652	669.632
247.103	17.726	887.109	669.528
248.117	17.746	886.989	669.459
249.132	18.068	886.464	670.265
250.147	18.079	885.760	669.716
251.161	18.134	885.281	669.510
252.176	18.056	884.502	668.554
253.190	18.046	883.979	668.062
254.205	18.146	883.307	667.887
255.220	17.976	883.048	666.968
256.234	18.126	881.763	666.523
257.249	18.104	881.567	666.229
258.263	17.978	880.663	664.999
259.278	18.031	880.049	664.682
260.293	18.171	879.405	664.678
261.307	18.299	879.325	665.057
262.322	18.225	878.579	664.147
263.336	18.311	877.548	663.643
264.351	18.327	876.955	663.199
265.366	18.297	876.164	662.426
266.380	18.320	875.725	662.122
267.395	18.254	875.063	661.307
268.409	18.187	874.340	660.444
269.424	18.104	873.524	659.449
270.439	18.212	872.217	658.820
271.453	18.105	871.957	658.154
272.468	18.121	871.509	657.820
273.482	17.961	871.159	656.884
274.497	18.095	870.234	656.643
275.512	18.130	869.950	656.505
276.526	18.066	869.679	655.994
277.541	18.248	868.922	656.063
278.555	18.312	868.526	655.951
279.570	18.457	867.740	655.855
280.585	18.380	867.304	655.171
281.599	18.352	865.995	654.020
282.614	18.118	865.222	652.486
283.628	18.252	865.124	652.865
284.643	18.169	864.353	651.908
285.657	18.328	863.484	651.802
286.672	18.258	863.102	651.189
287.687	18.269	862.477	650.702
288.701	18.278	862.166	650.443
289.716	18.397	861.402	650.261
290.730	18.275	860.810	649.294
291.745	18.474	860.260	649.576
292.760	18.578	860.078	649.775
293.774	18.430	859.184	648.483
294.789	18.720	858.280	648.837
295.803	18.401	857.365	646.885
296.818	18.246	856.975	645.948
297.833	18.346	856.422	645.853
298.847	18.477	855.718	645.758
299.862	18.355	855.703	645.230
300.876	18.549	855.213	645.531
301.891	18.586	854.086	644.763
302.906	18.654	853.586	644.585
303.920	18.723	853.640	644.828
304.935	18.960	852.655	644.917
305.949	18.690	852.320	643.592
306.964	18.625	851.931	642.999
307.979	18.788	850.954	642.814
308.993	18.783	850.467	642.371
310.008	18.829	849.693	641.903
311.022	18.618	849.283	640.745
312.037	18.658	848.648	640.360
313.052	18.485	848.237	639.349
314.066	18.586	847.063	638.783
315.081	18.473	847.186	638.400
316.095	18.474	846.064	637.500
317.110	18.519	845.753	637.375
318.125	18.397	845.463	636.649
319.139	18.472	845.000	636.523
320.154	18.568	844.782	636.657
321.168	18.629	843.634	635.961
322.183	18.811	843.064	636.150
323.197	18.725	842.801	635.576
324.212	18.607	842.429	634.804
325.227	18.723	841.277	634.309
326.241	18.633	841.151	633.824
327.256	18.493	840.796	632.985
328.270	18.612	839.687	632.532
329.285	18.588	839.267	632.071
330.300	18.558	838.725	631.498
331.314	18.631	838.286	631.380
332.329	18.860	837.955	631.915
333.343	18.786	837.408	631.177
334.358	18.874	836.836	631.010
335.373	18.951	836.555	631.025
336.387	18.826	836.393	630.389
337.402	18.911	836.137	630.454
338.416	19.142	835.992	631.135
339.431	19.197	835.476	630.890
340.446	19.111	835.447	630.498
341.460	19.225	835.142	630.628
342.475	19.194	834.295	629.822
343.489	19.355	834.081	630.190
344.504	19.410	833.539	629.927
345.519	19.474	832.980	629.683
346.533	19.351	832.630	628.913
347.548	19.225	831.584	627.611
348.562	18.986	831.507	626.624
349.577	19.094	830.383	626.114
350.592	19.000	829.785	625.268
351.606	18.966	829.350	624.762
352.621	18.886	828.761	623.972
353.635	18.875	827.870	623.204
354.650	18.956	827.549	623.202
355.665	19.134	826.760	623.198
356.679	19.370	826.118	623.513
357.694	19.273	825.727	622.811
358.708	19.304	825.020	622.336
359.723	19.324	824.197	621.729
360.738	19.242	823.780	621.066
361.752	19.412	822.887	620.948
362.767	19.313	822.813	620.482
363.781	19.516	822.379	620.831
364.796	19.677	822.120	621.157
365.810	19.472	821.989	620.267
366.825	19.556	821.410	620.079
367.840	19.756	820.357	619.947
368.854	19.558	820.180	619.045
369.869	19.504	819.567	618.337
370.883	19.456	819.304	617.910
371.898	19.573	819.272	618.250
372.913	19.635	818.416	617.772
373.927	19.559	818.266	617.331
374.942	19.489	817.903	616.753
375.956	19.707	817.363	617.071
376.971	19.836	816.900	617.126
377.986	19.887	816.381	616.862
379.000	19.776	816.050	616.163
380.015	19.825	815.703	616.020
381.029	19.852	814.578	615.212
382.044	19.856	814.391	615.031
383.059	20.090	813.073	614.811
384.073	19.771	813.067	613.621
385.088	19.674	812.243	612.599
386.102	19.588	811.494	611.675
387.117	19.703	810.999	611.656
388.132	19.708	810.494	611.240
389.146	19.809	809.838	611.048
390.161	19.809	809.537	610.765
391.175	19.726	809.522	610.406
392.190	19.818	808.433	609.855
393.205	19.872	807.805	609.518
394.219	19.724	807.839	608.969
395.234	19.554	807.452	608.023
396.248	19.637	806.943	607.880
397.263	19.628	806.244	607.270
398.278	19.615	806.049	607.022
399.292	19.553	805.544	606.370
400.307	19.680	804.797	606.201
401.321	19.473	804.647	605.305
402.336	19.655	804.458	605.748
403.350	19.900	803.395	605.755
404.365	19.858	803.562	605.678
405.380	20.065	802.979	605.909
406.394	19.971	802.820	605.406
407.409	20.248	802.087	605.768
408.423	20.169	801.861	605.267
409.438	20.295	801.840	605.639
410.453	20.231	801.158	604.846
411.467	20.334	800.288	604.494
412.482	20.408	800.314	604.718
413.496	20.490	799.894	604.634
414.511	20.503	799.456	604.292
415.526	20.388	798.950	603.458
416.540	20.295	798.453	602.706
417.555	20.351	797.956	602.473
418.569	20.222	797.838	601.884
419.584	20.392	797.130	601.883
420.599	20.403	796.561	601.439
421.613	161.862	1372.416	1795.337
422.628	140.403	1456.303	1795.425
