DTS Sentinel unit serial number:	SN413079Multiplexer serial number:	ORYXHardware model number:	OX4-SRSoftware version number:	ORYX F/W v4.00 Oryx Data Collector v3.7.2.0data status	okinstallation	princeton_trtdifferential loss correction	single-endedforward channel	channel 1reverse channel	N/Adate	2019/09/17time	17:14:35forward acquisition time	60.00reverse acquisition time	0.00gamma	496.2192k internal	0.2292k external	0.2292temperature offset calibration	0.9954default loss term (dB/km)	0.3790temperature slope calibration	1.0000multiplexer offset coefficient	1.0000multiplexer slope coefficient	1.0000fibre end	0.00T internal ref (°C)	42.87T ext. ref 1 (°C)	0.35T ext. ref 2 (°C)	38.88length (m)	temperature (°C)	Stokes	anti-Stokes-747.200	-108.385	-0.180	-0.040
-746.185	146.074	-0.276	0.380
-745.171	800.000	0.040	0.141
-744.156	201.782	-0.115	-0.181
-743.142	-200.000	0.019	-0.140
-742.127	142.360	-0.267	0.362
-741.112	-27.836	-0.159	0.094
-740.098	800.000	-0.015	0.065
-739.083	-200.000	-0.002	0.062
-738.069	-146.134	-0.246	-0.022
-737.054	137.042	0.173	0.232
-736.039	-88.811	-0.020	0.006
-735.025	-55.700	0.118	-0.054
-734.010	-143.316	0.239	0.023
-732.996	512.301	-0.061	0.145
-731.981	124.671	-0.205	-0.263
-730.966	109.845	0.203	-0.249
-729.952	-2.816	0.046	-0.033
-728.937	-18.095	-0.221	-0.141
-727.923	-40.728	0.182	0.097
-726.908	177.074	-0.070	0.104
-725.894	-160.801	-0.045	-0.002
-724.879	258.868	0.089	0.157
-723.864	96.722	0.041	0.048
-722.850	800.000	-0.123	0.376
-721.835	105.783	-0.015	-0.018
-720.821	-200.000	-0.009	-0.335
-719.806	-200.000	0.054	-0.283
-718.791	-2.839	-0.175	-0.125
-717.777	37.123	0.109	0.099
-716.762	114.548	-0.128	0.159
-715.748	-114.873	0.222	-0.043
-714.733	-127.125	0.279	0.042
-713.718	-200.000	-0.015	0.092
-712.704	-97.957	0.159	-0.042
-711.689	346.923	-0.125	-0.253
-710.675	-155.091	-0.161	-0.011
-709.660	800.000	0.060	-0.239
-708.645	-11.943	0.130	0.087
-707.631	179.249	0.073	0.109
-706.616	32.359	0.199	-0.176
-705.602	-48.364	-0.188	-0.093
-704.587	73.130	-0.092	-0.099
-703.572	-108.743	0.426	-0.093
-702.558	-112.208	-0.223	-0.046
-701.543	-69.091	-0.313	0.123
-700.529	-11.178	0.235	0.158
-699.514	248.869	-0.155	-0.269
-698.499	631.810	-0.036	0.094
-697.485	3.836	0.143	0.107
-696.470	2.882	-0.250	0.186
-695.456	114.190	-0.197	0.244
-694.441	659.030	-0.070	0.183
-693.426	-37.058	-0.300	0.164
-692.412	66.748	-0.074	0.077
-691.397	-78.098	0.060	-0.021
-690.383	-97.009	-0.068	0.018
-689.368	-66.410	-0.304	0.123
-688.354	-140.167	0.105	-0.011
-687.339	228.116	-0.025	0.041
-686.324	-47.315	-0.264	0.131
-685.310	196.454	0.126	0.197
-684.295	171.704	0.079	0.116
-683.281	-79.496	0.129	0.044
-682.266	260.713	-0.173	-0.305
-681.251	-200.000	-0.002	0.169
-680.237	75.132	-0.141	0.152
-679.222	-200.000	0.035	-0.355
-678.208	-96.045	0.082	0.022
-677.193	800.000	-0.088	0.372
-676.178	19.131	0.161	0.132
-675.164	-153.123	0.140	0.010
-674.149	800.000	-0.025	0.081
-673.135	800.000	0.109	-0.314
-672.120	7.140	0.033	0.025
-671.105	-61.999	-0.300	0.128
-670.091	305.610	0.190	0.360
-669.076	643.104	-0.161	0.419
-668.062	-17.689	0.100	0.064
-667.047	153.270	-0.032	-0.045
-666.032	59.354	-0.183	0.184
-665.018	-39.458	0.244	-0.131
-664.003	326.159	-0.145	0.283
-662.989	-123.596	-0.316	0.051
-661.974	-200.000	0.059	-0.310
-660.959	87.891	-0.215	-0.243
-659.945	196.328	0.128	0.199
-658.930	-158.473	0.248	0.015
-657.916	368.621	-0.080	-0.164
-656.901	-200.000	0.037	0.243
-655.886	-92.526	0.309	0.089
-654.872	111.027	0.063	-0.078
-653.857	-75.746	-0.439	0.159
-652.843	-85.364	-0.653	0.208
-651.828	-86.280	-0.196	0.062
-650.814	-200.000	0.006	-0.097
-649.799	-200.000	-0.027	-0.249
-648.784	-120.932	-0.117	0.020
-647.770	41.510	0.140	0.130
-646.755	-23.560	0.146	0.090
-645.741	-200.000	0.037	-0.270
-644.726	-200.000	-0.045	-0.204
-643.711	136.027	0.204	-0.271
-642.697	800.000	0.070	-0.237
-641.682	617.550	-0.074	0.189
-640.668	-109.265	0.171	0.037
-639.653	-200.000	0.004	0.053
-638.638	-88.175	-0.145	-0.044
-637.624	264.031	0.131	0.232
-636.609	120.405	0.103	0.130
-635.595	-200.000	0.049	-0.358
-634.580	-200.000	-0.015	0.078
-633.565	800.000	0.016	-0.049
-632.551	-105.365	-0.287	-0.067
-631.536	64.045	-0.057	0.059
-630.522	-115.945	-0.314	0.060
-629.507	762.769	-0.061	0.168
-628.492	13.688	-0.174	0.137
-627.478	191.239	-0.017	-0.025
-626.463	83.723	-0.243	0.270
-625.449	800.000	0.082	0.275
-624.434	-85.716	-0.261	0.082
-623.419	-57.067	0.364	0.163
-622.405	-91.030	0.340	0.100
-621.390	62.256	0.030	-0.030
-620.376	800.000	0.047	0.153
-619.361	-78.020	-0.308	0.108
-618.346	170.870	0.145	-0.211
-617.332	-45.459	0.043	-0.022
-616.317	-166.475	-0.267	0.011
-615.303	-4.750	-0.065	0.045
-614.288	-77.908	-0.017	-0.006
-613.273	-17.286	0.186	0.119
-612.259	675.819	-0.087	-0.229
-611.244	96.016	-0.197	0.229
-610.230	-109.297	-0.144	0.031
-609.215	800.000	-0.111	0.318
-608.201	92.208	-0.081	-0.092
-607.186	800.000	0.013	0.054
-606.171	492.041	0.118	0.275
-605.157	-77.328	0.330	-0.117
-604.142	774.013	0.045	0.126
-603.128	-2.219	0.192	-0.137
-602.113	487.427	-0.036	0.084
-601.098	-155.820	0.102	-0.007
-600.084	673.182	-0.076	0.202
-599.069	-55.849	-0.155	0.070
-598.055	-200.000	-0.021	-0.284
-597.040	6.519	0.102	0.077
-596.025	800.000	0.106	-0.321
-595.011	148.672	-0.069	0.094
-593.996	-199.293	-0.090	-0.000
-592.982	-87.211	0.137	-0.042
-591.967	-120.290	-0.220	-0.038
-590.952	-81.556	0.393	0.132
-589.938	-55.312	0.343	-0.157
-588.923	-156.308	0.113	0.007
-587.909	800.000	0.009	0.038
-586.894	-68.311	0.083	-0.033
-585.879	119.503	0.080	-0.101
-584.865	268.170	-0.237	0.422
-583.850	242.294	-0.025	0.043
-582.836	57.104	0.217	0.216
-581.821	-200.000	0.022	0.205
-580.806	170.034	0.061	0.089
-579.792	-54.165	-0.137	-0.064
-578.777	800.000	0.052	0.164
-577.763	-197.542	0.124	-0.001
-576.748	138.329	-0.178	0.238
-575.733	-24.692	-0.313	-0.189
-574.719	-132.968	0.431	-0.056
-573.704	-200.000	-0.031	0.276
-572.690	-36.284	0.214	0.118
-571.675	-200.000	-0.027	-0.134
-570.661	443.249	-0.178	-0.396
-569.646	-200.000	0.002	-0.385
-568.631	-108.043	-0.425	0.094
-567.617	800.000	-0.021	0.086
-566.602	-162.711	0.225	0.011
-565.588	-200.000	0.032	0.285
-564.573	-136.105	-0.255	-0.030
-563.558	472.782	-0.154	0.352
-562.544	-200.000	-0.031	0.235
-561.529	-50.919	0.165	-0.079
-560.515	0.606	-0.034	-0.025
-559.500	20.060	-0.134	0.110
-558.485	237.079	-0.154	0.260
-557.471	800.000	0.073	0.235
-556.456	-23.667	-0.122	0.074
-555.442	299.567	-0.125	-0.234
-554.427	-183.831	-0.116	-0.002
-553.412	-165.039	0.278	0.013
-552.398	-86.079	-0.135	0.042
-551.383	-153.532	0.198	0.014
-550.369	174.439	0.186	0.273
-549.354	-10.846	-0.075	-0.050
-548.339	-200.000	0.127	-0.638
-547.325	293.062	-0.162	-0.300
-546.310	53.182	-0.177	0.172
-545.296	75.608	0.123	0.132
-544.281	43.962	-0.331	0.308
-543.266	660.043	-0.082	-0.214
-542.252	-90.500	-0.205	-0.060
-541.237	156.359	-0.094	0.132
-540.223	-90.818	0.119	0.035
-539.208	-127.437	0.150	-0.022
-538.193	-58.376	0.084	-0.037
-537.179	22.865	-0.246	0.204
-536.164	800.000	0.053	0.165
-535.150	223.450	0.099	0.163
-534.135	48.524	-0.244	-0.233
-533.121	113.903	-0.244	0.301
-532.106	-4.271	0.216	-0.152
-531.091	-200.000	0.036	-0.243
-530.077	57.211	0.197	-0.195
-529.062	-141.091	0.303	0.031
-528.048	146.174	-0.179	0.244
-527.033	-63.256	0.065	-0.027
-526.018	-60.442	-0.330	-0.142
-525.004	376.382	-0.066	0.137
-523.989	-57.182	-0.271	-0.121
-522.975	-165.038	0.336	-0.015
-521.960	-189.963	-0.267	-0.003
-520.945	-200.000	0.003	-0.336
-519.931	-18.959	0.241	0.152
-518.916	-109.279	0.098	0.021
-517.902	800.000	-0.073	0.284
-516.887	-200.000	0.056	-0.261
-515.872	-82.627	-0.078	-0.026
-514.858	-59.581	-0.055	-0.024
-513.843	-102.167	-0.343	0.084
-512.829	-200.000	0.005	-0.057
-511.814	356.655	-0.089	-0.179
-510.799	-81.619	0.113	0.038
-509.785	14.813	-0.194	-0.154
-508.770	110.069	0.044	0.054
-507.756	236.541	0.146	0.246
-506.741	-72.024	-0.247	-0.093
-505.726	87.167	0.304	-0.341
-504.712	66.311	0.048	-0.049
-503.697	-84.121	0.141	0.045
-502.683	-66.200	0.108	0.044
-501.668	-108.099	0.337	-0.074
-500.653	451.313	0.070	-0.157
-499.639	305.235	-0.146	-0.275
-498.624	-133.087	0.023	-0.003
-497.610	-135.936	0.223	0.027
-496.595	800.000	-0.063	0.197
-495.581	800.000	-0.065	0.271
-494.566	-100.119	0.269	-0.068
-493.551	37.571	-0.364	-0.327
-492.537	667.232	0.090	0.237
-491.522	-147.808	0.032	0.003
-490.508	111.489	0.191	0.233
-489.493	94.788	0.138	0.159
-488.478	800.000	-0.054	0.155
-487.464	305.524	0.096	0.180
-486.449	524.063	0.124	0.295
-485.435	3.774	0.297	0.220
-484.420	-18.871	-0.299	0.188
-483.405	-145.848	-0.260	0.023
-482.391	22.932	0.210	-0.174
-481.376	26.741	0.131	-0.111
-480.362	800.000	-0.075	-0.240
-479.347	-200.000	-0.032	0.222
-478.332	192.441	-0.192	0.294
-477.318	47.048	-0.176	-0.166
-476.303	-33.865	0.151	-0.084
-475.289	157.008	-0.063	-0.088
-474.274	-131.272	-0.158	0.021
-473.259	-200.000	-0.013	0.122
-472.245	-146.379	-0.508	-0.045
-471.230	-200.000	-0.010	-0.066
-470.216	192.309	0.055	-0.084
-469.201	381.525	0.124	0.257
-468.186	-25.231	0.111	-0.067
-467.172	125.327	-0.062	0.080
-466.157	-200.000	-0.002	-0.210
-465.143	32.869	-0.157	0.138
-464.128	375.393	-0.074	0.152
-463.113	-200.000	0.018	0.294
-462.099	800.000	0.041	0.142
-461.084	800.000	-0.066	0.226
-460.070	-200.000	-0.017	-0.201
-459.055	250.609	-0.192	-0.330
-458.040	-25.683	-0.199	-0.119
-457.026	1.129	-0.267	0.194
-456.011	365.831	-0.100	0.204
-454.997	528.512	-0.029	0.068
-453.982	182.443	0.137	-0.205
-452.968	62.097	-0.393	0.396
-451.953	-72.697	0.281	0.105
-450.938	578.154	-0.079	-0.196
-449.924	-156.879	0.216	-0.013
-448.909	-147.844	0.310	0.026
-447.895	-45.110	-0.212	-0.106
-446.880	474.725	0.126	-0.287
-445.865	-10.696	0.180	-0.121
-444.851	-58.823	-0.167	-0.073
-443.836	715.081	-0.065	-0.175
-442.822	800.000	-0.149	-0.636
-441.807	-154.698	0.418	-0.028
-440.792	800.000	-0.120	-0.484
-439.778	534.031	-0.087	0.208
-438.763	-52.733	0.158	0.074
-437.749	-65.750	-0.167	-0.068
-436.734	-95.154	-0.348	0.095
-435.719	229.172	-0.180	0.297
-434.705	800.000	0.156	0.504
-433.690	-18.272	0.090	-0.057
-432.676	15.282	0.226	-0.179
-431.661	-105.473	-0.111	-0.025
-430.646	-200.000	0.014	-0.090
-429.632	-34.101	0.159	0.089
-428.617	-200.000	0.043	-0.223
-427.603	289.798	-0.032	0.059
-426.588	-52.805	0.260	0.121
-425.573	-103.646	0.241	-0.057
-424.559	207.996	0.020	0.032
-423.544	-74.643	-0.155	0.056
-422.530	-200.000	0.008	0.197
-421.515	-74.556	-0.148	0.054
-420.500	-113.820	0.407	0.080
-419.486	182.678	-0.056	-0.083
-418.471	427.576	-0.117	-0.255
-417.457	-200.000	-0.015	-0.225
-416.442	10.059	-0.115	-0.089
-415.428	-171.897	-0.296	0.010
-414.413	104.980	-0.161	0.192
-413.398	403.802	0.047	-0.099
-412.384	-21.537	-0.123	-0.076
-411.369	170.217	0.297	0.429
-410.355	-32.053	0.240	0.135
-409.340	530.083	0.103	-0.246
-408.325	-78.535	0.193	0.067
-407.311	182.333	-0.183	0.273
-406.296	-13.791	0.263	-0.172
-405.282	-181.367	-0.200	0.004
-404.267	-73.274	0.281	-0.104
-403.252	800.000	-0.065	-0.246
-402.238	107.556	-0.023	-0.028
-401.223	-200.000	-0.010	0.061
-400.209	-16.684	0.254	-0.162
-399.194	22.381	0.128	0.106
-398.179	-200.000	0.011	0.107
-397.165	348.116	0.072	0.143
-396.150	-143.514	-0.417	-0.040
-395.136	-58.031	-0.075	-0.033
-394.121	-70.473	0.171	0.065
-393.106	800.000	-0.072	0.261
-392.092	-59.680	-0.226	-0.098
-391.077	-141.484	-0.213	-0.022
-390.063	50.672	-0.208	-0.199
-389.048	-200.000	0.014	-0.174
-388.033	6.424	-0.365	-0.274
-387.019	167.087	-0.175	-0.251
-386.004	-200.000	0.004	-0.115
-384.990	-200.000	0.042	0.220
-383.975	800.000	0.041	0.151
-382.960	800.000	-0.056	-0.182
-381.946	-23.690	-0.315	-0.190
-380.931	-200.000	-0.025	-0.137
-379.917	-10.225	0.361	0.242
-378.902	176.174	-0.066	-0.097
-377.888	-106.014	0.038	0.009
-376.873	-139.556	-0.170	0.018
-375.858	-148.512	-0.148	0.012
-374.844	-14.998	-0.158	0.102
-373.829	4.831	-0.056	-0.041
-372.815	293.304	-0.062	0.114
-371.800	472.631	-0.065	-0.148
-370.785	800.000	0.041	-0.131
-369.771	-200.000	0.040	-0.195
-368.756	800.000	0.086	-0.342
-367.742	-158.271	-0.143	-0.008
-366.727	-127.861	-0.314	-0.046
-365.712	702.687	0.072	-0.193
-364.698	450.196	0.049	0.109
-363.683	-37.795	-0.132	-0.071
-362.669	-111.063	0.336	0.070
-361.654	-98.340	0.200	-0.052
-360.639	79.531	-0.125	-0.135
-359.625	322.260	0.180	-0.345
-358.610	-200.000	0.014	-0.269
-357.596	-200.000	-0.011	0.184
-356.581	-200.000	0.082	0.458
-355.566	-123.647	-0.144	-0.023
-354.552	512.468	-0.089	-0.208
-353.537	800.000	-0.018	0.059
-352.523	31.753	0.443	0.384
-351.508	63.435	0.057	0.058
-350.493	800.000	0.087	-0.350
-349.479	-200.000	-0.006	0.099
-348.464	275.409	-0.097	-0.174
-347.450	-75.481	-0.225	0.081
-346.435	187.112	-0.038	-0.058
-345.420	23.511	-0.088	0.073
-344.406	-23.421	-0.052	0.032
-343.391	-57.177	-0.165	-0.073
-342.377	34.592	0.208	-0.183
-341.362	-61.920	-0.101	0.043
-340.348	95.843	-0.093	-0.106
-339.333	-200.000	0.021	-0.254
-338.318	-131.895	0.139	-0.018
-337.304	-200.000	0.051	0.288
-336.289	167.387	0.035	0.050
-335.275	-33.030	-0.324	-0.181
-334.260	-166.137	-0.450	0.019
-333.245	544.908	-0.103	0.249
-332.231	84.389	0.202	0.222
-331.216	800.000	-0.007	-0.018
-330.202	-152.366	0.132	0.010
-329.187	-200.000	0.008	0.260
-328.172	57.726	-0.164	0.162
-327.158	-200.000	-0.033	0.362
-326.143	-157.737	-0.123	0.007
-325.129	-63.437	-0.352	0.146
-324.114	-71.254	-0.118	0.044
-323.099	-189.057	0.252	-0.003
-322.085	-11.714	0.013	-0.008
-321.070	-100.205	0.095	-0.024
-320.056	-200.000	-0.002	-0.075
-319.041	49.852	-0.194	-0.184
-318.026	800.000	-0.032	-0.089
-317.012	192.162	-0.183	-0.278
-315.997	84.450	-0.157	-0.173
-314.983	-18.356	-0.267	0.168
-313.968	-150.295	-0.347	0.027
-312.953	221.291	-0.066	-0.106
-311.939	-97.152	0.061	-0.016
-310.924	-142.973	-0.159	0.016
-309.910	432.204	-0.053	0.115
-308.895	-80.716	-0.065	0.022
-307.880	180.382	0.187	-0.276
-306.866	-77.423	0.075	-0.026
-305.851	-20.773	0.067	0.041
-304.837	404.696	-0.068	-0.143
-303.822	455.417	0.123	-0.274
-302.807	-200.000	-0.017	-0.165
-301.793	-194.952	-0.283	0.002
-300.778	-140.580	0.215	0.022
-299.764	407.931	0.046	0.098
-298.749	175.883	-0.200	-0.292
-297.735	-146.205	0.057	0.005
-296.720	-168.702	0.306	0.012
-295.705	73.811	0.111	-0.117
-294.691	21.651	0.068	0.055
-293.676	-200.000	0.021	0.096
-292.662	-200.000	0.004	-0.078
-291.647	265.454	0.219	-0.385
-290.632	-200.000	0.005	-0.105
-289.618	-200.000	0.021	-0.128
-288.603	800.000	-0.061	-0.260
-287.589	-200.000	-0.029	0.286
-286.574	800.000	0.074	0.281
-285.559	159.400	0.121	0.170
-284.545	36.490	-0.287	-0.255
-283.530	-200.000	-0.038	-0.239
-282.516	126.674	0.229	-0.291
-281.501	150.497	0.022	-0.030
-280.486	-200.000	0.029	-0.148
-279.472	358.645	-0.089	0.180
-278.457	411.790	-0.114	0.243
-277.443	800.000	0.060	0.260
-276.428	800.000	-0.007	0.025
-275.413	66.976	0.116	-0.119
-274.399	800.000	0.100	0.306
-273.384	343.280	0.116	0.229
-272.370	-137.340	0.269	-0.031
-271.355	-47.028	0.301	0.147
-270.340	-85.263	0.236	0.074
-269.326	-200.000	0.007	-0.151
-268.311	-89.030	-0.204	0.061
-267.297	-92.595	0.162	0.046
-266.282	-58.431	0.370	0.161
-265.267	-200.000	-0.007	0.107
-264.253	-200.000	-0.002	-0.487
-263.238	-200.000	0.016	0.233
-262.224	-84.615	-0.090	-0.028
-261.209	11.312	0.299	0.230
-260.195	364.089	0.082	-0.166
-259.180	424.003	0.056	0.121
-258.165	81.575	0.090	-0.098
-257.151	180.554	-0.186	-0.274
-256.136	-200.000	0.057	-0.259
-255.122	-200.000	-0.017	0.091
-254.107	-119.730	-0.090	-0.016
-253.092	-7.743	-0.403	0.273
-252.078	54.915	0.130	-0.126
-251.063	-94.082	-0.350	0.096
-250.049	-200.000	0.015	-0.261
-249.034	800.000	0.012	0.044
-248.019	800.000	0.090	0.265
-247.005	70.184	-0.300	0.311
-245.990	-31.066	0.034	-0.020
-244.976	-28.568	-0.129	-0.075
-243.961	247.594	0.124	0.209
-242.946	-200.000	-0.005	-0.122
-241.932	-54.997	0.229	0.104
-240.917	-95.018	-0.123	0.033
-239.903	-83.247	-0.115	0.037
-238.888	9.701	-0.067	0.051
-237.873	-200.000	-0.015	-0.170
-236.859	-31.668	-0.150	0.085
-235.844	85.755	-0.053	0.058
-234.830	276.124	0.090	-0.161
-233.815	40.024	0.126	0.114
-232.800	157.606	0.114	-0.159
-231.786	-120.208	-0.236	-0.040
-230.771	-200.000	0.010	-0.189
-229.757	193.093	0.200	0.303
-228.742	-92.191	0.447	-0.127
-227.727	800.000	-0.032	-0.107
-226.713	-107.479	0.049	-0.011
-225.698	-200.000	-0.032	-0.238
-224.684	-200.000	0.010	-0.094
-223.669	-90.568	-0.019	-0.005
-222.655	-113.854	0.366	-0.071
-221.640	800.000	-0.032	-0.102
-220.625	209.607	-0.067	-0.106
-219.611	-113.995	0.111	0.022
-218.596	-200.000	-0.017	0.083
-217.582	323.980	-0.164	-0.314
-216.567	135.483	0.137	-0.178
-215.552	-16.752	0.295	-0.187
-214.538	8.476	0.052	0.040
-213.523	-140.468	0.444	0.046
-212.509	42.781	-0.173	-0.158
-211.494	69.007	0.243	-0.250
-210.479	-200.000	-0.014	0.232
-209.465	800.000	-0.035	-0.107
-208.450	-105.381	0.316	-0.072
-207.436	292.475	-0.169	-0.308
-206.421	-200.000	-0.008	-0.106
-205.406	800.000	0.032	-0.118
-204.392	43.356	-0.254	-0.232
-203.377	-200.000	-0.042	0.192
-202.363	800.000	0.023	-0.094
-201.348	-200.000	0.010	0.252
-200.333	-61.221	0.167	-0.071
-199.319	130.977	0.147	0.189
-198.304	639.972	-0.147	0.374
-197.290	414.848	-0.122	0.261
-196.275	-135.277	0.251	0.030
-195.260	-200.000	0.026	-0.139
-194.246	-200.000	0.002	0.117
-193.231	540.937	0.116	0.277
-192.217	-149.011	0.175	-0.014
-191.202	172.967	0.080	0.116
-190.187	-200.000	-0.014	0.204
-189.173	800.000	-0.065	0.241
-188.158	-200.000	-0.046	0.440
-187.144	352.632	0.114	0.227
-186.129	-98.934	0.116	-0.030
-185.114	-200.000	-0.008	-0.152
-184.100	-84.005	-0.096	0.031
-183.085	132.328	0.209	0.269
-182.071	206.779	-0.068	-0.106
-181.056	-76.014	-0.212	-0.075
-180.042	-200.000	0.015	-0.069
-179.027	-117.836	-0.184	0.033
-178.012	-44.380	-0.274	0.137
-176.998	-75.413	0.236	-0.084
-175.983	-8.650	-0.064	-0.043
-174.969	800.000	-0.029	0.106
-173.954	-16.996	0.115	0.072
-172.939	296.066	0.254	0.465
-171.925	-200.000	-0.007	-0.286
-170.910	656.302	0.051	-0.131
-169.896	132.070	0.176	-0.226
-168.881	149.362	-0.230	-0.312
-167.866	800.000	-0.072	-0.270
-166.852	-89.009	-0.446	0.132
-165.837	246.741	0.011	-0.018
-164.823	-97.151	0.167	-0.044
-163.808	-200.000	0.000	0.069
-162.793	-28.391	0.193	-0.111
-161.779	29.688	-0.158	-0.135
-160.764	800.000	-0.011	0.036
-159.750	338.652	-0.079	-0.154
-158.735	150.460	0.246	-0.334
-157.720	-183.916	0.429	0.007
-156.706	-77.763	-0.106	-0.037
-155.691	321.170	0.178	0.338
-154.677	-37.009	-0.266	-0.143
-153.662	-92.916	0.312	-0.087
-152.647	32.390	-0.021	-0.018
-151.633	45.065	0.062	0.057
-150.618	95.506	-0.181	-0.207
-149.604	11.633	-0.173	0.133
-148.589	800.000	0.117	-0.384
-147.574	243.834	-0.109	0.183
-146.560	647.504	-0.057	-0.145
-145.545	800.000	-0.070	0.195
-144.531	314.332	-0.033	-0.062
-143.516	-200.000	0.051	-0.496
-142.502	-67.383	0.083	-0.032
-141.487	-130.766	-0.115	-0.015
-140.472	31.351	0.175	0.150
-139.458	800.000	-0.032	0.099
-138.443	-68.383	0.163	0.063
-137.429	-31.352	0.430	0.242
-136.414	-200.000	0.009	-0.097
-135.399	-162.173	-0.078	-0.004
-134.385	-145.052	0.166	0.015
-133.370	88.829	-0.221	0.245
-132.356	689.592	0.041	-0.106
-131.341	-113.218	0.222	-0.044
-130.326	-42.004	0.189	0.097
-129.312	441.591	-0.188	0.411
-128.297	-200.000	-0.002	-0.197
-127.283	-6.608	0.072	0.049
-126.268	-49.081	-0.440	0.210
-125.253	280.967	-0.173	0.309
-124.239	28.789	0.103	0.087
-123.224	221.160	0.094	-0.150
-122.210	-126.816	0.397	-0.059
-121.195	407.143	0.072	0.152
-120.180	-47.484	0.335	0.162
-119.166	-104.477	-0.250	-0.058
-118.151	473.378	0.149	0.336
-117.137	-200.000	-0.001	0.121
-116.122	789.060	-0.022	0.060
-115.107	800.000	0.077	-0.292
-114.093	77.641	0.195	0.207
-113.078	-160.809	0.277	0.015
-112.064	27.552	0.141	-0.118
-111.049	-200.000	-0.029	0.299
-110.034	-200.000	-0.024	-0.344
-109.020	-77.872	-0.246	-0.085
-108.005	-80.661	0.075	0.025
-106.991	-120.208	-0.210	-0.036
-105.976	-200.000	0.002	-0.037
-104.962	26.823	0.291	-0.243
-103.947	23.810	-0.269	-0.221
-102.932	154.611	-0.149	-0.204
-101.918	1.788	0.071	-0.051
-100.903	-122.931	0.308	-0.049
-99.889	503.014	0.104	0.241
-98.874	-200.000	0.014	-0.083
-97.859	-46.034	0.122	0.060
-96.845	-44.546	0.081	-0.040
-95.830	-40.709	-0.234	-0.121
-94.816	-13.093	-0.066	-0.043
-93.801	-200.000	0.024	-0.349
-92.786	28.207	-0.231	-0.195
-91.772	-200.000	0.002	0.119
-90.757	-128.896	0.043	0.006
-89.743	-43.626	0.204	-0.102
-88.728	-200.000	-0.013	-0.131
-87.713	-39.057	0.179	-0.094
-86.699	-94.771	0.227	-0.061
-85.684	-200.000	-0.062	0.356
-84.670	-55.464	0.347	0.155
-83.655	-43.421	0.069	0.035
-82.640	-200.000	-0.027	0.132
-81.626	31.834	-0.153	0.131
-80.611	800.000	-0.016	-0.056
-79.597	-142.415	-0.295	0.029
-78.582	-50.531	-0.148	0.069
-77.567	-200.000	0.016	0.214
-76.553	800.000	-0.067	0.195
-75.538	-93.885	0.210	-0.058
-74.524	-200.000	-0.041	-0.403
-73.509	-112.994	-0.327	0.064
-72.494	636.008	0.098	-0.249
-71.480	-200.000	0.040	0.250
-70.465	-63.406	-0.275	-0.113
-69.451	-200.000	0.030	0.242
-68.436	-139.185	0.153	0.016
-67.422	-45.923	-0.320	0.157
-66.407	-162.178	0.264	0.013
-65.392	187.141	0.035	0.052
-64.378	-70.522	-0.087	-0.033
-63.363	91.173	0.169	-0.189
-62.349	489.823	0.095	-0.217
-61.334	136.537	-0.416	-0.542
-60.319	-200.000	0.014	-0.122
-59.305	-200.000	-0.069	-0.573
-58.290	153.703	0.425	0.580
-57.276	212.751	0.968	1.522
-56.261	-200.000	74.054	552.563
-55.246	536.997	1332.953	3154.292
-54.232	135.758	2596.177	3368.103
-53.217	119.186	2263.020	2789.082
-52.203	55.608	1689.722	1630.593
-51.188	46.830	1404.460	1300.285
-50.173	43.141	1355.945	1232.817
-49.159	61.481	1389.274	1376.483
-48.144	69.940	1407.937	1446.862
-47.130	47.426	1370.664	1272.459
-46.115	42.912	1354.597	1229.997
-45.100	42.755	1349.987	1224.805
-44.086	42.775	1346.923	1222.103
-43.071	42.499	1345.356	1218.957
-42.057	42.671	1342.892	1217.714
-41.042	42.612	1341.229	1215.801
-40.027	42.758	1339.403	1214.983
-39.013	42.798	1337.141	1213.122
-37.998	42.790	1335.321	1211.378
-36.984	42.820	1333.723	1210.059
-35.969	42.970	1331.864	1209.223
-34.954	42.872	1330.711	1207.542
-33.940	43.005	1328.579	1206.356
-32.925	42.968	1327.423	1205.040
-31.911	43.070	1325.564	1203.912
-30.896	42.939	1324.143	1201.790
-29.881	42.999	1322.668	1200.760
-28.867	43.041	1321.548	1199.945
-27.852	42.977	1319.428	1197.595
-26.838	43.024	1317.996	1196.529
-25.823	43.027	1316.564	1195.199
-24.809	42.885	1315.319	1193.179
-23.794	42.932	1313.894	1192.114
-22.779	42.876	1313.009	1190.933
-21.765	42.972	1311.232	1189.841
-20.750	42.949	1309.577	1188.156
-19.736	42.845	1308.417	1186.443
-18.721	42.799	1307.896	1185.655
-17.706	42.854	1306.174	1184.367
-16.692	42.941	1305.065	1183.831
-15.677	42.841	1304.108	1182.326
-14.663	42.896	1302.731	1181.352
-13.648	42.686	1302.204	1179.599
-12.633	42.752	1300.959	1178.812
-11.619	42.766	1300.081	1178.048
-10.604	42.778	1299.221	1177.291
-9.590	42.758	1298.093	1176.110
-8.575	42.794	1296.688	1175.000
-7.560	42.827	1296.119	1174.629
-6.546	42.784	1295.068	1173.377
-5.531	42.769	1293.847	1172.137
-4.517	42.781	1292.979	1171.374
-3.502	42.793	1292.411	1170.885
-2.487	42.907	1291.328	1170.520
-1.473	43.003	1287.450	1167.516
-0.458	42.182	1272.977	1149.636
0.556	36.480	1252.689	1105.725
1.571	30.896	1254.126	1074.787
2.586	28.217	1266.531	1069.691
3.600	26.038	1254.410	1046.734
4.615	18.595	1176.361	940.853
5.629	6.929	1091.232	813.003
6.644	0.872	1066.559	764.033
7.659	0.286	1063.821	759.057
8.673	0.111	1062.785	757.367
9.688	0.144	1061.578	756.606
10.702	0.548	1059.950	757.406
11.717	6.043	1068.196	790.957
12.731	15.124	1080.514	846.075
13.746	18.402	1082.701	864.280
14.761	17.204	1080.629	856.514
15.775	16.254	1078.922	850.304
16.790	15.120	1076.653	842.736
17.804	14.399	1075.235	837.928
18.819	14.007	1073.831	834.789
19.834	13.793	1072.811	832.846
20.848	13.444	1072.225	830.568
21.863	13.258	1071.046	828.651
22.877	13.067	1070.362	827.089
23.892	13.035	1069.780	826.407
24.907	13.166	1068.506	826.003
25.921	13.077	1068.479	825.464
26.936	13.049	1067.601	824.576
27.950	13.148	1066.644	824.255
28.965	13.267	1064.977	823.489
29.980	13.360	1063.707	822.898
30.994	13.351	1062.802	822.078
32.009	13.352	1061.431	820.951
33.023	13.408	1060.518	820.452
34.038	13.361	1059.775	819.567
35.053	13.128	1059.371	818.030
36.067	13.259	1058.154	817.664
37.082	13.319	1056.939	816.951
38.096	13.303	1056.367	816.360
39.111	13.373	1055.394	815.878
40.126	13.091	1054.812	813.968
41.140	13.113	1053.552	813.029
42.155	13.081	1052.470	811.968
43.169	12.994	1051.330	810.588
44.184	13.069	1050.488	810.234
45.199	13.066	1049.535	809.412
46.213	13.072	1047.973	808.167
47.228	13.221	1046.837	807.949
48.242	13.213	1046.170	807.324
49.257	13.104	1045.095	805.889
50.271	13.139	1044.462	805.502
51.286	13.202	1043.839	805.254
52.301	13.099	1043.125	804.133
53.315	13.264	1041.181	803.363
54.330	13.043	1040.716	801.863
55.344	13.176	1039.680	801.636
56.359	13.130	1039.043	800.854
57.374	13.064	1037.976	799.639
58.388	13.134	1036.852	799.040
59.403	13.119	1035.902	798.168
60.417	13.027	1035.176	797.092
61.432	12.965	1034.816	796.443
62.447	13.057	1033.683	795.945
63.461	12.948	1032.974	794.803
64.476	12.923	1032.278	794.076
65.490	12.906	1031.620	793.419
66.505	12.959	1030.745	792.932
67.520	12.991	1030.223	792.613
68.534	13.085	1029.224	792.225
69.549	12.956	1028.676	791.114
70.563	13.072	1027.802	790.931
71.578	12.897	1026.952	789.366
72.593	12.946	1026.012	788.810
73.607	13.064	1025.227	788.701
74.622	12.955	1025.137	788.041
75.636	12.972	1024.419	787.498
76.651	12.916	1023.451	786.417
77.666	12.936	1022.786	785.932
78.680	12.983	1022.101	785.563
79.695	12.928	1021.682	784.906
80.709	13.074	1020.896	784.929
81.724	13.052	1020.299	784.297
82.739	13.006	1019.713	783.560
83.753	13.106	1018.679	783.169
84.768	13.222	1017.559	782.789
85.782	13.292	1016.849	782.501
86.797	13.311	1015.712	781.649
87.812	13.221	1015.055	780.647
88.826	13.129	1014.155	779.452
89.841	13.219	1013.245	779.109
90.855	13.203	1012.455	778.359
91.870	13.310	1011.295	777.899
92.884	13.397	1010.374	777.533
93.899	13.353	1009.827	776.834
94.914	13.378	1008.808	776.099
95.928	13.343	1008.234	775.426
96.943	13.408	1007.292	774.935
97.957	13.251	1006.546	773.560
98.972	13.287	1005.555	772.897
99.987	13.291	1004.943	772.379
101.001	13.168	1003.753	770.821
102.016	13.207	1003.123	770.450
103.030	13.263	1002.282	769.995
104.045	13.257	1001.575	769.358
105.060	13.325	1000.679	768.916
106.074	13.295	999.652	767.923
107.089	13.139	998.897	766.551
108.103	13.206	997.848	765.988
109.118	13.244	996.935	765.396
110.133	13.169	995.835	764.134
111.147	13.154	995.307	763.595
112.162	13.261	994.472	763.380
113.176	13.338	993.347	762.806
114.191	13.247	992.767	761.870
115.206	13.246	992.157	761.331
116.220	13.118	991.604	760.249
117.235	13.242	990.164	759.650
118.249	13.212	989.505	758.937
119.264	13.181	988.997	758.342
120.279	13.178	988.113	757.583
121.293	13.183	987.264	756.886
122.308	13.189	986.268	756.083
123.322	13.221	985.311	755.429
124.337	13.319	984.203	754.959
125.352	13.122	983.398	753.375
126.366	13.223	982.106	752.782
127.381	13.207	981.244	751.979
128.395	13.123	980.292	750.804
129.410	13.215	979.192	750.313
130.424	13.312	978.208	749.930
131.439	13.335	977.458	749.393
132.454	13.276	977.232	748.887
133.468	13.404	976.088	748.524
134.483	13.283	975.490	747.452
135.497	13.523	974.265	747.528
136.512	13.462	973.597	746.674
137.527	13.390	972.844	745.710
138.541	13.483	971.859	745.308
139.556	13.465	971.257	744.696
140.570	13.354	970.898	743.858
141.585	13.527	969.759	743.693
142.600	13.565	968.138	742.557
143.614	13.516	967.875	742.069
144.629	13.510	967.466	741.666
145.643	13.333	966.752	740.257
146.658	13.479	965.391	739.801
147.673	13.384	964.536	738.658
148.687	13.487	963.395	738.179
149.702	13.303	962.787	736.827
150.716	13.460	961.932	736.807
151.731	13.401	961.173	735.899
152.746	13.402	960.495	735.318
153.760	13.443	959.786	734.892
154.775	13.393	959.468	734.363
155.789	13.628	958.329	734.469
156.804	13.409	958.117	733.267
157.819	13.594	956.803	733.017
158.833	13.559	956.015	732.192
159.848	13.711	955.331	732.274
160.862	13.661	954.391	731.272
161.877	13.609	953.312	730.151
162.892	13.528	952.527	729.127
163.906	13.451	951.826	728.190
164.921	13.471	950.783	727.413
165.935	13.541	949.991	727.050
166.950	13.428	949.030	725.755
167.964	13.517	948.256	725.490
168.979	13.507	947.650	724.915
169.994	13.502	946.712	724.112
171.008	13.577	946.213	723.998
172.023	13.655	945.133	723.445
173.037	13.736	944.381	723.161
174.052	13.667	943.673	722.254
175.067	13.415	943.724	721.132
176.081	13.549	942.549	720.752
177.096	13.602	942.152	720.616
178.110	13.698	941.318	720.329
179.125	13.631	940.935	719.682
180.140	13.598	940.237	718.941
181.154	13.715	940.056	719.247
182.169	13.742	939.437	718.827
183.183	13.746	938.592	718.132
184.198	13.883	937.468	717.800
185.213	13.820	937.393	717.411
186.227	13.882	936.315	716.790
187.242	13.941	935.742	716.541
188.256	13.978	935.056	716.110
189.271	13.863	934.244	714.929
190.286	13.655	933.872	713.689
191.300	13.591	932.974	712.664
192.315	13.783	932.142	712.789
193.329	13.737	931.816	712.281
194.344	13.713	931.253	711.683
195.359	13.778	930.548	711.358
196.373	13.867	930.056	711.304
197.388	14.036	929.624	711.633
198.402	14.014	928.481	710.602
199.417	13.927	928.430	710.126
200.432	14.026	927.585	709.841
201.446	14.003	927.692	709.763
202.461	14.076	926.816	709.341
203.475	14.080	925.977	708.653
204.490	14.183	924.977	708.263
205.504	14.080	924.422	707.338
206.519	14.036	923.643	706.490
207.534	14.102	922.815	706.076
208.548	14.072	922.684	705.784
209.563	13.995	921.911	704.804
210.577	14.074	921.160	704.504
211.592	14.157	920.381	704.197
212.607	14.167	919.516	703.517
213.621	14.133	919.173	703.046
214.636	14.231	918.133	702.604
215.650	14.207	917.668	702.082
216.665	14.246	916.785	701.510
217.680	14.187	916.303	700.829
218.694	14.325	915.690	700.882
219.709	14.176	914.829	699.532
220.723	14.185	914.470	699.235
221.738	14.306	913.640	699.047
222.753	14.339	912.802	698.484
223.767	14.352	912.315	698.103
224.782	14.429	911.817	697.982
225.796	14.438	911.264	697.535
226.811	14.442	910.174	696.655
227.826	14.479	909.330	696.099
228.840	14.358	908.904	695.209
229.855	14.505	907.932	695.015
230.869	14.467	907.245	694.269
231.884	14.360	906.788	693.412
232.899	14.331	905.881	692.537
233.913	14.425	904.972	692.174
234.928	14.429	904.545	691.801
235.942	14.412	903.890	691.169
236.957	14.297	903.564	690.382
237.972	14.356	902.982	690.121
238.986	14.459	902.034	689.762
240.001	14.357	901.396	688.792
241.015	14.486	900.866	688.856
242.030	14.522	900.230	688.458
243.045	14.583	899.402	688.017
244.059	14.568	899.205	687.744
245.074	14.576	898.302	687.025
246.088	14.654	897.589	686.739
247.103	14.676	897.018	686.332
248.117	14.574	896.983	685.827
249.132	14.720	896.327	685.862
250.147	14.774	895.035	685.036
251.161	14.509	894.871	683.764
252.176	14.917	894.060	684.751
253.190	14.740	893.727	683.713
254.205	14.955	892.522	683.610
255.220	14.894	892.108	682.981
256.234	14.970	891.257	682.580
257.249	14.923	890.862	682.026
258.263	14.996	889.971	681.580
259.278	14.940	889.050	680.588
260.293	15.096	888.307	680.591
261.307	15.031	888.013	680.041
262.322	15.035	887.541	679.637
263.336	15.138	886.668	679.327
264.351	15.103	886.139	678.718
265.366	15.185	885.087	678.185
266.380	15.125	884.735	677.613
267.395	15.095	884.212	677.031
268.409	15.108	883.451	676.442
269.424	15.143	882.943	676.135
270.439	15.185	882.102	675.601
271.453	15.078	881.340	674.526
272.468	15.162	880.748	674.349
273.482	15.273	880.073	674.218
274.497	15.086	879.515	672.980
275.512	15.179	879.176	673.035
276.526	15.072	878.610	672.114
277.541	15.261	877.931	672.295
278.555	15.248	877.518	671.865
279.570	15.372	876.586	671.588
280.585	15.239	875.889	670.464
281.599	15.403	875.053	670.417
282.614	15.295	874.534	669.529
283.628	15.283	874.066	669.064
284.643	15.357	873.210	668.646
285.657	15.425	872.424	668.255
286.672	15.479	871.928	668.030
287.687	15.208	871.643	666.675
288.701	15.460	870.697	666.896
289.716	15.445	870.411	666.556
290.730	15.454	869.680	665.972
291.745	15.449	869.317	665.619
292.760	15.588	868.542	665.514
293.774	15.436	868.145	664.553
294.789	15.531	867.244	664.178
295.803	15.464	867.057	663.713
296.818	15.460	865.995	662.825
297.833	15.437	865.231	662.091
298.847	15.547	864.596	661.978
299.862	15.584	864.222	661.779
300.876	15.510	863.997	661.257
301.891	15.653	863.067	661.048
302.906	15.820	862.243	661.015
303.920	15.733	862.246	660.618
304.935	15.810	861.246	660.097
305.949	15.842	860.564	659.641
306.964	15.683	859.976	658.507
307.979	15.696	859.790	658.357
308.993	15.785	859.120	658.134
310.008	15.762	858.499	657.513
311.022	15.957	857.637	657.553
312.037	15.697	857.491	656.368
313.052	15.786	857.000	656.283
314.066	15.634	856.455	655.217
315.081	15.690	855.896	654.948
316.095	15.802	854.954	654.606
317.110	15.817	854.404	654.184
318.125	15.649	854.040	653.194
319.139	15.754	853.757	653.327
320.154	15.863	852.913	653.046
321.168	15.863	852.526	652.693
322.183	15.906	851.916	652.335
323.197	15.931	851.441	652.008
324.212	15.900	851.031	651.519
325.227	15.877	850.266	650.785
326.241	15.839	849.749	650.186
327.256	15.762	849.664	649.765
328.270	15.923	848.552	649.477
329.285	15.867	848.093	648.855
330.300	15.942	847.594	648.706
331.314	16.014	846.903	648.396
332.329	15.996	846.458	647.927
333.343	15.970	845.693	647.187
334.358	16.111	845.245	647.324
335.373	16.020	845.107	646.815
336.387	16.031	844.770	646.540
337.402	16.097	844.542	646.562
338.416	16.109	844.061	646.182
339.431	16.265	843.712	646.458
340.446	16.148	843.403	645.715
341.460	16.213	842.877	645.502
342.475	16.168	842.399	644.909
343.489	16.228	841.859	644.667
344.504	16.174	842.235	644.691
345.519	16.381	841.005	644.484
346.533	16.207	840.704	643.531
347.548	16.307	840.015	643.329
348.562	16.466	838.849	642.983
349.577	16.344	838.730	642.369
350.592	16.278	838.262	641.706
351.606	16.319	837.468	641.194
352.621	16.292	836.664	640.420
353.635	16.241	836.195	639.812
354.650	16.289	835.848	639.671
355.665	16.414	834.670	639.186
356.679	16.477	834.241	639.039
357.694	16.409	833.712	638.321
358.708	16.434	832.908	637.744
359.723	16.509	832.216	637.439
360.738	16.475	832.020	637.104
361.752	16.503	831.445	636.715
362.767	16.516	830.937	636.316
363.781	16.584	830.285	636.018
364.796	16.523	830.119	635.606
365.810	16.725	829.071	635.504
366.825	16.574	829.098	634.900
367.840	16.648	828.411	634.597
368.854	16.615	827.890	634.019
369.869	16.792	827.735	634.505
370.883	16.626	827.334	633.521
371.898	16.656	827.063	633.369
372.913	16.791	826.669	633.516
373.927	16.938	825.657	633.235
374.942	16.779	825.329	632.334
375.956	16.721	824.841	631.689
376.971	16.800	824.627	631.762
377.986	16.914	824.107	631.732
379.000	16.910	823.658	631.317
380.015	16.999	823.207	631.246
381.029	17.109	822.418	630.996
382.044	17.011	822.072	630.309
383.059	16.855	821.769	629.441
384.073	16.958	821.127	629.278
385.088	16.762	820.694	628.162
386.102	16.748	820.158	627.646
387.117	16.963	819.117	627.589
388.132	17.006	818.546	627.255
389.146	17.046	818.034	626.953
390.161	16.972	817.550	626.256
391.175	17.128	817.202	626.509
392.190	16.931	816.943	625.528
393.205	16.946	816.247	624.993
394.219	16.984	816.101	624.966
395.234	16.902	815.438	624.101
396.248	17.073	815.053	624.384
397.263	16.903	814.839	623.538
398.278	16.939	814.358	623.246
399.292	16.895	814.104	622.834
400.307	17.139	813.471	623.190
401.321	17.104	812.996	622.643
402.336	17.010	812.606	621.944
403.350	17.042	812.232	621.723
404.365	17.154	811.341	621.393
405.380	17.232	810.896	621.284
406.394	17.213	810.553	620.896
407.409	17.225	810.457	620.812
408.423	17.202	809.904	620.251
409.438	17.454	809.380	620.712
410.453	17.271	809.011	619.709
411.467	17.472	808.271	619.816
412.482	17.408	807.911	619.252
413.496	17.312	807.869	618.817
414.511	17.474	807.551	619.108
415.526	17.525	807.272	619.027
416.540	17.591	806.296	618.460
417.555	17.554	805.807	617.899
418.569	17.522	805.459	617.461
419.584	17.515	805.251	617.220
420.599	17.514	804.961	616.939
421.613	84.462	1251.254	1320.007
422.628	71.905	1316.290	1320.122
