DTS Sentinel unit serial number:	SN413079Multiplexer serial number:	ORYXHardware model number:	OX4-SRSoftware version number:	ORYX F/W v4.00 Oryx Data Collector v3.7.2.0data status	okinstallation	princeton_trtdifferential loss correction	single-endedforward channel	channel 1reverse channel	N/Adate	2019/09/12time	18:41:34forward acquisition time	15.00reverse acquisition time	0.00gamma	496.2192k internal	0.2319k external	0.2319temperature offset calibration	1.0107default loss term (dB/km)	0.3790temperature slope calibration	1.0000multiplexer offset coefficient	1.0000multiplexer slope coefficient	1.0000fibre end	0.00T internal ref (°C)	33.06T ext. ref 1 (°C)	2.98T ext. ref 2 (°C)	27.64length (m)	temperature (°C)	Stokes	anti-Stokes-747.200	-200.000	0.036	-0.284
-746.185	-98.602	0.429	-0.111
-745.171	3.839	0.534	0.395
-744.156	223.630	-0.409	-0.668
-743.142	357.377	0.279	-0.563
-742.127	-35.854	-0.779	0.427
-741.112	-51.862	-0.198	-0.093
-740.098	601.622	-0.038	0.096
-739.083	-7.577	0.203	-0.139
-738.069	-200.000	0.016	0.543
-737.054	583.083	-0.364	0.905
-736.039	-200.000	0.031	-1.028
-735.025	800.000	-0.085	-0.353
-734.010	-95.152	-0.426	0.116
-732.996	61.269	-0.662	-0.665
-731.981	-50.075	-0.148	-0.071
-730.966	310.516	0.306	0.580
-729.952	-80.066	-0.796	-0.270
-728.937	800.000	-0.117	0.387
-727.923	169.910	-0.153	-0.221
-726.908	800.000	-0.110	0.437
-725.894	-55.904	1.364	0.615
-724.879	28.211	-0.223	0.190
-723.864	-128.194	0.504	-0.073
-722.850	238.553	-0.167	-0.281
-721.835	-1.422	-0.572	-0.408
-720.821	-14.878	-0.265	0.172
-719.806	95.793	-0.458	-0.529
-718.791	-200.000	0.074	0.645
-717.777	-172.249	0.333	0.011
-716.762	-200.000	-0.092	0.457
-715.748	449.685	0.066	-0.148
-714.733	-109.644	-0.477	0.102
-713.718	168.719	0.155	0.223
-712.704	114.169	-0.190	-0.234
-711.689	611.644	-0.275	0.696
-710.675	-200.000	0.089	-0.781
-709.660	4.047	-0.820	0.606
-708.645	19.426	0.543	-0.441
-707.631	421.796	-0.089	0.192
-706.616	168.752	0.120	0.173
-705.602	-42.403	0.417	0.215
-704.587	781.380	-0.182	0.504
-703.572	-200.000	0.004	0.435
-702.558	-40.213	0.153	-0.080
-701.543	-45.943	0.291	0.145
-700.529	-95.818	-0.124	-0.033
-699.514	-32.152	-0.191	0.108
-698.499	15.211	-0.408	0.323
-697.485	230.010	0.433	0.714
-696.470	5.061	-0.286	-0.213
-695.456	-76.540	-0.550	-0.195
-694.441	798.143	0.266	-0.741
-693.426	70.286	-0.230	0.240
-692.412	-92.882	-0.090	0.025
-691.397	-94.483	0.253	-0.070
-690.383	81.501	-0.143	0.156
-689.368	-72.202	0.252	0.094
-688.354	-200.000	-0.073	-0.535
-687.339	800.000	0.144	-0.572
-686.324	11.963	-0.566	0.439
-685.310	800.000	0.094	-0.396
-684.295	408.414	0.261	-0.558
-683.281	800.000	0.209	0.596
-682.266	129.546	0.269	-0.347
-681.251	-92.250	-0.871	0.248
-680.237	450.207	-0.084	0.188
-679.222	33.042	0.568	-0.497
-678.208	47.182	0.239	-0.225
-677.193	775.094	-0.083	-0.230
-676.178	109.163	-0.935	1.130
-675.164	-102.231	1.037	0.251
-674.149	25.339	0.676	-0.567
-673.135	-200.000	-0.050	-0.396
-672.120	193.605	0.078	-0.119
-671.105	-120.628	1.124	0.192
-670.091	-75.060	0.708	-0.256
-669.076	800.000	0.049	-0.145
-668.062	81.029	-0.363	-0.395
-667.047	800.000	0.178	0.582
-666.032	-111.447	-0.984	0.202
-665.018	-200.000	-0.027	-0.224
-664.003	-154.054	0.226	-0.015
-662.989	-158.713	0.168	-0.010
-661.974	116.599	-0.512	0.634
-660.959	-109.002	-0.188	0.040
-659.945	117.752	-0.695	-0.863
-658.930	800.000	-0.070	-0.277
-657.916	-93.910	-0.774	0.215
-656.901	-93.425	0.676	-0.189
-655.886	800.000	0.278	-0.799
-654.872	439.414	-0.278	0.612
-653.857	-39.583	-0.238	-0.126
-652.843	274.348	-0.235	0.420
-651.828	69.778	0.252	-0.262
-650.814	35.839	-0.524	0.464
-649.799	69.132	0.280	0.290
-648.784	-22.115	0.143	0.088
-647.770	-200.000	0.097	-0.564
-646.755	187.094	-0.173	-0.260
-645.741	-79.468	-0.493	0.168
-644.726	520.836	0.117	-0.278
-643.711	-31.331	-0.422	-0.240
-642.697	800.000	-0.053	-0.227
-641.682	384.092	-0.216	-0.448
-640.668	-121.081	-0.441	-0.075
-639.653	222.286	0.195	0.317
-638.638	-53.765	0.460	-0.212
-637.624	729.476	0.107	0.289
-636.609	40.579	-0.855	-0.776
-635.595	319.310	0.367	0.701
-634.580	-57.748	0.796	0.351
-633.565	348.818	0.232	0.461
-632.551	134.141	0.511	-0.667
-631.536	-114.591	-0.535	0.103
-630.522	374.415	-0.104	-0.213
-629.507	-49.653	0.239	-0.115
-628.492	800.000	-0.350	1.066
-627.478	-200.000	-0.057	0.338
-626.463	104.660	-0.476	-0.565
-625.449	-135.267	-0.553	0.067
-624.434	298.630	0.300	0.557
-623.419	110.132	0.285	0.345
-622.405	-20.505	-0.245	0.151
-621.390	6.334	-0.249	-0.186
-620.376	-161.926	-0.479	0.024
-619.361	-117.555	0.834	0.152
-618.346	202.179	0.032	0.050
-617.332	-35.203	0.208	-0.114
-616.317	157.632	0.173	0.241
-615.303	-33.859	0.177	0.098
-614.288	-156.789	0.743	-0.046
-613.273	-140.832	0.242	-0.025
-612.259	-200.000	-0.003	0.552
-611.244	-200.000	-0.006	0.457
-610.230	171.235	-0.321	0.463
-609.215	-20.793	0.362	0.223
-608.201	-108.989	-0.723	-0.155
-607.186	-200.000	-0.062	-0.314
-606.171	-89.275	0.767	0.228
-605.157	687.997	0.173	0.454
-604.142	-200.000	-0.059	-1.073
-603.128	-200.000	0.028	-0.525
-602.113	-86.743	-0.448	0.138
-601.098	-83.627	-0.847	-0.272
-600.084	-86.968	-0.689	-0.211
-599.069	800.000	0.023	-0.084
-598.055	233.770	-0.129	-0.214
-597.040	430.879	-0.083	-0.181
-596.025	232.919	-0.189	-0.312
-595.011	-200.000	0.061	-0.282
-593.996	52.574	0.233	-0.224
-592.982	207.467	-0.121	-0.189
-591.967	-141.529	-0.382	-0.039
-590.952	196.278	0.175	-0.268
-589.938	14.584	0.311	-0.244
-588.923	178.630	-0.322	-0.473
-587.909	257.877	-0.215	0.372
-586.894	-38.150	0.628	-0.335
-585.879	426.900	0.404	-0.876
-584.865	-22.448	-0.957	0.582
-583.850	800.000	-0.221	0.618
-582.836	-60.464	0.279	0.119
-581.821	-189.382	-0.616	-0.007
-580.806	116.230	0.333	-0.411
-579.792	-106.391	0.155	-0.035
-578.777	-200.000	-0.017	-0.316
-577.763	-4.479	-0.275	0.191
-576.748	66.543	0.363	-0.372
-575.733	-133.579	0.670	0.084
-574.719	-31.726	0.707	-0.399
-573.704	-200.000	-0.082	0.495
-572.690	-103.403	-0.695	0.165
-571.675	-152.801	0.545	0.039
-570.661	-15.280	-0.429	-0.276
-569.646	264.290	0.120	-0.209
-568.631	210.247	0.216	-0.341
-567.617	389.744	-0.316	-0.658
-566.602	-29.008	-0.486	-0.281
-565.588	800.000	-0.105	-0.417
-564.573	-135.237	0.113	0.014
-563.558	78.628	0.736	-0.791
-562.544	-147.631	-0.158	-0.013
-561.529	-189.057	0.806	-0.010
-560.515	-123.737	-0.300	0.048
-559.500	170.876	0.534	0.768
-558.485	-200.000	-0.059	0.469
-557.471	-95.706	0.586	0.157
-556.456	-35.014	0.296	0.162
-555.442	-39.286	0.468	0.247
-554.427	-45.670	-0.411	-0.204
-553.412	-200.000	0.016	-0.091
-552.398	-200.000	0.017	0.792
-551.383	25.645	0.767	0.642
-550.369	181.168	-0.318	-0.469
-549.354	-38.267	0.369	-0.196
-548.339	-3.274	0.382	0.267
-547.325	-167.667	0.299	0.012
-546.310	1.419	0.945	-0.682
-545.296	-44.155	0.427	0.215
-544.281	174.357	0.033	0.048
-543.266	13.714	0.115	-0.089
-542.252	213.104	-0.405	-0.641
-541.237	-200.000	-0.136	1.231
-540.223	198.651	0.410	0.630
-539.208	-31.229	-1.058	-0.598
-538.193	-60.670	-0.829	0.353
-537.179	-200.000	-0.034	0.451
-536.164	-200.000	0.027	-0.148
-535.150	-200.000	0.288	1.273
-534.135	-200.000	0.029	-0.329
-533.121	403.008	0.336	0.710
-532.106	-155.125	0.156	-0.010
-531.091	-20.168	-0.643	0.398
-530.077	-33.058	0.228	-0.127
-529.062	127.804	-0.192	-0.244
-528.048	485.294	0.094	-0.215
-527.033	335.061	0.327	0.636
-526.018	-44.566	0.594	-0.298
-525.004	-155.769	-1.037	0.067
-523.989	-200.000	0.017	-0.155
-522.975	434.077	-0.279	-0.609
-521.960	9.768	-0.359	0.273
-520.945	-6.159	0.315	-0.215
-519.931	72.138	-0.156	0.163
-518.916	-55.635	0.646	-0.290
-517.902	-200.000	-0.151	-1.260
-516.887	-56.111	0.914	0.408
-515.872	-85.392	0.848	-0.265
-514.858	228.286	-0.295	0.482
-513.843	495.521	-0.334	-0.770
-512.829	-110.130	-0.241	-0.050
-511.814	47.168	0.298	0.278
-510.799	-200.000	-0.130	0.739
-509.785	-76.352	0.392	-0.138
-508.770	170.527	-0.257	-0.369
-507.756	-200.000	-0.030	0.824
-506.741	-67.029	0.176	-0.069
-505.726	-95.701	-0.661	0.177
-504.712	714.527	0.136	0.363
-503.697	-200.000	-0.028	-0.124
-502.683	800.000	0.326	0.963
-501.668	64.469	0.651	0.657
-500.653	-51.317	-0.333	-0.156
-499.639	-43.081	0.372	0.189
-498.624	800.000	0.321	-0.892
-497.610	227.475	0.501	-0.817
-496.595	-200.000	-0.045	0.384
-495.581	-89.872	0.667	-0.195
-494.566	-122.245	0.843	0.138
-493.551	-200.000	0.050	0.357
-492.537	-80.064	-0.617	-0.207
-491.522	-171.674	-0.327	-0.011
-490.508	-78.839	0.758	0.259
-489.493	75.856	-0.077	0.082
-488.478	-12.965	-0.806	-0.526
-487.464	-153.679	0.574	-0.040
-486.449	-22.357	0.555	-0.337
-485.435	800.000	-0.228	-0.954
-484.420	53.805	0.234	0.225
-483.405	-200.000	0.101	0.482
-482.391	-14.644	0.420	0.270
-481.376	655.938	0.354	0.911
-480.362	178.210	0.240	0.350
-479.347	-31.229	-0.272	0.153
-478.332	-83.719	-0.636	-0.203
-477.318	-30.644	-0.422	0.239
-476.303	-163.938	0.734	-0.034
-475.289	61.375	0.429	-0.427
-474.274	-133.828	-0.866	-0.108
-473.259	371.898	-0.093	-0.189
-472.245	415.832	0.325	-0.695
-471.230	219.294	-0.412	-0.659
-470.216	-200.000	0.280	-1.257
-469.201	-132.176	0.526	0.068
-468.186	-29.020	-0.473	0.272
-467.172	-200.000	0.021	-0.244
-466.157	-115.728	-1.145	0.215
-465.143	38.247	0.495	-0.441
-464.128	-7.599	-0.319	-0.216
-463.113	144.659	0.152	-0.203
-462.099	-116.106	1.347	0.251
-461.084	-16.731	-0.388	0.246
-460.070	800.000	-0.035	-0.097
-459.055	-22.676	-0.354	-0.214
-458.040	73.930	0.308	-0.323
-457.026	-67.164	-0.579	0.228
-456.011	-170.495	0.362	-0.013
-454.997	3.976	0.124	0.091
-453.982	-85.315	1.213	0.379
-452.968	-23.609	-0.618	0.371
-451.953	84.339	-0.616	-0.674
-450.938	85.161	-0.292	0.320
-449.924	100.042	-0.130	-0.151
-448.909	156.340	-0.527	-0.728
-447.895	208.088	0.437	-0.682
-446.880	417.496	-0.153	0.326
-445.865	-37.428	-0.586	0.313
-444.851	-39.197	0.366	-0.192
-443.836	205.639	-0.353	0.548
-442.822	-117.742	0.695	0.125
-441.807	800.000	0.057	0.202
-440.792	-200.000	-0.115	-0.839
-439.778	-94.862	-0.926	0.251
-438.763	114.398	-0.042	0.051
-437.749	267.972	-0.079	-0.138
-436.734	103.806	-0.400	-0.470
-435.719	575.963	0.312	0.763
-434.705	-152.344	0.552	-0.040
-433.690	83.603	-0.164	-0.179
-432.676	-93.945	1.034	0.284
-431.661	18.861	-0.403	0.323
-430.646	-200.000	0.088	0.953
-429.632	28.382	-0.578	0.488
-428.617	-133.549	0.363	0.046
-427.603	800.000	-0.168	-0.508
-426.588	-123.941	0.542	-0.085
-425.573	265.805	-0.175	-0.304
-424.559	42.927	-0.597	-0.544
-423.544	216.117	0.294	0.467
-422.530	128.172	0.368	0.468
-421.515	430.232	-0.088	0.190
-420.500	800.000	0.075	-0.292
-419.486	-95.075	0.148	-0.040
-418.471	-200.000	0.058	-0.281
-417.457	800.000	0.130	0.383
-416.442	-93.845	0.581	-0.160
-415.428	163.839	-0.289	-0.407
-414.413	-137.382	0.573	-0.065
-413.398	45.178	-0.486	0.448
-412.384	-22.597	0.073	-0.044
-411.369	-131.086	-0.443	-0.059
-410.355	731.353	0.166	-0.444
-409.340	350.045	0.430	0.849
-408.325	304.487	-0.719	1.332
-407.311	101.909	-0.128	0.149
-406.296	800.000	-0.353	-1.199
-405.282	800.000	0.071	0.200
-404.267	-200.000	-0.057	-0.349
-403.252	25.695	-0.667	-0.555
-402.238	800.000	0.054	0.164
-401.223	-33.922	-0.259	-0.142
-400.209	-200.000	-0.095	-0.766
-399.194	139.396	-0.211	-0.277
-398.179	315.670	0.122	-0.229
-397.165	228.419	-0.350	-0.569
-396.150	-61.568	-0.521	0.219
-395.136	800.000	0.131	0.462
-394.121	800.000	-0.081	-0.245
-393.106	123.246	0.208	0.261
-392.092	-7.039	-0.436	-0.296
-391.077	-68.852	-0.381	-0.147
-390.063	-116.446	1.031	0.190
-389.048	212.789	0.410	0.646
-388.033	-200.000	-0.046	0.409
-387.019	800.000	0.182	-0.602
-386.004	403.696	0.295	0.621
-384.990	131.039	-0.132	-0.170
-383.975	800.000	0.108	-0.421
-382.960	21.626	-0.464	-0.377
-381.946	-140.171	-0.641	-0.067
-380.931	-108.368	0.922	0.198
-379.917	-142.432	0.369	0.036
-378.902	129.213	0.279	-0.355
-377.888	167.424	-0.236	0.335
-376.873	-61.620	0.692	-0.290
-375.858	-114.415	0.537	-0.103
-374.844	800.000	0.036	0.116
-373.829	-182.262	-1.108	-0.021
-372.815	-200.000	0.046	-0.218
-371.800	25.126	-0.133	-0.110
-370.785	800.000	-0.366	-1.343
-369.771	-98.219	-0.450	-0.115
-368.756	621.709	-0.048	-0.120
-367.742	5.189	-0.234	-0.172
-366.727	800.000	-0.154	0.619
-365.712	-200.000	-0.150	0.981
-364.698	12.449	-0.500	0.384
-363.683	-4.418	0.532	-0.367
-362.669	800.000	0.110	0.356
-361.654	-15.596	-0.006	0.004
-360.639	124.756	0.032	0.040
-359.625	-200.000	0.071	0.428
-358.610	-158.778	-0.473	0.027
-357.596	138.371	0.358	0.469
-356.581	-119.351	0.589	-0.102
-355.566	-20.693	-0.974	0.596
-354.552	317.169	0.294	-0.553
-353.537	141.718	-0.247	0.326
-352.523	-182.580	-0.894	-0.016
-351.508	800.000	-0.054	0.191
-350.493	-52.948	-0.863	-0.396
-349.479	800.000	-0.100	0.371
-348.464	-190.200	-0.568	-0.006
-347.450	-179.550	0.143	-0.003
-346.435	254.113	0.404	-0.688
-345.420	-97.687	0.522	-0.135
-344.406	309.757	0.064	-0.119
-343.391	-200.000	-0.010	0.080
-342.377	88.584	-0.673	0.745
-341.362	0.399	0.407	0.289
-340.348	82.260	0.226	-0.244
-339.333	-35.620	0.262	-0.141
-338.318	54.035	0.316	-0.303
-337.304	800.000	0.530	1.519
-336.289	-200.000	-0.004	-0.297
-335.275	187.761	0.229	-0.341
-334.260	-155.725	0.208	-0.013
-333.245	259.183	0.438	-0.752
-332.231	752.769	0.326	0.877
-331.216	532.957	0.058	-0.138
-330.202	314.071	-0.356	0.666
-329.187	-152.521	-0.057	0.004
-328.172	-33.127	0.160	-0.088
-327.158	-200.000	-0.086	-0.604
-326.143	-200.000	-0.060	-0.526
-325.129	512.415	-0.243	-0.564
-324.114	-143.929	0.565	0.053
-323.099	-200.000	0.015	0.170
-322.085	23.429	0.231	-0.189
-321.070	-200.000	0.070	0.604
-320.056	95.690	-0.134	0.152
-319.041	522.987	0.124	-0.290
-318.026	-200.000	0.115	-0.518
-317.012	247.738	0.344	0.579
-315.997	-200.000	-0.049	-0.771
-314.983	196.008	-0.165	0.250
-313.968	-134.511	0.781	-0.095
-312.953	-86.416	-0.169	-0.052
-311.939	-200.000	0.097	-0.595
-310.924	106.863	0.206	0.243
-309.910	-147.426	-1.091	-0.092
-308.895	-200.000	-0.071	-0.419
-307.880	-106.131	-0.384	-0.086
-306.866	45.294	0.169	-0.155
-305.851	-52.283	0.188	-0.087
-304.837	-123.670	0.139	0.022
-303.822	-84.861	0.859	0.268
-302.807	325.320	-0.378	0.720
-301.793	327.384	0.282	-0.537
-300.778	120.811	0.291	0.360
-299.764	122.226	-0.494	-0.613
-298.749	52.180	0.215	0.204
-297.735	423.257	-0.354	0.756
-296.720	-200.000	0.007	0.746
-295.705	123.394	0.325	0.405
-294.691	-23.017	-0.490	0.293
-293.676	-9.228	-0.429	-0.285
-292.662	-102.436	0.654	0.156
-291.647	37.522	0.522	0.460
-290.632	-89.047	0.404	-0.119
-289.618	137.243	-0.531	-0.690
-288.603	-124.965	0.216	0.033
-287.589	522.795	-0.073	-0.169
-286.574	-136.070	-1.171	0.137
-285.559	144.428	-0.406	0.539
-284.545	183.023	-0.243	-0.356
-283.530	-20.223	0.593	0.363
-282.516	75.427	-0.132	0.139
-281.501	62.872	-0.149	-0.148
-280.486	560.543	-0.310	0.745
-279.472	168.165	0.500	0.707
-278.457	-78.720	0.677	0.230
-277.443	-200.000	0.130	-0.919
-276.428	-101.626	-0.599	-0.145
-275.413	-105.425	0.311	-0.070
-274.399	800.000	-0.188	-0.588
-273.384	-200.000	-0.044	-0.377
-272.370	-200.000	0.131	-0.587
-271.355	800.000	0.126	-0.541
-270.340	254.084	-0.264	0.448
-269.326	-41.250	0.287	0.147
-268.311	-87.282	-0.176	0.053
-267.297	-200.000	-0.010	-0.173
-266.282	16.282	-0.386	-0.302
-265.267	106.175	0.029	0.034
-264.253	114.970	-0.105	-0.127
-263.238	480.379	-0.154	0.346
-262.224	800.000	0.090	0.277
-261.209	276.198	-0.150	-0.264
-260.195	14.561	0.624	0.484
-259.180	134.015	-0.381	0.489
-258.165	95.348	-0.535	0.605
-257.151	212.127	-0.444	-0.695
-256.136	-29.807	-0.347	0.196
-255.122	-200.000	0.047	-0.222
-254.107	-200.000	0.027	-0.208
-253.092	-14.509	0.094	0.060
-252.078	-154.770	-0.307	0.020
-251.063	-93.871	0.569	0.155
-250.049	-47.155	-0.402	0.195
-249.034	800.000	-0.245	-0.810
-248.019	126.149	-0.480	-0.602
-247.005	-26.129	-0.322	-0.188
-245.990	60.229	0.540	-0.530
-244.976	-60.884	0.514	0.216
-243.961	-64.094	-0.304	-0.123
-242.946	-104.075	-1.206	-0.279
-241.932	66.377	0.392	0.396
-240.917	12.282	-0.424	-0.324
-239.903	-154.210	0.637	-0.043
-238.888	-200.000	0.090	0.552
-237.873	-200.000	-0.012	0.343
-236.859	109.120	1.113	1.320
-235.844	114.373	-0.353	0.426
-234.830	151.710	-0.122	0.165
-233.815	-29.872	-0.266	0.150
-232.800	289.069	-0.117	-0.210
-231.786	123.828	0.620	-0.772
-230.771	-200.000	0.055	0.837
-229.757	266.441	-0.201	0.348
-228.742	800.000	-0.292	0.875
-227.727	-200.000	-0.112	-0.648
-226.713	339.941	-0.136	0.263
-225.698	-2.725	0.658	0.457
-224.684	-57.506	0.795	0.346
-223.669	-136.294	-0.427	-0.049
-222.655	170.425	-0.517	-0.733
-221.640	-200.000	-0.068	0.406
-220.625	110.891	0.405	0.483
-219.611	-108.891	-0.975	0.206
-218.596	-88.290	0.468	0.139
-217.582	800.000	-0.091	0.307
-216.567	37.460	-0.411	-0.362
-215.552	-200.000	0.025	-0.130
-214.538	-17.780	-0.160	-0.100
-213.523	-155.194	-1.142	-0.074
-212.509	-200.000	-0.037	0.264
-211.494	-59.964	-0.177	0.075
-210.479	-167.015	-0.592	0.024
-209.465	13.486	0.374	0.288
-208.450	335.901	0.312	-0.600
-207.436	69.879	-0.723	0.739
-206.421	24.265	0.599	0.490
-205.406	290.830	-0.410	-0.739
-204.392	-110.793	-0.479	-0.098
-203.377	-200.000	-0.083	-0.878
-202.363	200.688	-0.451	-0.687
-201.348	6.846	-0.693	-0.511
-200.333	-4.234	-0.621	-0.426
-199.319	9.368	-0.383	-0.287
-198.304	32.379	0.553	-0.473
-197.290	-47.475	-0.717	0.345
-196.275	800.000	-0.122	0.398
-195.260	167.430	0.201	0.283
-194.246	47.848	-0.320	0.296
-193.231	-51.161	0.898	0.417
-192.217	466.857	0.211	-0.468
-191.202	-69.460	0.748	0.284
-190.187	-70.340	0.404	0.152
-189.173	520.232	-0.023	0.054
-188.158	752.189	0.056	0.151
-187.144	-63.820	0.828	0.336
-186.129	56.515	-0.209	0.202
-185.114	-200.000	0.015	-0.198
-184.100	800.000	-0.202	-0.619
-183.085	-30.849	-0.404	0.226
-182.071	232.919	-0.486	0.790
-181.056	800.000	0.291	-0.868
-180.042	-56.442	-0.482	0.212
-179.027	-200.000	0.066	-0.346
-178.012	-200.000	-0.059	-0.349
-176.998	283.635	-0.140	0.249
-175.983	800.000	-0.077	0.329
-174.969	-6.213	-0.904	-0.611
-173.954	-51.908	0.625	0.288
-172.939	800.000	0.270	0.763
-171.925	187.712	0.110	0.163
-170.910	800.000	0.149	-0.517
-169.896	166.778	-0.487	0.683
-168.881	-200.000	0.071	-0.600
-167.866	-200.000	0.140	-0.795
-166.852	-122.117	-0.431	-0.070
-165.837	59.294	0.110	0.108
-164.823	78.045	0.255	-0.269
-163.808	-97.585	-0.729	0.187
-162.793	-170.201	0.504	0.018
-161.779	-24.274	-0.369	-0.218
-160.764	-200.000	0.095	0.436
-159.750	159.755	0.335	0.462
-158.735	784.221	-0.124	-0.336
-157.720	74.691	0.261	-0.271
-156.706	276.966	-0.025	-0.044
-155.691	-147.479	-0.607	-0.051
-154.677	412.237	-0.261	0.549
-153.662	-3.228	0.624	0.430
-152.647	107.298	-0.104	0.122
-151.633	-76.448	1.163	-0.404
-150.618	37.519	-0.764	-0.670
-149.604	225.610	-0.150	0.240
-148.589	64.821	-0.295	0.294
-147.574	-127.897	1.139	-0.162
-146.560	94.082	-0.734	-0.823
-145.545	-68.336	0.832	-0.319
-144.531	800.000	-0.019	0.061
-143.516	-51.686	0.895	-0.412
-142.502	-58.464	-0.462	-0.198
-141.487	90.168	0.331	0.366
-140.472	-93.887	0.404	-0.110
-139.458	53.837	-0.472	-0.448
-138.443	800.000	0.073	0.218
-137.429	800.000	-0.077	-0.252
-136.414	79.093	0.683	0.723
-135.399	-105.166	0.151	-0.034
-134.385	-200.000	0.020	0.475
-133.370	35.306	-0.289	0.251
-132.356	-40.455	-0.354	-0.181
-131.341	-62.401	0.320	-0.131
-130.326	-200.000	0.111	0.541
-129.312	-200.000	-0.018	-0.946
-128.297	62.488	0.240	0.237
-127.283	800.000	-0.088	0.261
-126.268	-21.707	0.419	0.252
-125.253	-132.580	0.682	-0.087
-124.239	85.306	-0.540	0.585
-123.224	-200.000	-0.086	0.746
-122.210	800.000	0.161	0.443
-121.195	554.578	0.143	-0.339
-120.180	-200.000	-0.095	-0.535
-119.166	800.000	0.297	-0.894
-118.151	34.888	-0.427	-0.369
-117.137	-7.693	0.639	-0.427
-116.122	-106.826	-1.015	-0.222
-115.107	-200.000	0.111	0.788
-114.093	-45.434	0.423	0.207
-113.078	-26.163	-0.833	-0.483
-112.064	800.000	-0.072	-0.282
-111.049	-200.000	0.026	-0.447
-110.034	90.106	-0.217	0.239
-109.020	-200.000	-0.122	0.704
-108.005	26.865	0.437	0.362
-106.991	56.496	-0.013	-0.012
-105.976	-51.405	-0.160	-0.074
-104.962	-29.889	0.664	-0.374
-103.947	-91.462	0.976	-0.275
-102.932	-139.757	0.257	0.027
-101.918	-200.000	-0.079	0.921
-100.903	-200.000	0.012	0.661
-99.889	-200.000	-0.941	-0.004
-98.874	91.794	0.596	-0.662
-97.859	800.000	-0.258	0.904
-96.845	34.630	-0.193	0.166
-95.830	617.831	-0.281	-0.697
-94.816	-84.650	-0.585	0.182
-93.801	800.000	0.173	0.683
-92.786	595.951	0.085	-0.207
-91.772	800.000	0.158	0.634
-90.757	345.022	-0.032	-0.062
-89.743	800.000	0.023	0.078
-88.728	800.000	-0.022	0.061
-87.713	223.640	0.204	0.324
-86.699	-109.920	-0.273	-0.056
-85.684	450.634	0.324	-0.706
-84.670	-156.546	-0.579	-0.035
-83.655	11.868	-0.734	-0.556
-82.640	-164.178	0.598	0.027
-81.626	-200.000	0.028	0.441
-80.611	83.040	-0.479	0.514
-79.597	17.677	0.208	-0.163
-78.582	7.487	-0.202	-0.149
-77.567	-84.051	-0.449	-0.141
-76.553	140.141	0.324	-0.421
-75.538	14.586	-0.324	-0.250
-74.524	-72.242	-0.434	-0.158
-73.509	-115.553	-0.606	0.112
-72.494	74.413	-0.166	-0.172
-71.480	-200.000	-0.120	-0.726
-70.465	-40.905	0.390	0.199
-69.451	170.073	0.481	0.678
-68.436	89.083	0.199	-0.218
-67.422	95.037	-0.086	0.096
-66.407	49.537	0.219	-0.203
-65.392	42.847	0.536	-0.481
-64.378	61.589	0.679	0.666
-63.363	-167.319	0.688	0.027
-62.349	27.481	0.578	0.479
-61.334	80.477	-1.206	-1.280
-60.319	800.000	-0.140	0.481
-59.305	-200.000	-0.168	-0.800
-58.290	341.312	0.434	0.835
-57.276	658.671	0.511	1.295
-56.261	-200.000	95.409	572.614
-55.246	642.714	1365.781	3428.684
-54.232	201.372	2530.951	3838.518
-53.217	117.866	2129.269	2582.873
-52.203	44.704	1597.028	1446.465
-51.188	36.771	1336.195	1162.771
-50.173	33.635	1294.508	1108.162
-49.159	56.828	1345.468	1290.414
-48.144	57.982	1361.569	1312.666
-47.130	36.832	1319.735	1148.625
-46.115	33.467	1301.241	1112.763
-45.100	32.963	1296.925	1106.078
-44.086	32.962	1294.938	1104.336
-43.071	33.003	1291.862	1101.908
-42.057	32.707	1291.086	1099.473
-41.042	32.866	1287.854	1097.603
-40.027	33.274	1285.554	1097.967
-39.013	32.953	1285.295	1095.838
-37.998	32.977	1284.549	1095.302
-36.984	32.992	1281.575	1092.806
-35.969	33.023	1280.087	1091.675
-34.954	33.187	1278.448	1091.180
-33.940	33.177	1277.687	1090.432
-32.925	33.140	1275.791	1088.557
-31.911	33.007	1274.727	1086.839
-30.896	33.291	1272.130	1086.214
-29.881	33.590	1270.290	1086.312
-28.867	32.960	1270.381	1082.735
-27.852	33.108	1268.410	1081.861
-26.838	33.247	1267.122	1081.513
-25.823	33.268	1265.624	1080.308
-24.809	33.243	1264.098	1078.822
-23.794	32.985	1263.649	1076.927
-22.779	33.260	1261.530	1076.641
-21.765	33.064	1260.407	1074.527
-20.750	32.882	1260.066	1073.160
-19.736	32.930	1258.292	1071.880
-18.721	33.111	1257.218	1071.947
-17.706	33.046	1256.432	1070.865
-16.692	32.857	1255.135	1068.649
-15.677	33.008	1254.623	1069.026
-14.663	32.996	1252.841	1067.395
-13.648	32.855	1252.255	1066.058
-12.633	33.009	1250.794	1065.639
-11.619	33.223	1249.489	1065.694
-10.604	33.054	1248.822	1064.130
-9.590	32.951	1247.584	1062.452
-8.575	33.087	1248.011	1063.542
-7.560	33.152	1245.888	1062.055
-6.546	32.936	1244.896	1059.953
-5.531	32.776	1245.253	1059.316
-4.517	32.963	1243.883	1059.159
-3.502	32.584	1244.191	1057.249
-2.487	33.153	1241.685	1058.267
-1.473	32.540	1239.282	1052.748
-0.458	31.549	1223.186	1033.566
0.556	28.812	1205.493	994.542
1.571	24.894	1210.520	977.264
2.586	23.722	1225.878	983.088
3.600	23.279	1214.414	971.382
4.615	17.300	1143.023	883.230
5.629	7.716	1066.475	777.342
6.644	3.484	1046.028	742.044
7.659	3.065	1044.393	738.805
8.673	2.693	1042.421	735.560
9.688	2.680	1041.768	734.970
10.702	3.268	1040.285	736.672
11.717	9.344	1048.517	771.664
12.731	18.988	1062.788	828.792
13.746	23.795	1067.619	855.693
14.761	25.019	1067.627	861.515
15.775	25.074	1068.318	862.257
16.790	24.660	1068.173	860.075
17.804	24.783	1067.272	859.865
18.819	24.953	1065.733	859.362
19.834	24.746	1066.837	859.182
20.848	24.870	1065.546	858.661
21.863	24.673	1065.367	857.496
22.877	24.783	1063.976	856.827
23.892	24.705	1064.027	856.419
24.907	24.778	1062.903	855.791
25.921	24.839	1062.207	855.443
26.936	24.615	1061.308	853.577
27.950	24.721	1058.605	851.832
28.965	24.792	1057.484	851.189
29.980	24.699	1056.627	849.983
30.994	25.157	1053.402	849.484
32.009	25.060	1054.213	849.604
33.023	24.781	1053.733	847.819
34.038	24.573	1052.064	845.419
35.053	24.655	1051.992	845.674
36.067	24.667	1050.706	844.621
37.082	24.669	1050.541	844.424
38.096	25.125	1048.394	844.770
39.111	25.011	1048.964	844.619
40.126	24.767	1048.021	842.633
41.140	24.842	1046.075	841.347
42.155	24.381	1045.403	838.568
43.169	24.365	1044.480	837.677
44.184	24.404	1043.310	836.849
45.199	24.156	1042.929	835.308
46.213	24.505	1041.520	835.739
47.228	24.488	1042.123	836.069
48.242	24.754	1040.547	835.971
49.257	24.688	1039.516	834.762
50.271	24.910	1037.487	834.093
51.286	24.756	1038.527	834.136
52.301	25.164	1036.475	834.313
53.315	24.944	1035.258	832.240
54.330	25.018	1033.939	831.446
55.344	24.545	1034.558	829.676
56.359	24.699	1033.380	829.372
57.374	24.854	1032.592	829.384
58.388	24.672	1032.197	828.153
59.403	24.350	1031.377	825.926
60.417	24.453	1029.363	824.718
61.432	24.729	1030.406	826.755
62.447	24.652	1029.497	825.599
63.461	24.642	1028.800	824.922
64.476	24.715	1027.595	824.219
65.490	24.622	1026.099	822.517
66.505	24.286	1026.838	821.491
67.520	24.641	1025.577	822.041
68.534	24.257	1024.637	819.449
69.549	23.900	1023.329	816.691
70.563	24.022	1022.346	816.396
71.578	23.944	1021.866	815.580
72.593	24.018	1021.600	815.634
73.607	24.095	1020.136	814.748
74.622	24.535	1019.052	815.822
75.636	24.376	1019.080	815.044
76.651	24.479	1017.664	814.308
77.666	24.337	1018.233	814.045
78.680	24.353	1017.406	813.383
79.695	24.305	1017.144	812.883
80.709	24.340	1016.971	812.834
81.724	24.309	1016.121	811.943
82.739	24.349	1015.235	811.343
83.753	24.778	1014.192	812.387
84.768	25.109	1013.477	813.242
85.782	25.242	1011.500	812.189
86.797	24.942	1011.709	810.924
87.812	24.889	1011.241	810.238
88.826	25.191	1009.646	810.256
89.841	24.845	1008.869	807.995
90.855	25.140	1007.433	808.103
91.870	25.241	1006.922	808.079
92.884	25.046	1006.400	806.708
93.899	25.090	1005.425	806.053
94.914	25.403	1003.791	806.080
95.928	25.112	1002.945	804.021
96.943	24.909	1001.889	802.195
97.957	24.765	1002.290	801.800
98.972	24.773	1001.107	800.817
99.987	25.073	1000.170	801.339
101.001	24.926	999.381	799.979
102.016	25.011	998.432	799.531
103.030	24.875	998.038	798.536
104.045	24.926	996.769	797.680
105.060	24.926	995.467	796.565
106.074	24.793	995.002	795.532
107.089	24.778	994.239	794.785
108.103	24.895	993.418	794.578
109.118	24.590	992.529	792.441
110.133	24.608	990.656	790.959
111.147	24.478	990.568	790.243
112.162	24.546	988.816	789.074
113.176	24.439	988.988	788.669
114.191	24.384	987.226	786.953
115.206	24.316	987.074	786.460
116.220	24.324	985.490	785.165
117.235	24.497	984.863	785.355
118.249	24.607	983.426	784.626
119.264	24.413	983.419	783.696
120.279	24.627	982.095	783.513
121.293	24.321	982.313	782.274
122.308	24.148	982.227	781.379
123.322	24.301	980.304	780.447
124.337	24.230	978.952	778.994
125.352	23.979	977.877	776.973
126.366	23.943	977.009	776.056
127.381	24.700	976.529	778.906
128.395	24.832	976.103	779.070
129.410	24.407	975.843	776.944
130.424	24.957	973.812	777.649
131.439	24.853	973.879	777.183
132.454	25.105	972.620	777.201
133.468	24.864	971.893	775.506
134.483	24.838	971.497	775.012
135.497	25.222	970.037	775.439
136.512	24.921	969.244	773.436
137.527	25.113	968.487	773.591
138.541	24.918	968.766	772.903
139.556	24.954	967.478	771.963
140.570	25.060	968.039	772.800
141.585	25.264	966.043	772.014
142.600	24.930	965.142	769.792
143.614	24.948	964.088	768.960
144.629	25.035	964.054	769.237
145.643	24.872	961.992	766.826
146.658	24.835	961.296	766.046
147.673	24.867	959.952	765.041
148.687	25.106	958.962	765.207
149.702	25.073	958.075	764.288
150.716	24.965	957.442	763.255
151.731	25.011	955.252	761.641
152.746	25.036	956.292	762.507
153.760	25.062	954.961	761.490
154.775	25.238	955.406	762.524
155.789	25.060	954.365	760.871
156.804	25.294	952.234	760.096
157.819	25.562	952.411	761.304
158.833	25.396	951.992	760.202
159.848	25.607	951.087	760.300
160.862	25.277	950.301	758.212
161.877	25.306	949.228	757.412
162.892	25.397	947.893	756.664
163.906	24.954	947.596	754.493
164.921	25.116	946.913	754.565
165.935	25.432	944.649	754.019
166.950	25.189	945.356	753.499
167.964	25.060	944.503	752.207
168.979	25.028	942.338	750.286
169.994	25.015	941.742	749.690
171.008	25.593	940.782	751.273
172.023	25.603	940.481	751.008
173.037	25.253	940.299	749.336
174.052	25.548	937.803	748.507
175.067	24.752	939.254	746.279
176.081	25.110	938.039	746.742
177.096	24.983	936.999	745.317
178.110	25.088	936.022	744.912
179.125	24.662	936.564	743.503
180.140	24.675	936.336	743.313
181.154	24.834	935.802	743.483
182.169	25.330	934.748	744.637
183.183	25.370	933.757	743.948
184.198	24.841	933.565	741.536
185.213	25.203	932.893	742.437
186.227	25.346	931.804	742.096
187.242	25.233	931.300	741.162
188.256	25.412	931.428	741.940
189.271	25.444	930.400	741.184
190.286	25.172	929.198	739.043
191.300	25.141	927.354	737.383
192.315	24.197	926.522	732.773
193.329	23.922	925.738	730.961
194.344	24.691	926.805	734.901
195.359	25.199	926.270	736.497
196.373	25.079	925.955	735.688
197.388	25.387	925.808	736.770
198.402	25.166	925.290	735.389
199.417	25.653	924.258	736.495
200.432	25.199	924.303	734.606
201.446	25.254	922.728	733.515
202.461	25.236	922.321	733.052
203.475	24.547	921.802	729.765
204.490	24.484	918.939	727.174
205.504	24.766	919.450	728.666
206.519	25.003	919.343	729.480
207.534	25.044	918.973	729.289
208.548	25.388	918.418	730.184
209.563	25.266	916.568	728.152
210.577	25.393	916.385	728.458
211.592	25.628	916.042	729.074
212.607	25.610	915.822	728.761
213.621	25.686	913.850	727.435
214.636	25.563	913.314	726.447
215.650	25.338	913.395	725.538
216.665	25.559	913.319	726.307
217.680	25.717	913.491	727.015
218.694	25.317	911.685	723.901
219.709	25.383	910.653	723.282
220.723	25.337	910.386	722.825
221.738	25.407	909.015	721.953
222.753	25.533	908.442	721.940
223.767	25.432	908.208	721.284
224.782	25.335	908.243	720.856
225.796	25.384	908.251	720.996
226.811	25.057	906.486	718.224
227.826	24.581	905.853	715.751
228.840	24.579	905.213	715.174
229.855	25.081	904.074	716.216
230.869	24.651	903.106	713.672
231.884	25.204	902.842	715.605
232.899	25.462	902.889	716.609
233.913	25.289	902.020	715.166
234.928	25.422	900.846	714.700
235.942	25.060	899.865	712.420
236.957	24.749	900.507	711.627
237.972	24.787	899.406	710.847
238.986	25.051	899.051	711.549
240.001	24.744	898.715	710.002
241.015	24.706	898.807	709.862
242.030	25.426	897.438	711.569
243.045	25.310	897.465	711.070
244.059	25.643	896.885	711.868
245.074	25.571	895.182	710.168
246.088	25.013	895.370	708.049
247.103	25.583	894.974	709.922
248.117	25.655	895.288	710.394
249.132	25.912	894.260	710.528
250.147	25.851	894.927	710.754
251.161	26.287	892.808	710.723
252.176	26.515	892.130	711.017
253.190	26.140	891.988	709.368
254.205	26.132	891.715	709.056
255.220	26.202	890.689	708.452
256.234	25.752	890.782	706.697
257.249	25.988	889.911	706.872
258.263	25.969	887.816	705.069
259.278	25.788	887.913	704.376
260.293	25.934	888.309	705.199
261.307	26.190	886.735	704.887
262.322	25.926	886.008	703.217
263.336	25.809	885.456	702.260
264.351	25.309	883.533	698.727
265.366	25.336	883.288	698.576
266.380	25.961	883.204	700.881
267.395	25.950	883.200	700.770
268.409	25.882	882.365	699.781
269.424	26.003	881.843	699.777
270.439	25.913	880.829	698.561
271.453	26.290	880.674	699.836
272.468	26.184	880.209	698.996
273.482	26.537	879.662	699.862
274.497	26.070	878.493	697.067
275.512	25.549	878.063	694.654
276.526	25.899	878.250	696.091
277.541	25.954	878.281	696.268
278.555	25.878	877.289	695.125
279.570	26.218	876.581	695.815
280.585	26.273	875.382	695.012
281.599	25.808	875.074	692.917
282.614	25.596	872.898	690.321
283.628	25.547	873.654	690.668
284.643	25.708	873.134	690.814
285.657	25.450	872.650	689.379
286.672	25.359	871.413	687.992
287.687	25.902	870.891	689.598
288.701	25.729	870.932	688.908
289.716	25.772	869.100	687.563
290.730	25.880	869.039	687.867
291.745	25.354	868.716	685.541
292.760	25.918	867.855	686.951
293.774	26.316	868.091	688.595
294.789	26.037	868.114	687.487
295.803	25.980	867.614	686.815
296.818	26.202	866.759	686.921
297.833	25.762	865.351	684.072
298.847	26.087	865.193	685.123
299.862	26.462	864.045	685.574
300.876	25.972	863.950	683.581
301.891	26.072	863.923	683.876
302.906	26.427	862.357	683.920
303.920	26.456	862.461	684.053
304.935	26.470	862.415	684.007
305.949	26.390	861.342	682.795
306.964	25.964	859.974	680.043
307.979	25.871	860.300	679.892
308.993	26.273	859.836	680.980
310.008	26.218	859.501	680.444
311.022	26.136	859.732	680.258
312.037	26.105	858.264	678.919
313.052	26.027	856.856	677.455
314.066	25.597	855.728	674.889
315.081	25.517	854.835	673.827
316.095	25.901	855.097	675.412
317.110	26.184	854.828	676.198
318.125	25.461	853.895	672.696
319.139	24.888	852.340	669.269
320.154	24.697	852.623	668.718
321.168	25.413	853.006	671.640
322.183	25.693	852.420	672.162
323.197	25.523	852.485	671.522
324.212	25.700	850.954	670.914
325.227	25.777	850.400	670.703
326.241	25.687	849.484	669.589
327.256	25.685	849.708	669.699
328.270	25.976	848.436	669.718
329.285	25.418	847.581	666.913
330.300	25.774	846.901	667.639
331.314	25.850	846.416	667.480
332.329	25.820	846.502	667.375
333.343	26.173	846.832	668.885
334.358	26.283	845.712	668.349
335.373	26.234	845.129	667.647
336.387	26.458	844.951	668.275
337.402	26.481	845.007	668.345
338.416	26.455	844.268	667.605
339.431	26.528	844.411	667.930
340.446	26.432	844.708	667.750
341.460	26.626	844.266	668.059
342.475	26.887	842.839	667.830
343.489	26.811	843.366	667.911
344.504	26.407	843.194	666.224
345.519	26.724	841.838	666.260
346.533	26.736	841.340	665.852
347.548	26.600	840.898	664.944
348.562	26.591	840.690	664.688
349.577	26.877	839.644	664.852
350.592	26.610	838.524	662.927
351.606	26.653	838.383	662.914
352.621	26.126	838.094	660.699
353.635	26.487	836.610	660.788
354.650	26.110	835.866	658.766
355.665	25.672	835.712	656.988
356.679	26.307	834.935	658.635
357.694	26.035	833.050	656.099
358.708	25.997	833.537	656.290
359.723	25.996	832.862	655.694
360.738	26.157	832.212	655.709
361.752	26.299	831.937	655.952
362.767	26.983	830.628	657.339
363.781	27.011	829.841	656.760
364.796	26.936	830.098	656.631
365.810	26.920	829.670	656.179
366.825	27.242	828.654	656.480
367.840	26.372	828.966	653.524
368.854	26.336	828.773	653.184
369.869	26.353	827.513	652.194
370.883	26.207	828.347	652.268
371.898	26.500	828.630	653.489
372.913	26.931	826.509	653.311
373.927	26.230	826.362	650.614
374.942	26.387	825.893	650.754
375.956	26.647	825.363	651.214
376.971	26.775	824.219	650.710
377.986	26.894	823.837	650.779
379.000	26.504	824.564	649.895
380.015	26.757	823.192	649.663
381.029	27.007	822.522	649.972
382.044	27.062	822.928	650.435
383.059	26.829	821.915	648.743
384.073	26.425	821.600	646.990
385.088	26.374	821.044	646.314
386.102	26.834	818.773	646.106
387.117	26.254	819.526	644.574
388.132	25.980	818.603	642.814
389.146	26.093	818.285	642.911
390.161	26.703	817.463	644.380
391.175	27.044	816.547	644.811
392.190	26.359	817.560	643.119
393.205	26.001	815.075	639.837
394.219	25.035	814.103	635.592
395.234	25.031	814.563	635.882
396.248	25.766	814.962	638.744
397.263	26.256	814.592	640.135
398.278	26.036	814.235	639.018
399.292	26.054	813.006	638.062
400.307	25.940	812.997	637.594
401.321	25.855	812.590	636.918
402.336	26.536	811.050	638.058
403.350	26.658	811.552	638.825
404.365	27.186	810.720	639.973
405.380	27.311	810.605	640.265
406.394	26.989	810.308	638.841
407.409	27.081	810.328	639.123
408.423	26.817	810.558	638.319
409.438	27.224	808.576	638.132
410.453	27.174	808.439	637.793
411.467	26.861	808.471	636.663
412.482	26.662	809.084	636.390
413.496	26.891	807.931	636.227
414.511	26.999	806.974	635.797
415.526	26.971	806.014	634.889
416.540	26.700	806.179	634.012
417.555	27.075	805.318	634.592
418.569	26.993	805.123	634.094
419.584	27.155	804.675	634.251
420.599	26.696	803.930	632.005
421.613	159.743	1371.366	1792.721
422.628	138.751	1454.052	1792.787
