DTS Sentinel unit serial number:	SN413079Multiplexer serial number:	ORYXHardware model number:	OX4-SRSoftware version number:	ORYX F/W v4.00 Oryx Data Collector v3.7.2.0data status	okinstallation	princeton_trtdifferential loss correction	single-endedforward channel	channel 1reverse channel	N/Adate	2019/09/19time	11:58:35forward acquisition time	60.00reverse acquisition time	0.00gamma	496.2192k internal	0.2337k external	0.2337temperature offset calibration	1.0012default loss term (dB/km)	0.3790temperature slope calibration	1.0000multiplexer offset coefficient	1.0000multiplexer slope coefficient	1.0000fibre end	0.00T internal ref (°C)	25.98T ext. ref 1 (°C)	0.84T ext. ref 2 (°C)	22.12length (m)	temperature (°C)	Stokes	anti-Stokes-747.200	121.552	0.242	0.302
-746.185	-171.841	-0.366	0.012
-745.171	-96.616	-0.131	0.035
-744.156	-200.000	0.014	0.334
-743.142	-200.000	0.069	0.438
-742.127	610.233	-0.073	0.184
-741.112	800.000	-0.105	0.326
-740.098	-138.458	0.081	0.009
-739.083	377.480	0.028	-0.056
-738.069	308.763	0.161	0.301
-737.054	800.000	0.067	0.271
-736.039	66.983	-0.289	-0.296
-735.025	80.892	0.127	0.138
-734.010	129.375	0.015	-0.019
-732.996	142.364	-0.239	-0.318
-731.981	-63.327	0.533	0.220
-730.966	-111.082	-0.179	0.037
-729.952	163.002	-0.038	-0.053
-728.937	-136.083	-0.119	0.014
-727.923	137.520	-0.134	0.176
-726.908	-50.631	-0.127	0.060
-725.894	-165.325	-0.081	0.004
-724.879	-45.300	-0.429	0.214
-723.864	484.160	-0.022	-0.050
-722.850	26.784	-0.177	0.148
-721.835	298.938	-0.210	0.388
-720.821	23.455	0.261	0.216
-719.806	-36.367	-0.150	-0.081
-718.791	-108.600	-0.493	0.106
-717.777	-127.038	-0.247	-0.036
-716.762	-5.324	-0.349	-0.240
-715.748	-9.449	-0.261	0.175
-714.733	-23.451	0.185	0.111
-713.718	465.517	-0.079	-0.178
-712.704	-58.030	0.046	-0.020
-711.689	800.000	0.025	-0.089
-710.675	19.075	0.054	-0.044
-709.660	-138.213	0.051	0.006
-708.645	-200.000	0.016	0.092
-707.631	-18.151	-0.122	-0.077
-706.616	151.070	-0.114	0.156
-705.602	291.443	0.010	0.018
-704.587	317.267	0.169	0.321
-703.572	195.906	-0.328	-0.501
-702.558	-200.000	0.057	-0.299
-701.543	-28.504	0.112	-0.065
-700.529	-9.687	0.350	-0.234
-699.514	-200.000	0.056	0.260
-698.499	-17.202	0.146	-0.092
-697.485	-60.837	-0.230	-0.098
-696.470	227.331	-0.138	0.226
-695.456	188.766	0.024	0.035
-694.441	800.000	-0.025	0.075
-693.426	-64.148	0.105	-0.043
-692.412	38.066	-0.214	0.191
-691.397	139.357	-0.128	0.168
-690.383	188.765	-0.107	-0.160
-689.368	95.660	0.207	0.236
-688.354	800.000	0.063	0.179
-687.339	74.495	0.222	-0.233
-686.324	800.000	-0.146	0.419
-685.310	-62.246	0.102	-0.043
-684.295	130.015	-0.035	0.045
-683.281	51.902	0.156	-0.148
-682.266	-200.000	0.005	-0.026
-681.251	-200.000	0.013	-0.269
-680.237	624.585	-0.106	-0.267
-679.222	10.293	0.136	-0.104
-678.208	-90.026	0.063	0.018
-677.193	519.753	0.150	-0.353
-676.178	48.941	-0.223	-0.210
-675.164	151.504	-0.112	0.152
-674.149	-113.134	-0.354	-0.070
-673.135	379.421	-0.206	-0.422
-672.120	58.725	-0.217	-0.213
-671.105	271.769	-0.080	0.141
-670.091	800.000	0.048	-0.178
-669.076	-200.000	0.036	0.311
-668.062	259.236	-0.093	-0.161
-667.047	36.904	0.269	-0.238
-666.032	-92.439	0.285	0.080
-665.018	97.118	-0.311	0.358
-664.003	800.000	-0.075	-0.318
-662.989	-200.000	0.006	-0.171
-661.974	12.775	-0.173	-0.134
-660.959	148.072	0.138	-0.186
-659.945	128.189	0.113	-0.144
-658.930	800.000	-0.096	0.325
-657.916	-24.048	0.240	-0.144
-656.901	-83.151	0.330	-0.106
-655.886	-4.099	-0.318	0.220
-654.872	-200.000	-0.006	-0.218
-653.857	-200.000	-0.014	-0.346
-652.843	-47.798	0.101	0.049
-651.828	-78.254	-0.374	0.129
-650.814	593.017	0.150	-0.371
-649.799	-200.000	-0.001	-0.016
-648.784	669.848	0.067	-0.173
-647.770	-95.207	0.105	0.028
-646.755	-78.951	0.225	0.077
-645.741	52.447	0.213	0.203
-644.726	800.000	0.039	-0.109
-643.711	-102.109	-0.107	-0.026
-642.697	-77.687	-0.182	-0.063
-641.682	-28.510	0.168	0.097
-640.668	-14.445	0.037	-0.024
-639.653	-200.000	0.049	-0.505
-638.638	24.853	-0.194	0.161
-637.624	-200.000	-0.008	-0.055
-636.609	453.563	0.138	-0.305
-635.595	-83.561	-0.202	0.065
-634.580	40.434	0.096	0.087
-633.565	114.297	-0.207	-0.252
-632.551	800.000	-0.045	-0.177
-631.536	-200.000	-0.035	0.337
-630.522	-200.000	0.059	-0.334
-629.507	-200.000	0.014	-0.206
-628.492	212.956	-0.107	-0.169
-627.478	365.601	-0.163	-0.329
-626.463	-147.744	-0.220	0.018
-625.449	229.957	-0.004	-0.007
-624.434	73.085	0.091	-0.095
-623.419	-87.714	0.283	0.085
-622.405	-27.860	0.085	-0.049
-621.390	-200.000	-0.078	-0.452
-620.376	-200.000	0.021	-0.149
-619.361	-59.801	0.256	0.109
-618.346	800.000	-0.070	0.282
-617.332	-110.334	0.235	0.049
-616.317	-35.734	-0.256	-0.139
-615.303	800.000	0.137	-0.398
-614.288	363.071	-0.100	-0.200
-613.273	-200.000	-0.051	0.274
-612.259	800.000	-0.100	0.354
-611.244	800.000	-0.043	0.154
-610.230	-57.718	0.102	0.044
-609.215	800.000	0.037	0.158
-608.201	800.000	0.048	0.143
-607.186	112.673	-0.061	0.073
-606.171	800.000	-0.097	-0.312
-605.157	350.326	-0.074	-0.145
-604.142	183.465	0.255	-0.376
-603.128	-200.000	0.009	-0.065
-602.113	-104.482	0.324	-0.075
-601.098	178.348	-0.079	-0.115
-600.084	33.813	0.087	-0.075
-599.069	-200.000	0.012	-0.384
-598.055	443.033	-0.144	-0.314
-597.040	-81.017	-0.131	0.043
-596.025	-153.176	0.472	-0.033
-595.011	-118.750	-0.492	-0.087
-593.996	-14.300	0.104	0.067
-592.982	325.144	0.171	-0.325
-591.967	544.579	-0.083	-0.199
-590.952	383.126	-0.112	-0.231
-589.938	22.880	-0.237	-0.194
-588.923	124.387	0.073	0.092
-587.909	-12.452	-0.211	-0.137
-586.894	-56.591	0.346	-0.153
-585.879	-200.000	-0.036	0.194
-584.865	481.233	-0.056	0.126
-583.850	-121.795	0.302	-0.050
-582.836	-15.733	0.140	-0.089
-581.821	-75.473	0.144	-0.051
-580.806	-185.873	0.379	-0.006
-579.792	-158.102	-0.140	-0.008
-578.777	800.000	0.046	0.200
-577.763	-118.459	0.281	-0.050
-576.748	-200.000	0.062	-0.291
-575.733	800.000	-0.138	0.434
-574.719	-200.000	-0.025	0.226
-573.704	116.858	-0.021	-0.026
-572.690	73.601	0.215	-0.225
-571.675	-200.000	-0.033	-0.441
-570.661	98.400	0.083	0.095
-569.646	800.000	0.032	0.099
-568.631	-12.446	-0.181	0.118
-567.617	-200.000	-0.017	-0.155
-566.602	-50.905	-0.081	-0.038
-565.588	218.801	0.170	0.270
-564.573	42.994	0.216	-0.197
-563.558	-113.142	-0.320	-0.063
-562.544	112.198	-0.145	-0.175
-561.529	-38.346	0.193	0.102
-560.515	-17.113	-0.211	0.133
-559.500	-50.395	0.182	-0.086
-558.485	-200.000	0.013	-0.123
-557.471	130.760	0.156	-0.199
-556.456	800.000	-0.126	-0.366
-555.442	800.000	-0.058	0.182
-554.427	-107.903	-0.343	0.074
-553.412	800.000	0.067	-0.285
-552.398	-36.452	0.215	0.116
-551.383	589.224	-0.036	-0.089
-550.369	291.367	-0.197	-0.358
-549.354	70.501	0.149	0.153
-548.339	126.019	-0.057	0.072
-547.325	-200.000	0.029	0.132
-546.310	547.345	0.104	0.249
-545.296	-28.152	0.146	0.084
-544.281	-87.405	-0.243	-0.073
-543.266	-175.811	-0.245	0.007
-542.252	-104.639	-0.211	-0.048
-541.237	-3.034	0.037	0.026
-540.223	-38.837	-0.282	-0.148
-539.208	89.970	-0.092	0.102
-538.193	-118.965	0.251	-0.044
-537.179	800.000	-0.004	-0.012
-536.164	-163.590	-0.177	0.008
-535.150	116.781	-0.053	0.065
-534.135	800.000	-0.100	0.375
-533.121	-68.714	-0.101	-0.039
-532.106	162.503	-0.064	0.090
-531.091	800.000	0.079	0.314
-530.077	-63.919	-0.098	-0.040
-529.062	-117.611	-0.185	0.033
-528.048	-129.064	-0.444	-0.062
-527.033	-37.061	0.258	0.138
-526.018	371.779	0.020	0.041
-525.004	-137.465	0.133	-0.015
-523.989	-200.000	-0.029	-0.256
-522.975	-74.596	0.322	0.115
-521.960	-200.000	-0.019	-0.351
-520.945	445.569	-0.046	0.100
-519.931	-41.177	0.561	0.288
-518.916	170.076	0.070	0.100
-517.902	-200.000	0.086	0.407
-516.887	61.149	0.123	0.121
-515.872	99.121	0.163	0.187
-514.858	800.000	0.105	-0.345
-513.843	-41.812	-0.178	-0.091
-512.829	-29.584	0.189	0.108
-511.814	-103.461	0.128	-0.030
-510.799	-153.031	0.229	-0.016
-509.785	265.785	-0.098	0.170
-508.770	-120.616	0.179	0.030
-507.756	64.291	-0.090	-0.090
-506.741	113.741	0.057	0.069
-505.726	-75.582	0.023	0.008
-504.712	-200.000	-0.017	-0.115
-503.697	279.288	-0.124	0.221
-502.683	461.578	-0.044	-0.097
-501.668	119.464	0.145	0.179
-500.653	-200.000	-0.021	-0.129
-499.639	-62.753	0.101	-0.042
-498.624	469.065	-0.050	0.112
-497.610	-200.000	-0.014	-0.356
-496.595	-32.708	0.168	-0.093
-495.581	129.284	-0.215	-0.273
-494.566	35.174	-0.045	-0.040
-493.551	-200.000	-0.015	-0.091
-492.537	-11.151	-0.110	0.072
-491.522	79.307	-0.182	0.193
-490.508	2.825	0.173	-0.125
-489.493	-62.629	-0.277	0.114
-488.478	-35.890	0.367	-0.197
-487.464	-200.000	-0.012	0.147
-486.449	800.000	-0.051	-0.203
-485.435	99.929	0.184	-0.212
-484.420	1.540	-0.235	0.168
-483.405	348.328	0.085	0.167
-482.391	269.768	0.157	0.275
-481.376	72.999	-0.199	0.207
-480.362	-97.569	0.190	-0.049
-479.347	29.685	0.138	0.117
-478.332	-83.064	0.185	0.059
-477.318	407.898	0.085	0.179
-476.303	18.446	-0.237	0.188
-475.289	-39.236	0.270	0.141
-474.274	-97.553	-0.168	-0.043
-473.259	55.441	-0.138	0.132
-472.245	-85.865	0.084	0.026
-471.230	-35.638	0.382	0.206
-470.216	-60.278	-0.242	0.102
-469.201	-200.000	0.037	0.263
-468.186	37.770	-0.129	-0.114
-467.172	-54.992	-0.129	-0.058
-466.157	-121.495	0.076	0.012
-465.143	-58.127	0.125	-0.054
-464.128	248.031	0.160	-0.269
-463.113	-96.353	-0.376	0.099
-462.099	96.109	-0.143	-0.162
-461.084	-91.205	-0.192	-0.055
-460.070	-95.618	0.373	0.099
-459.055	800.000	0.060	0.239
-458.040	-79.587	0.267	-0.090
-457.026	108.228	0.261	-0.309
-456.011	336.535	-0.163	-0.315
-454.997	-131.793	-0.188	0.024
-453.982	-136.250	0.122	-0.014
-452.968	-139.252	-0.256	-0.027
-451.953	800.000	-0.082	0.313
-450.938	63.659	0.312	0.311
-449.924	-102.037	0.179	-0.043
-448.909	-78.318	0.214	-0.073
-447.895	-52.019	0.318	0.147
-446.880	58.418	0.202	0.197
-445.865	-24.968	0.162	0.096
-444.851	800.000	-0.064	0.195
-443.836	-200.000	-0.005	-0.178
-442.822	182.566	0.227	-0.332
-441.807	-181.370	-0.236	-0.005
-440.792	-20.809	0.384	-0.234
-439.778	-128.150	-0.067	-0.010
-438.763	-200.000	-0.170	-0.001
-437.749	800.000	-0.072	-0.286
-436.734	-55.896	0.241	-0.107
-435.719	-200.000	-0.089	-0.410
-434.705	-37.700	0.169	0.089
-433.690	299.426	-0.123	0.225
-432.676	-125.313	0.349	0.053
-431.661	-200.000	0.083	0.372
-430.646	-200.000	-0.004	0.093
-429.632	720.489	0.078	-0.205
-428.617	-200.000	-0.016	-0.114
-427.603	-50.850	-0.102	0.048
-426.588	2.463	0.389	0.279
-425.573	-200.000	-0.025	-0.133
-424.559	63.445	-0.104	0.103
-423.544	-200.000	-0.035	0.285
-422.530	680.342	-0.147	-0.379
-421.515	800.000	0.041	0.139
-420.500	-200.000	-0.045	-0.257
-419.486	297.198	-0.059	-0.107
-418.471	227.860	0.060	-0.098
-417.457	83.105	-0.050	-0.054
-416.442	433.079	-0.148	0.318
-415.428	-161.848	-0.012	-0.001
-414.413	226.276	0.198	-0.319
-413.398	-56.955	0.294	-0.129
-412.384	210.673	-0.072	-0.112
-411.369	800.000	-0.075	0.239
-410.355	-200.000	-0.003	0.441
-409.340	590.579	-0.149	-0.365
-408.325	-121.801	0.115	0.019
-407.311	-98.127	-0.340	-0.087
-406.296	-171.851	-0.207	0.007
-405.282	-86.359	0.127	-0.039
-404.267	-49.699	-0.246	0.116
-403.252	-200.000	0.026	0.418
-402.238	-67.326	-0.055	-0.022
-401.223	800.000	0.083	0.278
-400.209	-13.279	-0.059	-0.038
-399.194	22.039	0.175	-0.141
-398.179	-68.252	-0.160	-0.062
-397.165	-200.000	0.021	-0.172
-396.150	161.006	0.101	-0.140
-395.136	-152.491	0.236	-0.017
-394.121	309.188	0.084	-0.156
-393.106	538.964	-0.083	-0.195
-392.092	61.983	-0.088	0.087
-391.077	44.572	0.051	0.046
-390.063	-200.000	0.047	0.389
-389.048	26.305	0.172	0.142
-388.033	-200.000	-0.001	0.052
-387.019	143.162	-0.093	0.123
-386.004	21.391	0.274	0.220
-384.990	-200.000	-0.024	0.165
-383.975	-146.734	-0.126	-0.011
-382.960	-81.053	-0.176	-0.058
-381.946	-200.000	0.003	0.123
-380.931	74.898	-0.384	0.401
-379.917	696.269	-0.100	-0.259
-378.902	357.998	-0.108	0.214
-377.888	65.824	-0.061	0.061
-376.873	110.607	-0.138	0.164
-375.858	151.034	0.042	-0.057
-374.844	800.000	-0.020	0.087
-373.829	-84.874	0.061	0.019
-372.815	-130.843	0.202	0.027
-371.800	-200.000	-0.046	0.254
-370.785	-92.917	-0.117	0.032
-369.771	-200.000	0.010	0.070
-368.756	185.050	-0.099	-0.145
-367.742	-200.000	0.001	0.090
-366.727	111.628	0.147	0.175
-365.712	18.814	0.083	0.066
-364.698	-81.681	-0.242	0.078
-363.683	102.115	0.146	-0.169
-362.669	-79.808	0.266	-0.089
-361.654	-4.116	0.083	-0.057
-360.639	-89.401	0.138	-0.040
-359.625	-79.991	-0.275	-0.091
-358.610	-133.427	0.079	0.010
-357.596	-51.675	-0.289	0.133
-356.581	-54.777	-0.201	0.090
-355.566	-8.064	0.275	0.183
-354.552	800.000	0.035	-0.098
-353.537	800.000	-0.086	-0.293
-352.523	-86.023	0.256	-0.078
-351.508	0.184	0.041	-0.029
-350.493	146.967	-0.029	-0.039
-349.479	252.291	0.153	-0.258
-348.464	-200.000	0.024	-0.122
-347.450	21.557	0.156	0.125
-346.435	-73.470	0.094	-0.034
-345.420	800.000	-0.037	0.129
-344.406	-200.000	-0.102	0.441
-343.391	51.903	0.099	-0.093
-342.377	-65.219	-0.308	-0.123
-341.362	49.422	-0.233	-0.217
-340.348	191.648	-0.193	-0.288
-339.333	-95.053	-0.242	-0.065
-338.318	800.000	-0.010	0.038
-337.304	-85.985	0.382	0.117
-336.289	155.663	-0.081	0.111
-335.275	-94.703	-0.127	0.034
-334.260	-29.297	-0.232	0.131
-333.245	-200.000	0.041	-0.318
-332.231	-63.771	-0.299	0.121
-331.216	-28.290	-0.280	-0.160
-330.202	-162.849	0.164	-0.008
-329.187	-9.394	0.313	0.206
-328.172	-120.306	0.208	-0.035
-327.158	-97.357	-0.335	-0.086
-326.143	44.442	0.190	-0.172
-325.129	65.927	0.157	-0.157
-324.114	800.000	-0.022	0.096
-323.099	800.000	0.043	0.129
-322.085	-82.696	0.274	0.088
-321.070	-200.000	0.033	-0.142
-320.056	227.389	-0.115	-0.185
-319.041	83.794	0.059	-0.063
-318.026	61.279	0.163	-0.160
-317.012	358.253	0.032	0.063
-315.997	-48.167	0.136	0.065
-314.983	16.494	-0.213	-0.166
-313.968	88.530	0.135	-0.148
-312.953	-200.000	0.053	0.234
-311.939	663.638	-0.129	0.329
-310.924	800.000	-0.082	-0.278
-309.910	62.307	-0.135	0.133
-308.895	-200.000	-0.038	0.214
-307.880	-200.000	-0.043	0.204
-306.866	69.347	0.152	0.155
-305.851	-90.035	-0.166	0.048
-304.837	-158.270	0.352	0.020
-303.822	12.043	-0.337	0.256
-302.807	-75.795	0.285	0.100
-301.793	-98.530	-0.213	0.054
-300.778	-200.000	0.044	-0.195
-299.764	493.228	0.061	0.138
-298.749	774.747	0.043	0.115
-297.735	-200.000	-0.050	-0.347
-296.720	800.000	0.029	-0.086
-295.705	-14.156	-0.192	0.122
-294.691	-167.817	0.198	-0.008
-293.676	-43.061	0.196	-0.098
-292.662	428.644	-0.091	-0.193
-291.647	-77.060	-0.063	-0.022
-290.632	136.007	-0.100	0.128
-289.618	85.626	0.151	0.164
-288.603	-39.828	-0.087	-0.045
-287.589	-200.000	0.019	-0.251
-286.574	800.000	0.017	0.073
-285.559	61.320	0.109	-0.107
-284.545	615.039	-0.102	-0.253
-283.530	-40.532	-0.174	-0.089
-282.516	279.630	-0.079	0.139
-281.501	800.000	-0.133	0.375
-280.486	-42.918	-0.323	0.162
-279.472	-200.000	0.031	0.204
-278.457	48.074	-0.205	-0.189
-277.443	83.209	-0.172	-0.184
-276.428	-59.690	0.265	-0.112
-275.413	558.997	-0.097	-0.231
-274.399	157.901	0.058	-0.079
-273.384	-200.000	-0.009	0.086
-272.370	28.783	0.264	0.221
-271.355	37.428	-0.044	0.038
-270.340	48.912	0.040	-0.037
-269.326	154.061	-0.042	0.057
-268.311	800.000	0.040	-0.145
-267.297	-122.122	0.051	-0.008
-266.282	-84.115	-0.182	0.057
-265.267	-131.238	-0.287	-0.038
-264.253	688.836	-0.024	0.062
-263.238	-80.386	-0.313	-0.103
-262.224	452.417	-0.127	0.276
-261.209	554.222	0.131	0.310
-260.195	258.374	-0.070	0.119
-259.180	431.621	0.110	-0.235
-258.165	800.000	0.095	0.312
-257.151	-55.092	-0.363	0.161
-256.136	701.328	0.013	-0.035
-255.122	-176.067	0.200	0.005
-254.107	-200.000	0.045	-0.196
-253.092	-9.117	0.161	-0.106
-252.078	-24.782	-0.301	-0.176
-251.063	138.948	-0.420	0.543
-250.049	64.973	-0.191	-0.190
-249.034	-95.647	0.195	0.051
-248.019	-31.311	-0.358	0.199
-247.005	-200.000	0.001	-0.228
-245.990	37.640	-0.058	-0.050
-244.976	69.818	0.170	-0.173
-243.961	-200.000	-0.003	-0.210
-242.946	-55.374	0.098	-0.043
-241.932	-200.000	-0.049	-0.313
-240.917	23.659	0.187	0.152
-239.903	486.118	-0.079	-0.177
-238.888	-54.372	0.050	0.022
-237.873	355.307	0.112	-0.219
-236.859	469.733	-0.160	0.353
-235.844	584.302	0.040	0.097
-234.830	29.660	-0.213	-0.178
-233.815	12.790	0.344	0.262
-232.800	184.039	0.196	-0.286
-231.786	136.168	-0.197	-0.253
-230.771	-200.000	0.053	-0.306
-229.757	-128.363	0.210	0.029
-228.742	-200.000	-0.026	-0.169
-227.727	800.000	0.021	-0.074
-226.713	-200.000	0.006	0.150
-225.698	43.674	-0.119	0.107
-224.684	-200.000	-0.012	-0.242
-223.669	-200.000	-0.016	-0.123
-222.655	30.352	-0.197	-0.165
-221.640	-67.577	-0.231	-0.089
-220.625	-17.663	-0.286	0.176
-219.611	-89.301	-0.103	0.030
-218.596	-72.337	0.023	0.008
-217.582	-200.000	0.020	-0.169
-216.567	573.069	-0.032	-0.076
-215.552	-153.596	-0.216	-0.015
-214.538	0.926	-0.216	-0.152
-213.523	-20.282	0.155	-0.094
-212.509	110.839	-0.293	0.347
-211.494	265.056	-0.126	0.216
-210.479	396.459	-0.135	-0.276
-209.465	-107.882	0.197	0.042
-208.450	-99.340	-0.009	0.002
-207.436	-200.000	-0.007	0.212
-206.421	245.703	-0.148	0.245
-205.406	-47.181	-0.302	0.145
-204.392	800.000	-0.070	0.291
-203.377	-17.131	-0.145	-0.090
-202.363	-200.000	0.089	-0.432
-201.348	40.722	-0.270	0.239
-200.333	-200.000	0.010	0.291
-199.319	800.000	-0.067	-0.205
-198.304	39.008	-0.254	0.223
-197.290	800.000	0.168	0.550
-196.275	147.724	0.160	0.212
-195.260	-71.418	-0.128	-0.047
-194.246	423.339	-0.012	0.026
-193.231	29.632	-0.363	0.304
-192.217	-14.133	-0.111	0.071
-191.202	550.218	0.040	0.093
-190.187	56.730	0.132	0.126
-189.173	-200.000	0.002	-0.124
-188.158	-52.696	-0.293	-0.133
-187.144	-77.454	0.237	-0.081
-186.129	-59.532	0.166	0.070
-185.114	-97.855	0.161	0.041
-184.100	138.636	-0.273	-0.352
-183.085	-49.255	0.125	0.059
-182.071	-136.816	0.267	-0.030
-181.056	187.521	0.089	0.130
-180.042	209.622	-0.092	0.141
-179.027	-200.000	-0.001	-0.043
-178.012	-200.000	-0.012	-0.103
-176.998	-12.177	0.103	0.066
-175.983	420.896	-0.070	0.147
-174.969	-55.174	0.204	-0.090
-173.954	318.706	0.082	0.153
-172.939	-94.128	-0.362	0.097
-171.925	384.245	0.131	0.265
-170.910	-200.000	-0.004	0.079
-169.896	-10.655	0.132	0.086
-168.881	172.736	-0.124	-0.176
-167.866	393.099	-0.075	-0.153
-166.852	-156.656	-0.274	0.017
-165.837	-106.508	0.074	0.016
-164.823	-63.362	0.354	0.143
-163.808	279.157	-0.060	-0.105
-162.793	-8.291	-0.168	-0.111
-161.779	-110.739	0.279	0.057
-160.764	124.181	-0.109	-0.134
-159.750	23.904	-0.128	-0.103
-158.735	-200.000	-0.014	0.179
-157.720	-200.000	0.018	0.216
-156.706	98.613	0.153	0.174
-155.691	313.636	-0.128	-0.235
-154.677	-200.000	0.008	0.207
-153.662	800.000	0.039	-0.116
-152.647	-31.315	0.550	0.304
-151.633	800.000	-0.027	0.109
-150.618	417.107	0.116	-0.242
-149.604	-200.000	0.019	-0.339
-148.589	413.179	0.043	-0.089
-147.574	-109.308	0.372	0.077
-146.560	4.940	-0.197	-0.142
-145.545	-200.000	-0.022	0.188
-144.531	267.940	0.033	-0.056
-143.516	159.305	-0.141	0.192
-142.502	-42.176	0.309	-0.155
-141.487	800.000	-0.025	0.096
-140.472	68.797	0.223	0.224
-139.458	44.952	0.131	-0.118
-138.443	-11.784	-0.043	0.028
-137.429	-85.738	0.165	0.050
-136.414	-200.000	-0.008	-0.074
-135.399	-46.266	-0.310	0.149
-134.385	-77.437	-0.118	0.040
-133.370	-145.681	-0.120	0.011
-132.356	-103.326	0.225	-0.052
-131.341	-200.000	-0.010	-0.126
-130.326	-141.943	0.067	-0.007
-129.312	-7.244	0.213	0.141
-128.297	47.790	-0.131	0.119
-127.283	-59.889	-0.154	0.064
-126.268	40.523	0.284	-0.251
-125.253	-190.310	-0.291	-0.003
-124.239	-129.423	-0.425	-0.058
-123.224	11.606	0.228	-0.172
-122.210	-62.705	-0.292	0.119
-121.195	243.042	0.064	-0.105
-120.180	164.980	-0.225	0.312
-119.166	-65.984	0.473	0.185
-118.151	41.100	-0.074	-0.065
-117.137	800.000	-0.100	0.334
-116.122	-70.157	-0.198	0.074
-115.107	-113.446	0.026	0.005
-114.093	-200.000	-0.015	-0.179
-113.078	-173.645	0.279	0.008
-112.064	-200.000	-0.063	0.276
-111.049	-200.000	-0.009	0.365
-110.034	-78.086	-0.334	-0.113
-109.020	43.258	-0.033	-0.029
-108.005	-200.000	-0.006	-0.220
-106.991	-129.157	0.090	0.012
-105.976	-45.989	0.137	-0.066
-104.962	-123.310	-0.253	0.040
-103.947	138.517	0.166	0.214
-102.932	-55.937	0.222	0.097
-101.918	-92.248	0.138	0.038
-100.903	23.670	-0.337	0.272
-99.889	117.598	0.027	-0.032
-98.874	-50.140	0.286	-0.133
-97.859	-200.000	0.014	0.102
-96.845	229.734	0.090	-0.144
-95.830	34.831	0.045	0.039
-94.816	-200.000	-0.006	0.092
-93.801	399.533	0.066	-0.135
-92.786	-15.466	0.112	-0.070
-91.772	-199.255	-0.033	0.000
-90.757	-58.201	0.187	0.080
-89.743	148.422	0.088	-0.116
-88.728	697.153	-0.115	0.296
-87.713	800.000	0.152	0.426
-86.699	-200.000	-0.009	-0.407
-85.684	-19.791	0.133	0.080
-84.670	185.809	-0.026	0.038
-83.655	-103.159	-0.218	0.051
-82.640	7.088	0.249	0.182
-81.626	-200.000	-0.003	0.289
-80.611	-8.430	-0.190	-0.125
-79.597	-42.494	-0.223	-0.111
-78.582	-104.232	0.243	0.055
-77.567	-43.706	-0.149	-0.074
-76.553	304.381	0.060	-0.108
-75.538	185.246	-0.174	-0.252
-74.524	21.583	-0.330	0.263
-73.509	51.594	0.101	0.094
-72.494	-160.148	0.179	-0.010
-71.480	-30.529	-0.274	-0.152
-70.465	267.596	-0.083	-0.142
-69.451	-200.000	-0.011	-0.083
-68.436	206.828	0.044	-0.067
-67.422	-139.187	-0.189	0.020
-66.407	-42.654	0.050	-0.025
-65.392	-125.323	0.201	0.030
-64.378	-38.021	0.184	-0.096
-63.363	800.000	-0.076	-0.255
-62.349	800.000	0.052	0.198
-61.334	221.017	-0.760	-1.193
-60.319	70.434	0.755	0.763
-59.305	-200.000	-0.299	-1.288
-58.290	362.456	0.769	1.508
-57.276	800.000	0.477	1.476
-56.261	-200.000	115.914	619.638
-55.246	423.940	1539.846	3235.905
-54.232	141.409	2729.788	3531.331
-53.217	99.334	2189.127	2473.675
-52.203	37.769	1617.073	1403.534
-51.188	29.241	1356.720	1125.690
-50.173	26.333	1317.517	1075.838
-49.159	51.511	1375.479	1277.125
-48.144	50.209	1388.609	1281.357
-47.130	29.371	1343.354	1115.208
-46.115	26.284	1324.383	1080.980
-45.100	25.894	1320.239	1075.227
-44.086	25.862	1317.912	1073.101
-43.071	25.845	1315.001	1070.586
-42.057	25.703	1313.579	1068.543
-41.042	25.872	1311.590	1067.883
-40.027	25.813	1310.076	1066.264
-39.013	25.900	1307.846	1064.920
-37.998	25.824	1305.909	1062.852
-36.984	25.919	1304.533	1062.249
-35.969	26.024	1302.600	1061.250
-34.954	25.949	1300.644	1059.174
-33.940	25.967	1299.318	1058.158
-32.925	26.057	1297.917	1057.502
-31.911	26.157	1295.797	1056.318
-30.896	26.110	1294.552	1054.984
-29.881	26.166	1293.444	1054.369
-28.867	26.237	1291.874	1053.461
-27.852	26.078	1290.906	1051.706
-26.838	26.171	1289.357	1050.941
-25.823	26.082	1288.044	1049.314
-24.809	26.083	1286.536	1048.046
-23.794	26.031	1285.007	1046.460
-22.779	25.983	1284.003	1045.322
-21.765	26.064	1282.822	1044.789
-20.750	25.984	1281.557	1043.255
-19.736	25.942	1279.997	1041.698
-18.721	26.019	1278.318	1040.737
-17.706	26.010	1277.425	1039.915
-16.692	25.944	1276.657	1038.870
-15.677	25.921	1275.603	1037.838
-14.663	25.919	1274.369	1036.779
-13.648	25.890	1273.455	1035.828
-12.633	25.880	1272.564	1035.006
-11.619	25.948	1271.221	1034.261
-10.604	25.892	1270.587	1033.387
-9.590	25.870	1269.847	1032.614
-8.575	25.874	1268.535	1031.531
-7.560	25.938	1267.796	1031.253
-6.546	25.978	1266.776	1030.614
-5.531	25.880	1266.110	1029.471
-4.517	25.872	1265.187	1028.632
-3.502	25.990	1264.282	1028.531
-2.487	26.035	1262.960	1027.667
-1.473	26.054	1258.943	1024.467
-0.458	24.762	1244.478	1005.399
0.556	20.700	1228.622	970.256
1.571	17.175	1235.417	955.738
2.586	16.182	1251.152	962.168
3.600	15.870	1238.745	950.776
4.615	11.881	1165.348	873.128
5.629	4.457	1091.464	780.503
6.644	1.120	1072.711	750.524
7.659	0.787	1071.034	747.638
8.673	0.722	1070.046	746.561
9.688	0.722	1068.990	745.760
10.702	1.013	1066.667	745.502
11.717	5.159	1072.031	769.662
12.731	12.452	1081.095	812.253
13.746	16.493	1086.121	835.979
14.761	17.315	1086.806	840.495
15.775	16.547	1085.452	835.583
16.790	15.666	1083.047	829.315
17.804	14.924	1081.601	824.475
18.819	14.545	1080.520	821.713
19.834	14.322	1079.609	819.847
20.848	14.034	1078.598	817.591
21.863	13.975	1077.289	816.236
22.877	13.723	1076.797	814.553
23.892	13.669	1075.779	813.445
24.907	13.725	1075.443	813.394
25.921	13.765	1074.856	813.077
26.936	13.744	1073.979	812.237
27.950	13.740	1073.139	811.511
28.965	13.823	1071.603	810.683
29.980	13.871	1070.248	809.819
30.994	13.886	1069.217	809.043
32.009	13.871	1068.292	808.200
33.023	13.897	1066.935	807.224
34.038	13.943	1065.958	806.641
35.053	13.882	1065.542	805.955
36.067	13.841	1064.284	804.733
37.082	13.789	1063.271	803.648
38.096	13.898	1062.470	803.499
39.111	13.862	1062.031	802.919
40.126	13.810	1061.046	801.852
41.140	13.749	1059.575	800.376
42.155	13.601	1058.722	798.947
43.169	13.705	1057.297	798.300
44.184	13.704	1056.250	797.434
45.199	13.714	1055.381	796.756
46.213	13.694	1054.111	795.633
47.228	13.693	1053.326	794.964
48.242	13.714	1052.267	794.194
49.257	13.707	1051.135	793.236
50.271	13.784	1050.125	792.774
51.286	13.761	1049.245	791.930
52.301	13.683	1048.089	790.616
53.315	13.765	1047.056	790.155
54.330	13.686	1046.199	789.064
55.344	13.765	1045.035	788.489
56.359	13.741	1044.170	787.656
57.374	13.639	1043.511	786.601
58.388	13.706	1042.344	785.971
59.403	13.689	1041.545	785.219
60.417	13.724	1040.618	784.618
61.432	13.563	1040.201	783.471
62.447	13.626	1039.240	782.975
63.461	13.650	1038.486	782.450
64.476	13.669	1037.583	781.792
65.490	13.557	1036.940	780.710
66.505	13.738	1036.022	780.804
67.520	13.617	1035.639	779.876
68.534	13.753	1034.511	779.598
69.549	13.599	1033.888	778.334
70.563	13.684	1033.114	778.082
71.578	13.694	1031.788	777.060
72.593	13.686	1031.648	776.851
73.607	13.548	1031.046	775.681
74.622	13.616	1030.200	775.292
75.636	13.668	1029.343	774.822
76.651	13.588	1028.524	773.766
77.666	13.567	1028.225	773.374
78.680	13.622	1027.501	773.018
79.695	13.648	1026.798	772.541
80.709	13.666	1026.203	772.107
81.724	13.697	1025.196	771.425
82.739	13.698	1024.572	770.894
83.753	13.767	1023.537	770.369
84.768	13.774	1022.908	769.860
85.782	13.866	1021.845	769.416
86.797	13.850	1020.936	768.588
87.812	13.774	1020.146	767.574
88.826	13.732	1018.999	766.450
89.841	13.750	1018.277	765.924
90.855	13.968	1016.572	765.575
91.870	13.890	1016.429	765.041
92.884	13.906	1015.735	764.524
93.899	13.811	1015.310	763.702
94.914	13.886	1013.957	762.961
95.928	13.799	1013.602	762.227
96.943	13.895	1012.334	761.644
97.957	13.927	1011.427	761.045
98.972	13.909	1010.823	760.440
99.987	13.919	1009.756	759.612
101.001	13.922	1008.818	758.854
102.016	13.895	1007.834	757.926
103.030	13.863	1007.000	757.085
104.045	13.942	1006.124	756.717
105.060	13.907	1005.438	755.977
106.074	13.807	1004.586	754.812
107.089	13.722	1003.565	753.594
108.103	13.749	1002.787	753.067
109.118	13.778	1001.961	752.510
110.133	13.793	1000.959	751.758
111.147	13.778	1000.103	750.982
112.162	13.778	999.472	750.442
113.176	13.838	998.217	749.706
114.191	13.835	997.823	749.328
115.206	13.798	997.043	748.508
116.220	13.887	995.860	747.954
117.235	13.872	994.951	747.137
118.249	13.761	994.352	746.126
119.264	13.819	993.777	745.889
120.279	13.807	992.409	744.743
121.293	13.804	991.747	744.165
122.308	13.810	991.097	743.639
123.322	13.736	990.323	742.660
124.337	13.900	988.784	742.173
125.352	13.835	987.674	740.985
126.366	13.849	986.430	740.046
127.381	13.825	985.806	739.408
128.395	13.799	985.000	738.620
129.410	13.736	984.080	737.586
130.424	13.840	983.488	737.542
131.439	13.848	982.602	736.848
132.454	13.826	981.739	736.034
133.468	13.772	981.107	735.256
134.483	13.912	979.734	734.784
135.497	13.768	979.361	733.801
136.512	13.794	978.146	732.939
137.527	13.970	977.227	732.966
138.541	13.866	976.652	732.008
139.556	13.994	975.934	731.971
140.570	13.997	975.000	731.219
141.585	14.062	974.412	730.998
142.600	13.992	973.413	729.877
143.614	14.005	972.548	729.223
144.629	14.110	972.111	729.288
145.643	14.027	971.264	728.224
146.658	13.979	970.212	727.162
147.673	13.930	969.191	726.119
148.687	14.089	968.347	726.116
149.702	13.903	967.540	724.633
150.716	13.930	967.026	724.304
151.731	14.079	966.214	724.283
152.746	13.946	965.945	723.435
153.760	14.024	964.836	722.881
154.775	14.026	964.445	722.531
155.789	14.018	963.957	722.068
156.804	14.131	962.800	721.627
157.819	14.318	961.654	721.517
158.833	14.183	961.617	720.837
159.848	14.229	960.608	720.217
160.862	14.091	959.805	718.954
161.877	14.154	958.598	718.259
162.892	13.955	958.206	717.044
163.906	14.237	956.642	717.024
164.921	14.019	956.413	715.853
165.935	14.066	955.533	715.333
166.950	14.083	954.574	714.622
167.964	14.269	953.108	714.261
168.979	14.216	952.730	713.689
169.994	14.178	952.013	712.922
171.008	14.274	951.155	712.629
172.023	14.240	950.837	712.182
173.037	14.329	949.423	711.439
174.052	14.251	948.864	710.627
175.067	14.181	948.448	709.952
176.081	14.191	947.660	709.344
177.096	14.174	947.379	708.995
178.110	14.315	946.643	708.985
179.125	14.292	946.141	708.446
180.140	14.233	945.554	707.694
181.154	14.222	945.211	707.327
182.169	14.357	944.520	707.319
183.183	14.266	944.021	706.499
184.198	14.509	943.087	706.770
185.213	14.570	942.329	706.395
186.227	14.455	942.007	705.606
187.242	14.425	941.305	704.888
188.256	14.409	940.470	704.133
189.271	14.683	939.172	704.255
190.286	14.435	938.969	702.995
191.300	14.389	938.356	702.280
192.315	14.386	937.507	701.573
193.329	14.437	937.093	701.415
194.344	14.398	936.343	700.625
195.359	14.360	935.800	699.996
196.373	14.439	935.246	699.851
197.388	14.553	934.709	699.867
198.402	14.614	934.149	699.643
199.417	14.586	933.589	699.042
200.432	14.698	932.681	698.771
201.446	14.719	932.043	698.318
202.461	14.737	931.893	698.220
203.475	14.700	931.227	697.505
204.490	14.700	930.586	696.963
205.504	14.730	929.855	696.478
206.519	14.670	928.854	695.418
207.534	14.534	928.446	694.483
208.548	14.729	927.696	694.672
209.563	14.857	926.545	694.280
210.577	14.709	926.245	693.381
211.592	14.800	925.710	693.298
212.607	14.790	924.894	692.581
213.621	14.786	924.207	691.989
214.636	14.770	923.365	691.230
215.650	14.898	922.732	691.227
216.665	14.975	921.973	690.915
217.680	14.858	921.431	689.963
218.694	15.027	920.162	689.649
219.709	15.031	919.901	689.411
220.723	14.910	919.081	688.236
221.738	14.961	918.475	687.929
222.753	14.879	918.337	687.429
223.767	15.040	917.426	687.346
224.782	14.953	917.085	686.675
225.796	15.165	916.102	686.748
226.811	15.067	915.399	685.758
227.826	15.131	914.636	685.389
228.840	15.086	914.213	684.825
229.855	15.006	913.044	683.562
230.869	14.891	912.607	682.707
231.884	15.055	912.079	682.921
232.899	15.022	911.373	682.197
233.913	15.097	910.139	681.518
234.928	14.978	909.854	680.759
235.942	15.133	909.152	680.805
236.957	15.068	909.181	680.500
237.972	15.133	908.282	680.033
238.986	15.091	907.442	679.173
240.001	15.043	906.792	678.431
241.015	15.058	905.935	677.791
242.030	15.227	905.565	678.139
243.045	15.229	904.823	677.528
244.059	15.175	904.524	677.027
245.074	15.176	903.663	676.329
246.088	15.281	903.008	676.200
247.103	15.235	902.207	675.357
248.117	15.122	901.906	674.615
249.132	15.354	901.305	675.041
250.147	15.302	900.602	674.243
251.161	15.477	899.510	674.072
252.176	15.431	898.899	673.367
253.190	15.447	898.326	672.942
254.205	15.569	897.537	672.783
255.220	15.485	897.103	672.063
256.234	15.545	896.127	671.510
257.249	15.475	895.878	670.984
258.263	15.478	894.930	670.226
259.278	15.503	894.367	669.845
260.293	15.463	893.913	669.285
261.307	15.611	893.238	669.313
262.322	15.760	892.299	669.142
263.336	15.733	891.403	668.305
264.351	15.649	891.039	667.639
265.366	15.748	890.274	667.398
266.380	15.643	889.828	666.591
267.395	15.762	889.255	666.572
268.409	15.684	888.505	665.644
269.424	15.781	887.519	665.230
270.439	15.683	886.875	664.300
271.453	15.628	886.121	663.460
272.468	15.747	885.830	663.651
273.482	15.735	885.503	663.300
274.497	15.822	884.417	662.772
275.512	15.778	883.849	662.114
276.526	15.769	883.458	661.726
277.541	15.813	883.097	661.571
278.555	15.901	882.496	661.407
279.570	15.957	881.907	661.125
280.585	15.753	880.778	659.422
281.599	15.932	880.006	659.488
282.614	15.939	879.490	659.071
283.628	15.880	878.805	658.268
284.643	15.999	878.327	658.318
285.657	15.987	877.700	657.742
286.672	16.061	876.779	657.280
287.687	16.088	876.336	656.998
288.701	15.972	876.076	656.290
289.716	15.972	875.389	655.719
290.730	16.091	874.400	655.383
291.745	16.195	874.000	655.429
292.760	16.135	873.198	654.538
293.774	16.150	872.508	654.019
294.789	16.193	871.909	653.678
295.803	16.170	871.356	653.119
296.818	16.128	870.458	652.223
297.833	16.116	870.225	651.945
298.847	16.151	869.843	651.738
299.862	16.258	868.814	651.323
300.876	16.309	868.120	650.939
301.891	16.242	867.519	650.173
302.906	16.324	867.015	650.053
303.920	16.203	866.861	649.415
304.935	16.299	866.043	649.114
305.949	16.398	865.059	648.702
306.964	16.373	864.661	648.247
307.979	16.328	864.143	647.628
308.993	16.565	863.378	647.906
310.008	16.588	862.456	647.244
311.022	16.536	862.291	646.865
312.037	16.429	861.582	645.868
313.052	16.328	861.439	645.316
314.066	16.422	860.915	645.227
315.081	16.269	860.373	644.179
316.095	16.491	859.498	644.314
317.110	16.501	858.563	643.593
318.125	16.409	858.696	643.284
319.139	16.322	858.236	642.554
320.154	16.398	857.851	642.499
321.168	16.522	857.026	642.294
322.183	16.574	856.225	641.835
323.197	16.483	856.365	641.537
324.212	16.506	855.395	640.841
325.227	16.433	854.933	640.160
326.241	16.451	854.528	639.869
327.256	16.547	853.618	639.495
328.270	16.517	852.740	638.665
329.285	16.612	852.596	638.863
330.300	16.571	851.865	638.102
331.314	16.503	851.558	637.559
332.329	16.729	850.655	637.678
333.343	16.501	850.334	636.522
334.358	16.711	850.079	637.065
335.373	16.694	849.658	636.629
336.387	16.775	849.076	636.442
337.402	16.691	849.155	636.128
338.416	16.752	848.528	635.834
339.431	16.686	848.223	635.300
340.446	16.897	847.732	635.666
341.460	16.692	847.402	634.596
342.475	16.754	846.963	634.441
343.489	16.827	846.687	634.453
344.504	16.888	845.898	634.033
345.519	16.907	845.569	633.801
346.533	16.902	845.342	633.558
347.548	16.998	844.572	633.281
348.562	17.046	843.445	632.560
349.577	16.905	843.263	631.843
350.592	16.947	842.819	631.608
351.606	17.038	841.659	631.023
352.621	16.928	841.147	630.176
353.635	16.978	840.646	629.928
354.650	17.137	839.815	629.839
355.665	17.065	839.400	629.207
356.679	16.825	839.154	628.078
357.694	17.079	838.002	628.099
358.708	17.122	837.190	627.595
359.723	17.089	836.919	627.214
360.738	17.040	836.143	626.394
361.752	17.168	835.757	626.524
362.767	17.127	835.405	626.052
363.781	17.077	834.905	625.439
364.796	17.264	834.381	625.678
365.810	17.278	833.701	625.166
366.825	17.343	833.566	625.247
367.840	17.187	833.342	624.450
368.854	17.200	832.515	623.822
369.869	17.273	832.247	623.837
370.883	17.191	832.054	623.335
371.898	17.243	831.269	622.882
372.913	17.524	830.610	623.362
373.927	17.416	830.233	622.630
374.942	17.385	829.758	622.106
375.956	17.519	829.689	622.487
376.971	17.567	828.772	621.921
377.986	17.531	828.387	621.443
379.000	17.567	827.818	621.093
380.015	17.591	827.560	620.931
381.029	17.570	827.091	620.449
382.044	17.601	826.417	620.001
383.059	17.747	825.536	619.818
384.073	17.547	825.251	618.821
385.088	17.644	824.571	618.608
386.102	17.549	824.255	617.971
387.117	17.663	823.339	617.643
388.132	17.634	822.568	616.907
389.146	17.540	822.397	616.385
390.161	17.536	822.311	616.249
391.175	17.621	821.661	616.014
392.190	17.657	820.688	615.360
393.205	17.767	820.354	615.453
394.219	17.551	820.155	614.471
395.234	17.678	819.489	614.375
396.248	17.584	819.551	614.028
397.263	17.600	819.084	613.680
398.278	17.642	818.505	613.342
399.292	17.773	817.683	613.146
400.307	17.689	817.357	612.543
401.321	17.665	817.087	612.202
402.336	17.864	816.225	612.215
403.350	17.923	816.018	612.216
404.365	17.747	815.791	611.363
405.380	17.813	814.904	610.881
406.394	17.842	814.622	610.719
407.409	17.798	814.302	610.266
408.423	17.774	813.915	609.835
409.438	18.052	813.484	610.452
410.453	18.080	812.944	610.094
411.467	17.917	812.366	609.026
412.482	18.104	811.927	609.310
413.496	18.084	811.971	609.216
414.511	17.995	811.882	608.777
415.526	18.193	810.734	608.567
416.540	18.133	810.436	608.076
417.555	18.116	810.127	607.729
418.569	18.215	809.349	607.443
419.584	18.100	809.374	607.001
420.599	18.029	808.759	606.235
421.613	114.126	1297.026	1483.815
422.628	98.678	1368.137	1483.896
