DTS Sentinel unit serial number:	SN413079Multiplexer serial number:	ORYXHardware model number:	OX4-SRSoftware version number:	ORYX F/W v4.00 Oryx Data Collector v3.7.2.0data status	okinstallation	princeton_trtdifferential loss correction	single-endedforward channel	channel 1reverse channel	N/Adate	2019/09/10time	17:08:11forward acquisition time	60.00reverse acquisition time	0.00gamma	496.2192k internal	0.2299k external	0.2299temperature offset calibration	0.9921default loss term (dB/km)	0.3790temperature slope calibration	1.0000multiplexer offset coefficient	1.0000multiplexer slope coefficient	1.0000fibre end	0.00T internal ref (°C)	37.62T ext. ref 1 (°C)	-0.39T ext. ref 2 (°C)	31.91length (m)	temperature (°C)	Stokes	anti-Stokes-747.200	-81.176	0.309	0.104
-746.185	-161.498	-0.055	-0.003
-745.171	-94.776	-0.026	0.007
-744.156	-33.777	0.329	0.185
-743.142	19.097	-0.119	0.098
-742.127	306.235	0.153	0.291
-741.112	304.039	0.056	0.106
-740.098	242.979	-0.139	0.238
-739.083	-13.185	0.150	-0.099
-738.069	8.840	0.101	-0.077
-737.054	-14.606	-0.403	-0.264
-736.039	682.583	-0.126	-0.335
-735.025	228.926	0.160	0.266
-734.010	-32.016	-0.030	-0.017
-732.996	-4.210	0.178	0.125
-731.981	-200.000	-0.014	-0.099
-730.966	391.609	-0.081	0.172
-729.952	285.937	-0.043	-0.079
-728.937	-15.978	-0.218	0.141
-727.923	800.000	0.071	-0.275
-726.908	-99.330	-0.169	0.043
-725.894	221.447	0.181	0.296
-724.879	169.638	-0.215	0.313
-723.864	219.253	0.151	-0.247
-722.850	-74.631	-0.389	0.143
-721.835	139.108	0.056	-0.075
-720.821	91.236	0.100	-0.114
-719.806	147.301	0.110	-0.150
-718.791	207.823	-0.245	-0.389
-717.777	171.788	-0.155	0.227
-716.762	357.792	-0.111	-0.226
-715.748	-107.196	-0.405	-0.091
-714.733	15.858	0.092	0.074
-713.718	-200.000	-0.009	-0.200
-712.704	-117.422	-0.415	-0.077
-711.689	-19.251	-0.287	-0.181
-710.675	333.083	0.096	-0.189
-709.660	491.981	-0.184	0.430
-708.645	-137.339	-0.269	-0.031
-707.631	-200.000	0.000	-0.249
-706.616	-138.148	-0.053	-0.006
-705.602	-18.392	-0.116	-0.074
-704.587	-7.225	-0.161	-0.111
-703.572	6.040	-0.313	-0.236
-702.558	414.976	-0.133	-0.289
-701.543	-200.000	0.019	0.108
-700.529	713.438	-0.050	-0.135
-699.514	-200.000	0.042	-0.253
-698.499	-175.262	-0.320	-0.009
-697.485	-200.000	-0.043	-0.200
-696.470	-161.831	-0.177	0.009
-695.456	-0.575	0.063	0.046
-694.441	800.000	-0.087	0.321
-693.426	247.412	-0.101	0.174
-692.412	-200.000	-0.059	-0.335
-691.397	100.216	-0.221	-0.262
-690.383	-200.000	-0.031	0.365
-689.368	-46.508	-0.182	0.091
-688.354	-200.000	-0.026	-0.125
-687.339	-200.000	0.015	0.136
-686.324	83.213	0.125	0.138
-685.310	50.027	-0.029	0.028
-684.295	8.470	0.100	0.076
-683.281	131.407	-0.178	0.233
-682.266	-74.927	0.335	-0.122
-681.251	103.858	-0.023	-0.027
-680.237	-125.781	0.193	0.030
-679.222	55.238	-0.131	-0.129
-678.208	156.407	-0.057	-0.079
-677.193	33.094	0.086	0.076
-676.178	-147.136	-0.009	-0.001
-675.164	-78.627	0.230	0.080
-674.149	-68.794	-0.069	-0.027
-673.135	-200.000	-0.008	0.189
-672.120	-96.398	0.296	-0.080
-671.105	169.090	-0.089	-0.130
-670.091	-180.989	-0.171	0.004
-669.076	-94.288	0.053	0.015
-668.062	38.048	-0.103	-0.093
-667.047	73.490	-0.227	0.241
-666.032	460.321	0.110	-0.250
-665.018	3.865	0.174	-0.129
-664.003	76.991	0.035	0.038
-662.989	32.254	-0.054	0.048
-661.974	800.000	-0.064	-0.195
-660.959	-200.000	-0.029	0.151
-659.945	-19.600	0.146	0.092
-658.930	-67.428	-0.065	0.026
-657.916	24.103	0.072	0.061
-656.901	70.032	-0.169	0.178
-655.886	-12.817	-0.227	-0.150
-654.872	-49.832	0.061	-0.029
-653.857	94.897	-0.086	-0.100
-652.843	-200.000	-0.041	-0.182
-651.828	117.037	-0.120	-0.150
-650.814	5.111	-0.047	-0.035
-649.799	-8.773	-0.326	0.223
-648.784	-173.016	-0.283	0.009
-647.770	-52.152	-0.201	-0.095
-646.755	-200.000	0.032	-0.257
-645.741	-200.000	0.009	-0.078
-644.726	-70.952	0.227	-0.087
-643.711	-6.321	0.193	0.134
-642.697	-200.000	-0.017	-0.087
-641.682	800.000	0.011	-0.036
-640.668	-154.007	-0.087	-0.006
-639.653	-125.493	0.068	0.010
-638.638	145.924	-0.111	0.152
-637.624	-162.255	0.294	-0.015
-636.609	800.000	0.101	-0.381
-635.595	-200.000	-0.007	-0.266
-634.580	800.000	0.039	-0.151
-633.565	-45.940	-0.203	-0.102
-632.551	450.684	0.062	-0.139
-631.536	800.000	-0.035	-0.118
-630.522	206.509	0.076	0.121
-629.507	-200.000	-0.051	-0.276
-628.492	205.538	0.048	0.075
-627.478	-36.877	0.277	0.151
-626.463	800.000	0.092	-0.267
-625.449	-102.267	0.228	0.056
-624.434	-35.337	0.252	0.139
-623.419	-20.290	-0.318	-0.199
-622.405	403.026	-0.083	-0.177
-621.390	-105.946	0.123	0.028
-620.376	54.322	0.221	0.216
-619.361	-10.832	0.301	0.202
-618.346	215.765	0.234	-0.377
-617.332	34.793	-0.066	0.059
-616.317	45.605	-0.321	-0.301
-615.303	84.710	0.112	0.124
-614.288	116.382	-0.034	-0.042
-613.273	800.000	-0.059	-0.231
-612.259	66.938	0.165	-0.170
-611.244	-57.588	0.239	0.106
-610.230	263.157	-0.124	-0.219
-609.215	9.892	-0.144	-0.111
-608.201	-200.000	0.064	-0.524
-607.186	-200.000	0.000	0.050
-606.171	-65.361	-0.351	0.143
-605.157	-119.901	0.202	-0.035
-604.142	800.000	-0.158	0.467
-603.128	-86.511	-0.382	0.119
-602.113	-200.000	-0.016	-0.095
-601.098	800.000	0.047	0.168
-600.084	351.823	0.126	0.253
-599.069	-200.000	-0.017	-0.171
-598.055	-200.000	-0.098	-0.470
-597.040	-2.862	-0.345	-0.245
-596.025	12.129	0.239	-0.186
-595.011	718.079	0.058	-0.158
-593.996	800.000	0.093	-0.332
-592.982	-200.000	0.015	0.175
-591.967	-200.000	-0.005	-0.487
-590.952	-90.908	-0.130	0.038
-589.938	36.827	0.090	-0.080
-588.923	800.000	0.060	-0.221
-587.909	-170.231	-0.213	-0.008
-586.894	800.000	-0.141	0.410
-585.879	67.144	0.097	0.100
-584.865	9.858	-0.344	0.265
-583.850	-54.955	0.151	0.069
-582.836	-200.000	-0.043	-0.195
-581.821	117.054	-0.208	0.260
-580.806	-79.840	-0.156	0.053
-579.792	64.643	-0.272	-0.278
-578.777	244.025	-0.106	-0.180
-577.763	-56.921	0.228	0.102
-576.748	34.258	-0.291	0.257
-575.733	-165.101	0.160	-0.007
-574.719	32.954	0.133	0.117
-573.704	110.209	-0.166	-0.202
-572.690	800.000	-0.012	-0.052
-571.675	107.543	-0.193	-0.233
-570.661	207.438	0.070	0.110
-569.646	49.058	0.149	0.141
-568.631	800.000	0.035	-0.110
-567.617	-54.490	-0.211	-0.097
-566.602	-136.628	-0.209	0.024
-565.588	-100.706	-0.401	0.100
-564.573	-150.792	-0.223	-0.017
-563.558	-194.914	-0.222	0.002
-562.544	124.502	0.056	-0.071
-561.529	-147.787	0.150	-0.013
-560.515	-200.000	-0.028	0.228
-559.500	223.527	-0.116	0.190
-558.485	-108.855	-0.242	-0.052
-557.471	-200.000	-0.011	0.117
-556.456	101.479	-0.087	-0.102
-555.442	32.256	0.289	0.253
-554.427	212.643	-0.035	-0.056
-553.412	800.000	0.085	-0.241
-552.398	-101.310	0.402	0.099
-551.383	-62.219	-0.282	-0.119
-550.369	-200.000	-0.048	-0.265
-549.354	97.795	0.102	-0.118
-548.339	-71.577	0.038	0.014
-547.325	205.818	0.067	-0.106
-546.310	-120.709	0.093	0.016
-545.296	-141.208	-0.339	-0.035
-544.281	-200.000	0.028	-0.291
-543.266	77.263	-0.091	-0.098
-542.252	149.459	-0.095	-0.131
-541.237	275.057	-0.081	-0.145
-540.223	-29.262	0.256	-0.149
-539.208	-200.000	-0.003	-0.176
-538.193	5.435	0.256	0.191
-537.179	-121.068	-0.174	-0.029
-536.164	495.943	-0.144	0.335
-535.150	-77.440	-0.291	0.102
-534.135	-177.666	-0.439	-0.011
-533.121	800.000	-0.033	-0.098
-532.106	-103.334	0.219	-0.052
-531.091	-116.603	-0.202	0.038
-530.077	-200.000	-0.079	0.438
-529.062	114.232	0.286	-0.352
-528.048	28.235	-0.068	-0.058
-527.033	73.288	-0.148	-0.156
-526.018	156.383	0.112	-0.156
-525.004	-90.605	-0.171	-0.050
-523.989	-76.746	0.177	0.063
-522.975	-70.812	-0.248	-0.095
-521.960	70.903	0.124	0.130
-520.945	-200.000	0.007	0.236
-519.931	293.745	0.059	-0.109
-518.916	67.975	-0.134	0.139
-517.902	-108.211	-0.110	-0.024
-516.887	0.908	-0.271	0.197
-515.872	-112.195	-0.315	0.064
-514.858	394.773	0.076	-0.159
-513.843	800.000	-0.085	-0.361
-512.829	800.000	-0.053	-0.207
-511.814	143.830	0.102	-0.138
-510.799	-123.430	-0.139	-0.022
-509.785	-24.059	0.249	0.150
-508.770	163.085	-0.190	0.270
-507.756	-200.000	-0.021	0.109
-506.741	-117.457	0.035	0.006
-505.726	135.808	-0.179	0.236
-504.712	-200.000	-0.040	0.216
-503.697	-77.842	-0.117	0.041
-502.683	-127.756	-0.278	-0.041
-501.668	441.531	-0.050	0.111
-500.653	-200.000	0.030	0.273
-499.639	-148.347	-0.113	-0.009
-498.624	230.359	0.199	-0.329
-497.610	345.840	-0.103	-0.205
-496.595	-57.930	0.110	0.048
-495.581	-93.794	-0.330	0.092
-494.566	-200.000	0.048	0.313
-493.551	59.308	0.094	0.093
-492.537	-78.437	0.147	0.051
-491.522	800.000	-0.056	-0.188
-490.508	-48.922	-0.238	-0.115
-489.493	50.918	-0.143	-0.137
-488.478	432.255	0.080	0.176
-487.464	138.623	-0.068	-0.091
-486.449	382.672	-0.112	0.233
-485.435	-34.164	0.168	-0.093
-484.420	-27.972	-0.148	0.087
-483.405	172.511	0.233	0.338
-482.391	55.557	0.115	0.113
-481.376	-42.085	-0.161	-0.083
-480.362	21.896	0.134	0.110
-479.347	-3.390	0.127	0.089
-478.332	507.205	-0.026	-0.061
-477.318	86.092	0.255	-0.284
-476.303	-21.655	-0.081	0.050
-475.289	-200.000	-0.003	0.109
-474.274	-200.000	0.046	0.276
-473.259	192.135	0.076	0.116
-472.245	323.451	0.080	-0.154
-471.230	-89.634	0.181	-0.054
-470.216	-116.117	0.240	0.045
-469.201	7.394	-0.106	-0.080
-468.186	-58.836	-0.506	-0.221
-467.172	-60.683	0.128	0.055
-466.157	-200.000	-0.001	-0.058
-465.143	380.646	-0.109	0.226
-464.128	-114.282	0.228	0.044
-463.113	-63.046	-0.177	-0.074
-462.099	-200.000	0.013	0.106
-461.084	467.134	0.135	-0.306
-460.070	-200.000	-0.035	0.247
-459.055	137.804	0.116	-0.153
-458.040	71.088	-0.168	-0.176
-457.026	156.924	0.175	-0.244
-456.011	438.751	-0.063	0.138
-454.997	-104.368	-0.207	-0.048
-453.982	-52.670	0.221	0.103
-452.968	-82.446	-0.425	0.139
-451.953	-200.000	0.001	-0.268
-450.938	-200.000	0.040	-0.257
-449.924	800.000	0.039	0.123
-448.909	-200.000	-0.030	0.332
-447.895	654.285	0.040	0.104
-446.880	800.000	0.035	0.108
-445.865	-139.272	-0.183	0.020
-444.851	305.444	-0.063	0.118
-443.836	-70.990	-0.075	0.028
-442.822	-200.000	0.019	0.239
-441.807	243.639	-0.083	0.140
-440.792	45.549	0.139	-0.129
-439.778	371.030	-0.045	-0.093
-438.763	542.798	0.128	-0.308
-437.749	246.027	-0.087	-0.148
-436.734	135.334	-0.102	0.134
-435.719	-115.177	0.113	0.022
-434.705	312.637	-0.031	0.059
-433.690	800.000	0.149	-0.463
-432.676	48.056	-0.301	-0.284
-431.661	-110.044	0.347	-0.073
-430.646	800.000	-0.052	-0.175
-429.632	-75.384	0.161	0.058
-428.617	352.972	-0.086	-0.173
-427.603	-172.899	-0.196	-0.006
-426.588	191.909	-0.150	0.228
-425.573	52.494	-0.089	0.085
-424.559	-183.808	-0.291	-0.005
-423.544	-200.000	-0.010	0.105
-422.530	-80.233	-0.062	-0.021
-421.515	-113.675	-0.332	0.065
-420.500	167.365	0.092	-0.131
-419.486	-200.000	-0.066	-0.489
-418.471	583.101	-0.069	-0.171
-417.457	-91.286	-0.120	-0.035
-416.442	80.570	0.004	0.004
-415.428	331.119	-0.069	0.133
-414.413	-200.000	-0.014	0.135
-413.398	632.418	-0.138	0.352
-412.384	-179.639	0.303	0.007
-411.369	800.000	0.020	-0.083
-410.355	-65.816	0.233	0.094
-409.340	-59.905	-0.048	0.021
-408.325	76.479	-0.196	-0.209
-407.311	-86.315	0.338	-0.105
-406.296	-100.728	0.100	-0.025
-405.282	-127.124	0.368	0.054
-404.267	633.589	0.085	0.218
-403.252	46.654	0.329	-0.308
-402.238	-138.522	-0.248	0.027
-401.223	-200.000	0.091	-0.413
-400.209	-105.077	0.396	-0.091
-399.194	83.042	0.271	0.297
-398.179	-62.982	0.098	0.041
-397.165	-200.000	-0.062	0.383
-396.150	-129.644	-0.159	0.022
-395.136	67.045	0.220	0.225
-394.121	30.617	0.172	-0.148
-393.106	-165.657	0.103	-0.005
-392.092	-200.000	-0.005	0.038
-391.077	-200.000	-0.007	-0.211
-390.063	800.000	0.105	-0.440
-389.048	615.270	0.076	0.191
-388.033	-110.100	-0.287	-0.060
-387.019	452.050	-0.058	0.128
-386.004	800.000	0.018	0.057
-384.990	800.000	-0.045	0.154
-383.975	363.195	0.066	0.133
-382.960	-61.359	0.190	0.081
-381.946	-200.000	0.044	0.232
-380.931	-200.000	-0.004	0.225
-379.917	800.000	0.054	0.156
-378.902	-110.089	-0.238	-0.050
-377.888	-2.812	-0.384	-0.270
-376.873	-163.879	0.162	-0.008
-375.858	138.202	-0.161	-0.213
-374.844	1.849	0.285	-0.206
-373.829	-14.381	-0.364	0.236
-372.815	-149.341	0.181	-0.014
-371.800	-200.000	-0.009	0.198
-370.785	800.000	0.030	0.121
-369.771	-58.076	-0.084	-0.037
-368.756	800.000	-0.036	0.106
-367.742	-89.030	0.145	0.043
-366.727	-29.229	0.157	-0.091
-365.712	-200.000	-0.022	-0.167
-364.698	33.197	-0.262	0.228
-363.683	-200.000	-0.001	0.243
-362.669	418.378	0.116	0.249
-361.654	3.905	-0.142	-0.104
-360.639	0.630	0.179	0.129
-359.625	317.661	0.113	0.214
-358.610	-119.832	0.480	0.083
-357.596	-31.122	0.304	-0.172
-356.581	100.741	0.168	0.196
-355.566	133.370	-0.155	0.202
-354.552	-7.336	-0.378	0.258
-353.537	-200.000	0.075	0.427
-352.523	-49.018	-0.106	0.051
-351.508	-90.798	-0.236	0.068
-350.493	-200.000	0.034	-0.233
-349.479	-73.079	0.209	0.077
-348.464	-200.000	0.001	-0.121
-347.450	260.232	-0.152	0.264
-346.435	15.680	0.091	-0.072
-345.420	-36.227	-0.333	-0.180
-344.406	-161.621	0.146	0.008
-343.391	9.373	0.145	-0.110
-342.377	1.261	0.238	0.172
-341.362	121.587	0.136	0.170
-340.348	394.031	0.089	-0.186
-339.333	606.526	0.113	0.282
-338.318	-110.895	-0.250	-0.052
-337.304	-200.000	0.003	0.047
-336.289	346.933	0.007	-0.013
-335.275	-56.299	-0.282	0.126
-334.260	-145.670	-0.264	0.024
-333.245	108.615	-0.077	0.092
-332.231	184.118	0.042	0.063
-331.216	55.902	-0.158	0.154
-330.202	-129.155	0.217	0.030
-329.187	-51.779	0.116	0.054
-328.172	-34.052	0.117	-0.065
-327.158	800.000	-0.051	-0.191
-326.143	627.055	-0.028	0.070
-325.129	50.833	0.187	0.178
-324.114	-4.539	-0.030	0.021
-323.099	-100.726	0.132	0.033
-322.085	170.551	0.155	0.223
-321.070	130.662	0.178	0.229
-320.056	0.283	0.280	-0.201
-319.041	285.979	-0.098	-0.178
-318.026	18.286	-0.158	0.127
-317.012	-119.746	0.057	0.010
-315.997	2.086	-0.218	-0.158
-314.983	164.535	-0.033	0.047
-313.968	642.777	0.066	0.168
-312.953	-200.000	-0.036	-0.188
-311.939	-200.000	-0.047	0.314
-310.924	159.738	-0.033	0.046
-309.910	192.269	0.259	0.391
-308.895	-2.268	-0.185	-0.130
-307.880	23.558	0.074	-0.061
-306.866	-154.372	-0.367	-0.025
-305.851	-56.509	-0.243	-0.108
-304.837	800.000	0.046	0.167
-303.822	800.000	-0.092	0.375
-302.807	800.000	0.018	-0.070
-301.793	87.663	-0.042	-0.046
-300.778	-104.605	0.353	0.082
-299.764	-136.348	-0.282	0.033
-298.749	-162.227	0.117	0.006
-297.735	727.911	-0.095	0.253
-296.720	-62.260	0.060	-0.025
-295.705	471.913	0.117	0.264
-294.691	-200.000	0.065	0.323
-293.676	-89.124	0.111	-0.033
-292.662	178.528	0.221	0.324
-291.647	-159.151	-0.520	0.029
-290.632	-38.224	-0.165	-0.087
-289.618	-182.030	0.285	-0.005
-288.603	-148.864	0.052	0.004
-287.589	-65.607	0.336	-0.135
-286.574	-163.843	-0.150	-0.007
-285.559	4.466	-0.115	0.085
-284.545	800.000	-0.034	-0.103
-283.530	-38.080	0.051	-0.027
-282.516	-200.000	0.002	-0.085
-281.501	-142.962	0.273	-0.027
-280.486	-94.479	0.233	-0.064
-279.472	6.235	0.065	-0.048
-278.457	-112.779	-0.176	-0.035
-277.443	307.831	0.087	0.162
-276.428	-47.142	0.389	-0.190
-275.413	800.000	0.046	0.185
-274.399	800.000	0.060	-0.183
-273.384	487.659	-0.177	0.406
-272.370	9.259	0.162	-0.123
-271.355	284.645	-0.072	0.131
-270.340	219.729	-0.182	-0.291
-269.326	-64.607	0.148	0.060
-268.311	-87.113	-0.233	0.071
-267.297	441.468	-0.070	0.153
-266.282	-200.000	0.020	0.096
-265.267	270.154	0.049	0.086
-264.253	130.160	-0.082	-0.105
-263.238	-200.000	-0.005	-0.263
-262.224	130.072	0.068	-0.087
-261.209	-137.643	-0.407	0.046
-260.195	800.000	0.043	-0.144
-259.180	-163.018	-0.142	-0.007
-258.165	-200.000	0.054	-0.249
-257.151	-199.502	-0.067	-0.000
-256.136	612.202	0.106	0.267
-255.122	-69.327	0.160	0.062
-254.107	-125.973	0.516	-0.078
-253.092	-200.000	0.023	0.327
-252.078	34.419	-0.095	0.083
-251.063	303.324	-0.111	-0.207
-250.049	26.819	0.096	0.080
-249.034	-200.000	-0.002	0.038
-248.019	-53.026	0.033	-0.015
-247.005	60.363	-0.107	-0.106
-245.990	-90.531	0.529	-0.153
-244.976	216.297	-0.087	-0.138
-243.961	-36.336	-0.180	-0.097
-242.946	-160.105	-0.143	-0.008
-241.932	-24.909	0.047	-0.028
-240.917	43.350	-0.207	-0.190
-239.903	800.000	0.076	-0.217
-238.888	30.102	0.275	-0.235
-237.873	53.766	0.129	0.124
-236.859	347.181	-0.147	0.289
-235.844	557.940	0.084	-0.203
-234.830	-106.367	0.357	0.080
-233.815	800.000	-0.076	-0.259
-232.800	233.346	0.061	0.101
-231.786	-187.766	0.141	-0.002
-230.771	186.137	-0.087	0.129
-229.757	-96.653	-0.056	-0.015
-228.742	-45.253	-0.308	0.153
-227.727	-164.820	0.273	-0.012
-226.713	-200.000	0.005	-0.222
-225.698	-7.183	-0.068	0.046
-224.684	-200.000	-0.028	-0.253
-223.669	800.000	0.053	-0.206
-222.655	-94.218	0.093	0.025
-221.640	-57.814	0.150	0.065
-220.625	-200.000	0.041	-0.238
-219.611	44.318	0.152	-0.139
-218.596	237.932	0.188	0.312
-217.582	85.178	0.168	0.184
-216.567	-78.330	-0.286	0.098
-215.552	-150.326	-0.502	-0.039
-214.538	800.000	-0.053	-0.223
-213.523	800.000	0.092	-0.258
-212.509	21.724	-0.275	0.224
-211.494	658.377	-0.155	0.398
-210.479	549.846	0.150	0.360
-209.465	59.852	0.212	0.209
-208.450	800.000	-0.055	0.167
-207.436	-3.907	-0.118	-0.082
-206.421	800.000	0.080	-0.349
-205.406	-21.164	0.190	0.116
-204.392	-200.000	-0.014	-0.105
-203.377	-200.000	0.039	0.536
-202.363	-111.371	0.211	0.043
-201.348	347.598	0.095	0.188
-200.333	-72.247	0.212	-0.079
-199.319	-1.832	-0.355	-0.250
-198.304	800.000	-0.137	0.403
-197.290	243.694	-0.182	0.304
-196.275	-160.955	0.219	-0.011
-195.260	-51.495	-0.025	0.012
-194.246	92.341	0.212	-0.239
-193.231	-200.000	-0.007	0.289
-192.217	-30.538	0.260	-0.147
-191.202	340.093	0.002	0.003
-190.187	22.394	0.254	-0.207
-189.173	91.005	-0.115	-0.129
-188.158	-200.000	-0.028	0.245
-187.144	-200.000	0.029	-0.248
-186.129	52.944	-0.364	-0.348
-185.114	324.356	-0.083	0.158
-184.100	-200.000	-0.009	0.225
-183.085	-78.603	0.361	0.123
-182.071	727.016	0.022	-0.060
-181.056	-96.737	-0.255	-0.067
-180.042	-200.000	0.005	-0.204
-179.027	-145.660	0.294	-0.026
-178.012	-126.957	0.097	0.014
-176.998	-70.672	0.292	-0.110
-175.983	202.689	0.044	0.067
-174.969	-200.000	0.019	0.132
-173.954	378.218	0.149	0.304
-172.939	436.265	-0.069	0.149
-171.925	-146.203	0.190	-0.017
-170.910	433.054	-0.073	-0.159
-169.896	457.640	0.186	-0.411
-168.881	280.998	0.185	-0.331
-167.866	-70.499	0.191	0.072
-166.852	70.177	0.197	0.203
-165.837	-130.023	-0.178	-0.024
-164.823	-200.000	0.003	-0.014
-163.808	-32.160	-0.151	0.084
-162.793	-200.000	-0.007	-0.183
-161.779	-97.733	-0.191	0.049
-160.764	650.678	-0.024	-0.062
-159.750	111.050	0.014	-0.017
-158.735	800.000	0.108	-0.344
-157.720	-55.834	0.103	0.046
-156.706	-200.000	-0.023	0.181
-155.691	226.871	-0.143	-0.231
-154.677	77.591	-0.118	0.126
-153.662	170.531	0.017	-0.024
-152.647	133.516	0.061	-0.079
-151.633	800.000	-0.126	-0.480
-150.618	126.687	0.150	-0.190
-149.604	-200.000	0.031	-0.310
-148.589	56.800	0.087	0.084
-147.574	-200.000	-0.017	-0.151
-146.560	-177.980	-0.304	0.007
-145.545	-124.525	0.082	-0.013
-144.531	614.453	-0.102	0.255
-143.516	800.000	0.032	-0.133
-142.502	-200.000	-0.031	0.254
-141.487	54.285	-0.068	0.065
-140.472	800.000	-0.040	0.142
-139.458	-92.924	-0.082	0.023
-138.443	-77.707	-0.286	-0.099
-137.429	-200.000	0.028	-0.140
-136.414	-200.000	0.022	0.104
-135.399	158.163	0.147	-0.203
-134.385	763.720	-0.076	0.206
-133.370	800.000	0.059	0.228
-132.356	70.492	-0.163	0.168
-131.341	682.793	0.053	-0.139
-130.326	-35.961	0.245	0.132
-129.312	800.000	0.086	0.321
-128.297	196.975	-0.105	0.160
-127.283	-200.000	-0.012	-0.224
-126.268	-200.000	-0.328	-0.001
-125.253	-107.881	0.122	0.026
-124.239	-30.986	0.310	0.174
-123.224	-141.015	0.164	0.017
-122.210	800.000	-0.065	-0.250
-121.195	241.227	-0.151	0.251
-120.180	-155.975	-0.262	-0.017
-119.166	-151.140	-0.265	-0.020
-118.151	360.269	-0.072	0.144
-117.137	-200.000	-0.004	0.163
-116.122	111.636	0.142	0.170
-115.107	114.973	0.182	0.221
-114.093	281.174	-0.088	0.157
-113.078	200.764	0.107	-0.164
-112.064	-52.182	-0.164	0.076
-111.049	-200.000	-0.009	0.288
-110.034	98.988	-0.081	0.093
-109.020	-51.213	-0.089	-0.042
-108.005	147.370	0.309	-0.414
-106.991	85.140	0.083	0.090
-105.976	37.429	-0.116	0.102
-104.962	30.543	-0.170	0.145
-103.947	-97.693	-0.330	-0.085
-102.932	-118.243	0.282	-0.050
-101.918	-200.000	0.034	0.321
-100.903	-138.200	0.215	-0.024
-99.889	-85.451	-0.360	0.112
-98.874	141.245	-0.159	0.209
-97.859	-94.700	0.150	0.041
-96.845	155.678	0.188	-0.258
-95.830	252.475	-0.057	0.096
-94.816	800.000	0.080	-0.280
-93.801	-98.063	0.264	0.068
-92.786	-127.675	0.183	-0.026
-91.772	-182.582	-0.338	-0.006
-90.757	-144.299	0.238	0.022
-89.743	246.202	0.113	0.190
-88.728	-117.383	0.348	-0.063
-87.713	29.957	-0.212	0.179
-86.699	5.547	-0.154	-0.113
-85.684	233.250	-0.134	-0.218
-84.670	96.598	-0.064	-0.073
-83.655	-200.000	0.005	0.051
-82.640	304.744	-0.127	0.235
-81.626	-200.000	-0.050	-0.247
-80.611	-7.828	0.147	-0.098
-79.597	6.292	-0.050	-0.037
-78.582	800.000	-0.026	0.108
-77.567	201.556	0.194	-0.297
-76.553	800.000	0.091	0.361
-75.538	-66.692	-0.237	-0.093
-74.524	76.453	0.083	0.088
-73.509	-200.000	-0.074	0.372
-72.494	-200.000	-0.029	0.162
-71.480	-116.539	-0.174	-0.032
-70.465	-18.170	-0.331	-0.206
-69.451	-200.000	-0.004	-0.085
-68.436	-109.878	-0.286	-0.060
-67.422	-200.000	-0.021	0.311
-66.407	-167.555	0.149	0.006
-65.392	800.000	0.090	0.283
-64.378	-118.902	0.128	-0.022
-63.363	73.663	-0.177	-0.185
-62.349	-182.244	-0.142	0.003
-61.334	162.947	-0.707	-0.987
-60.319	102.174	0.332	0.385
-59.305	800.000	-0.175	-0.659
-58.290	33.557	0.754	0.651
-57.276	800.000	0.453	1.946
-56.261	-200.000	85.501	502.810
-55.246	548.770	1376.717	3276.065
-54.232	180.105	2628.448	3827.595
-53.217	118.961	2255.872	2769.374
-52.203	48.593	1701.686	1583.900
-51.188	41.000	1430.807	1282.985
-50.173	37.820	1386.207	1223.027
-49.159	56.619	1427.643	1379.485
-48.144	61.245	1446.692	1427.239
-47.130	41.410	1405.344	1262.551
-46.115	37.750	1388.337	1224.277
-45.100	37.586	1383.087	1218.572
-44.086	37.464	1380.818	1215.761
-43.071	37.471	1378.696	1213.886
-42.057	37.376	1376.507	1211.318
-41.042	37.430	1374.608	1209.937
-40.027	37.521	1373.075	1209.107
-39.013	37.486	1371.358	1207.324
-37.998	37.520	1369.488	1205.846
-36.984	37.617	1367.790	1204.898
-35.969	37.687	1365.461	1203.236
-34.954	37.700	1363.513	1201.551
-33.940	37.674	1362.137	1200.132
-32.925	37.788	1360.780	1199.588
-31.911	37.766	1359.216	1198.029
-30.896	37.682	1358.293	1196.650
-29.881	37.776	1356.806	1195.868
-28.867	37.744	1354.973	1194.009
-27.852	37.680	1353.783	1192.524
-26.838	37.700	1352.254	1191.248
-25.823	37.706	1350.880	1190.028
-24.809	37.759	1349.066	1188.706
-23.794	37.535	1348.138	1186.475
-22.779	37.716	1346.436	1186.031
-21.765	37.811	1345.211	1185.487
-20.750	37.727	1344.080	1183.929
-19.736	37.550	1342.720	1181.611
-18.721	37.641	1340.826	1180.447
-17.706	37.518	1340.149	1179.059
-16.692	37.590	1338.478	1177.980
-15.677	37.615	1337.610	1177.321
-14.663	37.499	1336.555	1175.643
-13.648	37.576	1335.060	1174.747
-12.633	37.541	1334.123	1173.664
-11.619	37.590	1333.154	1173.064
-10.604	37.634	1332.548	1172.749
-9.590	37.467	1331.752	1170.993
-8.575	37.632	1330.064	1170.459
-7.560	37.557	1329.321	1169.304
-6.546	37.478	1328.717	1168.252
-5.531	37.536	1327.526	1167.505
-4.517	37.492	1326.857	1166.608
-3.502	37.651	1325.493	1166.313
-2.487	37.533	1324.992	1165.120
-1.473	37.594	1320.694	1161.658
-0.458	36.379	1305.666	1141.220
0.556	30.267	1285.836	1098.478
1.571	26.309	1289.761	1078.172
2.586	24.921	1305.783	1083.080
3.600	23.963	1294.973	1068.274
4.615	17.085	1217.102	964.987
5.629	5.618	1132.392	836.774
6.644	0.026	1107.928	789.333
7.659	-0.468	1105.421	784.891
8.673	-0.563	1103.713	783.108
9.688	-0.544	1102.022	781.943
10.702	-0.174	1100.699	782.863
11.717	6.144	1111.195	823.431
12.731	15.404	1123.889	881.624
13.746	17.045	1125.007	891.045
14.761	15.415	1122.199	880.200
15.775	14.926	1120.692	876.377
16.790	14.592	1120.106	874.093
17.804	14.522	1119.050	872.823
18.819	14.424	1118.809	872.050
19.834	14.509	1117.863	871.679
20.848	14.343	1117.843	870.715
21.863	14.361	1116.662	869.813
22.877	14.370	1115.817	869.123
23.892	14.278	1115.242	868.120
24.907	14.353	1114.436	867.809
25.921	14.353	1112.970	866.587
26.936	14.411	1111.751	865.864
27.950	14.403	1110.232	864.563
28.965	14.228	1108.190	861.989
29.980	14.381	1106.326	861.254
30.994	14.490	1105.157	860.833
32.009	14.480	1103.465	859.389
33.023	14.224	1102.543	857.272
34.038	14.387	1101.692	857.374
35.053	14.488	1100.816	857.140
36.067	14.436	1099.922	856.099
37.082	14.436	1098.774	855.128
38.096	14.562	1098.613	855.574
39.111	14.649	1097.059	854.734
40.126	14.502	1095.754	852.890
41.140	14.376	1094.008	850.811
42.155	14.237	1092.679	848.996
43.169	14.322	1091.651	848.555
44.184	14.299	1090.348	847.350
45.199	14.197	1089.394	846.016
46.213	14.180	1088.004	844.772
47.228	14.152	1087.126	843.874
48.242	14.143	1085.879	842.786
49.257	14.242	1085.032	842.557
50.271	14.401	1083.554	842.135
51.286	14.338	1082.745	841.117
52.301	14.319	1082.084	840.431
53.315	14.223	1080.847	838.915
54.330	14.340	1079.773	838.595
55.344	14.361	1078.824	837.889
56.359	14.377	1077.368	836.764
57.374	14.270	1076.699	835.633
58.388	14.389	1075.679	835.367
59.403	14.261	1074.821	833.981
60.417	14.256	1073.727	833.035
61.432	14.322	1073.008	832.732
62.447	14.199	1072.728	831.829
63.461	14.452	1071.232	831.856
64.476	14.339	1070.747	830.841
65.490	14.357	1069.324	829.756
66.505	14.280	1068.823	828.909
67.520	14.354	1067.919	828.506
68.534	14.202	1067.367	827.245
69.549	14.077	1066.117	825.581
70.563	14.325	1064.784	825.709
71.578	14.250	1064.712	825.208
72.593	14.186	1063.531	823.903
73.607	14.289	1062.843	823.805
74.622	14.424	1062.126	823.847
75.636	14.282	1061.778	822.798
76.651	14.135	1061.064	821.446
77.666	14.208	1059.406	820.452
78.680	14.289	1058.898	820.384
79.695	14.380	1058.355	820.340
80.709	14.370	1057.928	819.885
81.724	14.264	1057.087	818.641
82.739	14.287	1056.093	817.913
83.753	14.400	1055.109	817.634
84.768	14.577	1053.808	817.419
85.782	14.386	1053.171	815.917
86.797	14.435	1052.029	815.199
87.812	14.267	1050.834	813.380
88.826	14.476	1049.486	813.287
89.841	14.418	1048.714	812.331
90.855	14.451	1047.870	811.770
91.870	14.256	1046.924	810.014
92.884	14.466	1045.388	809.774
93.899	14.479	1044.354	808.963
94.914	14.495	1043.855	808.586
95.928	14.282	1043.202	806.974
96.943	14.294	1041.571	805.702
97.957	14.097	1040.664	803.976
98.972	14.037	1039.494	802.709
99.987	14.241	1038.475	802.839
101.001	14.345	1037.792	802.739
102.016	14.415	1036.743	802.191
103.030	14.187	1036.142	800.561
104.045	14.000	1035.009	798.714
105.060	13.967	1034.037	797.734
106.074	14.154	1033.223	797.936
107.089	14.558	1032.194	799.007
108.103	14.415	1031.667	797.839
109.118	14.344	1030.271	796.349
110.133	14.372	1030.035	796.231
111.147	14.294	1028.629	794.703
112.162	14.251	1027.284	793.391
113.176	14.368	1026.150	792.998
114.191	14.496	1024.939	792.600
115.206	14.131	1024.187	790.217
116.220	14.227	1023.942	790.413
117.235	14.310	1022.192	789.388
118.249	14.479	1021.575	789.643
119.264	14.268	1020.885	788.036
120.279	14.215	1020.116	787.125
121.293	14.305	1019.210	786.783
122.308	14.404	1018.321	786.494
123.322	14.398	1016.816	785.232
124.337	14.281	1015.402	783.519
125.352	13.963	1013.666	780.618
126.366	13.685	1012.486	778.334
127.381	14.251	1011.783	780.380
128.395	14.472	1010.937	780.695
129.410	14.545	1009.678	779.995
130.424	14.327	1009.206	778.539
131.439	14.448	1007.640	777.830
132.454	14.528	1006.699	777.405
133.468	14.452	1005.837	776.317
134.483	14.489	1005.047	775.810
135.497	14.587	1004.347	775.660
136.512	14.590	1003.422	774.889
137.527	14.534	1002.276	773.675
138.541	14.581	1001.694	773.376
139.556	14.686	1000.343	772.749
140.570	14.470	1000.143	771.531
141.585	14.469	998.972	770.551
142.600	14.571	997.450	769.782
143.614	14.545	997.081	769.306
144.629	14.664	996.012	768.964
145.643	14.596	994.466	767.387
146.658	14.548	993.587	766.423
147.673	14.690	992.370	766.070
148.687	14.493	991.892	764.729
149.702	14.435	991.109	763.789
150.716	14.439	989.851	762.769
151.731	14.641	989.012	762.982
152.746	14.705	988.783	763.030
153.760	14.715	988.199	762.554
154.775	14.697	987.299	761.710
155.789	14.662	986.526	760.889
156.804	14.696	985.567	760.238
157.819	14.733	984.672	759.647
158.833	14.621	984.347	758.821
159.848	14.675	982.746	757.762
160.862	14.763	981.716	757.304
161.877	14.615	981.166	756.138
162.892	14.728	980.092	755.756
163.906	14.751	978.893	754.869
164.921	14.649	977.633	753.370
165.935	14.782	976.435	752.979
166.950	14.575	975.668	751.389
167.964	14.737	974.364	751.049
168.979	14.640	973.713	750.046
169.994	14.698	972.516	749.316
171.008	14.776	971.822	749.064
172.023	14.652	970.819	747.669
173.037	14.379	970.029	745.772
174.052	14.457	968.976	745.246
175.067	14.482	968.497	744.923
176.081	14.721	967.592	745.229
177.096	14.668	967.300	744.701
178.110	14.602	966.254	743.535
179.125	14.581	965.506	742.801
180.140	14.512	965.191	742.187
181.154	14.484	964.463	741.434
182.169	14.638	964.139	741.804
183.183	14.715	963.635	741.693
184.198	14.751	962.252	740.722
185.213	14.690	961.798	740.039
186.227	14.823	960.818	739.808
187.242	14.839	959.753	738.993
188.256	14.717	959.550	738.234
189.271	14.748	959.056	737.924
190.286	14.668	957.566	736.360
191.300	14.497	956.775	734.931
192.315	14.094	955.640	732.219
193.329	14.102	954.980	731.685
194.344	14.421	955.156	733.157
195.359	14.600	954.634	733.482
196.373	14.821	953.112	733.216
197.388	14.480	952.669	731.316
198.402	14.539	952.113	731.083
199.417	14.466	951.351	730.114
200.432	14.287	950.432	728.559
201.446	14.108	949.594	727.072
202.461	14.291	948.781	727.181
203.475	13.841	947.944	724.513
204.490	13.525	946.957	722.317
205.504	14.062	946.741	724.430
206.519	14.437	946.092	725.502
207.534	14.421	945.740	725.095
208.548	14.680	945.427	725.918
209.563	14.561	944.338	724.502
210.577	14.584	943.516	723.907
211.592	14.628	943.320	723.884
212.607	14.649	941.833	722.767
213.621	14.764	941.565	722.998
214.636	14.700	940.967	722.199
215.650	14.781	940.053	721.782
216.665	14.900	938.895	721.342
217.680	14.799	938.226	720.330
218.694	14.647	936.848	718.555
219.709	14.546	936.415	717.723
220.723	14.619	936.158	717.778
221.738	14.804	935.525	718.024
222.753	14.791	934.257	716.929
223.767	14.679	934.096	716.262
224.782	14.896	933.398	716.595
225.796	14.966	932.300	715.985
226.811	14.621	931.030	713.473
227.826	14.220	930.515	711.301
228.840	14.279	930.186	711.241
229.855	14.423	928.739	710.686
230.869	14.170	927.656	708.714
231.884	14.363	927.619	709.448
232.899	14.862	927.092	711.104
233.913	14.933	926.071	710.560
234.928	14.902	925.691	710.074
235.942	14.917	924.976	709.525
236.957	14.809	923.938	708.209
237.972	14.842	923.470	707.929
238.986	14.860	922.714	707.360
240.001	14.711	922.648	706.616
241.015	14.842	921.492	706.226
242.030	15.058	920.526	706.332
243.045	14.992	920.294	705.814
244.059	15.048	919.334	705.250
245.074	14.976	918.035	703.888
246.088	14.699	916.995	701.865
247.103	14.692	916.527	701.416
248.117	15.018	916.476	702.682
249.132	14.975	915.672	701.825
250.147	15.056	914.664	701.330
251.161	15.115	914.324	701.255
252.176	15.047	913.281	700.105
253.190	15.241	912.420	700.195
254.205	15.411	911.756	700.335
255.220	15.357	911.488	699.842
256.234	15.138	910.924	698.433
257.249	15.229	909.558	697.703
258.263	15.271	908.853	697.272
259.278	15.259	908.699	697.044
260.293	15.297	907.818	696.465
261.307	15.215	906.829	695.306
262.322	15.163	905.988	694.381
263.336	14.635	904.193	690.759
264.351	14.071	902.935	687.405
265.366	14.271	901.894	687.378
266.380	14.655	902.425	689.312
267.395	14.962	902.025	690.212
268.409	14.995	901.070	689.555
269.424	15.122	900.464	689.552
270.439	15.244	899.611	689.339
271.453	15.399	899.026	689.468
272.468	15.422	898.791	689.321
273.482	15.329	898.135	688.377
274.497	15.187	896.708	686.637
275.512	14.934	895.976	684.981
276.526	15.120	895.820	685.565
277.541	15.330	895.097	685.809
278.555	15.011	894.381	683.897
279.570	14.877	893.487	682.604
280.585	15.208	892.447	683.099
281.599	15.208	891.709	682.474
282.614	14.853	890.900	680.347
283.628	15.026	890.051	680.345
284.643	15.206	889.954	680.940
285.657	14.970	889.117	679.282
286.672	14.716	888.063	677.387
287.687	15.032	887.528	678.199
288.701	15.016	887.151	677.788
289.716	14.845	886.637	676.641
290.730	14.900	885.589	676.006
291.745	14.859	884.226	674.739
292.760	15.022	884.220	675.333
293.774	15.377	884.385	676.832
294.789	15.477	883.729	676.671
295.803	15.595	883.028	676.551
296.818	15.703	882.246	676.327
297.833	15.492	881.365	674.744
298.847	15.345	880.568	673.485
299.862	15.592	879.989	673.972
300.876	15.588	879.654	673.639
301.891	15.589	878.414	672.634
302.906	15.249	877.916	670.833
303.920	15.291	877.534	670.650
304.935	15.521	876.973	671.079
305.949	15.447	876.071	670.036
306.964	15.562	875.089	669.682
307.979	15.497	875.172	669.430
308.993	15.766	874.468	669.904
310.008	15.787	873.460	669.156
311.022	15.568	873.198	668.022
312.037	15.577	872.736	667.648
313.052	15.579	871.858	666.924
314.066	15.068	871.227	664.354
315.081	14.920	870.005	662.779
316.095	15.414	870.168	664.800
317.110	15.751	869.369	665.465
318.125	15.277	868.707	663.024
319.139	14.719	867.715	660.005
320.154	14.954	867.149	660.443
321.168	15.299	866.686	661.394
322.183	15.594	866.712	662.519
323.197	15.652	866.241	662.329
324.212	15.884	865.641	662.725
325.227	15.809	865.428	662.209
326.241	15.921	864.360	661.772
327.256	15.878	863.899	661.193
328.270	15.874	862.868	660.328
329.285	15.638	862.239	658.862
330.300	15.708	861.917	658.835
331.314	15.638	861.506	658.188
332.329	15.733	860.894	658.033
333.343	15.703	860.612	657.642
334.358	15.873	859.909	657.710
335.373	15.894	859.579	657.481
336.387	15.950	859.425	657.524
337.402	15.900	858.587	656.632
338.416	15.825	858.173	655.963
339.431	15.832	858.024	655.818
340.446	15.902	857.235	655.429
341.460	15.836	856.857	654.827
342.475	15.698	856.575	654.017
343.489	15.719	856.048	653.638
344.504	15.912	855.579	653.971
345.519	15.860	855.305	653.502
346.533	16.066	854.141	653.353
347.548	16.110	854.201	653.513
348.562	16.062	853.597	652.807
349.577	16.150	852.870	652.532
350.592	16.110	852.340	651.916
351.606	16.088	851.684	651.270
352.621	16.104	851.073	650.808
353.635	16.189	849.961	650.225
354.650	15.927	848.888	648.340
355.665	15.284	848.017	645.142
356.679	15.463	847.244	645.187
357.694	15.619	847.107	645.626
358.708	15.713	846.340	645.346
359.723	16.073	846.015	646.419
360.738	16.287	845.452	646.753
361.752	16.042	844.997	645.407
362.767	16.262	844.584	645.878
363.781	16.315	843.630	645.293
364.796	16.332	843.145	644.932
365.810	16.338	842.793	644.627
366.825	16.572	842.306	645.090
367.840	16.283	841.675	643.448
368.854	15.979	841.369	641.999
369.869	16.048	840.808	641.777
370.883	16.181	840.271	641.817
371.898	15.787	840.253	640.249
372.913	16.028	839.575	640.589
373.927	16.175	839.079	640.713
374.942	16.256	838.505	640.526
375.956	16.275	837.929	640.102
376.971	16.392	837.609	640.245
377.986	16.359	837.054	639.637
379.000	16.356	836.536	639.176
380.015	16.225	835.953	638.176
381.029	16.371	835.510	638.332
382.044	16.362	834.670	637.601
383.059	16.307	834.028	636.846
384.073	16.296	833.799	636.576
385.088	16.525	833.264	636.974
386.102	16.434	832.856	636.262
387.117	16.558	831.916	635.953
388.132	16.460	830.867	634.729
389.146	16.035	830.461	632.765
390.161	16.160	829.787	632.665
391.175	16.189	829.359	632.393
392.190	16.088	828.821	631.548
393.205	15.771	827.667	629.427
394.219	15.279	827.220	627.191
395.234	15.467	826.903	627.596
396.248	15.966	827.010	629.487
397.263	16.364	827.274	631.119
398.278	16.569	826.773	631.447
399.292	16.650	826.054	631.146
400.307	16.577	825.762	630.593
401.321	16.660	824.967	630.238
402.336	16.696	824.789	630.181
403.350	16.819	823.878	629.886
404.365	16.611	823.686	628.912
405.380	16.699	823.252	628.853
406.394	16.921	822.467	629.020
407.409	16.829	821.959	628.235
408.423	16.649	821.962	627.513
409.438	16.898	821.465	628.002
410.453	16.848	820.879	627.311
411.467	16.877	820.350	626.963
412.482	16.997	819.928	627.025
413.496	17.062	819.453	626.848
414.511	17.063	819.099	626.526
415.526	16.928	818.585	625.578
416.540	16.798	817.911	624.527
417.555	16.834	817.129	624.009
418.569	16.692	817.175	623.467
419.584	16.771	816.224	622.975
420.599	16.377	816.373	621.584
421.613	150.641	1358.555	1780.198
422.628	131.169	1437.575	1780.298
