DTS Sentinel unit serial number:	SN413079Multiplexer serial number:	ORYXHardware model number:	OX4-SRSoftware version number:	ORYX F/W v4.00 Oryx Data Collector v3.7.2.0data status	okinstallation	princeton_trtdifferential loss correction	single-endedforward channel	channel 1reverse channel	N/Adate	2019/09/19time	02:54:35forward acquisition time	60.00reverse acquisition time	0.00gamma	496.2192k internal	0.2344k external	0.2344temperature offset calibration	1.0018default loss term (dB/km)	0.3790temperature slope calibration	1.0000multiplexer offset coefficient	1.0000multiplexer slope coefficient	1.0000fibre end	0.00T internal ref (°C)	20.87T ext. ref 1 (°C)	0.65T ext. ref 2 (°C)	14.69length (m)	temperature (°C)	Stokes	anti-Stokes-747.200	228.202	-0.076	-0.125
-746.185	59.090	-0.041	0.040
-745.171	-68.381	0.283	0.110
-744.156	800.000	0.055	-0.158
-743.142	-90.860	-0.293	0.084
-742.127	-102.169	0.135	-0.033
-741.112	-200.000	-0.036	0.312
-740.098	-158.705	-0.348	-0.020
-739.083	-157.803	-0.209	0.012
-738.069	-46.752	0.018	-0.009
-737.054	-183.598	0.288	0.005
-736.039	-48.108	-0.230	0.111
-735.025	-53.369	0.381	0.175
-734.010	304.612	-0.130	-0.242
-732.996	277.605	0.035	-0.062
-731.981	800.000	-0.112	0.314
-730.966	800.000	0.040	0.160
-729.952	-200.000	-0.010	-0.331
-728.937	124.949	0.094	-0.118
-727.923	-200.000	-0.029	-0.229
-726.908	-92.420	0.137	0.039
-725.894	-64.345	-0.302	-0.123
-724.879	-125.874	0.191	0.029
-723.864	427.119	-0.145	0.314
-722.850	-132.242	0.215	0.028
-721.835	-80.670	0.158	-0.053
-720.821	-37.785	-0.030	-0.016
-719.806	-138.891	-0.175	-0.019
-718.791	-133.824	-0.274	0.034
-717.777	198.156	0.042	0.064
-716.762	-60.851	-0.132	-0.056
-715.748	317.805	-0.195	0.369
-714.733	74.898	0.078	0.082
-713.718	77.846	0.094	0.100
-712.704	-200.000	-0.021	0.149
-711.689	-40.050	0.170	-0.089
-710.675	800.000	0.062	-0.181
-709.660	88.570	0.200	-0.222
-708.645	785.751	-0.064	-0.174
-707.631	-200.000	0.003	0.072
-706.616	25.618	-0.273	-0.227
-705.602	592.554	0.016	-0.039
-704.587	-105.697	-0.101	-0.023
-703.572	80.693	-0.131	0.141
-702.558	199.677	0.184	0.282
-701.543	58.893	0.278	-0.273
-700.529	800.000	0.065	0.181
-699.514	665.255	-0.045	0.116
-698.499	-200.000	-0.024	0.270
-697.485	73.782	0.180	0.188
-696.470	-55.788	0.162	0.072
-695.456	-82.701	0.139	-0.045
-694.441	26.312	0.193	-0.161
-693.426	-200.000	-0.009	0.183
-692.412	-2.909	-0.116	-0.081
-691.397	800.000	0.035	0.111
-690.383	170.279	-0.245	0.350
-689.368	800.000	-0.038	0.142
-688.354	0.689	-0.126	-0.090
-687.339	-100.860	-0.068	-0.017
-686.324	90.184	-0.162	0.180
-685.310	3.636	0.096	0.070
-684.295	800.000	0.061	-0.209
-683.281	800.000	0.099	0.330
-682.266	-9.276	-0.173	-0.116
-681.251	-100.941	0.148	0.036
-680.237	-200.000	-0.036	-0.159
-679.222	237.439	-0.056	0.092
-678.208	140.017	0.041	0.054
-677.193	-12.903	0.203	0.132
-676.178	483.229	0.112	-0.254
-675.164	177.722	-0.165	0.241
-674.149	102.595	-0.197	0.230
-673.135	-65.365	0.322	0.129
-672.120	20.733	-0.078	-0.063
-671.105	141.680	-0.036	0.047
-670.091	228.783	-0.118	0.192
-669.076	13.843	-0.431	-0.334
-668.062	-200.000	0.050	0.227
-667.047	474.899	0.122	-0.276
-666.032	-107.656	-0.256	0.056
-665.018	-66.949	0.204	0.080
-664.003	-72.377	0.129	0.048
-662.989	769.765	0.129	0.351
-661.974	-26.114	-0.221	-0.129
-660.959	98.188	0.079	-0.091
-659.945	332.838	-0.123	-0.238
-658.930	158.191	0.258	0.357
-657.916	-68.767	-0.172	0.066
-656.901	168.911	0.078	-0.111
-655.886	-98.028	0.218	-0.056
-654.872	-93.007	-0.314	-0.087
-653.857	-44.095	0.071	-0.035
-652.843	-5.702	0.145	0.099
-651.828	-200.000	-0.185	-0.000
-650.814	-53.225	-0.147	-0.067
-649.799	-200.000	0.057	-0.299
-648.784	-200.000	0.005	-0.126
-647.770	-101.502	-0.180	-0.044
-646.755	49.458	-0.061	0.057
-645.741	-11.063	-0.218	-0.143
-644.726	94.297	0.026	0.030
-643.711	-90.953	0.126	0.036
-642.697	21.444	-0.211	0.171
-641.682	-200.000	0.005	-0.071
-640.668	26.039	0.156	-0.130
-639.653	-200.000	0.025	-0.274
-638.638	-200.000	-0.016	0.120
-637.624	123.497	-0.171	0.214
-636.609	83.418	0.199	0.216
-635.595	81.191	0.207	0.223
-634.580	-200.000	0.029	-0.147
-633.565	-200.000	0.028	-0.366
-632.551	-82.239	0.184	0.060
-631.536	-200.000	0.013	0.083
-630.522	23.611	0.259	-0.212
-629.507	-115.362	0.356	0.067
-628.492	800.000	0.074	0.268
-627.478	-200.000	-0.026	0.241
-626.463	74.049	-0.126	-0.132
-625.449	800.000	-0.069	0.230
-624.434	-73.027	-0.148	-0.054
-623.419	-55.566	-0.040	0.018
-622.405	256.571	0.102	-0.175
-621.390	800.000	-0.020	-0.065
-620.376	438.520	0.076	0.166
-619.361	59.477	-0.105	-0.103
-618.346	800.000	0.087	-0.240
-617.332	-86.231	0.194	0.059
-616.317	-94.366	-0.354	-0.096
-615.303	-132.867	0.131	-0.017
-614.288	54.713	0.143	-0.137
-613.273	193.466	-0.163	0.246
-612.259	-200.000	0.002	0.187
-611.244	-200.000	0.030	-0.151
-610.230	-108.894	-0.350	-0.074
-609.215	-200.000	0.040	-0.441
-608.201	290.324	-0.071	-0.128
-607.186	249.226	0.196	0.330
-606.171	-136.060	-0.295	-0.035
-605.157	261.484	0.211	-0.364
-604.142	-113.479	0.108	-0.021
-603.128	800.000	-0.079	0.259
-602.113	319.647	-0.106	-0.201
-601.098	-84.237	-0.120	-0.038
-600.084	134.267	0.249	-0.321
-599.069	-200.000	0.041	0.221
-598.055	-141.923	-0.167	0.017
-597.040	-65.193	0.150	0.060
-596.025	624.260	-0.139	0.349
-595.011	-59.163	-0.218	0.094
-593.996	91.260	0.123	0.138
-592.982	-200.000	0.025	0.112
-591.967	-0.539	0.273	-0.192
-590.952	-20.978	0.117	-0.071
-589.938	12.345	-0.287	0.220
-588.923	236.919	-0.224	0.369
-587.909	-139.548	-0.020	-0.002
-586.894	-118.854	0.165	-0.029
-585.879	-151.641	-0.307	0.023
-584.865	734.782	0.120	-0.320
-583.850	-200.000	0.033	-0.150
-582.836	-134.628	-0.187	-0.023
-581.821	148.872	0.250	0.336
-580.806	-179.026	-0.460	0.010
-579.792	518.965	0.098	0.229
-578.777	-145.304	0.282	0.025
-577.763	-10.011	-0.112	0.074
-576.748	-110.649	-0.102	0.021
-575.733	92.809	-0.042	-0.047
-574.719	51.404	0.203	-0.192
-573.704	-200.000	-0.020	-0.144
-572.690	73.501	0.105	-0.110
-571.675	-200.000	-0.003	-0.101
-570.661	-109.633	-0.010	0.002
-569.646	589.465	-0.109	0.266
-568.631	800.000	0.025	-0.100
-567.617	800.000	0.110	-0.344
-566.602	-68.540	-0.330	-0.127
-565.588	-127.107	0.020	-0.003
-564.573	-200.000	0.013	0.093
-563.558	-16.930	0.256	-0.161
-562.544	584.416	0.048	-0.116
-561.529	-43.316	-0.226	-0.113
-560.515	-200.000	-0.030	-0.209
-559.500	79.295	0.214	-0.228
-558.485	-73.565	-0.452	0.164
-557.471	252.229	-0.185	-0.313
-556.456	180.563	-0.046	-0.068
-555.442	-155.975	0.296	-0.019
-554.427	205.717	-0.097	0.150
-553.412	186.349	-0.097	-0.144
-552.398	-0.461	0.180	0.127
-551.383	-27.017	0.315	-0.182
-550.369	79.538	0.259	0.276
-549.354	-100.825	-0.196	0.048
-548.339	-200.000	0.486	0.002
-547.325	-77.156	-0.146	-0.051
-546.310	-67.556	-0.198	0.077
-545.296	-200.000	0.009	-0.038
-544.281	99.060	-0.072	0.082
-543.266	800.000	0.039	0.109
-542.252	-171.687	-0.310	0.010
-541.237	-50.005	-0.185	-0.087
-540.223	-126.310	-0.382	0.057
-539.208	51.080	0.379	-0.357
-538.193	-200.000	0.029	-0.137
-537.179	-51.397	0.102	0.047
-536.164	-200.000	-0.040	0.222
-535.150	97.319	0.049	0.056
-534.135	800.000	0.052	0.192
-533.121	-148.570	0.168	0.014
-532.106	159.339	0.215	-0.297
-531.091	-51.457	-0.182	-0.085
-530.077	800.000	-0.030	0.112
-529.062	183.902	0.057	-0.083
-528.048	-29.805	0.219	-0.124
-527.033	-120.493	0.363	-0.061
-526.018	-110.600	-0.110	-0.023
-525.004	-157.750	-0.218	-0.013
-523.989	-200.000	0.041	0.258
-522.975	-115.499	0.335	-0.063
-521.960	-82.163	0.235	0.076
-520.945	800.000	-0.043	0.135
-519.931	429.717	0.170	-0.366
-518.916	99.517	-0.125	-0.144
-517.902	-33.856	-0.214	0.117
-516.887	-120.520	-0.231	0.039
-515.872	3.028	0.050	0.036
-514.858	-73.603	-0.431	-0.156
-513.843	-200.000	-0.054	-0.377
-512.829	-28.003	0.138	-0.079
-511.814	-95.263	-0.346	-0.093
-510.799	-117.595	-0.290	0.052
-509.785	-174.192	-0.230	-0.007
-508.770	163.461	-0.088	-0.122
-507.756	800.000	-0.038	-0.154
-506.741	511.925	0.165	0.380
-505.726	49.532	-0.085	0.080
-504.712	5.576	-0.352	0.258
-503.697	-83.761	-0.190	0.060
-502.683	800.000	-0.078	0.256
-501.668	72.999	0.148	0.153
-500.653	139.189	-0.272	0.354
-499.639	-2.255	-0.175	0.122
-498.624	-44.227	0.012	-0.006
-497.610	718.284	0.011	0.029
-496.595	42.284	-0.244	0.220
-495.581	-200.000	-0.021	-0.302
-494.566	-136.671	-0.308	-0.035
-493.551	-40.019	0.289	-0.150
-492.537	-38.344	-0.213	-0.112
-491.522	-200.000	0.035	-0.186
-490.508	-115.830	-0.226	-0.042
-489.493	456.379	0.083	0.182
-488.478	522.702	-0.075	-0.175
-487.464	140.689	0.210	-0.275
-486.449	139.894	-0.211	-0.275
-485.435	79.041	0.291	0.309
-484.420	-54.570	0.190	0.085
-483.405	800.000	0.072	-0.257
-482.391	-129.745	-0.117	0.016
-481.376	84.518	-0.023	0.025
-480.362	-200.000	0.028	-0.372
-479.347	-112.609	-0.190	-0.038
-478.332	1.413	-0.046	0.033
-477.318	-93.576	-0.266	-0.073
-476.303	100.537	0.042	-0.048
-475.289	34.202	0.188	-0.163
-474.274	160.571	-0.068	-0.094
-473.259	-16.765	0.235	-0.147
-472.245	76.597	-0.237	0.248
-471.230	114.367	-0.066	0.080
-470.216	-200.000	-0.007	-0.180
-469.201	-200.000	0.004	-0.130
-468.186	315.658	-0.197	-0.368
-467.172	495.444	-0.011	0.025
-466.157	-200.000	-0.016	0.082
-465.143	136.282	-0.050	-0.065
-464.128	800.000	0.047	-0.189
-463.113	115.588	-0.019	-0.023
-462.099	-32.142	0.307	0.170
-461.084	-41.364	-0.209	-0.107
-460.070	82.711	0.356	0.383
-459.055	-164.040	-0.014	0.001
-458.040	-73.368	-0.292	0.106
-457.026	642.139	-0.170	-0.430
-456.011	278.510	-0.087	-0.153
-454.997	-143.744	-0.064	0.006
-453.982	246.360	-0.051	-0.085
-452.968	-131.436	-0.159	0.021
-451.953	-59.941	0.344	0.146
-450.938	800.000	0.070	-0.208
-449.924	282.417	-0.157	-0.279
-448.909	800.000	-0.084	0.289
-447.895	-107.738	0.385	0.083
-446.880	800.000	0.178	-0.530
-445.865	-20.169	-0.450	-0.275
-444.851	51.975	-0.211	0.199
-443.836	134.656	0.172	0.221
-442.822	-8.425	-0.210	0.140
-441.807	-200.000	-0.061	0.324
-440.792	518.890	-0.088	-0.203
-439.778	178.133	0.200	0.288
-438.763	-36.971	-0.129	0.068
-437.749	-200.000	-0.014	0.118
-436.734	-98.327	0.436	-0.111
-435.719	-200.000	-0.022	0.148
-434.705	-97.825	0.106	-0.027
-433.690	23.381	0.046	-0.037
-432.676	-12.641	0.096	0.062
-431.661	-200.000	-0.015	-0.252
-430.646	96.114	0.072	0.081
-429.632	-200.000	0.010	-0.305
-428.617	-147.258	-0.183	-0.015
-427.603	-28.212	-0.213	0.122
-426.588	-107.336	0.310	-0.067
-425.573	24.764	-0.286	0.234
-424.559	-139.457	-0.114	0.012
-423.544	-6.357	0.066	0.045
-422.530	138.277	0.128	0.166
-421.515	800.000	-0.042	0.157
-420.500	54.585	0.233	0.222
-419.486	-134.004	0.126	0.015
-418.471	229.096	-0.207	0.333
-417.457	800.000	-0.079	0.271
-416.442	-200.000	-0.001	-0.164
-415.428	-161.687	0.428	-0.022
-414.413	330.928	-0.084	-0.160
-413.398	-28.205	-0.313	0.179
-412.384	536.663	0.123	0.289
-411.369	-18.718	-0.398	0.245
-410.355	160.729	0.154	-0.212
-409.340	800.000	-0.080	-0.249
-408.325	-107.969	0.033	0.007
-407.311	-200.000	0.014	-0.080
-406.296	-105.925	-0.285	-0.063
-405.282	-68.240	0.349	-0.134
-404.267	-200.000	-0.037	0.285
-403.252	-200.000	0.035	0.229
-402.238	-88.143	-0.520	-0.154
-401.223	-146.110	0.175	-0.015
-400.209	121.733	-0.051	-0.063
-399.194	-35.053	-0.148	0.080
-398.179	-59.540	-0.076	-0.032
-397.165	800.000	-0.053	0.182
-396.150	77.825	0.235	0.248
-395.136	394.649	-0.101	0.207
-394.121	197.501	0.168	-0.254
-393.106	-200.000	0.022	0.195
-392.092	238.781	0.237	0.388
-391.077	-136.884	0.319	0.036
-390.063	-123.602	-0.254	-0.040
-389.048	764.406	0.063	0.169
-388.033	233.280	-0.055	-0.090
-387.019	29.857	0.065	-0.055
-386.004	-14.613	0.295	-0.187
-384.990	272.377	0.301	-0.523
-383.975	-22.287	0.107	-0.064
-382.960	-94.655	-0.189	-0.051
-381.946	60.656	0.297	0.291
-380.931	-200.000	0.033	0.633
-379.917	-200.000	0.027	0.196
-378.902	-99.823	-0.215	-0.053
-377.888	-33.178	0.393	0.215
-376.873	800.000	0.058	0.246
-375.858	67.921	-0.069	-0.069
-374.844	-200.000	0.049	0.217
-373.829	64.924	-0.080	0.080
-372.815	718.837	0.048	-0.126
-371.800	-72.257	0.260	0.095
-370.785	22.437	0.567	0.457
-369.771	-99.941	-0.270	-0.067
-368.756	800.000	0.040	0.132
-367.742	-200.000	0.029	-0.145
-366.727	300.857	0.125	-0.228
-365.712	-200.000	0.001	0.297
-364.698	-41.225	-0.142	0.072
-363.683	148.153	-0.143	-0.190
-362.669	-118.185	-0.327	-0.057
-361.654	800.000	0.051	-0.166
-360.639	-151.297	-0.025	-0.002
-359.625	306.271	0.049	0.090
-358.610	800.000	0.074	0.282
-357.596	232.540	0.099	0.160
-356.581	-75.659	0.184	0.064
-355.566	-200.000	-0.014	0.105
-354.552	403.996	-0.128	0.265
-353.537	800.000	0.044	-0.120
-352.523	99.596	0.228	0.260
-351.508	-15.498	0.217	0.137
-350.493	-200.000	-0.026	-0.185
-349.479	266.818	-0.250	-0.431
-348.464	86.811	-0.130	-0.141
-347.450	-200.000	0.021	0.147
-346.435	-68.559	-0.298	0.114
-345.420	800.000	0.014	0.051
-344.406	535.611	-0.015	-0.036
-343.391	-157.045	-0.086	-0.005
-342.377	-200.000	0.017	-0.239
-341.362	386.434	0.095	0.194
-340.348	333.703	-0.038	0.072
-339.333	50.112	0.078	-0.073
-338.318	-200.000	-0.006	-0.116
-337.304	800.000	0.033	0.140
-336.289	416.495	-0.026	-0.055
-335.275	-153.458	-0.295	-0.020
-334.260	353.808	0.031	-0.061
-333.245	109.354	-0.122	0.144
-332.231	126.080	0.126	0.156
-331.216	-16.923	0.088	0.055
-330.202	-200.000	0.036	0.165
-329.187	-68.504	-0.132	-0.050
-328.172	107.147	0.118	0.138
-327.158	46.503	-0.184	-0.168
-326.143	-143.282	-0.377	0.036
-325.129	439.115	-0.072	-0.155
-324.114	800.000	-0.031	0.105
-323.099	129.342	0.065	-0.081
-322.085	-166.740	0.246	-0.010
-321.070	74.879	-0.093	0.096
-320.056	-200.000	0.016	-0.226
-319.041	-200.000	0.041	0.499
-318.026	-67.300	-0.165	-0.064
-317.012	291.324	-0.132	-0.237
-315.997	-66.266	0.119	0.047
-314.983	-21.141	-0.345	0.208
-313.968	800.000	0.086	0.308
-312.953	233.861	-0.018	-0.030
-311.939	10.516	-0.121	-0.091
-310.924	217.482	0.066	-0.103
-309.910	-103.108	0.158	-0.037
-308.895	-84.205	0.274	0.086
-307.880	9.845	0.047	-0.035
-306.866	122.199	-0.169	0.207
-305.851	66.887	0.177	0.178
-304.837	-104.832	0.437	-0.099
-303.822	428.237	-0.041	-0.086
-302.807	-69.440	-0.435	-0.164
-301.793	800.000	0.047	0.151
-300.778	-200.000	-0.091	-0.447
-299.764	800.000	-0.063	-0.232
-298.749	99.944	-0.178	-0.202
-297.735	-69.974	0.305	-0.114
-296.720	800.000	-0.058	0.249
-295.705	2.493	-0.239	-0.170
-294.691	-200.000	0.009	-0.342
-293.676	583.458	-0.090	0.217
-292.662	-200.000	-0.001	0.060
-291.647	-186.076	0.272	-0.004
-290.632	135.322	-0.104	0.133
-289.618	-38.467	-0.182	-0.095
-288.603	158.202	-0.167	0.228
-287.589	136.034	0.069	0.088
-286.574	109.931	0.142	-0.168
-285.559	-55.532	0.174	-0.077
-284.545	78.920	-0.200	-0.210
-283.530	-18.552	-0.188	-0.115
-282.516	-63.737	0.396	0.159
-281.501	459.360	-0.115	-0.251
-280.486	800.000	-0.030	0.115
-279.472	-156.323	0.423	-0.026
-278.457	-10.461	-0.118	0.077
-277.443	-200.000	-0.012	0.274
-276.428	-67.773	0.180	0.069
-275.413	-200.000	-0.002	-0.122
-274.399	47.397	0.118	0.109
-273.384	-200.000	-0.022	0.256
-272.370	-200.000	-0.003	-0.189
-271.355	800.000	0.086	-0.313
-270.340	-144.987	-0.050	0.005
-269.326	510.594	-0.079	-0.180
-268.311	236.531	-0.186	-0.302
-267.297	-34.337	-0.255	0.137
-266.282	652.171	0.033	0.083
-265.267	-150.604	0.175	0.013
-264.253	-104.373	0.314	0.072
-263.238	10.122	0.204	0.153
-262.224	129.862	0.160	0.202
-261.209	55.895	0.081	0.077
-260.195	-200.000	0.054	-0.310
-259.180	72.740	-0.112	0.115
-258.165	800.000	0.030	-0.122
-257.151	-138.818	0.055	-0.006
-256.136	800.000	-0.063	0.229
-255.122	-7.241	-0.320	-0.213
-254.107	800.000	0.073	0.251
-253.092	48.084	-0.031	-0.029
-252.078	-47.751	0.049	0.023
-251.063	-5.557	-0.399	-0.269
-250.049	27.370	-0.264	0.218
-249.034	-13.826	-0.105	0.067
-248.019	617.359	-0.046	0.114
-247.005	-27.373	0.094	0.054
-245.990	-50.289	-0.481	0.223
-244.976	-200.000	-0.242	0.001
-243.961	-12.558	0.184	-0.118
-242.946	103.238	0.212	-0.244
-241.932	-200.000	0.019	0.088
-240.917	49.584	0.211	0.195
-239.903	51.107	-0.182	-0.169
-238.888	-200.000	-0.019	0.104
-237.873	-200.000	0.005	-0.196
-236.859	45.267	0.155	-0.140
-235.844	800.000	0.022	-0.067
-234.830	-200.000	0.018	-0.268
-233.815	800.000	-0.098	-0.270
-232.800	-45.473	0.098	0.047
-231.786	-119.569	0.034	0.006
-230.771	296.080	0.143	0.258
-229.757	-40.696	-0.479	0.243
-228.742	66.816	-0.135	-0.135
-227.727	-119.433	-0.449	-0.076
-226.713	800.000	0.013	0.047
-225.698	247.605	0.158	0.261
-224.684	-91.509	-0.134	-0.037
-223.669	-58.586	-0.045	-0.019
-222.655	72.970	-0.078	0.080
-221.640	126.390	-0.098	-0.121
-220.625	417.004	0.048	0.100
-219.611	288.841	-0.115	-0.205
-218.596	261.418	-0.137	0.233
-217.582	204.034	0.135	0.205
-216.567	10.642	-0.070	-0.053
-215.552	-65.318	0.164	-0.065
-214.538	-200.000	0.040	0.179
-213.523	-138.403	0.182	0.020
-212.509	-174.080	0.215	0.006
-211.494	-200.000	-0.017	0.168
-210.479	-121.720	0.135	0.022
-209.465	800.000	0.023	-0.066
-208.450	291.108	-0.041	-0.073
-207.436	800.000	0.023	-0.074
-206.421	65.117	0.182	0.180
-205.406	-40.817	0.038	-0.019
-204.392	800.000	-0.055	0.204
-203.377	241.917	-0.055	0.090
-202.363	-73.279	0.061	-0.022
-201.348	800.000	-0.027	0.073
-200.333	-200.000	-0.068	-0.402
-199.319	-73.773	0.083	0.029
-198.304	82.830	0.245	0.261
-197.290	12.925	0.267	0.203
-196.275	43.766	0.147	0.131
-195.260	-109.844	0.194	-0.040
-194.246	34.776	0.146	-0.125
-193.231	-103.934	0.167	0.038
-192.217	-119.375	-0.332	-0.057
-191.202	-120.116	0.310	0.052
-190.187	37.296	0.127	-0.110
-189.173	-126.480	0.372	0.054
-188.158	-180.396	-0.230	0.005
-187.144	-122.245	-0.078	-0.012
-186.129	-152.073	-0.151	-0.011
-185.114	58.223	0.037	-0.035
-184.100	-80.455	0.363	0.118
-183.085	-17.761	0.210	0.129
-182.071	30.140	-0.092	-0.077
-181.056	167.274	0.322	0.448
-180.042	-200.000	0.070	-0.414
-179.027	201.993	0.069	0.104
-178.012	-200.000	-0.018	-0.130
-176.998	800.000	0.081	-0.313
-175.983	-125.491	0.083	0.012
-174.969	-200.000	0.013	-0.184
-173.954	-200.000	-0.047	-0.272
-172.939	30.547	0.136	0.114
-171.925	-104.268	-0.143	-0.032
-170.910	-200.000	-0.030	-0.212
-169.896	-4.859	-0.143	-0.096
-168.881	-119.538	-0.048	0.008
-167.866	-24.620	0.084	-0.049
-166.852	-200.000	0.005	0.125
-165.837	-6.467	0.248	-0.165
-164.823	-57.564	-0.235	0.101
-163.808	-130.522	0.339	0.045
-162.793	3.944	-0.142	0.102
-161.779	-78.922	0.010	-0.003
-160.764	-200.000	-0.003	-0.350
-159.750	440.026	0.047	-0.101
-158.735	-49.783	0.227	-0.105
-157.720	-200.000	0.041	-0.373
-156.706	-11.638	-0.039	-0.025
-155.691	278.767	0.037	0.064
-154.677	51.427	-0.205	-0.190
-153.662	181.092	0.072	0.104
-152.647	340.985	-0.148	0.283
-151.633	-200.000	0.011	-0.078
-150.618	179.682	-0.112	0.160
-149.604	-93.746	0.235	0.063
-148.589	-200.000	0.033	0.186
-147.574	-163.361	-0.125	-0.006
-146.560	123.300	-0.118	0.144
-145.545	-151.817	0.134	0.010
-144.531	109.876	0.182	-0.214
-143.516	-200.000	0.033	0.217
-142.502	-200.000	0.017	0.158
-141.487	800.000	0.043	-0.126
-140.472	-200.000	0.024	0.417
-139.458	145.391	0.127	-0.166
-138.443	-118.815	-0.303	0.052
-137.429	800.000	0.030	0.118
-136.414	290.332	-0.086	0.152
-135.399	-200.000	0.009	0.233
-134.385	-33.751	0.149	0.080
-133.370	800.000	0.110	0.359
-132.356	-81.564	0.239	-0.077
-131.341	-200.000	0.031	0.189
-130.326	-12.334	-0.234	0.150
-129.312	-68.217	0.096	0.036
-128.297	-5.946	0.080	-0.054
-127.283	-161.687	-0.102	-0.005
-126.268	161.293	0.018	0.024
-125.253	-200.000	0.003	-0.154
-124.239	13.065	-0.110	0.083
-123.224	-200.000	0.005	-0.141
-122.210	-76.993	0.419	0.143
-121.195	247.215	0.180	0.296
-120.180	-97.790	0.394	-0.100
-119.166	-200.000	0.028	-0.196
-118.151	-85.138	0.065	0.020
-117.137	-104.741	0.024	0.005
-116.122	-14.355	0.179	-0.113
-115.107	27.519	-0.017	0.014
-114.093	468.233	-0.078	-0.172
-113.078	204.054	0.224	-0.339
-112.064	-129.557	-0.180	0.024
-111.049	216.762	-0.082	0.127
-110.034	-30.936	-0.248	0.137
-109.020	195.242	-0.036	-0.054
-108.005	115.402	-0.259	0.309
-106.991	14.726	-0.210	0.160
-105.976	46.051	-0.131	0.119
-104.962	800.000	0.068	0.273
-103.947	-200.000	0.045	-0.219
-102.932	-105.120	0.038	-0.009
-101.918	-200.000	0.029	-0.294
-100.903	-66.226	-0.278	0.108
-99.889	478.194	0.137	-0.302
-98.874	688.479	0.114	0.291
-97.859	47.954	-0.197	0.180
-96.845	334.780	0.056	0.105
-95.830	-41.140	0.223	0.113
-94.816	-8.482	0.218	0.143
-93.801	800.000	0.058	-0.243
-92.786	101.283	0.178	-0.202
-91.772	-200.000	-0.017	-0.252
-90.757	-179.251	-0.209	-0.005
-89.743	559.015	-0.094	0.222
-88.728	800.000	-0.092	0.288
-87.713	-101.857	0.055	-0.013
-86.699	-153.753	0.063	-0.004
-85.684	-200.000	-0.002	-0.015
-84.670	-61.458	0.339	-0.139
-83.655	800.000	0.043	0.147
-82.640	-1.616	0.140	0.096
-81.626	-67.887	0.201	-0.077
-80.611	519.285	0.135	-0.309
-79.597	-200.000	0.027	0.209
-78.582	494.573	-0.077	0.172
-77.567	-5.161	0.398	-0.267
-76.553	-124.436	-0.341	0.052
-75.538	146.865	-0.017	0.022
-74.524	-170.783	-0.374	-0.013
-73.509	124.631	0.145	0.178
-72.494	219.191	0.049	0.077
-71.480	303.732	-0.042	-0.076
-70.465	326.248	0.060	-0.113
-69.451	-129.806	-0.232	-0.031
-68.436	88.223	-0.172	-0.186
-67.422	-38.718	0.502	0.258
-66.407	54.283	0.031	0.029
-65.392	-32.732	0.193	-0.105
-64.378	-200.000	0.007	-0.145
-63.363	765.507	-0.113	0.299
-62.349	800.000	-0.117	0.446
-61.334	146.347	-0.893	-1.168
-60.319	109.524	0.784	0.916
-59.305	199.230	-0.819	-1.223
-58.290	218.693	0.946	1.473
-57.276	432.217	0.713	1.507
-56.261	-200.000	136.525	684.948
-55.246	338.381	1679.821	3185.654
-54.232	134.060	2803.360	3538.151
-53.217	87.568	2171.467	2342.194
-52.203	31.999	1602.956	1345.796
-51.188	24.171	1351.874	1087.384
-50.173	21.977	1315.905	1045.359
-49.159	49.735	1390.444	1276.297
-48.144	45.973	1398.731	1260.803
-47.130	24.305	1345.630	1083.000
-46.115	21.032	1327.384	1048.628
-45.100	20.886	1321.272	1042.884
-44.086	20.831	1319.124	1040.819
-43.071	20.625	1316.897	1037.796
-42.057	20.697	1314.971	1036.663
-41.042	20.738	1313.275	1035.530
-40.027	20.736	1311.634	1034.184
-39.013	20.822	1309.897	1033.282
-37.998	20.872	1307.959	1032.008
-36.984	20.813	1306.218	1030.247
-35.969	20.857	1304.812	1029.352
-34.954	20.839	1302.818	1027.633
-33.940	20.875	1301.839	1027.035
-32.925	20.975	1300.260	1026.337
-31.911	20.960	1298.871	1025.111
-30.896	20.943	1297.304	1023.734
-29.881	21.024	1295.870	1023.036
-28.867	20.956	1294.749	1021.714
-27.852	21.016	1293.533	1021.063
-26.838	21.044	1291.902	1019.902
-25.823	21.061	1290.529	1018.873
-24.809	20.888	1289.676	1017.150
-23.794	20.911	1288.206	1016.083
-22.779	20.896	1287.515	1015.413
-21.765	20.974	1285.457	1014.203
-20.750	20.989	1284.234	1013.285
-19.736	20.816	1283.233	1011.451
-18.721	20.823	1282.199	1010.637
-17.706	20.844	1280.614	1009.471
-16.692	20.799	1280.126	1008.785
-15.677	20.853	1278.614	1007.864
-14.663	20.889	1277.367	1007.052
-13.648	20.743	1276.769	1005.691
-12.633	20.818	1275.663	1005.218
-11.619	20.843	1274.721	1004.575
-10.604	20.796	1273.891	1003.615
-9.590	20.764	1273.070	1002.739
-8.575	20.769	1272.242	1002.078
-7.560	20.879	1270.943	1001.650
-6.546	20.819	1270.272	1000.733
-5.531	20.801	1269.585	1000.050
-4.517	20.804	1268.872	999.464
-3.502	20.857	1267.622	998.747
-2.487	20.810	1266.634	997.657
-1.473	20.791	1262.662	994.384
-0.458	19.147	1247.408	973.047
0.556	14.870	1231.808	936.655
1.571	11.246	1240.311	922.555
2.586	10.803	1255.641	931.341
3.600	10.944	1243.793	923.268
4.615	8.225	1171.646	855.083
5.629	3.121	1101.662	778.167
6.644	0.772	1086.044	755.341
7.659	0.611	1083.937	753.006
8.673	0.551	1083.497	752.336
9.688	0.656	1082.006	751.755
10.702	0.826	1078.934	750.397
11.717	3.892	1082.932	768.359
12.731	10.427	1091.092	806.700
13.746	15.557	1097.962	837.344
14.761	17.183	1099.959	846.906
15.775	16.388	1098.483	841.734
16.790	15.460	1096.399	835.448
17.804	14.895	1094.408	831.047
18.819	14.618	1093.312	828.768
19.834	14.334	1092.750	826.857
20.848	13.965	1092.062	824.434
21.863	13.737	1090.936	822.379
22.877	13.762	1090.110	821.809
23.892	13.631	1089.538	820.657
24.907	13.764	1088.177	820.218
25.921	13.798	1087.495	819.798
26.936	13.741	1087.032	819.093
27.950	13.771	1085.756	818.210
28.965	13.779	1085.151	817.719
29.980	13.805	1083.697	816.681
30.994	13.865	1082.819	816.239
32.009	13.982	1081.320	815.615
33.023	13.895	1080.614	814.581
34.038	13.819	1079.807	813.527
35.053	13.851	1078.377	812.535
36.067	13.818	1077.693	811.789
37.082	13.802	1076.968	811.091
38.096	13.825	1076.935	811.105
39.111	13.855	1075.392	810.021
40.126	13.849	1074.225	809.041
41.140	13.708	1073.224	807.525
42.155	13.756	1072.180	806.904
43.169	13.606	1071.366	805.489
44.184	13.688	1070.035	804.818
45.199	13.691	1068.915	803.916
46.213	13.707	1067.893	803.156
47.228	13.641	1067.153	802.211
48.242	13.740	1065.895	801.671
49.257	13.714	1064.726	800.593
50.271	13.816	1063.864	800.365
51.286	13.854	1062.936	799.784
52.301	13.791	1062.046	798.738
53.315	13.910	1060.977	798.435
54.330	13.660	1060.463	796.776
55.344	13.674	1059.307	795.904
56.359	13.672	1058.532	795.244
57.374	13.766	1057.389	794.762
58.388	13.643	1056.541	793.467
59.403	13.745	1055.729	793.274
60.417	13.583	1055.011	791.890
61.432	13.540	1054.242	791.040
62.447	13.598	1053.534	790.715
63.461	13.576	1052.557	789.806
64.476	13.524	1051.811	788.927
65.490	13.569	1050.617	788.179
66.505	13.563	1050.314	787.850
67.520	13.681	1049.142	787.466
68.534	13.747	1048.524	787.243
69.549	13.559	1048.011	785.896
70.563	13.585	1046.950	785.157
71.578	13.579	1046.198	784.493
72.593	13.605	1045.488	784.014
73.607	13.587	1044.687	783.261
74.622	13.618	1044.333	783.071
75.636	13.635	1043.271	782.286
76.651	13.515	1042.889	781.363
77.666	13.559	1042.374	781.116
78.680	13.675	1041.563	780.986
79.695	13.663	1041.132	780.535
80.709	13.504	1040.386	779.158
81.724	13.671	1039.287	779.052
82.739	13.599	1038.861	778.325
83.753	13.688	1037.891	777.947
84.768	13.794	1036.769	777.537
85.782	13.766	1036.061	776.806
86.797	13.748	1035.038	775.884
87.812	13.756	1034.229	775.247
88.826	13.707	1033.004	774.034
89.841	13.705	1032.210	773.361
90.855	13.873	1030.869	773.071
91.870	13.837	1030.373	772.460
92.884	13.853	1029.278	771.646
93.899	13.818	1028.754	771.021
94.914	13.941	1027.299	770.432
95.928	13.858	1026.810	769.615
96.943	13.880	1026.140	769.146
97.957	13.796	1025.440	768.166
98.972	13.776	1024.664	767.422
99.987	14.010	1023.374	767.467
101.001	13.756	1023.069	766.000
102.016	13.817	1021.989	765.403
103.030	13.879	1020.618	764.596
104.045	13.725	1019.964	763.330
105.060	13.785	1019.040	762.844
106.074	13.774	1018.615	762.412
107.089	13.710	1017.369	761.116
108.103	13.744	1016.497	760.554
109.118	13.725	1015.097	759.350
110.133	13.699	1014.549	758.755
111.147	13.891	1013.346	758.664
112.162	13.816	1012.935	757.949
113.176	13.910	1011.673	757.365
114.191	13.806	1011.397	756.616
115.206	13.798	1010.627	755.939
116.220	13.761	1009.680	754.993
117.235	13.873	1008.836	754.805
118.249	13.777	1008.084	753.741
119.264	13.854	1007.016	753.224
120.279	13.781	1006.442	752.397
121.293	13.726	1005.817	751.616
122.308	13.725	1005.042	750.965
123.322	13.658	1004.041	749.849
124.337	13.752	1002.631	749.150
125.352	13.630	1001.982	748.051
126.366	13.732	1000.658	747.456
127.381	13.773	999.523	746.728
128.395	13.809	998.557	746.099
129.410	13.787	997.422	745.089
130.424	13.711	996.920	744.305
131.439	13.881	995.944	744.274
132.454	13.809	995.266	743.379
133.468	13.751	994.282	742.319
134.483	13.793	993.900	742.156
135.497	13.879	992.251	741.243
136.512	13.742	991.869	740.279
137.527	13.769	990.948	739.647
138.541	13.724	990.643	739.155
139.556	13.912	989.232	738.871
140.570	13.984	988.509	738.588
141.585	13.898	987.883	737.671
142.600	14.045	986.730	737.395
143.614	14.089	985.703	736.760
144.629	14.037	985.148	736.049
145.643	13.955	984.333	735.014
146.658	14.043	983.244	734.524
147.673	14.025	981.858	733.345
148.687	13.947	981.666	732.791
149.702	13.955	980.769	732.090
150.716	13.940	979.869	731.289
151.731	13.920	979.087	730.554
152.746	14.064	978.268	730.511
153.760	14.061	977.348	729.746
154.775	14.098	977.076	729.641
155.789	14.174	976.143	729.210
156.804	14.075	975.564	728.280
157.819	14.185	975.009	728.282
158.833	14.093	974.764	727.633
159.848	14.236	972.940	726.830
160.862	14.110	972.760	726.084
161.877	14.075	971.765	725.121
162.892	14.023	970.541	723.920
163.906	14.078	969.542	723.351
164.921	14.163	968.649	722.990
165.935	14.323	967.591	722.832
166.950	14.169	967.058	721.700
167.964	14.074	966.405	720.737
168.979	14.159	965.426	720.310
169.994	14.235	963.931	719.461
171.008	14.181	963.435	718.792
172.023	14.183	962.987	718.404
173.037	14.209	962.436	718.043
174.052	14.258	961.372	717.397
175.067	14.166	961.057	716.701
176.081	14.154	960.506	716.174
177.096	14.202	959.928	715.887
178.110	14.366	958.973	715.813
179.125	14.242	958.681	715.000
180.140	14.277	958.004	714.582
181.154	14.341	957.567	714.469
182.169	14.425	956.926	714.287
183.183	14.347	956.491	713.565
184.198	14.225	955.659	712.361
185.213	14.457	954.430	712.371
186.227	14.289	954.338	711.522
187.242	14.463	953.650	711.692
188.256	14.479	953.260	711.403
189.271	14.443	952.106	710.327
190.286	14.412	951.041	709.338
191.300	14.307	950.716	708.584
192.315	14.245	949.825	707.594
193.329	14.342	949.059	707.372
194.344	14.389	948.906	707.396
195.359	14.386	948.205	706.798
196.373	14.529	947.706	706.971
197.388	14.463	947.182	706.238
198.402	14.594	946.897	706.516
199.417	14.499	946.101	705.459
200.432	14.558	945.237	705.003
201.446	14.586	945.042	704.909
202.461	14.631	944.364	704.531
203.475	14.690	943.639	704.178
204.490	14.722	942.566	703.450
205.504	14.666	941.956	702.696
206.519	14.665	941.482	702.276
207.534	14.754	940.471	701.833
208.548	14.721	940.352	701.547
209.563	14.712	939.559	700.853
210.577	14.729	938.742	700.256
211.592	14.693	938.318	699.725
212.607	14.763	937.465	699.318
213.621	14.755	936.302	698.357
214.636	14.742	935.741	697.821
215.650	14.924	934.823	697.836
216.665	14.784	934.385	696.865
217.680	14.847	933.727	696.572
218.694	14.966	932.785	696.304
219.709	14.915	932.704	695.971
220.723	14.917	931.910	695.326
221.738	14.909	930.917	694.488
222.753	14.804	930.384	693.592
223.767	15.010	929.691	693.871
224.782	14.951	929.069	693.099
225.796	14.921	928.964	692.836
226.811	14.959	927.922	692.154
227.826	14.941	926.984	691.321
228.840	14.867	926.431	690.538
229.855	15.025	925.311	690.295
230.869	15.020	924.899	689.907
231.884	15.024	923.761	689.014
232.899	14.914	923.542	688.337
233.913	15.004	922.813	688.102
234.928	15.001	922.060	687.469
235.942	14.999	921.526	686.999
236.957	15.143	920.798	686.988
237.972	15.073	919.995	686.042
238.986	15.078	919.258	685.449
240.001	15.035	918.906	684.950
241.015	15.165	918.059	684.790
242.030	15.142	917.602	684.295
243.045	15.154	916.987	683.824
244.059	15.210	916.470	683.607
245.074	15.121	916.034	682.859
246.088	15.242	915.207	682.674
247.103	15.228	914.528	682.053
248.117	15.212	914.088	681.600
249.132	15.337	913.524	681.625
250.147	15.382	912.370	680.889
251.161	15.442	911.920	680.734
252.176	15.351	911.734	680.167
253.190	15.336	910.759	679.319
254.205	15.415	910.227	679.179
255.220	15.492	909.447	678.850
256.234	15.480	908.876	678.314
257.249	15.524	908.051	677.815
258.263	15.453	907.507	677.062
259.278	15.509	906.715	676.641
260.293	15.651	906.314	676.853
261.307	15.562	905.685	675.966
262.322	15.606	905.084	675.633
263.336	15.764	903.719	675.187
264.351	15.671	903.195	674.362
265.366	15.603	902.993	673.880
266.380	15.699	902.021	673.482
267.395	15.647	901.640	672.928
268.409	15.686	900.799	672.395
269.424	15.618	899.907	671.401
270.439	15.751	899.253	671.383
271.453	15.707	898.712	670.746
272.468	15.732	898.250	670.441
273.482	15.765	897.547	669.989
274.497	15.688	896.931	669.163
275.512	15.741	896.392	668.913
276.526	15.695	896.034	668.403
277.541	15.962	895.083	668.693
278.555	15.874	895.032	668.247
279.570	15.988	893.486	667.484
280.585	16.011	892.793	667.002
281.599	15.877	892.472	666.173
282.614	15.943	891.422	665.590
283.628	15.861	891.314	665.125
284.643	15.867	890.245	664.291
285.657	15.859	890.002	664.023
286.672	15.930	889.294	663.715
287.687	16.074	888.490	663.622
288.701	16.069	887.771	663.005
289.716	16.048	887.443	662.622
290.730	15.981	887.129	662.066
291.745	16.017	886.203	661.454
292.760	16.110	885.308	661.092
293.774	16.120	885.136	660.947
294.789	16.207	884.145	660.489
295.803	16.127	884.021	660.025
296.818	16.102	882.765	658.931
297.833	16.014	882.562	658.378
298.847	16.123	881.636	658.055
299.862	16.141	880.844	657.472
300.876	16.116	880.789	657.279
301.891	16.289	879.775	657.135
302.906	16.250	879.402	656.646
303.920	16.236	878.751	656.050
304.935	16.359	878.242	656.086
305.949	16.392	877.293	655.448
306.964	16.321	877.179	655.031
307.979	16.494	876.155	654.880
308.993	16.405	875.672	654.116
310.008	16.401	875.052	653.578
311.022	16.360	874.547	652.984
312.037	16.514	873.556	652.782
313.052	16.452	873.541	652.474
314.066	16.330	872.777	651.376
315.081	16.414	871.976	651.043
316.095	16.383	871.722	650.676
317.110	16.370	871.178	650.164
318.125	16.481	870.836	650.277
319.139	16.463	870.127	649.621
320.154	16.400	869.807	649.081
321.168	16.425	868.973	648.500
322.183	16.438	868.496	648.136
323.197	16.476	867.943	647.810
324.212	16.497	867.340	647.384
325.227	16.493	866.593	646.752
326.241	16.530	866.067	646.445
327.256	16.623	865.204	646.098
328.270	16.611	864.770	645.670
329.285	16.484	864.402	644.857
330.300	16.530	863.828	644.545
331.314	16.416	863.374	643.717
332.329	16.568	862.691	643.726
333.343	16.569	862.340	643.413
334.358	16.662	861.602	643.158
335.373	16.583	861.548	642.762
336.387	16.714	861.199	642.941
337.402	16.759	860.823	642.773
338.416	16.776	860.410	642.474
339.431	16.883	859.911	642.449
340.446	16.875	859.324	641.922
341.460	16.757	859.186	641.317
342.475	16.859	858.648	641.245
343.489	16.796	858.329	640.712
344.504	16.889	858.018	640.773
345.519	16.988	857.123	640.423
346.533	17.070	856.243	640.019
347.548	16.966	856.158	639.507
348.562	16.976	855.385	638.908
349.577	16.829	855.118	638.099
350.592	16.835	854.441	637.562
351.606	16.892	853.912	637.324
352.621	16.999	853.073	637.043
353.635	16.919	852.615	636.343
354.650	16.879	852.170	635.806
355.665	16.917	850.985	635.007
356.679	17.160	850.526	635.518
357.694	17.102	849.995	634.849
358.708	17.053	849.009	633.875
359.723	17.035	848.828	633.615
360.738	17.142	847.912	633.274
361.752	17.195	847.354	632.997
362.767	17.061	846.698	631.954
363.781	17.218	846.213	632.119
364.796	17.264	845.809	631.934
365.810	17.374	845.422	631.996
366.825	17.366	844.972	631.576
367.840	17.287	844.721	631.037
368.854	17.355	843.908	630.629
369.869	17.306	843.560	630.131
370.883	17.203	843.578	629.707
371.898	17.293	843.120	629.642
372.913	17.368	842.864	629.673
373.927	17.440	841.877	629.143
374.942	17.496	840.976	628.624
375.956	17.467	840.962	628.450
376.971	17.513	840.104	627.923
377.986	17.550	839.985	627.913
379.000	17.450	839.629	627.226
380.015	17.640	838.921	627.340
381.029	17.535	838.388	626.500
382.044	17.488	838.019	625.995
383.059	17.590	837.244	625.735
384.073	17.566	836.515	625.048
385.088	17.515	836.273	624.624
386.102	17.638	835.562	624.488
387.117	17.488	834.827	623.335
388.132	17.479	834.245	622.811
389.146	17.706	833.480	623.015
390.161	17.492	833.824	622.435
391.175	17.651	832.707	622.126
392.190	17.678	832.074	621.699
393.205	17.593	831.870	621.179
394.219	17.537	831.893	620.937
395.234	17.633	831.166	620.689
396.248	17.618	831.091	620.523
397.263	17.468	830.170	619.236
398.278	17.544	829.932	619.279
399.292	17.689	829.499	619.430
400.307	17.706	828.716	618.853
401.321	17.584	828.574	618.248
402.336	17.800	827.750	618.363
403.350	17.777	827.528	618.056
404.365	17.666	827.202	617.359
405.380	17.825	826.386	617.270
406.394	17.759	825.733	616.488
407.409	17.833	825.284	616.365
408.423	18.002	825.142	616.816
409.438	17.942	824.937	616.390
410.453	17.908	824.494	615.882
411.467	17.910	823.961	615.438
412.482	17.943	823.523	615.175
413.496	17.881	823.483	614.867
414.511	17.929	822.976	614.607
415.526	18.291	822.205	615.277
416.540	18.068	822.027	614.289
417.555	18.248	821.425	614.430
418.569	18.236	820.623	613.733
419.584	18.183	820.683	613.536
420.599	18.044	820.254	612.659
421.613	115.910	1301.562	1492.314
422.628	100.583	1371.632	1492.377
