DTS Sentinel unit serial number:	SN413079Multiplexer serial number:	ORYXHardware model number:	OX4-SRSoftware version number:	ORYX F/W v4.00 Oryx Data Collector v3.7.2.0data status	okinstallation	princeton_trtdifferential loss correction	single-endedforward channel	channel 1reverse channel	N/Adate	2019/09/14time	14:54:36forward acquisition time	60.00reverse acquisition time	0.00gamma	496.2192k internal	0.2294k external	0.2294temperature offset calibration	1.0073default loss term (dB/km)	0.3790temperature slope calibration	1.0000multiplexer offset coefficient	1.0000multiplexer slope coefficient	1.0000fibre end	0.00T internal ref (°C)	39.12T ext. ref 1 (°C)	5.02T ext. ref 2 (°C)	34.05length (m)	temperature (°C)	Stokes	anti-Stokes-747.200	-60.433	0.146	-0.063
-746.185	800.000	-0.098	0.368
-745.171	-180.089	-0.286	0.006
-744.156	-200.000	0.026	0.191
-743.142	-138.802	-0.301	-0.034
-742.127	57.671	-0.270	0.270
-741.112	-39.939	-0.294	0.157
-740.098	-117.739	-0.261	0.048
-739.083	-62.695	0.078	0.033
-738.069	789.632	-0.025	-0.071
-737.054	128.025	0.035	0.046
-736.039	-92.254	0.234	-0.067
-735.025	-200.000	-0.015	-0.173
-734.010	800.000	0.020	-0.079
-732.996	-62.242	-0.312	-0.133
-731.981	-91.950	0.396	-0.115
-730.966	203.482	-0.069	-0.110
-729.952	86.151	-0.088	-0.099
-728.937	-170.845	-0.408	-0.014
-727.923	25.650	0.098	0.083
-726.908	-4.506	0.073	-0.051
-725.894	-18.979	-0.174	-0.111
-724.879	144.412	-0.290	-0.396
-723.864	-200.000	-0.022	-0.306
-722.850	263.480	0.077	-0.136
-721.835	800.000	-0.046	0.142
-720.821	-133.699	-0.157	0.020
-719.806	-200.000	0.021	-0.207
-718.791	-27.658	-0.089	0.053
-717.777	800.000	-0.043	-0.184
-716.762	-147.304	0.335	0.029
-715.748	212.496	0.102	0.164
-714.733	-8.586	-0.115	-0.079
-713.718	-148.000	-0.216	-0.018
-712.704	-200.000	-0.414	-0.001
-711.689	46.146	0.202	0.191
-710.675	569.377	-0.049	-0.122
-709.660	800.000	-0.038	-0.144
-708.645	174.096	-0.175	0.258
-707.631	54.433	0.168	0.165
-706.616	17.518	-0.218	-0.177
-705.602	800.000	-0.103	0.338
-704.587	130.030	-0.128	0.167
-703.572	800.000	-0.067	0.272
-702.558	26.632	-0.409	-0.349
-701.543	-132.812	-0.206	0.027
-700.529	-26.668	-0.264	0.157
-699.514	-50.058	-0.292	0.141
-698.499	9.585	0.130	-0.101
-697.485	800.000	0.095	-0.325
-696.470	48.960	-0.168	-0.161
-695.456	677.691	-0.137	-0.362
-694.441	-140.821	-0.270	-0.028
-693.426	800.000	0.021	0.087
-692.412	-23.744	-0.178	0.109
-691.397	-52.773	-0.126	-0.059
-690.383	501.146	-0.163	0.384
-689.368	-36.742	-0.147	0.080
-688.354	24.284	-0.166	-0.140
-687.339	-124.372	-0.136	0.022
-686.324	-93.853	-0.169	-0.048
-685.310	800.000	0.113	-0.358
-684.295	139.194	-0.097	-0.130
-683.281	-66.025	-0.096	0.039
-682.266	-136.317	0.350	-0.042
-681.251	108.365	-0.043	0.053
-680.237	40.239	-0.191	-0.175
-679.222	46.602	0.082	0.078
-678.208	-111.897	-0.225	0.046
-677.193	-200.000	0.045	-0.205
-676.178	-143.567	-0.126	-0.012
-675.164	-127.284	0.065	0.010
-674.149	-108.966	0.090	-0.019
-673.135	-200.000	0.018	-0.423
-672.120	-200.000	-0.030	-0.383
-671.105	800.000	0.049	-0.193
-670.091	357.928	-0.216	-0.440
-669.076	-29.559	0.178	0.104
-668.062	-200.000	0.018	-0.156
-667.047	189.117	0.190	-0.291
-666.032	800.000	-0.037	-0.151
-665.018	-200.000	-0.006	0.181
-664.003	-148.484	-0.234	-0.019
-662.989	365.864	-0.042	0.086
-661.974	374.753	-0.082	-0.170
-660.959	800.000	0.052	0.170
-659.945	800.000	0.063	0.260
-658.930	117.000	-0.059	0.074
-657.916	16.974	-0.275	-0.222
-656.901	21.381	-0.128	0.106
-655.886	305.500	0.048	0.091
-654.872	-59.788	0.134	-0.058
-653.857	320.689	-0.120	-0.233
-652.843	-179.717	-0.239	0.005
-651.828	180.967	0.139	-0.208
-650.814	248.981	0.073	-0.127
-649.799	800.000	0.053	-0.172
-648.784	800.000	0.055	-0.198
-647.770	800.000	0.037	-0.125
-646.755	800.000	0.076	0.225
-645.741	649.927	-0.062	0.162
-644.726	800.000	-0.013	0.037
-643.711	-200.000	0.003	0.109
-642.697	-28.295	0.351	0.207
-641.682	800.000	0.094	-0.305
-640.668	88.746	-0.177	-0.201
-639.653	-23.716	0.127	0.078
-638.638	72.090	-0.164	0.174
-637.624	-29.984	0.097	-0.056
-636.609	418.812	-0.175	0.382
-635.595	127.955	-0.079	-0.102
-634.580	15.831	-0.189	-0.151
-633.565	-90.568	-0.115	0.034
-632.551	-200.000	-0.003	0.027
-631.536	-105.971	-0.368	0.084
-630.522	84.396	0.197	0.219
-629.507	62.214	0.178	-0.181
-628.492	-200.000	0.051	-0.271
-627.478	105.244	0.370	0.444
-626.463	-132.858	-0.038	0.005
-625.449	-26.252	-0.119	-0.071
-624.434	-129.885	0.036	-0.005
-623.419	275.324	-0.074	-0.134
-622.405	-6.163	0.220	-0.153
-621.390	-118.119	-0.280	-0.051
-620.376	689.365	-0.174	0.462
-619.361	-200.000	-0.015	-0.281
-618.346	225.917	-0.124	-0.204
-617.332	68.937	0.052	-0.054
-616.317	136.285	-0.149	0.198
-615.303	339.171	0.043	0.086
-614.288	-89.269	-0.030	-0.009
-613.273	-29.060	-0.210	0.123
-612.259	-2.177	0.218	0.156
-611.244	164.079	0.109	0.156
-610.230	233.380	-0.120	0.200
-609.215	109.708	-0.022	0.027
-608.201	-29.945	-0.340	0.197
-607.186	-51.662	0.395	0.187
-606.171	22.884	0.208	0.173
-605.157	800.000	-0.037	0.110
-604.142	265.396	0.074	-0.131
-603.128	159.255	0.130	0.184
-602.113	-118.645	0.156	0.028
-601.098	42.517	0.119	-0.110
-600.084	44.063	0.148	-0.138
-599.069	-200.000	0.011	0.103
-598.055	-24.398	0.087	-0.053
-597.040	92.254	-0.080	0.091
-596.025	21.467	0.070	-0.058
-595.011	-200.000	-0.026	-0.116
-593.996	471.450	0.048	0.109
-592.982	800.000	-0.053	0.231
-591.967	91.761	-0.096	0.109
-590.952	-200.000	0.018	-0.242
-589.938	-200.000	-0.021	-0.126
-588.923	-1.598	0.157	-0.112
-587.909	23.021	0.065	0.054
-586.894	8.372	0.196	0.150
-585.879	71.682	0.242	0.256
-584.865	-86.387	0.181	-0.057
-583.850	-49.971	0.140	0.067
-582.836	36.606	-0.072	0.065
-581.821	-6.550	0.131	0.091
-580.806	35.409	-0.295	0.263
-579.792	648.094	-0.080	-0.207
-578.777	340.429	0.074	-0.148
-577.763	195.983	-0.190	0.293
-576.748	-195.209	-0.189	0.001
-575.733	-200.000	-0.068	0.387
-574.719	43.478	0.245	0.227
-573.704	398.029	0.127	-0.269
-572.690	800.000	-0.127	-0.384
-571.675	-200.000	0.012	0.092
-570.661	-92.856	0.179	0.051
-569.646	-17.153	-0.098	0.063
-568.631	-175.671	0.365	-0.010
-567.617	417.180	0.048	-0.104
-566.602	-154.763	0.201	-0.014
-565.588	-200.000	0.005	0.161
-564.573	121.834	-0.145	-0.184
-563.558	-70.806	0.046	0.018
-562.544	-40.286	-0.184	0.097
-561.529	-137.719	0.422	0.048
-560.515	-200.000	-0.033	0.304
-559.500	-122.148	-0.386	-0.064
-558.485	-200.000	0.004	-0.074
-557.471	24.807	-0.110	0.092
-556.456	531.141	-0.134	-0.321
-555.442	101.494	-0.161	-0.191
-554.427	-200.000	0.038	-0.190
-553.412	-107.698	0.146	0.032
-552.398	-108.544	0.362	-0.079
-551.383	-75.860	0.267	0.096
-550.369	7.999	-0.189	0.144
-549.354	800.000	0.020	0.079
-548.339	254.753	0.063	0.109
-547.325	-133.578	0.238	-0.030
-546.310	0.273	0.218	-0.158
-545.296	671.809	-0.187	-0.491
-544.281	-43.781	0.231	-0.118
-543.266	28.077	-0.187	0.160
-542.252	-151.442	0.126	0.009
-541.237	-67.886	0.243	0.096
-540.223	-11.997	-0.128	0.085
-539.208	218.824	-0.073	0.119
-538.193	-192.060	0.254	0.002
-537.179	58.336	-0.155	-0.154
-536.164	800.000	-0.066	-0.256
-535.150	-72.921	-0.128	0.048
-534.135	105.736	-0.362	-0.434
-533.121	-200.000	0.017	0.172
-532.106	214.273	0.175	0.282
-531.091	-41.562	0.212	-0.111
-530.077	303.741	-0.075	-0.141
-529.062	-130.604	0.240	0.033
-528.048	-134.572	-0.301	-0.037
-527.033	286.742	0.076	-0.139
-526.018	-200.000	0.015	0.124
-525.004	-200.000	-0.008	0.080
-523.989	-82.395	-0.202	-0.067
-522.975	-200.000	-0.022	0.309
-521.960	-112.621	-0.155	-0.031
-520.945	420.624	-0.096	-0.209
-519.931	11.909	0.257	-0.200
-518.916	63.480	0.284	0.289
-517.902	-32.549	-0.267	-0.151
-516.887	-200.000	0.030	-0.389
-515.872	-200.000	-0.014	-0.272
-514.858	-200.000	0.026	0.116
-513.843	-200.000	-0.006	-0.060
-512.829	-84.319	0.131	-0.042
-511.814	73.939	-0.071	0.076
-510.799	-155.330	-0.261	0.017
-509.785	-29.260	-0.094	0.055
-508.770	106.936	-0.290	0.348
-507.756	3.241	0.044	-0.033
-506.741	800.000	-0.057	-0.227
-505.726	311.776	-0.129	0.245
-504.712	-150.234	-0.287	-0.022
-503.697	113.147	-0.233	0.286
-502.683	-104.870	0.450	-0.105
-501.668	-200.000	0.006	-0.308
-500.653	-27.146	-0.318	0.188
-499.639	-51.397	0.084	-0.040
-498.624	253.560	0.123	-0.212
-497.610	-16.520	0.284	0.182
-496.595	-42.038	-0.270	-0.140
-495.581	-159.420	0.363	-0.021
-494.566	-152.003	0.514	-0.038
-493.551	37.633	0.157	-0.141
-492.537	138.375	-0.016	-0.022
-491.522	-200.000	-0.050	0.422
-490.508	-76.790	-0.074	-0.026
-489.493	52.855	-0.029	-0.028
-488.478	-200.000	-0.011	0.062
-487.464	247.589	0.091	-0.156
-486.449	-57.090	-0.201	0.090
-485.435	-95.496	0.132	0.036
-484.420	-200.000	-0.198	-0.000
-483.405	-86.436	0.503	0.156
-482.391	-8.700	-0.148	0.101
-481.376	-7.622	0.088	0.060
-480.362	-91.197	-0.155	-0.045
-479.347	386.742	0.170	0.356
-478.332	124.304	-0.136	0.173
-477.318	-200.000	-0.049	0.229
-476.303	-41.750	0.211	-0.110
-475.289	-200.000	0.037	-0.273
-474.274	-200.000	0.027	0.147
-473.259	800.000	-0.035	0.126
-472.245	24.474	-0.078	-0.065
-471.230	-56.850	-0.178	0.080
-470.216	106.480	0.022	0.026
-469.201	519.322	0.054	-0.128
-468.186	-200.000	-0.014	-0.156
-467.172	-195.555	-0.155	0.001
-466.157	-200.000	-0.019	0.115
-465.143	62.459	0.206	0.208
-464.128	-116.168	-0.311	-0.058
-463.113	800.000	-0.057	-0.229
-462.099	-200.000	-0.032	0.191
-461.084	-125.201	-0.266	0.041
-460.070	-200.000	0.020	0.138
-459.055	13.745	-0.071	-0.056
-458.040	31.035	-0.111	-0.096
-457.026	215.486	0.186	-0.298
-456.011	145.959	-0.154	0.209
-454.997	-75.440	-0.335	-0.121
-453.982	198.877	0.168	0.260
-452.968	-200.000	-0.031	0.220
-451.953	-200.000	0.055	-0.375
-450.938	-8.874	-0.063	-0.042
-449.924	67.034	0.057	-0.059
-448.909	-39.747	0.235	-0.124
-447.895	-155.644	-0.257	0.017
-446.880	19.667	0.327	-0.266
-445.865	150.092	-0.083	-0.114
-444.851	-116.106	-0.300	-0.056
-443.836	800.000	0.069	0.207
-442.822	-85.748	-0.081	0.025
-441.807	545.610	0.096	0.233
-440.792	-146.477	-0.032	0.003
-439.778	-13.680	-0.335	-0.219
-438.763	-200.000	0.006	-0.252
-437.749	12.267	0.166	-0.129
-436.734	-200.000	-0.010	-0.166
-435.719	-16.287	0.126	0.081
-434.705	-200.000	-0.011	0.300
-433.690	268.893	-0.133	0.235
-432.676	-200.000	0.007	-0.041
-431.661	-200.000	0.001	-0.192
-430.646	-200.000	0.016	-0.078
-429.632	-200.000	-0.005	0.148
-428.617	389.751	0.005	-0.011
-427.603	-200.000	0.036	-0.221
-426.588	-200.000	0.016	0.174
-425.573	800.000	-0.041	-0.134
-424.559	-89.333	-0.167	-0.050
-423.544	-122.193	0.198	-0.033
-422.530	-81.545	0.268	0.089
-421.515	-200.000	-0.009	-0.252
-420.500	-19.317	0.131	0.082
-419.486	-200.000	0.018	-0.266
-418.471	79.513	0.035	-0.038
-417.457	-47.455	0.105	0.052
-416.442	119.044	-0.136	-0.170
-415.428	78.616	0.104	0.112
-414.413	195.525	0.167	-0.257
-413.398	-157.291	0.269	0.016
-412.384	520.781	-0.094	0.222
-411.369	-0.157	-0.229	-0.164
-410.355	-102.563	0.179	0.043
-409.340	163.992	0.035	-0.049
-408.325	93.478	0.158	0.180
-407.311	67.319	0.058	-0.060
-406.296	-168.350	-0.360	-0.014
-405.282	67.264	0.094	-0.097
-404.267	-97.520	-0.133	-0.035
-403.252	-24.917	-0.241	0.144
-402.238	-90.534	-0.167	-0.049
-401.223	457.114	-0.066	0.147
-400.209	513.258	0.167	0.393
-399.194	800.000	0.039	0.151
-398.179	676.995	0.031	-0.080
-397.165	-200.000	0.004	-0.288
-396.150	800.000	-0.037	-0.139
-395.136	-95.679	-0.329	0.089
-394.121	44.990	0.207	-0.192
-393.106	-27.670	0.184	0.108
-392.092	-200.000	0.007	0.144
-391.077	-43.261	0.250	0.128
-390.063	151.922	-0.147	0.202
-389.048	280.459	-0.184	-0.332
-388.033	-41.204	0.103	-0.054
-387.019	-200.000	0.031	-0.196
-386.004	346.014	0.111	0.219
-384.990	72.447	0.179	-0.188
-383.975	-61.019	-0.085	-0.036
-382.960	63.485	-0.108	0.109
-381.946	-19.853	-0.214	0.134
-380.931	-200.000	0.002	0.209
-379.917	-200.000	0.012	0.151
-378.902	-78.732	-0.366	-0.126
-377.888	-20.911	-0.274	-0.169
-376.873	-61.265	0.254	-0.108
-375.858	-49.453	-0.351	0.168
-374.844	-65.189	0.046	-0.019
-373.829	57.572	0.268	-0.264
-372.815	14.781	-0.161	0.127
-371.800	444.485	-0.052	0.116
-370.785	37.311	-0.212	-0.189
-369.771	226.363	-0.085	-0.138
-368.756	800.000	0.040	0.147
-367.742	161.328	-0.196	0.276
-366.727	-95.289	-0.389	-0.105
-365.712	-52.447	-0.166	0.078
-364.698	546.839	0.031	0.075
-363.683	22.554	-0.287	-0.237
-362.669	-51.440	-0.272	-0.128
-361.654	-93.387	0.245	0.069
-360.639	321.085	-0.120	0.229
-359.625	800.000	0.048	-0.186
-358.610	642.909	0.055	0.141
-357.596	-55.499	0.237	0.107
-356.581	-55.804	-0.218	-0.098
-355.566	-200.000	0.009	0.275
-354.552	-23.501	0.178	-0.108
-353.537	50.731	-0.162	0.155
-352.523	800.000	-0.082	-0.254
-351.508	-125.930	-0.288	-0.044
-350.493	87.316	-0.152	-0.169
-349.479	-161.683	0.197	-0.010
-348.464	47.906	0.226	0.212
-347.450	-154.026	0.205	0.014
-346.435	800.000	-0.073	-0.212
-345.420	-26.724	-0.014	-0.008
-344.406	-46.854	0.076	-0.038
-343.391	-67.154	-0.155	-0.061
-342.377	12.985	0.187	-0.145
-341.362	-200.000	0.060	0.285
-340.348	800.000	0.077	0.249
-339.333	-200.000	0.023	0.101
-338.318	20.610	0.227	-0.185
-337.304	200.764	-0.045	0.069
-336.289	-25.540	0.181	-0.108
-335.275	800.000	0.070	-0.307
-334.260	171.176	-0.179	-0.259
-333.245	-139.587	0.294	0.032
-332.231	0.881	0.235	-0.169
-331.216	224.962	0.138	-0.224
-330.202	-200.000	-0.051	0.000
-329.187	-200.000	-0.037	-0.289
-328.172	5.453	0.165	0.122
-327.158	323.457	-0.092	0.177
-326.143	-96.393	-0.293	-0.078
-325.129	-200.000	-0.003	0.117
-324.114	-121.257	-0.125	0.021
-323.099	-148.037	-0.205	-0.017
-322.085	-46.922	0.263	0.129
-321.070	-133.314	0.250	-0.032
-320.056	-96.145	-0.280	0.075
-319.041	-40.684	-0.171	-0.089
-318.026	141.512	0.354	0.471
-317.012	-51.509	-0.288	-0.135
-315.997	201.819	-0.104	0.161
-314.983	-200.000	0.013	0.207
-313.968	70.201	-0.106	0.110
-312.953	-76.513	-0.322	-0.114
-311.939	491.899	0.072	0.166
-310.924	-56.006	0.099	0.044
-309.910	-200.000	-0.055	0.241
-308.895	-90.404	-0.182	-0.053
-307.880	-164.053	0.100	-0.005
-306.866	-81.191	-0.225	-0.075
-305.851	290.873	-0.095	0.174
-304.837	253.998	0.127	0.218
-303.822	-116.219	-0.262	0.049
-302.807	-167.470	-0.514	-0.021
-301.793	-187.129	-0.124	0.002
-300.778	61.134	0.344	0.343
-299.764	120.895	0.256	-0.320
-298.749	-6.898	0.059	0.040
-297.735	-90.957	-0.280	0.081
-296.720	-197.634	-0.403	0.002
-295.705	800.000	0.031	-0.105
-294.691	-115.735	0.158	0.030
-293.676	239.161	0.140	-0.233
-292.662	303.274	0.107	0.199
-291.647	-122.874	-0.091	0.015
-290.632	135.872	-0.109	0.143
-289.618	112.046	0.189	-0.230
-288.603	-50.416	0.173	-0.082
-287.589	-68.350	0.162	0.063
-286.574	800.000	-0.080	0.231
-285.559	-29.165	0.265	0.153
-284.545	136.904	-0.192	-0.252
-283.530	341.630	-0.131	-0.258
-282.516	-23.846	-0.064	-0.038
-281.501	-63.426	0.345	-0.143
-280.486	103.369	0.080	0.095
-279.472	-107.733	0.092	0.020
-278.457	-40.111	0.135	-0.071
-277.443	103.160	-0.216	-0.254
-276.428	-87.937	-0.096	-0.029
-275.413	-200.000	0.099	-0.477
-274.399	440.187	0.096	-0.211
-273.384	-8.090	-0.053	-0.036
-272.370	-200.000	-0.018	-0.095
-271.355	-156.465	-0.523	-0.033
-270.340	16.144	-0.170	-0.135
-269.326	54.333	0.091	0.088
-268.311	800.000	-0.030	-0.095
-267.297	-49.175	0.117	0.056
-266.282	218.480	0.121	0.195
-265.267	-200.000	-0.033	0.173
-264.253	-176.686	0.112	-0.003
-263.238	165.682	0.149	0.211
-262.224	-200.000	0.035	-0.255
-261.209	150.929	0.157	-0.214
-260.195	124.991	0.265	0.335
-259.180	-37.146	-0.205	0.110
-258.165	-57.527	-0.068	0.030
-257.151	122.533	0.105	-0.131
-256.136	477.471	-0.051	0.116
-255.122	-145.862	-0.086	-0.008
-254.107	-73.579	-0.173	-0.063
-253.092	53.282	0.059	-0.057
-252.078	99.770	-0.120	-0.139
-251.063	-113.141	0.218	0.043
-250.049	-11.946	0.079	0.052
-249.034	1.161	0.100	0.072
-248.019	-75.860	0.150	-0.053
-247.005	101.577	-0.142	-0.166
-245.990	-87.340	0.212	0.065
-244.976	321.855	0.035	0.066
-243.961	-133.497	0.101	0.013
-242.946	29.989	0.190	0.162
-241.932	17.664	-0.059	-0.047
-240.917	-21.204	0.392	-0.240
-239.903	-155.470	0.370	-0.024
-238.888	800.000	-0.081	0.265
-237.873	-200.000	0.003	0.066
-236.859	-82.008	0.047	0.015
-235.844	519.366	0.108	-0.254
-234.830	284.063	0.075	0.135
-233.815	17.006	-0.107	-0.085
-232.800	800.000	-0.113	-0.346
-231.786	-120.952	-0.130	0.022
-230.771	-116.767	0.003	0.001
-229.757	-143.344	-0.289	0.028
-228.742	95.181	0.319	-0.365
-227.727	88.694	-0.306	0.340
-226.713	-19.718	0.221	0.137
-225.698	-99.969	0.239	-0.060
-224.684	24.987	0.120	-0.100
-223.669	-118.818	-0.129	0.023
-222.655	-110.551	-0.223	-0.046
-221.640	-200.000	0.006	-0.238
-220.625	-152.445	-0.178	0.013
-219.611	136.995	0.122	-0.160
-218.596	-82.880	0.162	0.052
-217.582	-60.138	0.036	0.015
-216.567	-65.926	0.345	-0.138
-215.552	68.458	0.115	-0.119
-214.538	101.108	0.078	-0.090
-213.523	100.152	-0.146	0.170
-212.509	313.434	-0.033	0.061
-211.494	3.062	0.078	0.057
-210.479	141.067	-0.113	-0.149
-209.465	-200.000	-0.019	-0.108
-208.450	-185.178	0.110	-0.002
-207.436	-87.997	-0.159	0.048
-206.421	-189.989	0.271	-0.003
-205.406	800.000	-0.066	-0.209
-204.392	62.700	0.073	-0.073
-203.377	112.555	0.073	-0.088
-202.363	-4.196	-0.144	0.100
-201.348	123.399	0.081	-0.101
-200.333	-200.000	0.001	-0.306
-199.319	-200.000	-0.017	0.203
-198.304	-148.480	0.142	0.012
-197.290	-200.000	0.003	0.195
-196.275	-200.000	-0.276	-0.001
-195.260	-183.324	-0.269	0.005
-194.246	47.071	-0.195	0.182
-193.231	-200.000	0.036	-0.262
-192.217	-53.502	-0.088	0.040
-191.202	187.386	-0.095	0.141
-190.187	-200.000	-0.031	-0.313
-189.173	-183.067	-0.207	0.004
-188.158	-200.000	0.028	-0.189
-187.144	-134.920	-0.390	0.047
-186.129	-49.482	-0.103	0.049
-185.114	-10.007	0.330	0.219
-184.100	800.000	0.146	0.417
-183.085	-200.000	-0.035	0.284
-182.071	769.624	-0.019	-0.051
-181.056	-73.697	-0.259	-0.094
-180.042	-46.807	0.055	-0.027
-179.027	-63.389	-0.255	0.105
-178.012	13.391	-0.103	0.080
-176.998	91.483	0.055	-0.062
-175.983	98.243	0.088	0.102
-174.969	51.180	-0.187	-0.177
-173.954	-102.528	-0.201	-0.048
-172.939	-8.138	0.127	-0.086
-171.925	105.303	-0.349	0.412
-170.910	-200.000	0.001	-0.196
-169.896	51.860	0.210	-0.200
-168.881	27.494	0.159	-0.133
-167.866	125.747	-0.099	0.125
-166.852	-98.918	0.121	-0.031
-165.837	184.376	-0.162	0.240
-164.823	50.544	0.230	-0.217
-163.808	-34.121	0.260	-0.143
-162.793	26.670	0.196	0.164
-161.779	-2.491	-0.162	-0.113
-160.764	800.000	0.027	-0.109
-159.750	568.216	-0.081	-0.196
-158.735	-200.000	-0.041	0.394
-157.720	-89.017	-0.152	0.045
-156.706	-38.523	0.334	-0.176
-155.691	800.000	0.062	0.229
-154.677	-200.000	-0.014	0.209
-153.662	615.403	0.098	-0.244
-152.647	800.000	0.041	0.115
-151.633	-199.350	-0.438	-0.002
-150.618	-200.000	-0.021	0.121
-149.604	-76.545	0.027	0.009
-148.589	-98.787	-0.160	0.041
-147.574	-145.872	0.150	-0.013
-146.560	-123.090	-0.133	-0.021
-145.545	-200.000	0.006	0.176
-144.531	60.643	0.060	-0.059
-143.516	-95.428	0.110	0.029
-142.502	-121.719	-0.266	-0.044
-141.487	23.873	0.135	0.111
-140.472	-6.737	-0.103	-0.070
-139.458	-142.944	0.465	-0.045
-138.443	-200.000	-0.014	-0.245
-137.429	-200.000	-0.003	0.154
-136.414	-80.855	-0.194	-0.064
-135.399	-108.237	-0.132	0.028
-134.385	86.358	0.159	0.175
-133.370	-141.356	-0.464	0.047
-132.356	800.000	0.025	0.083
-131.341	-162.035	-0.435	0.022
-130.326	-99.820	-0.117	0.029
-129.312	-200.000	-0.005	0.038
-128.297	132.427	-0.037	-0.047
-127.283	800.000	-0.071	-0.279
-126.268	-102.282	0.199	0.048
-125.253	170.142	0.110	-0.157
-124.239	279.238	-0.142	-0.252
-123.224	-121.427	0.311	0.052
-122.210	125.697	-0.273	0.345
-121.195	440.947	0.168	-0.367
-120.180	89.121	-0.128	-0.142
-119.166	-32.293	-0.109	-0.061
-118.151	-87.233	-0.027	0.008
-117.137	800.000	-0.090	-0.271
-116.122	109.705	-0.127	0.152
-115.107	197.486	-0.224	0.342
-114.093	-31.155	-0.090	0.051
-113.078	58.354	0.175	0.171
-112.064	-77.134	0.243	-0.085
-111.049	-200.000	-0.004	-0.206
-110.034	-67.939	-0.281	0.110
-109.020	-200.000	-0.001	-0.021
-108.005	-200.000	-0.014	0.256
-106.991	-110.128	-0.182	-0.038
-105.976	-39.491	-0.170	0.089
-104.962	-81.182	0.186	-0.061
-103.947	-9.917	-0.150	0.099
-102.932	293.417	0.025	-0.046
-101.918	418.032	0.174	-0.370
-100.903	207.313	0.162	-0.252
-99.889	800.000	-0.011	-0.032
-98.874	800.000	-0.032	0.129
-97.859	233.965	0.062	0.102
-96.845	-200.000	0.001	0.182
-95.830	-97.193	-0.622	0.162
-94.816	800.000	0.063	-0.266
-93.801	-43.356	-0.127	0.064
-92.786	5.122	0.239	-0.176
-91.772	-43.768	0.146	0.073
-90.757	800.000	0.044	-0.151
-89.743	37.221	-0.135	0.119
-88.728	1.533	-0.273	0.196
-87.713	-117.515	-0.134	0.024
-86.699	38.445	0.080	-0.071
-85.684	613.336	-0.032	-0.081
-84.670	800.000	0.043	0.169
-83.655	-122.432	0.153	0.025
-82.640	763.960	-0.093	0.251
-81.626	-200.000	-0.050	-0.241
-80.611	-65.212	-0.151	-0.060
-79.597	62.867	0.035	0.035
-78.582	-200.000	0.012	0.111
-77.567	4.472	-0.053	-0.039
-76.553	405.012	0.037	-0.077
-75.538	-86.180	-0.311	0.095
-74.524	584.786	0.031	0.076
-73.509	121.665	-0.064	0.079
-72.494	161.345	0.098	0.136
-71.480	356.446	-0.103	-0.203
-70.465	799.187	-0.101	-0.279
-69.451	-70.265	0.306	-0.116
-68.436	19.463	0.222	-0.178
-67.422	800.000	0.061	0.234
-66.407	-82.057	-0.088	0.029
-65.392	-45.400	0.082	-0.041
-64.378	800.000	0.049	-0.201
-63.363	-200.000	-0.038	0.327
-62.349	-1.525	0.370	-0.260
-61.334	139.517	-0.752	-0.986
-60.319	800.000	0.159	0.452
-59.305	-200.000	-0.073	-0.843
-58.290	800.000	0.289	1.003
-57.276	345.143	0.769	1.504
-56.261	-200.000	81.631	493.238
-55.246	551.123	1362.468	3254.593
-54.232	183.907	2587.796	3810.886
-53.217	119.841	2240.108	2763.645
-52.203	49.949	1692.927	1589.318
-51.188	42.490	1424.104	1289.242
-50.173	39.210	1379.735	1228.579
-49.159	56.888	1418.954	1375.664
-48.144	62.117	1437.893	1427.044
-47.130	42.952	1398.430	1268.712
-46.115	39.204	1381.568	1229.976
-45.100	38.998	1376.365	1224.015
-44.086	38.898	1374.521	1221.701
-43.071	38.938	1371.879	1219.554
-42.057	38.967	1369.767	1217.805
-41.042	38.977	1367.754	1216.031
-40.027	38.954	1366.816	1215.006
-39.013	39.114	1364.480	1213.868
-37.998	39.033	1362.977	1211.983
-36.984	39.073	1361.132	1210.546
-35.969	39.080	1359.181	1208.805
-34.954	39.169	1357.464	1207.774
-33.940	39.121	1356.015	1206.145
-32.925	39.282	1354.372	1205.622
-31.911	39.211	1353.173	1204.071
-30.896	39.260	1351.536	1202.867
-29.881	39.153	1350.289	1201.053
-28.867	39.207	1348.970	1200.162
-27.852	39.301	1347.195	1199.107
-26.838	39.344	1345.359	1197.690
-25.823	39.219	1344.109	1195.770
-24.809	39.154	1342.818	1194.180
-23.794	39.260	1341.270	1193.401
-22.779	39.287	1339.813	1192.217
-21.765	39.260	1338.473	1190.814
-20.750	39.191	1337.203	1189.218
-19.736	39.078	1336.027	1187.444
-18.721	39.149	1334.623	1186.579
-17.706	39.115	1333.432	1185.268
-16.692	39.081	1332.231	1183.947
-15.677	39.047	1331.533	1183.073
-14.663	39.049	1330.643	1182.251
-13.648	38.999	1329.414	1180.811
-12.633	39.011	1328.329	1179.874
-11.619	38.956	1327.427	1178.692
-10.604	39.089	1325.959	1178.138
-9.590	39.001	1325.498	1177.154
-8.575	39.057	1324.306	1176.386
-7.560	39.094	1323.575	1175.910
-6.546	39.131	1322.536	1175.162
-5.531	38.923	1322.301	1173.665
-4.517	39.008	1320.995	1172.965
-3.502	39.109	1320.016	1172.654
-2.487	39.056	1319.229	1171.591
-1.473	39.059	1314.966	1167.775
-0.458	37.638	1299.113	1145.300
0.556	34.156	1278.134	1100.282
1.571	29.655	1282.138	1077.459
2.586	28.104	1296.488	1080.269
3.600	26.355	1284.528	1059.962
4.615	19.602	1208.129	959.456
5.629	9.761	1126.668	843.455
6.644	5.189	1103.836	802.820
7.659	4.901	1100.687	798.985
8.673	4.970	1099.401	798.335
9.688	5.020	1097.999	797.502
10.702	5.216	1097.082	797.764
11.717	10.620	1104.753	831.011
12.731	19.094	1117.478	884.225
13.746	21.430	1119.272	897.572
14.761	19.743	1116.577	886.684
15.775	18.655	1113.931	878.934
16.790	17.635	1111.750	871.922
17.804	16.880	1110.220	866.784
18.819	16.455	1109.170	863.715
19.834	16.304	1108.097	862.034
20.848	16.075	1107.362	860.217
21.863	15.806	1106.512	858.109
22.877	15.769	1105.763	857.265
23.892	15.764	1104.780	856.400
24.907	15.760	1103.885	855.612
25.921	15.663	1103.059	854.401
26.936	15.790	1101.735	853.946
27.950	15.836	1100.426	853.089
28.965	15.865	1098.955	852.020
29.980	15.948	1097.274	851.059
30.994	15.987	1096.272	850.405
32.009	16.049	1094.880	849.562
33.023	16.062	1093.772	848.693
34.038	16.034	1092.754	847.685
35.053	15.834	1091.988	846.010
36.067	15.897	1090.893	845.403
37.082	15.812	1090.740	844.785
38.096	15.912	1089.623	844.348
39.111	16.018	1088.552	843.975
40.126	15.861	1087.537	842.324
41.140	15.495	1086.231	839.410
42.155	15.553	1085.282	838.894
43.169	15.545	1083.819	837.645
44.184	15.518	1082.637	836.526
45.199	15.640	1081.196	835.945
46.213	15.722	1080.830	835.997
47.228	15.768	1079.993	835.501
48.242	15.884	1078.645	834.959
49.257	15.766	1077.792	833.641
50.271	15.861	1076.861	833.317
51.286	15.844	1075.959	832.463
52.301	15.879	1074.851	831.707
53.315	15.794	1074.199	830.708
54.330	15.594	1072.986	828.708
55.344	15.780	1071.673	828.537
56.359	15.741	1071.260	827.953
57.374	15.675	1069.851	826.469
58.388	15.616	1069.181	825.584
59.403	15.605	1068.672	825.067
60.417	15.674	1067.413	824.359
61.432	15.590	1066.950	823.519
62.447	15.557	1066.215	822.716
63.461	15.365	1065.743	821.340
64.476	15.457	1064.113	820.459
65.490	15.356	1063.606	819.500
66.505	15.495	1062.912	819.575
67.520	15.496	1061.755	818.614
68.534	15.524	1061.372	818.384
69.549	15.539	1060.681	817.849
70.563	15.510	1060.001	817.114
71.578	15.412	1059.073	815.849
72.593	15.333	1057.845	814.449
73.607	15.351	1057.573	814.250
74.622	15.456	1056.919	814.185
75.636	15.542	1056.106	813.906
76.651	15.507	1055.109	812.896
77.666	15.372	1054.682	811.842
78.680	15.415	1054.292	811.677
79.695	15.466	1053.702	811.397
80.709	15.463	1052.784	810.605
81.724	15.464	1052.479	810.304
82.739	15.782	1051.165	810.752
83.753	15.893	1050.586	810.770
84.768	16.128	1049.724	811.162
85.782	15.896	1049.151	809.530
86.797	16.033	1048.172	809.363
87.812	15.908	1046.955	807.753
88.826	15.914	1046.088	807.040
89.841	15.948	1045.060	806.339
90.855	15.944	1044.005	805.434
91.870	15.985	1043.300	805.016
92.884	16.002	1042.367	804.303
93.899	15.958	1041.591	803.424
94.914	15.965	1040.592	802.617
95.928	16.050	1039.779	802.321
96.943	16.011	1038.725	801.252
97.957	15.980	1037.970	800.455
98.972	15.923	1037.383	799.660
99.987	15.905	1036.035	798.463
101.001	15.916	1035.600	798.110
102.016	15.917	1034.682	797.339
103.030	15.951	1033.985	796.891
104.045	15.903	1033.081	795.895
105.060	15.976	1032.036	795.366
106.074	15.788	1030.811	793.465
107.089	15.747	1029.833	792.446
108.103	15.597	1028.730	790.823
109.118	15.605	1028.111	790.315
110.133	15.610	1027.061	789.463
111.147	15.658	1026.295	789.030
112.162	15.627	1025.270	788.027
113.176	15.627	1024.604	787.445
114.191	15.774	1023.762	787.413
115.206	15.689	1023.296	786.590
116.220	15.778	1022.160	786.061
117.235	15.685	1021.145	784.779
118.249	15.610	1020.510	783.870
119.264	15.668	1019.857	783.571
120.279	15.572	1018.652	782.128
121.293	15.652	1017.740	781.728
122.308	15.536	1016.959	780.521
123.322	15.471	1016.242	779.602
124.337	15.480	1015.062	778.667
125.352	15.408	1014.170	777.582
126.366	15.540	1012.636	776.948
127.381	15.577	1011.751	776.371
128.395	15.672	1010.491	775.773
129.410	15.568	1009.964	774.820
130.424	15.648	1008.674	774.133
131.439	15.830	1007.809	774.235
132.454	15.726	1007.543	773.484
133.468	15.783	1006.591	772.949
134.483	15.828	1005.984	772.618
135.497	15.793	1004.802	771.482
136.512	15.768	1004.183	770.827
137.527	15.926	1003.218	770.741
138.541	15.835	1002.352	769.590
139.556	15.789	1001.786	768.876
140.570	15.878	1001.434	768.946
141.585	16.068	1000.396	768.946
142.600	16.189	998.811	768.211
143.614	16.144	998.647	767.811
144.629	16.135	997.958	767.176
145.643	16.173	996.533	766.182
146.658	15.974	995.596	764.491
147.673	15.918	994.561	763.375
148.687	15.874	993.800	762.527
149.702	15.929	992.647	761.823
150.716	15.886	991.754	760.874
151.731	15.764	991.295	759.906
152.746	15.884	990.191	759.533
153.760	15.899	989.506	759.008
154.775	15.892	989.606	758.983
155.789	16.037	988.500	758.720
156.804	16.020	987.560	757.858
157.819	16.067	986.897	757.491
158.833	16.144	986.393	757.384
159.848	16.250	985.483	757.095
160.862	16.126	984.648	755.832
161.877	15.914	983.432	753.883
162.892	15.890	982.441	752.947
163.906	15.813	981.642	751.925
164.921	15.810	980.445	750.927
165.935	15.993	979.462	750.921
166.950	16.045	978.661	750.473
167.964	16.075	977.917	749.969
168.979	15.875	976.982	748.300
169.994	15.955	976.270	748.044
171.008	16.040	975.626	747.859
172.023	16.155	974.650	747.558
173.037	16.016	974.694	746.908
174.052	16.147	973.095	746.196
175.067	16.038	972.799	745.420
176.081	16.029	971.850	744.589
177.096	15.996	971.294	743.951
178.110	15.988	970.914	743.558
179.125	16.034	970.089	743.064
180.140	16.055	969.941	742.977
181.154	16.030	969.254	742.275
182.169	16.138	968.505	742.111
183.183	16.246	968.199	742.284
184.198	16.366	966.830	741.695
185.213	16.270	966.660	741.080
186.227	16.415	965.602	740.841
187.242	16.429	965.260	740.573
188.256	16.470	964.500	740.101
189.271	16.342	963.868	738.992
190.286	16.299	962.520	737.705
191.300	16.069	961.615	735.944
192.315	15.939	961.297	735.067
193.329	15.954	960.757	734.653
194.344	16.037	960.059	734.419
195.359	16.355	959.528	735.329
196.373	16.327	959.005	734.743
197.388	16.393	958.789	734.798
198.402	16.414	958.417	734.541
199.417	16.507	957.543	734.209
200.432	16.705	956.818	734.447
201.446	16.658	956.504	733.937
202.461	16.637	955.853	733.283
203.475	16.660	955.283	732.878
204.490	16.572	954.387	731.745
205.504	16.571	953.194	730.762
206.519	16.579	952.204	729.973
207.534	16.597	952.057	729.877
208.548	16.531	951.357	728.991
209.563	16.341	951.014	727.841
210.577	16.468	950.289	727.772
211.592	16.614	949.478	727.715
212.607	16.692	948.632	727.333
213.621	16.572	947.602	725.966
214.636	16.679	946.995	725.895
215.650	16.740	946.717	725.880
216.665	16.779	945.751	725.240
217.680	16.825	945.015	724.812
218.694	16.897	944.408	724.588
219.709	16.813	943.840	723.730
220.723	16.748	943.060	722.789
221.738	16.780	942.220	722.221
222.753	16.803	941.694	721.849
223.767	16.783	941.461	721.520
224.782	16.887	940.692	721.312
225.796	17.003	939.745	721.016
226.811	16.988	939.291	720.538
227.826	16.760	938.697	719.051
228.840	16.722	937.857	718.184
229.855	16.837	936.566	717.620
230.869	16.866	936.066	717.295
231.884	16.833	935.361	716.550
232.899	16.752	934.514	715.496
233.913	16.570	934.055	714.313
234.928	16.651	933.081	713.847
235.942	16.525	932.827	713.057
236.957	16.750	931.837	713.187
237.972	16.685	931.658	712.711
238.986	16.733	930.636	712.069
240.001	16.804	930.029	711.838
241.015	16.815	929.459	711.387
242.030	16.882	929.405	711.565
243.045	16.835	928.756	710.806
244.059	16.827	928.005	710.137
245.074	16.874	927.074	709.558
246.088	16.973	926.344	709.348
247.103	17.001	925.841	709.018
248.117	17.126	925.612	709.301
249.132	17.297	924.969	709.459
250.147	17.361	924.151	709.037
251.161	17.489	923.693	709.155
252.176	17.458	923.024	708.450
253.190	17.449	922.036	707.593
254.205	17.578	921.256	707.469
255.220	17.596	920.818	707.143
256.234	17.416	920.624	706.183
257.249	17.531	919.347	705.618
258.263	17.478	918.699	704.842
259.278	17.580	918.197	704.814
260.293	17.558	917.619	704.219
261.307	17.625	917.290	704.179
262.322	17.646	916.591	703.667
263.336	17.700	915.496	702.989
264.351	17.648	914.680	702.085
265.366	17.747	914.436	702.242
266.380	17.720	913.673	701.482
267.395	17.645	912.597	700.285
268.409	17.636	911.865	699.628
269.424	17.545	911.313	698.769
270.439	17.580	910.444	698.182
271.453	17.518	909.844	697.406
272.468	17.512	909.229	696.849
273.482	17.566	908.773	696.660
274.497	17.634	908.113	696.368
275.512	17.634	907.366	695.733
276.526	17.572	907.181	695.280
277.541	17.703	906.500	695.231
278.555	17.694	906.141	694.855
279.570	17.793	905.324	694.569
280.585	17.789	904.259	693.676
281.599	17.803	903.579	693.150
282.614	17.798	902.523	692.256
283.628	17.597	902.367	691.262
284.643	17.805	901.661	691.503
285.657	17.608	901.290	690.362
286.672	17.755	900.196	690.054
287.687	17.890	899.703	690.164
288.701	17.784	899.288	689.356
289.716	17.714	898.705	688.565
290.730	17.716	898.324	688.220
291.745	17.895	897.329	688.116
292.760	17.866	896.766	687.507
293.774	17.946	896.210	687.342
294.789	18.016	895.244	686.824
295.803	17.943	894.501	685.897
296.818	17.744	894.173	684.786
297.833	17.688	893.353	683.875
298.847	17.901	892.737	684.196
299.862	17.923	892.243	683.847
300.876	17.943	891.599	683.371
301.891	18.068	891.294	683.576
302.906	17.977	890.705	682.699
303.920	18.315	889.916	683.385
304.935	18.237	889.440	682.647
305.949	18.290	888.534	682.102
306.964	18.122	888.036	680.990
307.979	18.146	887.624	680.711
308.993	18.299	887.047	680.816
310.008	18.202	886.489	679.941
311.022	18.136	885.846	679.128
312.037	18.101	885.147	678.393
313.052	18.066	884.264	677.516
314.066	18.073	883.723	677.071
315.081	17.980	883.476	676.451
316.095	18.157	882.383	676.254
317.110	18.025	881.994	675.374
318.125	18.142	881.194	675.165
319.139	18.067	880.860	674.555
320.154	18.132	880.328	674.344
321.168	18.170	880.387	674.480
322.183	18.076	879.263	673.188
323.197	18.126	878.889	673.038
324.212	18.194	878.636	673.054
325.227	18.237	877.520	672.306
326.241	18.200	876.932	671.652
327.256	18.031	876.460	670.568
328.270	18.092	875.970	670.373
329.285	18.111	875.118	669.734
330.300	18.184	874.466	669.463
331.314	18.208	874.035	669.167
332.329	18.357	873.434	669.233
333.343	18.521	873.078	669.542
334.358	18.419	872.683	668.780
335.373	18.386	872.628	668.550
336.387	18.347	872.314	668.097
337.402	18.490	872.053	668.397
338.416	18.439	871.826	667.966
339.431	18.708	871.201	668.474
340.446	18.631	870.847	667.841
341.460	18.645	870.434	667.524
342.475	18.780	869.918	667.593
343.489	18.759	869.425	667.073
344.504	18.833	868.795	666.817
345.519	18.705	868.708	666.194
346.533	18.712	867.779	665.450
347.548	18.569	867.588	664.692
348.562	18.630	866.784	664.252
349.577	18.466	866.086	663.025
350.592	18.471	865.304	662.388
351.606	18.630	864.064	661.993
352.621	18.557	863.918	661.540
353.635	18.637	863.539	661.498
354.650	18.676	862.871	661.080
355.665	18.715	861.921	660.443
356.679	18.750	861.466	660.170
357.694	18.760	860.884	659.707
358.708	18.742	860.402	659.209
359.723	18.761	859.176	658.285
360.738	18.746	859.007	658.037
361.752	18.808	858.437	657.780
362.767	18.936	857.987	657.868
363.781	18.950	857.034	657.133
364.796	19.139	856.724	657.559
365.810	19.200	856.534	657.588
366.825	19.300	855.987	657.490
367.840	19.150	855.269	656.309
368.854	19.070	854.991	655.734
369.869	19.134	854.878	655.832
370.883	19.122	853.928	654.998
371.898	19.034	854.084	654.725
372.913	19.151	853.494	654.661
373.927	19.129	852.871	654.044
374.942	19.142	852.230	653.544
375.956	19.193	852.125	653.596
376.971	19.400	851.348	653.729
377.986	19.322	851.193	653.256
379.000	19.415	850.432	652.965
380.015	19.388	849.943	652.432
381.029	19.403	849.185	651.847
382.044	19.278	849.170	651.305
383.059	19.389	847.996	650.767
384.073	19.354	847.846	650.463
385.088	19.155	846.773	648.833
386.102	19.286	846.145	648.785
387.117	19.164	846.006	648.163
388.132	19.158	845.027	647.333
389.146	19.235	844.524	647.178
390.161	19.185	844.449	646.876
391.175	19.497	843.575	647.319
392.190	19.318	843.247	646.339
393.205	19.367	842.707	646.053
394.219	19.188	842.383	645.079
395.234	19.177	842.081	644.748
396.248	19.238	841.618	644.562
397.263	19.138	840.770	643.485
398.278	19.063	840.645	643.050
399.292	19.139	840.084	642.849
400.307	19.243	839.397	642.656
401.321	19.240	839.123	642.377
402.336	19.403	838.229	642.242
403.350	19.417	838.137	642.168
404.365	19.538	837.517	642.084
405.380	19.555	837.119	641.785
406.394	19.564	836.468	641.266
407.409	19.621	836.207	641.221
408.423	19.828	835.760	641.589
409.438	19.735	835.554	641.028
410.453	19.716	835.211	640.638
411.467	19.913	834.613	640.850
412.482	19.874	834.318	640.423
413.496	19.910	834.209	640.416
414.511	19.795	833.592	639.461
415.526	19.890	832.987	639.293
416.540	19.894	832.456	638.840
417.555	19.873	832.064	638.408
418.569	20.011	831.516	638.441
419.584	19.867	831.039	637.484
420.599	19.887	830.856	637.361
421.613	150.142	1365.354	1763.480
422.628	131.060	1443.283	1763.614
