DTS Sentinel unit serial number:	SN413079Multiplexer serial number:	ORYXHardware model number:	OX4-SRSoftware version number:	ORYX F/W v4.00 Oryx Data Collector v3.7.2.0data status	okinstallation	princeton_trtdifferential loss correction	single-endedforward channel	channel 1reverse channel	N/Adate	2019/09/13time	17:58:35forward acquisition time	60.00reverse acquisition time	0.00gamma	496.2192k internal	0.2307k external	0.2307temperature offset calibration	1.0145default loss term (dB/km)	0.3790temperature slope calibration	1.0000multiplexer offset coefficient	1.0000multiplexer slope coefficient	1.0000fibre end	0.00T internal ref (°C)	35.08T ext. ref 1 (°C)	4.78T ext. ref 2 (°C)	27.91length (m)	temperature (°C)	Stokes	anti-Stokes-747.200	-200.000	0.017	0.235
-746.185	-200.000	-0.027	0.125
-745.171	800.000	-0.025	-0.083
-744.156	-92.685	-0.269	0.077
-743.142	-200.000	0.038	0.213
-742.127	88.312	-0.142	0.161
-741.112	39.473	0.199	-0.181
-740.098	331.434	-0.053	-0.103
-739.083	-200.000	0.043	0.276
-738.069	-86.656	-0.071	-0.022
-737.054	-50.480	-0.266	0.128
-736.039	-142.405	-0.371	0.037
-735.025	-59.860	-0.039	0.017
-734.010	-200.000	0.134	-0.627
-732.996	-40.091	-0.366	-0.194
-731.981	-70.342	0.063	-0.024
-730.966	-200.000	-0.014	-0.255
-729.952	800.000	-0.062	-0.215
-728.937	151.157	-0.014	-0.020
-727.923	-200.000	-0.024	-0.214
-726.908	252.393	-0.165	0.285
-725.894	7.837	0.199	-0.151
-724.879	-200.000	-0.013	0.317
-723.864	-200.000	-0.045	-0.377
-722.850	-200.000	0.025	-0.147
-721.835	-134.754	-0.539	-0.066
-720.821	-196.088	0.220	-0.002
-719.806	-200.000	0.004	-0.066
-718.791	800.000	-0.150	-0.437
-717.777	800.000	-0.036	-0.130
-716.762	-72.218	0.326	0.123
-715.748	-170.417	0.046	0.002
-714.733	-200.000	0.065	-0.642
-713.718	-39.111	0.195	-0.104
-712.704	-71.466	-0.055	-0.021
-711.689	-103.631	-0.148	-0.035
-710.675	-200.000	-0.004	0.185
-709.660	-7.046	0.169	-0.117
-708.645	37.327	0.045	-0.041
-707.631	-102.482	-0.317	0.077
-706.616	800.000	-0.059	0.167
-705.602	333.712	0.042	-0.082
-704.587	213.731	0.034	0.055
-703.572	75.976	-0.178	-0.191
-702.558	-27.793	-0.246	0.145
-701.543	-53.310	-0.315	-0.147
-700.529	84.188	-0.116	0.129
-699.514	-71.259	0.254	0.097
-698.499	-200.000	0.010	-0.114
-697.485	398.600	0.155	-0.329
-696.470	800.000	0.053	0.189
-695.456	-53.896	-0.040	0.019
-694.441	-49.458	-0.072	-0.035
-693.426	-60.673	-0.103	0.044
-692.412	438.245	0.057	0.127
-691.397	-67.725	0.149	0.059
-690.383	-141.236	-0.114	-0.012
-689.368	-200.000	-0.025	0.193
-688.354	183.618	-0.188	0.282
-687.339	489.397	-0.059	0.136
-686.324	248.447	-0.147	0.252
-685.310	800.000	-0.119	-0.388
-684.295	-129.761	0.204	-0.028
-683.281	-73.044	-0.189	0.070
-682.266	-60.479	-0.219	-0.095
-681.251	-39.691	0.118	0.063
-680.237	22.023	0.125	-0.104
-679.222	-134.401	0.148	-0.018
-678.208	-64.552	0.299	-0.123
-677.193	-198.990	-0.320	-0.002
-676.178	-200.000	-0.020	-0.187
-675.164	-200.000	-0.004	-0.118
-674.149	-146.637	-0.073	0.006
-673.135	-89.574	0.099	0.029
-672.120	42.066	-0.088	0.081
-671.105	34.979	-0.050	-0.044
-670.091	-87.759	0.098	0.030
-669.076	207.023	0.170	-0.269
-668.062	82.138	0.186	0.205
-667.047	800.000	-0.119	-0.363
-666.032	416.194	0.064	-0.139
-665.018	-144.901	-0.197	-0.018
-664.003	85.273	0.166	0.184
-662.989	-111.317	-0.146	0.030
-661.974	-97.996	0.292	0.076
-660.959	-43.796	0.103	-0.052
-659.945	165.893	0.239	0.343
-658.930	800.000	0.141	0.412
-657.916	275.125	-0.044	0.079
-656.901	-200.000	-0.005	0.039
-655.886	-158.074	0.193	-0.012
-654.872	-138.142	0.030	-0.003
-653.857	-200.000	-0.004	-0.184
-652.843	800.000	0.052	0.191
-651.828	800.000	-0.034	0.107
-650.814	6.341	-0.224	-0.169
-649.799	-151.382	-0.141	-0.011
-648.784	-200.000	-0.031	0.349
-647.770	320.470	0.109	0.210
-646.755	-79.706	0.125	-0.043
-645.741	-136.070	-0.098	-0.012
-644.726	-27.334	0.275	-0.162
-643.711	52.135	0.071	-0.068
-642.697	-43.388	0.369	-0.189
-641.682	5.995	-0.057	0.043
-640.668	182.280	-0.016	-0.024
-639.653	-200.000	0.032	0.231
-638.638	262.418	0.205	-0.360
-637.624	-99.805	0.256	0.065
-636.609	-54.050	-0.103	-0.048
-635.595	-148.401	-0.355	-0.029
-634.580	-4.597	-0.155	0.108
-633.565	68.722	0.245	0.254
-632.551	250.547	0.168	0.290
-631.536	87.077	0.143	-0.160
-630.522	435.674	0.202	-0.444
-629.507	512.030	-0.054	-0.128
-628.492	-200.000	0.052	0.352
-627.478	-109.757	-0.124	0.026
-626.463	800.000	-0.058	0.209
-625.449	800.000	-0.072	0.248
-624.434	17.142	-0.147	-0.118
-623.419	94.322	-0.152	-0.175
-622.405	-200.000	0.069	0.403
-621.390	150.228	0.165	-0.226
-620.376	-200.000	-0.002	0.064
-619.361	105.177	-0.233	-0.278
-618.346	314.947	0.170	0.325
-617.332	-91.083	-0.109	0.032
-616.317	800.000	0.041	0.122
-615.303	-200.000	-0.024	-0.214
-614.288	800.000	0.105	-0.300
-613.273	-69.625	0.149	0.058
-612.259	-78.817	0.142	-0.049
-611.244	733.222	0.185	0.500
-610.230	215.564	-0.131	-0.210
-609.215	-200.000	0.011	0.221
-608.201	-125.725	0.190	0.029
-607.186	-150.729	-0.448	0.035
-606.171	-154.306	-0.048	-0.003
-605.157	800.000	-0.017	-0.057
-604.142	-89.632	0.134	0.040
-603.128	2.850	0.249	0.183
-602.113	-27.839	-0.137	-0.080
-601.098	243.575	-0.037	0.063
-600.084	-2.385	0.065	0.046
-599.069	389.264	0.159	0.333
-598.055	-152.722	-0.233	0.017
-597.040	-101.075	0.202	0.050
-596.025	192.301	-0.045	-0.069
-595.011	546.357	-0.123	-0.296
-593.996	748.823	-0.097	-0.263
-592.982	-200.000	-0.017	-0.099
-591.967	130.656	0.055	-0.071
-590.952	-31.616	0.020	-0.011
-589.938	109.516	0.155	0.187
-588.923	-126.987	-0.053	-0.008
-587.909	-13.111	0.246	0.162
-586.894	-200.000	0.020	-0.186
-585.879	800.000	-0.071	0.214
-584.865	800.000	0.037	-0.114
-583.850	311.632	0.192	0.364
-582.836	789.816	-0.074	-0.206
-581.821	800.000	-0.049	-0.151
-580.806	-200.000	0.003	0.194
-579.792	195.888	-0.221	0.340
-578.777	373.627	-0.085	-0.176
-577.763	-69.469	0.169	-0.065
-576.748	-200.000	0.027	0.153
-575.733	-31.893	-0.272	-0.154
-574.719	-148.416	-0.232	-0.019
-573.704	76.521	-0.054	0.058
-572.690	156.691	0.149	0.208
-571.675	34.091	-0.086	0.076
-570.661	83.908	-0.265	-0.292
-569.646	-200.000	-0.010	0.075
-568.631	-200.000	-0.016	0.283
-567.617	-23.875	0.201	0.121
-566.602	121.455	0.188	0.236
-565.588	16.657	0.308	-0.246
-564.573	89.374	0.251	0.283
-563.558	-129.920	-0.075	0.010
-562.544	-11.597	-0.226	0.150
-561.529	83.086	-0.279	-0.307
-560.515	-156.747	-0.425	0.026
-559.500	51.742	0.219	0.210
-558.485	-200.000	-0.020	0.288
-557.471	-1.084	0.319	0.228
-556.456	-200.000	0.021	-0.396
-555.442	800.000	0.061	-0.223
-554.427	33.308	-0.267	0.234
-553.412	-0.716	-0.113	0.081
-552.398	441.824	-0.048	0.106
-551.383	800.000	0.037	0.135
-550.369	-200.000	0.042	-0.213
-549.354	-36.293	0.235	0.128
-548.339	31.327	-0.093	0.080
-547.325	-58.034	0.103	-0.045
-546.310	800.000	0.040	-0.151
-545.296	-158.900	0.230	-0.013
-544.281	-165.543	0.299	0.013
-543.266	-60.053	-0.274	0.118
-542.252	50.562	0.116	-0.110
-541.237	127.143	-0.052	-0.066
-540.223	-54.460	-0.160	-0.073
-539.208	530.036	0.096	0.228
-538.193	25.243	0.037	-0.031
-537.179	285.668	0.122	0.222
-536.164	195.322	-0.015	-0.023
-535.150	-96.203	-0.150	-0.040
-534.135	-199.242	0.455	0.002
-533.121	657.210	0.057	-0.149
-532.106	-181.791	-0.295	0.006
-531.091	-200.000	0.026	0.117
-530.077	-113.295	-0.067	-0.013
-529.062	114.209	-0.125	0.153
-528.048	289.821	0.145	0.265
-527.033	-25.239	0.259	-0.155
-526.018	436.528	0.118	-0.259
-525.004	-2.564	-0.128	-0.091
-523.989	800.000	0.041	0.180
-522.975	67.519	0.073	-0.075
-521.960	-56.292	0.222	-0.099
-520.945	-200.000	0.004	0.019
-519.931	48.082	0.251	0.237
-518.916	-200.000	0.050	-0.393
-517.902	-153.085	-0.311	-0.022
-516.887	-200.000	0.020	0.103
-515.872	-101.980	-0.129	-0.031
-514.858	-200.000	0.054	0.267
-513.843	-200.000	0.004	0.118
-512.829	184.716	0.040	0.059
-511.814	-63.455	-0.352	0.146
-510.799	52.576	-0.344	-0.331
-509.785	-8.854	0.264	0.178
-508.770	473.864	-0.112	-0.255
-507.756	-8.184	0.174	-0.118
-506.741	-54.967	0.206	0.093
-505.726	-157.078	-0.032	0.002
-504.712	-72.132	-0.237	-0.089
-503.697	-12.089	0.224	0.148
-502.683	79.784	-0.386	0.417
-501.668	-200.000	-0.040	0.197
-500.653	385.856	-0.078	-0.161
-499.639	-10.406	-0.104	-0.070
-498.624	800.000	-0.065	0.218
-497.610	800.000	-0.063	0.217
-496.595	118.749	-0.126	0.157
-495.581	-60.743	-0.215	0.092
-494.566	287.521	0.054	-0.098
-493.551	86.992	-0.072	0.080
-492.537	-71.997	-0.255	-0.095
-491.522	800.000	-0.046	0.152
-490.508	-93.895	0.063	0.018
-489.493	-20.441	-0.053	-0.033
-488.478	-88.556	-0.175	0.053
-487.464	103.613	0.124	0.147
-486.449	-108.349	0.154	-0.033
-485.435	-98.265	0.107	-0.028
-484.420	-164.546	0.120	0.006
-483.405	-155.175	0.250	-0.016
-482.391	-200.000	-0.039	0.268
-481.376	293.077	0.134	-0.247
-480.362	303.131	0.189	-0.352
-479.347	88.863	-0.167	-0.187
-478.332	-200.000	-0.007	0.347
-477.318	-200.000	-0.013	0.179
-476.303	-5.488	-0.113	-0.078
-475.289	621.133	-0.044	0.112
-474.274	226.025	0.142	0.232
-473.259	179.815	0.090	0.133
-472.245	-93.194	-0.117	0.033
-471.230	47.160	0.246	-0.230
-470.216	-110.904	-0.166	-0.034
-469.201	-112.096	-0.214	-0.043
-468.186	-113.397	-0.266	0.053
-467.172	-86.398	-0.302	0.093
-466.157	-200.000	-0.005	-0.208
-465.143	728.246	0.196	0.527
-464.128	-98.650	-0.205	-0.053
-463.113	179.231	-0.100	-0.147
-462.099	-84.862	0.159	0.050
-461.084	-33.746	0.302	0.168
-460.070	-58.264	-0.315	0.138
-459.055	-140.112	0.315	-0.033
-458.040	-116.766	0.249	0.046
-457.026	-200.000	-0.032	0.292
-456.011	227.804	-0.018	0.029
-454.997	-138.222	0.181	0.020
-453.982	80.605	0.167	0.181
-452.968	-61.733	-0.141	0.060
-451.953	-200.000	0.024	-0.127
-450.938	80.231	0.216	-0.233
-449.924	-200.000	-0.018	-0.459
-448.909	-1.893	-0.091	-0.064
-447.895	-200.000	0.060	-0.410
-446.880	-90.199	-0.151	-0.044
-445.865	-143.217	-0.166	0.016
-444.851	-200.000	-0.018	-0.303
-443.836	-185.712	0.313	-0.005
-442.822	-105.507	0.369	-0.084
-441.807	13.850	-0.123	-0.096
-440.792	-200.000	-0.019	-0.459
-439.778	385.383	0.055	-0.114
-438.763	-60.342	-0.290	-0.124
-437.749	-200.000	0.023	0.372
-436.734	-170.936	-0.128	-0.004
-435.719	25.968	-0.089	0.075
-434.705	245.362	-0.024	-0.040
-433.690	-55.122	-0.207	-0.094
-432.676	219.916	-0.041	0.066
-431.661	-121.967	-0.153	0.025
-430.646	800.000	-0.060	0.191
-429.632	-92.542	0.152	0.043
-428.617	296.498	-0.233	-0.428
-427.603	278.487	0.136	-0.243
-426.588	800.000	-0.058	0.187
-425.573	-60.631	0.180	0.077
-424.559	-106.280	-0.155	0.035
-423.544	-54.381	0.245	0.112
-422.530	-200.000	0.020	0.122
-421.515	139.464	-0.241	-0.319
-420.500	-105.993	-0.215	-0.048
-419.486	-200.000	0.016	-0.220
-418.471	26.342	-0.170	-0.143
-417.457	-200.000	-0.025	-0.126
-416.442	-8.220	0.065	0.044
-415.428	-134.728	-0.244	-0.030
-414.413	-46.835	-0.287	0.141
-413.398	169.931	-0.173	0.248
-412.384	214.165	-0.158	0.251
-411.369	-200.000	-0.005	-0.043
-410.355	318.505	0.117	0.222
-409.340	19.423	-0.191	0.154
-408.325	-138.075	0.027	0.003
-407.311	-58.493	0.385	-0.168
-406.296	-62.549	0.149	0.062
-405.282	-15.452	-0.146	0.093
-404.267	-96.055	0.197	-0.052
-403.252	-54.410	0.204	0.093
-402.238	800.000	-0.047	-0.159
-401.223	-147.777	-0.353	-0.030
-400.209	140.704	0.275	-0.364
-399.194	-58.507	0.056	0.024
-398.179	630.363	0.097	-0.246
-397.165	-200.000	0.017	-0.225
-396.150	-61.720	0.165	-0.069
-395.136	-113.992	0.183	0.036
-394.121	0.889	0.182	0.131
-393.106	-70.005	0.227	-0.087
-392.092	20.479	-0.036	-0.029
-391.077	204.123	0.119	-0.186
-390.063	158.433	-0.231	-0.322
-389.048	-124.955	0.158	-0.024
-388.033	287.015	-0.156	-0.283
-387.019	-200.000	0.076	-0.356
-386.004	215.665	0.103	-0.164
-384.990	346.710	-0.039	-0.076
-383.975	-65.784	0.325	-0.130
-382.960	-200.000	-0.001	-0.170
-381.946	146.855	0.089	0.119
-380.931	800.000	0.102	-0.294
-379.917	-200.000	0.021	-0.203
-378.902	-5.568	0.339	-0.233
-377.888	-173.191	0.250	-0.008
-376.873	147.104	-0.143	-0.193
-375.858	-107.166	-0.227	-0.050
-374.844	-11.553	0.351	-0.231
-373.829	-32.222	0.241	0.135
-372.815	-200.000	-0.003	0.143
-371.800	-51.231	-0.145	0.068
-370.785	97.335	-0.153	-0.177
-369.771	577.373	-0.073	0.179
-368.756	9.363	-0.139	0.105
-367.742	228.809	-0.110	-0.180
-366.727	-16.635	0.180	-0.114
-365.712	800.000	0.053	-0.183
-364.698	67.559	0.279	-0.286
-363.683	-200.000	0.009	0.121
-362.669	489.237	0.049	0.112
-361.654	-130.876	0.217	0.029
-360.639	-65.308	-0.137	0.055
-359.625	-106.150	0.086	0.019
-358.610	-97.758	0.186	-0.048
-357.596	-21.421	-0.166	0.101
-356.581	174.049	-0.128	0.186
-355.566	-48.450	-0.241	0.116
-354.552	-34.443	-0.212	0.117
-353.537	-66.779	0.328	-0.130
-352.523	0.867	-0.324	0.233
-351.508	-52.427	-0.218	-0.101
-350.493	-151.450	0.281	-0.021
-349.479	-200.000	0.017	-0.129
-348.464	-34.433	-0.367	-0.202
-347.450	-200.000	-0.009	-0.226
-346.435	-200.000	0.012	0.148
-345.420	53.471	-0.131	-0.126
-344.406	800.000	0.042	-0.171
-343.391	-200.000	-0.018	-0.374
-342.377	319.169	0.068	-0.130
-341.362	50.936	-0.177	-0.168
-340.348	49.015	-0.381	0.358
-339.333	-148.297	0.091	0.007
-338.318	27.819	-0.243	-0.205
-337.304	-200.000	0.010	0.222
-336.289	146.029	-0.143	-0.192
-335.275	-200.000	-0.022	-0.133
-334.260	-157.585	-0.446	-0.027
-333.245	-200.000	0.010	-0.120
-332.231	-200.000	-0.013	0.059
-331.216	710.926	0.160	-0.423
-330.202	-141.416	0.253	-0.026
-329.187	-80.409	-0.451	-0.151
-328.172	-200.000	0.031	-0.148
-327.158	26.358	0.126	0.105
-326.143	-41.140	-0.290	0.150
-325.129	-96.825	0.210	-0.055
-324.114	-55.338	-0.050	0.022
-323.099	-121.082	-0.375	0.063
-322.085	316.825	-0.123	-0.232
-321.070	800.000	0.030	0.093
-320.056	800.000	0.049	-0.162
-319.041	800.000	-0.019	-0.057
-318.026	-200.000	0.029	0.317
-317.012	3.560	-0.167	0.122
-315.997	800.000	-0.074	-0.233
-314.983	-200.000	0.017	0.102
-313.968	-40.830	0.198	0.102
-312.953	-138.268	-0.329	0.036
-311.939	277.877	-0.053	0.095
-310.924	16.200	-0.228	0.179
-309.910	497.319	0.152	0.349
-308.895	-45.065	-0.166	0.082
-307.880	-158.841	0.380	0.022
-306.866	-128.185	0.056	0.008
-305.851	425.465	0.096	0.208
-304.837	1.000	-0.049	-0.035
-303.822	690.945	-0.148	0.387
-302.807	-9.337	-0.164	-0.109
-301.793	-200.000	0.026	-0.177
-300.778	-125.053	-0.108	0.017
-299.764	49.690	-0.121	-0.114
-298.749	-28.463	0.180	-0.104
-297.735	-200.000	0.012	-0.129
-296.720	-93.345	-0.188	-0.052
-295.705	-200.000	-0.014	0.192
-294.691	-106.840	0.292	0.065
-293.676	-19.841	-0.115	-0.071
-292.662	92.680	0.137	-0.154
-291.647	-200.000	-0.025	0.233
-290.632	171.687	0.049	0.071
-289.618	46.410	-0.230	0.213
-288.603	-200.000	-0.005	0.263
-287.589	-200.000	-0.024	0.254
-286.574	603.059	-0.081	0.201
-285.559	-68.464	0.217	0.084
-284.545	-103.236	-0.015	-0.003
-283.530	800.000	-0.117	0.488
-282.516	-200.000	-0.017	0.263
-281.501	800.000	0.187	0.545
-280.486	195.355	0.190	-0.289
-279.472	-200.000	-0.020	-0.516
-278.457	95.226	0.027	0.031
-277.443	800.000	0.074	0.247
-276.428	-83.035	-0.235	0.076
-275.413	-139.756	0.166	-0.018
-274.399	-98.662	0.119	0.030
-273.384	-102.753	0.264	0.063
-272.370	630.666	0.062	-0.156
-271.355	87.109	-0.205	-0.226
-270.340	-68.694	0.221	0.085
-269.326	-175.199	0.220	-0.006
-268.311	-200.000	-0.007	0.358
-267.297	302.173	-0.062	-0.114
-266.282	-57.032	-0.236	0.104
-265.267	-90.451	0.329	0.095
-264.253	-87.845	0.077	-0.023
-263.238	51.366	-0.386	0.366
-262.224	-152.712	0.338	-0.024
-261.209	360.530	0.138	0.276
-260.195	113.388	-0.179	0.217
-259.180	800.000	-0.045	-0.165
-258.165	726.610	-0.109	-0.289
-257.151	227.437	0.175	0.284
-256.136	-163.906	-0.215	0.010
-255.122	-157.710	-0.210	-0.012
-254.107	-200.000	0.035	0.226
-253.092	87.813	-0.188	-0.208
-252.078	-139.636	0.249	0.026
-251.063	-35.595	-0.209	0.113
-250.049	89.430	0.088	-0.098
-249.034	-92.314	-0.281	0.079
-248.019	-200.000	-0.033	0.264
-247.005	-200.000	-0.000	-0.032
-245.990	800.000	0.030	0.123
-244.976	800.000	-0.027	0.083
-243.961	-12.692	-0.191	-0.124
-242.946	-37.755	-0.114	-0.061
-241.932	250.945	-0.042	0.071
-240.917	800.000	0.129	-0.380
-239.903	16.845	-0.188	-0.149
-238.888	18.437	0.134	-0.107
-237.873	-200.000	0.002	-0.287
-236.859	-6.482	0.080	-0.055
-235.844	-23.230	0.258	-0.154
-234.830	-35.430	-0.279	-0.151
-233.815	264.075	-0.155	-0.269
-232.800	-200.000	-0.058	0.272
-231.786	-90.596	0.102	0.029
-230.771	102.723	0.315	0.367
-229.757	186.800	-0.047	0.069
-228.742	8.659	-0.195	0.147
-227.727	-200.000	-0.057	0.293
-226.713	89.521	-0.198	0.220
-225.698	319.974	-0.149	-0.282
-224.684	-105.677	-0.030	-0.007
-223.669	-200.000	-0.010	0.227
-222.655	800.000	-0.042	-0.121
-221.640	-21.421	0.307	-0.186
-220.625	143.125	-0.143	0.190
-219.611	1.784	0.336	0.241
-218.596	-200.000	-0.041	-0.274
-217.582	-112.722	0.591	-0.117
-216.567	-18.810	-0.045	0.028
-215.552	-152.666	-0.269	-0.019
-214.538	161.302	-0.188	-0.262
-213.523	297.534	-0.127	0.232
-212.509	-77.724	0.303	0.104
-211.494	-104.406	-0.333	-0.077
-210.479	477.101	-0.024	-0.054
-209.465	216.352	0.167	0.265
-208.450	-23.070	-0.150	0.090
-207.436	-20.287	-0.169	-0.104
-206.421	485.987	-0.193	-0.438
-205.406	-27.694	-0.496	0.286
-204.392	343.909	0.133	-0.260
-203.377	95.999	0.216	-0.245
-202.363	-200.000	-0.005	-0.058
-201.348	-200.000	0.041	-0.205
-200.333	97.104	-0.022	0.025
-199.319	60.471	0.129	-0.127
-198.304	-98.445	0.284	-0.072
-197.290	-98.155	-0.643	-0.165
-196.275	375.472	-0.102	-0.206
-195.260	-12.671	0.201	0.130
-194.246	-200.000	-0.017	-0.132
-193.231	415.958	0.161	-0.341
-192.217	-10.988	0.145	0.095
-191.202	450.687	0.054	0.118
-190.187	-200.000	0.006	0.088
-189.173	-131.854	0.246	0.032
-188.158	-12.758	0.294	0.190
-187.144	339.564	0.218	0.422
-186.129	224.282	-0.066	-0.106
-185.114	49.722	-0.205	-0.192
-184.100	43.733	-0.148	0.135
-183.085	-101.602	0.253	0.061
-182.071	-120.559	-0.061	-0.010
-181.056	-200.000	0.069	-0.357
-180.042	278.939	-0.115	0.204
-179.027	301.660	-0.148	0.272
-178.012	387.860	0.063	0.129
-176.998	-64.591	0.240	0.097
-175.983	322.285	0.141	-0.267
-174.969	-95.427	0.048	-0.013
-173.954	772.432	-0.022	-0.061
-172.939	-200.000	0.023	0.112
-171.925	45.229	0.233	-0.214
-170.910	-192.235	0.197	-0.002
-169.896	-151.483	-0.191	-0.014
-168.881	277.599	-0.119	0.210
-167.866	323.352	-0.093	-0.176
-166.852	319.081	-0.011	0.020
-165.837	800.000	0.068	0.200
-164.823	800.000	0.027	-0.094
-163.808	-148.547	-0.102	-0.008
-162.793	-63.623	0.242	-0.099
-161.779	-200.000	-0.031	-0.286
-160.764	-85.973	-0.198	-0.061
-159.750	12.518	0.195	-0.149
-158.735	-200.000	-0.030	-0.156
-157.720	800.000	-0.166	0.465
-156.706	652.048	0.051	0.131
-155.691	32.483	0.085	0.073
-154.677	-200.000	-0.050	-0.239
-153.662	81.908	-0.301	-0.324
-152.647	93.523	0.284	-0.319
-151.633	261.845	0.099	-0.170
-150.618	800.000	0.023	-0.073
-149.604	332.343	0.109	-0.209
-148.589	10.186	0.107	0.081
-147.574	102.239	-0.103	0.120
-146.560	-106.637	0.172	-0.038
-145.545	501.190	0.098	0.226
-144.531	-200.000	0.022	-0.273
-143.516	-200.000	0.012	-0.193
-142.502	-74.280	0.270	-0.097
-141.487	-119.862	0.100	0.017
-140.472	-17.128	-0.041	0.026
-139.458	-49.514	0.223	-0.105
-138.443	249.899	0.057	-0.097
-137.429	333.201	-0.204	-0.392
-136.414	800.000	-0.057	0.207
-135.399	-34.010	-0.329	0.180
-134.385	62.398	0.098	0.098
-133.370	266.490	-0.097	0.169
-132.356	-111.260	0.174	0.035
-131.341	127.657	-0.259	0.327
-130.326	-179.329	-0.172	0.004
-129.312	-115.017	-0.353	-0.066
-128.297	6.300	0.386	0.285
-127.283	-200.000	-0.057	0.250
-126.268	-30.867	0.211	-0.118
-125.253	-118.309	-0.132	0.023
-124.239	117.169	-0.073	0.089
-123.224	800.000	-0.007	0.028
-122.210	-75.737	0.279	-0.098
-121.195	351.597	0.093	0.182
-120.180	567.685	-0.164	0.395
-119.166	-76.164	-0.354	-0.124
-118.151	-20.455	-0.096	0.058
-117.137	-200.000	0.041	-0.324
-116.122	176.880	-0.112	0.162
-115.107	-77.485	0.323	0.111
-114.093	25.275	-0.313	0.258
-113.078	95.234	0.051	0.057
-112.064	-92.830	0.124	0.035
-111.049	-113.552	-0.267	0.052
-110.034	-114.786	0.168	-0.032
-109.020	-153.685	-0.174	-0.012
-108.005	236.579	0.251	-0.412
-106.991	-200.000	0.009	0.239
-105.976	401.319	0.035	-0.073
-104.962	800.000	0.046	-0.127
-103.947	-83.908	-0.322	-0.102
-102.932	120.421	-0.308	0.379
-101.918	162.727	0.263	0.366
-100.903	-16.161	0.304	0.191
-99.889	6.329	0.247	0.181
-98.874	-50.562	-0.144	0.067
-97.859	-144.347	0.407	-0.037
-96.845	-13.171	-0.445	-0.287
-95.830	278.642	0.078	-0.138
-94.816	137.907	0.179	0.233
-93.801	-200.000	0.023	0.283
-92.786	76.773	0.222	-0.233
-91.772	68.379	0.333	0.338
-90.757	646.681	-0.092	0.233
-89.743	-143.253	0.138	-0.013
-88.728	-36.204	0.095	0.051
-87.713	249.678	0.041	0.069
-86.699	-120.199	0.616	0.104
-85.684	104.350	0.211	0.246
-84.670	-133.347	0.058	0.007
-83.655	265.079	0.077	0.133
-82.640	-4.479	0.127	0.087
-81.626	293.591	0.103	0.186
-80.611	-143.533	-0.351	0.033
-79.597	-74.747	0.119	0.042
-78.582	163.951	-0.201	0.280
-77.567	800.000	-0.080	0.311
-76.553	800.000	-0.062	0.235
-75.538	254.298	-0.213	0.361
-74.524	188.183	0.210	-0.311
-73.509	-102.973	-0.228	0.054
-72.494	-57.674	0.160	-0.069
-71.480	16.635	0.092	-0.072
-70.465	-111.707	0.085	0.017
-69.451	-33.535	0.131	-0.072
-68.436	-200.000	-0.055	-0.250
-67.422	-157.193	-0.216	0.013
-66.407	800.000	-0.054	0.206
-65.392	-134.018	-0.217	-0.027
-64.378	800.000	0.079	0.321
-63.363	-45.616	-0.259	0.127
-62.349	-14.804	0.239	0.152
-61.334	-10.308	-1.067	-0.701
-60.319	607.692	0.168	0.416
-59.305	139.427	-0.550	-0.716
-58.290	163.541	0.679	0.945
-57.276	193.030	0.889	1.331
-56.261	-200.000	98.138	590.377
-55.246	647.890	1398.671	3539.137
-54.232	186.265	2605.346	3836.405
-53.217	123.679	2177.401	2703.940
-52.203	47.063	1628.577	1499.381
-51.188	38.613	1364.149	1204.228
-50.173	35.376	1321.316	1147.050
-49.159	57.880	1370.765	1327.417
-48.144	62.127	1388.271	1370.087
-47.130	38.993	1342.391	1187.130
-46.115	35.243	1324.263	1148.631
-45.100	35.062	1319.923	1143.738
-44.086	34.905	1317.343	1140.524
-43.071	34.903	1315.260	1138.662
-42.057	34.868	1313.458	1136.849
-41.042	34.953	1311.843	1135.907
-40.027	35.109	1309.824	1135.043
-39.013	34.994	1308.245	1132.946
-37.998	34.949	1306.452	1131.086
-36.984	35.074	1304.473	1130.063
-35.969	35.039	1302.722	1128.297
-34.954	35.246	1300.577	1127.608
-33.940	35.139	1299.983	1126.419
-32.925	35.106	1298.735	1125.104
-31.911	35.115	1297.097	1123.692
-30.896	35.128	1295.436	1122.283
-29.881	35.216	1294.052	1121.556
-28.867	35.145	1292.931	1120.126
-27.852	35.185	1291.486	1119.063
-26.838	35.308	1289.748	1118.231
-25.823	35.171	1288.837	1116.595
-24.809	35.091	1287.380	1114.826
-23.794	35.122	1286.094	1113.847
-22.779	35.155	1284.433	1112.556
-21.765	35.151	1283.321	1111.522
-20.750	35.211	1281.483	1110.234
-19.736	35.097	1280.701	1108.855
-18.721	35.070	1279.789	1107.866
-17.706	35.110	1278.555	1106.986
-16.692	34.920	1277.226	1104.692
-15.677	34.879	1276.388	1103.687
-14.663	35.061	1274.936	1103.436
-13.648	34.959	1274.121	1102.099
-12.633	35.058	1273.178	1101.808
-11.619	35.027	1271.879	1100.461
-10.604	35.105	1271.000	1100.105
-9.590	35.040	1270.104	1098.916
-8.575	35.035	1269.156	1098.025
-7.560	35.015	1268.475	1097.276
-6.546	34.939	1268.246	1096.600
-5.531	35.026	1266.453	1095.499
-4.517	34.998	1265.803	1094.738
-3.502	34.998	1265.379	1094.324
-2.487	35.020	1264.169	1093.360
-1.473	34.972	1259.853	1089.311
-0.458	32.995	1243.780	1064.248
0.556	29.738	1223.209	1015.417
1.571	24.668	1226.072	989.713
2.586	23.126	1239.580	991.892
3.600	21.854	1227.543	975.104
4.615	16.382	1156.495	889.841
5.629	8.586	1082.225	794.057
6.644	4.967	1061.897	761.419
7.659	4.731	1059.362	758.385
8.673	4.696	1058.543	757.560
9.688	4.717	1057.010	756.502
10.702	4.845	1055.354	755.871
11.717	8.812	1061.276	779.373
12.731	16.805	1072.043	826.340
13.746	21.136	1077.397	851.573
14.761	21.317	1076.831	851.937
15.775	20.352	1075.291	845.941
16.790	19.384	1073.095	839.427
17.804	18.744	1071.292	834.835
18.819	18.402	1070.356	832.368
19.834	18.103	1069.831	830.433
20.848	18.067	1068.909	829.474
21.863	17.917	1067.800	827.808
22.877	17.781	1067.065	826.508
23.892	17.815	1066.410	826.093
24.907	17.762	1065.616	825.146
25.921	17.666	1064.943	824.088
26.936	17.634	1063.477	822.729
27.950	17.710	1061.906	821.807
28.965	17.794	1060.272	820.873
29.980	17.930	1059.241	820.654
30.994	18.087	1058.058	820.418
32.009	18.026	1057.504	819.628
33.023	18.031	1056.620	818.891
34.038	17.927	1055.140	817.176
35.053	17.663	1054.588	815.411
36.067	17.764	1053.622	815.075
37.082	17.912	1052.735	815.025
38.096	18.031	1052.110	815.037
39.111	17.993	1051.037	813.952
40.126	17.881	1049.641	812.265
41.140	17.662	1048.383	810.180
42.155	17.502	1047.287	808.502
43.169	17.415	1046.519	807.423
44.184	17.563	1044.863	806.776
45.199	17.486	1044.082	805.736
46.213	17.661	1043.236	805.837
47.228	17.689	1042.463	805.304
48.242	17.718	1041.720	804.797
49.257	17.828	1040.398	804.223
50.271	17.921	1039.673	804.029
51.286	17.835	1039.289	803.257
52.301	17.847	1037.955	802.210
53.315	17.779	1036.815	800.935
54.330	17.705	1035.777	799.717
55.344	17.652	1034.824	798.661
56.359	17.742	1033.763	798.195
57.374	17.598	1033.071	796.916
58.388	17.495	1032.047	795.572
59.403	17.369	1032.024	794.897
60.417	17.464	1030.449	794.057
61.432	17.430	1029.697	793.249
62.447	17.316	1028.936	792.062
63.461	17.174	1028.804	791.230
64.476	17.331	1027.330	790.753
65.490	17.309	1026.688	790.089
66.505	17.503	1025.510	790.011
67.520	17.382	1024.990	788.981
68.534	17.285	1024.812	788.325
69.549	17.203	1023.912	787.181
70.563	17.233	1023.065	786.601
71.578	17.266	1021.574	785.537
72.593	17.108	1020.904	784.221
73.607	17.229	1020.423	784.341
74.622	17.223	1020.069	783.975
75.636	17.106	1019.308	782.778
76.651	17.059	1018.797	782.099
77.666	17.219	1017.910	782.087
78.680	17.234	1017.394	781.690
79.695	17.331	1017.118	781.857
80.709	17.346	1016.311	781.236
81.724	17.420	1015.540	780.912
82.739	17.663	1014.881	781.451
83.753	17.824	1014.029	781.465
84.768	18.066	1013.221	781.878
85.782	18.122	1012.698	781.663
86.797	18.024	1011.938	780.560
87.812	17.900	1010.662	778.940
88.826	17.936	1009.678	778.278
89.841	18.068	1008.562	777.949
90.855	17.964	1007.786	776.809
91.870	18.051	1007.102	776.605
92.884	18.104	1006.374	776.219
93.899	18.061	1005.158	775.017
94.914	18.119	1004.372	774.605
95.928	18.129	1003.841	774.174
96.943	17.972	1003.271	772.952
97.957	17.889	1002.234	771.713
98.972	17.976	1001.370	771.373
99.987	17.925	1000.534	770.430
101.001	18.029	999.217	769.816
102.016	18.003	998.539	769.106
103.030	18.035	997.479	768.367
104.045	17.973	996.966	767.626
105.060	17.880	996.336	766.653
106.074	17.590	995.115	764.344
107.089	17.507	993.662	762.791
108.103	17.430	992.856	761.757
109.118	17.327	991.892	760.491
110.133	17.340	990.781	759.629
111.147	17.395	990.295	759.438
112.162	17.510	989.685	759.416
113.176	17.504	988.953	758.760
114.191	17.583	988.154	758.432
115.206	17.601	987.398	757.862
116.220	17.430	986.480	756.332
117.235	17.513	985.230	755.674
118.249	17.592	984.033	755.041
119.264	17.479	983.648	754.178
120.279	17.407	982.680	753.051
121.293	17.346	981.770	752.018
122.308	17.209	981.324	751.003
123.322	17.179	980.227	749.964
124.337	17.221	978.723	748.931
125.352	17.218	978.048	748.337
126.366	17.265	977.098	747.749
127.381	17.279	975.600	746.598
128.395	17.345	975.072	746.418
129.410	17.370	974.277	745.852
130.424	17.485	973.416	745.633
131.439	17.570	973.120	745.710
132.454	17.462	972.491	744.689
133.468	17.647	971.169	744.420
134.483	17.574	970.339	743.401
135.497	17.680	969.263	742.971
136.512	17.593	968.684	742.083
137.527	17.691	967.853	741.809
138.541	17.672	967.439	741.344
139.556	17.658	966.391	740.412
140.570	17.987	965.933	741.426
141.585	17.928	964.962	740.356
142.600	18.004	964.035	739.908
143.614	18.041	963.164	739.336
144.629	18.005	962.796	738.832
145.643	17.960	961.897	737.883
146.658	18.035	960.086	736.752
147.673	17.640	959.490	734.528
148.687	17.638	958.716	733.862
149.702	17.526	957.950	732.726
150.716	17.534	957.151	732.085
151.731	17.656	956.139	731.771
152.746	17.624	955.973	731.441
153.760	17.690	955.072	730.973
154.775	17.825	954.630	731.146
155.789	17.992	953.634	731.032
156.804	17.811	953.225	729.882
157.819	17.908	952.327	729.541
158.833	18.069	951.728	729.707
159.848	18.198	950.921	729.575
160.862	18.014	949.952	727.983
161.877	17.679	948.970	725.741
162.892	17.652	947.662	724.558
163.906	17.723	946.816	724.149
164.921	17.584	946.055	722.916
165.935	17.693	945.097	722.580
166.950	17.847	944.516	722.723
167.964	17.785	943.740	721.805
168.979	17.723	943.152	721.029
169.994	17.727	941.549	719.757
171.008	17.873	941.024	719.909
172.023	18.074	940.938	720.628
173.037	18.125	940.094	720.131
174.052	17.887	939.491	718.603
175.067	17.807	938.475	717.424
176.081	17.728	937.680	716.424
177.096	17.683	937.437	715.984
178.110	17.819	936.532	715.802
179.125	17.652	936.422	714.952
180.140	17.896	935.580	715.270
181.154	17.961	935.620	715.509
182.169	17.879	935.258	714.824
183.183	18.120	933.928	714.754
184.198	18.174	933.113	714.290
185.213	18.084	932.697	713.532
186.227	18.232	931.950	713.516
187.242	18.254	931.329	713.071
188.256	18.384	930.786	713.134
189.271	18.153	930.200	711.657
190.286	18.026	929.151	710.264
191.300	17.578	927.983	707.452
192.315	17.603	927.248	706.929
193.329	17.618	926.935	706.691
194.344	17.892	925.847	706.936
195.359	17.972	925.853	707.209
196.373	18.063	925.171	706.999
197.388	18.343	924.492	707.576
198.402	18.365	924.046	707.262
199.417	18.403	924.113	707.411
200.432	18.604	923.205	707.481
201.446	18.631	922.834	707.243
202.461	18.629	922.687	707.063
203.475	18.594	921.895	706.247
204.490	18.412	920.548	704.405
205.504	18.274	920.166	703.483
206.519	18.237	919.094	702.450
207.534	18.227	918.409	701.825
208.548	18.116	918.300	701.221
209.563	18.297	917.785	701.510
210.577	18.173	917.225	700.511
211.592	18.474	916.539	701.157
212.607	18.689	915.483	701.166
213.621	18.482	914.480	699.489
214.636	18.475	914.093	699.103
215.650	18.450	913.536	698.514
216.665	18.667	912.495	698.542
217.680	18.791	911.837	698.479
218.694	18.738	911.491	697.938
219.709	18.731	910.715	697.254
220.723	18.573	910.099	696.078
221.738	18.420	909.986	695.308
222.753	18.588	909.079	695.236
223.767	18.758	908.004	695.039
224.782	18.776	907.565	694.713
225.796	18.846	907.092	694.573
226.811	18.827	906.283	693.817
227.826	18.610	905.837	692.538
228.840	18.554	905.023	691.629
229.855	18.511	904.086	690.677
230.869	18.548	903.263	690.138
231.884	18.553	902.890	689.811
232.899	18.451	902.016	688.673
233.913	18.555	900.939	688.208
234.928	18.298	900.795	687.005
235.942	18.409	899.853	686.669
236.957	18.457	899.362	686.427
237.972	18.472	898.939	686.104
238.986	18.426	898.197	685.291
240.001	18.492	897.457	684.932
241.015	18.525	897.354	684.925
242.030	18.628	896.796	684.849
243.045	18.643	895.848	684.123
244.059	18.554	895.530	683.465
245.074	18.694	894.893	683.475
246.088	18.835	893.840	683.173
247.103	18.856	893.675	683.070
248.117	18.978	893.297	683.206
249.132	19.234	892.606	683.633
250.147	19.366	892.046	683.666
251.161	19.468	891.607	683.674
252.176	19.292	891.079	682.512
253.190	19.431	890.550	682.594
254.205	19.589	889.692	682.500
255.220	19.558	889.018	681.804
256.234	19.400	888.894	681.023
257.249	19.386	887.525	679.859
258.263	19.441	886.700	679.383
259.278	19.449	886.335	679.075
260.293	19.502	885.823	678.828
261.307	19.543	885.128	678.399
262.322	19.550	884.944	678.226
263.336	19.706	883.927	677.996
264.351	19.737	882.836	677.223
265.366	19.775	882.477	677.035
266.380	19.708	881.849	676.233
267.395	19.554	881.210	675.082
268.409	19.499	880.562	674.310
269.424	19.415	879.700	673.260
270.439	19.361	879.022	672.474
271.453	19.315	878.665	671.962
272.468	19.399	877.662	671.460
273.482	19.365	877.215	670.927
274.497	19.330	876.450	670.147
275.512	19.244	876.372	669.692
276.526	19.370	875.701	669.611
277.541	19.437	875.273	669.486
278.555	19.581	874.790	669.616
279.570	19.828	873.796	669.752
280.585	19.763	873.090	668.898
281.599	19.485	872.487	667.303
282.614	19.660	871.237	666.963
283.628	19.369	871.413	665.914
284.643	19.431	870.536	665.426
285.657	19.576	869.810	665.370
286.672	19.630	869.280	665.112
287.687	19.608	868.756	664.570
288.701	19.616	868.502	664.349
289.716	19.523	868.012	663.556
290.730	19.656	867.149	663.349
291.745	19.726	866.399	662.987
292.760	19.707	865.888	662.464
293.774	19.917	865.335	662.783
294.789	19.904	864.526	662.057
295.803	19.625	863.900	660.452
296.818	19.635	863.213	659.906
297.833	19.658	862.713	659.555
298.847	19.633	862.307	659.090
299.862	19.804	861.696	659.217
300.876	19.879	860.917	658.849
301.891	19.819	860.724	658.412
302.906	19.975	860.126	658.489
303.920	20.044	860.019	658.614
304.935	20.273	859.114	658.732
305.949	20.237	858.171	657.815
306.964	20.016	857.627	656.502
307.979	19.972	857.219	655.964
308.993	20.146	856.501	656.015
310.008	20.194	855.798	655.599
311.022	20.013	855.031	654.269
312.037	19.985	854.346	653.583
313.052	19.753	853.971	652.364
314.066	19.737	853.485	651.875
315.081	19.702	852.855	651.201
316.095	19.671	852.010	650.384
317.110	19.781	851.188	650.110
318.125	19.938	851.297	650.726
319.139	19.776	850.736	649.633
320.154	19.789	850.380	649.352
321.168	19.870	849.797	649.155
322.183	19.903	849.235	648.791
323.197	20.022	848.582	648.680
324.212	19.964	848.083	648.023
325.227	19.821	847.622	647.078
326.241	19.940	846.892	646.911
327.256	19.882	846.524	646.354
328.270	19.964	845.629	645.920
329.285	19.866	845.622	645.493
330.300	19.871	845.034	645.003
331.314	20.037	843.876	644.683
332.329	20.104	843.827	644.835
333.343	19.954	843.507	643.977
334.358	20.115	843.309	644.368
335.373	20.254	842.496	644.205
336.387	20.202	842.443	643.915
337.402	20.236	842.318	643.889
338.416	20.250	842.088	643.706
339.431	20.431	841.632	643.971
340.446	20.539	841.267	644.037
341.460	20.559	840.797	643.692
342.475	20.678	840.223	643.636
343.489	20.606	839.950	643.104
344.504	20.739	839.350	643.080
345.519	20.728	838.972	642.694
346.533	20.580	838.543	641.762
347.548	20.448	837.656	640.539
348.562	20.229	837.073	639.230
349.577	20.269	836.361	638.775
350.592	20.226	835.536	637.933
351.606	20.157	835.139	637.318
352.621	20.426	834.186	637.524
353.635	20.345	833.580	636.706
354.650	20.316	833.096	636.176
355.665	20.364	832.589	635.908
356.679	20.538	831.983	636.022
357.694	20.510	831.475	635.477
358.708	20.410	831.016	634.706
359.723	20.453	830.383	634.320
360.738	20.532	829.904	634.188
361.752	20.693	828.881	633.935
362.767	20.709	828.681	633.785
363.781	20.688	828.503	633.517
364.796	20.954	827.861	633.938
365.810	20.972	827.411	633.603
366.825	21.016	827.364	633.672
367.840	21.040	826.737	633.223
368.854	20.915	825.804	631.996
369.869	20.924	825.434	631.690
370.883	20.753	825.363	630.962
371.898	20.830	825.235	631.087
372.913	21.119	824.651	631.628
373.927	20.861	823.729	629.937
374.942	20.875	823.563	629.801
375.956	21.036	823.238	630.080
376.971	21.151	822.764	630.076
377.986	21.156	822.124	629.548
379.000	21.388	821.290	629.691
380.015	21.241	821.509	629.275
381.029	21.120	820.431	627.955
382.044	21.052	820.052	627.366
383.059	21.179	819.522	627.362
384.073	21.175	818.413	626.443
385.088	20.967	817.812	625.180
386.102	20.723	817.703	624.167
387.117	20.949	816.632	624.105
388.132	20.996	816.126	623.830
389.146	21.159	815.663	624.004
390.161	21.066	815.705	623.650
391.175	21.084	815.323	623.367
392.190	20.978	814.506	622.307
393.205	20.930	814.042	621.726
394.219	21.032	813.322	621.486
395.234	21.121	812.842	621.381
396.248	20.816	812.730	620.155
397.263	20.860	811.988	619.688
398.278	20.889	811.638	619.472
399.292	20.734	811.137	618.482
400.307	20.784	810.768	618.322
401.321	20.938	809.775	618.056
402.336	21.007	809.581	618.100
403.350	21.063	809.728	618.355
404.365	21.172	809.220	618.300
405.380	21.326	808.659	618.362
406.394	21.357	808.065	617.960
407.409	21.451	808.001	618.191
408.423	21.454	807.511	617.772
409.438	21.576	807.274	617.965
410.453	21.624	806.732	617.665
411.467	21.670	806.250	617.403
412.482	21.806	805.800	617.486
413.496	21.775	805.552	617.130
414.511	21.681	805.699	616.857
415.526	21.672	804.645	615.964
416.540	21.540	804.353	615.223
417.555	21.662	803.927	615.270
418.569	21.674	803.501	614.934
419.584	21.577	803.186	614.297
420.599	21.560	802.626	613.754
421.613	158.958	1369.599	1788.755
422.628	138.034	1452.224	1788.848
