DTS Sentinel unit serial number:	SN413079Multiplexer serial number:	ORYXHardware model number:	OX4-SRSoftware version number:	ORYX F/W v4.00 Oryx Data Collector v3.7.2.0data status	okinstallation	princeton_trtdifferential loss correction	single-endedforward channel	channel 1reverse channel	N/Adate	2019/09/16time	21:54:35forward acquisition time	60.00reverse acquisition time	0.00gamma	496.2192k internal	0.2325k external	0.2325temperature offset calibration	0.9954default loss term (dB/km)	0.3790temperature slope calibration	1.0000multiplexer offset coefficient	1.0000multiplexer slope coefficient	1.0000fibre end	0.00T internal ref (°C)	31.23T ext. ref 1 (°C)	0.05T ext. ref 2 (°C)	25.56length (m)	temperature (°C)	Stokes	anti-Stokes-747.200	236.789	-0.148	-0.247
-746.185	98.726	-0.193	-0.225
-745.171	58.410	0.157	-0.156
-744.156	111.595	0.104	-0.126
-743.142	-15.315	0.259	0.167
-742.127	-1.468	-0.200	0.143
-741.112	-200.000	-0.010	-0.177
-740.098	-200.000	0.015	0.154
-739.083	-200.000	0.066	-0.338
-738.069	-200.000	0.064	0.311
-737.054	-25.131	-0.155	-0.092
-736.039	71.374	-0.143	-0.150
-735.025	39.583	-0.317	0.287
-734.010	44.950	-0.121	0.113
-732.996	-200.000	0.028	-0.365
-731.981	800.000	-0.026	-0.083
-730.966	-132.024	-0.313	-0.041
-729.952	-48.440	-0.217	0.106
-728.937	800.000	0.029	-0.099
-727.923	-95.625	-0.435	-0.118
-726.908	-61.334	-0.178	-0.076
-725.894	-200.000	0.016	-0.166
-724.879	503.860	0.082	-0.192
-723.864	292.842	0.058	0.107
-722.850	598.112	0.053	-0.133
-721.835	-153.752	-0.268	0.019
-720.821	35.267	-0.055	-0.049
-719.806	-143.913	-0.458	-0.043
-718.791	-200.000	0.035	-0.199
-717.777	-200.000	-0.028	-0.349
-716.762	-200.000	0.019	0.139
-715.748	-24.622	-0.315	-0.189
-714.733	-116.345	0.455	0.085
-713.718	20.783	-0.344	-0.281
-712.704	-5.490	0.097	0.067
-711.689	517.631	-0.098	0.231
-710.675	-200.000	0.327	-0.002
-709.660	-88.292	-0.059	0.018
-708.645	-83.554	-0.301	0.097
-707.631	192.238	0.065	-0.099
-706.616	-20.797	0.121	0.075
-705.602	800.000	0.095	-0.269
-704.587	-96.083	0.139	-0.037
-703.572	12.706	0.269	-0.209
-702.558	-99.982	0.201	0.051
-701.543	800.000	-0.026	-0.073
-700.529	-161.242	-0.090	0.005
-699.514	493.199	-0.026	0.060
-698.499	26.812	0.146	0.124
-697.485	-69.753	-0.129	0.050
-696.470	-38.430	-0.134	0.071
-695.456	800.000	-0.028	0.098
-694.441	-4.394	0.203	0.141
-693.426	227.420	-0.170	-0.278
-692.412	-200.000	0.026	-0.135
-691.397	469.966	0.072	0.162
-690.383	74.764	0.263	0.279
-689.368	-21.039	-0.189	-0.117
-688.354	-14.895	-0.354	-0.229
-687.339	39.005	-0.117	-0.105
-686.324	-12.849	0.139	0.091
-685.310	-79.381	-0.227	-0.077
-684.295	-200.000	0.008	0.273
-683.281	800.000	-0.092	-0.262
-682.266	284.515	-0.040	-0.072
-681.251	-200.000	-0.046	-0.213
-680.237	800.000	0.102	0.316
-679.222	-3.372	0.028	0.020
-678.208	-82.651	-0.134	-0.044
-677.193	-82.114	0.032	-0.011
-676.178	559.123	-0.105	0.255
-675.164	11.500	-0.271	-0.209
-674.149	84.949	-0.090	-0.100
-673.135	800.000	-0.063	-0.198
-672.120	427.488	0.053	-0.116
-671.105	22.449	-0.142	-0.117
-670.091	-200.000	0.024	0.208
-669.076	-9.749	-0.082	0.055
-668.062	-200.000	0.033	-0.224
-667.047	76.814	-0.266	-0.284
-666.032	-10.185	-0.112	0.074
-665.018	139.714	-0.081	-0.107
-664.003	61.455	0.059	0.059
-662.989	-119.523	0.216	-0.038
-661.974	107.437	-0.049	0.059
-660.959	-21.280	-0.093	0.057
-659.945	-200.000	-0.018	0.168
-658.930	-66.971	-0.153	-0.061
-657.916	357.988	-0.068	-0.137
-656.901	-200.000	-0.019	-0.275
-655.886	41.692	0.105	0.096
-654.872	800.000	0.038	-0.116
-653.857	-200.000	0.091	-0.672
-652.843	293.990	-0.087	-0.160
-651.828	-200.000	-0.458	-0.002
-650.814	-112.162	-0.289	-0.058
-649.799	-144.113	-0.096	0.009
-648.784	-200.000	-0.066	0.292
-647.770	36.277	0.188	-0.167
-646.755	24.333	0.092	-0.076
-645.741	174.140	-0.126	-0.183
-644.726	-43.211	0.089	0.045
-643.711	191.851	-0.041	-0.062
-642.697	-200.000	-0.016	0.123
-641.682	-43.476	0.078	0.040
-640.668	-84.504	-0.278	-0.088
-639.653	-104.661	-0.371	-0.086
-638.638	122.874	-0.109	-0.137
-637.624	-87.946	-0.193	0.058
-636.609	323.307	0.135	0.258
-635.595	-73.069	-0.123	-0.045
-634.580	800.000	0.048	0.170
-633.565	-12.709	0.080	0.052
-632.551	348.318	-0.124	0.245
-631.536	-65.085	-0.316	-0.128
-630.522	800.000	0.051	0.162
-629.507	-133.119	0.036	-0.005
-628.492	154.009	-0.267	-0.367
-627.478	-56.056	-0.357	0.160
-626.463	800.000	-0.067	-0.270
-625.449	-200.000	0.045	-0.240
-624.434	-147.042	0.174	-0.015
-623.419	96.500	0.217	0.250
-622.405	-200.000	0.018	0.085
-621.390	-39.505	-0.211	0.111
-620.376	307.341	-0.038	-0.072
-619.361	-66.057	-0.306	0.122
-618.346	63.229	-0.110	0.110
-617.332	227.919	-0.133	0.218
-616.317	-200.000	0.013	-0.056
-615.303	48.432	0.131	-0.123
-614.288	34.726	-0.153	-0.134
-613.273	-38.881	0.088	-0.047
-612.259	-200.000	0.011	0.182
-611.244	-110.838	0.187	-0.039
-610.230	-200.000	-0.003	-0.081
-609.215	498.421	-0.069	0.160
-608.201	-90.454	-0.253	0.074
-607.186	-70.261	-0.160	0.061
-606.171	-200.000	0.013	0.272
-605.157	54.922	0.287	0.278
-604.142	-200.000	0.026	-0.290
-603.128	-143.567	-0.176	-0.017
-602.113	421.997	0.093	0.200
-601.098	-133.905	-0.295	0.037
-600.084	421.989	-0.019	0.040
-599.069	797.726	-0.075	0.208
-598.055	-68.547	-0.296	-0.115
-597.040	573.977	0.099	-0.243
-596.025	396.589	-0.165	0.346
-595.011	-200.000	0.071	-0.382
-593.996	800.000	-0.046	0.192
-592.982	800.000	0.073	0.296
-591.967	800.000	0.004	-0.013
-590.952	8.772	-0.131	-0.099
-589.938	-34.307	0.180	-0.099
-588.923	-119.619	-0.176	-0.030
-587.909	-200.000	0.013	-0.202
-586.894	176.502	0.075	-0.109
-585.879	800.000	-0.016	-0.066
-584.865	-200.000	-0.010	0.223
-583.850	-24.951	0.108	-0.065
-582.836	12.010	-0.129	-0.100
-581.821	-200.000	-0.006	0.047
-580.806	-200.000	-0.074	-0.326
-579.792	30.321	-0.197	-0.169
-578.777	210.652	-0.113	0.178
-577.763	81.716	0.295	-0.320
-576.748	-87.480	-0.210	0.064
-575.733	-200.000	-0.028	-0.362
-574.719	-200.000	0.157	-0.000
-573.704	-200.000	0.005	0.249
-572.690	-127.391	0.105	-0.015
-571.675	-153.022	-0.330	-0.023
-570.661	122.421	0.148	0.186
-569.646	5.885	-0.061	0.045
-568.631	284.370	-0.052	-0.093
-567.617	-24.479	0.286	-0.171
-566.602	254.668	0.043	-0.073
-565.588	131.764	-0.154	-0.199
-564.573	800.000	0.046	0.161
-563.558	72.838	-0.291	0.304
-562.544	65.007	0.296	0.300
-561.529	-138.475	0.204	0.022
-560.515	-0.833	-0.378	0.268
-559.500	800.000	-0.038	-0.154
-558.485	-63.603	0.139	-0.057
-557.471	-100.378	0.405	0.101
-556.456	800.000	-0.019	-0.069
-555.442	-135.151	-0.228	-0.027
-554.427	35.288	-0.300	-0.264
-553.412	45.398	0.373	-0.344
-552.398	-30.746	-0.205	0.116
-551.383	-97.859	0.259	0.067
-550.369	-24.739	-0.318	0.189
-549.354	-200.000	0.027	-0.155
-548.339	28.767	-0.142	-0.120
-547.325	-200.000	0.031	0.488
-546.310	48.603	0.183	-0.171
-545.296	-92.355	0.312	-0.088
-544.281	9.983	-0.073	-0.056
-543.266	-59.478	-0.140	-0.060
-542.252	-54.011	-0.456	0.208
-541.237	-200.000	-0.007	-0.134
-540.223	128.833	0.211	0.269
-539.208	206.670	0.351	0.548
-538.193	764.448	-0.134	-0.365
-537.179	455.435	-0.079	-0.175
-536.164	-23.885	-0.143	-0.086
-535.150	219.655	0.040	0.065
-534.135	-200.000	-0.021	-0.217
-533.121	800.000	-0.136	-0.404
-532.106	-108.068	0.050	0.011
-531.091	2.402	-0.069	-0.050
-530.077	-37.311	0.119	-0.063
-529.062	-200.000	0.020	0.131
-528.048	413.848	-0.055	-0.116
-527.033	84.514	0.198	0.217
-526.018	-200.000	-0.011	0.208
-525.004	427.683	-0.118	-0.255
-523.989	114.588	-0.058	0.071
-522.975	800.000	-0.068	-0.201
-521.960	-200.000	0.011	-0.173
-520.945	125.736	0.169	-0.214
-519.931	-70.662	0.208	0.079
-518.916	-21.528	0.140	-0.086
-517.902	-200.000	0.007	-0.092
-516.887	-107.560	-0.065	0.014
-515.872	-22.226	0.164	0.099
-514.858	73.873	0.162	-0.170
-513.843	-32.047	-0.142	-0.079
-512.829	300.569	-0.176	-0.324
-511.814	-164.375	0.052	-0.002
-510.799	-176.027	0.122	-0.003
-509.785	6.946	-0.103	0.077
-508.770	-26.984	-0.284	0.166
-507.756	-60.551	-0.105	0.045
-506.741	-119.870	-0.172	-0.030
-505.726	-200.000	0.027	-0.294
-504.712	57.532	0.153	-0.149
-503.697	560.941	-0.155	-0.374
-502.683	122.481	-0.133	0.166
-501.668	-123.910	0.088	0.014
-500.653	28.137	0.159	-0.134
-499.639	800.000	-0.103	0.305
-498.624	-4.762	0.416	0.287
-497.610	-73.597	-0.184	-0.067
-496.595	138.026	-0.208	0.273
-495.581	-200.000	0.041	0.287
-494.566	-200.000	0.054	0.305
-493.551	138.280	-0.140	0.184
-492.537	157.568	0.046	0.063
-491.522	-8.812	0.288	0.193
-490.508	-12.582	-0.189	0.124
-489.493	-200.000	0.018	-0.098
-488.478	800.000	0.044	0.188
-487.464	-146.462	-0.264	0.023
-486.449	570.655	-0.068	0.164
-485.435	-200.000	0.004	-0.133
-484.420	-80.445	-0.311	-0.104
-483.405	-66.276	0.257	-0.102
-482.391	-175.330	-0.407	0.011
-481.376	-75.167	0.284	0.102
-480.362	-56.785	0.352	-0.156
-479.347	413.097	-0.046	0.098
-478.332	92.310	-0.111	0.125
-477.318	467.508	0.051	-0.114
-476.303	89.105	0.131	-0.146
-475.289	500.519	-0.074	-0.170
-474.274	119.651	-0.051	-0.063
-473.259	-112.438	0.426	0.085
-472.245	-85.907	0.133	-0.041
-471.230	-61.453	-0.341	0.143
-470.216	800.000	-0.036	-0.114
-469.201	-84.855	0.031	-0.010
-468.186	800.000	0.058	-0.209
-467.172	-95.480	-0.453	-0.121
-466.157	132.964	0.067	-0.086
-465.143	-132.114	0.044	0.006
-464.128	-200.000	0.035	-0.160
-463.113	217.064	0.147	-0.234
-462.099	800.000	0.076	-0.217
-461.084	-63.010	0.082	-0.034
-460.070	-200.000	-0.009	-0.115
-459.055	-200.000	-0.042	0.217
-458.040	-200.000	0.015	0.112
-457.026	5.517	-0.086	-0.063
-456.011	581.529	0.247	0.604
-454.997	-5.846	0.121	-0.082
-453.982	360.159	-0.081	0.162
-452.968	-170.139	0.089	-0.003
-451.953	31.499	0.094	0.081
-450.938	14.734	0.220	-0.172
-449.924	-5.762	-0.209	-0.143
-448.909	-100.982	0.231	-0.057
-447.895	800.000	0.036	-0.147
-446.880	-112.957	-0.248	0.049
-445.865	104.069	0.204	0.239
-444.851	-136.163	0.471	-0.055
-443.836	-98.141	-0.065	0.017
-442.822	-94.502	0.174	-0.047
-441.807	448.860	0.063	0.139
-440.792	23.488	0.240	-0.197
-439.778	-200.000	-0.046	-0.211
-438.763	-94.486	0.136	-0.037
-437.749	7.094	-0.203	0.151
-436.734	-100.060	0.081	0.020
-435.719	61.204	0.121	-0.120
-434.705	800.000	0.068	-0.257
-433.690	-112.808	0.420	0.083
-432.676	348.959	0.215	-0.424
-431.661	800.000	0.075	-0.215
-430.646	-200.000	0.054	-0.308
-429.632	177.333	0.111	0.162
-428.617	171.994	-0.179	0.256
-427.603	-135.644	0.230	0.027
-426.588	45.436	0.040	0.037
-425.573	-46.681	0.132	-0.065
-424.559	253.115	-0.120	0.204
-423.544	-200.000	0.020	-0.219
-422.530	800.000	-0.051	0.220
-421.515	-64.212	0.023	0.009
-420.500	29.995	0.337	0.287
-419.486	-200.000	0.005	0.076
-418.471	-120.044	0.216	-0.037
-417.457	-52.884	0.234	-0.108
-416.442	-200.000	0.013	0.153
-415.428	126.380	-0.163	-0.206
-414.413	-14.919	-0.059	-0.038
-413.398	-7.848	-0.160	0.107
-412.384	-200.000	-0.011	0.220
-411.369	-200.000	0.019	0.192
-410.355	800.000	-0.060	0.185
-409.340	-200.000	-0.003	-0.148
-408.325	209.573	0.105	0.164
-407.311	137.692	-0.056	0.073
-406.296	-33.342	-0.213	0.117
-405.282	84.743	-0.243	-0.265
-404.267	-77.452	0.020	0.007
-403.252	-80.241	-0.263	0.088
-402.238	-200.000	-0.004	0.167
-401.223	-167.951	0.305	0.012
-400.209	-48.855	0.110	-0.053
-399.194	-200.000	-0.036	0.244
-398.179	-200.000	0.025	0.179
-397.165	-200.000	0.012	0.270
-396.150	-54.321	-0.130	0.059
-395.136	28.647	-0.048	-0.040
-394.121	182.724	0.145	0.214
-393.106	800.000	-0.072	-0.225
-392.092	800.000	-0.081	0.222
-391.077	-74.762	-0.192	-0.069
-390.063	-95.224	0.282	-0.076
-389.048	-10.989	0.183	-0.120
-388.033	800.000	0.054	-0.222
-387.019	-200.000	-0.030	-0.243
-386.004	-69.783	-0.254	-0.097
-384.990	-51.877	0.399	-0.185
-383.975	-160.027	0.090	0.005
-382.960	-35.867	0.130	0.070
-381.946	220.765	-0.252	-0.402
-380.931	209.571	0.098	-0.153
-379.917	-117.735	-0.299	-0.053
-378.902	650.431	0.133	0.338
-377.888	244.891	0.134	-0.224
-376.873	50.255	0.169	-0.159
-375.858	-25.894	0.298	-0.175
-374.844	-105.002	-0.086	-0.020
-373.829	-65.861	0.191	0.076
-372.815	73.942	0.180	0.188
-371.800	800.000	-0.043	-0.131
-370.785	-135.067	-0.431	-0.052
-369.771	499.972	-0.109	0.250
-368.756	-200.000	-0.006	-0.255
-367.742	-155.753	0.707	-0.045
-366.727	-200.000	-0.022	0.380
-365.712	-153.906	-0.158	-0.011
-364.698	192.061	-0.074	-0.111
-363.683	384.933	-0.123	0.253
-362.669	800.000	-0.093	0.277
-361.654	408.799	0.039	0.082
-360.639	73.035	-0.056	0.059
-359.625	-143.070	0.176	-0.017
-358.610	-22.091	0.299	0.180
-357.596	-82.267	0.205	0.066
-356.581	800.000	0.100	0.321
-355.566	173.760	-0.190	-0.272
-354.552	800.000	0.065	0.223
-353.537	-183.183	0.221	-0.004
-352.523	-97.727	-0.083	0.021
-351.508	-200.000	0.005	-0.185
-350.493	782.264	-0.088	0.239
-349.479	-45.277	0.100	0.050
-348.464	49.878	0.117	-0.110
-347.450	127.461	0.137	0.173
-346.435	-200.000	0.025	-0.179
-345.420	216.635	-0.199	-0.315
-344.406	67.417	0.219	0.222
-343.391	-124.908	0.232	-0.035
-342.377	-132.381	0.301	-0.039
-341.362	-124.253	-0.157	-0.024
-340.348	371.041	-0.091	-0.183
-339.333	555.577	0.122	-0.292
-338.318	-155.596	0.088	-0.006
-337.304	9.427	0.205	-0.154
-336.289	-200.000	0.007	0.118
-335.275	217.820	0.081	-0.128
-334.260	-200.000	0.034	-0.244
-333.245	-57.986	-0.047	-0.020
-332.231	-94.250	-0.291	-0.079
-331.216	34.724	-0.311	0.270
-330.202	-200.000	-0.020	-0.204
-329.187	298.862	-0.080	-0.147
-328.172	52.976	-0.115	-0.109
-327.158	-55.618	-0.360	0.160
-326.143	-41.198	-0.146	0.075
-325.129	-39.441	-0.256	0.133
-324.114	99.133	0.119	-0.137
-323.099	-200.000	-0.052	-0.293
-322.085	212.284	0.310	0.486
-321.070	-22.914	-0.235	-0.140
-320.056	-200.000	-0.269	0.000
-319.041	-80.611	-0.098	0.032
-318.026	800.000	0.081	-0.245
-317.012	-124.189	-0.072	-0.011
-315.997	-200.000	-0.027	0.339
-314.983	178.021	0.103	0.148
-313.968	800.000	-0.060	-0.212
-312.953	-150.498	-0.109	0.008
-311.939	-68.194	0.121	0.047
-310.924	384.684	0.172	-0.351
-309.910	800.000	-0.077	-0.313
-308.895	163.886	0.167	0.233
-307.880	-200.000	0.001	0.128
-306.866	-53.270	0.392	-0.178
-305.851	-54.403	-0.173	-0.078
-304.837	800.000	0.107	0.304
-303.822	-90.554	-0.095	-0.027
-302.807	-83.675	0.293	0.093
-301.793	211.609	-0.185	0.289
-300.778	10.948	0.179	0.136
-299.764	48.090	0.211	0.196
-298.749	-200.000	-0.002	-0.231
-297.735	-200.000	0.016	0.185
-296.720	-200.000	0.011	0.074
-295.705	49.908	0.187	-0.175
-294.691	-57.863	-0.260	-0.113
-293.676	290.164	-0.088	0.159
-292.662	-36.171	-0.179	-0.096
-291.647	470.835	0.191	-0.426
-290.632	70.487	0.107	0.110
-289.618	-91.670	-0.114	0.032
-288.603	57.784	-0.174	0.169
-287.589	-200.000	0.031	-0.148
-286.574	-28.575	0.163	0.093
-285.559	800.000	0.052	-0.143
-284.545	306.099	0.122	0.225
-283.530	-200.000	0.030	0.370
-282.516	800.000	0.037	-0.154
-281.501	66.475	0.044	-0.044
-280.486	800.000	-0.042	-0.176
-279.472	-45.579	0.324	-0.159
-278.457	95.656	-0.169	-0.191
-277.443	-157.743	0.147	0.009
-276.428	800.000	-0.036	0.156
-275.413	-151.495	0.127	-0.009
-274.399	27.919	-0.072	0.060
-273.384	800.000	0.125	0.518
-272.370	2.689	0.187	0.134
-271.355	55.230	0.116	-0.111
-270.340	58.463	0.211	0.206
-269.326	800.000	0.010	0.034
-268.311	-200.000	-0.043	-0.198
-267.297	-158.612	-0.226	-0.013
-266.282	315.989	-0.130	-0.243
-265.267	800.000	-0.008	-0.035
-264.253	-110.171	0.296	-0.061
-263.238	252.840	0.127	-0.215
-262.224	10.779	0.220	0.166
-261.209	-80.519	-0.150	0.050
-260.195	489.528	-0.069	0.157
-259.180	-101.541	0.090	-0.022
-258.165	125.157	-0.045	0.056
-257.151	-126.904	-0.030	-0.004
-256.136	-119.627	0.223	-0.038
-255.122	-96.122	-0.153	0.040
-254.107	-125.438	-0.329	0.050
-253.092	-200.000	-0.036	-0.257
-252.078	11.375	-0.294	-0.223
-251.063	-70.811	0.325	0.121
-250.049	-26.992	0.216	0.125
-249.034	56.305	-0.022	-0.021
-248.019	-159.974	-0.378	0.020
-247.005	-19.660	-0.060	-0.036
-245.990	-200.000	0.035	-0.190
-244.976	-85.595	-0.179	-0.055
-243.961	-200.000	0.038	-0.269
-242.946	-83.168	-0.108	-0.034
-241.932	800.000	-0.120	0.347
-240.917	-39.634	-0.121	0.063
-239.903	-18.951	0.093	-0.057
-238.888	-200.000	0.026	-0.174
-237.873	-200.000	0.001	0.159
-236.859	-65.577	0.140	0.056
-235.844	-193.462	0.500	0.004
-234.830	114.463	-0.058	-0.069
-233.815	23.820	-0.177	-0.144
-232.800	-115.771	-0.323	0.060
-231.786	253.585	-0.188	0.318
-230.771	24.840	-0.269	0.221
-229.757	275.693	-0.166	0.292
-228.742	296.809	-0.073	-0.132
-227.727	-120.759	-0.352	-0.059
-226.713	800.000	0.058	0.177
-225.698	800.000	0.074	0.213
-224.684	92.848	-0.210	-0.235
-223.669	577.169	-0.068	0.164
-222.655	340.706	-0.094	-0.182
-221.640	-8.968	0.254	-0.168
-220.625	193.641	-0.159	0.238
-219.611	-3.835	-0.066	0.045
-218.596	-42.072	-0.063	0.032
-217.582	-0.472	0.460	-0.323
-216.567	32.412	-0.152	-0.130
-215.552	67.597	-0.177	0.179
-214.538	-57.234	-0.254	-0.111
-213.523	-53.114	-0.034	-0.015
-212.509	-110.103	-0.177	-0.037
-211.494	-144.892	0.061	-0.006
-210.479	233.755	0.159	-0.259
-209.465	120.294	0.069	0.084
-208.450	72.421	-0.142	0.146
-207.436	-92.395	0.524	-0.146
-206.421	-200.000	-0.032	-0.168
-205.406	-18.666	-0.242	-0.149
-204.392	-200.000	0.024	-0.259
-203.377	-76.020	-0.068	-0.024
-202.363	-191.766	-0.317	-0.003
-201.348	-200.000	-0.067	-0.520
-200.333	800.000	-0.110	0.309
-199.319	-138.092	-0.263	0.029
-198.304	39.515	0.288	0.255
-197.290	156.560	-0.201	-0.274
-196.275	15.210	-0.228	0.176
-195.260	50.967	0.237	0.222
-194.246	-119.134	-0.220	0.038
-193.231	-174.857	0.298	0.008
-192.217	754.985	0.145	0.388
-191.202	-52.645	0.198	-0.090
-190.187	-5.907	-0.123	-0.083
-189.173	595.736	0.038	0.093
-188.158	271.585	-0.148	0.258
-187.144	800.000	-0.025	0.092
-186.129	522.988	0.064	0.149
-185.114	41.082	-0.046	0.041
-184.100	800.000	0.014	-0.047
-183.085	-111.164	-0.124	0.025
-182.071	-167.026	-0.380	0.015
-181.056	-66.829	0.225	-0.088
-180.042	800.000	0.111	-0.376
-179.027	51.582	-0.230	0.216
-178.012	800.000	0.096	0.370
-176.998	800.000	-0.056	0.166
-175.983	30.386	0.068	0.057
-174.969	-78.462	0.509	-0.172
-173.954	800.000	0.019	0.075
-172.939	4.959	-0.128	-0.093
-171.925	-97.870	0.292	-0.074
-170.910	162.103	-0.011	-0.015
-169.896	86.902	0.034	0.037
-168.881	-153.033	0.101	-0.007
-167.866	41.096	0.084	-0.075
-166.852	-200.000	0.003	0.249
-165.837	455.922	-0.067	-0.146
-164.823	52.698	-0.257	-0.242
-163.808	-45.236	0.202	0.099
-162.793	-200.000	0.057	0.349
-161.779	-200.000	0.033	-0.163
-160.764	44.483	0.207	-0.187
-159.750	771.047	0.084	-0.224
-158.735	-67.814	-0.014	-0.006
-157.720	184.100	0.049	0.071
-156.706	-59.177	-0.266	0.113
-155.691	110.407	-0.074	0.088
-154.677	-128.353	-0.403	0.057
-153.662	-8.201	-0.139	-0.092
-152.647	490.100	0.058	0.130
-151.633	248.721	-0.215	-0.359
-150.618	173.220	-0.146	-0.208
-149.604	800.000	-0.017	0.050
-148.589	391.568	-0.212	0.434
-147.574	-143.474	0.336	0.032
-146.560	-27.889	-0.105	0.060
-145.545	39.450	0.310	-0.274
-144.531	470.271	-0.119	-0.263
-143.516	800.000	0.097	-0.355
-142.502	5.882	0.184	-0.134
-141.487	50.856	-0.213	0.199
-140.472	800.000	0.097	-0.312
-139.458	-12.061	-0.167	0.108
-138.443	269.449	0.123	-0.214
-137.429	123.895	0.308	0.381
-136.414	629.753	0.084	0.209
-135.399	-80.742	-0.287	0.094
-134.385	-75.933	-0.305	-0.106
-133.370	53.579	-0.110	-0.104
-132.356	-46.947	0.303	0.146
-131.341	-9.418	0.297	0.196
-130.326	297.729	0.114	-0.207
-129.312	10.957	0.033	-0.025
-128.297	800.000	-0.094	-0.388
-127.283	-200.000	0.018	0.151
-126.268	44.528	-0.085	-0.077
-125.253	38.830	0.116	-0.102
-124.239	-79.875	0.163	0.054
-123.224	-200.000	-0.062	-0.339
-122.210	-200.000	-0.010	0.135
-121.195	200.413	0.136	0.206
-120.180	46.072	-0.120	0.110
-119.166	765.832	0.063	-0.169
-118.151	-63.559	-0.230	0.093
-117.137	-2.412	-0.140	-0.097
-116.122	800.000	-0.081	0.220
-115.107	-200.000	-0.267	-0.001
-114.093	-20.632	0.081	-0.049
-113.078	-200.000	-0.043	0.203
-112.064	-2.293	0.247	0.170
-111.049	-200.000	-0.018	0.217
-110.034	-200.000	0.000	-0.017
-109.020	4.290	0.155	-0.112
-108.005	106.860	0.140	0.164
-106.991	-125.657	0.016	0.002
-105.976	-200.000	0.043	-0.286
-104.962	-60.928	-0.110	-0.046
-103.947	-118.794	-0.086	0.015
-102.932	481.998	-0.185	-0.413
-101.918	412.101	-0.121	-0.253
-100.903	283.572	-0.134	-0.237
-99.889	-200.000	-0.033	0.236
-98.874	800.000	-0.030	0.119
-97.859	-200.000	-0.029	-0.180
-96.845	-139.344	0.275	-0.029
-95.830	70.963	0.149	-0.152
-94.816	33.846	-0.328	0.280
-93.801	-143.760	0.091	0.008
-92.786	120.791	0.062	-0.076
-91.772	-200.000	0.010	-0.084
-90.757	-116.483	0.139	0.025
-89.743	-200.000	0.037	0.259
-88.728	-106.506	0.190	0.042
-87.713	473.135	0.017	0.039
-86.699	174.780	-0.305	0.434
-85.684	99.548	0.172	0.196
-84.670	-41.719	0.136	-0.069
-83.655	-42.108	-0.252	0.127
-82.640	-138.372	0.188	0.020
-81.626	-200.000	0.021	-0.293
-80.611	20.635	0.192	0.153
-79.597	190.674	-0.310	-0.458
-78.582	485.845	-0.117	0.263
-77.567	27.180	0.131	-0.109
-76.553	-131.506	0.095	-0.012
-75.538	201.849	0.154	-0.234
-74.524	306.222	-0.049	0.090
-73.509	800.000	-0.010	0.039
-72.494	-39.001	0.234	0.121
-71.480	130.736	-0.160	0.201
-70.465	-134.372	0.206	0.025
-69.451	-49.116	0.304	-0.143
-68.436	-119.323	0.183	0.031
-67.422	786.071	0.118	-0.318
-66.407	207.841	0.179	-0.274
-65.392	-200.000	-0.042	-0.214
-64.378	456.343	-0.145	-0.317
-63.363	-136.285	-0.403	-0.046
-62.349	-91.065	0.140	-0.040
-61.334	30.845	-0.922	-0.776
-60.319	-200.000	0.148	0.652
-59.305	800.000	-0.245	-0.998
-58.290	189.021	0.513	0.755
-57.276	800.000	0.402	1.430
-56.261	-200.000	99.332	585.260
-55.246	513.535	1405.421	3219.334
-54.232	158.853	2573.255	3511.682
-53.217	111.461	2136.118	2530.296
-52.203	42.947	1592.285	1425.936
-51.188	34.686	1329.121	1141.116
-50.173	31.566	1287.105	1086.913
-49.159	54.141	1336.630	1262.864
-48.144	55.923	1353.973	1289.749
-47.130	34.878	1311.433	1126.884
-46.115	31.388	1293.697	1091.267
-45.100	31.257	1288.644	1086.203
-44.086	31.170	1286.361	1083.729
-43.071	31.119	1284.180	1081.553
-42.057	31.199	1281.618	1079.813
-41.042	31.156	1280.226	1078.348
-40.027	31.150	1278.876	1077.134
-39.013	31.063	1276.953	1074.974
-37.998	31.170	1274.947	1073.859
-36.984	31.234	1273.479	1072.945
-35.969	31.283	1271.245	1071.300
-34.954	31.230	1269.996	1069.903
-33.940	31.277	1268.882	1069.193
-32.925	31.414	1266.764	1068.148
-31.911	31.532	1265.588	1067.784
-30.896	31.306	1264.355	1065.414
-29.881	31.321	1263.384	1064.641
-28.867	31.384	1261.576	1063.433
-27.852	31.335	1260.141	1061.901
-26.838	31.374	1258.495	1060.696
-25.823	31.318	1257.364	1059.379
-24.809	31.295	1255.700	1057.808
-23.794	31.321	1254.758	1057.120
-22.779	31.229	1253.353	1055.376
-21.765	31.380	1251.708	1054.796
-20.750	31.312	1251.016	1053.790
-19.736	31.127	1249.561	1051.481
-18.721	31.209	1248.390	1050.917
-17.706	31.130	1247.582	1049.746
-16.692	31.175	1246.088	1048.700
-15.677	31.235	1244.832	1047.940
-14.663	31.137	1244.153	1046.776
-13.648	31.124	1242.675	1045.422
-12.633	31.153	1242.046	1045.010
-11.619	31.157	1241.364	1044.416
-10.604	31.237	1239.927	1043.614
-9.590	31.222	1239.245	1042.914
-8.575	31.175	1238.475	1041.961
-7.560	31.124	1237.248	1040.607
-6.546	31.088	1236.820	1040.005
-5.531	31.129	1236.190	1039.662
-4.517	31.048	1235.104	1038.259
-3.502	31.073	1234.225	1037.616
-2.487	31.114	1233.212	1036.952
-1.473	31.218	1228.666	1033.661
-0.458	29.580	1214.406	1012.652
0.556	24.277	1197.007	975.319
1.571	20.673	1202.539	959.898
2.586	19.700	1217.324	966.174
3.600	19.383	1206.049	955.386
4.615	14.168	1133.619	870.702
5.629	4.926	1057.834	767.104
6.644	0.491	1037.439	730.801
7.659	-0.046	1035.460	726.749
8.673	-0.155	1034.651	725.591
9.688	-0.078	1033.160	724.849
10.702	0.003	1031.342	723.900
11.717	5.517	1038.413	755.473
12.731	14.281	1049.854	806.342
13.746	17.901	1052.871	826.140
14.761	16.970	1051.457	820.455
15.775	15.948	1049.491	813.914
16.790	14.809	1047.751	806.994
17.804	14.203	1046.206	802.811
18.819	13.910	1044.846	800.282
19.834	13.577	1043.962	797.933
20.848	13.287	1042.915	795.666
21.863	13.174	1042.427	794.681
22.877	12.995	1041.564	793.091
23.892	12.907	1040.923	792.108
24.907	12.960	1040.490	791.963
25.921	12.979	1039.635	791.332
26.936	13.103	1038.905	791.305
27.950	13.156	1037.281	790.249
28.965	13.146	1037.108	790.001
29.980	13.208	1035.773	789.210
30.994	13.311	1034.266	788.482
32.009	13.311	1033.525	787.849
33.023	13.230	1032.739	786.795
34.038	13.187	1031.804	785.806
35.053	13.189	1031.001	785.138
36.067	13.025	1030.455	783.871
37.082	13.259	1028.729	783.597
38.096	13.210	1028.329	782.995
39.111	13.120	1028.043	782.281
40.126	13.187	1026.476	781.335
41.140	13.053	1025.535	779.917
42.155	12.822	1024.599	778.043
43.169	12.865	1023.505	777.349
44.184	12.907	1022.478	776.696
45.199	12.858	1021.457	775.623
46.213	12.983	1019.940	774.990
47.228	13.098	1018.987	774.736
48.242	13.069	1018.287	773.998
49.257	13.020	1017.520	773.118
50.271	13.070	1016.520	772.526
51.286	13.092	1016.119	772.251
52.301	13.113	1014.873	771.335
53.315	13.062	1013.599	770.061
54.330	13.062	1012.728	769.331
55.344	13.057	1011.826	768.554
56.359	12.958	1011.117	767.486
57.374	13.010	1010.158	766.934
58.388	13.056	1009.192	766.348
59.403	12.974	1008.887	765.666
60.417	12.981	1007.630	764.677
61.432	12.955	1007.261	764.209
62.447	12.842	1006.312	762.900
63.461	12.860	1005.492	762.291
64.476	12.947	1004.462	761.846
65.490	12.890	1003.547	760.822
66.505	12.924	1003.275	760.707
67.520	12.914	1002.552	760.043
68.534	12.974	1001.819	759.696
69.549	13.040	1000.818	759.176
70.563	12.917	1000.694	758.447
71.578	12.863	999.590	757.293
72.593	12.908	998.908	756.917
73.607	12.856	998.196	756.071
74.622	12.792	997.743	755.370
75.636	12.898	996.563	754.893
76.651	12.879	996.116	754.402
77.666	12.779	995.560	753.459
78.680	12.839	995.128	753.339
79.695	12.964	994.148	753.099
80.709	13.009	993.455	752.716
81.724	13.009	992.876	752.207
82.739	12.980	992.171	751.475
83.753	13.124	991.065	751.226
84.768	13.155	990.302	750.721
85.782	13.235	989.501	750.411
86.797	13.279	988.333	749.659
87.812	13.113	987.483	748.195
88.826	13.131	986.664	747.592
89.841	13.057	986.203	746.843
90.855	13.150	985.146	746.395
91.870	13.043	984.459	745.324
92.884	13.129	983.047	744.580
93.899	13.223	982.324	744.386
94.914	13.128	982.256	743.841
95.928	13.277	980.890	743.414
96.943	13.258	979.991	742.582
97.957	13.204	979.803	742.131
98.972	13.205	978.618	741.172
99.987	13.122	977.685	740.028
101.001	13.209	976.563	739.502
102.016	13.076	976.272	738.619
103.030	13.121	975.295	738.016
104.045	13.289	974.076	737.780
105.060	13.126	973.751	736.742
106.074	13.057	972.982	735.787
107.089	12.935	972.083	734.497
108.103	13.072	970.799	734.074
109.118	13.119	970.000	733.613
110.133	13.017	968.946	732.298
111.147	13.109	968.175	732.058
112.162	13.053	967.258	731.050
113.176	13.041	966.953	730.705
114.191	13.041	966.380	730.205
115.206	13.142	965.267	729.745
116.220	13.115	964.497	728.978
117.235	13.007	963.803	727.913
118.249	13.076	962.716	727.332
119.264	13.134	962.014	726.993
120.279	13.173	961.202	726.487
121.293	13.136	960.511	725.740
122.308	13.048	959.466	724.498
123.322	13.053	958.729	723.898
124.337	12.942	957.419	722.362
125.352	13.091	956.347	722.140
126.366	13.089	955.757	721.621
127.381	13.033	954.789	720.583
128.395	12.981	954.007	719.703
129.410	13.106	952.892	719.343
130.424	13.039	952.033	718.338
131.439	13.205	951.173	718.349
132.454	13.179	950.444	717.621
133.468	13.177	949.784	717.048
134.483	13.300	948.554	716.589
135.497	13.176	948.381	715.857
136.512	13.176	947.402	715.059
137.527	13.167	946.284	714.109
138.541	13.244	945.448	713.749
139.556	13.287	944.798	713.380
140.570	13.163	944.367	712.456
141.585	13.318	943.421	712.351
142.600	13.389	942.392	711.815
143.614	13.407	941.447	711.113
144.629	13.399	940.624	710.394
145.643	13.299	940.218	709.596
146.658	13.239	939.155	708.475
147.673	13.259	938.209	707.783
148.687	13.211	937.328	706.853
149.702	13.198	936.551	706.146
150.716	13.360	935.777	706.195
151.731	13.230	935.088	705.054
152.746	13.345	934.392	704.958
153.760	13.425	933.738	704.746
154.775	13.412	933.212	704.229
155.789	13.289	932.868	703.385
156.804	13.341	932.104	702.968
157.819	13.479	931.343	702.917
158.833	13.546	930.396	702.426
159.848	13.608	929.384	701.859
160.862	13.419	928.787	700.548
161.877	13.312	928.150	699.551
162.892	13.457	927.020	699.252
163.906	13.143	926.573	697.527
164.921	13.196	925.826	697.125
165.935	13.347	924.889	696.994
166.950	13.465	923.708	696.542
167.964	13.317	923.086	695.388
168.979	13.374	921.967	694.720
169.994	13.337	921.205	693.930
171.008	13.525	920.604	694.205
172.023	13.571	919.342	693.383
173.037	13.551	919.229	693.156
174.052	13.609	918.107	692.488
175.067	13.471	917.664	691.518
176.081	13.454	917.313	691.121
177.096	13.423	916.708	690.473
178.110	13.547	915.646	690.128
179.125	13.638	914.955	689.926
180.140	13.510	914.742	689.171
181.154	13.669	914.538	689.620
182.169	13.623	913.822	688.828
183.183	13.684	913.053	688.442
184.198	13.721	912.168	687.867
185.213	13.639	911.972	687.319
186.227	13.590	911.308	686.554
187.242	13.771	910.508	686.639
188.256	13.785	909.928	686.199
189.271	13.745	909.388	685.565
190.286	13.637	908.317	684.249
191.300	13.558	907.794	683.472
192.315	13.419	907.196	682.387
193.329	13.504	906.805	682.381
194.344	13.466	906.186	681.699
195.359	13.724	905.204	681.964
196.373	13.676	904.846	681.436
197.388	13.882	904.312	681.816
198.402	13.774	903.607	680.783
199.417	13.969	903.340	681.322
200.432	13.863	902.708	680.351
201.446	13.966	902.240	680.360
202.461	13.882	902.027	679.795
203.475	13.947	901.469	679.581
204.490	13.962	900.603	678.928
205.504	13.871	899.630	677.764
206.519	13.947	899.033	677.562
207.534	13.969	898.173	676.945
208.548	13.913	897.379	676.058
209.563	14.053	896.728	676.077
210.577	13.956	896.362	675.349
211.592	14.044	895.233	674.794
212.607	14.054	894.654	674.337
213.621	14.029	894.226	673.856
214.636	14.106	893.546	673.597
215.650	14.209	892.487	673.153
216.665	14.095	892.202	672.420
217.680	14.161	891.402	672.022
218.694	14.127	891.153	671.639
219.709	14.203	890.114	671.102
220.723	14.276	889.224	670.667
221.738	14.228	888.683	670.003
222.753	14.261	888.297	669.787
223.767	14.203	887.787	669.109
224.782	14.215	887.088	668.573
225.796	14.338	886.345	668.446
226.811	14.270	885.939	667.809
227.826	14.265	885.222	667.191
228.840	14.303	884.610	666.822
229.855	14.190	883.464	665.448
230.869	14.311	882.468	665.120
231.884	14.221	882.191	664.492
232.899	14.340	881.420	664.329
233.913	14.298	880.431	663.356
234.928	14.281	880.024	662.926
235.942	14.246	879.836	662.585
236.957	14.232	879.217	662.003
237.972	14.166	878.826	661.390
238.986	14.225	878.040	660.972
240.001	14.279	877.255	660.540
241.015	14.271	876.699	660.031
242.030	14.280	876.419	659.796
243.045	14.233	875.824	659.105
244.059	14.420	874.891	659.082
245.074	14.397	874.226	658.433
246.088	14.501	873.390	658.156
247.103	14.298	873.372	657.284
248.117	14.532	872.524	657.507
249.132	14.628	871.951	657.399
250.147	14.654	871.318	656.963
251.161	14.604	870.789	656.310
252.176	14.669	870.123	656.006
253.190	14.870	869.212	656.050
254.205	14.647	868.954	654.922
255.220	14.737	868.069	654.551
256.234	14.825	867.276	654.237
257.249	14.958	866.441	654.071
258.263	14.785	866.141	653.108
259.278	14.826	865.259	652.545
260.293	14.974	864.652	652.608
261.307	14.868	864.604	652.104
262.322	15.072	863.572	652.060
263.336	14.938	863.028	651.070
264.351	15.021	862.274	650.766
265.366	15.068	861.497	650.304
266.380	15.128	860.842	649.985
267.395	14.993	860.461	649.118
268.409	14.960	859.386	648.122
269.424	15.028	858.584	647.722
270.439	14.879	858.375	646.930
271.453	14.940	857.809	646.681
272.468	15.030	857.169	646.492
273.482	14.897	856.689	645.556
274.497	15.074	856.300	645.889
275.512	14.868	855.336	644.311
276.526	15.000	855.014	644.519
277.541	14.993	854.625	644.143
278.555	15.081	854.142	644.061
279.570	15.170	853.037	643.511
280.585	15.290	852.658	643.632
281.599	15.137	851.676	642.246
282.614	15.198	851.291	642.132
283.628	15.138	850.552	641.287
284.643	15.082	850.160	640.722
285.657	15.163	849.457	640.445
286.672	15.146	848.748	639.790
287.687	15.131	848.229	639.283
288.701	15.212	847.515	638.998
289.716	15.280	847.175	638.946
290.730	15.280	846.786	638.595
291.745	15.213	846.107	637.773
292.760	15.371	845.317	637.720
293.774	15.262	844.749	636.822
294.789	15.299	844.301	636.569
295.803	15.246	843.300	635.556
296.818	15.301	842.663	635.226
297.833	15.314	841.956	634.687
298.847	15.340	841.444	634.345
299.862	15.468	840.924	634.379
300.876	15.493	840.210	633.881
301.891	15.295	840.282	633.128
302.906	15.469	839.106	632.843
303.920	15.616	838.686	633.023
304.935	15.669	838.022	632.666
305.949	15.752	837.005	632.156
306.964	15.549	837.309	631.566
307.979	15.473	836.724	630.781
308.993	15.614	835.918	630.649
310.008	15.617	835.566	630.338
311.022	15.615	834.506	629.475
312.037	15.589	834.286	629.158
313.052	15.571	833.924	628.761
314.066	15.543	833.455	628.245
315.081	15.516	833.053	627.788
316.095	15.553	832.084	627.140
317.110	15.495	831.472	626.405
318.125	15.573	830.762	626.106
319.139	15.555	830.757	625.979
320.154	15.704	829.860	625.802
321.168	15.815	829.132	625.611
322.183	15.787	828.607	625.056
323.197	15.725	828.207	624.469
324.212	15.758	827.739	624.183
325.227	15.721	827.405	623.739
326.241	15.771	826.623	623.279
327.256	15.715	826.133	622.649
328.270	15.726	825.490	622.148
329.285	15.778	824.659	621.658
330.300	15.797	824.387	621.468
331.314	15.766	823.710	620.789
332.329	15.675	823.930	620.565
333.343	15.877	823.016	620.565
334.358	15.803	822.650	619.962
335.373	16.003	821.878	620.062
336.387	15.900	822.044	619.755
337.402	15.902	821.904	619.600
338.416	15.863	821.711	619.258
339.431	15.970	820.970	619.036
340.446	16.006	820.444	618.718
341.460	15.998	820.367	618.574
342.475	16.141	819.762	618.589
343.489	15.959	819.377	617.577
344.504	16.132	819.154	617.989
345.519	16.147	818.321	617.358
346.533	16.123	818.010	616.982
347.548	16.066	817.443	616.293
348.562	16.061	816.901	615.810
349.577	16.123	816.337	615.558
350.592	16.071	815.714	614.844
351.606	16.034	814.726	613.910
352.621	16.062	814.349	613.672
353.635	16.187	813.880	613.720
354.650	16.140	812.970	612.807
355.665	16.326	812.359	612.970
356.679	16.246	811.664	612.099
357.694	16.299	811.125	611.833
358.708	16.372	810.363	611.465
359.723	16.216	810.006	610.578
360.738	16.298	809.565	610.490
361.752	16.409	808.755	610.225
362.767	16.433	808.195	609.837
363.781	16.490	807.706	609.618
364.796	16.384	807.506	609.031
365.810	16.558	807.009	609.227
366.825	16.599	806.857	609.206
367.840	16.463	806.164	608.141
368.854	16.372	805.807	607.493
369.869	16.518	805.172	607.484
370.883	16.450	804.895	606.977
371.898	16.602	804.424	607.112
372.913	16.466	804.342	606.509
373.927	16.544	803.701	606.253
374.942	16.570	803.182	605.901
375.956	16.607	803.012	605.852
376.971	16.586	802.638	605.438
377.986	16.757	801.993	605.511
379.000	16.743	801.305	604.886
380.015	16.728	800.920	604.490
381.029	16.826	800.541	604.501
382.044	16.808	799.951	603.938
383.059	16.845	799.300	603.526
384.073	16.816	798.614	602.851
385.088	16.751	798.122	602.195
386.102	16.932	797.659	602.433
387.117	16.698	797.159	601.172
388.132	16.902	796.433	601.295
389.146	16.661	796.297	600.285
390.161	16.946	795.408	600.569
391.175	16.857	795.204	600.048
392.190	16.908	794.716	599.806
393.205	16.949	794.488	599.726
394.219	16.826	794.085	598.934
395.234	16.801	793.546	598.387
396.248	16.789	793.161	598.001
397.263	16.681	792.890	597.364
398.278	16.723	792.710	597.322
399.292	16.702	792.292	596.882
400.307	16.842	791.633	596.825
401.321	16.789	790.855	596.001
402.336	16.933	790.185	595.947
403.350	16.817	790.285	595.564
404.365	17.030	789.715	595.828
405.380	16.964	789.070	595.057
406.394	17.234	788.075	595.200
407.409	17.157	788.141	594.928
408.423	17.166	788.016	594.814
409.438	17.145	787.707	594.452
410.453	17.219	787.360	594.399
411.467	17.264	786.549	593.889
412.482	17.329	785.965	593.624
413.496	17.295	785.803	593.330
414.511	17.335	785.539	593.218
415.526	17.292	785.196	592.754
416.540	17.379	784.662	592.603
417.555	17.297	784.018	591.779
418.569	17.284	783.988	591.660
419.584	17.431	783.286	591.590
420.599	17.284	782.874	590.713
421.613	108.741	1288.588	1463.730
422.628	93.118	1362.241	1463.835
