DTS Sentinel unit serial number:	SN413079Multiplexer serial number:	ORYXHardware model number:	OX4-SRSoftware version number:	ORYX F/W v4.00 Oryx Data Collector v3.7.2.0data status	okinstallation	princeton_trtdifferential loss correction	single-endedforward channel	channel 1reverse channel	N/Adate	2019/09/13time	01:46:35forward acquisition time	60.00reverse acquisition time	0.00gamma	496.2192k internal	0.2331k external	0.2331temperature offset calibration	1.0146default loss term (dB/km)	0.3790temperature slope calibration	1.0000multiplexer offset coefficient	1.0000multiplexer slope coefficient	1.0000fibre end	0.00T internal ref (°C)	27.69T ext. ref 1 (°C)	3.80T ext. ref 2 (°C)	22.33length (m)	temperature (°C)	Stokes	anti-Stokes-747.200	-17.149	-0.108	-0.069
-746.185	-91.065	-0.254	-0.073
-745.171	-54.705	0.200	-0.091
-744.156	552.133	-0.071	0.172
-743.142	-70.390	0.121	-0.046
-742.127	363.807	-0.076	-0.154
-741.112	-96.185	-0.352	-0.094
-740.098	-59.431	-0.344	0.149
-739.083	91.661	0.178	0.201
-738.069	-75.909	0.461	-0.164
-737.054	238.058	0.104	-0.174
-736.039	-160.137	-0.332	-0.018
-735.025	37.682	-0.041	-0.037
-734.010	-200.000	-0.007	-0.488
-732.996	-55.050	-0.095	-0.043
-731.981	-31.808	-0.115	0.065
-730.966	57.640	0.075	0.074
-729.952	-200.000	0.003	0.075
-728.937	-56.418	-0.098	-0.044
-727.923	-18.837	-0.205	-0.129
-726.908	-163.972	0.156	0.007
-725.894	127.406	0.081	0.104
-724.879	101.278	-0.165	-0.193
-723.864	119.360	-0.312	-0.388
-722.850	800.000	0.071	-0.307
-721.835	605.446	-0.074	-0.185
-720.821	-186.523	-0.239	0.003
-719.806	-92.552	-0.012	-0.003
-718.791	66.269	-0.246	-0.251
-717.777	391.231	-0.104	0.217
-716.762	800.000	0.024	-0.077
-715.748	800.000	0.093	-0.284
-714.733	70.437	-0.179	0.186
-713.718	-46.504	-0.410	0.202
-712.704	800.000	0.071	-0.223
-711.689	-46.857	-0.095	0.047
-710.675	-200.000	-0.041	0.191
-709.660	-112.073	-0.517	0.105
-708.645	382.594	0.085	0.176
-707.631	269.112	0.144	-0.254
-706.616	159.908	-0.187	-0.262
-705.602	-200.000	-0.007	0.234
-704.587	221.273	0.095	-0.154
-703.572	70.445	-0.158	0.164
-702.558	-145.084	0.154	-0.014
-701.543	-68.163	0.155	0.061
-700.529	-92.564	0.142	0.040
-699.514	81.262	0.231	-0.251
-698.499	-102.508	0.122	-0.029
-697.485	-22.289	-0.236	0.144
-696.470	-88.312	0.392	-0.118
-695.456	-152.241	0.124	0.009
-694.441	-137.012	-0.293	0.034
-693.426	96.966	0.141	0.162
-692.412	-119.130	0.348	-0.061
-691.397	152.001	0.129	0.176
-690.383	-53.929	-0.159	0.073
-689.368	800.000	-0.033	-0.114
-688.354	131.794	0.151	0.195
-687.339	800.000	-0.045	-0.134
-686.324	57.794	0.062	0.061
-685.310	371.177	-0.124	-0.253
-684.295	223.730	0.085	-0.137
-683.281	-200.000	0.007	-0.163
-682.266	-200.000	0.026	-0.344
-681.251	-109.850	-0.084	0.018
-680.237	-146.806	0.171	-0.015
-679.222	800.000	0.120	-0.336
-678.208	-118.414	-0.305	-0.054
-677.193	-200.000	0.039	-0.452
-676.178	48.504	-0.156	0.147
-675.164	-25.960	0.266	0.157
-674.149	56.161	-0.203	0.198
-673.135	-53.535	-0.203	-0.093
-672.120	392.148	-0.091	-0.189
-671.105	241.782	0.294	-0.493
-670.091	-16.682	-0.221	0.140
-669.076	103.581	-0.065	0.077
-668.062	137.616	0.066	-0.086
-667.047	18.557	-0.124	-0.099
-666.032	-104.907	0.095	-0.022
-665.018	800.000	-0.018	0.072
-664.003	44.985	-0.121	-0.112
-662.989	800.000	-0.048	0.146
-661.974	-47.606	-0.200	-0.098
-660.959	-2.019	-0.235	0.166
-659.945	-200.000	0.006	-0.194
-658.930	350.893	-0.044	0.088
-657.916	800.000	-0.036	0.143
-656.901	217.408	0.113	-0.181
-655.886	137.777	-0.031	0.041
-654.872	4.641	0.199	0.147
-653.857	31.928	-0.181	-0.156
-652.843	-59.078	0.202	0.087
-651.828	-92.977	0.284	0.079
-650.814	126.738	0.057	-0.073
-649.799	53.048	-0.129	-0.123
-648.784	-134.198	0.187	-0.023
-647.770	182.389	-0.137	0.202
-646.755	267.241	-0.141	-0.248
-645.741	-200.000	0.078	-0.346
-644.726	-180.514	0.363	0.008
-643.711	-200.000	0.025	-0.258
-642.697	761.370	0.042	-0.114
-641.682	6.267	-0.304	-0.226
-640.668	19.256	0.053	0.042
-639.653	419.155	0.123	-0.264
-638.638	-200.000	0.007	-0.110
-637.624	123.885	-0.173	-0.218
-636.609	-200.000	-0.023	-0.327
-635.595	-200.000	0.008	-0.205
-634.580	800.000	0.064	0.184
-633.565	-200.000	0.020	0.222
-632.551	-116.147	-0.444	-0.083
-631.536	-136.424	-0.311	0.036
-630.522	123.119	0.113	0.142
-629.507	95.136	0.157	-0.179
-628.492	-200.000	0.032	-0.272
-627.478	84.062	0.109	0.120
-626.463	-175.510	0.062	-0.002
-625.449	-200.000	0.057	-0.461
-624.434	359.688	0.172	0.345
-623.419	-105.535	-0.147	-0.034
-622.405	800.000	-0.050	0.180
-621.390	-89.454	0.311	-0.092
-620.376	35.962	-0.210	0.185
-619.361	-49.083	0.077	-0.037
-618.346	72.121	-0.143	-0.149
-617.332	114.068	0.106	0.130
-616.317	180.343	0.078	-0.114
-615.303	-37.045	-0.334	0.179
-614.288	-133.290	-0.362	-0.046
-613.273	690.106	-0.052	0.138
-612.259	-125.516	0.151	0.023
-611.244	-200.000	-0.026	0.333
-610.230	-200.000	0.009	0.263
-609.215	-200.000	-0.022	-0.276
-608.201	-200.000	-0.044	-0.237
-607.186	18.838	-0.142	-0.114
-606.171	61.357	-0.055	-0.054
-605.157	-200.000	-0.034	0.205
-604.142	-92.097	0.170	-0.048
-603.128	-200.000	-0.050	-0.239
-602.113	-37.979	0.228	-0.121
-601.098	363.603	-0.084	0.169
-600.084	110.151	-0.179	0.215
-599.069	12.765	0.155	0.120
-598.055	77.621	-0.155	0.165
-597.040	214.183	-0.013	0.020
-596.025	173.554	-0.042	0.061
-595.011	258.331	0.102	0.177
-593.996	246.476	-0.161	-0.272
-592.982	-175.016	-0.202	0.006
-591.967	-200.000	0.013	-0.374
-590.952	118.821	-0.077	-0.095
-589.938	-91.579	0.395	-0.113
-588.923	-200.000	0.047	0.255
-587.909	235.299	0.164	-0.270
-586.894	-95.712	-0.237	0.063
-585.879	271.623	-0.032	0.056
-584.865	-4.788	0.342	0.236
-583.850	652.057	-0.028	-0.072
-582.836	450.393	0.162	-0.359
-581.821	67.929	-0.164	0.168
-580.806	611.792	0.015	0.038
-579.792	504.475	0.066	0.154
-578.777	518.452	-0.070	-0.165
-577.763	-159.680	0.168	0.009
-576.748	-170.755	-0.418	-0.014
-575.733	-33.535	0.103	0.057
-574.719	-41.172	0.055	0.028
-573.704	68.179	-0.128	0.131
-572.690	-1.606	-0.076	-0.054
-571.675	-30.304	-0.197	-0.112
-570.661	-140.960	-0.231	0.024
-569.646	800.000	-0.054	-0.166
-568.631	-81.443	-0.046	-0.015
-567.617	290.261	0.146	-0.265
-566.602	800.000	-0.041	-0.150
-565.588	800.000	-0.089	0.329
-564.573	-200.000	0.013	0.174
-563.558	800.000	0.045	-0.193
-562.544	-200.000	0.016	-0.095
-561.529	800.000	0.112	0.427
-560.515	233.156	-0.084	-0.138
-559.500	-200.000	-0.004	-0.121
-558.485	44.165	0.095	0.087
-557.471	-106.195	0.190	0.043
-556.456	549.931	0.133	-0.318
-555.442	800.000	-0.056	-0.170
-554.427	-113.145	-0.445	0.088
-553.412	-95.562	-0.204	0.055
-552.398	-56.853	0.201	-0.089
-551.383	-151.775	0.439	-0.032
-550.369	-148.985	0.173	-0.014
-549.354	-99.142	-0.343	0.087
-548.339	-200.000	-0.021	-0.285
-547.325	94.379	-0.166	-0.188
-546.310	-127.022	0.062	0.009
-545.296	617.687	-0.110	0.275
-544.281	99.236	-0.145	0.167
-543.266	-87.379	-0.128	0.039
-542.252	800.000	-0.022	-0.076
-541.237	-200.000	-0.002	0.164
-540.223	-200.000	0.005	0.064
-539.208	60.507	0.048	-0.047
-538.193	-90.304	0.311	0.090
-537.179	800.000	0.116	-0.403
-536.164	-21.101	-0.135	0.082
-535.150	82.145	0.025	0.027
-534.135	433.377	-0.051	-0.111
-533.121	198.882	-0.029	-0.045
-532.106	236.965	0.046	-0.076
-531.091	800.000	0.061	-0.189
-530.077	-7.687	0.177	0.119
-529.062	-200.000	0.069	-0.336
-528.048	-90.825	-0.146	0.042
-527.033	-6.249	0.044	0.030
-526.018	800.000	-0.123	-0.440
-525.004	-195.336	-0.233	0.002
-523.989	158.218	0.137	0.190
-522.975	387.703	-0.020	0.041
-521.960	800.000	0.093	-0.314
-520.945	-200.000	-0.036	-0.165
-519.931	-54.196	0.064	-0.029
-518.916	8.414	-0.127	0.095
-517.902	-46.351	-0.141	0.069
-516.887	4.226	-0.140	-0.102
-515.872	-26.696	0.138	0.081
-514.858	56.426	-0.112	-0.109
-513.843	800.000	-0.054	-0.210
-512.829	10.623	-0.191	0.145
-511.814	-200.000	0.287	0.001
-510.799	800.000	-0.008	-0.035
-509.785	34.579	-0.062	-0.054
-508.770	129.577	0.195	-0.249
-507.756	337.884	-0.124	0.241
-506.741	-38.142	-0.219	-0.116
-505.726	-45.458	0.371	-0.183
-504.712	32.130	-0.324	0.279
-503.697	-49.547	-0.292	-0.139
-502.683	-151.745	0.036	0.003
-501.668	47.105	-0.234	0.217
-500.653	347.168	-0.026	0.052
-499.639	-103.689	0.058	-0.014
-498.624	157.978	0.134	-0.185
-497.610	668.746	0.079	-0.205
-496.595	84.386	0.194	0.211
-495.581	138.086	0.132	-0.173
-494.566	280.743	0.063	-0.112
-493.551	-200.000	-0.182	-0.000
-492.537	-139.276	0.240	-0.026
-491.522	-200.000	-0.047	-0.208
-490.508	-104.964	-0.158	0.036
-489.493	-114.892	0.161	0.031
-488.478	-63.796	-0.312	0.127
-487.464	800.000	0.053	0.155
-486.449	-61.142	-0.219	0.092
-485.435	-200.000	0.057	0.322
-484.420	-200.000	0.001	0.336
-483.405	553.910	0.067	-0.161
-482.391	23.764	0.114	0.093
-481.376	800.000	-0.081	0.282
-480.362	-21.289	-0.118	-0.072
-479.347	24.807	-0.281	0.232
-478.332	-200.000	0.013	0.198
-477.318	12.258	0.143	0.110
-476.303	-184.923	-0.041	-0.001
-475.289	12.052	-0.124	-0.095
-474.274	-150.111	0.122	-0.009
-473.259	224.987	-0.103	-0.166
-472.245	-74.712	-0.337	-0.121
-471.230	-169.213	0.129	-0.005
-470.216	-70.928	0.147	-0.055
-469.201	-200.000	0.007	0.057
-468.186	-52.197	-0.085	0.039
-467.172	109.441	0.117	0.139
-466.157	-200.000	-0.010	-0.325
-465.143	-8.920	-0.186	-0.124
-464.128	-126.172	-0.272	-0.041
-463.113	-200.000	-0.002	0.191
-462.099	-66.730	0.059	0.023
-461.084	70.119	-0.060	-0.062
-460.070	800.000	0.148	-0.487
-459.055	-200.000	-0.005	-0.071
-458.040	64.601	-0.267	0.268
-457.026	275.289	-0.111	-0.196
-456.011	-59.004	0.224	0.096
-454.997	2.479	0.132	-0.095
-453.982	152.846	-0.154	0.210
-452.968	-200.000	0.003	0.064
-451.953	255.249	0.094	-0.160
-450.938	641.659	0.098	-0.248
-449.924	25.462	-0.037	0.030
-448.909	-58.794	-0.169	-0.073
-447.895	-14.445	-0.213	-0.137
-446.880	-71.575	-0.325	-0.121
-445.865	-200.000	0.027	0.144
-444.851	-90.493	0.288	0.083
-443.836	-93.943	0.151	-0.041
-442.822	-63.645	0.219	0.089
-441.807	800.000	0.047	0.135
-440.792	412.514	-0.135	0.286
-439.778	-140.504	0.163	0.017
-438.763	800.000	-0.054	-0.187
-437.749	-200.000	0.056	0.373
-436.734	-101.784	-0.182	-0.044
-435.719	3.994	-0.028	-0.020
-434.705	-157.919	-0.306	0.018
-433.690	178.386	0.189	-0.274
-432.676	-35.711	-0.160	-0.086
-431.661	-132.236	-0.116	-0.015
-430.646	800.000	-0.046	-0.131
-429.632	46.195	-0.168	0.155
-428.617	302.953	-0.037	0.067
-427.603	127.904	0.140	0.177
-426.588	-104.015	0.264	0.061
-425.573	272.587	-0.021	-0.037
-424.559	35.367	0.103	-0.089
-423.544	-13.734	0.185	-0.119
-422.530	178.111	-0.239	-0.347
-421.515	-114.598	-0.310	-0.059
-420.500	86.518	0.272	0.298
-419.486	800.000	0.086	0.263
-418.471	96.269	-0.294	0.334
-417.457	-5.663	-0.305	0.208
-416.442	144.066	0.302	0.400
-415.428	-200.000	0.004	-0.047
-414.413	75.475	0.078	-0.081
-413.398	-171.059	0.227	0.008
-412.384	211.955	-0.121	-0.190
-411.369	-48.348	0.251	0.120
-410.355	104.933	-0.107	0.125
-409.340	-162.827	-0.158	0.008
-408.325	-200.000	0.073	0.381
-407.311	800.000	0.017	-0.055
-406.296	486.230	0.062	-0.141
-405.282	-38.488	0.227	0.119
-404.267	195.494	0.067	-0.101
-403.252	127.238	0.075	-0.094
-402.238	7.560	-0.218	-0.162
-401.223	1.767	0.250	-0.179
-400.209	-38.041	0.080	-0.042
-399.194	-27.814	0.288	-0.166
-398.179	201.464	-0.078	-0.119
-397.165	275.676	-0.069	0.122
-396.150	-119.246	0.139	-0.024
-395.136	-200.000	-0.144	-0.000
-394.121	210.778	-0.210	0.328
-393.106	-143.850	-0.299	0.028
-392.092	-118.158	0.191	-0.034
-391.077	800.000	0.062	0.199
-390.063	-190.180	-0.310	-0.003
-389.048	132.815	0.177	0.227
-388.033	-77.458	0.356	-0.123
-387.019	101.829	-0.117	-0.135
-386.004	-200.000	0.051	0.224
-384.990	-7.389	-0.132	-0.089
-383.975	-30.997	-0.261	0.147
-382.960	-200.000	-0.053	-0.300
-381.946	-200.000	0.028	-0.470
-380.931	-200.000	-0.009	0.168
-379.917	800.000	-0.049	-0.168
-378.902	-200.000	0.006	0.110
-377.888	-33.406	0.064	0.035
-376.873	8.842	-0.372	0.279
-375.858	-77.866	-0.170	0.058
-374.844	-178.099	0.257	0.006
-373.829	-28.700	0.187	0.107
-372.815	321.191	0.053	-0.100
-371.800	-168.559	-0.094	-0.004
-370.785	-200.000	-0.037	-0.489
-369.771	181.712	-0.319	-0.466
-368.756	-55.349	0.234	0.104
-367.742	59.253	0.143	-0.140
-366.727	-63.502	0.141	-0.058
-365.712	-200.000	-0.024	0.247
-364.698	-117.311	0.402	-0.072
-363.683	-47.001	-0.230	-0.112
-362.669	17.386	0.170	0.134
-361.654	-200.000	0.024	0.141
-360.639	260.861	-0.080	-0.138
-359.625	319.434	0.053	0.100
-358.610	232.510	-0.092	0.151
-357.596	800.000	0.077	-0.232
-356.581	-200.000	-0.030	-0.265
-355.566	800.000	0.074	-0.281
-354.552	-127.612	0.079	0.011
-353.537	-0.809	0.218	-0.153
-352.523	-39.835	0.181	0.094
-351.508	431.304	-0.158	0.339
-350.493	223.543	-0.063	0.100
-349.479	-102.942	-0.469	0.110
-348.464	84.415	-0.059	-0.064
-347.450	508.247	-0.077	-0.176
-346.435	188.004	0.203	-0.300
-345.420	-34.042	0.082	0.045
-344.406	-200.000	0.043	-0.241
-343.391	-50.949	-0.122	-0.057
-342.377	-144.245	-0.099	0.009
-341.362	-173.155	-0.303	0.009
-340.348	-105.300	0.042	-0.010
-339.333	-74.775	-0.158	-0.056
-338.318	68.503	0.091	0.093
-337.304	800.000	-0.059	-0.197
-336.289	-84.874	-0.196	0.061
-335.275	712.378	-0.061	0.159
-334.260	-200.000	-0.035	0.000
-333.245	166.249	0.147	-0.206
-332.231	-133.201	0.489	0.061
-331.216	-54.796	-0.017	-0.007
-330.202	-157.289	0.133	0.008
-329.187	166.784	-0.075	0.105
-328.172	-55.718	-0.025	-0.011
-327.158	-8.526	0.204	0.136
-326.143	42.667	0.238	-0.214
-325.129	-54.783	0.155	-0.069
-324.114	75.508	0.207	-0.217
-323.099	47.882	0.121	-0.112
-322.085	-67.703	0.168	-0.065
-321.070	-200.000	0.045	0.343
-320.056	800.000	-0.037	-0.158
-319.041	-62.571	-0.282	0.116
-318.026	20.108	-0.437	-0.349
-317.012	-150.442	0.158	-0.012
-315.997	-93.205	-0.198	0.055
-314.983	440.996	0.091	0.197
-313.968	53.080	-0.110	-0.104
-312.953	-200.000	0.002	0.165
-311.939	2.943	-0.099	0.071
-310.924	504.103	0.153	0.351
-309.910	-0.229	-0.157	0.110
-308.895	427.841	0.085	0.182
-307.880	-151.558	0.051	-0.004
-306.866	168.404	0.088	0.125
-305.851	-54.342	-0.069	-0.031
-304.837	15.789	0.166	0.129
-303.822	83.336	-0.240	0.259
-302.807	270.537	0.108	0.189
-301.793	-171.022	-0.063	-0.002
-300.778	-200.000	-0.079	0.510
-299.764	63.833	0.116	-0.115
-298.749	366.533	0.022	0.043
-297.735	-200.000	-0.041	-0.392
-296.720	-101.321	0.298	0.072
-295.705	-76.907	-0.016	-0.005
-294.691	-200.000	0.017	-0.182
-293.676	800.000	-0.095	-0.312
-292.662	120.665	0.283	-0.348
-291.647	-91.119	0.263	-0.075
-290.632	138.076	-0.081	0.105
-289.618	-80.387	-0.017	0.006
-288.603	634.982	0.062	0.155
-287.589	-74.164	-0.157	0.056
-286.574	-76.675	-0.335	-0.116
-285.559	-113.242	0.143	-0.028
-284.545	-200.000	-0.019	0.111
-283.530	-200.000	-0.020	-0.090
-282.516	800.000	-0.078	-0.220
-281.501	37.702	-0.234	0.205
-280.486	800.000	-0.025	0.102
-279.472	52.384	0.262	0.247
-278.457	245.655	-0.019	0.032
-277.443	379.079	-0.109	0.221
-276.428	800.000	0.121	-0.376
-275.413	-53.173	-0.239	0.108
-274.399	212.014	0.129	0.200
-273.384	-65.781	0.373	-0.148
-272.370	136.478	-0.050	-0.065
-271.355	159.274	0.069	-0.095
-270.340	42.078	-0.197	-0.177
-269.326	-200.000	-0.007	-0.047
-268.311	800.000	-0.031	0.092
-267.297	-32.747	0.100	0.055
-266.282	55.882	0.033	-0.032
-265.267	125.318	0.111	0.139
-264.253	-162.504	0.183	0.009
-263.238	-200.000	-0.035	0.222
-262.224	-200.000	-0.006	0.249
-261.209	-50.311	0.386	-0.180
-260.195	64.477	0.299	0.297
-259.180	-145.439	-0.205	0.018
-258.165	800.000	0.093	-0.304
-257.151	-66.711	-0.374	0.146
-256.136	-200.000	0.034	0.326
-255.122	-200.000	-0.049	0.347
-254.107	-200.000	-0.003	0.117
-253.092	800.000	0.051	-0.161
-252.078	-118.107	-0.157	0.028
-251.063	440.922	-0.188	0.405
-250.049	-51.126	0.218	0.101
-249.034	-34.267	-0.173	-0.094
-248.019	281.019	0.112	0.198
-247.005	487.032	0.003	-0.007
-245.990	-200.000	-0.016	-0.273
-244.976	-200.000	-0.031	0.450
-243.961	141.712	-0.113	0.148
-242.946	-200.000	0.019	0.281
-241.932	126.511	0.127	0.158
-240.917	-132.644	0.058	-0.007
-239.903	-174.846	-0.139	0.004
-238.888	800.000	0.070	-0.198
-237.873	800.000	-0.072	-0.259
-236.859	-26.999	0.111	-0.064
-235.844	-163.722	-0.192	-0.009
-234.830	121.486	-0.116	0.143
-233.815	110.484	-0.111	0.132
-232.800	800.000	-0.075	-0.300
-231.786	404.926	0.043	-0.090
-230.771	201.743	-0.081	-0.123
-229.757	-16.362	0.193	0.121
-228.742	-200.000	-0.013	0.596
-227.727	-47.231	0.374	-0.180
-226.713	-93.149	0.356	0.098
-225.698	110.524	-0.233	0.276
-224.684	58.622	0.149	-0.144
-223.669	-103.724	0.161	0.037
-222.655	189.202	-0.058	-0.086
-221.640	20.865	0.105	-0.084
-220.625	800.000	0.063	0.268
-219.611	35.478	-0.182	-0.157
-218.596	-83.614	0.117	-0.037
-217.582	-6.401	0.192	0.129
-216.567	97.065	-0.052	0.058
-215.552	80.866	0.235	0.250
-214.538	-200.000	-0.006	0.237
-213.523	-70.456	-0.312	0.117
-212.509	-91.307	0.449	0.127
-211.494	-200.000	-0.010	0.178
-210.479	-46.984	-0.255	0.123
-209.465	-200.000	0.005	-0.093
-208.450	210.615	-0.105	-0.162
-207.436	-200.000	0.008	-0.225
-206.421	800.000	-0.083	-0.329
-205.406	-127.285	-0.125	0.018
-204.392	87.241	-0.110	0.120
-203.377	26.145	-0.240	-0.198
-202.363	136.391	-0.022	0.028
-201.348	-126.282	-0.379	0.056
-200.333	-134.102	-0.411	-0.050
-199.319	124.819	0.151	-0.188
-198.304	-61.665	-0.209	0.086
-197.290	-56.263	-0.041	0.018
-196.275	370.987	0.174	0.348
-195.260	-200.000	0.008	0.288
-194.246	-120.826	-0.224	-0.037
-193.231	755.575	-0.059	-0.158
-192.217	-50.542	0.091	-0.042
-191.202	-143.991	0.180	0.017
-190.187	2.778	-0.185	-0.132
-189.173	-200.000	0.000	-0.346
-188.158	63.010	-0.073	-0.072
-187.144	-118.585	0.154	0.027
-186.129	-200.000	-0.022	-0.098
-185.114	359.152	-0.030	-0.059
-184.100	703.777	-0.065	-0.168
-183.085	32.983	0.188	-0.161
-182.071	-97.962	0.143	-0.036
-181.056	-47.298	0.236	0.113
-180.042	-200.000	0.065	0.312
-179.027	-34.270	0.181	-0.098
-178.012	-94.554	0.217	-0.058
-176.998	-67.562	0.211	-0.081
-175.983	200.082	0.203	-0.307
-174.969	-75.480	0.204	-0.071
-173.954	-66.693	-0.184	-0.072
-172.939	13.339	0.148	0.113
-171.925	29.538	-0.294	0.246
-170.910	-8.101	-0.204	0.136
-169.896	-200.000	0.052	0.228
-168.881	-196.668	0.296	0.002
-167.866	115.125	-0.038	0.046
-166.852	-200.000	0.026	-0.187
-165.837	271.980	0.156	-0.270
-164.823	800.000	0.074	-0.207
-163.808	17.793	0.056	0.044
-162.793	800.000	-0.044	0.127
-161.779	79.850	-0.103	0.109
-160.764	-127.621	-0.290	-0.041
-159.750	-200.000	0.025	-0.156
-158.735	215.795	0.301	0.470
-157.720	-200.000	0.087	0.409
-156.706	203.724	0.209	0.319
-155.691	210.311	0.134	-0.207
-154.677	-46.237	0.150	-0.073
-153.662	64.767	0.321	0.318
-152.647	44.323	-0.184	0.166
-151.633	-71.096	0.084	-0.031
-150.618	-52.343	-0.106	-0.048
-149.604	54.006	0.140	0.132
-148.589	143.924	-0.052	0.068
-147.574	-154.715	-0.236	0.015
-146.560	136.032	-0.118	0.152
-145.545	-200.000	-0.018	-0.209
-144.531	-69.790	0.126	-0.047
-143.516	-200.000	0.076	0.456
-142.502	-105.603	0.093	-0.021
-141.487	47.613	-0.202	-0.185
-140.472	-200.000	0.024	-0.261
-139.458	-200.000	0.001	-0.353
-138.443	399.757	0.217	0.447
-137.429	204.409	-0.013	0.019
-136.414	-179.231	-0.130	0.003
-135.399	112.350	-0.248	-0.295
-134.385	-42.066	0.119	0.060
-133.370	-197.364	0.176	-0.001
-132.356	119.499	-0.110	0.134
-131.341	-23.277	-0.239	0.141
-130.326	-200.000	0.011	0.286
-129.312	-81.296	0.070	-0.023
-128.297	178.998	0.222	0.319
-127.283	800.000	0.025	0.097
-126.268	-96.493	0.137	0.035
-125.253	-200.000	-0.001	0.186
-124.239	8.238	0.083	0.062
-123.224	170.156	-0.087	-0.122
-122.210	-25.724	0.083	0.048
-121.195	-164.325	-0.242	-0.011
-120.180	209.917	0.100	0.154
-119.166	800.000	-0.088	-0.264
-118.151	-86.055	-0.121	0.037
-117.137	22.235	-0.027	0.021
-116.122	-200.000	-0.017	0.385
-115.107	-21.615	0.080	-0.048
-114.093	800.000	0.027	0.103
-113.078	-136.511	-0.070	0.008
-112.064	-12.497	-0.313	-0.201
-111.049	-200.000	0.013	-0.086
-110.034	-106.166	0.045	0.010
-109.020	12.286	0.150	-0.114
-108.005	158.362	0.129	0.176
-106.991	-66.420	0.240	0.093
-105.976	-56.064	0.108	0.047
-104.962	102.276	-0.163	0.187
-103.947	-44.425	0.079	0.039
-102.932	-47.259	-0.250	-0.119
-101.918	131.923	0.222	-0.281
-100.903	-182.962	-0.107	0.002
-99.889	140.736	0.134	0.174
-98.874	313.029	0.068	-0.126
-97.859	15.812	0.101	-0.078
-96.845	-92.962	0.156	-0.043
-95.830	35.866	-0.140	-0.121
-94.816	-157.605	-0.130	-0.008
-93.801	-63.834	0.351	-0.141
-92.786	-163.452	-0.155	0.007
-91.772	800.000	-0.054	0.197
-90.757	117.911	0.109	0.131
-89.743	800.000	0.089	0.289
-88.728	-119.165	0.186	0.032
-87.713	-131.954	0.057	-0.007
-86.699	800.000	-0.018	-0.059
-85.684	377.682	0.088	-0.177
-84.670	219.733	0.110	0.173
-83.655	-69.771	0.387	-0.145
-82.640	800.000	0.069	0.204
-81.626	-24.094	-0.201	-0.118
-80.611	-67.873	0.145	-0.056
-79.597	73.148	0.150	0.154
-78.582	-65.868	0.237	-0.093
-77.567	317.728	-0.087	-0.161
-76.553	529.563	-0.075	0.174
-75.538	58.418	0.267	0.257
-74.524	-127.542	-0.407	0.058
-73.509	-200.000	0.027	-0.174
-72.494	-124.742	0.309	0.047
-71.480	-36.684	-0.302	0.159
-70.465	-61.829	-0.188	0.077
-69.451	42.506	0.206	0.184
-68.436	512.221	-0.113	-0.258
-67.422	-167.581	0.373	0.015
-66.407	-200.000	-0.008	0.127
-65.392	-161.070	-0.226	0.012
-64.378	-162.794	0.085	-0.004
-63.363	-81.037	-0.170	0.055
-62.349	-50.672	-0.021	0.010
-61.334	-19.651	-1.019	-0.618
-60.319	92.381	0.607	0.670
-59.305	772.321	-0.396	-1.057
-58.290	121.687	0.929	1.135
-57.276	-200.000	0.321	1.442
-56.261	-200.000	113.511	648.657
-55.246	539.831	1517.772	3539.365
-54.232	179.194	2681.739	3843.964
-53.217	110.244	2147.901	2527.437
-52.203	39.278	1596.355	1399.913
-51.188	31.147	1343.031	1128.781
-50.173	28.168	1305.390	1079.556
-49.159	55.072	1361.949	1289.061
-48.144	53.991	1376.810	1296.578
-47.130	31.214	1332.044	1119.770
-46.115	27.959	1314.176	1085.406
-45.100	27.623	1309.527	1079.532
-44.086	27.561	1307.349	1077.330
-43.071	27.481	1304.844	1074.751
-42.057	27.430	1303.105	1072.978
-41.042	27.603	1300.983	1072.203
-40.027	27.665	1299.636	1071.416
-39.013	27.580	1297.488	1069.101
-37.998	27.590	1296.062	1067.945
-36.984	27.730	1294.118	1067.121
-35.969	27.748	1291.620	1065.122
-34.954	27.558	1291.237	1063.653
-33.940	27.763	1289.112	1063.057
-32.925	27.761	1287.891	1061.998
-31.911	27.696	1286.560	1060.478
-30.896	27.745	1285.360	1059.730
-29.881	27.833	1283.771	1058.891
-28.867	27.863	1282.481	1057.960
-27.852	27.876	1281.000	1056.769
-26.838	27.762	1279.748	1055.033
-25.823	27.773	1278.716	1054.205
-24.809	27.804	1277.317	1053.192
-23.794	27.701	1275.953	1051.431
-22.779	27.740	1274.672	1050.557
-21.765	27.846	1272.895	1049.658
-20.750	27.791	1271.651	1048.279
-19.736	27.644	1270.583	1046.513
-18.721	27.784	1269.122	1046.068
-17.706	27.649	1268.290	1044.567
-16.692	27.496	1267.364	1042.887
-15.677	27.581	1266.204	1042.381
-14.663	27.701	1264.743	1041.820
-13.648	27.646	1263.973	1040.829
-12.633	27.634	1262.922	1039.857
-11.619	27.597	1262.376	1039.152
-10.604	27.548	1261.450	1038.068
-9.590	27.615	1260.223	1037.398
-8.575	27.588	1259.093	1036.278
-7.560	27.700	1257.975	1035.952
-6.546	27.673	1257.446	1035.322
-5.531	27.575	1256.916	1034.285
-4.517	27.668	1255.559	1033.655
-3.502	27.566	1255.223	1032.760
-2.487	27.651	1254.558	1032.652
-1.473	27.708	1249.787	1029.008
-0.458	26.162	1234.595	1007.839
0.556	24.079	1217.052	969.356
1.571	20.310	1222.869	953.242
2.586	19.321	1236.909	958.606
3.600	19.049	1225.134	947.899
4.615	14.611	1154.106	869.782
5.629	7.293	1081.927	779.438
6.644	4.217	1063.049	750.892
7.659	3.836	1060.683	747.311
8.673	3.579	1059.642	745.269
9.688	3.570	1058.092	744.070
10.702	3.948	1056.639	744.805
11.717	8.813	1062.391	772.290
12.731	16.830	1074.745	820.149
13.746	21.774	1080.173	848.205
14.761	22.788	1080.694	853.443
15.775	21.996	1079.434	848.547
16.790	21.024	1077.760	842.461
17.804	20.401	1076.297	838.240
18.819	20.273	1075.339	836.803
19.834	20.224	1075.417	836.551
20.848	20.253	1074.736	836.089
21.863	20.061	1073.550	834.167
22.877	20.017	1072.566	833.115
23.892	19.972	1071.718	832.165
24.907	19.770	1071.679	831.092
25.921	19.808	1070.276	830.112
26.936	19.771	1069.007	828.879
27.950	19.700	1067.875	827.587
28.965	19.902	1066.077	827.086
29.980	20.127	1064.800	827.098
30.994	20.357	1063.566	827.163
32.009	20.198	1062.903	825.817
33.023	20.159	1062.124	824.950
34.038	20.009	1061.195	823.443
35.053	19.916	1060.198	822.157
36.067	19.755	1059.549	820.816
37.082	19.909	1058.375	820.562
38.096	20.047	1058.007	820.860
39.111	20.042	1057.425	820.312
40.126	19.738	1056.145	817.808
41.140	19.466	1054.390	815.093
42.155	19.406	1052.836	813.536
43.169	19.299	1051.802	812.158
44.184	19.368	1050.828	811.660
45.199	19.417	1049.965	811.154
46.213	19.600	1049.404	811.509
47.228	19.964	1048.477	812.426
48.242	19.844	1047.792	811.264
49.257	19.928	1046.850	810.855
50.271	20.034	1046.131	810.720
51.286	20.011	1045.738	810.241
52.301	19.960	1044.392	808.888
53.315	19.856	1043.096	807.324
54.330	19.766	1042.081	806.050
55.344	19.616	1040.957	804.409
56.359	19.644	1040.099	803.807
57.374	19.600	1039.397	802.988
58.388	19.381	1038.417	801.144
59.403	19.314	1037.728	800.227
60.417	19.298	1036.932	799.470
61.432	19.259	1036.203	798.657
62.447	19.208	1035.761	798.007
63.461	19.149	1034.849	796.962
64.476	19.173	1033.496	795.961
65.490	19.123	1032.987	795.267
66.505	19.093	1032.508	794.690
67.520	19.066	1032.101	794.181
68.534	19.140	1030.886	793.518
69.549	19.159	1029.886	792.762
70.563	19.018	1029.208	791.525
71.578	18.856	1028.353	790.053
72.593	18.699	1027.783	788.823
73.607	18.833	1026.859	788.660
74.622	18.816	1026.606	788.316
75.636	18.888	1025.951	788.074
76.651	18.977	1024.919	787.621
77.666	18.872	1024.943	787.088
78.680	18.926	1023.998	786.539
79.695	18.961	1023.336	786.120
80.709	19.270	1022.947	787.165
81.724	19.376	1022.306	787.085
82.739	19.565	1021.518	787.268
83.753	19.808	1021.218	788.076
84.768	20.227	1020.444	789.319
85.782	20.440	1019.847	789.756
86.797	20.383	1018.618	788.472
87.812	20.103	1017.501	786.270
88.826	20.069	1016.546	785.307
89.841	20.306	1015.891	785.805
90.855	20.295	1015.328	785.248
91.870	20.382	1014.322	784.797
92.884	20.263	1013.586	783.619
93.899	20.148	1012.431	782.138
94.914	20.305	1011.596	782.130
95.928	20.177	1010.837	780.901
96.943	20.143	1009.698	779.797
97.957	19.887	1009.126	778.138
98.972	19.992	1008.212	777.836
99.987	20.221	1007.149	777.973
101.001	20.026	1006.649	776.645
102.016	20.083	1005.725	776.115
103.030	20.258	1004.472	775.865
104.045	20.286	1004.122	775.649
105.060	19.909	1002.691	772.793
106.074	19.715	1001.588	771.009
107.089	19.395	1000.300	768.523
108.103	19.342	999.567	767.659
109.118	19.108	998.569	765.781
110.133	19.177	997.397	765.122
111.147	19.261	996.180	764.495
112.162	19.252	995.840	764.124
113.176	19.400	995.536	764.478
114.191	19.464	994.615	763.987
115.206	19.460	993.972	763.408
116.220	19.353	993.093	762.193
117.235	19.232	991.796	760.598
118.249	19.268	991.023	760.094
119.264	19.175	989.965	758.805
120.279	18.970	989.608	757.565
121.293	19.094	988.253	757.003
122.308	18.850	987.704	755.442
123.322	18.836	986.634	754.496
124.337	18.768	985.875	753.552
125.352	18.776	985.301	753.083
126.366	18.905	983.695	752.352
127.381	18.833	982.900	751.361
128.395	18.932	982.086	751.105
129.410	19.024	981.196	750.761
130.424	19.225	980.239	750.840
131.439	19.304	980.095	751.006
132.454	19.361	979.312	750.586
133.468	19.417	978.745	750.332
134.483	19.297	977.737	748.968
135.497	19.405	976.889	748.723
136.512	19.381	976.232	748.050
137.527	19.470	975.417	747.745
138.541	19.603	974.454	747.515
139.556	19.542	973.780	746.667
140.570	19.748	973.413	747.210
141.585	20.041	972.938	748.045
142.600	19.962	971.748	746.722
143.614	20.087	971.436	746.958
144.629	20.212	970.645	746.819
145.643	19.991	969.269	744.745
146.658	19.752	967.789	742.518
147.673	19.609	967.030	741.256
148.687	19.496	966.092	739.987
149.702	19.415	964.795	738.582
150.716	19.499	963.990	738.256
151.731	19.442	963.605	737.655
152.746	19.507	963.194	737.552
153.760	19.589	962.198	737.075
154.775	19.822	961.669	737.595
155.789	19.765	961.075	736.832
156.804	19.768	960.326	736.206
157.819	19.943	959.653	736.368
158.833	20.098	959.271	736.671
159.848	20.297	958.474	736.840
160.862	20.062	957.043	734.677
161.877	19.713	955.398	731.873
162.892	19.309	954.812	729.648
163.906	19.313	953.476	728.579
164.921	19.180	952.990	727.584
165.935	19.532	951.947	728.207
166.950	19.688	951.179	728.214
167.964	19.649	950.043	727.114
168.979	19.459	949.206	725.609
169.994	19.497	948.317	725.028
171.008	19.730	947.879	725.606
172.023	19.976	947.518	726.294
173.037	20.035	947.085	726.147
174.052	19.841	946.030	724.461
175.067	19.355	945.105	721.657
176.081	19.304	944.026	720.554
177.096	19.245	943.412	719.775
178.110	19.434	942.680	719.943
179.125	19.473	942.035	719.549
180.140	19.735	942.188	720.693
181.154	19.898	941.605	720.864
182.169	20.026	941.842	721.516
183.183	20.027	940.810	720.665
184.198	20.042	939.953	720.005
185.213	19.904	939.665	719.151
186.227	20.014	938.701	718.806
187.242	20.079	938.436	718.807
188.256	20.354	937.726	719.338
189.271	20.390	936.646	718.596
190.286	20.056	935.467	716.248
191.300	19.306	934.445	712.304
192.315	19.057	933.719	710.659
193.329	19.318	932.861	711.021
194.344	19.622	932.562	711.983
195.359	19.625	932.038	711.533
196.373	19.769	932.059	712.079
197.388	19.921	931.865	712.491
198.402	20.297	931.542	713.728
199.417	20.519	930.784	713.997
200.432	20.565	930.731	714.083
201.446	20.619	930.201	713.835
202.461	20.681	929.451	713.448
203.475	20.516	928.637	712.086
204.490	20.228	927.307	709.824
205.504	20.016	926.633	708.377
206.519	19.988	925.522	707.350
207.534	19.970	925.007	706.824
208.548	20.101	924.027	706.547
209.563	20.109	923.895	706.414
210.577	20.192	923.053	706.047
211.592	20.477	922.937	707.055
212.607	20.573	922.271	706.873
213.621	20.356	921.491	705.332
214.636	20.276	920.636	704.287
215.650	20.405	920.151	704.377
216.665	20.574	919.419	704.442
217.680	20.574	919.253	704.252
218.694	20.567	918.227	703.376
219.709	20.578	917.602	702.879
220.723	20.432	916.891	701.681
221.738	20.446	915.798	700.840
222.753	20.440	915.831	700.781
223.767	20.598	915.143	700.826
224.782	20.695	914.858	700.939
225.796	20.737	914.432	700.717
226.811	20.457	913.349	698.699
227.826	20.272	912.034	696.891
228.840	20.387	911.244	696.685
229.855	20.351	910.760	696.110
230.869	20.201	909.730	694.661
231.884	20.106	909.837	694.298
232.899	20.111	908.338	693.116
233.913	19.995	908.059	692.376
234.928	19.845	907.324	691.157
235.942	19.920	906.270	690.591
236.957	19.844	906.126	690.115
237.972	19.914	905.534	689.886
238.986	19.907	904.751	689.199
240.001	19.951	903.957	688.707
241.015	20.188	903.065	688.907
242.030	20.225	903.240	689.127
243.045	20.272	902.875	688.976
244.059	20.167	902.421	688.152
245.074	20.261	901.547	687.798
246.088	20.470	900.916	688.081
247.103	20.743	900.439	688.737
248.117	20.815	900.635	689.113
249.132	21.122	900.446	690.120
250.147	21.538	900.003	691.361
251.161	21.663	898.854	690.913
252.176	21.542	898.551	690.141
253.190	21.678	897.905	690.120
254.205	21.552	897.528	689.274
255.220	21.530	896.576	688.394
256.234	21.272	896.240	687.062
257.249	21.488	895.057	686.944
258.263	21.309	894.600	685.829
259.278	21.469	893.660	685.675
260.293	21.379	893.653	685.256
261.307	21.583	893.124	685.588
262.322	21.610	892.537	685.181
263.336	21.632	891.717	684.576
264.351	21.633	890.713	683.751
265.366	21.556	890.527	683.247
266.380	21.536	890.097	682.778
267.395	21.404	888.878	681.268
268.409	21.325	888.199	680.381
269.424	21.358	887.350	679.799
270.439	21.268	886.567	678.790
271.453	21.100	885.725	677.431
272.468	21.100	885.639	677.306
273.482	21.038	885.062	676.563
274.497	21.192	883.860	676.181
275.512	21.101	883.736	675.676
276.526	21.206	883.121	675.552
277.541	21.147	882.824	675.037
278.555	21.469	882.891	676.271
279.570	21.594	882.304	676.244
280.585	21.631	881.420	675.652
281.599	21.373	880.118	673.599
282.614	21.262	879.292	672.480
283.628	21.197	878.945	671.904
284.643	21.060	878.278	670.811
285.657	21.273	877.583	671.039
286.672	21.329	876.887	670.661
287.687	21.381	876.202	670.274
288.701	21.258	875.692	669.354
289.716	21.319	874.987	668.991
290.730	21.401	874.584	668.936
291.745	21.388	874.492	668.757
292.760	21.452	873.881	668.475
293.774	21.785	873.707	669.557
294.789	21.673	872.651	668.259
295.803	21.281	871.689	665.972
296.818	21.460	870.352	665.572
297.833	21.406	870.281	665.253
298.847	21.266	870.037	664.476
299.862	21.378	869.731	664.607
300.876	21.443	869.621	664.711
301.891	21.861	868.629	665.482
302.906	21.873	868.286	665.207
303.920	22.062	868.067	665.697
304.935	22.201	867.139	665.452
305.949	22.119	866.419	664.531
306.964	21.807	865.580	662.648
307.979	21.769	864.867	661.899
308.993	21.925	864.754	662.344
310.008	21.909	864.480	662.015
311.022	21.704	863.796	660.661
312.037	21.568	862.606	659.179
313.052	21.309	861.844	657.564
314.066	21.130	861.187	656.331
315.081	21.249	860.506	656.202
316.095	21.390	859.885	656.201
317.110	21.179	859.585	655.121
318.125	21.210	859.040	654.764
319.139	21.223	858.533	654.367
320.154	21.308	858.246	654.410
321.168	21.297	857.772	653.949
322.183	21.336	857.140	653.555
323.197	21.443	856.602	653.487
324.212	21.417	856.164	653.000
325.227	21.326	855.682	652.231
326.241	21.268	854.720	651.226
327.256	21.282	854.039	650.701
328.270	21.402	853.618	650.771
329.285	21.147	853.308	649.525
330.300	21.198	852.191	648.810
331.314	21.441	851.834	649.382
332.329	21.694	851.444	649.966
333.343	21.768	851.297	650.072
334.358	21.779	850.662	649.568
335.373	21.744	850.426	649.203
336.387	21.802	850.483	649.404
337.402	21.984	850.247	649.837
338.416	22.119	850.019	650.105
339.431	22.352	849.682	650.653
340.446	22.184	849.524	649.852
341.460	22.326	848.818	649.781
342.475	22.493	848.554	650.135
343.489	22.598	847.679	649.797
344.504	22.528	847.836	649.601
345.519	22.677	847.215	649.617
346.533	22.413	846.660	648.162
347.548	22.232	845.801	646.781
348.562	21.872	845.246	644.975
349.577	21.840	844.508	644.240
350.592	21.802	843.271	643.099
351.606	21.592	842.830	641.937
352.621	21.757	842.326	642.098
353.635	21.863	841.737	641.980
354.650	21.945	841.379	641.953
355.665	21.937	840.582	641.258
356.679	22.011	840.409	641.339
357.694	22.057	839.447	640.715
358.708	22.019	838.914	640.113
359.723	22.169	837.871	639.809
360.738	22.085	837.707	639.321
361.752	22.158	837.228	639.162
362.767	22.460	836.703	639.803
363.781	22.488	836.460	639.661
364.796	22.702	836.075	640.089
365.810	22.804	835.803	640.191
366.825	22.967	835.078	640.173
367.840	22.906	834.510	639.460
368.854	22.458	834.025	637.411
369.869	22.446	833.429	636.854
370.883	22.466	833.180	636.679
371.898	22.709	832.751	637.174
372.913	22.632	832.658	636.768
373.927	22.568	831.863	635.871
374.942	22.659	831.185	635.626
375.956	22.768	830.940	635.776
376.971	22.913	830.845	636.167
377.986	22.996	830.187	635.908
379.000	23.100	829.542	635.729
380.015	23.156	828.531	635.100
381.029	22.949	827.968	633.869
382.044	22.902	827.875	633.576
383.059	23.010	827.412	633.552
384.073	22.852	826.418	632.169
385.088	22.486	825.570	630.153
386.102	22.490	824.928	629.623
387.117	22.393	824.349	628.777
388.132	22.476	823.487	628.362
389.146	22.666	822.927	628.555
390.161	22.787	823.173	629.120
391.175	22.891	822.676	629.055
392.190	22.589	822.344	627.670
393.205	22.447	821.381	626.375
394.219	22.467	820.875	626.006
395.234	22.294	820.409	624.977
396.248	22.184	820.354	624.491
397.263	22.087	819.493	623.437
398.278	22.194	819.111	623.469
399.292	22.027	818.245	622.165
400.307	22.128	818.054	622.322
401.321	22.206	817.732	622.296
402.336	22.319	817.167	622.213
403.350	22.433	816.997	622.428
404.365	22.663	816.915	623.125
405.380	22.885	816.575	623.594
406.394	23.036	816.058	623.677
407.409	23.090	815.749	623.578
408.423	23.297	815.493	624.057
409.438	23.359	814.979	623.826
410.453	23.160	814.873	622.988
411.467	23.271	814.305	622.889
412.482	23.288	814.139	622.767
413.496	23.446	813.537	622.807
414.511	23.511	813.155	622.687
415.526	23.290	812.355	621.244
416.540	23.278	811.822	620.739
417.555	23.393	811.239	620.644
418.569	23.246	810.966	619.865
419.584	23.264	810.215	619.297
420.599	23.359	809.848	619.294
421.613	164.076	1371.994	1797.725
422.628	142.876	1453.883	1797.816
