DTS Sentinel unit serial number:	SN413079Multiplexer serial number:	ORYXHardware model number:	OX4-SRSoftware version number:	ORYX F/W v4.00 Oryx Data Collector v3.7.2.0data status	okinstallation	princeton_trtdifferential loss correction	single-endedforward channel	channel 1reverse channel	N/Adate	2019/09/12time	02:56:11forward acquisition time	60.00reverse acquisition time	0.00gamma	496.2192k internal	0.2322k external	0.2322temperature offset calibration	1.0079default loss term (dB/km)	0.3790temperature slope calibration	1.0000multiplexer offset coefficient	1.0000multiplexer slope coefficient	1.0000fibre end	0.00T internal ref (°C)	32.31T ext. ref 1 (°C)	2.09T ext. ref 2 (°C)	27.32length (m)	temperature (°C)	Stokes	anti-Stokes-747.200	204.551	0.109	0.171
-746.185	285.937	0.108	0.196
-745.171	744.953	-0.045	-0.121
-744.156	682.562	-0.077	0.203
-743.142	5.329	-0.072	-0.054
-742.127	-200.000	0.046	0.357
-741.112	-172.820	-0.281	-0.009
-740.098	-136.279	-0.208	-0.025
-739.083	-162.598	0.109	-0.005
-738.069	-200.000	-0.025	0.204
-737.054	-200.000	0.012	-0.092
-736.039	800.000	-0.043	0.173
-735.025	207.291	0.139	0.219
-734.010	-200.000	-0.013	0.098
-732.996	-130.829	0.118	-0.016
-731.981	-200.000	0.006	0.078
-730.966	-200.000	-0.010	-0.443
-729.952	99.547	-0.046	-0.053
-728.937	32.023	0.064	0.055
-727.923	-200.000	0.055	-0.261
-726.908	94.646	-0.250	-0.287
-725.894	13.435	-0.104	0.081
-724.879	-180.512	-0.202	0.004
-723.864	65.820	0.187	-0.191
-722.850	0.105	-0.043	0.031
-721.835	340.276	0.021	0.042
-720.821	-163.966	-0.334	-0.016
-719.806	455.222	-0.106	-0.236
-718.791	800.000	-0.054	-0.177
-717.777	269.053	0.161	0.286
-716.762	-82.528	0.117	-0.038
-715.748	445.976	-0.117	0.259
-714.733	-93.171	0.200	-0.056
-713.718	-200.000	0.012	-0.107
-712.704	-94.195	-0.163	-0.045
-711.689	-134.067	0.156	0.019
-710.675	47.703	0.097	-0.092
-709.660	186.570	-0.126	0.190
-708.645	76.009	-0.007	-0.008
-707.631	131.132	0.069	0.090
-706.616	783.875	-0.076	0.210
-705.602	-200.000	0.021	0.273
-704.587	-119.803	-0.106	0.018
-703.572	114.830	0.036	-0.045
-702.558	463.956	-0.139	-0.313
-701.543	-200.000	-0.068	-0.374
-700.529	-172.545	0.221	0.007
-699.514	70.562	0.306	0.319
-698.499	100.546	-0.053	0.062
-697.485	-184.773	0.213	-0.003
-696.470	124.941	-0.103	-0.131
-695.456	-24.042	0.153	-0.092
-694.441	-91.449	-0.237	0.068
-693.426	-88.683	0.097	-0.029
-692.412	-200.000	-0.077	-0.353
-691.397	-200.000	-0.002	0.025
-690.383	-87.268	-0.365	-0.112
-689.368	-200.000	-0.014	0.167
-688.354	-101.914	0.298	-0.073
-687.339	-200.000	0.026	0.225
-686.324	-200.000	-0.043	0.205
-685.310	-185.056	-0.180	-0.003
-684.295	34.747	-0.131	-0.116
-683.281	-172.364	0.009	0.000
-682.266	-100.691	0.252	0.063
-681.251	113.974	-0.117	0.143
-680.237	-200.000	-0.010	-0.148
-679.222	-2.204	0.205	0.145
-678.208	-130.452	0.146	-0.020
-677.193	-15.963	0.111	0.071
-676.178	71.176	-0.066	0.069
-675.164	800.000	-0.017	-0.068
-674.149	632.399	-0.117	-0.298
-673.135	44.598	-0.111	-0.103
-672.120	-61.945	0.415	-0.175
-671.105	23.799	-0.083	-0.069
-670.091	-200.000	-0.002	-0.028
-669.076	797.458	-0.178	-0.493
-668.062	-25.190	0.206	0.123
-667.047	64.446	-0.311	-0.315
-666.032	43.388	-0.121	-0.111
-665.018	-200.000	-0.029	0.158
-664.003	-37.836	0.184	0.099
-662.989	293.750	-0.095	0.175
-661.974	718.572	-0.126	-0.336
-660.959	146.403	-0.085	-0.114
-659.945	25.302	0.324	-0.271
-658.930	-200.000	-0.012	-0.091
-657.916	51.243	0.341	0.326
-656.901	-200.000	0.008	0.397
-655.886	-165.529	0.293	-0.013
-654.872	-200.000	-0.064	0.362
-653.857	153.950	-0.148	0.204
-652.843	400.501	-0.149	-0.314
-651.828	800.000	0.069	0.220
-650.814	800.000	-0.074	0.257
-649.799	76.147	0.227	0.242
-648.784	-152.887	-0.183	0.013
-647.770	-81.322	-0.159	-0.053
-646.755	800.000	-0.066	0.259
-645.741	-9.058	-0.018	0.012
-644.726	800.000	-0.073	0.256
-643.711	-38.616	-0.214	-0.114
-642.697	122.026	0.148	0.186
-641.682	-20.102	-0.051	-0.032
-640.668	-200.000	-0.029	-0.177
-639.653	26.001	-0.159	0.134
-638.638	-77.562	-0.340	0.118
-637.624	-200.000	0.038	0.290
-636.609	329.847	0.176	0.340
-635.595	-37.640	-0.205	-0.110
-634.580	362.766	0.102	-0.206
-633.565	129.805	-0.025	-0.032
-632.551	28.378	0.313	0.266
-631.536	-200.000	-0.013	-0.155
-630.522	-137.343	0.168	-0.019
-629.507	-9.618	0.304	-0.204
-628.492	52.882	0.179	0.173
-627.478	100.549	-0.083	0.097
-626.463	10.772	-0.221	-0.170
-625.449	-200.000	-0.002	0.318
-624.434	800.000	-0.067	0.283
-623.419	155.299	-0.214	-0.296
-622.405	-142.540	-0.387	-0.038
-621.390	27.839	0.055	-0.046
-620.376	180.078	0.149	-0.220
-619.361	-21.886	0.225	-0.137
-618.346	800.000	0.034	-0.119
-617.332	151.226	0.100	0.137
-616.317	-101.563	-0.086	0.021
-615.303	800.000	0.107	0.313
-614.288	45.882	-0.031	0.029
-613.273	-1.080	0.281	0.200
-612.259	-154.055	0.104	0.007
-611.244	-200.000	0.048	-0.445
-610.230	-200.000	0.007	0.283
-609.215	-100.052	-0.154	-0.039
-608.201	-164.943	-0.218	0.010
-607.186	450.986	-0.130	0.289
-606.171	-200.000	-0.049	0.225
-605.157	-200.000	0.026	-0.193
-604.142	-80.441	0.048	0.016
-603.128	685.284	0.059	-0.155
-602.113	-43.040	-0.446	-0.227
-601.098	-200.000	-0.022	0.187
-600.084	-200.000	0.031	-0.244
-599.069	64.384	-0.102	-0.103
-598.055	-22.783	-0.140	-0.085
-597.040	238.781	-0.069	0.116
-596.025	122.817	0.181	0.228
-595.011	-64.488	0.121	0.049
-593.996	-108.988	0.121	-0.026
-592.982	18.522	-0.175	-0.140
-591.967	78.359	-0.134	-0.144
-590.952	-56.303	0.220	-0.098
-589.938	-18.784	-0.126	0.079
-588.923	-78.968	-0.274	-0.094
-587.909	420.464	-0.064	-0.137
-586.894	-91.101	0.043	-0.012
-585.879	530.162	-0.084	0.199
-584.865	518.340	0.019	-0.045
-583.850	-36.545	-0.209	0.113
-582.836	-200.000	0.003	-0.209
-581.821	272.017	-0.094	-0.167
-580.806	-162.324	-0.186	-0.009
-579.792	-125.465	0.190	0.029
-578.777	-44.757	-0.415	0.208
-577.763	-200.000	-0.055	0.319
-576.748	-49.907	0.279	-0.133
-575.733	22.785	0.241	-0.198
-574.719	268.851	0.052	0.092
-573.704	578.049	-0.030	-0.073
-572.690	630.519	0.115	-0.291
-571.675	106.554	-0.133	-0.158
-570.661	-200.000	-0.052	-0.349
-569.646	139.833	0.265	-0.351
-568.631	-131.046	-0.179	0.024
-567.617	800.000	-0.052	-0.183
-566.602	171.565	-0.253	-0.364
-565.588	-49.321	-0.202	-0.097
-564.573	-85.576	0.109	0.034
-563.558	-200.000	-0.022	-0.315
-562.544	229.278	-0.050	0.081
-561.529	11.737	-0.118	-0.091
-560.515	-74.750	-0.102	-0.037
-559.500	-57.735	-0.261	-0.115
-558.485	708.487	-0.062	0.165
-557.471	-105.583	-0.234	-0.053
-556.456	-144.910	-0.321	0.029
-555.442	2.784	0.114	-0.083
-554.427	-200.000	0.015	0.247
-553.412	124.733	-0.219	-0.277
-552.398	-200.000	0.026	-0.373
-551.383	-137.486	-0.214	-0.024
-550.369	-8.108	-0.247	0.167
-549.354	46.097	0.089	0.083
-548.339	-63.645	0.382	0.157
-547.325	302.762	-0.121	-0.224
-546.310	-57.301	0.339	0.149
-545.296	169.944	0.031	-0.044
-544.281	800.000	-0.041	-0.143
-543.266	74.519	-0.169	-0.178
-542.252	-117.007	0.181	-0.033
-541.237	-38.474	0.037	0.020
-540.223	-200.000	0.039	-0.185
-539.208	49.411	-0.195	0.184
-538.193	96.123	0.127	-0.146
-537.179	92.310	-0.110	-0.124
-536.164	-163.365	-0.250	-0.012
-535.150	80.482	0.053	0.057
-534.135	393.549	-0.100	-0.209
-533.121	-155.295	0.260	-0.017
-532.106	-17.332	0.329	0.208
-531.091	800.000	-0.115	-0.378
-530.077	-74.441	0.097	-0.035
-529.062	185.074	-0.099	0.147
-528.048	-103.310	0.039	0.009
-527.033	7.535	0.262	-0.196
-526.018	-84.046	-0.384	-0.122
-525.004	800.000	0.033	-0.117
-523.989	57.072	-0.332	-0.324
-522.975	-97.905	-0.180	0.047
-521.960	-185.727	-0.586	0.009
-520.945	800.000	-0.162	0.536
-519.931	-171.129	0.400	0.014
-518.916	800.000	-0.044	0.177
-517.902	-200.000	-0.003	-0.129
-516.887	-200.000	0.005	-0.083
-515.872	19.497	0.101	0.081
-514.858	-154.200	-0.291	0.020
-513.843	63.255	0.227	-0.228
-512.829	-200.000	-0.047	-0.277
-511.814	-46.076	-0.209	0.103
-510.799	21.384	-0.182	-0.148
-509.785	97.500	0.208	-0.240
-508.770	-10.373	0.297	-0.197
-507.756	-42.616	0.197	0.101
-506.741	-200.000	0.001	-0.446
-505.726	-126.176	0.212	0.032
-504.712	-200.000	0.026	0.220
-503.697	115.716	-0.177	0.216
-502.683	-90.912	0.327	0.094
-501.668	-14.976	0.195	0.125
-500.653	-49.270	-0.099	-0.047
-499.639	93.359	-0.051	0.057
-498.624	-97.174	0.444	0.116
-497.610	-200.000	0.011	-0.099
-496.595	-200.000	0.001	0.113
-495.581	-66.112	0.270	-0.108
-494.566	-56.713	0.318	0.141
-493.551	800.000	-0.071	0.307
-492.537	495.306	0.121	0.277
-491.522	-200.000	0.036	0.418
-490.508	403.418	0.133	0.281
-489.493	740.414	0.052	0.139
-488.478	374.173	0.057	-0.115
-487.464	-46.685	0.291	0.143
-486.449	-200.000	0.024	-0.176
-485.435	-76.610	0.399	0.140
-484.420	-200.000	-0.011	0.132
-483.405	800.000	-0.044	-0.178
-482.391	628.472	-0.090	0.227
-481.376	-200.000	-0.004	-0.516
-480.362	-200.000	-0.006	-0.091
-479.347	800.000	-0.035	0.127
-478.332	1.471	0.101	0.073
-477.318	-200.000	0.043	0.396
-476.303	-200.000	-0.002	0.103
-475.289	225.036	-0.211	0.341
-474.274	91.787	0.095	-0.107
-473.259	92.486	0.323	0.364
-472.245	-200.000	-0.043	-0.195
-471.230	259.784	0.251	-0.434
-470.216	-200.000	-0.007	-0.063
-469.201	131.228	0.198	-0.254
-468.186	61.817	0.234	0.233
-467.172	-102.549	-0.298	-0.071
-466.157	310.459	0.045	-0.084
-465.143	38.169	0.084	-0.074
-464.128	-21.208	-0.214	-0.131
-463.113	0.077	-0.149	-0.106
-462.099	118.314	-0.202	-0.249
-461.084	-103.706	-0.156	-0.037
-460.070	-200.000	0.000	-0.126
-459.055	179.261	0.164	0.240
-458.040	296.845	-0.057	-0.104
-457.026	-45.732	0.333	0.165
-456.011	-54.036	0.188	-0.085
-454.997	-152.650	0.311	0.022
-453.982	-200.000	0.009	-0.199
-452.968	-87.883	0.407	0.122
-451.953	37.875	0.127	0.113
-450.938	-77.172	0.079	0.027
-449.924	188.139	0.093	0.140
-448.909	800.000	-0.042	0.145
-447.895	371.920	-0.095	0.193
-446.880	131.138	0.063	0.081
-445.865	113.368	-0.211	0.256
-444.851	-133.221	-0.360	-0.045
-443.836	117.391	0.077	-0.095
-442.822	-167.610	-0.255	0.010
-441.807	-49.948	0.235	-0.112
-440.792	103.550	-0.130	0.152
-439.778	414.098	0.152	-0.322
-438.763	-200.000	0.028	0.344
-437.749	-21.087	0.341	-0.208
-436.734	-134.757	0.172	-0.021
-435.719	-200.000	0.019	0.179
-434.705	19.247	-0.171	0.137
-433.690	50.133	0.048	-0.045
-432.676	-50.374	0.215	-0.102
-431.661	-187.423	-0.423	-0.006
-430.646	111.346	0.199	0.240
-429.632	-200.000	-0.175	0.000
-428.617	102.392	-0.072	0.084
-427.603	29.607	0.209	-0.178
-426.588	-200.000	0.003	-0.178
-425.573	800.000	-0.041	-0.116
-424.559	-48.847	-0.130	0.062
-423.544	-162.152	0.113	-0.006
-422.530	-34.676	-0.172	-0.094
-421.515	-69.022	-0.328	-0.126
-420.500	85.356	0.252	0.276
-419.486	94.685	0.090	-0.102
-418.471	-88.620	0.304	-0.090
-417.457	-156.079	0.520	0.033
-416.442	-112.821	0.150	-0.030
-415.428	82.555	0.207	0.225
-414.413	-69.653	-0.221	-0.084
-413.398	104.016	-0.192	0.225
-412.384	-34.286	0.193	-0.106
-411.369	-6.623	-0.201	0.136
-410.355	-144.080	0.136	0.013
-409.340	-161.307	0.252	0.013
-408.325	-200.000	-0.009	0.055
-407.311	-174.462	0.321	0.009
-406.296	-200.000	0.003	0.223
-405.282	272.430	-0.125	-0.219
-404.267	67.492	-0.085	-0.087
-403.252	28.412	0.159	0.134
-402.238	-200.000	0.046	0.293
-401.223	-11.197	0.316	0.208
-400.209	-51.041	0.196	0.092
-399.194	-86.980	0.128	0.039
-398.179	448.490	-0.052	-0.115
-397.165	-200.000	0.042	-0.329
-396.150	0.621	-0.116	0.083
-395.136	-200.000	-0.062	0.350
-394.121	38.316	0.157	0.139
-393.106	-200.000	-0.005	0.155
-392.092	133.939	0.148	-0.190
-391.077	800.000	0.093	-0.300
-390.063	-65.441	0.152	-0.061
-389.048	-86.560	-0.531	0.162
-388.033	-200.000	0.043	0.206
-387.019	-52.033	0.137	-0.063
-386.004	49.298	-0.160	-0.149
-384.990	-97.721	-0.217	0.056
-383.975	-58.080	-0.282	0.123
-382.960	366.523	0.106	-0.213
-381.946	21.751	0.065	-0.053
-380.931	-121.160	0.077	-0.013
-379.917	-141.063	-0.100	-0.010
-378.902	83.377	-0.200	-0.217
-377.888	-96.693	0.278	0.073
-376.873	-36.979	0.170	-0.091
-375.858	-96.106	-0.021	-0.006
-374.844	-113.549	-0.288	0.056
-373.829	-153.429	-0.169	-0.012
-372.815	-33.031	0.112	0.062
-371.800	-200.000	0.007	-0.080
-370.785	-200.000	0.020	0.354
-369.771	-72.128	0.213	0.079
-368.756	254.658	-0.160	0.273
-367.742	-93.794	0.033	-0.009
-366.727	-200.000	0.003	0.031
-365.712	226.626	-0.033	-0.053
-364.698	388.250	0.103	0.212
-363.683	355.731	-0.105	-0.208
-362.669	-130.970	-0.516	0.069
-361.654	-18.893	0.129	-0.080
-360.639	-130.175	-0.178	-0.024
-359.625	509.737	-0.067	-0.154
-358.610	181.026	-0.147	-0.215
-357.596	378.638	0.061	-0.124
-356.581	27.685	-0.174	0.146
-355.566	-200.000	0.016	-0.075
-354.552	-142.426	-0.239	0.023
-353.537	56.901	-0.164	-0.159
-352.523	-90.948	-0.124	-0.036
-351.508	-110.507	0.391	0.081
-350.493	335.279	-0.038	0.073
-349.479	117.585	0.197	0.241
-348.464	-200.000	-0.056	0.258
-347.450	315.106	0.025	0.047
-346.435	-53.387	-0.388	0.177
-345.420	-15.727	0.300	-0.190
-344.406	-121.624	0.506	0.083
-343.391	-200.000	0.041	-0.193
-342.377	-200.000	-0.025	-0.278
-341.362	-100.189	-0.208	-0.051
-340.348	-9.796	0.298	0.198
-339.333	-12.279	-0.368	0.239
-338.318	-72.835	-0.097	-0.036
-337.304	40.411	-0.301	0.269
-336.289	664.393	0.118	0.302
-335.275	180.589	-0.187	0.273
-334.260	-148.518	-0.148	0.012
-333.245	800.000	-0.054	-0.220
-332.231	-62.578	-0.169	-0.070
-331.216	406.327	-0.044	-0.092
-330.202	-200.000	0.006	0.121
-329.187	-106.151	-0.417	0.093
-328.172	286.425	0.121	-0.217
-327.158	-200.000	0.014	0.185
-326.143	-159.865	0.117	0.006
-325.129	-71.329	-0.227	0.084
-324.114	-104.921	0.108	-0.025
-323.099	-43.996	-0.168	-0.084
-322.085	16.249	0.327	0.256
-321.070	-78.483	0.233	-0.079
-320.056	-96.784	0.369	0.096
-319.041	119.936	-0.191	-0.235
-318.026	-44.030	0.464	-0.232
-317.012	0.333	0.178	0.126
-315.997	41.726	0.145	-0.131
-314.983	-200.000	0.013	0.384
-313.968	137.267	-0.245	0.319
-312.953	45.906	-0.186	0.171
-311.939	-200.000	0.066	-0.316
-310.924	-24.524	-0.140	-0.083
-309.910	-151.110	-0.147	0.011
-308.895	-50.065	0.348	0.164
-307.880	-200.000	0.003	0.214
-306.866	-107.768	-0.119	0.026
-305.851	-107.291	-0.156	0.034
-304.837	33.911	0.122	0.106
-303.822	-98.578	-0.183	0.046
-302.807	-147.655	0.208	-0.017
-301.793	-200.000	-0.013	-0.250
-300.778	-40.669	-0.195	-0.100
-299.764	800.000	0.062	0.222
-298.749	64.577	-0.257	0.258
-297.735	68.770	-0.159	-0.162
-296.720	633.876	-0.038	-0.095
-295.705	-6.989	0.125	0.084
-294.691	-200.000	0.022	0.123
-293.676	800.000	0.107	0.305
-292.662	-200.000	-0.022	-0.162
-291.647	-73.184	0.294	-0.107
-290.632	-29.736	-0.184	-0.104
-289.618	-64.125	-0.073	0.030
-288.603	800.000	-0.115	0.351
-287.589	-200.000	0.002	0.088
-286.574	800.000	-0.035	0.105
-285.559	-106.012	-0.098	0.022
-284.545	-92.254	0.301	-0.084
-283.530	453.266	-0.098	-0.215
-282.516	147.642	0.178	0.238
-281.501	-164.728	-0.133	-0.006
-280.486	495.095	-0.058	0.133
-279.472	-131.566	-0.110	-0.014
-278.457	172.378	-0.079	-0.113
-277.443	56.796	-0.367	-0.355
-276.428	-200.000	-0.047	-0.381
-275.413	-75.593	-0.371	-0.131
-274.399	160.558	-0.046	0.064
-273.384	-111.870	0.250	0.050
-272.370	-88.748	0.042	0.012
-271.355	800.000	-0.079	0.255
-270.340	311.219	-0.117	-0.218
-269.326	299.303	-0.253	0.462
-268.311	-200.000	0.011	0.078
-267.297	-200.000	0.380	0.002
-266.282	24.374	-0.166	-0.136
-265.267	220.618	-0.130	0.206
-264.253	-9.547	-0.128	0.085
-263.238	53.417	0.177	-0.168
-262.224	532.853	-0.066	-0.156
-261.209	-200.000	0.004	0.152
-260.195	-42.829	-0.078	-0.039
-259.180	174.753	-0.157	0.225
-258.165	49.785	-0.187	-0.175
-257.151	-166.548	-0.377	0.016
-256.136	30.284	0.284	0.240
-255.122	-52.048	-0.422	0.194
-254.107	-55.954	0.210	-0.093
-253.092	-200.000	-0.103	-0.453
-252.078	112.659	0.115	-0.138
-251.063	35.424	-0.230	0.200
-250.049	-200.000	0.053	0.257
-249.034	-162.006	0.217	-0.011
-248.019	643.103	-0.059	0.150
-247.005	-94.831	0.270	0.073
-245.990	11.399	0.166	0.126
-244.976	31.243	0.345	-0.294
-243.961	-200.000	0.001	-0.051
-242.946	-87.987	0.164	-0.049
-241.932	-200.000	0.046	0.295
-240.917	-200.000	0.335	-0.001
-239.903	800.000	-0.069	-0.261
-238.888	-63.012	-0.242	-0.099
-237.873	19.555	-0.238	-0.190
-236.859	-100.195	-0.153	0.038
-235.844	800.000	-0.047	-0.191
-234.830	-72.907	0.157	-0.057
-233.815	17.767	0.166	-0.131
-232.800	15.223	0.157	0.122
-231.786	147.156	0.170	0.226
-230.771	-104.082	0.440	0.101
-229.757	-114.552	-0.328	-0.062
-228.742	52.619	-0.182	-0.173
-227.727	-9.202	-0.202	0.134
-226.713	110.155	-0.052	0.062
-225.698	-200.000	-0.059	0.262
-224.684	-62.202	-0.061	0.025
-223.669	-44.824	0.290	-0.143
-222.655	568.858	0.150	-0.360
-221.640	-155.053	-0.358	-0.023
-220.625	38.031	0.088	-0.077
-219.611	336.490	-0.221	-0.425
-218.596	312.081	-0.063	0.117
-217.582	-200.000	-0.049	0.221
-216.567	-200.000	0.005	0.028
-215.552	679.303	-0.193	-0.498
-214.538	144.340	0.184	0.243
-213.523	-200.000	0.045	-0.309
-212.509	-148.993	-0.147	0.012
-211.494	800.000	-0.056	-0.168
-210.479	593.722	0.084	-0.205
-209.465	-123.169	-0.172	0.027
-208.450	-62.096	0.214	0.088
-207.436	-200.000	-0.030	0.240
-206.421	24.625	0.212	-0.174
-205.406	137.192	-0.190	-0.246
-204.392	698.203	0.115	-0.299
-203.377	-9.032	0.416	-0.275
-202.363	-151.742	-0.164	-0.012
-201.348	-152.428	0.432	-0.031
-200.333	-38.336	-0.032	0.017
-199.319	69.394	-0.159	-0.162
-198.304	752.705	0.146	-0.390
-197.290	642.191	0.029	0.073
-196.275	169.541	-0.119	0.168
-195.260	-200.000	0.071	-0.327
-194.246	649.357	-0.105	0.266
-193.231	135.265	-0.036	0.047
-192.217	336.181	0.109	0.209
-191.202	84.363	-0.083	-0.089
-190.187	-74.852	0.154	-0.055
-189.173	800.000	-0.065	0.184
-188.158	-125.330	-0.091	-0.014
-187.144	-120.440	-0.295	0.050
-186.129	-200.000	-0.046	0.350
-185.114	-200.000	-0.026	-0.176
-184.100	99.948	-0.116	0.132
-183.085	800.000	-0.013	0.050
-182.071	86.115	-0.171	-0.186
-181.056	-38.039	-0.052	0.027
-180.042	-200.000	0.019	-0.322
-179.027	5.793	0.201	0.147
-178.012	-33.005	0.398	0.218
-176.998	-33.871	0.276	0.150
-175.983	7.830	0.296	0.219
-174.969	-23.484	0.119	0.071
-173.954	106.998	0.159	-0.186
-172.939	-200.000	0.055	-0.320
-171.925	-136.515	-0.240	-0.027
-170.910	-138.820	0.200	0.022
-169.896	19.814	0.376	-0.300
-168.881	644.620	0.049	0.123
-167.866	361.714	0.121	0.241
-166.852	702.506	0.019	0.051
-165.837	-83.034	-0.395	-0.126
-164.823	-87.512	-0.237	-0.071
-163.808	219.243	-0.116	0.184
-162.793	4.853	-0.097	-0.071
-161.779	-38.217	0.145	0.076
-160.764	186.072	0.129	-0.189
-159.750	-40.735	-0.211	0.108
-158.735	-101.542	-0.123	-0.030
-157.720	-1.162	-0.066	-0.046
-156.706	573.791	-0.092	0.222
-155.691	571.622	-0.076	-0.184
-154.677	-113.890	-0.042	0.008
-153.662	-200.000	0.059	-0.397
-152.647	-52.850	-0.254	0.116
-151.633	-84.883	0.134	0.042
-150.618	28.699	0.098	-0.082
-149.604	-16.226	0.181	0.113
-148.589	-143.707	0.086	0.008
-147.574	-200.000	-0.017	0.082
-146.560	81.562	0.229	0.245
-145.545	54.868	-0.323	0.308
-144.531	50.245	0.102	0.095
-143.516	57.401	-0.220	0.212
-142.502	-200.000	0.023	-0.213
-141.487	-51.605	-0.082	0.038
-140.472	-52.170	-0.244	0.112
-139.458	-156.032	-0.069	-0.004
-138.443	800.000	0.062	0.236
-137.429	-155.172	0.180	-0.012
-136.414	286.521	-0.068	-0.121
-135.399	158.774	-0.196	-0.269
-134.385	-32.259	0.246	0.135
-133.370	-200.000	-0.017	-0.118
-132.356	-200.000	-0.016	-0.297
-131.341	-140.623	0.099	0.010
-130.326	-200.000	0.000	-0.142
-129.312	-1.815	-0.321	0.223
-128.297	-26.067	0.252	0.146
-127.283	-200.000	-0.011	-0.068
-126.268	-200.000	-0.017	0.104
-125.253	-45.337	0.227	-0.111
-124.239	-10.987	0.332	0.216
-123.224	-31.426	0.129	0.072
-122.210	-200.000	-0.023	0.114
-121.195	744.406	0.019	-0.051
-120.180	-118.942	0.094	-0.016
-119.166	-58.569	-0.124	0.053
-118.151	166.533	0.065	-0.090
-117.137	-20.299	-0.086	-0.052
-116.122	353.416	-0.101	0.197
-115.107	-200.000	-0.018	-0.085
-114.093	163.692	0.005	-0.006
-113.078	-200.000	-0.009	-0.108
-112.064	-200.000	-0.024	0.129
-111.049	183.311	-0.071	0.103
-110.034	800.000	0.103	0.324
-109.020	-33.939	-0.159	0.086
-108.005	662.871	0.034	0.086
-106.991	38.001	-0.198	-0.173
-105.976	-200.000	0.006	0.079
-104.962	236.474	0.106	0.173
-103.947	177.185	0.227	0.326
-102.932	800.000	0.109	0.409
-101.918	-192.829	-0.172	0.002
-100.903	31.849	-0.147	-0.125
-99.889	70.825	0.233	-0.238
-98.874	-47.639	-0.205	-0.098
-97.859	-200.000	0.073	0.362
-96.845	-22.139	0.551	0.329
-95.830	20.442	-0.206	-0.164
-94.816	377.551	-0.098	0.197
-93.801	-87.484	0.198	-0.059
-92.786	-49.276	0.186	0.087
-91.772	-200.000	0.063	0.417
-90.757	800.000	0.067	0.255
-89.743	117.465	0.130	-0.157
-88.728	-84.709	-0.238	-0.074
-87.713	-158.279	0.307	-0.018
-86.699	800.000	-0.061	0.230
-85.684	264.999	0.122	-0.210
-84.670	800.000	0.015	0.042
-83.655	64.387	0.230	0.228
-82.640	398.111	0.049	-0.102
-81.626	183.868	-0.140	-0.204
-80.611	-26.092	0.078	0.045
-79.597	391.743	-0.043	-0.088
-78.582	59.363	-0.160	-0.155
-77.567	202.013	0.102	-0.155
-76.553	139.396	0.094	0.122
-75.538	-69.875	0.202	-0.076
-74.524	30.348	-0.195	-0.164
-73.509	230.378	0.065	0.105
-72.494	-13.476	-0.146	-0.093
-71.480	389.772	0.008	-0.016
-70.465	36.766	0.092	0.080
-69.451	800.000	0.028	0.097
-68.436	33.584	-0.241	-0.206
-67.422	41.905	-0.215	-0.192
-66.407	124.959	-0.072	0.089
-65.392	279.276	-0.035	-0.062
-64.378	585.226	0.133	0.321
-63.363	311.222	0.161	0.298
-62.349	-41.650	-0.120	-0.061
-61.334	92.994	-0.947	-1.052
-60.319	190.378	0.414	0.611
-59.305	800.000	-0.276	-1.132
-58.290	442.882	0.359	0.773
-57.276	456.021	0.583	1.272
-56.261	-200.000	95.772	591.436
-55.246	569.889	1365.255	3266.433
-54.232	162.859	2539.011	3506.458
-53.217	114.093	2134.744	2554.403
-52.203	44.227	1600.532	1444.379
-51.188	35.861	1338.998	1158.237
-50.173	32.694	1297.120	1103.466
-49.159	54.431	1344.619	1273.842
-48.144	56.777	1360.784	1303.064
-47.130	36.028	1319.797	1142.436
-46.115	32.486	1302.551	1106.688
-45.100	32.409	1297.300	1101.731
-44.086	32.241	1295.339	1099.041
-43.071	32.230	1292.914	1096.873
-42.057	32.157	1290.800	1094.609
-41.042	32.231	1289.231	1093.670
-40.027	32.196	1287.627	1092.062
-39.013	32.331	1285.540	1091.031
-37.998	32.206	1284.030	1088.978
-36.984	32.291	1282.144	1087.828
-35.969	32.365	1280.408	1086.742
-34.954	32.333	1279.047	1085.360
-33.940	32.398	1277.439	1084.328
-32.925	32.297	1276.136	1082.597
-31.911	32.316	1274.766	1081.500
-30.896	32.463	1272.919	1080.734
-29.881	32.482	1271.422	1079.526
-28.867	32.512	1270.121	1078.550
-27.852	32.445	1268.508	1076.756
-26.838	32.488	1267.248	1075.891
-25.823	32.422	1266.085	1074.485
-24.809	32.347	1265.207	1073.266
-23.794	32.373	1263.681	1072.081
-22.779	32.447	1262.152	1071.160
-21.765	32.315	1261.049	1069.431
-20.750	32.295	1259.710	1068.137
-19.736	32.368	1258.072	1067.121
-18.721	32.429	1256.832	1066.373
-17.706	32.293	1255.879	1064.751
-16.692	32.225	1255.071	1063.639
-15.677	32.255	1254.058	1062.911
-14.663	32.250	1252.674	1061.663
-13.648	32.227	1251.422	1060.432
-12.633	32.213	1250.700	1059.701
-11.619	32.181	1250.196	1059.052
-10.604	32.282	1248.950	1058.524
-9.590	32.195	1247.937	1057.134
-8.575	32.250	1246.857	1056.484
-7.560	32.244	1246.187	1055.841
-6.546	32.193	1245.205	1054.683
-5.531	32.112	1244.264	1053.389
-4.517	32.202	1243.874	1053.519
-3.502	32.238	1242.617	1052.614
-2.487	32.144	1241.727	1051.296
-1.473	32.294	1237.445	1048.463
-0.458	30.819	1223.134	1028.158
0.556	28.001	1205.458	991.600
1.571	24.340	1211.435	976.426
2.586	23.632	1226.492	984.548
3.600	23.097	1216.201	973.257
4.615	17.100	1143.075	883.547
5.629	6.914	1066.832	774.833
6.644	2.367	1046.475	738.081
7.659	2.109	1043.567	734.722
8.673	1.906	1042.105	732.652
9.688	1.978	1040.673	731.927
10.702	2.386	1039.745	733.164
11.717	9.004	1048.940	771.490
12.731	19.079	1063.442	830.976
13.746	24.189	1069.540	860.413
14.761	25.251	1070.517	866.255
15.775	25.281	1070.498	866.307
16.790	25.087	1069.359	864.373
17.804	25.009	1068.995	863.623
18.819	25.140	1068.148	863.495
19.834	25.280	1067.990	863.964
20.848	25.338	1067.822	864.032
21.863	25.170	1067.401	862.804
22.877	25.219	1066.465	862.211
23.892	25.117	1065.800	861.104
24.907	25.342	1065.209	861.633
25.921	25.207	1063.980	859.913
26.936	25.226	1062.645	858.852
27.950	25.115	1060.918	856.846
28.965	25.143	1059.432	855.705
29.980	25.055	1058.431	854.400
30.994	25.436	1056.868	854.876
32.009	25.353	1056.083	853.773
33.023	25.046	1054.866	851.256
34.038	25.042	1054.685	851.017
35.053	25.169	1053.847	850.867
36.067	25.256	1052.935	850.468
37.082	25.155	1052.486	849.549
38.096	25.461	1052.171	850.669
39.111	25.668	1050.680	850.367
40.126	25.319	1049.360	847.578
41.140	25.010	1047.589	844.613
42.155	24.849	1046.195	842.658
43.169	24.972	1045.130	842.303
44.184	24.911	1044.282	841.259
45.199	24.830	1043.761	840.383
46.213	24.832	1043.137	839.818
47.228	25.107	1042.078	840.178
48.242	25.057	1041.302	839.247
49.257	25.237	1040.475	839.348
50.271	25.172	1039.995	838.583
51.286	25.386	1039.029	838.729
52.301	25.384	1038.133	837.922
53.315	25.308	1036.834	836.442
54.330	25.322	1036.021	835.780
55.344	25.146	1035.812	834.717
56.359	25.172	1034.774	833.929
57.374	25.018	1033.432	832.060
58.388	25.127	1032.652	831.862
59.403	24.907	1032.043	830.277
60.417	24.832	1031.351	829.300
61.432	24.996	1030.480	829.286
62.447	25.069	1030.005	829.169
63.461	25.091	1029.080	828.450
64.476	25.097	1028.024	827.557
65.490	24.857	1027.336	825.820
66.505	24.990	1026.943	826.047
67.520	25.107	1026.216	825.926
68.534	24.729	1025.108	823.220
69.549	24.535	1023.859	821.256
70.563	24.581	1023.071	820.763
71.578	24.429	1022.530	819.556
72.593	24.332	1021.390	818.128
73.607	24.595	1020.634	818.654
74.622	24.753	1020.828	819.462
75.636	24.905	1019.516	819.030
76.651	24.740	1018.838	817.659
77.666	24.709	1018.044	816.808
78.680	24.840	1017.402	816.817
79.695	24.783	1017.076	816.222
80.709	24.854	1016.490	816.002
81.724	24.712	1015.722	814.670
82.739	24.934	1015.035	815.057
83.753	25.295	1014.387	816.107
84.768	25.476	1013.580	816.206
85.782	25.682	1013.057	816.648
86.797	25.424	1012.191	814.710
87.812	25.417	1011.092	813.722
88.826	25.466	1010.304	813.233
89.841	25.649	1009.233	813.129
90.855	25.574	1008.621	812.225
91.870	25.469	1007.457	810.743
92.884	25.507	1006.265	809.880
93.899	25.247	1005.947	808.384
94.914	25.433	1004.772	808.205
95.928	25.503	1003.634	807.534
96.943	25.136	1002.561	804.948
97.957	24.903	1001.935	803.329
98.972	24.828	1000.272	801.590
99.987	25.139	999.651	802.413
101.001	25.145	999.114	801.937
102.016	25.223	998.088	801.393
103.030	25.105	997.437	800.273
104.045	25.106	996.506	799.457
105.060	24.849	995.254	797.239
106.074	25.068	994.598	797.617
107.089	25.340	994.313	798.528
108.103	25.318	992.918	797.239
109.118	25.036	992.026	795.204
110.133	25.064	990.808	794.279
111.147	24.753	990.009	792.191
112.162	24.724	988.708	790.954
113.176	24.934	988.619	791.738
114.191	24.792	987.799	790.387
115.206	24.554	986.564	788.278
116.220	24.546	985.723	787.501
117.235	24.739	984.903	787.627
118.249	24.678	983.883	786.471
119.264	24.587	983.597	785.772
120.279	24.617	983.007	785.364
121.293	24.751	982.102	785.159
122.308	24.731	981.452	784.481
123.322	24.723	979.740	783.013
124.337	24.490	979.136	781.440
125.352	23.982	977.238	777.635
126.366	24.064	976.505	777.339
127.381	24.732	976.470	780.158
128.395	25.127	975.733	781.224
129.410	25.318	975.258	781.607
130.424	25.225	974.099	780.204
131.439	25.232	972.939	779.235
132.454	25.298	972.247	778.897
133.468	25.019	971.539	777.053
134.483	25.353	970.262	777.410
135.497	25.487	969.527	777.332
136.512	25.515	968.874	776.859
137.527	25.534	967.698	775.932
138.541	25.392	967.590	775.163
139.556	25.464	966.677	774.670
140.570	25.478	966.153	774.245
141.585	25.553	965.355	773.858
142.600	25.525	964.149	772.705
143.614	25.578	963.393	772.256
144.629	25.742	962.769	772.393
145.643	25.579	961.555	770.649
146.658	25.543	959.734	768.971
147.673	25.451	958.720	767.697
148.687	25.440	957.778	766.829
149.702	25.287	957.023	765.503
150.716	25.135	956.146	764.083
151.731	25.368	956.000	764.893
152.746	25.502	955.216	764.768
153.760	25.542	955.046	764.734
154.775	25.724	953.984	764.591
155.789	25.592	953.036	763.201
156.804	25.586	952.397	762.597
157.819	25.728	951.473	762.394
158.833	25.864	950.674	762.259
159.848	25.852	949.795	761.435
160.862	25.713	948.398	759.664
161.877	25.639	947.326	758.425
162.892	25.677	946.507	757.862
163.906	25.639	945.278	756.652
164.921	25.629	944.611	756.010
165.935	25.674	943.677	755.385
166.950	25.815	942.216	754.737
167.964	25.454	942.173	753.124
168.979	25.384	941.091	751.901
169.994	25.488	939.684	751.142
171.008	25.697	939.605	751.886
172.023	25.745	938.533	751.161
173.037	25.504	937.604	749.348
174.052	25.307	936.757	747.783
175.067	25.533	935.866	747.949
176.081	25.575	935.316	747.615
177.096	25.442	934.975	746.727
178.110	25.236	933.949	744.984
179.125	25.019	933.015	743.275
180.140	25.137	932.361	743.176
181.154	25.101	932.509	743.080
182.169	25.367	932.798	744.347
183.183	25.684	932.035	744.982
184.198	25.431	931.308	743.289
185.213	25.629	930.341	743.271
186.227	25.573	929.992	742.694
187.242	25.671	928.900	742.163
188.256	25.664	928.769	741.962
189.271	25.832	927.367	741.468
190.286	25.356	926.583	738.817
191.300	24.847	924.979	735.384
192.315	24.125	923.486	731.168
193.329	24.010	923.179	730.386
194.344	24.806	924.268	734.454
195.359	25.380	924.451	736.889
196.373	25.500	923.338	736.429
197.388	25.502	922.434	735.652
198.402	25.480	921.900	735.072
199.417	25.527	921.166	734.612
200.432	25.275	920.326	732.850
201.446	25.090	919.562	731.421
202.461	25.095	919.175	731.067
203.475	24.246	917.747	726.410
204.490	23.581	915.801	722.098
205.504	24.455	916.634	726.249
206.519	25.033	916.156	728.155
207.534	25.133	915.618	728.069
208.548	25.515	915.761	729.671
209.563	25.224	914.751	727.624
210.577	25.372	913.894	727.475
211.592	25.861	913.441	729.029
212.607	25.640	913.031	727.743
213.621	25.782	912.376	727.731
214.636	25.805	911.605	727.145
215.650	25.536	910.812	725.364
216.665	25.704	910.275	725.550
217.680	25.650	909.240	724.443
218.694	25.352	907.875	722.092
219.709	25.048	907.934	720.851
220.723	25.471	907.188	721.897
221.738	25.311	906.913	720.971
222.753	25.578	905.904	721.176
223.767	25.637	905.763	721.238
224.782	25.974	905.047	721.950
225.796	25.776	904.858	720.944
226.811	25.158	903.050	716.971
227.826	24.568	902.044	713.753
228.840	24.817	901.290	714.085
229.855	24.846	900.385	713.421
230.869	24.334	899.952	710.972
231.884	24.815	899.825	712.727
232.899	25.493	899.868	715.398
233.913	25.473	899.096	714.643
234.928	25.543	898.542	714.415
235.942	25.362	897.819	713.058
236.957	25.013	896.779	710.784
237.972	25.128	896.565	711.010
238.986	25.167	896.059	710.700
240.001	25.278	895.107	710.322
241.015	25.414	894.459	710.282
242.030	25.455	894.661	710.540
243.045	25.471	894.386	710.325
244.059	25.512	894.046	710.151
245.074	25.404	892.733	708.623
246.088	25.127	891.733	706.673
247.103	25.486	891.568	707.895
248.117	26.018	891.594	709.947
249.132	26.097	891.193	709.876
250.147	26.300	890.668	710.191
251.161	26.280	890.430	709.861
252.176	26.247	889.870	709.224
253.190	26.406	889.385	709.395
254.205	26.603	888.620	709.494
255.220	26.626	887.895	708.946
256.234	26.440	887.231	707.622
257.249	26.259	886.702	706.432
258.263	26.311	885.750	705.814
259.278	26.556	885.090	706.182
260.293	26.441	884.879	705.501
261.307	26.426	884.162	704.809
262.322	26.168	883.244	703.010
263.336	25.364	881.112	698.128
264.351	24.409	879.564	693.131
265.366	24.566	879.071	693.291
266.380	25.609	880.201	698.171
267.395	26.145	879.540	699.665
268.409	26.021	879.116	698.782
269.424	26.379	878.367	699.511
270.439	26.396	877.633	698.932
271.453	26.337	876.942	698.090
272.468	26.472	877.056	698.640
273.482	26.548	876.405	698.353
274.497	26.091	875.178	695.555
275.512	25.715	874.382	693.412
276.526	26.190	874.378	695.178
277.541	26.340	873.964	695.361
278.555	26.068	873.324	693.746
279.570	25.861	872.901	692.554
280.585	26.205	871.786	692.928
281.599	26.074	870.809	691.587
282.614	25.381	869.709	687.999
283.628	25.440	869.500	688.000
284.643	25.819	868.843	688.869
285.657	25.544	867.558	686.740
286.672	25.271	866.844	685.069
287.687	25.793	867.105	687.208
288.701	25.794	866.579	686.735
289.716	25.456	865.605	684.613
290.730	25.437	865.051	684.042
291.745	25.255	863.985	682.448
292.760	25.555	863.937	683.490
293.774	26.490	864.495	687.425
294.789	26.767	864.007	688.026
295.803	26.727	863.317	687.265
296.818	26.812	862.902	687.195
297.833	26.316	861.551	684.184
298.847	26.312	861.091	683.742
299.862	26.683	860.912	684.942
300.876	26.929	860.601	685.564
301.891	26.728	859.924	684.205
302.906	26.261	858.828	681.511
303.920	26.558	858.625	682.408
304.935	26.764	858.575	683.086
305.949	26.931	857.361	682.688
306.964	26.502	857.133	680.833
307.979	26.593	856.610	680.699
308.993	26.928	856.243	681.605
310.008	26.848	855.728	680.837
311.022	26.782	854.875	679.848
312.037	26.483	854.288	678.202
313.052	26.238	853.503	676.600
314.066	25.334	851.989	671.960
315.081	25.005	851.178	670.030
316.095	25.803	851.518	673.223
317.110	26.292	851.625	675.074
318.125	25.503	849.851	670.664
319.139	24.483	848.358	665.626
320.154	24.585	847.817	665.525
321.168	25.553	848.450	669.566
322.183	26.341	848.429	672.426
323.197	26.305	848.488	672.277
324.212	26.501	848.030	672.584
325.227	26.571	847.295	672.204
326.241	26.367	846.650	670.875
327.256	26.307	845.907	670.004
328.270	26.279	845.038	669.150
329.285	26.085	844.551	667.988
330.300	25.721	843.984	666.134
331.314	26.058	843.729	667.119
332.329	26.545	843.359	668.569
333.343	26.727	842.963	668.867
334.358	26.608	842.517	668.017
335.373	26.744	842.136	668.154
336.387	27.111	842.311	669.587
337.402	27.088	842.324	669.454
338.416	26.950	841.997	668.625
339.431	26.941	841.759	668.346
340.446	27.134	840.885	668.302
341.460	27.065	840.641	667.798
342.475	26.838	839.882	666.299
343.489	27.042	839.542	666.720
344.504	27.366	839.227	667.599
345.519	27.501	838.921	667.792
346.533	27.531	838.585	667.575
347.548	27.396	838.163	666.688
348.562	27.483	837.299	666.256
349.577	27.455	836.706	665.625
350.592	27.327	836.219	664.709
351.606	27.328	836.005	664.487
352.621	27.193	834.960	663.103
353.635	27.162	833.954	662.133
354.650	26.469	832.474	658.378
355.665	25.590	830.690	653.718
356.679	26.077	830.640	655.389
357.694	26.559	830.189	656.724
358.708	26.294	830.058	655.600
359.723	26.862	829.675	657.299
360.738	27.179	829.294	658.087
361.752	27.101	829.071	657.570
362.767	27.580	828.526	658.810
363.781	27.641	828.394	658.868
364.796	27.725	828.086	658.870
365.810	27.866	827.366	658.747
366.825	27.687	826.995	657.746
367.840	27.444	826.439	656.371
368.854	27.187	825.223	654.421
369.869	27.190	824.681	653.947
370.883	27.226	824.508	653.880
371.898	26.999	824.041	652.635
372.913	27.172	823.804	653.012
373.927	27.357	823.298	653.217
374.942	27.439	822.734	653.006
375.956	27.583	822.493	653.271
376.971	27.778	822.097	653.600
377.986	27.803	822.054	653.596
379.000	27.729	821.329	652.695
380.015	27.568	820.749	651.601
381.029	27.742	819.863	651.464
382.044	27.832	819.261	651.248
383.059	27.658	818.975	650.342
384.073	27.756	818.805	650.501
385.088	27.745	818.062	649.814
386.102	27.590	816.889	648.272
387.117	27.488	816.337	647.413
388.132	27.063	815.574	645.242
389.146	26.761	814.450	643.224
390.161	27.124	814.627	644.594
391.175	27.439	814.543	645.588
392.190	27.258	813.071	643.725
393.205	25.725	811.118	636.704
394.219	24.228	809.382	629.999
395.234	24.095	809.386	629.475
396.248	25.881	810.828	636.859
397.263	27.444	811.330	642.717
398.278	27.303	811.075	641.960
399.292	26.885	810.706	640.137
400.307	26.888	809.920	639.471
401.321	26.964	810.032	639.772
402.336	27.617	809.497	641.592
403.350	28.035	809.488	642.998
404.365	28.310	809.441	643.869
405.380	28.478	809.216	644.226
406.394	28.486	808.860	643.913
407.409	28.435	808.088	643.061
408.423	28.322	807.645	642.257
409.438	28.427	807.211	642.224
410.453	28.486	806.607	641.892
411.467	28.682	805.708	641.804
412.482	28.465	805.743	641.019
413.496	28.570	805.339	641.005
414.511	28.604	804.975	640.780
415.526	28.660	804.523	640.556
416.540	28.553	803.657	639.438
417.555	28.190	802.938	637.544
418.569	28.166	802.512	637.065
419.584	28.298	801.875	636.965
420.599	27.911	801.772	635.481
421.613	111.641	1285.617	1458.430
422.628	96.395	1356.095	1458.546
