DTS Sentinel unit serial number:	SN413079Multiplexer serial number:	ORYXHardware model number:	OX4-SRSoftware version number:	ORYX F/W v4.00 Oryx Data Collector v3.7.2.0data status	okinstallation	princeton_trtdifferential loss correction	single-endedforward channel	channel 1reverse channel	N/Adate	2019/09/12time	13:24:11forward acquisition time	60.00reverse acquisition time	0.00gamma	496.2192k internal	0.2292k external	0.2292temperature offset calibration	1.0045default loss term (dB/km)	0.3790temperature slope calibration	1.0000multiplexer offset coefficient	1.0000multiplexer slope coefficient	1.0000fibre end	0.00T internal ref (°C)	41.06T ext. ref 1 (°C)	2.09T ext. ref 2 (°C)	37.92length (m)	temperature (°C)	Stokes	anti-Stokes-747.200	195.720	-0.150	0.233
-746.185	-28.042	-0.168	0.100
-745.171	663.125	-0.118	-0.312
-744.156	173.168	-0.087	-0.128
-743.142	800.000	-0.059	0.227
-742.127	-200.000	0.028	0.137
-741.112	-133.543	-0.366	0.047
-740.098	-65.488	0.140	-0.057
-739.083	687.017	-0.035	0.093
-738.069	-160.072	-0.115	-0.006
-737.054	-200.000	-0.061	-0.322
-736.039	800.000	-0.058	0.165
-735.025	127.431	0.187	0.244
-734.010	-200.000	-0.047	0.438
-732.996	800.000	-0.089	0.268
-731.981	38.373	0.103	-0.094
-730.966	23.217	0.173	-0.145
-729.952	-49.209	-0.263	0.129
-728.937	-24.369	-0.131	-0.080
-727.923	468.659	0.062	-0.143
-726.908	-93.902	-0.282	-0.079
-725.894	-56.974	-0.416	0.188
-724.879	-125.582	-0.136	0.021
-723.864	800.000	-0.070	-0.223
-722.850	82.101	-0.229	-0.253
-721.835	-73.192	-0.334	0.125
-720.821	87.880	-0.134	0.152
-719.806	124.129	-0.090	-0.115
-718.791	-200.000	-0.018	-0.113
-717.777	-99.060	0.167	-0.043
-716.762	-119.882	-0.284	0.050
-715.748	-40.305	-0.353	-0.187
-714.733	-118.383	0.262	0.047
-713.718	-162.921	0.102	-0.005
-712.704	-46.508	-0.187	-0.094
-711.689	-200.000	0.016	-0.131
-710.675	-86.686	0.350	0.110
-709.660	-48.944	-0.222	-0.109
-708.645	-200.000	-0.040	-0.305
-707.631	73.255	0.090	0.096
-706.616	-63.951	-0.176	-0.073
-705.602	0.679	-0.139	-0.102
-704.587	64.903	-0.105	-0.109
-703.572	-107.775	-0.218	-0.049
-702.558	-200.000	0.036	-0.208
-701.543	98.108	0.095	-0.112
-700.529	-70.756	-0.202	0.078
-699.514	-200.000	-0.007	0.397
-698.499	480.877	0.091	-0.211
-697.485	74.456	0.257	-0.276
-696.470	-152.376	0.205	0.015
-695.456	559.201	-0.013	0.031
-694.441	30.305	-0.253	-0.220
-693.426	44.973	-0.067	-0.063
-692.412	-116.970	0.068	0.013
-691.397	-99.482	-0.090	0.023
-690.383	-200.000	0.001	-0.175
-689.368	0.925	-0.180	-0.132
-688.354	176.627	0.124	0.184
-687.339	800.000	0.046	-0.135
-686.324	-128.317	-0.061	-0.009
-685.310	-62.531	0.230	0.098
-684.295	-121.725	0.301	0.051
-683.281	-200.000	0.008	-0.110
-682.266	-200.000	0.043	0.454
-681.251	-92.351	-0.244	-0.070
-680.237	-140.611	0.171	-0.018
-679.222	23.576	-0.134	0.112
-678.208	-121.988	-0.265	-0.045
-677.193	367.204	-0.070	0.143
-676.178	-200.000	-0.008	0.178
-675.164	393.101	0.104	0.221
-674.149	-200.000	0.000	-0.085
-673.135	-59.073	0.057	-0.025
-672.120	113.276	-0.110	0.136
-671.105	-68.140	0.083	0.033
-670.091	289.919	0.084	0.156
-669.076	-200.000	-0.270	-0.001
-668.062	79.876	-0.067	0.073
-667.047	-168.810	-0.068	0.003
-666.032	-200.000	0.039	-0.222
-665.018	-31.474	0.208	-0.120
-664.003	-200.000	0.018	-0.221
-662.989	145.954	-0.174	0.238
-661.974	546.193	-0.150	-0.365
-660.959	-200.000	-0.022	0.136
-659.945	92.662	-0.110	0.127
-658.930	-200.000	-0.078	0.412
-657.916	-200.000	-0.041	-0.187
-656.901	393.604	0.138	-0.294
-655.886	350.826	0.068	-0.138
-654.872	-49.496	-0.264	-0.128
-653.857	-105.941	0.057	0.013
-652.843	-21.655	0.215	0.134
-651.828	237.671	0.175	0.297
-650.814	-65.072	-0.214	-0.088
-649.799	1.424	-0.112	0.082
-648.784	200.839	-0.163	0.255
-647.770	-200.000	-0.045	-0.213
-646.755	-77.390	0.148	0.052
-645.741	553.206	-0.055	0.134
-644.726	800.000	-0.092	-0.310
-643.711	19.427	0.139	0.114
-642.697	32.436	-0.287	-0.253
-641.682	-200.000	0.119	-0.000
-640.668	17.082	-0.148	0.119
-639.653	-66.834	-0.215	0.087
-638.638	411.229	0.098	-0.213
-637.624	11.791	-0.100	0.078
-636.609	388.457	0.116	0.245
-635.595	98.577	0.291	-0.342
-634.580	-25.349	-0.194	-0.117
-633.565	232.291	-0.062	-0.103
-632.551	426.606	-0.051	-0.112
-631.536	-6.136	0.269	-0.187
-630.522	-200.000	-0.010	0.132
-629.507	-200.000	-0.031	-0.194
-628.492	-48.927	-0.212	0.104
-627.478	-61.149	-0.255	-0.110
-626.463	-156.179	-0.086	-0.006
-625.449	51.154	-0.192	-0.186
-624.434	-31.712	-0.182	0.104
-623.419	163.058	-0.079	-0.113
-622.405	247.327	-0.105	0.180
-621.390	-200.000	-0.021	0.113
-620.376	800.000	-0.047	0.169
-619.361	-176.752	-0.151	-0.004
-618.346	800.000	-0.060	0.203
-617.332	-43.131	-0.203	-0.105
-616.317	236.480	0.089	-0.150
-615.303	-75.801	-0.363	-0.131
-614.288	-126.996	-0.179	-0.027
-613.273	-96.336	0.189	0.051
-612.259	-80.383	-0.129	-0.044
-611.244	-85.979	0.106	-0.033
-610.230	-60.656	0.133	0.057
-609.215	-200.000	0.016	-0.137
-608.201	-140.963	0.344	0.036
-607.186	162.681	0.016	-0.023
-606.171	1.064	-0.083	-0.061
-605.157	55.457	-0.247	0.243
-604.142	170.848	0.060	-0.088
-603.128	61.390	-0.254	-0.257
-602.113	800.000	0.012	-0.035
-601.098	688.019	0.043	0.114
-600.084	-200.000	0.019	-0.142
-599.069	572.831	0.037	0.091
-598.055	-104.114	-0.208	0.049
-597.040	56.004	-0.147	-0.145
-596.025	-85.297	0.039	-0.012
-595.011	-92.414	0.281	-0.081
-593.996	-200.000	-0.016	0.181
-592.982	95.362	0.126	0.147
-591.967	569.994	0.132	-0.326
-590.952	164.756	-0.137	-0.196
-589.938	-74.329	-0.173	0.063
-588.923	715.711	0.127	-0.344
-587.909	292.968	0.048	0.090
-586.894	40.631	-0.202	-0.185
-585.879	78.872	0.161	-0.175
-584.865	229.971	-0.115	-0.191
-583.850	587.792	0.092	-0.231
-582.836	63.259	0.124	0.126
-581.821	72.052	0.032	0.034
-580.806	-101.529	-0.417	-0.103
-579.792	800.000	0.161	-0.470
-578.777	-200.000	-0.015	0.149
-577.763	599.864	-0.066	0.165
-576.748	19.135	0.237	-0.193
-575.733	-200.000	0.021	0.155
-574.719	-41.820	-0.172	0.090
-573.704	375.369	0.032	0.067
-572.690	800.000	0.055	-0.236
-571.675	10.434	0.226	0.175
-570.661	-200.000	-0.008	0.094
-569.646	-161.320	0.051	-0.003
-568.631	-121.851	0.297	0.050
-567.617	-194.739	0.033	0.000
-566.602	106.565	-0.080	0.097
-565.588	-70.283	-0.397	0.153
-564.573	-126.881	0.228	-0.034
-563.558	800.000	0.051	-0.177
-562.544	25.830	-0.102	-0.086
-561.529	-148.875	0.085	-0.007
-560.515	108.011	-0.097	-0.118
-559.500	14.932	0.203	-0.161
-558.485	-14.629	0.102	-0.066
-557.471	-200.000	0.041	-0.212
-556.456	-68.935	-0.383	-0.150
-555.442	312.168	0.037	0.070
-554.427	-20.403	0.178	-0.111
-553.412	-200.000	-0.007	-0.238
-552.398	-112.061	0.258	-0.053
-551.383	97.642	0.151	-0.176
-550.369	-63.580	-0.120	-0.050
-549.354	103.928	0.139	0.166
-548.339	99.716	0.290	-0.342
-547.325	-200.000	-0.040	0.447
-546.310	191.206	-0.086	0.132
-545.296	800.000	0.059	0.219
-544.281	46.304	0.029	0.028
-543.266	-200.000	0.010	0.336
-542.252	30.515	-0.103	-0.089
-541.237	-87.502	-0.345	-0.106
-540.223	-47.497	0.321	-0.158
-539.208	-51.210	0.126	-0.060
-538.193	-70.988	0.159	0.061
-537.179	-200.000	-0.059	0.269
-536.164	800.000	0.062	-0.175
-535.150	-200.000	-0.025	-0.343
-534.135	-200.000	-0.023	-0.402
-533.121	-46.330	0.172	0.086
-532.106	276.207	-0.124	0.224
-531.091	-73.134	0.045	-0.017
-530.077	-139.481	0.519	0.056
-529.062	87.908	-0.096	-0.108
-528.048	-12.318	0.187	-0.124
-527.033	-129.061	0.383	0.054
-526.018	-97.167	-0.084	0.022
-525.004	-4.414	-0.189	0.133
-523.989	-200.000	-0.008	0.081
-522.975	-200.000	-0.018	-0.089
-521.960	-5.551	-0.141	0.098
-520.945	292.452	0.071	0.131
-519.931	-11.937	-0.244	-0.163
-518.916	-128.936	-0.272	-0.039
-517.902	800.000	-0.048	-0.139
-516.887	-182.812	-0.245	-0.004
-515.872	80.379	-0.062	0.068
-514.858	549.105	0.046	0.113
-513.843	-200.000	0.007	0.041
-512.829	-51.695	0.149	-0.070
-511.814	89.463	0.069	0.078
-510.799	216.515	-0.178	-0.287
-509.785	531.428	-0.100	0.241
-508.770	-133.721	-0.339	-0.043
-507.756	-52.247	0.392	-0.184
-506.741	84.804	0.039	-0.043
-505.726	-111.041	-0.374	0.078
-504.712	5.703	0.463	-0.347
-503.697	86.081	-0.123	0.137
-502.683	-28.154	0.242	-0.142
-501.668	167.070	-0.165	0.238
-500.653	800.000	-0.085	0.326
-499.639	23.507	0.084	-0.070
-498.624	6.966	-0.060	0.045
-497.610	-200.000	-0.032	-0.258
-496.595	210.574	0.085	0.135
-495.581	48.905	0.090	0.086
-494.566	-200.000	0.058	-0.271
-493.551	800.000	0.094	0.319
-492.537	29.023	0.059	-0.051
-491.522	169.140	-0.074	-0.107
-490.508	70.771	-0.135	0.141
-489.493	800.000	0.052	-0.180
-488.478	229.440	0.044	-0.074
-487.464	269.722	0.126	0.224
-486.449	800.000	-0.082	0.279
-485.435	110.049	-0.147	0.179
-484.420	-38.917	-0.232	0.124
-483.405	-85.712	0.248	-0.078
-482.391	-88.510	-0.239	-0.072
-481.376	495.268	0.077	0.178
-480.362	373.034	-0.218	0.449
-479.347	-104.979	0.181	0.042
-478.332	267.557	-0.023	-0.042
-477.318	340.583	0.058	-0.114
-476.303	69.110	0.116	-0.121
-475.289	92.375	-0.058	-0.066
-474.274	-200.000	-0.054	-0.292
-473.259	-200.000	0.033	0.193
-472.245	17.063	-0.128	-0.103
-471.230	109.860	-0.103	0.125
-470.216	27.017	0.162	0.137
-469.201	54.456	-0.148	0.145
-468.186	-164.386	0.260	-0.012
-467.172	-24.871	-0.138	0.083
-466.157	247.140	-0.131	-0.224
-465.143	-200.000	-0.022	0.164
-464.128	235.836	0.087	-0.146
-463.113	-53.182	-0.362	0.168
-462.099	-43.797	-0.239	0.122
-461.084	-200.000	-0.037	-0.167
-460.070	-25.188	-0.418	-0.250
-459.055	-98.821	-0.204	0.053
-458.040	800.000	0.029	-0.117
-457.026	-115.661	-0.113	-0.021
-456.011	-29.317	0.041	-0.024
-454.997	135.436	0.035	-0.046
-453.982	-21.791	0.178	0.109
-452.968	-83.502	-0.071	-0.023
-451.953	800.000	-0.034	0.112
-450.938	174.081	0.184	0.268
-449.924	26.002	0.206	0.174
-448.909	165.434	0.149	0.213
-447.895	-200.000	-0.021	0.374
-446.880	-5.383	-0.318	-0.221
-445.865	-164.424	-0.108	0.005
-444.851	-61.946	0.124	0.053
-443.836	-137.700	-0.187	-0.021
-442.822	92.928	-0.205	-0.234
-441.807	-121.044	0.133	0.023
-440.792	-200.000	-0.036	-0.355
-439.778	743.334	-0.110	-0.300
-438.763	-90.987	-0.237	-0.069
-437.749	-58.905	-0.182	-0.080
-436.734	-6.692	0.126	0.087
-435.719	-29.443	-0.288	0.166
-434.705	-200.000	-0.028	-0.238
-433.690	285.418	-0.044	-0.081
-432.676	800.000	-0.057	0.210
-431.661	380.217	-0.218	0.452
-430.646	-148.334	-0.405	-0.034
-429.632	140.668	-0.122	-0.163
-428.617	-98.669	-0.295	-0.076
-427.603	800.000	-0.084	0.244
-426.588	1.714	0.168	-0.123
-425.573	141.668	-0.211	0.283
-424.559	48.619	-0.139	0.132
-423.544	-200.000	0.010	0.066
-422.530	-118.350	0.307	-0.055
-421.515	0.288	0.101	0.073
-420.500	-11.147	-0.057	-0.038
-419.486	800.000	-0.037	0.139
-418.471	-200.000	0.019	-0.426
-417.457	169.806	-0.146	0.211
-416.442	-200.000	-0.027	0.172
-415.428	164.420	-0.229	0.326
-414.413	65.179	-0.067	0.068
-413.398	-200.000	0.001	-0.074
-412.384	-73.781	0.226	0.083
-411.369	-200.000	-0.038	-0.249
-410.355	190.215	0.172	0.261
-409.340	-200.000	0.016	-0.464
-408.325	800.000	-0.029	-0.092
-407.311	-186.838	-0.103	0.001
-406.296	-10.738	0.267	0.178
-405.282	132.883	-0.040	-0.052
-404.267	369.779	-0.100	-0.205
-403.252	115.009	0.298	0.367
-402.238	-200.000	0.066	-0.411
-401.223	189.411	0.063	-0.095
-400.209	800.000	-0.073	-0.227
-399.194	-117.228	0.252	-0.046
-398.179	-200.000	-0.003	0.030
-397.165	604.352	0.059	-0.147
-396.150	-56.307	-0.140	-0.063
-395.136	-124.494	0.099	0.016
-394.121	-200.000	-0.018	-0.154
-393.106	-44.965	-0.170	-0.086
-392.092	800.000	0.073	-0.207
-391.077	800.000	0.093	0.279
-390.063	800.000	-0.072	0.243
-389.048	800.000	-0.043	-0.128
-388.033	-200.000	-0.012	-0.059
-387.019	-200.000	0.045	-0.211
-386.004	7.019	0.158	-0.119
-384.990	-144.991	0.470	-0.043
-383.975	42.769	0.049	0.045
-382.960	63.969	0.168	0.171
-381.946	98.682	0.111	-0.130
-380.931	13.739	-0.253	-0.199
-379.917	15.226	-0.142	-0.112
-378.902	-87.106	-0.076	-0.023
-377.888	-200.000	-0.052	0.235
-376.873	-3.004	0.118	-0.083
-375.858	-200.000	0.021	-0.167
-374.844	68.966	-0.135	-0.139
-373.829	191.988	0.058	0.089
-372.815	337.031	0.153	0.299
-371.800	462.441	-0.052	0.116
-370.785	585.934	0.074	0.183
-369.771	105.649	-0.291	0.347
-368.756	172.799	0.212	-0.307
-367.742	60.965	0.063	-0.063
-366.727	-126.125	-0.191	0.029
-365.712	-168.818	0.158	0.006
-364.698	-200.000	0.024	0.257
-363.683	-63.746	0.153	-0.063
-362.669	-200.000	-0.037	-0.169
-361.654	800.000	-0.058	-0.203
-360.639	187.141	-0.292	-0.440
-359.625	-12.471	-0.140	-0.092
-358.610	-52.025	-0.220	-0.103
-357.596	-64.114	0.027	0.011
-356.581	-200.000	0.016	0.369
-355.566	639.905	0.030	0.077
-354.552	435.354	0.123	-0.270
-353.537	-88.052	-0.059	-0.018
-352.523	624.413	-0.053	0.134
-351.508	-134.871	0.191	-0.023
-350.493	25.949	-0.079	-0.066
-349.479	-200.000	0.017	-0.092
-348.464	-60.420	0.287	-0.123
-347.450	-6.668	-0.086	-0.059
-346.435	22.136	-0.064	0.052
-345.420	800.000	0.018	-0.070
-344.406	-142.516	-0.176	-0.017
-343.391	390.384	0.148	0.310
-342.377	208.786	0.145	0.229
-341.362	-39.206	0.063	0.033
-340.348	-22.111	-0.233	-0.142
-339.333	323.861	-0.091	-0.174
-338.318	19.314	0.068	0.055
-337.304	31.335	0.169	0.146
-336.289	603.617	0.068	0.169
-335.275	104.690	-0.212	0.252
-334.260	800.000	0.061	0.174
-333.245	-131.709	0.064	0.009
-332.231	-200.000	0.008	0.121
-331.216	-200.000	0.031	-0.304
-330.202	58.584	-0.236	-0.233
-329.187	112.580	0.099	-0.121
-328.172	800.000	-0.071	0.229
-327.158	-97.223	-0.029	-0.008
-326.143	-112.184	0.212	0.043
-325.129	-108.682	-0.161	-0.035
-324.114	710.340	0.104	-0.277
-323.099	-200.000	0.012	0.147
-322.085	-17.523	0.138	-0.087
-321.070	120.374	0.096	-0.120
-320.056	-142.157	-0.083	-0.008
-319.041	409.789	-0.077	0.163
-318.026	-200.000	0.007	-0.067
-317.012	-40.748	-0.087	0.045
-315.997	-200.000	0.001	-0.214
-314.983	-200.000	0.023	0.216
-313.968	353.445	-0.152	0.304
-312.953	-96.125	-0.201	-0.054
-311.939	254.462	0.226	0.390
-310.924	-200.000	-0.003	-0.083
-309.910	-200.000	0.049	-0.365
-308.895	-140.040	0.248	-0.026
-307.880	0.316	0.104	0.075
-306.866	173.438	-0.143	0.207
-305.851	-85.977	-0.204	0.064
-304.837	-3.606	0.112	0.078
-303.822	193.994	0.089	-0.135
-302.807	-110.553	-0.313	0.065
-301.793	12.998	0.248	-0.193
-300.778	800.000	-0.065	0.213
-299.764	132.160	-0.207	-0.268
-298.749	82.944	0.346	0.378
-297.735	116.071	-0.173	0.212
-296.720	82.702	0.194	0.212
-295.705	153.285	0.246	-0.338
-294.691	372.508	0.079	-0.162
-293.676	229.985	0.208	-0.341
-292.662	-200.000	0.098	0.000
-291.647	144.189	0.154	0.206
-290.632	-7.052	-0.086	-0.058
-289.618	341.354	-0.152	-0.298
-288.603	-119.044	-0.250	-0.044
-287.589	-6.374	-0.166	0.114
-286.574	7.747	0.169	0.127
-285.559	-200.000	0.023	-0.116
-284.545	-200.000	0.013	-0.418
-283.530	17.914	0.298	-0.239
-282.516	-106.990	-0.162	0.036
-281.501	6.013	-0.187	0.139
-280.486	-200.000	-0.040	-0.336
-279.472	221.176	0.110	0.178
-278.457	271.043	0.146	-0.259
-277.443	78.741	-0.047	0.050
-276.428	800.000	0.056	0.198
-275.413	-137.749	0.377	0.042
-274.399	-108.850	0.272	-0.058
-273.384	340.253	0.230	-0.450
-272.370	-200.000	0.080	0.366
-271.355	3.558	-0.204	-0.149
-270.340	120.793	0.091	-0.114
-269.326	-83.120	0.623	-0.202
-268.311	123.198	0.103	0.129
-267.297	-3.550	0.311	-0.217
-266.282	-16.631	0.139	-0.088
-265.267	488.291	-0.084	0.194
-264.253	175.458	-0.130	-0.189
-263.238	107.446	-0.258	0.308
-262.224	-177.409	-0.201	0.005
-261.209	16.465	0.124	0.099
-260.195	-200.000	0.003	0.104
-259.180	-71.808	0.144	0.054
-258.165	-105.633	-0.278	0.063
-257.151	15.549	-0.226	0.178
-256.136	136.476	-0.058	-0.076
-255.122	-139.347	0.258	0.028
-254.107	305.221	-0.060	0.112
-253.092	-167.738	0.290	0.012
-252.078	779.179	0.077	0.211
-251.063	-124.534	0.062	-0.010
-250.049	-92.840	0.187	0.053
-249.034	-43.838	0.315	0.159
-248.019	609.069	-0.041	-0.102
-247.005	222.462	0.043	-0.070
-245.990	-200.000	0.007	-0.125
-244.976	800.000	0.060	0.183
-243.961	63.447	0.092	-0.093
-242.946	-92.302	0.596	0.169
-241.932	4.469	0.451	0.332
-240.917	245.926	-0.008	0.014
-239.903	-23.599	-0.216	0.130
-238.888	-83.442	0.191	0.061
-237.873	-132.562	0.260	0.034
-236.859	398.558	0.087	0.182
-235.844	-200.000	-0.007	-0.280
-234.830	32.566	0.116	-0.101
-233.815	-37.117	0.197	0.106
-232.800	-98.068	0.009	-0.002
-231.786	85.306	-0.229	0.253
-230.771	72.725	-0.215	-0.225
-229.757	-109.380	-0.114	0.024
-228.742	-110.285	-0.262	-0.055
-227.727	45.907	-0.314	-0.291
-226.713	76.363	-0.316	0.336
-225.698	-93.317	-0.220	-0.061
-224.684	800.000	0.114	0.420
-223.669	-200.000	-0.031	0.210
-222.655	-162.511	-0.108	-0.005
-221.640	-149.518	-0.113	-0.009
-220.625	-200.000	-0.025	-0.123
-219.611	306.089	0.088	0.164
-218.596	-200.000	0.036	-0.354
-217.582	-200.000	0.000	-0.229
-216.567	133.909	0.219	0.285
-215.552	757.851	0.100	0.271
-214.538	-117.305	-0.039	-0.007
-213.523	-200.000	0.026	0.214
-212.509	-200.000	0.009	-0.211
-211.494	349.561	0.168	-0.332
-210.479	-6.420	-0.095	-0.065
-209.465	-3.851	0.021	-0.014
-208.450	27.966	-0.422	0.356
-207.436	652.751	-0.108	0.277
-206.421	65.053	-0.014	-0.014
-205.406	683.309	0.110	0.288
-204.392	312.794	0.068	-0.128
-203.377	137.145	-0.083	-0.109
-202.363	-200.000	0.043	-0.344
-201.348	-200.000	0.031	-0.206
-200.333	39.225	-0.227	0.204
-199.319	-200.000	-0.010	0.402
-198.304	211.275	0.136	0.214
-197.290	395.805	0.082	0.171
-196.275	297.320	0.273	-0.502
-195.260	-43.217	-0.329	-0.167
-194.246	-200.000	-0.011	0.286
-193.231	-200.000	-0.066	0.315
-192.217	-171.962	0.208	0.007
-191.202	-68.004	0.287	0.112
-190.187	-24.595	-0.444	0.265
-189.173	800.000	-0.059	-0.173
-188.158	-200.000	-0.026	-0.242
-187.144	-200.000	0.014	0.232
-186.129	800.000	0.067	0.249
-185.114	800.000	-0.105	0.382
-184.100	-110.529	0.138	0.029
-183.085	-200.000	-0.015	0.446
-182.071	800.000	-0.027	-0.109
-181.056	63.206	0.059	-0.059
-180.042	-143.910	0.238	-0.022
-179.027	702.171	0.020	-0.052
-178.012	-200.000	0.005	-0.167
-176.998	50.241	0.154	0.146
-175.983	78.859	-0.194	-0.207
-174.969	-144.310	0.142	-0.013
-173.954	254.847	-0.079	0.135
-172.939	-49.051	-0.226	0.108
-171.925	-79.405	-0.179	0.061
-170.910	679.599	-0.081	0.210
-169.896	800.000	0.053	-0.226
-168.881	-200.000	0.016	0.153
-167.866	-200.000	-0.054	-0.241
-166.852	29.812	0.086	-0.073
-165.837	64.872	-0.054	0.055
-164.823	-64.411	0.365	-0.148
-163.808	199.088	-0.028	0.042
-162.793	-44.164	0.211	0.106
-161.779	387.543	-0.077	0.159
-160.764	81.068	0.178	-0.193
-159.750	800.000	-0.076	0.258
-158.735	22.809	0.206	0.169
-157.720	788.015	-0.073	0.199
-156.706	-0.077	-0.171	0.122
-155.691	453.962	0.101	0.224
-154.677	523.097	-0.054	-0.126
-153.662	158.820	-0.150	-0.208
-152.647	-52.986	0.238	-0.110
-151.633	232.084	-0.185	-0.304
-150.618	10.303	-0.472	0.359
-149.604	-200.000	-0.050	0.269
-148.589	-200.000	-0.001	0.110
-147.574	-200.000	-0.047	-0.266
-146.560	-28.482	-0.133	-0.077
-145.545	343.879	-0.151	0.296
-144.531	18.538	-0.293	0.234
-143.516	-200.000	-0.073	-0.000
-142.502	-152.105	0.350	0.025
-141.487	142.261	0.222	-0.295
-140.472	58.268	-0.092	0.090
-139.458	-200.000	0.009	0.180
-138.443	-50.442	0.229	0.108
-137.429	305.784	0.163	-0.304
-136.414	-146.817	0.157	-0.014
-135.399	263.435	-0.150	-0.260
-134.385	35.232	-0.091	-0.080
-133.370	800.000	0.063	-0.193
-132.356	-200.000	-0.003	0.111
-131.341	800.000	-0.057	-0.178
-130.326	-75.937	0.151	-0.054
-129.312	77.545	0.424	-0.451
-128.297	-200.000	0.002	-0.348
-127.283	301.453	-0.040	-0.074
-126.268	17.597	0.245	0.195
-125.253	800.000	-0.023	-0.093
-124.239	95.816	-0.006	-0.007
-123.224	-200.000	0.017	0.358
-122.210	800.000	0.026	0.098
-121.195	388.112	0.042	0.087
-120.180	3.432	0.366	0.266
-119.166	112.985	0.200	0.242
-118.151	-49.411	0.167	-0.079
-117.137	-200.000	-0.015	0.306
-116.122	4.343	-0.153	-0.112
-115.107	609.633	0.108	0.269
-114.093	25.266	-0.184	0.153
-113.078	-76.938	0.240	-0.084
-112.064	758.317	0.070	-0.188
-111.049	-71.870	-0.204	0.076
-110.034	8.133	0.231	0.173
-109.020	430.476	-0.070	-0.151
-108.005	461.710	0.042	-0.093
-106.991	297.961	0.150	0.275
-105.976	-64.034	0.059	0.024
-104.962	-14.535	0.150	0.096
-103.947	-151.344	0.112	-0.008
-102.932	91.874	-0.062	-0.069
-101.918	11.675	-0.186	-0.142
-100.903	148.520	0.101	0.136
-99.889	152.521	-0.164	0.223
-98.874	-200.000	-0.066	0.395
-97.859	441.921	-0.029	0.064
-96.845	-200.000	-0.019	0.104
-95.830	-157.835	0.179	0.011
-94.816	200.648	0.302	-0.464
-93.801	61.921	-0.301	-0.299
-92.786	33.368	-0.114	0.099
-91.772	166.644	-0.115	-0.163
-90.757	61.525	0.182	0.181
-89.743	599.003	-0.051	-0.127
-88.728	178.124	0.150	-0.218
-87.713	-31.020	0.221	0.124
-86.699	-76.124	0.270	0.095
-85.684	-62.511	0.205	-0.085
-84.670	264.514	-0.097	-0.168
-83.655	84.350	-0.094	0.103
-82.640	267.319	-0.130	-0.226
-81.626	-77.481	0.130	-0.045
-80.611	800.000	0.027	0.082
-79.597	66.974	-0.164	-0.166
-78.582	-158.759	-0.011	-0.001
-77.567	-125.320	0.428	0.065
-76.553	142.882	0.189	0.251
-75.538	-41.381	-0.143	-0.073
-74.524	800.000	0.129	-0.402
-73.509	23.866	-0.064	-0.052
-72.494	800.000	0.040	-0.126
-71.480	-17.799	-0.115	-0.072
-70.465	54.030	0.203	-0.195
-69.451	-21.250	0.112	-0.069
-68.436	-138.033	-0.155	-0.017
-67.422	103.625	0.212	0.248
-66.407	-190.838	-0.158	-0.002
-65.392	-71.100	-0.086	0.032
-64.378	-200.000	0.013	-0.225
-63.363	-58.010	-0.177	-0.077
-62.349	-38.291	0.116	0.061
-61.334	30.522	-0.717	-0.611
-60.319	581.352	0.191	0.466
-59.305	-200.000	0.079	-0.823
-58.290	83.962	0.481	0.523
-57.276	800.000	0.520	1.483
-56.261	-200.000	76.063	510.265
-55.246	524.339	1326.565	3108.605
-54.232	146.300	2556.814	3419.544
-53.217	118.665	2226.121	2738.819
-52.203	53.087	1668.229	1591.076
-51.188	44.881	1391.232	1275.775
-50.173	41.266	1345.238	1211.617
-49.159	59.856	1380.321	1357.660
-48.144	66.580	1399.135	1417.301
-47.130	45.357	1361.825	1251.524
-46.115	41.253	1345.290	1211.392
-45.100	41.066	1340.680	1206.059
-44.086	40.785	1338.590	1202.431
-43.071	40.831	1335.808	1200.162
-42.057	40.886	1333.381	1198.267
-41.042	40.980	1331.806	1197.367
-40.027	40.993	1330.686	1196.395
-39.013	40.969	1328.762	1194.472
-37.998	40.971	1326.838	1192.706
-36.984	40.994	1325.616	1191.698
-35.969	41.061	1322.952	1189.655
-34.954	41.146	1321.519	1188.826
-33.940	41.048	1320.252	1187.059
-32.925	41.119	1319.056	1186.358
-31.911	41.205	1317.155	1185.111
-30.896	41.127	1315.822	1183.400
-29.881	41.199	1314.245	1182.365
-28.867	41.081	1313.331	1180.795
-27.852	41.178	1311.801	1179.948
-26.838	41.226	1310.042	1178.600
-25.823	41.164	1308.852	1177.120
-24.809	41.217	1307.358	1176.041
-23.794	41.194	1305.887	1174.534
-22.779	41.171	1304.432	1173.044
-21.765	41.256	1303.266	1172.452
-20.750	41.224	1301.797	1170.892
-19.736	41.082	1300.621	1168.958
-18.721	41.085	1299.738	1168.134
-17.706	41.129	1298.108	1166.879
-16.692	40.982	1297.797	1165.690
-15.677	40.976	1296.186	1164.165
-14.663	41.054	1294.771	1163.304
-13.648	40.873	1294.335	1161.806
-12.633	40.954	1293.190	1161.207
-11.619	40.916	1292.332	1160.168
-10.604	41.115	1290.748	1159.860
-9.590	41.000	1290.365	1158.801
-8.575	40.978	1289.200	1157.582
-7.560	40.868	1288.413	1156.185
-6.546	40.844	1287.402	1155.092
-5.531	40.953	1286.643	1154.999
-4.517	40.990	1285.637	1154.269
-3.502	40.927	1284.972	1153.258
-2.487	40.949	1283.409	1151.936
-1.473	41.147	1279.525	1149.549
-0.458	40.082	1264.892	1130.273
0.556	36.320	1245.187	1088.229
1.571	32.358	1248.893	1068.908
2.586	30.997	1263.531	1073.510
3.600	28.926	1251.918	1051.723
4.615	20.493	1174.426	941.071
5.629	8.256	1090.134	811.571
6.644	2.588	1066.514	765.655
7.659	2.033	1063.692	760.793
8.673	1.867	1062.180	758.820
9.688	1.854	1060.811	757.706
10.702	2.150	1059.819	758.400
11.717	9.336	1070.109	801.623
12.731	20.450	1085.847	869.262
13.746	25.008	1091.966	896.963
14.761	25.363	1092.220	898.870
15.775	25.543	1090.988	898.677
16.790	25.188	1090.640	896.535
17.804	25.084	1090.150	895.535
18.819	25.302	1089.242	895.796
19.834	25.389	1088.655	895.667
20.848	25.386	1088.640	895.562
21.863	25.417	1087.718	894.878
22.877	25.259	1087.330	893.693
23.892	25.310	1086.361	893.072
24.907	25.337	1085.823	892.687
25.921	25.276	1084.840	891.493
26.936	25.285	1083.588	890.431
27.950	25.368	1081.568	889.106
28.965	25.083	1079.782	886.150
29.980	25.246	1078.345	885.693
30.994	25.453	1077.499	885.942
32.009	25.526	1076.308	885.243
33.023	25.180	1075.492	882.792
34.038	25.143	1075.102	882.210
35.053	25.419	1073.859	882.469
36.067	25.473	1072.778	881.767
37.082	25.264	1072.792	880.675
38.096	25.479	1071.869	880.893
39.111	25.558	1071.240	880.688
40.126	25.366	1069.883	878.553
41.140	24.946	1068.516	875.302
42.155	24.854	1066.827	873.392
43.169	24.931	1065.459	872.570
44.184	24.829	1065.214	871.794
45.199	24.737	1064.168	870.414
46.213	24.927	1062.677	870.041
47.228	25.051	1062.708	870.591
48.242	25.202	1061.151	869.971
49.257	25.283	1060.832	870.026
50.271	25.395	1059.953	869.769
51.286	25.400	1059.172	869.074
52.301	25.360	1058.320	868.109
53.315	25.310	1057.641	867.229
54.330	25.194	1056.364	865.547
55.344	25.314	1056.081	865.818
56.359	25.260	1054.981	864.582
57.374	25.041	1053.745	862.436
58.388	25.085	1052.910	861.890
59.403	24.931	1052.532	860.761
60.417	24.965	1051.591	860.081
61.432	25.028	1050.882	859.725
62.447	25.018	1050.381	859.192
63.461	25.083	1049.548	858.748
64.476	25.076	1048.360	857.664
65.490	24.954	1047.463	856.274
66.505	24.968	1046.790	855.714
67.520	24.981	1046.727	855.647
68.534	24.962	1045.019	854.085
69.549	24.494	1044.140	851.062
70.563	24.436	1043.577	850.253
71.578	24.475	1042.931	849.834
72.593	24.336	1041.326	847.791
73.607	24.501	1041.186	848.387
74.622	24.787	1040.557	849.156
75.636	24.751	1039.858	848.339
76.651	24.847	1038.578	847.674
77.666	24.655	1038.103	846.306
78.680	24.761	1037.285	846.063
79.695	24.730	1037.158	845.737
80.709	24.904	1035.944	845.497
81.724	24.774	1035.447	844.401
82.739	25.015	1034.459	844.659
83.753	25.239	1034.522	845.688
84.768	25.517	1033.476	846.071
85.782	25.735	1032.723	846.401
86.797	25.510	1032.217	844.853
87.812	25.320	1030.627	842.588
88.826	25.406	1029.955	842.370
89.841	25.563	1028.995	842.243
90.855	25.605	1027.687	841.295
91.870	25.587	1026.907	840.496
92.884	25.548	1025.834	839.361
93.899	25.295	1025.304	837.676
94.914	25.533	1024.264	837.859
95.928	25.429	1023.102	836.352
96.943	25.235	1021.766	834.282
97.957	24.901	1021.092	832.108
98.972	24.722	1020.030	830.338
99.987	25.042	1019.126	831.011
101.001	25.246	1018.815	831.632
102.016	25.258	1018.003	830.952
103.030	25.202	1016.807	829.640
104.045	24.921	1016.055	827.655
105.060	24.964	1014.485	826.502
106.074	24.979	1014.350	826.389
107.089	25.255	1013.766	827.112
108.103	25.226	1012.686	826.023
109.118	25.013	1011.416	823.935
110.133	24.925	1010.813	822.967
111.147	24.805	1009.588	821.342
112.162	24.760	1008.279	820.003
113.176	24.846	1008.142	820.212
114.191	24.799	1007.189	819.149
115.206	24.616	1006.062	817.320
116.220	24.539	1005.218	816.213
117.235	24.678	1004.573	816.250
118.249	24.644	1003.893	815.472
119.264	24.634	1002.923	814.565
120.279	24.596	1002.371	813.872
121.293	24.658	1001.562	813.424
122.308	24.772	1000.406	812.931
123.322	24.676	999.098	811.363
124.337	24.514	998.081	809.731
125.352	24.023	996.673	806.291
126.366	23.894	995.830	804.953
127.381	24.698	995.399	808.169
128.395	25.228	995.085	810.240
129.410	25.225	994.304	809.520
130.424	25.210	993.492	808.719
131.439	25.250	992.666	808.151
132.454	25.311	991.317	807.258
133.468	25.298	990.574	806.523
134.483	25.412	990.050	806.536
135.497	25.565	989.337	806.571
136.512	25.542	988.794	805.952
137.527	25.538	987.658	804.937
138.541	25.471	987.073	804.092
139.556	25.508	986.714	803.892
140.570	25.605	985.597	803.347
141.585	25.675	984.358	802.578
142.600	25.515	983.750	801.295
143.614	25.701	983.119	801.541
144.629	25.883	982.086	801.437
145.643	25.679	980.628	799.268
146.658	25.527	979.705	797.774
147.673	25.403	978.186	795.915
148.687	25.404	977.431	795.236
149.702	25.330	976.247	793.873
150.716	25.362	975.015	792.946
151.731	25.449	974.951	793.206
152.746	25.518	974.859	793.364
153.760	25.519	974.194	792.758
154.775	25.706	973.217	792.718
155.789	25.641	972.075	791.431
156.804	25.581	971.164	790.355
157.819	25.662	970.659	790.229
158.833	25.812	969.736	790.068
159.848	25.806	969.066	789.426
160.862	25.760	967.599	787.958
161.877	25.584	966.759	786.434
162.892	25.722	965.751	786.148
163.906	25.491	964.814	784.308
164.921	25.566	963.941	783.856
165.935	25.611	962.881	783.120
166.950	25.591	962.350	782.533
167.964	25.564	961.141	781.361
168.979	25.454	960.175	780.031
169.994	25.316	959.172	778.549
171.008	25.689	958.587	779.620
172.023	25.783	957.849	779.357
173.037	25.520	956.866	777.351
174.052	25.281	956.082	775.615
175.067	25.302	955.330	775.027
176.081	25.459	954.622	775.062
177.096	25.414	954.164	774.424
178.110	25.203	953.115	772.597
179.125	25.132	952.020	771.335
180.140	25.007	952.030	770.737
181.154	25.294	951.392	771.388
182.169	25.370	951.749	771.937
183.183	25.701	951.345	772.961
184.198	25.551	950.352	771.441
185.213	25.565	949.294	770.575
186.227	25.572	949.025	770.320
187.242	25.659	948.096	769.867
188.256	25.669	947.528	769.381
189.271	25.675	947.124	769.013
190.286	25.518	945.531	766.980
191.300	24.758	944.005	762.435
192.315	23.984	942.574	757.916
193.329	23.904	942.061	757.096
194.344	24.763	942.950	761.404
195.359	25.443	942.760	764.073
196.373	25.593	941.972	764.007
197.388	25.473	941.506	763.052
198.402	25.423	941.258	762.571
199.417	25.453	940.538	762.049
200.432	25.260	939.237	760.107
201.446	25.231	938.254	759.125
202.461	25.333	937.680	759.022
203.475	24.429	936.044	753.813
204.490	23.644	934.216	748.965
205.504	24.470	935.103	753.098
206.519	25.083	934.759	755.335
207.534	25.129	934.225	755.034
208.548	25.606	934.307	757.038
209.563	25.399	933.420	755.385
210.577	25.301	932.749	754.362
211.592	25.727	932.715	756.057
212.607	25.636	931.968	755.001
213.621	25.593	931.368	754.269
214.636	25.656	930.433	753.708
215.650	25.654	929.292	752.709
216.665	25.774	928.989	752.900
217.680	25.746	927.908	751.842
218.694	25.467	926.854	749.757
219.709	25.161	926.086	747.794
220.723	25.369	926.327	748.788
221.738	25.499	925.716	748.771
222.753	25.576	924.651	748.162
223.767	25.543	924.606	747.923
224.782	25.760	924.378	748.575
225.796	25.811	923.773	748.231
226.811	25.087	922.300	743.967
227.826	24.473	920.630	740.008
228.840	24.649	920.199	740.328
229.855	24.848	919.581	740.590
230.869	24.370	918.619	737.773
231.884	24.812	919.053	739.884
232.899	25.399	918.815	742.050
233.913	25.467	917.921	741.545
234.928	25.270	917.677	740.471
235.942	25.304	916.918	739.929
236.957	25.154	915.914	738.437
237.972	25.150	915.381	737.925
238.986	25.104	914.871	737.260
240.001	25.218	914.235	737.152
241.015	25.360	913.438	737.027
242.030	25.634	913.047	737.771
243.045	25.420	913.044	736.824
244.059	25.678	912.396	737.294
245.074	25.418	911.764	735.653
246.088	25.157	910.900	733.824
247.103	25.491	909.799	734.234
248.117	25.893	910.456	736.343
249.132	26.259	909.743	737.195
250.147	26.291	909.450	737.023
251.161	26.448	908.876	737.134
252.176	26.345	908.413	736.271
253.190	26.517	907.565	736.218
254.205	26.633	907.177	736.312
255.220	26.614	906.969	736.000
256.234	26.369	906.087	734.226
257.249	26.404	905.197	733.580
258.263	26.368	904.222	732.581
259.278	26.396	903.583	732.111
260.293	26.536	903.178	732.285
261.307	26.317	902.943	731.143
262.322	26.176	901.880	729.649
263.336	25.436	899.871	724.972
264.351	24.437	897.874	719.277
265.366	24.520	897.577	719.310
266.380	25.669	898.254	724.417
267.395	26.113	898.391	726.251
268.409	25.807	897.916	724.569
269.424	26.187	897.246	725.494
270.439	26.291	896.254	725.044
271.453	26.309	895.838	724.718
272.468	26.470	895.421	724.960
273.482	26.491	895.015	724.653
274.497	26.090	893.843	722.033
275.512	25.681	892.965	719.625
276.526	26.201	892.648	721.385
277.541	26.220	892.706	721.443
278.555	25.998	891.900	719.841
279.570	25.918	890.895	718.647
280.585	26.110	890.362	718.920
281.599	25.986	889.883	717.977
282.614	25.433	888.403	714.520
283.628	25.499	888.095	714.470
284.643	25.794	887.775	715.323
285.657	25.471	886.330	712.815
286.672	25.159	885.291	710.678
287.687	25.668	885.602	712.883
288.701	25.841	884.764	712.828
289.716	25.496	884.152	710.909
290.730	25.356	883.717	709.941
291.745	25.214	882.425	708.280
292.760	25.487	882.132	709.060
293.774	26.524	882.779	713.609
294.789	26.704	882.766	714.247
295.803	26.699	882.188	713.694
296.818	26.881	881.551	713.832
297.833	26.336	880.538	710.808
298.847	26.219	879.770	709.665
299.862	26.558	879.356	710.599
300.876	26.769	879.196	711.233
301.891	26.755	878.447	710.509
302.906	26.250	877.063	707.352
303.920	26.385	876.974	707.744
304.935	26.765	876.717	708.961
305.949	26.650	876.253	708.075
306.964	26.612	875.252	707.054
307.979	26.576	874.769	706.463
308.993	26.852	874.673	707.399
310.008	26.944	874.174	707.291
311.022	26.623	873.153	705.150
312.037	26.468	872.694	704.118
313.052	26.162	871.619	701.996
314.066	25.401	869.716	697.448
315.081	24.934	869.522	695.418
316.095	25.728	870.084	698.891
317.110	26.372	869.471	700.833
318.125	25.516	867.993	696.266
319.139	24.617	865.991	691.123
320.154	24.514	866.186	690.817
321.168	25.412	866.386	694.388
322.183	26.121	866.688	697.309
323.197	26.293	866.523	697.779
324.212	26.468	866.117	698.066
325.227	26.570	865.284	697.725
326.241	26.413	864.691	696.583
327.256	26.247	864.274	695.545
328.270	26.180	863.277	694.423
329.285	26.118	862.505	693.505
330.300	25.836	861.625	691.652
331.314	26.178	861.338	692.673
332.329	26.466	861.555	693.889
333.343	26.683	860.749	694.014
334.358	26.756	860.281	693.853
335.373	26.537	860.813	693.379
336.387	26.982	860.720	694.948
337.402	27.153	860.252	695.164
338.416	27.077	859.906	694.531
339.431	27.001	859.649	693.972
340.446	27.360	858.835	694.625
341.460	27.196	858.408	693.593
342.475	26.980	858.071	692.434
343.489	26.990	857.645	692.066
344.504	27.433	857.226	693.356
345.519	27.516	856.659	693.151
346.533	27.459	856.876	693.049
347.548	27.329	856.323	692.047
348.562	27.373	855.677	691.630
349.577	27.345	854.834	690.780
350.592	27.465	853.666	690.232
351.606	27.397	853.279	689.598
352.621	27.265	852.094	688.083
353.635	27.110	851.610	687.042
354.650	26.550	850.123	683.670
355.665	25.650	848.558	678.955
356.679	25.929	848.502	679.902
357.694	26.431	848.018	681.345
358.708	26.376	847.264	680.473
359.723	26.622	847.540	681.561
360.738	27.019	847.305	682.806
361.752	26.994	847.083	682.470
362.767	27.486	846.413	683.720
363.781	27.665	846.138	684.108
364.796	27.782	845.632	684.077
365.810	27.799	844.979	683.551
366.825	27.732	845.105	683.342
367.840	27.505	844.317	681.794
368.854	27.138	843.017	679.314
369.869	27.022	842.644	678.520
370.883	27.097	842.234	678.407
371.898	27.004	841.927	677.756
372.913	27.165	841.739	678.143
373.927	27.229	841.268	677.944
374.942	27.509	840.483	678.292
375.956	27.635	840.078	678.373
376.971	27.645	839.830	678.153
377.986	27.776	839.434	678.258
379.000	27.790	839.025	677.920
380.015	27.407	838.679	676.160
381.029	27.636	838.094	676.476
382.044	27.716	837.293	676.067
383.059	27.858	836.282	675.715
384.073	27.856	835.866	675.314
385.088	27.753	835.708	674.744
386.102	27.462	834.586	672.706
387.117	27.396	834.313	672.182
388.132	27.017	832.953	669.628
389.146	26.612	832.053	667.354
390.161	26.954	832.065	668.564
391.175	27.474	831.510	669.971
392.190	27.231	830.552	668.249
393.205	25.912	828.393	661.614
394.219	24.304	826.723	654.327
395.234	24.048	826.733	653.337
396.248	25.687	828.161	660.428
397.263	27.268	829.050	666.882
398.278	27.209	828.652	666.287
399.292	26.921	828.053	664.688
400.307	26.937	827.301	664.086
401.321	27.024	827.187	664.252
402.336	27.579	826.871	665.971
403.350	27.897	826.998	667.175
404.365	28.063	827.220	667.903
405.380	28.522	826.665	669.069
406.394	28.361	826.048	667.924
407.409	28.527	825.129	667.725
408.423	28.582	824.845	667.638
409.438	28.584	824.432	667.251
410.453	28.333	824.423	666.272
411.467	28.371	823.687	665.757
412.482	28.548	823.277	666.009
413.496	28.512	823.030	665.618
414.511	28.443	822.474	664.860
415.526	28.434	821.981	664.370
416.540	28.378	821.204	663.481
417.555	28.130	820.445	661.912
418.569	28.166	820.142	661.738
419.584	28.185	819.828	661.496
420.599	28.039	818.868	660.137
421.613	94.478	1263.280	1371.486
422.628	81.389	1328.068	1371.613
