DTS Sentinel unit serial number:	SN413079Multiplexer serial number:	ORYXHardware model number:	OX4-SRSoftware version number:	ORYX F/W v4.00 Oryx Data Collector v3.7.2.0data status	okinstallation	princeton_trtdifferential loss correction	single-endedforward channel	channel 1reverse channel	N/Adate	2019/09/16time	22:58:35forward acquisition time	60.00reverse acquisition time	0.00gamma	496.2192k internal	0.2325k external	0.2325temperature offset calibration	0.9958default loss term (dB/km)	0.3790temperature slope calibration	1.0000multiplexer offset coefficient	1.0000multiplexer slope coefficient	1.0000fibre end	0.00T internal ref (°C)	30.37T ext. ref 1 (°C)	0.09T ext. ref 2 (°C)	23.98length (m)	temperature (°C)	Stokes	anti-Stokes-747.200	121.930	-0.036	0.046
-746.185	67.690	-0.266	0.274
-745.171	-5.106	0.239	-0.166
-744.156	-200.000	0.054	0.333
-743.142	-76.341	0.301	0.107
-742.127	800.000	-0.091	0.282
-741.112	-200.000	-0.043	0.208
-740.098	-200.000	-0.079	0.360
-739.083	-200.000	0.017	0.424
-738.069	-8.752	-0.106	0.072
-737.054	-168.190	0.160	0.006
-736.039	-94.259	0.090	-0.025
-735.025	72.601	0.375	0.395
-734.010	169.382	-0.123	0.178
-732.996	2.366	0.152	0.111
-731.981	63.899	0.228	-0.231
-730.966	800.000	-0.023	-0.067
-729.952	-74.215	-0.188	-0.069
-728.937	117.681	-0.110	-0.136
-727.923	314.297	-0.134	0.254
-726.908	-200.000	-0.060	-0.350
-725.894	198.387	0.129	0.199
-724.879	-200.000	0.014	-0.336
-723.864	-200.000	0.019	0.102
-722.850	140.405	0.280	-0.372
-721.835	-103.775	-0.116	0.027
-720.821	800.000	-0.066	-0.222
-719.806	12.328	0.200	-0.155
-718.791	-9.501	0.076	0.051
-717.777	5.792	-0.033	0.024
-716.762	-76.531	-0.289	0.102
-715.748	800.000	0.107	-0.350
-714.733	-157.844	0.228	-0.014
-713.718	350.105	0.295	0.588
-712.704	-200.000	0.025	-0.292
-711.689	-92.770	-0.191	0.054
-710.675	-58.053	0.130	-0.057
-709.660	188.183	0.215	-0.323
-708.645	-200.000	0.003	-0.027
-707.631	77.873	0.198	0.213
-706.616	800.000	-0.058	-0.169
-705.602	55.769	0.144	-0.141
-704.587	-77.076	0.118	-0.042
-703.572	800.000	0.054	-0.227
-702.558	-89.388	0.176	0.052
-701.543	-200.000	-0.044	-0.229
-700.529	217.092	-0.139	-0.222
-699.514	39.497	-0.134	0.121
-698.499	-92.934	-0.182	-0.051
-697.485	-200.000	-0.037	-0.182
-696.470	126.198	-0.068	-0.086
-695.456	-81.703	0.245	-0.081
-694.441	-200.000	0.042	-0.495
-693.426	800.000	-0.069	0.197
-692.412	96.989	0.062	-0.072
-691.397	-22.194	-0.065	-0.040
-690.383	84.757	-0.197	0.217
-689.368	204.182	0.131	0.204
-688.354	567.584	-0.028	-0.070
-687.339	775.559	0.007	0.020
-686.324	-48.721	-0.306	0.148
-685.310	627.444	0.106	-0.269
-684.295	-157.645	0.417	-0.025
-683.281	-48.798	0.160	-0.077
-682.266	26.737	0.224	-0.189
-681.251	161.969	-0.029	-0.040
-680.237	65.018	0.150	0.153
-679.222	5.042	-0.057	0.042
-678.208	30.133	0.278	-0.239
-677.193	-86.977	0.148	-0.045
-676.178	-200.000	0.002	-0.089
-675.164	800.000	0.034	0.122
-674.149	9.093	-0.293	-0.222
-673.135	331.623	0.057	-0.111
-672.120	-200.000	0.019	0.084
-671.105	508.193	-0.092	-0.215
-670.091	184.881	0.069	0.103
-669.076	221.313	-0.153	-0.247
-668.062	-200.000	-0.008	-0.208
-667.047	376.432	0.084	-0.173
-666.032	-108.504	-0.300	-0.065
-665.018	216.473	-0.197	0.315
-664.003	-61.371	-0.278	-0.118
-662.989	240.114	0.218	0.365
-661.974	-89.889	-0.305	0.090
-660.959	-200.000	-0.147	0.001
-659.945	-200.000	-0.007	-0.075
-658.930	-56.727	-0.075	-0.033
-657.916	800.000	-0.074	-0.212
-656.901	-142.055	-0.378	0.038
-655.886	-114.229	0.494	-0.096
-654.872	800.000	0.075	0.330
-653.857	-54.603	-0.338	0.154
-652.843	612.337	0.084	-0.211
-651.828	-143.866	-0.144	-0.014
-650.814	-200.000	0.030	-0.377
-649.799	-147.929	-0.145	-0.012
-648.784	-57.435	-0.060	0.027
-647.770	-106.153	-0.189	0.043
-646.755	-200.000	0.017	0.185
-645.741	800.000	0.004	-0.012
-644.726	-126.064	-0.215	0.032
-643.711	-75.705	-0.099	-0.035
-642.697	-16.585	0.182	0.116
-641.682	-200.000	-0.043	0.379
-640.668	-85.282	-0.250	-0.078
-639.653	426.953	0.125	-0.271
-638.638	-69.080	-0.187	0.073
-637.624	-72.190	0.277	0.103
-636.609	-200.000	0.008	0.156
-635.595	-65.887	-0.026	-0.010
-634.580	-11.828	0.116	0.076
-633.565	346.305	-0.171	-0.338
-632.551	51.428	-0.134	0.128
-631.536	-123.630	0.081	0.013
-630.522	35.387	-0.042	0.037
-629.507	800.000	0.094	-0.272
-628.492	220.468	0.165	-0.265
-627.478	-7.436	-0.237	0.161
-626.463	185.200	-0.155	0.231
-625.449	-74.929	0.091	-0.033
-624.434	527.407	-0.026	-0.062
-623.419	-61.165	0.241	-0.102
-622.405	-78.128	0.234	0.081
-621.390	-123.397	0.224	-0.036
-620.376	-200.000	-0.010	-0.166
-619.361	5.742	-0.229	-0.170
-618.346	-21.114	-0.152	0.093
-617.332	185.951	0.055	0.083
-616.317	-200.000	0.012	0.237
-615.303	-9.484	-0.230	0.154
-614.288	407.960	0.184	-0.390
-613.273	800.000	-0.100	0.360
-612.259	800.000	0.043	-0.130
-611.244	-141.882	0.194	0.019
-610.230	699.298	-0.039	0.104
-609.215	253.482	-0.070	0.120
-608.201	21.848	-0.237	0.194
-607.186	800.000	-0.224	0.640
-606.171	69.942	-0.118	-0.122
-605.157	698.436	0.038	0.100
-604.142	182.534	-0.192	-0.284
-603.128	486.287	-0.018	0.041
-602.113	-94.698	0.280	0.076
-601.098	-114.629	-0.184	-0.035
-600.084	-200.000	0.005	-0.284
-599.069	-200.000	-0.001	0.016
-598.055	-0.237	0.147	0.105
-597.040	-19.925	0.124	-0.077
-596.025	-4.837	0.150	-0.104
-595.011	-200.000	0.014	-0.088
-593.996	-25.910	0.047	0.028
-592.982	162.103	0.154	0.217
-591.967	-200.000	-0.017	-0.181
-590.952	336.686	-0.106	0.207
-589.938	65.032	-0.317	-0.321
-588.923	88.515	0.018	-0.020
-587.909	206.169	-0.153	-0.239
-586.894	773.935	0.046	-0.126
-585.879	-59.455	0.215	0.093
-584.865	-42.030	-0.059	0.030
-583.850	368.935	0.124	0.251
-582.836	23.994	-0.030	0.025
-581.821	-43.506	0.171	-0.087
-580.806	-96.700	-0.369	0.097
-579.792	-55.285	0.107	0.048
-578.777	-96.644	-0.302	0.080
-577.763	91.283	-0.064	-0.072
-576.748	-116.388	-0.129	0.024
-575.733	-164.806	-0.164	0.007
-574.719	-69.377	0.218	0.084
-573.704	32.735	-0.279	0.242
-572.690	-131.416	-0.111	-0.015
-571.675	-167.546	-0.261	-0.010
-570.661	800.000	-0.120	0.461
-569.646	31.231	-0.204	-0.175
-568.631	-115.311	0.184	0.035
-567.617	329.988	-0.050	0.097
-566.602	266.369	-0.150	-0.262
-565.588	800.000	0.104	-0.451
-564.573	-110.498	0.294	-0.061
-563.558	-61.752	0.312	-0.131
-562.544	97.279	-0.147	0.169
-561.529	800.000	0.086	-0.275
-560.515	-35.053	-0.235	-0.128
-559.500	-200.000	0.009	0.126
-558.485	-117.219	-0.217	0.040
-557.471	-200.000	0.007	0.208
-556.456	800.000	-0.044	0.127
-555.442	-40.844	0.175	-0.091
-554.427	130.172	-0.027	0.034
-553.412	-70.444	-0.139	0.053
-552.398	776.951	-0.187	-0.512
-551.383	-64.343	-0.153	0.062
-550.369	-25.932	-0.143	0.084
-549.354	-200.000	-0.001	-0.259
-548.339	-57.680	-0.149	-0.065
-547.325	-37.299	-0.165	-0.088
-546.310	800.000	0.085	-0.240
-545.296	-34.714	0.170	0.093
-544.281	10.247	0.394	0.300
-543.266	8.987	-0.100	0.075
-542.252	198.108	-0.028	-0.042
-541.237	-139.389	0.189	0.020
-540.223	800.000	0.059	-0.236
-539.208	-43.313	-0.113	0.057
-538.193	800.000	0.089	-0.258
-537.179	246.755	0.108	-0.182
-536.164	350.912	-0.047	0.093
-535.150	333.449	-0.080	-0.155
-534.135	-200.000	-0.024	0.158
-533.121	800.000	0.125	-0.465
-532.106	800.000	-0.037	-0.161
-531.091	-200.000	-0.033	-0.444
-530.077	-88.586	0.127	0.038
-529.062	-32.703	-0.163	-0.091
-528.048	-50.665	-0.166	-0.078
-527.033	-200.000	0.318	0.001
-526.018	-200.000	0.026	0.203
-525.004	-123.122	0.360	0.058
-523.989	-200.000	-0.023	0.143
-522.975	24.157	0.140	0.116
-521.960	503.838	0.066	-0.153
-520.945	-104.154	-0.206	0.048
-519.931	1.431	0.310	0.223
-518.916	-200.000	-0.009	-0.116
-517.902	800.000	-0.096	0.367
-516.887	155.433	0.052	0.072
-515.872	155.229	-0.198	-0.272
-514.858	26.482	-0.086	0.072
-513.843	119.067	0.196	0.243
-512.829	-200.000	0.015	-0.144
-511.814	-159.928	-0.190	0.010
-510.799	-37.288	0.410	-0.219
-509.785	279.340	0.125	-0.223
-508.770	-1.603	-0.268	0.189
-507.756	55.234	0.178	0.173
-506.741	-81.749	-0.192	-0.063
-505.726	71.435	0.285	-0.296
-504.712	-200.000	-0.029	-0.178
-503.697	-148.897	-0.206	-0.017
-502.683	267.907	0.045	0.079
-501.668	244.000	-0.102	-0.171
-500.653	-96.708	-0.046	0.012
-499.639	199.134	0.089	-0.137
-498.624	-40.735	0.166	0.086
-497.610	-42.329	-0.269	-0.137
-496.595	26.988	-0.092	-0.077
-495.581	-115.943	-0.306	-0.057
-494.566	441.136	0.139	0.304
-493.551	64.173	0.067	-0.067
-492.537	-62.439	0.181	-0.075
-491.522	-29.504	0.051	0.029
-490.508	307.033	0.094	0.175
-489.493	61.985	0.124	-0.123
-488.478	-145.219	-0.201	0.018
-487.464	-163.442	-0.549	-0.026
-486.449	-106.641	-0.138	-0.031
-485.435	-92.041	-0.442	0.125
-484.420	290.448	-0.212	0.384
-483.405	-200.000	0.036	0.269
-482.391	-41.105	0.182	-0.094
-481.376	51.422	0.239	-0.226
-480.362	-35.561	-0.103	0.056
-479.347	-76.242	-0.267	0.094
-478.332	-89.332	-0.161	0.047
-477.318	88.706	0.219	0.243
-476.303	393.008	0.109	0.227
-475.289	294.389	0.066	-0.120
-474.274	-136.090	-0.218	0.026
-473.259	-90.291	0.168	-0.049
-472.245	412.115	0.100	0.211
-471.230	-21.017	0.199	-0.122
-470.216	-84.243	-0.080	-0.025
-469.201	800.000	-0.067	0.208
-468.186	-66.535	0.192	-0.076
-467.172	659.193	0.078	-0.201
-466.157	-200.000	0.068	-0.000
-465.143	408.052	0.053	-0.111
-464.128	-76.660	-0.198	0.069
-463.113	-200.000	0.032	0.166
-462.099	-6.752	-0.152	-0.103
-461.084	356.546	0.125	-0.248
-460.070	-155.407	-0.152	-0.010
-459.055	-84.636	-0.412	-0.130
-458.040	265.406	-0.070	0.122
-457.026	-200.000	0.006	0.241
-456.011	-59.801	0.082	-0.035
-454.997	-60.735	-0.316	-0.134
-453.982	-200.000	0.001	-0.033
-452.968	-120.419	0.219	-0.037
-451.953	-174.651	-0.208	0.006
-450.938	175.247	0.083	0.120
-449.924	300.385	0.113	0.208
-448.909	-200.000	0.015	0.068
-447.895	370.635	-0.120	0.242
-446.880	-200.000	0.101	0.513
-445.865	-21.685	-0.136	0.083
-444.851	116.489	-0.355	-0.434
-443.836	-200.000	0.040	-0.180
-442.822	-200.000	-0.013	0.219
-441.807	-200.000	-0.021	0.198
-440.792	-138.730	0.292	0.032
-439.778	103.944	0.228	-0.267
-438.763	-155.962	0.186	0.012
-437.749	58.387	0.183	0.179
-436.734	143.973	0.070	0.093
-435.719	-194.282	0.070	0.001
-434.705	-12.044	0.116	0.076
-433.690	-152.236	-0.162	0.012
-432.676	-200.000	-0.008	-0.147
-431.661	-113.327	0.312	-0.061
-430.646	15.403	-0.079	0.062
-429.632	-200.000	0.045	-0.345
-428.617	-200.000	-0.016	-0.310
-427.603	380.377	-0.061	-0.126
-426.588	-200.000	0.018	-0.335
-425.573	72.329	0.082	-0.085
-424.559	-102.854	0.256	-0.061
-423.544	-200.000	0.005	0.034
-422.530	170.477	-0.087	0.124
-421.515	1.552	-0.145	-0.104
-420.500	-200.000	0.019	-0.294
-419.486	322.684	-0.084	-0.160
-418.471	760.584	0.075	0.203
-417.457	-131.865	-0.222	0.029
-416.442	-31.919	-0.132	-0.073
-415.428	-67.362	-0.193	0.075
-414.413	8.827	0.274	0.206
-413.398	413.303	-0.168	0.355
-412.384	-110.697	0.164	-0.034
-411.369	-200.000	0.033	0.199
-410.355	-135.951	-0.202	0.024
-409.340	-13.311	0.096	-0.062
-408.325	2.491	0.084	-0.061
-407.311	622.472	0.087	-0.217
-406.296	-25.461	0.090	0.053
-405.282	-62.993	0.235	-0.097
-404.267	-200.000	0.026	-0.226
-403.252	800.000	-0.098	-0.297
-402.238	800.000	0.054	0.200
-401.223	56.085	-0.054	0.052
-400.209	-61.893	-0.217	-0.090
-399.194	-118.286	0.312	0.055
-398.179	-2.437	0.148	-0.104
-397.165	17.958	0.165	-0.131
-396.150	-124.853	0.259	-0.040
-395.136	182.762	0.139	-0.204
-394.121	-78.047	-0.402	0.138
-393.106	-66.058	0.228	0.091
-392.092	42.055	0.055	0.050
-391.077	-88.506	-0.112	-0.033
-390.063	-200.000	-0.041	0.232
-389.048	-100.364	0.272	0.067
-388.033	-46.796	0.175	0.085
-387.019	800.000	-0.062	0.240
-386.004	7.144	-0.206	0.153
-384.990	-200.000	0.047	0.302
-383.975	-200.000	-0.027	-0.293
-382.960	9.766	0.219	-0.165
-381.946	-15.846	0.060	-0.038
-380.931	324.526	-0.137	0.261
-379.917	5.778	0.085	-0.063
-378.902	89.113	0.161	0.178
-377.888	800.000	-0.109	-0.341
-376.873	-200.000	0.015	0.079
-375.858	50.993	0.048	-0.045
-374.844	-61.080	-0.140	-0.059
-373.829	-133.872	-0.159	0.020
-372.815	-134.789	0.441	0.053
-371.800	4.435	-0.160	0.117
-370.785	-180.091	-0.140	0.003
-369.771	0.991	-0.444	-0.317
-368.756	-70.376	0.097	0.036
-367.742	141.269	0.105	0.138
-366.727	-153.788	-0.233	-0.016
-365.712	-200.000	-0.067	-0.307
-364.698	-200.000	0.049	0.268
-363.683	-55.070	-0.111	-0.050
-362.669	800.000	0.073	-0.263
-361.654	-200.000	-0.056	-0.276
-360.639	122.456	0.188	-0.234
-359.625	-79.502	-0.331	0.111
-358.610	800.000	-0.130	-0.367
-357.596	-200.000	-0.022	0.160
-356.581	112.847	0.052	-0.062
-355.566	185.246	0.108	-0.159
-354.552	-200.000	-0.026	0.158
-353.537	-32.673	-0.256	0.141
-352.523	-200.000	0.038	-0.207
-351.508	189.556	-0.150	-0.224
-350.493	39.843	-0.110	-0.098
-349.479	-116.096	0.205	-0.038
-348.464	482.792	0.071	0.161
-347.450	117.909	0.229	0.281
-346.435	-32.275	-0.082	0.046
-345.420	-91.098	0.325	0.093
-344.406	664.307	0.049	0.125
-343.391	91.664	0.090	-0.100
-342.377	90.288	-0.178	-0.198
-341.362	-131.247	-0.274	0.036
-340.348	-85.067	0.375	0.117
-339.333	28.649	-0.153	-0.128
-338.318	42.198	0.108	0.097
-337.304	470.542	0.031	-0.069
-336.289	161.580	-0.193	0.268
-335.275	-74.644	-0.146	-0.052
-334.260	550.107	0.053	-0.127
-333.245	800.000	-0.067	-0.276
-332.231	767.003	0.087	0.235
-331.216	475.626	-0.019	0.042
-330.202	-36.284	0.382	-0.205
-329.187	-16.900	0.089	0.056
-328.172	605.399	0.077	0.190
-327.158	800.000	0.077	0.227
-326.143	389.845	0.092	0.190
-325.129	154.508	0.075	-0.103
-324.114	608.249	-0.045	-0.110
-323.099	-120.051	0.171	0.029
-322.085	-102.008	0.311	0.074
-321.070	-200.000	0.037	-0.307
-320.056	236.224	0.022	0.037
-319.041	225.619	-0.177	-0.285
-318.026	193.452	-0.073	-0.110
-317.012	800.000	-0.038	0.116
-315.997	-200.000	0.006	0.361
-314.983	800.000	0.094	0.289
-313.968	-43.668	0.144	-0.072
-312.953	-52.821	-0.122	-0.056
-311.939	800.000	-0.083	0.278
-310.924	-200.000	0.017	-0.096
-309.910	-154.594	-0.238	0.016
-308.895	392.519	0.084	-0.172
-307.880	7.723	-0.208	-0.155
-306.866	-109.082	-0.208	0.044
-305.851	-87.933	0.051	-0.015
-304.837	546.028	0.114	-0.269
-303.822	-96.731	0.218	0.057
-302.807	43.145	0.088	-0.080
-301.793	-64.508	0.085	0.034
-300.778	-158.197	0.163	-0.009
-299.764	7.217	-0.327	-0.242
-298.749	-200.000	0.006	0.127
-297.735	51.800	0.199	-0.188
-296.720	183.088	0.224	-0.328
-295.705	-48.468	-0.041	-0.020
-294.691	623.913	0.087	-0.218
-293.676	800.000	0.047	-0.136
-292.662	-200.000	0.035	-0.212
-291.647	-169.828	0.246	-0.009
-290.632	-152.926	-0.347	-0.024
-289.618	-105.707	-0.050	0.011
-288.603	29.263	0.152	0.128
-287.589	432.295	-0.211	-0.453
-286.574	305.161	0.176	-0.323
-285.559	-200.000	0.022	0.138
-284.545	119.528	-0.228	0.280
-283.530	-120.639	0.162	-0.027
-282.516	771.266	-0.030	-0.082
-281.501	-41.684	0.189	0.096
-280.486	-68.470	0.144	0.055
-279.472	132.374	0.158	0.202
-278.457	-43.643	0.173	0.087
-277.443	-200.000	-0.033	0.229
-276.428	125.873	0.102	-0.127
-275.413	81.861	-0.029	-0.031
-274.399	507.140	-0.057	-0.132
-273.384	-200.000	0.014	-0.144
-272.370	82.847	0.162	0.174
-271.355	-123.012	-0.251	0.040
-270.340	-140.396	-0.194	-0.020
-269.326	-124.629	0.081	-0.012
-268.311	-111.166	-0.300	0.061
-267.297	422.789	-0.156	0.332
-266.282	291.156	0.123	0.222
-265.267	23.979	0.254	-0.208
-264.253	37.499	-0.150	-0.132
-263.238	-151.755	-0.242	0.018
-262.224	582.057	0.013	-0.032
-261.209	800.000	0.042	0.169
-260.195	43.062	0.044	-0.039
-259.180	-170.211	-0.230	-0.008
-258.165	-92.191	0.119	-0.033
-257.151	55.355	-0.170	0.162
-256.136	352.856	0.031	-0.062
-255.122	324.966	-0.041	-0.078
-254.107	800.000	0.081	-0.248
-253.092	193.269	-0.128	0.192
-252.078	111.183	-0.375	0.447
-251.063	215.075	0.149	-0.234
-250.049	-64.085	0.063	-0.026
-249.034	-22.496	0.077	0.046
-248.019	36.043	-0.142	-0.123
-247.005	52.895	-0.220	0.208
-245.990	31.076	0.242	-0.205
-244.976	800.000	-0.034	-0.105
-243.961	45.243	0.212	0.193
-242.946	-200.000	0.020	0.175
-241.932	140.032	-0.143	0.187
-240.917	-188.778	0.133	0.002
-239.903	800.000	0.068	-0.237
-238.888	306.836	-0.129	-0.238
-237.873	205.712	0.050	0.077
-236.859	81.339	0.080	-0.086
-235.844	134.193	-0.231	0.297
-234.830	-105.817	0.309	0.069
-233.815	-200.000	0.011	0.051
-232.800	86.510	-0.119	0.130
-231.786	-101.820	0.318	0.076
-230.771	-129.942	-0.327	0.044
-229.757	-112.325	0.035	-0.007
-228.742	-200.000	0.011	-0.082
-227.727	422.492	0.093	-0.198
-226.713	-108.669	0.167	-0.035
-225.698	37.041	0.184	0.161
-224.684	-172.971	-0.239	-0.007
-223.669	716.192	0.052	-0.138
-222.655	239.345	-0.112	-0.184
-221.640	-200.000	0.037	0.292
-220.625	800.000	0.059	0.232
-219.611	26.171	-0.109	-0.090
-218.596	294.250	0.094	-0.170
-217.582	-92.995	0.262	-0.072
-216.567	-200.000	-0.004	-0.068
-215.552	569.440	-0.055	-0.133
-214.538	44.397	-0.132	-0.119
-213.523	-200.000	0.012	0.367
-212.509	26.506	-0.217	-0.179
-211.494	-55.316	-0.288	0.128
-210.479	800.000	0.061	0.177
-209.465	-5.419	-0.280	-0.190
-208.450	66.726	0.266	0.267
-207.436	-200.000	0.007	0.189
-206.421	-200.000	-0.002	-0.085
-205.406	800.000	-0.040	0.137
-204.392	257.348	-0.190	-0.322
-203.377	72.453	0.203	0.209
-202.363	-7.364	-0.266	0.178
-201.348	-98.130	-0.172	0.044
-200.333	-123.938	0.199	0.031
-199.319	-137.630	0.180	-0.020
-198.304	-88.856	-0.205	0.060
-197.290	-156.566	-0.072	-0.004
-196.275	609.222	0.057	0.141
-195.260	-16.953	0.074	0.046
-194.246	-200.000	0.048	-0.488
-193.231	637.755	-0.152	0.381
-192.217	-150.687	0.124	0.009
-191.202	41.760	0.170	-0.152
-190.187	-200.000	0.032	0.341
-189.173	-200.000	-0.043	0.268
-188.158	-200.000	-0.002	-0.120
-187.144	800.000	0.015	0.064
-186.129	-139.035	-0.150	0.016
-185.114	187.730	-0.215	0.317
-184.100	642.310	-0.098	0.245
-183.085	-102.326	-0.256	0.061
-182.071	-103.189	-0.037	0.009
-181.056	95.485	0.070	0.078
-180.042	-152.423	0.186	0.013
-179.027	-16.747	0.367	-0.229
-178.012	-200.000	0.014	0.225
-176.998	28.064	0.148	0.123
-175.983	-143.573	-0.323	-0.030
-174.969	-0.261	0.104	-0.073
-173.954	-200.000	0.014	-0.310
-172.939	800.000	0.058	0.249
-171.925	-200.000	-0.012	0.260
-170.910	-141.342	0.367	-0.037
-169.896	167.358	0.028	0.039
-168.881	92.208	-0.177	-0.197
-167.866	800.000	-0.071	-0.220
-166.852	-63.059	0.264	-0.108
-165.837	-132.001	0.252	0.032
-164.823	-27.936	-0.230	-0.131
-163.808	800.000	-0.040	0.141
-162.793	-133.222	0.174	0.022
-161.779	46.710	-0.318	-0.291
-160.764	-24.839	0.238	-0.140
-159.750	-90.396	0.157	-0.045
-158.735	-200.000	0.004	0.076
-157.720	-200.000	-0.199	-0.001
-156.706	-179.169	0.370	-0.008
-155.691	-64.764	-0.096	0.038
-154.677	-57.330	0.076	0.033
-153.662	322.650	0.106	0.200
-152.647	22.846	0.125	0.101
-151.633	182.679	-0.162	0.236
-150.618	-19.745	0.143	-0.087
-149.604	800.000	0.027	0.096
-148.589	12.587	0.123	-0.093
-147.574	276.694	0.188	-0.330
-146.560	800.000	0.079	0.339
-145.545	211.316	-0.173	-0.268
-144.531	800.000	-0.067	-0.267
-143.516	-200.000	0.046	-0.246
-142.502	445.717	-0.036	-0.078
-141.487	-5.820	-0.045	0.030
-140.472	800.000	0.003	-0.013
-139.458	242.550	0.021	-0.035
-138.443	800.000	-0.034	0.136
-137.429	-171.048	0.137	0.005
-136.414	688.221	-0.077	0.199
-135.399	142.981	0.153	0.200
-134.385	8.041	-0.115	0.085
-133.370	-200.000	-0.027	-0.164
-132.356	525.017	-0.103	0.240
-131.341	-83.133	-0.162	-0.051
-130.326	17.358	-0.141	0.111
-129.312	-72.843	-0.249	-0.090
-128.297	-137.535	-0.116	-0.013
-127.283	800.000	0.017	0.064
-126.268	-27.046	0.201	0.116
-125.253	202.184	0.036	-0.055
-124.239	100.296	-0.281	0.321
-123.224	800.000	-0.055	-0.174
-122.210	194.310	0.053	-0.079
-121.195	372.278	-0.074	-0.147
-120.180	-4.473	0.171	0.117
-119.166	800.000	-0.099	0.329
-118.151	-97.635	-0.140	0.036
-117.137	718.717	-0.148	0.388
-116.122	800.000	-0.090	-0.257
-115.107	-200.000	0.072	-0.402
-114.093	-200.000	0.023	0.114
-113.078	-200.000	-0.011	0.147
-112.064	-46.971	-0.295	-0.142
-111.049	-61.245	0.163	0.068
-110.034	89.382	-0.089	0.098
-109.020	274.222	-0.137	-0.239
-108.005	800.000	0.052	0.156
-106.991	-13.462	-0.307	-0.196
-105.976	98.020	0.420	0.475
-104.962	-173.956	0.231	-0.007
-103.947	356.121	-0.113	-0.222
-102.932	-109.413	-0.137	-0.029
-101.918	71.989	-0.134	0.137
-100.903	171.635	-0.048	-0.067
-99.889	-140.117	-0.135	0.014
-98.874	-64.634	-0.065	0.026
-97.859	42.033	0.121	0.108
-96.845	179.431	0.079	-0.113
-95.830	-27.415	0.149	-0.085
-94.816	10.459	-0.073	-0.055
-93.801	-200.000	0.004	0.283
-92.786	-163.748	-0.136	-0.006
-91.772	-104.677	0.164	-0.037
-90.757	-100.050	0.179	-0.044
-89.743	-36.234	-0.372	0.197
-88.728	-114.229	-0.382	0.073
-87.713	333.927	0.185	0.353
-86.699	-106.714	-0.098	0.021
-85.684	-53.748	0.254	-0.114
-84.670	353.165	-0.072	-0.141
-83.655	-0.207	-0.173	-0.121
-82.640	553.492	0.149	0.352
-81.626	305.194	0.094	-0.172
-80.611	-200.000	-0.051	-0.259
-79.597	-200.000	-0.010	-0.047
-78.582	-170.551	0.225	0.008
-77.567	84.861	0.084	-0.090
-76.553	-171.780	-0.065	-0.002
-75.538	800.000	-0.150	-0.417
-74.524	-200.000	0.081	-0.380
-73.509	-200.000	-0.002	-0.025
-72.494	800.000	0.133	0.400
-71.480	-182.823	0.421	0.007
-70.465	-200.000	0.007	0.063
-69.451	165.208	-0.132	-0.183
-68.436	15.529	0.322	-0.249
-67.422	-50.788	-0.187	-0.087
-66.407	-127.260	-0.303	-0.044
-65.392	88.673	0.152	-0.166
-64.378	410.780	-0.049	0.102
-63.363	-200.000	-0.011	0.132
-62.349	31.753	-0.185	0.156
-61.334	174.422	-0.741	-1.053
-60.319	-0.634	0.440	0.307
-59.305	800.000	-0.347	-1.012
-58.290	50.073	0.889	0.824
-57.276	735.992	0.552	1.452
-56.261	-200.000	105.722	579.176
-55.246	464.632	1449.845	3184.720
-54.232	151.711	2625.918	3514.593
-53.217	107.754	2146.133	2510.140
-52.203	41.852	1598.758	1423.774
-51.188	33.976	1337.232	1143.674
-50.173	30.731	1296.019	1089.426
-49.159	54.094	1348.631	1273.770
-48.144	54.995	1364.726	1294.302
-47.130	33.919	1320.380	1128.742
-46.115	30.566	1302.458	1093.692
-45.100	30.281	1297.611	1087.910
-44.086	30.219	1295.951	1086.113
-43.071	30.218	1293.138	1083.701
-42.057	30.214	1291.126	1081.949
-41.042	30.212	1289.247	1080.321
-40.027	30.170	1288.021	1079.007
-39.013	30.363	1285.955	1078.354
-37.998	30.345	1284.048	1076.606
-36.984	30.401	1282.467	1075.567
-35.969	30.331	1280.693	1073.629
-34.954	30.315	1279.407	1072.417
-33.940	30.395	1277.486	1071.223
-32.925	30.396	1276.867	1070.670
-31.911	30.417	1275.089	1069.260
-30.896	30.412	1273.701	1068.021
-29.881	30.529	1272.449	1067.600
-28.867	30.481	1270.723	1065.835
-27.852	30.481	1269.407	1064.693
-26.838	30.515	1267.865	1063.551
-25.823	30.506	1266.338	1062.177
-24.809	30.385	1265.424	1060.676
-23.794	30.526	1263.651	1059.951
-22.779	30.344	1263.364	1058.630
-21.765	30.498	1261.747	1058.112
-20.750	30.361	1260.589	1056.317
-19.736	30.412	1259.045	1055.271
-18.721	30.390	1257.795	1054.057
-17.706	30.347	1256.746	1052.891
-16.692	30.466	1255.433	1052.427
-15.677	30.322	1254.497	1050.784
-14.663	30.299	1253.410	1049.699
-13.648	30.254	1252.648	1048.765
-12.633	30.328	1251.749	1048.391
-11.619	30.277	1250.840	1047.302
-10.604	30.419	1249.382	1046.838
-9.590	30.305	1248.540	1045.448
-8.575	30.268	1247.662	1044.464
-7.560	30.288	1246.723	1043.750
-6.546	30.317	1246.313	1043.527
-5.531	30.294	1245.235	1042.455
-4.517	30.403	1244.193	1042.153
-3.502	30.418	1243.108	1041.284
-2.487	30.277	1242.707	1040.119
-1.473	30.313	1238.124	1036.440
-0.458	28.733	1223.048	1015.055
0.556	23.108	1206.537	976.139
1.571	19.378	1211.693	959.509
2.586	18.459	1226.278	965.794
3.600	18.096	1215.187	954.948
4.615	13.130	1143.390	872.283
5.629	4.485	1067.810	771.755
6.644	0.515	1047.678	737.759
7.659	-0.033	1046.067	733.884
8.673	0.009	1044.694	733.056
9.688	-0.130	1043.520	731.495
10.702	0.120	1041.794	731.435
11.717	5.271	1048.134	760.957
12.731	13.633	1059.419	810.108
13.746	17.395	1063.239	831.377
14.761	16.996	1061.870	828.287
15.775	15.983	1059.927	821.757
16.790	14.959	1057.820	815.063
17.804	14.171	1056.969	810.497
18.819	13.921	1054.877	807.606
19.834	13.598	1054.510	805.684
20.848	13.429	1053.471	803.998
21.863	13.298	1052.492	802.547
22.877	13.137	1051.465	800.909
23.892	12.969	1051.468	800.026
24.907	13.059	1050.352	799.541
25.921	13.203	1049.549	799.558
26.936	13.241	1048.536	798.899
27.950	13.228	1047.597	798.049
28.965	13.188	1046.933	797.281
29.980	13.244	1045.632	796.487
30.994	13.297	1044.214	795.594
32.009	13.297	1043.593	795.051
33.023	13.358	1042.517	794.452
34.038	13.258	1041.356	793.019
35.053	13.208	1040.484	792.044
36.067	13.225	1039.533	791.331
37.082	13.214	1038.997	790.799
38.096	13.202	1038.395	790.214
39.111	13.197	1037.452	789.402
40.126	13.087	1036.561	788.130
41.140	12.976	1035.479	786.711
42.155	12.948	1034.270	785.587
43.169	13.013	1033.019	784.878
44.184	12.956	1031.792	783.605
45.199	13.034	1031.292	783.524
46.213	13.125	1029.904	782.833
47.228	13.129	1028.775	781.924
48.242	13.090	1028.026	781.100
49.257	13.251	1026.883	780.926
50.271	13.109	1026.261	779.711
51.286	13.285	1025.279	779.728
52.301	13.171	1024.355	778.422
53.315	13.155	1023.341	777.503
54.330	13.187	1022.189	776.712
55.344	13.144	1021.750	776.105
56.359	13.096	1021.016	775.255
57.374	13.153	1019.630	774.400
58.388	13.008	1019.101	773.252
59.403	12.971	1018.504	772.556
60.417	13.083	1017.391	772.167
61.432	13.043	1016.256	771.054
62.447	12.946	1015.688	770.098
63.461	12.894	1015.420	769.588
64.476	12.976	1014.465	769.175
65.490	12.925	1013.651	768.254
66.505	13.019	1012.771	767.955
67.520	12.948	1012.144	767.080
68.534	12.928	1011.686	766.576
69.549	13.035	1010.607	766.185
70.563	13.107	1010.232	766.168
71.578	12.953	1009.180	764.587
72.593	12.788	1008.603	763.319
73.607	12.816	1008.086	762.989
74.622	12.707	1007.335	761.850
75.636	12.836	1006.563	761.793
76.651	12.919	1005.455	761.272
77.666	12.910	1004.865	760.717
78.680	12.941	1004.294	760.362
79.695	12.929	1003.437	759.591
80.709	12.988	1003.000	759.461
81.724	13.021	1002.177	758.925
82.739	13.126	1001.417	758.762
83.753	13.095	1000.698	758.007
84.768	13.289	999.387	757.839
85.782	13.259	998.834	757.216
86.797	13.222	997.890	756.263
87.812	13.139	997.316	755.380
88.826	13.216	995.761	754.487
89.841	13.201	994.871	753.680
90.855	13.197	993.994	752.929
91.870	13.165	993.605	752.424
92.884	13.237	992.568	751.898
93.899	13.297	991.531	751.317
94.914	13.312	990.739	750.719
95.928	13.314	990.053	750.141
96.943	13.218	989.463	749.194
97.957	13.198	988.483	748.294
98.972	13.216	987.410	747.496
99.987	13.084	986.832	746.395
101.001	13.212	985.540	745.932
102.016	13.347	984.731	745.864
103.030	13.234	983.988	744.726
104.045	13.266	983.530	744.455
105.060	13.215	982.515	743.394
106.074	13.126	981.434	742.112
107.089	13.084	981.047	741.562
108.103	13.011	980.074	740.433
109.118	13.077	978.829	739.724
110.133	13.131	977.670	739.025
111.147	13.149	977.110	738.616
112.162	13.151	976.158	737.839
113.176	13.216	975.462	737.538
114.191	13.207	975.224	737.251
115.206	13.310	974.342	736.980
116.220	13.247	973.266	735.819
117.235	13.193	972.244	734.743
118.249	13.108	971.670	733.864
119.264	13.137	971.170	733.551
120.279	13.187	970.042	732.857
121.293	13.126	969.208	731.892
122.308	13.204	968.296	731.482
123.322	13.051	967.429	730.090
124.337	13.059	966.167	729.105
125.352	12.958	965.632	728.191
126.366	13.145	964.301	727.946
127.381	13.154	963.279	727.153
128.395	13.161	962.401	726.456
129.410	13.126	961.466	725.529
130.424	13.206	960.674	725.222
131.439	13.153	959.986	724.406
132.454	13.268	958.892	724.020
133.468	13.212	958.640	723.521
134.483	13.224	957.260	722.465
135.497	13.119	956.432	721.321
136.512	13.210	955.614	721.034
137.527	13.189	954.979	720.402
138.541	13.287	954.331	720.273
139.556	13.118	953.867	719.124
140.570	13.357	952.840	719.326
141.585	13.267	952.002	718.242
142.600	13.341	951.338	717.996
143.614	13.404	950.047	717.229
144.629	13.412	949.887	717.080
145.643	13.371	948.616	715.881
146.658	13.284	947.513	714.609
147.673	13.281	946.419	713.707
148.687	13.349	945.733	713.420
149.702	13.141	945.114	711.994
150.716	13.314	944.210	711.995
151.731	13.210	943.848	711.213
152.746	13.352	942.661	710.866
153.760	13.283	942.617	710.475
154.775	13.442	941.620	710.340
155.789	13.408	941.017	709.678
156.804	13.395	940.288	709.010
157.819	13.503	939.654	708.929
158.833	13.559	938.975	708.595
159.848	13.471	938.181	707.559
160.862	13.569	936.803	706.874
161.877	13.354	936.432	705.615
162.892	13.339	935.449	704.747
163.906	13.412	934.292	704.124
164.921	13.348	933.669	703.320
165.935	13.418	932.854	702.943
166.950	13.551	931.896	702.723
167.964	13.526	930.670	701.630
168.979	13.524	930.151	701.167
169.994	13.536	929.089	700.357
171.008	13.558	928.685	700.082
172.023	13.466	928.425	699.436
173.037	13.521	927.592	698.979
174.052	13.588	926.456	698.344
175.067	13.516	925.790	697.475
176.081	13.370	925.568	696.632
177.096	13.562	925.109	697.032
178.110	13.585	923.977	696.216
179.125	13.518	923.963	695.860
180.140	13.610	923.005	695.462
181.154	13.594	922.875	695.236
182.169	13.663	922.085	694.869
183.183	13.702	921.693	694.674
184.198	13.723	921.436	694.507
185.213	13.812	919.797	693.586
186.227	13.879	919.411	693.512
187.242	13.810	918.871	692.757
188.256	13.776	918.399	692.197
189.271	13.738	917.808	691.533
190.286	13.672	916.960	690.557
191.300	13.479	916.240	689.148
192.315	13.554	915.732	689.019
193.329	13.566	915.157	688.574
194.344	13.577	914.664	688.187
195.359	13.763	913.403	687.950
196.373	13.837	912.948	687.853
197.388	13.730	913.065	687.435
198.402	13.908	912.800	687.916
199.417	13.887	911.774	686.992
200.432	14.032	911.121	687.039
201.446	14.123	910.347	686.770
202.461	14.173	909.612	686.360
203.475	13.969	909.571	685.429
204.490	14.058	908.904	685.231
205.504	13.918	907.839	683.794
206.519	14.061	906.431	683.259
207.534	13.916	906.369	682.554
208.548	13.916	905.868	682.119
209.563	13.879	905.421	681.568
210.577	14.012	904.534	681.386
211.592	14.105	903.713	681.089
212.607	14.089	903.083	680.488
213.621	14.012	902.310	679.529
214.636	14.024	901.708	679.068
215.650	14.067	900.997	678.647
216.665	14.178	900.012	678.296
217.680	14.274	899.437	678.196
218.694	14.088	899.343	677.306
219.709	14.220	898.377	677.057
220.723	14.231	897.746	676.565
221.738	14.355	896.834	676.321
222.753	14.434	896.159	676.072
223.767	14.346	895.749	675.346
224.782	14.233	895.411	674.573
225.796	14.315	894.745	674.347
226.811	14.361	894.081	673.972
227.826	14.388	893.261	673.401
228.840	14.414	892.128	672.592
229.855	14.261	891.623	671.535
230.869	14.421	890.525	671.296
231.884	14.333	890.434	670.813
232.899	14.358	889.769	670.352
233.913	14.274	888.944	669.336
234.928	14.239	888.403	668.728
235.942	14.206	887.902	668.157
236.957	14.391	887.348	668.426
237.972	14.215	887.194	667.542
238.986	14.386	885.933	667.219
240.001	14.437	885.408	666.969
241.015	14.287	885.007	666.008
242.030	14.398	884.404	665.939
243.045	14.560	883.601	665.922
244.059	14.518	882.867	665.145
245.074	14.433	882.616	664.558
246.088	14.404	881.897	663.839
247.103	14.423	881.207	663.337
248.117	14.500	880.578	663.113
249.132	14.723	879.929	663.449
250.147	14.813	879.018	663.063
251.161	14.721	879.001	662.626
252.176	14.761	878.135	662.074
253.190	14.768	877.463	661.534
254.205	14.797	877.088	661.311
255.220	14.928	876.155	661.065
256.234	14.833	875.686	660.277
257.249	14.813	874.846	659.508
258.263	14.971	873.769	659.258
259.278	14.914	873.414	658.708
260.293	14.971	872.707	658.343
261.307	14.949	872.393	657.960
262.322	14.949	872.139	657.708
263.336	15.017	871.087	657.123
264.351	15.046	870.159	656.480
265.366	14.949	869.785	655.762
266.380	15.086	869.246	655.831
267.395	15.063	868.596	655.194
268.409	14.953	867.462	653.849
269.424	15.054	866.813	653.700
270.439	15.048	866.336	653.256
271.453	14.999	865.839	652.634
272.468	15.071	865.194	652.369
273.482	15.040	864.563	651.714
274.497	14.973	864.021	650.988
275.512	15.184	863.411	651.291
276.526	15.051	863.175	650.539
277.541	15.053	862.610	650.063
278.555	15.136	861.837	649.745
279.570	15.156	861.341	649.394
280.585	15.191	860.665	648.961
281.599	15.153	860.043	648.289
282.614	15.131	859.362	647.632
283.628	15.168	858.585	647.132
284.643	15.195	857.650	646.475
285.657	15.297	857.071	646.374
286.672	15.206	856.715	645.697
287.687	15.238	856.332	645.474
288.701	15.249	855.569	644.884
289.716	15.424	854.873	644.974
290.730	15.517	854.043	644.649
291.745	15.392	854.015	644.092
292.760	15.327	853.402	643.324
293.774	15.497	852.590	643.304
294.789	15.428	851.803	642.388
295.803	15.361	851.133	641.572
296.818	15.391	850.502	641.153
297.833	15.462	849.660	640.735
298.847	15.611	849.298	640.972
299.862	15.557	848.454	640.071
300.876	15.548	848.121	639.729
301.891	15.533	847.648	639.261
302.906	15.767	846.850	639.492
303.920	15.603	846.473	638.526
304.935	15.714	845.876	638.442
305.949	15.678	845.507	637.970
306.964	15.707	844.478	637.247
307.979	15.680	844.248	636.913
308.993	15.840	843.482	636.886
310.008	15.676	843.439	636.176
311.022	15.742	842.811	635.897
312.037	15.578	841.877	634.517
313.052	15.666	841.718	634.672
314.066	15.707	841.169	634.356
315.081	15.556	840.539	633.257
316.095	15.652	839.556	632.820
317.110	15.738	839.241	632.850
318.125	15.697	838.845	632.343
319.139	15.636	838.294	631.643
320.154	15.664	837.868	631.372
321.168	15.784	837.383	631.401
322.183	15.889	836.548	631.108
323.197	15.863	836.035	630.567
324.212	15.717	835.794	629.783
325.227	15.751	835.297	629.479
326.241	15.771	834.535	628.923
327.256	15.681	834.234	628.307
328.270	15.905	833.635	628.634
329.285	15.692	833.216	627.470
330.300	15.994	832.325	627.870
331.314	15.853	831.761	626.863
332.329	15.854	831.450	626.575
333.343	15.755	831.240	625.994
334.358	15.909	830.523	625.971
335.373	15.981	830.142	625.897
336.387	15.913	829.822	625.345
337.402	16.084	829.489	625.675
338.416	16.254	829.360	626.154
339.431	16.131	828.723	625.161
340.446	16.061	828.440	624.632
341.460	16.112	828.025	624.455
342.475	16.099	827.759	624.151
343.489	16.169	827.246	623.968
344.504	16.224	826.671	623.681
345.519	16.173	826.326	623.178
346.533	16.242	825.390	622.672
347.548	16.192	825.490	622.505
348.562	16.219	824.582	621.866
349.577	16.132	823.912	620.983
350.592	16.229	823.192	620.746
351.606	16.116	822.678	619.887
352.621	16.152	822.067	619.505
353.635	16.219	821.511	619.277
354.650	16.195	820.964	618.722
355.665	16.267	820.245	618.387
356.679	16.360	819.306	617.965
357.694	16.526	818.535	617.936
358.708	16.315	818.538	617.114
359.723	16.293	817.798	616.418
360.738	16.354	817.214	616.149
361.752	16.497	816.309	615.933
362.767	16.501	815.596	615.355
363.781	16.295	816.056	614.896
364.796	16.536	815.341	615.180
365.810	16.492	814.986	614.698
366.825	16.461	814.476	614.146
367.840	16.517	814.258	614.130
368.854	16.597	813.791	614.015
369.869	16.664	812.798	613.454
370.883	16.582	812.889	613.171
371.898	16.665	812.472	613.101
372.913	16.629	812.077	612.618
373.927	16.605	811.401	611.967
374.942	16.598	810.946	611.546
375.956	16.737	810.722	611.824
376.971	16.663	810.338	611.215
377.986	16.708	809.843	610.947
379.000	16.874	809.224	611.027
380.015	16.865	808.706	610.550
381.029	16.854	808.325	610.169
382.044	16.806	807.885	609.608
383.059	16.903	806.690	609.001
384.073	16.959	806.570	609.057
385.088	16.735	806.035	607.798
386.102	16.837	805.328	607.574
387.117	16.838	804.937	607.232
388.132	16.910	804.078	606.786
389.146	16.895	803.759	606.437
390.161	16.962	803.068	606.104
391.175	16.834	803.084	605.604
392.190	16.857	802.395	605.114
393.205	16.854	802.070	604.803
394.219	17.026	801.546	604.968
395.234	16.752	801.358	603.794
396.248	16.941	800.790	603.987
397.263	16.932	800.181	603.441
398.278	16.857	799.979	602.970
399.292	16.864	799.301	602.429
400.307	16.896	798.906	602.193
401.321	16.689	798.539	601.128
402.336	16.998	797.941	601.720
403.350	17.035	797.521	601.481
404.365	16.992	797.380	601.171
405.380	16.961	796.983	600.708
406.394	17.160	796.154	600.735
407.409	17.171	795.571	600.281
408.423	17.256	795.486	600.462
409.438	17.302	794.986	600.196
410.453	17.302	794.574	599.829
411.467	17.377	793.917	599.545
412.482	17.287	793.803	599.088
413.496	17.260	793.497	598.711
414.511	17.436	792.768	598.727
415.526	17.283	792.493	597.929
416.540	17.357	792.212	597.924
417.555	17.401	791.881	597.775
418.569	17.403	791.207	597.221
419.584	17.450	790.724	596.967
420.599	17.392	790.542	596.576
421.613	108.997	1290.749	1466.715
422.628	93.542	1363.580	1466.820
