DTS Sentinel unit serial number:	SN413079Multiplexer serial number:	ORYXHardware model number:	OX4-SRSoftware version number:	ORYX F/W v4.00 Oryx Data Collector v3.7.2.0data status	okinstallation	princeton_trtdifferential loss correction	single-endedforward channel	channel 1reverse channel	N/Adate	2019/09/15time	11:06:35forward acquisition time	60.00reverse acquisition time	0.00gamma	496.2192k internal	0.2308k external	0.2308temperature offset calibration	0.9986default loss term (dB/km)	0.3790temperature slope calibration	1.0000multiplexer offset coefficient	1.0000multiplexer slope coefficient	1.0000fibre end	0.00T internal ref (°C)	34.28T ext. ref 1 (°C)	5.05T ext. ref 2 (°C)	29.61length (m)	temperature (°C)	Stokes	anti-Stokes-747.200	67.392	0.218	-0.226
-746.185	800.000	0.103	0.324
-745.171	-200.000	0.008	0.125
-744.156	-200.000	0.001	-0.074
-743.142	-27.526	0.146	-0.086
-742.127	-60.437	0.332	0.143
-741.112	170.383	0.134	0.195
-740.098	-200.000	0.019	-0.101
-739.083	197.398	0.071	-0.110
-738.069	-0.647	-0.305	0.220
-737.054	11.952	0.038	0.029
-736.039	-22.375	-0.127	-0.078
-735.025	90.293	0.179	-0.204
-734.010	-97.945	-0.262	-0.069
-732.996	8.403	0.037	-0.028
-731.981	800.000	0.026	-0.083
-730.966	278.960	0.019	0.034
-729.952	16.453	0.051	0.041
-728.937	0.569	0.311	-0.226
-727.923	-5.902	-0.111	0.077
-726.908	65.167	-0.187	-0.192
-725.894	347.488	-0.077	-0.154
-724.879	800.000	0.050	-0.143
-723.864	-73.927	-0.157	-0.058
-722.850	-117.528	-0.184	-0.034
-721.835	-87.287	-0.089	-0.027
-720.821	-53.325	-0.104	0.049
-719.806	168.276	-0.122	0.176
-718.791	320.416	0.042	-0.080
-717.777	39.672	0.022	0.020
-716.762	-0.038	0.142	0.103
-715.748	233.147	-0.048	-0.080
-714.733	-200.000	0.017	-0.134
-713.718	800.000	0.093	-0.348
-712.704	-74.440	0.281	-0.103
-711.689	-41.113	0.130	0.068
-710.675	-88.696	0.116	0.035
-709.660	-187.797	-0.247	0.003
-708.645	21.020	-0.096	-0.079
-707.631	-200.000	-0.023	-0.194
-706.616	-67.739	-0.027	0.011
-705.602	-200.000	0.004	0.122
-704.587	800.000	-0.018	0.065
-703.572	162.999	-0.108	-0.154
-702.558	-102.522	-0.236	0.057
-701.543	367.453	-0.056	0.115
-700.529	-62.074	0.320	-0.136
-699.514	-44.817	-0.061	-0.031
-698.499	-82.346	0.380	0.125
-697.485	-61.941	0.342	-0.145
-696.470	-200.000	0.017	0.086
-695.456	-23.280	-0.132	-0.081
-694.441	-50.027	0.129	0.062
-693.426	-200.000	-0.014	0.203
-692.412	-200.000	0.038	-0.419
-691.397	223.805	0.064	0.104
-690.383	14.982	-0.378	-0.300
-689.368	172.900	0.111	0.162
-688.354	-38.951	0.130	-0.069
-687.339	800.000	0.027	-0.098
-686.324	-64.181	0.103	0.043
-685.310	65.030	-0.246	0.252
-684.295	85.084	0.192	-0.213
-683.281	74.567	0.107	-0.114
-682.266	-22.743	0.096	0.059
-681.251	-57.187	-0.222	-0.099
-680.237	-63.889	0.056	0.023
-679.222	113.325	-0.126	-0.156
-678.208	82.332	0.114	-0.126
-677.193	240.031	-0.119	-0.201
-676.178	-17.809	-0.182	-0.116
-675.164	800.000	0.041	0.140
-674.149	-151.345	-0.176	-0.013
-673.135	800.000	-0.048	-0.203
-672.120	-139.112	-0.149	-0.016
-671.105	-163.543	-0.226	0.011
-670.091	-32.452	-0.131	0.074
-669.076	-129.556	-0.226	0.032
-668.062	654.909	0.108	-0.282
-667.047	800.000	-0.068	-0.292
-666.032	-140.631	-0.149	0.016
-665.018	-167.377	0.248	0.010
-664.003	684.978	-0.047	-0.124
-662.989	247.343	0.156	0.267
-661.974	55.445	0.177	-0.173
-660.959	-200.000	-0.057	-0.366
-659.945	-157.887	0.237	-0.014
-658.930	-67.966	-0.160	-0.063
-657.916	176.484	0.282	0.415
-656.901	180.863	0.057	0.085
-655.886	77.494	-0.096	-0.104
-654.872	13.890	0.169	-0.133
-653.857	37.347	0.313	-0.281
-652.843	-107.182	0.170	0.038
-651.828	760.682	0.015	0.041
-650.814	-121.967	0.039	-0.007
-649.799	-140.579	-0.090	-0.009
-648.784	-200.000	0.025	0.175
-647.770	625.615	0.048	-0.122
-646.755	477.115	0.055	0.125
-645.741	144.604	0.248	-0.336
-644.726	-200.000	-0.100	-0.528
-643.711	25.376	-0.326	-0.275
-642.697	-200.000	0.025	-0.160
-641.682	-25.119	0.089	-0.053
-640.668	241.924	0.062	-0.105
-639.653	172.977	-0.157	-0.228
-638.638	800.000	-0.019	-0.082
-637.624	89.792	-0.061	0.069
-636.609	-200.000	-0.002	-0.240
-635.595	-200.000	0.023	-0.195
-634.580	800.000	-0.056	0.186
-633.565	44.989	-0.254	-0.237
-632.551	800.000	-0.011	-0.035
-631.536	80.167	0.069	0.076
-630.522	128.021	-0.083	-0.107
-629.507	-50.367	-0.259	-0.124
-628.492	-200.000	-0.013	0.111
-627.478	-200.000	0.021	-0.246
-626.463	417.982	0.146	0.316
-625.449	226.125	-0.163	-0.267
-624.434	-108.329	0.158	0.034
-623.419	800.000	-0.054	0.212
-622.405	-53.725	-0.128	-0.059
-621.390	-126.398	0.032	-0.005
-620.376	-124.236	-0.141	-0.022
-619.361	-138.242	0.377	0.042
-618.346	-21.658	0.117	-0.072
-617.332	250.213	0.196	-0.337
-616.317	61.951	-0.251	0.253
-615.303	-6.973	0.145	0.099
-614.288	-37.510	0.018	-0.010
-613.273	-200.000	0.010	-0.353
-612.259	-24.594	-0.125	0.075
-611.244	800.000	-0.092	0.279
-610.230	27.001	-0.104	-0.089
-609.215	800.000	-0.028	0.108
-608.201	-132.919	0.328	-0.042
-607.186	-200.000	-0.026	-0.332
-606.171	15.519	-0.139	0.111
-605.157	-119.831	-0.033	0.006
-604.142	800.000	0.035	0.104
-603.128	-137.829	-0.573	0.065
-602.113	-168.466	0.291	-0.011
-601.098	79.142	-0.144	0.156
-600.084	203.053	0.121	-0.189
-599.069	-82.487	0.223	-0.073
-598.055	176.085	0.062	0.091
-597.040	205.334	0.186	0.293
-596.025	800.000	0.064	0.224
-595.011	81.142	-0.179	0.196
-593.996	1.330	0.059	0.043
-592.982	-159.089	-0.035	0.002
-591.967	136.280	0.179	0.236
-590.952	147.799	-0.038	-0.051
-589.938	800.000	0.046	0.136
-588.923	-200.000	0.044	0.374
-587.909	-143.754	-0.340	0.033
-586.894	-152.620	0.119	-0.009
-585.879	-13.991	-0.145	0.095
-584.865	-104.477	-0.537	-0.125
-583.850	-35.473	-0.183	-0.100
-582.836	147.218	0.150	-0.204
-581.821	155.415	-0.132	0.184
-580.806	800.000	0.042	0.162
-579.792	68.931	-0.116	-0.120
-578.777	19.362	0.151	0.122
-577.763	-200.000	-0.010	0.266
-576.748	100.443	-0.126	0.148
-575.733	82.360	0.023	0.025
-574.719	-112.279	-0.165	-0.033
-573.704	-200.000	-0.058	-0.301
-572.690	800.000	0.063	0.202
-571.675	-108.774	0.197	-0.043
-570.661	62.105	0.140	0.141
-569.646	-27.113	-0.233	0.137
-568.631	208.015	-0.111	0.175
-567.617	-44.638	0.160	0.081
-566.602	33.784	0.233	0.205
-565.588	-105.813	-0.259	0.059
-564.573	-200.000	-0.005	0.133
-563.558	-155.120	0.391	0.026
-562.544	-120.095	-0.133	-0.023
-561.529	26.248	-0.126	0.106
-560.515	-106.055	0.292	0.066
-559.500	291.066	0.156	0.286
-558.485	97.414	0.078	-0.091
-557.471	800.000	0.022	0.092
-556.456	290.964	-0.119	0.218
-555.442	-170.231	0.151	0.005
-554.427	-200.000	-0.025	-0.120
-553.412	-120.171	-0.146	-0.025
-552.398	800.000	0.210	0.609
-551.383	490.727	-0.083	0.192
-550.369	-200.000	-0.077	0.405
-549.354	-200.000	-0.003	0.218
-548.339	-200.000	-0.047	0.239
-547.325	-106.744	-0.053	0.012
-546.310	-132.931	-0.196	0.025
-545.296	-46.824	0.188	0.093
-544.281	660.396	-0.131	-0.340
-543.266	-32.535	0.255	-0.143
-542.252	-200.000	0.028	-0.297
-541.237	421.658	0.012	-0.026
-540.223	-73.755	-0.095	-0.035
-539.208	40.613	0.077	-0.070
-538.193	-200.000	-0.019	0.209
-537.179	-193.984	0.144	0.001
-536.164	-39.223	-0.244	-0.129
-535.150	47.814	-0.215	-0.202
-534.135	800.000	0.126	-0.444
-533.121	-82.799	-0.318	0.103
-532.106	372.154	0.103	0.210
-531.091	404.541	0.073	0.155
-530.077	6.578	0.126	0.095
-529.062	740.329	-0.153	0.415
-528.048	-125.980	0.395	-0.060
-527.033	-200.000	0.020	-0.092
-526.018	-12.730	0.230	-0.151
-525.004	800.000	-0.047	-0.153
-523.989	-64.315	0.107	0.044
-522.975	408.578	0.090	0.191
-521.960	300.977	-0.039	-0.072
-520.945	-200.000	-0.084	-0.384
-519.931	288.037	-0.030	0.055
-518.916	800.000	0.138	-0.429
-517.902	404.607	0.022	0.048
-516.887	81.885	-0.122	-0.134
-515.872	-86.722	-0.280	-0.086
-514.858	281.300	0.258	-0.465
-513.843	222.948	-0.185	-0.300
-512.829	112.165	0.027	-0.033
-511.814	-48.556	-0.340	0.165
-510.799	44.528	0.108	0.100
-509.785	235.564	-0.058	-0.096
-508.770	800.000	0.106	0.330
-507.756	800.000	0.033	0.097
-506.741	-69.889	-0.316	-0.121
-505.726	67.954	0.118	-0.121
-504.712	-200.000	0.013	0.141
-503.697	-125.525	0.278	0.042
-502.683	-33.054	-0.230	-0.128
-501.668	-81.105	-0.159	0.053
-500.653	82.928	0.142	0.156
-499.639	13.028	0.327	0.254
-498.624	29.612	0.077	-0.066
-497.610	569.606	0.113	-0.276
-496.595	-38.811	0.085	0.045
-495.581	-95.929	-0.175	-0.047
-494.566	-62.940	0.242	-0.101
-493.551	154.339	0.202	-0.279
-492.537	112.793	-0.083	-0.102
-491.522	-99.487	0.126	-0.032
-490.508	-200.000	0.032	-0.207
-489.493	-24.472	-0.259	0.155
-488.478	-24.770	0.184	-0.110
-487.464	49.495	0.125	0.118
-486.449	554.383	-0.152	0.367
-485.435	-41.157	-0.040	-0.021
-484.420	162.099	0.069	-0.097
-483.405	-34.111	-0.088	0.048
-482.391	72.331	0.095	0.100
-481.376	-5.312	0.065	-0.045
-480.362	46.529	-0.426	-0.397
-479.347	666.573	-0.127	-0.330
-478.332	-200.000	-0.019	0.297
-477.318	234.008	0.097	0.160
-476.303	-87.109	0.096	0.029
-475.289	15.582	-0.200	-0.158
-474.274	48.594	0.122	0.115
-473.259	5.193	-0.102	-0.075
-472.245	-200.000	0.018	-0.128
-471.230	-93.869	0.128	0.036
-470.216	-139.402	-0.183	0.020
-469.201	-119.432	-0.069	-0.012
-468.186	800.000	-0.038	-0.150
-467.172	181.338	-0.107	-0.158
-466.157	800.000	0.034	0.095
-465.143	34.179	0.219	0.192
-464.128	3.508	-0.006	0.004
-463.113	475.109	-0.044	-0.099
-462.099	660.525	0.071	0.184
-461.084	-200.000	-0.037	0.201
-460.070	-151.447	-0.059	-0.004
-459.055	123.658	0.170	0.214
-458.040	597.913	0.097	-0.242
-457.026	112.220	0.059	-0.072
-456.011	-144.129	-0.361	0.034
-454.997	-67.323	-0.408	-0.161
-453.982	-119.995	-0.262	-0.045
-452.968	23.155	-0.158	0.131
-451.953	687.029	-0.088	-0.232
-450.938	98.661	0.117	-0.136
-449.924	-103.454	0.216	-0.051
-448.909	-60.365	-0.192	0.082
-447.895	-19.572	-0.088	-0.054
-446.880	-200.000	-0.063	-0.303
-445.865	73.367	-0.117	0.123
-444.851	-200.000	-0.018	-0.147
-443.836	160.824	-0.098	0.137
-442.822	23.121	0.108	0.089
-441.807	174.282	0.048	0.070
-440.792	-50.613	-0.077	-0.036
-439.778	-183.984	0.213	0.004
-438.763	-200.000	-0.002	0.069
-437.749	-91.049	-0.090	0.026
-436.734	-122.837	0.265	0.043
-435.719	800.000	0.073	-0.262
-434.705	800.000	0.139	-0.409
-433.690	-90.801	-0.207	0.060
-432.676	295.282	-0.180	0.331
-431.661	-3.665	0.177	0.123
-430.646	528.491	-0.088	0.209
-429.632	-149.800	0.086	-0.007
-428.617	800.000	-0.047	0.198
-427.603	546.957	0.176	-0.424
-426.588	382.357	0.171	-0.353
-425.573	-119.556	-0.300	-0.052
-424.559	179.242	0.156	0.229
-423.544	-200.000	0.025	0.117
-422.530	314.001	0.117	0.221
-421.515	-200.000	0.019	0.117
-420.500	39.800	0.333	0.300
-419.486	232.008	-0.163	0.268
-418.471	-128.720	0.203	-0.029
-417.457	155.107	0.110	-0.151
-416.442	-160.224	-0.155	-0.008
-415.428	17.026	-0.060	-0.048
-414.413	-53.961	-0.167	-0.076
-413.398	-187.574	-0.213	0.003
-412.384	-12.123	0.220	-0.144
-411.369	54.155	0.137	0.132
-410.355	75.534	-0.124	-0.132
-409.340	-36.752	-0.384	0.207
-408.325	230.798	0.069	-0.113
-407.311	800.000	-0.078	-0.300
-406.296	179.817	-0.060	0.088
-405.282	85.418	0.124	0.137
-404.267	-33.189	-0.170	0.094
-403.252	-200.000	-0.028	0.131
-402.238	-179.730	0.296	0.006
-401.223	-95.377	-0.311	0.084
-400.209	-78.476	0.231	-0.079
-399.194	188.424	-0.145	0.217
-398.179	666.718	-0.074	0.192
-397.165	-53.561	0.418	-0.192
-396.150	70.118	-0.166	0.172
-395.136	800.000	0.034	-0.146
-394.121	103.570	-0.258	0.304
-393.106	91.813	-0.170	-0.191
-392.092	-15.044	0.313	-0.201
-391.077	-145.737	0.212	-0.019
-390.063	12.248	0.136	0.105
-389.048	74.307	0.195	-0.205
-388.033	-91.785	0.189	-0.054
-387.019	-11.714	0.174	0.114
-386.004	8.505	-0.062	0.047
-384.990	800.000	-0.106	0.309
-383.975	328.673	-0.162	-0.311
-382.960	161.111	0.122	0.171
-381.946	-12.022	-0.152	-0.100
-380.931	118.837	-0.222	0.274
-379.917	-200.000	0.020	-0.173
-378.902	-200.000	-0.031	0.149
-377.888	-78.537	0.307	0.105
-376.873	-115.471	0.181	-0.034
-375.858	71.848	0.218	0.227
-374.844	-200.000	0.029	-0.142
-373.829	16.601	0.084	0.066
-372.815	793.599	0.030	0.081
-371.800	-30.676	-0.217	0.123
-370.785	510.300	-0.104	-0.242
-369.771	800.000	-0.014	-0.044
-368.756	800.000	-0.088	-0.322
-367.742	346.828	-0.218	-0.429
-366.727	-200.000	0.011	-0.175
-365.712	421.452	-0.074	-0.158
-364.698	6.795	-0.131	-0.097
-363.683	275.208	0.193	-0.342
-362.669	-100.825	0.111	-0.027
-361.654	318.811	-0.059	0.112
-360.639	-67.940	0.062	-0.024
-359.625	-130.466	-0.469	0.064
-358.610	20.784	0.140	-0.114
-357.596	111.730	0.132	0.160
-356.581	0.631	0.295	0.211
-355.566	-14.765	-0.025	-0.016
-354.552	193.591	-0.082	-0.124
-353.537	-72.263	-0.404	0.150
-352.523	-200.000	0.013	0.248
-351.508	-101.217	-0.326	0.080
-350.493	-4.256	0.228	0.158
-349.479	-61.140	-0.148	-0.062
-348.464	59.759	0.318	-0.314
-347.450	-71.742	0.542	-0.202
-346.435	-200.000	-0.021	-0.123
-345.420	-200.000	0.007	-0.331
-344.406	-200.000	-0.023	-0.283
-343.391	148.160	0.099	-0.133
-342.377	-3.909	-0.106	-0.074
-341.362	97.303	-0.081	0.093
-340.348	800.000	-0.111	0.333
-339.333	-84.067	-0.070	-0.022
-338.318	-133.964	0.271	-0.034
-337.304	-200.000	0.025	-0.415
-336.289	-46.751	0.147	-0.072
-335.275	77.457	-0.173	0.185
-334.260	-123.301	-0.409	-0.065
-333.245	-200.000	-0.004	-0.026
-332.231	240.896	-0.099	-0.164
-331.216	330.777	0.035	0.068
-330.202	-5.584	0.191	0.131
-329.187	86.001	0.263	0.290
-328.172	-52.217	-0.083	0.038
-327.158	-200.000	-0.020	-0.098
-326.143	-108.247	-0.285	0.062
-325.129	621.480	0.131	-0.329
-324.114	-124.232	0.081	0.013
-323.099	222.215	0.136	-0.219
-322.085	-0.223	0.133	-0.094
-321.070	-200.000	0.012	-0.477
-320.056	-200.000	0.014	-0.173
-319.041	-200.000	0.009	0.214
-318.026	800.000	0.049	-0.176
-317.012	-174.637	0.310	0.009
-315.997	-78.403	-0.180	-0.062
-314.983	-132.423	-0.099	-0.013
-313.968	-24.018	-0.073	-0.044
-312.953	-98.481	0.204	-0.052
-311.939	-200.000	0.024	0.359
-310.924	723.330	-0.123	0.327
-309.910	-88.583	-0.106	-0.031
-308.895	709.518	-0.040	-0.106
-307.880	800.000	0.035	-0.118
-306.866	-200.000	0.021	-0.112
-305.851	-149.455	0.239	-0.019
-304.837	-200.000	0.052	0.271
-303.822	800.000	0.066	-0.185
-302.807	614.727	0.076	0.189
-301.793	-149.108	-0.207	-0.017
-300.778	440.899	0.131	0.286
-299.764	106.005	0.237	0.280
-298.749	21.934	0.199	0.162
-297.735	-16.844	-0.257	0.162
-296.720	-200.000	0.009	0.147
-295.705	244.840	-0.096	-0.160
-294.691	-51.021	0.214	0.100
-293.676	-87.326	0.484	0.147
-292.662	5.229	-0.207	0.152
-291.647	108.926	-0.082	0.098
-290.632	100.335	-0.154	-0.178
-289.618	29.005	-0.028	0.023
-288.603	12.425	-0.104	0.080
-287.589	-111.403	-0.144	0.029
-286.574	25.770	0.112	-0.093
-285.559	-200.000	0.025	0.288
-284.545	-96.937	0.326	0.085
-283.530	-137.109	-0.281	0.032
-282.516	-200.000	0.012	0.172
-281.501	1.581	0.198	0.142
-280.486	-85.961	0.367	0.113
-279.472	800.000	0.086	-0.356
-278.457	-200.000	-0.009	-0.186
-277.443	-56.687	-0.144	-0.064
-276.428	-30.046	-0.346	-0.196
-275.413	486.860	0.136	-0.310
-274.399	800.000	0.063	0.264
-273.384	-88.593	-0.345	-0.103
-272.370	-25.317	0.084	0.049
-271.355	481.887	-0.137	0.311
-270.340	36.657	0.134	0.118
-269.326	-63.781	0.277	0.113
-268.311	800.000	-0.019	-0.063
-267.297	-23.970	-0.179	-0.107
-266.282	10.674	0.227	-0.172
-265.267	95.592	0.106	0.121
-264.253	-93.456	-0.136	0.038
-263.238	-200.000	0.196	-0.001
-262.224	190.918	-0.068	-0.102
-261.209	697.092	-0.083	-0.218
-260.195	-200.000	-0.004	0.307
-259.180	-152.516	-0.052	-0.004
-258.165	-71.241	-0.064	-0.024
-257.151	53.720	-0.100	0.096
-256.136	-200.000	0.019	0.337
-255.122	85.809	-0.111	0.122
-254.107	-119.337	-0.116	-0.020
-253.092	399.457	-0.126	-0.262
-252.078	-200.000	0.030	-0.389
-251.063	-117.011	-0.055	-0.010
-250.049	139.241	0.120	-0.158
-249.034	627.257	0.134	0.337
-248.019	-144.151	-0.554	0.052
-247.005	97.453	0.270	-0.309
-245.990	-54.672	-0.304	0.137
-244.976	-154.525	-0.085	0.006
-243.961	-53.927	-0.270	-0.122
-242.946	271.608	0.071	-0.125
-241.932	337.719	-0.145	-0.281
-240.917	35.732	-0.100	0.088
-239.903	-111.038	0.371	0.076
-238.888	266.472	0.149	-0.260
-237.873	-200.000	0.015	-0.209
-236.859	317.488	-0.066	-0.125
-235.844	21.944	-0.094	0.076
-234.830	410.710	0.142	-0.301
-233.815	-82.241	-0.364	0.118
-232.800	404.915	0.008	-0.017
-231.786	9.303	-0.137	-0.104
-230.771	-200.000	-0.045	0.297
-229.757	-27.297	-0.250	-0.145
-228.742	-200.000	-0.065	-0.397
-227.727	514.694	0.065	-0.151
-226.713	-27.565	0.163	-0.094
-225.698	30.390	-0.090	0.077
-224.684	-37.555	0.136	0.072
-223.669	-200.000	-0.033	0.223
-222.655	15.938	0.138	0.108
-221.640	800.000	0.058	0.202
-220.625	-200.000	-0.076	-0.395
-219.611	-91.221	0.164	0.047
-218.596	-81.632	0.239	0.078
-217.582	-200.000	0.008	0.044
-216.567	-81.769	-0.285	0.093
-215.552	338.977	-0.082	-0.159
-214.538	-54.969	-0.296	0.133
-213.523	-200.000	-0.007	-0.062
-212.509	-200.000	0.004	0.159
-211.494	-200.000	-0.046	-0.248
-210.479	-33.787	0.123	-0.067
-209.465	-111.706	0.148	-0.030
-208.450	47.410	0.115	0.106
-207.436	800.000	0.031	0.091
-206.421	-99.014	-0.235	0.059
-205.406	246.282	0.071	-0.120
-204.392	49.899	0.145	0.136
-203.377	-76.742	0.183	-0.064
-202.363	-47.993	-0.346	0.166
-201.348	-200.000	-0.012	-0.222
-200.333	-105.812	0.086	0.019
-199.319	29.149	0.070	0.059
-198.304	217.177	-0.107	-0.170
-197.290	248.673	0.150	0.253
-196.275	800.000	0.034	0.118
-195.260	76.697	-0.121	0.128
-194.246	125.873	-0.019	-0.024
-193.231	166.952	0.084	0.118
-192.217	722.673	0.016	-0.043
-191.202	-13.141	0.099	-0.064
-190.187	338.595	-0.107	-0.207
-189.173	-168.271	0.234	-0.009
-188.158	8.535	0.148	0.111
-187.144	98.180	0.153	-0.175
-186.129	118.346	0.347	-0.425
-185.114	515.862	-0.118	-0.275
-184.100	-40.474	0.324	-0.167
-183.085	-200.000	0.035	0.219
-182.071	30.953	-0.275	0.234
-181.056	109.448	-0.062	0.073
-180.042	82.282	-0.078	-0.084
-179.027	26.276	-0.162	-0.135
-178.012	-62.088	-0.136	-0.057
-176.998	684.961	0.084	-0.217
-175.983	-200.000	-0.036	0.215
-174.969	-10.528	-0.043	0.028
-173.954	-33.415	-0.012	-0.007
-172.939	800.000	0.063	0.182
-171.925	-200.000	-0.015	-0.235
-170.910	800.000	0.060	0.167
-169.896	-27.837	-0.290	0.167
-168.881	-2.096	0.158	-0.111
-167.866	17.134	0.188	0.148
-166.852	197.483	0.065	0.099
-165.837	-120.106	0.214	-0.036
-164.823	-152.382	-0.036	0.003
-163.808	748.909	0.071	0.190
-162.793	114.269	-0.194	0.234
-161.779	726.384	-0.089	0.237
-160.764	-76.807	-0.331	0.115
-159.750	74.971	-0.096	-0.101
-158.735	76.991	-0.095	0.100
-157.720	-23.899	0.272	0.162
-156.706	-44.573	0.179	-0.089
-155.691	33.810	-0.079	-0.068
-154.677	142.118	0.046	0.060
-153.662	-200.000	-0.015	0.078
-152.647	-200.000	0.036	0.448
-151.633	-200.000	0.036	0.259
-150.618	800.000	0.019	0.051
-149.604	-74.765	0.215	-0.077
-148.589	-200.000	-0.013	-0.191
-147.574	-200.000	0.001	-0.028
-146.560	205.487	-0.158	-0.244
-145.545	459.268	0.165	0.364
-144.531	800.000	0.191	0.530
-143.516	44.779	0.099	0.091
-142.502	-159.963	-0.024	-0.001
-141.487	16.671	-0.096	0.075
-140.472	47.077	-0.147	0.136
-139.458	-15.667	0.138	0.088
-138.443	61.411	0.104	-0.103
-137.429	-102.916	0.088	-0.021
-136.414	-200.000	0.011	-0.342
-135.399	300.660	-0.082	-0.149
-134.385	156.501	-0.059	0.080
-133.370	-54.752	-0.095	0.043
-132.356	-0.676	0.133	0.093
-131.341	-101.928	0.154	-0.037
-130.326	-41.103	0.147	-0.075
-129.312	86.565	0.261	-0.285
-128.297	-134.831	0.363	0.044
-127.283	22.722	0.334	0.271
-126.268	67.446	0.162	-0.164
-125.253	-25.705	0.322	-0.188
-124.239	690.493	0.101	-0.263
-123.224	-67.230	0.074	0.029
-122.210	7.096	0.118	0.088
-121.195	-88.348	0.147	0.044
-120.180	-144.215	0.251	-0.023
-119.166	800.000	0.040	-0.110
-118.151	36.753	0.173	-0.152
-117.137	800.000	0.052	-0.159
-116.122	-99.860	0.241	-0.060
-115.107	-79.700	0.367	-0.123
-114.093	-13.032	-0.205	0.132
-113.078	-181.555	-0.394	0.008
-112.064	-92.754	0.347	-0.096
-111.049	91.257	0.100	0.111
-110.034	-0.126	0.276	0.194
-109.020	115.219	0.099	0.120
-108.005	-194.264	-0.485	0.004
-106.991	256.487	-0.082	0.139
-105.976	94.389	0.029	0.032
-104.962	17.388	0.168	-0.132
-103.947	-200.000	0.047	-0.353
-102.932	139.193	0.101	0.131
-101.918	377.023	0.136	0.276
-100.903	-143.053	0.245	0.023
-99.889	-36.189	0.182	-0.097
-98.874	-28.131	-0.330	0.189
-97.859	-42.372	0.075	0.038
-96.845	-48.906	-0.182	0.087
-95.830	438.679	0.146	-0.316
-94.816	97.331	-0.244	-0.277
-93.801	170.338	0.077	-0.110
-92.786	360.162	0.084	-0.167
-91.772	160.703	0.169	-0.234
-90.757	-71.734	-0.217	0.080
-89.743	54.379	0.138	0.131
-88.728	-200.000	0.047	-0.294
-87.713	4.985	-0.086	-0.062
-86.699	156.455	-0.076	0.104
-85.684	-200.000	0.017	0.166
-84.670	8.122	0.220	-0.163
-83.655	-28.085	-0.063	-0.036
-82.640	75.771	0.136	-0.142
-81.626	-134.340	-0.129	0.016
-80.611	83.191	0.180	0.195
-79.597	-200.000	-0.006	0.064
-78.582	-47.286	0.233	0.113
-77.567	-200.000	0.002	0.223
-76.553	800.000	0.078	-0.285
-75.538	-72.719	0.187	0.068
-74.524	-97.656	0.164	0.042
-73.509	-93.169	0.137	-0.038
-72.494	126.598	-0.058	0.073
-71.480	-48.184	0.212	0.101
-70.465	-54.195	0.295	0.133
-69.451	800.000	-0.029	0.126
-68.436	-200.000	0.011	-0.066
-67.422	-200.000	0.016	-0.312
-66.407	13.093	-0.094	-0.072
-65.392	-94.904	0.214	-0.057
-64.378	-10.968	-0.101	-0.066
-63.363	-121.307	-0.230	0.038
-62.349	-49.173	0.266	-0.126
-61.334	33.232	-0.819	-0.703
-60.319	800.000	0.206	0.877
-59.305	-200.000	-0.160	-0.881
-58.290	800.000	0.289	0.878
-57.276	452.413	0.645	1.412
-56.261	-200.000	97.579	573.640
-55.246	627.482	1400.517	3499.351
-54.232	186.122	2608.235	3837.763
-53.217	120.667	2184.061	2685.285
-52.203	46.063	1632.421	1495.024
-51.188	37.653	1367.790	1201.017
-50.173	34.500	1324.248	1143.869
-49.159	55.977	1373.226	1317.774
-48.144	59.925	1391.302	1359.143
-47.130	38.075	1346.073	1184.320
-46.115	34.399	1327.631	1146.001
-45.100	34.213	1323.228	1141.041
-44.086	34.218	1320.935	1139.045
-43.071	34.107	1318.780	1136.483
-42.057	34.152	1316.232	1134.507
-41.042	34.198	1314.795	1133.498
-40.027	34.250	1313.048	1132.260
-39.013	34.155	1311.700	1130.487
-37.998	34.152	1309.395	1128.436
-36.984	34.247	1307.936	1127.698
-35.969	34.290	1305.876	1126.128
-34.954	34.247	1304.790	1124.897
-33.940	34.361	1303.094	1124.060
-32.925	34.363	1301.499	1122.655
-31.911	34.413	1300.244	1121.820
-30.896	34.438	1298.503	1120.422
-29.881	34.319	1297.669	1118.958
-28.867	34.293	1296.298	1117.575
-27.852	34.391	1294.527	1116.581
-26.838	34.354	1293.107	1115.093
-25.823	34.384	1291.765	1114.066
-24.809	34.420	1290.011	1112.725
-23.794	34.451	1288.820	1111.834
-22.779	34.398	1287.495	1110.337
-21.765	34.299	1286.417	1108.783
-20.750	34.384	1284.762	1107.812
-19.736	34.239	1284.165	1106.411
-18.721	34.257	1282.954	1105.426
-17.706	34.338	1281.082	1104.239
-16.692	34.289	1279.975	1102.956
-15.677	34.259	1278.735	1101.668
-14.663	34.249	1277.974	1100.915
-13.648	34.226	1277.187	1100.057
-12.633	34.237	1276.193	1099.220
-11.619	34.141	1275.403	1097.946
-10.604	34.200	1274.505	1097.469
-9.590	34.209	1273.602	1096.699
-8.575	34.174	1272.086	1095.151
-7.560	34.226	1271.776	1095.136
-6.546	34.237	1270.521	1094.076
-5.531	34.157	1270.027	1093.145
-4.517	34.210	1268.772	1092.330
-3.502	34.204	1268.219	1091.774
-2.487	34.163	1267.127	1090.558
-1.473	34.329	1262.731	1087.675
-0.458	32.940	1248.222	1067.292
0.556	28.062	1230.559	1027.868
1.571	24.236	1235.455	1010.226
2.586	23.168	1250.866	1016.606
3.600	22.596	1240.251	1004.633
4.615	17.632	1168.115	919.401
5.629	9.319	1091.931	817.266
6.644	5.366	1071.278	781.998
7.659	4.970	1068.837	778.170
8.673	4.937	1067.482	776.947
9.688	4.928	1066.267	775.951
10.702	5.270	1064.606	776.373
11.717	10.403	1071.999	807.329
12.731	17.576	1082.364	851.022
13.746	19.409	1083.850	861.278
14.761	18.083	1081.481	852.712
15.775	17.024	1079.096	845.479
16.790	15.929	1076.734	838.106
17.804	15.188	1075.237	833.184
18.819	14.834	1074.508	830.785
19.834	14.448	1073.506	828.020
20.848	14.265	1072.616	826.351
21.863	14.029	1071.967	824.609
22.877	14.001	1070.603	823.350
23.892	13.894	1070.400	822.589
24.907	14.114	1069.259	822.729
25.921	14.106	1068.190	821.796
26.936	14.057	1066.698	820.330
27.950	13.939	1065.771	818.965
28.965	14.121	1063.945	818.383
29.980	14.230	1062.438	817.687
30.994	14.285	1061.277	816.992
32.009	14.264	1060.252	816.029
33.023	14.208	1059.354	814.991
34.038	14.133	1058.378	813.801
35.053	14.098	1057.657	813.002
36.067	14.161	1056.496	812.345
37.082	14.096	1055.749	811.385
38.096	14.204	1054.856	811.151
39.111	14.147	1054.660	810.652
40.126	14.086	1052.965	808.981
41.140	13.998	1051.214	807.136
42.155	13.949	1050.002	805.897
43.169	13.928	1049.064	805.004
44.184	13.874	1048.173	803.985
45.199	13.873	1047.344	803.272
46.213	13.935	1046.490	802.848
47.228	14.025	1045.065	802.121
48.242	14.081	1044.029	801.521
49.257	14.109	1042.981	800.781
50.271	14.099	1042.065	799.959
51.286	14.115	1040.925	799.093
52.301	14.135	1040.405	798.717
53.315	14.106	1039.117	797.520
54.330	14.080	1037.737	796.263
55.344	13.988	1037.289	795.409
56.359	13.986	1036.209	794.499
57.374	14.045	1035.341	794.049
58.388	13.840	1034.460	792.324
59.403	13.939	1033.495	791.988
60.417	13.771	1032.900	790.659
61.432	13.812	1032.346	790.360
62.447	13.706	1031.711	789.298
63.461	13.734	1030.653	788.555
64.476	13.892	1029.635	788.454
65.490	13.728	1028.900	787.047
66.505	13.798	1028.318	786.861
67.520	13.872	1027.210	786.294
68.534	13.915	1026.479	785.870
69.549	13.923	1026.053	785.510
70.563	13.835	1025.128	784.317
71.578	13.844	1024.414	783.744
72.593	13.679	1023.597	782.273
73.607	13.627	1023.369	781.782
74.622	13.759	1022.102	781.368
75.636	13.637	1021.650	780.377
76.651	13.698	1020.841	779.977
77.666	13.766	1020.004	779.591
78.680	13.755	1019.434	779.035
79.695	13.754	1018.868	778.525
80.709	13.831	1018.396	778.459
81.724	13.883	1017.926	778.273
82.739	14.049	1016.740	778.078
83.753	14.050	1016.396	777.747
84.768	14.267	1015.109	777.708
85.782	14.265	1014.179	776.920
86.797	14.221	1013.512	776.132
87.812	14.076	1012.724	774.785
88.826	14.082	1011.433	773.755
89.841	14.161	1010.215	773.124
90.855	14.164	1009.782	772.740
91.870	14.158	1008.943	772.001
92.884	14.269	1007.736	771.523
93.899	14.187	1007.322	770.760
94.914	14.266	1006.332	770.298
95.928	14.244	1005.573	769.547
96.943	14.180	1004.845	768.625
97.957	14.140	1003.813	767.583
98.972	14.205	1003.041	767.223
99.987	14.263	1001.727	766.421
101.001	14.230	1001.053	765.683
102.016	14.192	999.916	764.573
103.030	14.252	999.220	764.248
104.045	14.214	998.154	763.189
105.060	14.059	997.666	762.042
106.074	13.995	996.677	760.925
107.089	13.950	995.774	759.962
108.103	14.001	994.297	758.998
109.118	13.865	993.773	757.914
110.133	13.932	992.924	757.503
111.147	13.865	992.279	756.637
112.162	13.978	991.274	756.320
113.176	14.053	990.287	755.842
114.191	14.088	989.633	755.432
115.206	14.108	988.589	754.662
116.220	13.968	988.008	753.516
117.235	14.051	987.044	753.090
118.249	14.073	986.305	752.561
119.264	14.087	985.259	751.759
120.279	13.995	984.648	750.807
121.293	13.952	983.617	749.764
122.308	13.910	983.012	749.044
123.322	13.989	981.917	748.500
124.337	14.027	980.549	747.562
125.352	13.887	979.951	746.412
126.366	13.921	978.910	745.704
127.381	13.981	978.142	745.323
128.395	13.898	977.078	744.072
129.410	13.953	976.516	743.825
130.424	14.122	975.268	743.565
131.439	14.039	975.046	742.958
132.454	14.070	974.023	742.251
133.468	14.017	973.707	741.709
134.483	14.105	972.031	740.759
135.497	14.064	971.542	740.138
136.512	14.066	970.691	739.435
137.527	14.102	969.547	738.658
138.541	14.134	968.813	738.173
139.556	14.214	968.273	738.051
140.570	14.227	968.004	737.839
141.585	14.318	967.073	737.468
142.600	14.290	965.834	736.335
143.614	14.315	964.970	735.722
144.629	14.284	964.321	735.026
145.643	14.437	962.886	734.537
146.658	14.243	962.358	733.218
147.673	14.146	961.612	732.156
148.687	14.288	960.497	731.866
149.702	14.187	959.530	730.622
150.716	14.179	958.790	729.960
151.731	14.237	957.977	729.529
152.746	14.100	957.935	728.832
153.760	14.197	956.919	728.419
154.775	14.287	956.454	728.396
155.789	14.302	955.891	727.966
156.804	14.231	955.441	727.252
157.819	14.339	954.512	726.952
158.833	14.448	953.678	726.726
159.848	14.442	953.305	726.350
160.862	14.407	951.955	725.105
161.877	14.284	950.763	723.601
162.892	14.062	950.746	722.558
163.906	14.320	949.152	722.400
164.921	14.324	948.161	721.603
165.935	14.185	947.681	720.571
166.950	14.335	946.717	720.423
167.964	14.304	945.809	719.535
168.979	14.327	944.673	718.707
169.994	14.308	944.386	718.342
171.008	14.243	943.547	717.359
172.023	14.417	943.009	717.636
173.037	14.532	942.065	717.347
174.052	14.509	941.128	716.473
175.067	14.342	940.821	715.458
176.081	14.227	940.225	714.447
177.096	14.257	939.491	713.956
178.110	14.359	939.225	714.127
179.125	14.460	938.134	713.669
180.140	14.348	938.144	713.133
181.154	14.427	937.837	713.173
182.169	14.497	937.155	712.893
183.183	14.642	936.155	712.689
184.198	14.696	935.334	712.232
185.213	14.509	934.810	710.971
186.227	14.588	933.998	710.626
187.242	14.571	933.767	710.315
188.256	14.742	933.093	710.465
189.271	14.611	932.500	709.396
190.286	14.393	931.314	707.506
191.300	14.305	930.793	706.674
192.315	14.355	929.629	705.940
193.329	14.229	929.331	705.119
194.344	14.478	928.587	705.543
195.359	14.416	928.363	705.048
196.373	14.504	927.210	704.484
197.388	14.765	926.882	705.272
198.402	14.825	926.407	705.103
199.417	14.746	926.181	704.533
200.432	14.842	925.137	704.084
201.446	14.969	924.919	704.392
202.461	14.968	924.710	704.162
203.475	14.938	923.886	703.350
204.490	14.839	923.099	702.272
205.504	14.835	922.240	701.537
206.519	14.831	921.536	700.924
207.534	14.797	921.153	700.426
208.548	14.847	920.467	700.052
209.563	14.904	919.293	699.338
210.577	14.852	918.980	698.820
211.592	14.996	917.759	698.429
212.607	15.076	917.173	698.257
213.621	15.120	916.258	697.681
214.636	14.951	916.094	696.790
215.650	14.974	915.390	696.291
216.665	15.093	914.462	696.015
217.680	15.042	913.822	695.256
218.694	15.050	913.640	695.088
219.709	14.977	912.632	693.957
220.723	14.992	911.891	693.394
221.738	15.150	910.799	693.158
222.753	15.104	910.439	692.633
223.767	15.272	909.915	692.868
224.782	15.196	909.282	692.010
225.796	15.172	909.228	691.810
226.811	15.309	908.207	691.534
227.826	15.182	907.238	690.212
228.840	15.081	906.878	689.462
229.855	15.214	905.708	689.058
230.869	15.084	905.069	687.978
231.884	15.103	904.599	687.636
232.899	15.082	903.867	686.933
233.913	15.106	903.156	686.432
234.928	15.055	902.766	685.866
235.942	15.039	902.044	685.191
236.957	14.997	901.605	684.625
237.972	15.126	900.645	684.361
238.986	15.022	900.562	683.812
240.001	15.166	899.374	683.438
241.015	15.242	898.841	683.282
242.030	15.278	898.443	683.065
243.045	15.317	897.993	682.821
244.059	15.205	896.884	681.465
245.074	15.213	896.835	681.399
246.088	15.325	896.107	681.238
247.103	15.445	895.159	680.947
248.117	15.516	894.709	680.833
249.132	15.567	894.315	680.676
250.147	15.727	893.426	680.588
251.161	15.785	892.540	680.088
252.176	15.683	892.242	679.389
253.190	15.679	891.779	678.960
254.205	15.660	891.247	678.419
255.220	15.769	890.314	678.089
256.234	15.731	889.853	677.522
257.249	15.831	888.869	677.115
258.263	15.816	888.133	676.435
259.278	15.640	887.970	675.544
260.293	15.826	887.184	675.635
261.307	15.990	886.335	675.583
262.322	15.922	886.085	675.063
263.336	15.973	885.294	674.603
264.351	15.934	884.750	673.973
265.366	16.007	884.145	673.744
266.380	15.863	883.648	672.731
267.395	15.894	882.781	672.136
268.409	15.905	881.860	671.419
269.424	15.735	881.341	670.286
270.439	15.903	880.549	670.292
271.453	15.895	879.648	669.517
272.468	15.833	879.570	669.151
273.482	15.932	878.451	668.635
274.497	15.897	878.062	668.139
275.512	15.891	877.600	667.704
276.526	15.921	877.245	667.494
277.541	15.837	876.701	666.687
278.555	16.030	876.002	666.861
279.570	16.104	875.704	666.868
280.585	16.063	874.550	665.768
281.599	16.152	873.592	665.332
282.614	16.072	873.183	664.647
283.628	16.012	872.469	663.806
284.643	16.171	871.536	663.663
285.657	16.106	871.128	663.041
286.672	16.057	870.740	662.494
287.687	16.102	870.368	662.327
288.701	16.153	869.502	661.812
289.716	16.170	868.838	661.312
290.730	16.247	868.146	661.031
291.745	16.168	867.637	660.273
292.760	16.268	867.078	660.182
293.774	16.384	866.787	660.356
294.789	16.210	866.014	659.029
295.803	16.269	865.296	658.653
296.818	16.215	864.494	657.773
297.833	16.203	863.867	657.192
298.847	16.214	863.327	656.766
299.862	16.431	862.439	656.876
300.876	16.305	862.382	656.285
301.891	16.437	861.382	655.979
302.906	16.361	861.048	655.370
303.920	16.612	860.250	655.680
304.935	16.503	860.134	655.109
305.949	16.578	859.217	654.643
306.964	16.584	858.690	654.208
307.979	16.541	858.410	653.769
308.993	16.624	857.495	653.338
310.008	16.627	856.924	652.854
311.022	16.569	856.195	652.019
312.037	16.529	855.427	651.221
313.052	16.475	855.097	650.704
314.066	16.498	854.436	650.235
315.081	16.464	853.883	649.623
316.095	16.375	853.752	649.125
317.110	16.554	852.569	648.856
318.125	16.590	852.214	648.666
319.139	16.503	851.844	647.994
320.154	16.517	851.637	647.829
321.168	16.542	851.002	647.388
322.183	16.544	850.223	646.745
323.197	16.658	849.941	646.909
324.212	16.628	849.380	646.308
325.227	16.651	848.668	645.800
326.241	16.553	848.236	645.038
327.256	16.630	847.480	644.700
328.270	16.605	846.878	644.092
329.285	16.603	846.163	643.482
330.300	16.705	845.627	643.404
331.314	16.607	845.331	642.749
332.329	16.592	844.840	642.262
333.343	16.562	844.512	641.842
334.358	16.748	843.978	642.085
335.373	16.743	843.578	641.706
336.387	16.710	843.762	641.665
337.402	16.753	843.462	641.542
338.416	16.924	843.150	641.894
339.431	16.989	842.259	641.404
340.446	16.976	841.959	641.070
341.460	16.877	841.929	640.618
342.475	16.988	841.516	640.665
343.489	16.977	841.170	640.303
344.504	17.080	840.172	639.877
345.519	17.006	840.136	639.511
346.533	16.906	839.711	638.755
347.548	17.056	838.506	638.346
348.562	17.132	837.841	638.071
349.577	16.970	837.427	637.089
350.592	16.970	836.625	636.424
351.606	16.902	836.005	635.640
352.621	16.866	835.492	635.061
353.635	17.143	834.811	635.522
354.650	17.212	833.878	635.012
355.665	16.907	833.943	633.868
356.679	17.083	833.061	633.797
357.694	17.042	832.296	633.006
358.708	17.013	831.900	632.540
359.723	17.210	831.233	632.711
360.738	17.248	830.518	632.252
361.752	17.054	830.340	631.341
362.767	17.331	829.828	631.924
363.781	17.404	829.100	631.585
364.796	17.356	828.433	630.844
365.810	17.306	828.404	630.578
366.825	17.353	827.948	630.350
367.840	17.585	826.917	630.370
368.854	17.417	826.737	629.553
369.869	17.308	826.433	628.865
370.883	17.492	825.848	629.043
371.898	17.467	825.633	628.733
372.913	17.469	825.125	628.296
373.927	17.550	824.586	628.130
374.942	17.501	824.157	627.567
375.956	17.559	823.711	627.385
376.971	17.558	823.519	627.180
377.986	17.814	822.797	627.514
379.000	17.730	822.348	626.809
380.015	17.677	821.555	625.956
381.029	17.670	821.311	625.688
382.044	17.608	820.737	624.968
383.059	17.750	820.061	624.919
384.073	17.604	819.649	624.015
385.088	17.482	819.089	623.087
386.102	17.678	818.418	623.235
387.117	17.586	818.078	622.588
388.132	17.476	817.508	621.695
389.146	17.656	816.875	621.817
390.161	17.819	816.080	621.748
391.175	17.736	815.785	621.169
392.190	17.665	815.433	620.585
393.205	17.664	814.869	620.099
394.219	17.742	814.403	619.972
395.234	17.649	814.153	619.389
396.248	17.527	813.754	618.586
397.263	17.648	813.146	618.509
398.278	17.662	812.748	618.202
399.292	17.619	812.593	617.877
400.307	17.628	811.930	617.349
401.321	17.560	811.543	616.753
402.336	17.713	810.961	616.811
403.350	17.630	810.639	616.212
404.365	17.792	810.444	616.596
405.380	17.855	809.967	616.404
406.394	18.061	809.083	616.419
407.409	17.995	808.846	615.948
408.423	18.067	808.302	615.738
409.438	18.070	807.751	615.275
410.453	18.138	807.467	615.248
411.467	18.118	807.049	614.804
412.482	18.098	806.759	614.456
413.496	18.198	806.351	614.450
414.511	18.193	806.175	614.244
415.526	18.161	805.642	613.667
416.540	18.162	805.224	613.300
417.555	18.182	804.775	612.976
418.569	18.204	804.050	612.447
419.584	18.246	803.778	612.337
420.599	18.372	803.152	612.254
421.613	153.396	1370.313	1790.295
422.628	133.005	1452.950	1790.407
