DTS Sentinel unit serial number:	SN413079Multiplexer serial number:	ORYXHardware model number:	OX4-SRSoftware version number:	ORYX F/W v4.00 Oryx Data Collector v3.7.2.0data status	okinstallation	princeton_trtdifferential loss correction	single-endedforward channel	channel 1reverse channel	N/Adate	2019/09/17time	00:22:35forward acquisition time	60.00reverse acquisition time	0.00gamma	496.2192k internal	0.2325k external	0.2325temperature offset calibration	0.9961default loss term (dB/km)	0.3790temperature slope calibration	1.0000multiplexer offset coefficient	1.0000multiplexer slope coefficient	1.0000fibre end	0.00T internal ref (°C)	29.50T ext. ref 1 (°C)	0.10T ext. ref 2 (°C)	23.55length (m)	temperature (°C)	Stokes	anti-Stokes-747.200	-200.000	0.028	0.393
-746.185	540.513	-0.141	0.338
-745.171	-200.000	0.056	0.279
-744.156	261.878	-0.095	0.167
-743.142	-200.000	0.055	-0.356
-742.127	37.659	-0.282	0.252
-741.112	-77.369	0.084	0.030
-740.098	-94.695	-0.365	0.100
-739.083	118.013	0.134	-0.167
-738.069	328.911	-0.123	-0.239
-737.054	-27.786	0.164	-0.096
-736.039	-160.154	-0.155	0.008
-735.025	387.462	0.128	0.267
-734.010	800.000	-0.089	-0.254
-732.996	-86.092	0.489	-0.152
-731.981	-145.318	0.156	-0.014
-730.966	-64.920	-0.180	-0.073
-729.952	465.715	-0.058	0.131
-728.937	-33.031	-0.362	-0.203
-727.923	68.273	-0.173	-0.179
-726.908	96.107	0.145	0.167
-725.894	800.000	-0.022	0.076
-724.879	526.788	-0.047	-0.111
-723.864	32.400	0.128	0.112
-722.850	-25.099	-0.166	-0.099
-721.835	-20.227	0.114	0.071
-720.821	554.400	-0.071	-0.171
-719.806	349.440	-0.060	-0.119
-718.791	-71.492	-0.103	0.039
-717.777	-49.328	-0.330	-0.159
-716.762	-78.721	-0.126	-0.043
-715.748	-200.000	0.061	0.435
-714.733	284.425	0.089	0.161
-713.718	-127.105	-0.233	0.034
-712.704	252.575	0.092	-0.159
-711.689	-100.283	-0.121	0.030
-710.675	-47.994	-0.167	0.081
-709.660	233.436	-0.122	0.203
-708.645	23.608	-0.089	-0.074
-707.631	10.683	-0.140	-0.108
-706.616	390.880	-0.106	-0.222
-705.602	-200.000	-0.107	0.544
-704.587	399.077	-0.082	0.174
-703.572	-200.000	0.059	-0.264
-702.558	319.651	-0.139	-0.265
-701.543	-104.138	-0.277	-0.065
-700.529	742.735	-0.106	-0.288
-699.514	-50.106	-0.226	-0.108
-698.499	-198.822	-0.187	0.001
-697.485	800.000	-0.091	0.387
-696.470	-200.000	0.022	-0.127
-695.456	549.088	0.035	-0.084
-694.441	-191.987	0.167	0.002
-693.426	-200.000	-0.014	0.083
-692.412	179.392	-0.100	0.148
-691.397	-34.206	-0.286	0.158
-690.383	153.956	0.167	-0.231
-689.368	20.126	0.235	-0.191
-688.354	-200.000	-0.003	-0.110
-687.339	190.747	0.086	-0.130
-686.324	-168.455	0.358	0.014
-685.310	657.315	-0.040	-0.103
-684.295	-146.247	-0.205	0.018
-683.281	722.374	0.105	-0.281
-682.266	-44.059	0.293	-0.148
-681.251	-200.000	0.017	0.157
-680.237	-110.897	-0.305	0.063
-679.222	-17.505	-0.082	0.052
-678.208	-88.423	-0.023	-0.007
-677.193	25.921	-0.254	0.213
-676.178	193.967	0.289	0.441
-675.164	-200.000	-0.004	-0.093
-674.149	-166.311	0.217	0.009
-673.135	-200.000	0.020	-0.115
-672.120	-10.992	-0.117	0.078
-671.105	198.338	0.135	0.207
-670.091	60.238	0.020	-0.020
-669.076	-200.000	-0.024	0.439
-668.062	-200.000	-0.006	-0.030
-667.047	-114.480	-0.332	-0.064
-666.032	-137.841	0.213	0.024
-665.018	-90.137	0.226	-0.066
-664.003	-200.000	-0.005	-0.056
-662.989	224.095	-0.089	0.145
-661.974	32.476	0.181	0.157
-660.959	-200.000	-0.003	-0.021
-659.945	186.201	-0.083	-0.124
-658.930	153.676	0.199	0.274
-657.916	800.000	-0.076	-0.306
-656.901	497.258	0.135	-0.313
-655.886	-140.538	0.293	-0.031
-654.872	800.000	-0.030	0.087
-653.857	14.552	0.019	0.015
-652.843	-75.273	0.305	-0.109
-651.828	-143.042	0.284	0.028
-650.814	263.614	0.100	0.175
-649.799	800.000	-0.035	-0.120
-648.784	-139.456	0.259	-0.028
-647.770	-95.724	-0.417	0.112
-646.755	259.258	0.078	-0.136
-645.741	-79.262	0.322	-0.110
-644.726	-200.000	0.022	0.145
-643.711	-200.000	0.043	-0.280
-642.697	25.365	0.052	0.043
-641.682	-200.000	-0.026	-0.175
-640.668	71.833	0.141	-0.148
-639.653	19.671	0.072	-0.058
-638.638	-131.922	0.196	0.026
-637.624	5.234	-0.425	0.315
-636.609	212.232	-0.197	0.312
-635.595	348.020	0.164	-0.324
-634.580	-23.457	-0.126	0.076
-633.565	444.126	0.042	0.092
-632.551	800.000	0.051	-0.183
-631.536	-51.130	0.119	-0.056
-630.522	249.430	0.217	0.370
-629.507	-36.730	-0.310	0.167
-628.492	19.888	0.067	-0.054
-627.478	371.172	-0.178	-0.362
-626.463	800.000	0.009	-0.027
-625.449	-45.159	-0.352	-0.176
-624.434	-162.522	-0.292	-0.015
-623.419	-48.844	-0.188	-0.091
-622.405	39.468	-0.243	0.219
-621.390	-13.025	-0.260	0.170
-620.376	496.193	-0.017	-0.038
-619.361	-38.794	0.179	-0.095
-618.346	115.358	-0.139	-0.171
-617.332	-81.799	-0.038	0.013
-616.317	-45.661	0.347	-0.172
-615.303	258.916	-0.057	0.098
-614.288	-19.053	0.232	0.145
-613.273	-200.000	-0.007	0.275
-612.259	-84.614	0.433	-0.137
-611.244	196.550	-0.194	0.297
-610.230	800.000	0.051	-0.194
-609.215	-200.000	0.012	-0.137
-608.201	484.663	-0.077	-0.176
-607.186	143.253	-0.253	0.338
-606.171	-200.000	-0.031	0.237
-605.157	-96.813	-0.199	-0.053
-604.142	207.389	-0.135	0.212
-603.128	-43.805	0.187	-0.094
-602.113	-59.634	-0.397	0.171
-601.098	-147.582	0.191	-0.016
-600.084	800.000	-0.070	0.211
-599.069	-83.539	-0.050	-0.016
-598.055	-117.488	-0.044	-0.008
-597.040	800.000	-0.031	-0.103
-596.025	-28.707	0.169	0.098
-595.011	-149.729	0.427	-0.034
-593.996	-169.865	-0.407	-0.015
-592.982	738.509	-0.064	0.171
-591.967	340.593	-0.018	0.036
-590.952	-9.776	0.218	-0.146
-589.938	-200.000	-0.012	0.107
-588.923	-200.000	-0.077	0.357
-587.909	-129.771	-0.124	0.017
-586.894	142.978	0.073	0.098
-585.879	800.000	-0.025	-0.090
-584.865	-138.881	-0.317	-0.035
-583.850	647.829	0.042	-0.109
-582.836	-200.000	-0.009	-0.464
-581.821	-124.154	0.197	0.031
-580.806	47.538	0.225	0.211
-579.792	29.195	0.078	0.067
-578.777	-37.012	0.162	0.087
-577.763	-200.000	-0.050	0.315
-576.748	-200.000	0.013	0.236
-575.733	-175.284	0.200	0.006
-574.719	-92.184	0.106	-0.030
-573.704	800.000	-0.069	-0.234
-572.690	-85.639	0.426	0.133
-571.675	-158.519	0.060	0.003
-570.661	800.000	0.015	-0.053
-569.646	-105.775	0.230	0.052
-568.631	-200.000	-0.031	-0.217
-567.617	180.132	0.061	0.089
-566.602	-151.192	0.079	-0.006
-565.588	-142.101	-0.268	-0.027
-564.573	-134.610	-0.292	0.036
-563.558	-3.612	0.114	0.080
-562.544	-200.000	-0.015	-0.409
-561.529	-77.727	0.330	0.114
-560.515	-154.739	0.172	-0.011
-559.500	800.000	0.103	0.339
-558.485	-104.907	-0.183	0.042
-557.471	77.535	0.093	0.099
-556.456	418.617	0.135	0.290
-555.442	-132.611	0.332	-0.043
-554.427	281.854	-0.177	-0.318
-553.412	-126.467	-0.106	0.016
-552.398	35.182	0.274	0.241
-551.383	-112.635	0.458	-0.091
-550.369	-200.000	-0.046	0.342
-549.354	800.000	-0.050	-0.165
-548.339	68.763	0.050	-0.051
-547.325	-160.022	-0.323	-0.018
-546.310	-104.211	-0.250	0.058
-545.296	136.803	0.088	0.115
-544.281	-112.436	0.085	-0.017
-543.266	211.594	0.086	-0.135
-542.252	-200.000	0.012	-0.108
-541.237	-152.823	-0.178	0.013
-540.223	800.000	0.052	0.154
-539.208	-29.480	-0.066	0.038
-538.193	-200.000	0.001	0.263
-537.179	-103.960	-0.269	-0.063
-536.164	-179.030	0.020	0.000
-535.150	-47.455	-0.154	-0.075
-534.135	-200.000	-0.003	0.111
-533.121	800.000	0.018	0.071
-532.106	212.405	-0.153	-0.241
-531.091	-200.000	0.003	-0.219
-530.077	-87.746	0.233	-0.070
-529.062	-200.000	-0.000	0.110
-528.048	-200.000	-0.004	-0.197
-527.033	-49.732	0.022	-0.011
-526.018	690.565	-0.042	0.111
-525.004	-125.924	-0.224	-0.034
-523.989	209.007	0.143	-0.224
-522.975	115.519	0.093	0.114
-521.960	-88.026	-0.143	0.043
-520.945	-89.471	-0.313	0.092
-519.931	800.000	0.039	0.125
-518.916	-73.300	-0.221	0.081
-517.902	-29.266	0.145	-0.083
-516.887	-135.261	-0.078	-0.009
-515.872	800.000	-0.032	0.122
-514.858	-93.232	0.075	-0.021
-513.843	-200.000	0.015	-0.164
-512.829	-65.007	-0.128	0.052
-511.814	800.000	-0.033	0.132
-510.799	52.047	-0.273	0.260
-509.785	-111.923	0.186	0.038
-508.770	-134.672	-0.296	-0.036
-507.756	387.590	0.109	-0.226
-506.741	544.008	0.048	-0.114
-505.726	759.580	0.022	-0.059
-504.712	-27.688	0.039	-0.022
-503.697	800.000	-0.031	0.111
-502.683	-5.378	-0.292	0.200
-501.668	35.930	0.304	0.267
-500.653	800.000	0.060	0.168
-499.639	-200.000	0.011	0.098
-498.624	1.251	0.093	0.067
-497.610	-154.901	-0.684	-0.045
-496.595	88.576	0.279	0.310
-495.581	158.612	-0.130	0.180
-494.566	32.269	-0.234	-0.201
-493.551	581.362	-0.093	-0.228
-492.537	191.384	0.066	-0.100
-491.522	-200.000	0.012	0.187
-490.508	137.278	0.106	-0.139
-489.493	-30.494	-0.130	-0.074
-488.478	-99.791	0.394	0.098
-487.464	339.900	-0.221	0.431
-486.449	800.000	-0.058	-0.170
-485.435	-113.749	0.214	-0.042
-484.420	733.861	-0.103	-0.276
-483.405	633.415	-0.107	0.271
-482.391	800.000	-0.071	0.271
-481.376	-23.176	0.077	0.046
-480.362	566.897	0.037	-0.089
-479.347	-200.000	-0.002	-0.253
-478.332	-200.000	0.023	0.205
-477.318	-198.259	-0.051	-0.000
-476.303	-0.102	0.038	0.027
-475.289	52.337	-0.333	0.318
-474.274	-39.340	-0.147	0.077
-473.259	-36.984	-0.060	0.032
-472.245	12.528	-0.223	0.172
-471.230	-72.044	0.291	0.108
-470.216	-62.135	0.454	-0.189
-469.201	-200.000	0.002	0.032
-468.186	-96.740	-0.252	-0.066
-467.172	800.000	0.032	-0.133
-466.157	-200.000	0.034	0.399
-465.143	-56.793	0.393	0.173
-464.128	-200.000	-0.007	0.169
-463.113	-59.105	0.175	0.075
-462.099	-163.723	-0.292	0.014
-461.084	115.120	0.151	-0.184
-460.070	800.000	-0.133	-0.436
-459.055	-200.000	-0.009	-0.296
-458.040	6.238	0.109	-0.080
-457.026	-62.394	-0.587	0.244
-456.011	607.756	0.128	-0.318
-454.997	19.191	0.282	0.226
-453.982	144.322	0.167	-0.223
-452.968	173.838	-0.151	0.218
-451.953	26.400	0.085	0.071
-450.938	326.756	-0.050	-0.095
-449.924	-87.595	-0.187	0.056
-448.909	-50.923	0.371	0.174
-447.895	-111.597	-0.277	0.056
-446.880	-70.393	-0.035	0.013
-445.865	-19.525	0.105	0.065
-444.851	-61.518	0.248	-0.104
-443.836	-96.755	-0.332	0.087
-442.822	-94.320	0.127	-0.035
-441.807	-46.027	0.206	0.101
-440.792	-130.006	-0.282	0.038
-439.778	-73.950	-0.121	-0.044
-438.763	-106.849	-0.184	-0.041
-437.749	587.596	-0.075	-0.184
-436.734	800.000	-0.088	-0.313
-435.719	287.931	-0.092	-0.166
-434.705	73.109	0.082	0.086
-433.690	175.233	0.111	0.160
-432.676	61.932	0.289	-0.287
-431.661	18.726	-0.072	-0.058
-430.646	32.250	0.145	0.125
-429.632	238.012	0.159	0.263
-428.617	-99.716	0.153	-0.038
-427.603	121.936	0.265	-0.329
-426.588	-0.814	-0.415	0.293
-425.573	-128.271	0.087	0.012
-424.559	-4.105	-0.065	0.045
-423.544	800.000	0.028	-0.083
-422.530	-200.000	-0.023	0.123
-421.515	-49.509	-0.520	0.247
-420.500	23.347	0.319	0.261
-419.486	141.747	0.189	-0.250
-418.471	-200.000	0.097	-0.545
-417.457	236.929	-0.046	0.076
-416.442	435.710	-0.069	-0.150
-415.428	100.104	0.048	-0.055
-414.413	-200.000	-0.009	0.302
-413.398	-96.810	0.266	-0.070
-412.384	800.000	0.063	-0.186
-411.369	-59.651	-0.138	-0.059
-410.355	-40.824	0.187	0.096
-409.340	143.111	-0.068	-0.090
-408.325	-75.514	-0.131	-0.046
-407.311	89.425	-0.187	-0.208
-406.296	92.666	0.405	0.455
-405.282	377.569	-0.123	-0.250
-404.267	-200.000	-0.043	0.294
-403.252	800.000	0.119	0.351
-402.238	-200.000	-0.064	-0.292
-401.223	-78.320	-0.124	-0.042
-400.209	287.652	0.223	0.402
-399.194	-11.861	-0.135	-0.088
-398.179	6.350	-0.116	0.085
-397.165	-200.000	0.001	0.045
-396.150	-122.767	-0.295	-0.047
-395.136	-179.245	0.250	0.006
-394.121	-66.284	-0.185	-0.073
-393.106	-110.480	-0.232	-0.048
-392.092	-143.177	-0.194	0.019
-391.077	-28.820	0.156	-0.089
-390.063	215.186	0.124	-0.195
-389.048	-86.351	-0.126	0.039
-388.033	-25.485	0.238	-0.140
-387.019	-200.000	0.019	0.144
-386.004	182.746	-0.066	-0.097
-384.990	119.613	-0.143	-0.176
-383.975	800.000	-0.127	0.364
-382.960	689.795	-0.048	0.125
-381.946	-139.480	0.045	0.005
-380.931	-102.726	0.528	0.125
-379.917	-135.158	-0.221	-0.026
-378.902	-188.386	0.068	-0.001
-377.888	566.681	-0.118	0.286
-376.873	800.000	0.029	0.118
-375.858	-59.260	-0.297	-0.127
-374.844	653.814	-0.065	-0.166
-373.829	-200.000	0.043	-0.264
-372.815	800.000	0.190	-0.630
-371.800	800.000	0.039	-0.139
-370.785	-19.543	0.118	-0.073
-369.771	-98.637	0.333	-0.084
-368.756	-132.942	0.174	0.022
-367.742	52.206	0.062	-0.059
-366.727	25.924	-0.156	-0.129
-365.712	-200.000	0.067	-0.461
-364.698	662.712	0.051	-0.130
-363.683	7.415	0.122	0.091
-362.669	-200.000	-0.007	-0.049
-361.654	408.616	0.144	0.303
-360.639	-92.746	0.059	0.017
-359.625	-72.203	0.160	0.059
-358.610	800.000	0.070	0.291
-357.596	-195.060	-0.196	0.001
-356.581	-45.946	-0.106	-0.052
-355.566	264.999	0.075	0.130
-354.552	104.375	-0.094	0.109
-353.537	800.000	0.100	-0.302
-352.523	186.515	0.087	-0.128
-351.508	18.715	-0.137	-0.109
-350.493	-76.852	-0.311	0.108
-349.479	153.039	0.084	0.114
-348.464	-88.961	-0.252	0.074
-347.450	800.000	-0.085	0.282
-346.435	-198.481	0.334	-0.002
-345.420	-57.865	-0.081	-0.035
-344.406	171.385	0.219	-0.312
-343.391	-129.715	-0.224	0.031
-342.377	-200.000	0.024	0.133
-341.362	110.306	0.079	0.094
-340.348	55.585	-0.179	0.173
-339.333	412.278	-0.068	0.143
-338.318	219.954	-0.070	0.111
-337.304	-149.644	-0.461	0.036
-336.289	-200.000	0.042	0.371
-335.275	787.367	-0.047	-0.128
-334.260	-78.927	0.114	0.038
-333.245	47.599	0.166	0.154
-332.231	-49.257	-0.115	0.054
-331.216	-28.407	-0.111	-0.063
-330.202	-200.000	0.007	-0.227
-329.187	36.186	0.177	-0.155
-328.172	34.453	-0.139	0.121
-327.158	-30.910	-0.053	0.030
-326.143	800.000	0.041	-0.124
-325.129	-200.000	0.004	-0.034
-324.114	331.020	-0.045	0.086
-323.099	470.327	0.061	-0.137
-322.085	-200.000	-0.245	0.000
-321.070	21.521	-0.296	-0.239
-320.056	-11.402	0.441	0.288
-319.041	74.721	0.061	0.064
-318.026	-200.000	-0.025	-0.421
-317.012	-119.679	0.198	-0.034
-315.997	98.550	0.153	0.175
-314.983	-200.000	0.003	-0.126
-313.968	-151.593	-0.284	0.021
-312.953	737.344	-0.016	0.043
-311.939	353.979	-0.026	0.051
-310.924	800.000	-0.009	-0.034
-309.910	-14.201	0.262	0.168
-308.895	359.418	0.058	0.114
-307.880	525.342	-0.167	-0.389
-306.866	434.003	0.095	0.204
-305.851	500.350	0.049	-0.112
-304.837	-200.000	0.059	-0.402
-303.822	528.162	0.058	-0.136
-302.807	-53.791	-0.257	-0.116
-301.793	533.039	0.064	-0.151
-300.778	7.617	-0.181	-0.134
-299.764	111.976	0.048	-0.057
-298.749	437.545	0.071	-0.154
-297.735	-57.307	0.157	-0.069
-296.720	750.033	0.114	0.306
-295.705	-165.905	0.092	0.004
-294.691	800.000	0.015	-0.053
-293.676	554.224	-0.049	-0.116
-292.662	-200.000	-0.037	-0.260
-291.647	-22.654	-0.011	0.006
-290.632	137.901	-0.208	0.271
-289.618	-200.000	-0.056	0.481
-288.603	44.345	0.234	-0.213
-287.589	-86.326	0.109	-0.033
-286.574	96.002	0.166	-0.188
-285.559	-70.071	-0.170	0.064
-284.545	-89.701	-0.424	0.123
-283.530	-53.205	-0.031	0.014
-282.516	-200.000	-0.018	-0.345
-281.501	-29.638	0.117	0.066
-280.486	-200.000	-0.006	0.037
-279.472	-200.000	0.028	0.321
-278.457	-182.526	-0.302	-0.005
-277.443	255.652	-0.106	0.180
-276.428	-112.323	0.206	-0.041
-275.413	68.383	0.076	-0.078
-274.399	36.204	-0.141	0.123
-273.384	-178.363	0.107	-0.002
-272.370	-55.959	0.037	-0.016
-271.355	-24.287	0.195	0.115
-270.340	-200.000	0.005	-0.224
-269.326	21.586	-0.214	0.173
-268.311	-36.211	0.237	-0.127
-267.297	-126.887	-0.118	-0.017
-266.282	-160.912	0.165	-0.009
-265.267	-65.485	-0.202	-0.081
-264.253	-98.306	0.344	0.087
-263.238	2.131	-0.168	-0.120
-262.224	-44.042	-0.307	-0.153
-261.209	-200.000	0.371	-0.001
-260.195	800.000	0.063	0.177
-259.180	198.040	0.110	0.167
-258.165	-177.669	-0.216	0.005
-257.151	-2.940	-0.127	-0.088
-256.136	800.000	0.035	0.144
-255.122	201.022	-0.285	-0.435
-254.107	-18.685	0.059	0.037
-253.092	-0.811	0.128	-0.090
-252.078	-28.968	-0.201	0.114
-251.063	-101.985	-0.204	0.049
-250.049	800.000	0.007	-0.028
-249.034	0.026	-0.098	0.069
-248.019	770.827	0.062	-0.167
-247.005	-200.000	-0.007	-0.081
-245.990	195.639	-0.078	-0.118
-244.976	-54.300	-0.324	0.145
-243.961	-200.000	0.047	-0.512
-242.946	93.100	0.177	0.198
-241.932	165.167	-0.045	0.063
-240.917	394.013	-0.132	0.271
-239.903	-200.000	0.001	0.084
-238.888	-200.000	0.037	0.250
-237.873	-51.364	-0.132	-0.061
-236.859	-72.867	0.046	-0.017
-235.844	786.248	0.031	-0.083
-234.830	273.009	0.091	-0.159
-233.815	88.315	-0.196	-0.215
-232.800	79.904	0.077	0.081
-231.786	-8.416	0.099	0.066
-230.771	800.000	0.044	-0.174
-229.757	30.756	-0.196	-0.166
-228.742	-97.233	0.156	-0.040
-227.727	-56.616	-0.204	-0.089
-226.713	800.000	0.057	0.208
-225.698	38.619	-0.123	0.108
-224.684	-25.336	0.300	-0.176
-223.669	-149.458	-0.127	0.010
-222.655	36.995	0.055	-0.048
-221.640	-19.146	0.046	0.028
-220.625	-125.911	-0.308	0.046
-219.611	-102.372	0.133	-0.032
-218.596	-152.132	0.270	-0.019
-217.582	32.265	-0.167	-0.143
-216.567	-97.044	-0.151	-0.039
-215.552	800.000	-0.092	-0.279
-214.538	800.000	0.098	-0.274
-213.523	507.023	0.060	0.138
-212.509	-200.000	-0.013	-0.434
-211.494	-200.000	0.044	0.402
-210.479	-200.000	-0.023	-0.173
-209.465	508.993	-0.017	0.038
-208.450	16.932	0.219	-0.171
-207.436	-130.111	0.084	0.011
-206.421	114.390	-0.082	0.098
-205.406	-171.002	0.296	0.010
-204.392	543.547	-0.071	0.167
-203.377	-64.922	0.228	0.091
-202.363	-93.030	0.054	-0.015
-201.348	-141.535	0.173	-0.017
-200.333	494.996	0.017	-0.039
-199.319	110.529	0.140	0.167
-198.304	-200.000	-0.045	0.259
-197.290	-93.251	0.347	-0.095
-196.275	37.432	0.209	-0.183
-195.260	51.923	0.271	0.255
-194.246	-139.105	0.012	-0.001
-193.231	85.322	-0.137	0.149
-192.217	-23.332	-0.245	-0.145
-191.202	-124.982	0.166	-0.025
-190.187	-77.055	-0.301	-0.104
-189.173	42.258	-0.045	-0.041
-188.158	175.570	-0.106	-0.151
-187.144	207.648	-0.107	-0.165
-186.129	-32.753	0.244	-0.134
-185.114	-117.238	0.181	0.033
-184.100	-11.263	-0.198	-0.129
-183.085	800.000	-0.003	0.012
-182.071	800.000	0.031	-0.098
-181.056	92.467	-0.064	0.071
-180.042	540.678	0.058	-0.137
-179.027	-77.247	-0.353	-0.121
-178.012	328.279	0.036	0.068
-176.998	213.063	-0.238	-0.371
-175.983	691.905	0.123	-0.318
-174.969	-96.944	0.345	0.089
-173.954	-200.000	-0.011	0.119
-172.939	-150.062	0.232	0.018
-171.925	-200.000	0.036	-0.248
-170.910	59.498	-0.073	-0.071
-169.896	-70.958	0.179	-0.067
-168.881	344.395	-0.175	-0.339
-167.866	107.366	-0.033	-0.039
-166.852	7.213	-0.148	0.109
-165.837	264.060	0.133	0.228
-164.823	176.945	0.165	0.237
-163.808	260.499	-0.066	0.112
-162.793	404.260	0.169	0.352
-161.779	-48.792	0.070	-0.033
-160.764	35.707	-0.194	0.168
-159.750	-124.207	0.286	-0.044
-158.735	-68.830	0.171	-0.065
-157.720	-133.919	-0.552	0.068
-156.706	-29.403	0.138	-0.078
-155.691	-18.928	-0.130	0.080
-154.677	595.124	0.118	-0.287
-153.662	37.401	0.202	0.177
-152.647	-200.000	0.031	0.150
-151.633	-200.000	-0.018	0.102
-150.618	289.155	-0.137	0.244
-149.604	-200.000	0.040	0.230
-148.589	800.000	-0.109	0.440
-147.574	800.000	0.104	-0.287
-146.560	-39.614	0.071	0.037
-145.545	-77.211	-0.180	-0.062
-144.531	-184.285	-0.357	-0.006
-143.516	-30.237	0.024	-0.014
-142.502	245.980	0.122	0.203
-141.487	313.698	0.148	-0.275
-140.472	120.300	0.203	-0.249
-139.458	-200.000	0.052	0.373
-138.443	56.528	-0.123	0.118
-137.429	-200.000	0.056	0.245
-136.414	-111.073	-0.175	-0.035
-135.399	-110.851	0.239	-0.048
-134.385	66.925	-0.235	-0.236
-133.370	-200.000	-0.051	0.290
-132.356	-151.110	-0.198	-0.015
-131.341	16.055	0.100	-0.077
-130.326	-5.277	-0.096	-0.065
-129.312	-3.308	0.315	0.216
-128.297	288.078	0.196	0.350
-127.283	119.713	-0.156	-0.191
-126.268	-103.446	-0.103	-0.024
-125.253	206.217	-0.088	0.134
-124.239	690.286	0.038	0.097
-123.224	-200.000	0.003	0.149
-122.210	64.452	0.247	0.245
-121.195	48.403	0.115	-0.106
-120.180	-1.266	-0.214	0.149
-119.166	-91.973	-0.027	0.007
-118.151	203.298	-0.113	-0.173
-117.137	800.000	-0.078	-0.259
-116.122	489.416	0.117	-0.263
-115.107	201.063	-0.063	-0.095
-114.093	-135.549	0.356	-0.042
-113.078	52.867	0.015	-0.015
-112.064	-200.000	0.009	0.226
-111.049	800.000	-0.036	-0.127
-110.034	-103.820	-0.246	0.057
-109.020	-200.000	-0.001	-0.053
-108.005	114.336	-0.062	0.074
-106.991	-151.803	-0.187	0.014
-105.976	282.496	0.174	0.308
-104.962	-200.000	-0.110	0.480
-103.947	800.000	0.035	0.112
-102.932	343.083	-0.224	-0.433
-101.918	-101.970	-0.091	-0.022
-100.903	628.626	-0.083	0.207
-99.889	800.000	-0.036	0.106
-98.874	376.817	-0.068	-0.137
-97.859	624.961	-0.102	-0.253
-96.845	-22.441	0.253	-0.150
-95.830	396.608	-0.071	0.146
-94.816	-141.100	0.071	0.007
-93.801	800.000	0.074	-0.213
-92.786	338.993	-0.103	0.198
-91.772	115.348	0.282	0.339
-90.757	800.000	-0.100	0.283
-89.743	-39.905	-0.163	0.084
-88.728	-2.775	-0.182	0.125
-87.713	-200.000	-0.016	0.271
-86.699	240.534	0.129	-0.211
-85.684	-84.698	0.097	0.030
-84.670	-77.379	0.074	-0.025
-83.655	-22.001	-0.071	0.042
-82.640	232.012	-0.198	0.320
-81.626	-148.544	0.109	0.009
-80.611	138.402	-0.243	-0.314
-79.597	244.616	-0.154	-0.255
-78.582	115.294	0.153	0.183
-77.567	-149.390	0.503	-0.039
-76.553	-11.505	-0.200	-0.129
-75.538	102.171	-0.192	0.220
-74.524	20.974	-0.252	0.201
-73.509	666.228	0.127	0.322
-72.494	800.000	0.027	-0.094
-71.480	22.237	-0.102	0.082
-70.465	139.686	-0.143	0.185
-69.451	6.273	-0.177	0.129
-68.436	-134.355	-0.191	0.023
-67.422	-200.000	-0.022	0.176
-66.407	-200.000	-0.019	-0.288
-65.392	-68.871	-0.160	0.061
-64.378	-23.581	0.251	0.148
-63.363	-110.570	-0.220	0.045
-62.349	800.000	-0.027	-0.116
-61.334	163.216	-0.629	-0.868
-60.319	6.263	0.741	0.540
-59.305	636.738	-0.342	-0.853
-58.290	800.000	0.454	1.430
-57.276	714.039	0.728	1.895
-56.261	-200.000	109.125	592.256
-55.246	442.319	1487.772	3200.526
-54.232	146.283	2667.039	3516.451
-53.217	105.480	2155.281	2501.452
-52.203	40.803	1604.460	1421.492
-51.188	32.966	1345.963	1145.140
-50.173	29.882	1305.331	1092.358
-49.159	53.963	1359.936	1283.804
-48.144	54.358	1375.403	1300.731
-47.130	33.105	1330.199	1132.383
-46.115	29.614	1312.646	1096.714
-45.100	29.466	1307.824	1091.764
-44.086	29.439	1305.096	1089.283
-43.071	29.379	1302.729	1086.915
-42.057	29.338	1300.607	1084.859
-41.042	29.290	1298.990	1083.183
-40.027	29.309	1297.391	1081.921
-39.013	29.345	1295.518	1080.523
-37.998	29.484	1293.488	1079.602
-36.984	29.542	1292.049	1078.700
-35.969	29.514	1289.866	1076.671
-34.954	29.565	1288.369	1075.676
-33.940	29.539	1286.882	1074.238
-32.925	29.506	1286.564	1073.739
-31.911	29.653	1284.357	1072.709
-30.896	29.646	1282.809	1071.329
-29.881	29.577	1281.945	1070.168
-28.867	29.668	1279.776	1068.842
-27.852	29.567	1278.632	1067.257
-26.838	29.525	1277.659	1066.164
-25.823	29.587	1276.204	1065.266
-24.809	29.454	1275.221	1063.635
-23.794	29.528	1273.746	1062.789
-22.779	29.519	1272.819	1061.921
-21.765	29.522	1271.297	1060.627
-20.750	29.583	1269.671	1059.575
-19.736	29.502	1268.650	1058.216
-18.721	29.526	1267.298	1057.184
-17.706	29.476	1266.126	1055.880
-16.692	29.482	1265.085	1055.002
-15.677	29.486	1263.798	1053.912
-14.663	29.429	1263.086	1052.950
-13.648	29.489	1261.685	1052.085
-12.633	29.472	1260.671	1051.101
-11.619	29.453	1260.229	1050.579
-10.604	29.370	1259.548	1049.502
-9.590	29.488	1258.261	1049.054
-8.575	29.431	1257.262	1047.858
-7.560	29.496	1256.246	1047.340
-6.546	29.315	1255.824	1045.917
-5.531	29.496	1254.512	1045.812
-4.517	29.444	1253.506	1044.637
-3.502	29.496	1252.643	1044.169
-2.487	29.513	1251.713	1043.447
-1.473	29.375	1248.048	1039.572
-0.458	27.999	1232.472	1018.892
0.556	22.780	1216.030	981.845
1.571	19.213	1222.308	966.841
2.586	18.431	1236.877	973.839
3.600	18.161	1225.481	963.258
4.615	13.221	1152.680	879.723
5.629	4.607	1076.691	778.666
6.644	0.450	1056.966	743.863
7.659	0.120	1054.947	740.752
8.673	-0.003	1054.182	739.546
9.688	-0.175	1053.251	737.985
10.702	0.263	1051.116	738.570
11.717	5.401	1056.814	767.783
12.731	13.816	1068.437	817.781
13.746	17.500	1072.685	839.155
14.761	17.052	1071.279	835.773
15.775	16.015	1069.312	829.068
16.790	14.986	1066.971	822.126
17.804	14.326	1065.766	817.882
18.819	14.027	1064.192	815.135
19.834	13.678	1063.510	812.831
20.848	13.363	1062.941	810.781
21.863	13.287	1061.886	809.532
22.877	13.116	1061.219	808.117
23.892	12.948	1061.042	807.090
24.907	13.074	1059.831	806.711
25.921	13.176	1058.925	806.447
26.936	13.161	1057.998	805.596
27.950	13.222	1057.213	805.226
28.965	13.324	1056.109	804.807
29.980	13.213	1055.179	803.490
30.994	13.334	1053.725	802.897
32.009	13.331	1052.880	802.168
33.023	13.327	1051.821	801.275
34.038	13.320	1050.589	800.231
35.053	13.281	1050.369	799.800
36.067	13.281	1049.232	798.865
37.082	13.268	1048.538	798.203
38.096	13.384	1047.750	798.093
39.111	13.362	1046.791	797.186
40.126	13.179	1045.826	795.502
41.140	12.995	1044.944	793.874
42.155	13.052	1043.459	792.948
43.169	13.013	1042.465	791.937
44.184	13.118	1041.143	791.364
45.199	13.008	1040.921	790.598
46.213	13.170	1039.411	790.158
47.228	13.250	1038.825	790.022
48.242	13.142	1037.974	788.791
49.257	13.082	1036.912	787.629
50.271	13.226	1036.213	787.714
51.286	13.257	1035.220	787.036
52.301	13.206	1033.937	785.751
53.315	13.239	1033.247	785.312
54.330	13.261	1031.766	784.220
55.344	13.162	1031.485	783.470
56.359	13.000	1030.659	782.007
57.374	13.081	1029.706	781.598
58.388	13.017	1028.699	780.460
59.403	12.974	1027.730	779.451
60.417	13.062	1027.121	779.337
61.432	13.048	1026.113	778.437
62.447	12.944	1025.862	777.690
63.461	13.034	1024.951	777.351
64.476	12.929	1023.608	775.771
65.490	12.947	1023.114	775.411
66.505	13.001	1022.300	774.982
67.520	12.927	1021.888	774.253
68.534	12.978	1020.838	773.628
69.549	12.971	1020.612	773.354
70.563	12.970	1019.355	772.329
71.578	12.986	1018.420	771.626
72.593	13.029	1017.543	771.094
73.607	12.894	1017.357	770.257
74.622	13.031	1016.555	770.221
75.636	12.868	1015.853	768.858
76.651	12.938	1014.894	768.392
77.666	12.981	1014.262	768.045
78.680	13.028	1013.945	767.955
79.695	12.982	1013.453	767.304
80.709	13.123	1012.394	767.087
81.724	13.033	1011.906	766.232
82.739	13.147	1011.196	766.153
83.753	13.212	1010.536	765.888
84.768	13.250	1009.189	764.975
85.782	13.324	1008.033	764.373
86.797	13.243	1007.284	763.366
87.812	13.085	1006.804	762.202
88.826	13.088	1005.919	761.482
89.841	13.170	1005.146	761.203
90.855	13.248	1003.927	760.573
91.870	13.315	1003.425	760.433
92.884	13.388	1002.223	759.794
93.899	13.328	1001.532	758.926
94.914	13.315	1000.790	758.237
95.928	13.342	999.984	757.682
96.943	13.191	999.357	756.448
97.957	13.296	998.197	755.983
98.972	13.272	997.396	755.203
99.987	13.285	996.403	754.443
101.001	13.381	995.316	753.987
102.016	13.284	994.519	752.875
103.030	13.452	993.568	752.856
104.045	13.306	992.915	751.631
105.060	13.285	992.121	750.867
106.074	13.114	991.343	749.434
107.089	13.146	990.056	748.539
108.103	13.165	989.064	747.812
109.118	13.119	988.002	746.735
110.133	13.120	987.388	746.208
111.147	13.254	986.418	746.014
112.162	13.155	985.629	744.904
113.176	13.203	985.244	744.765
114.191	13.232	983.804	743.742
115.206	13.106	983.628	742.973
116.220	13.136	982.850	742.458
117.235	13.332	981.063	741.922
118.249	13.152	980.796	740.845
119.264	13.203	980.143	740.513
120.279	13.083	979.674	739.558
121.293	13.198	978.550	739.156
122.308	13.230	977.645	738.554
123.322	13.226	976.590	737.673
124.337	13.157	975.819	736.717
125.352	13.149	974.783	735.835
126.366	13.160	973.455	734.814
127.381	13.127	972.764	734.083
128.395	13.227	971.525	733.525
129.410	13.151	970.757	732.544
130.424	13.262	969.817	732.263
131.439	13.212	969.342	731.615
132.454	13.271	968.385	731.089
133.468	13.153	967.602	729.913
134.483	13.148	967.046	729.409
135.497	13.316	965.730	729.093
136.512	13.245	964.683	727.922
137.527	13.111	964.401	727.058
138.541	13.213	963.501	726.761
139.556	13.338	962.756	726.686
140.570	13.366	962.040	726.202
141.585	13.391	960.951	725.424
142.600	13.452	960.103	724.989
143.614	13.435	958.926	723.963
144.629	13.434	958.589	723.641
145.643	13.449	957.808	723.052
146.658	13.316	956.425	721.365
147.673	13.370	955.746	721.022
148.687	13.318	954.820	720.033
149.702	13.216	954.461	719.254
150.716	13.233	953.737	718.719
151.731	13.301	952.686	718.158
152.746	13.308	952.255	717.801
153.760	13.358	951.602	717.461
154.775	13.350	951.257	717.105
155.789	13.445	950.198	716.656
156.804	13.522	949.327	716.268
157.819	13.359	949.167	715.378
158.833	13.539	948.532	715.614
159.848	13.657	947.132	715.004
160.862	13.637	946.556	714.419
161.877	13.500	945.614	713.053
162.892	13.385	944.586	711.720
163.906	13.396	943.851	711.154
164.921	13.337	943.000	710.193
165.935	13.524	941.592	709.874
166.950	13.515	941.065	709.374
167.964	13.602	940.238	709.061
168.979	13.678	939.197	708.539
169.994	13.597	938.481	707.589
171.008	13.551	937.663	706.712
172.023	13.526	937.138	706.149
173.037	13.731	936.117	706.190
174.052	13.693	935.741	705.681
175.067	13.624	934.978	704.749
176.081	13.559	934.362	703.947
177.096	13.509	934.454	703.744
178.110	13.621	933.437	703.388
179.125	13.651	932.641	702.854
180.140	13.508	932.519	702.093
181.154	13.631	931.914	702.099
182.169	13.698	931.203	701.786
183.183	13.669	930.851	701.333
184.198	13.842	929.417	700.922
185.213	13.769	929.291	700.455
186.227	13.611	928.729	699.304
187.242	13.705	927.989	699.082
188.256	13.825	927.185	698.921
189.271	13.780	926.609	698.234
190.286	13.697	925.476	696.971
191.300	13.632	925.302	696.501
192.315	13.653	924.393	695.844
193.329	13.701	923.798	695.539
194.344	13.709	923.221	695.076
195.359	13.718	922.609	694.591
196.373	13.721	922.243	694.268
197.388	13.944	921.631	694.677
198.402	13.930	921.284	694.295
199.417	13.973	920.495	693.819
200.432	13.926	920.289	693.408
201.446	14.075	919.686	693.510
202.461	14.118	918.955	693.079
203.475	14.110	918.621	692.732
204.490	14.076	917.309	691.540
205.504	14.043	916.660	690.854
206.519	14.031	916.286	690.458
207.534	14.005	915.611	689.782
208.548	13.996	914.709	689.004
209.563	14.009	914.247	688.648
210.577	14.107	913.856	688.697
211.592	14.160	912.804	688.067
212.607	14.146	911.957	687.308
213.621	14.146	911.651	687.017
214.636	14.189	910.440	686.220
215.650	14.225	909.966	685.952
216.665	14.226	909.345	685.427
217.680	14.080	908.784	684.343
218.694	14.274	908.215	684.650
219.709	14.211	907.455	683.759
220.723	14.328	906.945	683.792
221.738	14.164	906.230	682.520
222.753	14.311	904.903	682.063
223.767	14.208	904.987	681.643
224.782	14.361	904.222	681.634
225.796	14.290	904.109	681.198
226.811	14.340	902.876	680.414
227.826	14.332	902.174	679.791
228.840	14.236	901.495	678.829
229.855	14.352	900.347	678.376
230.869	14.344	899.945	677.982
231.884	14.166	899.680	676.996
232.899	14.353	898.652	676.921
233.913	14.248	898.143	676.054
234.928	14.369	897.344	675.884
235.942	14.249	897.063	675.124
236.957	14.367	896.231	674.917
237.972	14.428	895.244	674.362
238.986	14.431	894.600	673.829
240.001	14.531	893.961	673.690
241.015	14.426	893.723	673.030
242.030	14.414	892.985	672.363
243.045	14.388	892.812	672.070
244.059	14.310	892.162	671.207
245.074	14.424	891.312	670.967
246.088	14.579	890.623	671.011
247.103	14.688	889.686	670.683
248.117	14.606	889.428	670.103
249.132	14.579	888.942	669.567
250.147	14.814	888.173	669.871
251.161	14.734	887.698	669.135
252.176	14.762	886.678	668.418
253.190	14.787	886.391	668.242
254.205	14.916	885.706	668.184
255.220	14.898	885.187	667.658
256.234	14.848	884.484	666.871
257.249	14.907	883.858	666.574
258.263	14.858	883.066	665.723
259.278	14.797	882.238	664.796
260.293	14.985	881.429	664.878
261.307	14.943	881.081	664.388
262.322	15.136	880.222	664.447
263.336	14.931	879.766	663.233
264.351	15.154	878.771	663.307
265.366	14.955	878.319	662.119
266.380	15.219	877.636	662.591
267.395	14.988	877.217	661.300
268.409	15.137	876.313	661.151
269.424	15.092	875.572	660.354
270.439	15.024	874.927	659.540
271.453	15.158	874.337	659.564
272.468	15.072	873.838	658.791
273.482	15.036	873.368	658.240
274.497	15.207	872.863	658.472
275.512	15.221	871.913	657.752
276.526	15.190	871.714	657.422
277.541	15.040	871.318	656.476
278.555	15.061	871.131	656.360
279.570	15.214	870.194	656.196
280.585	15.329	869.444	656.021
281.599	15.150	868.767	654.753
282.614	15.257	868.105	654.613
283.628	15.305	867.364	654.185
284.643	15.260	866.525	653.318
285.657	15.305	866.113	653.127
286.672	15.454	865.259	653.003
287.687	15.377	864.726	652.244
288.701	15.488	864.040	652.099
289.716	15.457	863.393	651.432
290.730	15.455	862.958	651.041
291.745	15.398	862.417	650.355
292.760	15.464	861.687	650.002
293.774	15.568	861.063	649.876
294.789	15.381	860.793	648.889
295.803	15.331	859.939	647.996
296.818	15.386	859.491	647.814
297.833	15.458	858.718	647.451
298.847	15.391	858.298	646.818
299.862	15.544	857.758	646.942
300.876	15.480	857.306	646.300
301.891	15.589	856.537	646.083
302.906	15.611	856.137	645.809
303.920	15.590	855.664	645.313
304.935	15.676	854.721	644.875
305.949	15.714	854.052	644.460
306.964	15.759	853.384	644.069
307.979	15.764	852.672	643.495
308.993	15.765	852.038	642.964
310.008	15.706	851.755	642.468
311.022	15.828	851.057	642.350
312.037	15.566	850.900	641.174
313.052	15.608	849.857	640.491
314.066	15.572	849.809	640.261
315.081	15.717	848.993	640.143
316.095	15.688	848.350	639.491
317.110	15.694	848.293	639.413
318.125	15.785	847.218	638.894
319.139	15.704	846.976	638.345
320.154	15.671	846.604	637.882
321.168	15.788	845.843	637.697
322.183	15.747	845.439	637.183
323.197	15.779	844.778	636.749
324.212	15.684	844.317	635.986
325.227	15.763	844.095	636.059
326.241	15.718	843.185	635.147
327.256	15.939	842.385	635.322
328.270	15.905	842.066	634.899
329.285	15.683	841.861	633.849
330.300	15.850	840.999	633.776
331.314	15.783	840.376	632.996
332.329	15.866	839.976	632.950
333.343	16.036	839.258	632.994
334.358	16.026	838.804	632.555
335.373	16.101	838.802	632.783
336.387	15.940	838.780	632.104
337.402	16.070	838.334	632.200
338.416	16.113	837.840	631.931
339.431	16.030	837.607	631.390
340.446	15.999	837.198	630.908
341.460	16.193	836.631	631.150
342.475	16.055	836.536	630.507
343.489	16.258	835.799	630.656
344.504	16.332	834.932	630.221
345.519	16.251	834.635	629.641
346.533	16.287	834.223	629.407
347.548	16.053	834.140	628.416
348.562	16.129	833.265	627.987
349.577	16.073	832.885	627.435
350.592	16.130	832.158	627.043
351.606	16.132	831.568	626.552
352.621	16.231	830.550	626.094
353.635	16.234	830.272	625.840
354.650	16.321	829.234	625.327
355.665	16.246	828.641	624.547
356.679	16.281	828.234	624.313
357.694	16.430	827.415	624.192
358.708	16.305	827.053	623.400
359.723	16.336	826.543	623.074
360.738	16.409	825.896	622.802
361.752	16.315	825.628	622.198
362.767	16.427	824.628	621.804
363.781	16.435	824.563	621.729
364.796	16.474	823.955	621.357
365.810	16.518	823.597	621.193
366.825	16.602	823.028	621.019
367.840	16.726	822.229	620.814
368.854	16.562	822.155	620.104
369.869	16.645	821.648	619.972
370.883	16.502	821.358	619.174
371.898	16.630	820.854	619.206
372.913	16.743	820.310	619.155
373.927	16.682	819.997	618.640
374.942	16.790	819.436	618.557
375.956	16.630	818.990	617.583
376.971	16.775	818.562	617.733
377.986	16.777	818.137	617.365
379.000	16.807	817.628	617.034
380.015	16.861	816.914	616.639
381.029	16.943	816.366	616.468
382.044	16.885	816.047	615.963
383.059	17.092	815.250	616.060
384.073	16.784	814.679	614.456
385.088	16.775	814.161	613.976
386.102	16.865	813.404	613.676
387.117	16.820	813.029	613.176
388.132	16.995	812.435	613.307
389.146	16.779	812.227	612.317
390.161	17.001	811.439	612.469
391.175	17.029	810.977	612.167
392.190	16.933	810.600	611.483
393.205	16.891	810.130	610.921
394.219	16.761	809.899	610.226
395.234	16.832	809.391	610.043
396.248	16.901	809.123	610.038
397.263	16.707	808.899	609.115
398.278	16.958	808.363	609.561
399.292	16.886	807.720	608.763
400.307	16.862	807.015	608.091
401.321	16.892	806.573	607.815
402.336	17.033	806.150	607.945
403.350	16.999	805.877	607.562
404.365	17.025	805.593	607.390
405.380	17.113	804.916	607.139
406.394	17.211	804.262	606.945
407.409	17.120	803.920	606.306
408.423	17.256	803.721	606.586
409.438	17.400	803.126	606.599
410.453	17.298	803.263	606.285
411.467	17.248	802.689	605.621
412.482	17.363	801.725	605.250
413.496	17.493	801.696	605.634
414.511	17.380	801.321	604.896
415.526	17.244	800.917	604.055
416.540	17.246	800.364	603.591
417.555	17.185	800.125	603.142
418.569	17.337	799.428	603.101
419.584	17.313	798.885	602.553
420.599	17.472	798.405	602.702
421.613	109.038	1292.425	1468.602
422.628	93.773	1364.373	1468.704
