DTS Sentinel unit serial number:	SN413079Multiplexer serial number:	ORYXHardware model number:	OX4-SRSoftware version number:	ORYX F/W v4.00 Oryx Data Collector v3.7.2.0data status	okinstallation	princeton_trtdifferential loss correction	single-endedforward channel	channel 1reverse channel	N/Adate	2019/09/11time	18:08:11forward acquisition time	60.00reverse acquisition time	0.00gamma	496.2192k internal	0.2291k external	0.2291temperature offset calibration	1.0002default loss term (dB/km)	0.3790temperature slope calibration	1.0000multiplexer offset coefficient	1.0000multiplexer slope coefficient	1.0000fibre end	0.00T internal ref (°C)	44.02T ext. ref 1 (°C)	1.15T ext. ref 2 (°C)	38.79length (m)	temperature (°C)	Stokes	anti-Stokes-747.200	194.460	-0.138	0.215
-746.185	-81.363	-0.186	0.063
-745.171	800.000	-0.047	-0.182
-744.156	-109.363	0.083	-0.018
-743.142	-187.473	-0.054	-0.001
-742.127	800.000	0.055	-0.169
-741.112	385.738	0.120	0.254
-740.098	231.501	-0.013	-0.022
-739.083	-166.612	0.139	-0.006
-738.069	800.000	0.057	0.231
-737.054	155.211	-0.259	0.365
-736.039	-198.058	-0.199	-0.001
-735.025	93.192	0.204	0.237
-734.010	-25.763	0.136	0.082
-732.996	421.855	-0.076	-0.168
-731.981	-200.000	0.033	0.187
-730.966	-78.669	-0.087	0.030
-729.952	-195.852	-0.160	0.001
-728.937	147.439	-0.118	0.163
-727.923	-86.899	-0.078	0.024
-726.908	-200.000	-0.036	-0.163
-725.894	226.953	-0.134	-0.223
-724.879	-200.000	-0.074	-0.420
-723.864	-200.000	0.022	0.163
-722.850	9.939	-0.058	0.045
-721.835	-181.255	0.118	-0.002
-720.821	276.642	0.065	0.118
-719.806	150.852	-0.217	0.302
-718.791	-130.116	0.147	0.020
-717.777	800.000	0.174	-0.754
-716.762	-99.030	0.069	0.018
-715.748	-151.022	0.227	0.017
-714.733	604.915	-0.041	-0.105
-713.718	-134.434	-0.327	-0.041
-712.704	164.668	-0.357	0.515
-711.689	175.917	-0.183	0.272
-710.675	-112.523	-0.098	-0.020
-709.660	151.136	0.220	-0.306
-708.645	800.000	-0.096	0.315
-707.631	-200.000	0.019	0.217
-706.616	95.092	-0.296	0.344
-705.602	-131.409	-0.245	0.033
-704.587	-10.935	-0.163	0.110
-703.572	-52.521	0.313	-0.148
-702.558	127.314	-0.226	-0.293
-701.543	-56.994	-0.274	-0.124
-700.529	35.002	-0.197	-0.177
-699.514	-135.318	-0.160	0.020
-698.499	325.637	0.183	0.358
-697.485	-33.210	-0.237	-0.134
-696.470	148.489	0.130	-0.179
-695.456	38.365	-0.099	0.091
-694.441	-63.797	-0.409	-0.171
-693.426	100.513	-0.196	-0.233
-692.412	-200.000	-0.005	0.203
-691.397	-147.169	-0.536	-0.047
-690.383	325.816	0.055	-0.108
-689.368	164.969	-0.106	-0.153
-688.354	-200.000	0.022	-0.249
-687.339	-64.685	0.068	0.028
-686.324	-139.966	-0.087	0.009
-685.310	2.065	0.238	0.175
-684.295	-28.125	-0.224	0.132
-683.281	120.428	0.103	-0.131
-682.266	380.335	0.092	0.192
-681.251	-200.000	0.024	-0.140
-680.237	-200.000	-0.018	-0.312
-679.222	48.340	0.314	0.300
-678.208	-74.003	-0.044	0.016
-677.193	144.491	-0.138	0.188
-676.178	-155.189	-0.211	-0.014
-675.164	-28.846	0.094	-0.055
-674.149	-107.355	-0.271	0.061
-673.135	-100.647	-0.139	-0.035
-672.120	-20.245	-0.280	-0.176
-671.105	117.876	-0.164	-0.207
-670.091	-81.792	0.233	-0.078
-669.076	800.000	-0.009	-0.028
-668.062	166.896	0.077	0.111
-667.047	247.508	-0.218	-0.375
-666.032	48.257	0.145	0.139
-665.018	800.000	0.079	0.239
-664.003	43.582	0.075	0.070
-662.989	56.351	-0.182	-0.181
-661.974	-131.209	0.276	-0.037
-660.959	-69.702	0.165	0.065
-659.945	242.312	-0.112	0.191
-658.930	284.232	0.064	-0.118
-657.916	70.217	-0.109	0.115
-656.901	-160.040	0.307	0.017
-655.886	90.213	0.094	0.107
-654.872	558.406	-0.105	-0.258
-653.857	-200.000	-0.022	-0.196
-652.843	-107.209	-0.113	0.026
-651.828	-105.590	0.344	0.080
-650.814	-139.072	0.205	0.023
-649.799	-112.950	0.192	0.039
-648.784	-119.774	0.208	0.037
-647.770	800.000	-0.106	0.346
-646.755	-200.000	0.075	0.385
-645.741	-83.541	-0.461	-0.151
-644.726	363.009	0.116	-0.237
-643.711	-200.000	-0.013	0.067
-642.697	74.196	0.139	-0.149
-641.682	-145.501	0.167	-0.015
-640.668	800.000	0.038	-0.110
-639.653	7.207	-0.170	-0.129
-638.638	342.085	0.079	-0.157
-637.624	-200.000	-0.028	-0.393
-636.609	256.532	0.002	0.003
-635.595	-80.870	0.100	-0.034
-634.580	-139.599	-0.244	0.027
-633.565	-200.000	0.031	0.144
-632.551	800.000	-0.056	-0.186
-631.536	56.254	-0.193	0.192
-630.522	681.690	-0.116	0.308
-629.507	-200.000	0.025	0.178
-628.492	267.959	0.138	0.247
-627.478	16.466	0.115	0.092
-626.463	61.397	-0.068	0.069
-625.449	-76.236	0.401	-0.144
-624.434	-108.686	-0.407	-0.089
-623.419	307.553	-0.074	0.141
-622.405	359.490	-0.053	-0.109
-621.390	126.466	-0.169	-0.218
-620.376	776.666	0.119	0.331
-619.361	-200.000	-0.029	0.161
-618.346	225.350	0.193	-0.319
-617.332	-48.718	0.081	0.040
-616.317	800.000	0.087	-0.329
-615.303	35.466	0.116	-0.104
-614.288	-114.026	0.056	-0.011
-613.273	-49.141	-0.154	-0.075
-612.259	570.378	0.014	0.035
-611.244	-105.695	-0.209	-0.048
-610.230	-120.113	-0.207	0.036
-609.215	-29.772	-0.188	0.109
-608.201	-200.000	-0.004	0.239
-607.186	57.987	0.102	-0.102
-606.171	325.019	-0.088	-0.171
-605.157	-191.219	0.313	0.003
-604.142	800.000	0.035	-0.126
-603.128	-13.007	0.208	0.138
-602.113	32.906	-0.284	0.250
-601.098	-200.000	0.022	-0.121
-600.084	546.811	0.097	0.236
-599.069	-48.543	0.320	0.157
-598.055	-72.241	0.125	-0.047
-597.040	296.184	0.043	-0.080
-596.025	800.000	-0.080	-0.328
-595.011	-99.126	-0.089	-0.023
-593.996	-115.606	0.234	0.045
-592.982	442.845	0.131	-0.292
-591.967	11.419	0.318	0.248
-590.952	314.906	0.084	0.162
-589.938	63.977	-0.139	0.143
-588.923	-200.000	0.017	-0.303
-587.909	-71.793	0.378	0.143
-586.894	800.000	0.075	0.269
-585.879	-150.351	0.161	-0.013
-584.865	800.000	0.045	-0.176
-583.850	-68.956	-0.055	-0.022
-582.836	1.978	0.048	-0.036
-581.821	36.559	0.154	-0.138
-580.806	-44.416	0.198	-0.101
-579.792	64.843	0.135	-0.139
-578.777	0.106	-0.221	0.160
-577.763	-84.623	-0.409	-0.131
-576.748	-72.725	0.344	-0.129
-575.733	800.000	0.112	0.445
-574.719	385.995	0.063	0.133
-573.704	97.862	0.118	-0.138
-572.690	-57.383	0.140	-0.062
-571.675	-200.000	0.030	-0.375
-570.661	-91.280	0.071	-0.021
-569.646	76.115	-0.148	-0.160
-568.631	-29.305	-0.296	0.172
-567.617	-107.846	-0.141	-0.031
-566.602	-145.817	0.167	0.015
-565.588	-103.100	0.279	-0.067
-564.573	-89.740	-0.176	0.052
-563.558	55.269	0.121	0.119
-562.544	-200.000	-0.038	0.377
-561.529	156.261	0.048	0.068
-560.515	-44.423	0.250	0.127
-559.500	-113.915	0.328	0.065
-558.485	800.000	0.080	-0.228
-557.471	644.458	-0.082	0.212
-556.456	17.255	-0.147	-0.119
-555.442	-200.000	-0.005	0.106
-554.427	-94.192	0.248	0.069
-553.412	-200.000	0.003	0.181
-552.398	-47.589	-0.305	-0.150
-551.383	-148.076	0.208	-0.018
-550.369	-200.000	0.109	0.584
-549.354	-200.000	-0.043	-0.360
-548.339	-1.501	0.143	0.102
-547.325	-137.098	0.065	-0.008
-546.310	-23.009	-0.184	-0.113
-545.296	-18.723	-0.197	-0.125
-544.281	395.898	-0.036	0.077
-543.266	800.000	-0.044	-0.142
-542.252	336.496	-0.074	0.147
-541.237	-85.076	0.321	-0.102
-540.223	35.342	0.374	-0.333
-539.208	800.000	-0.096	-0.302
-538.193	479.240	0.099	0.228
-537.179	76.874	-0.326	0.351
-536.164	-68.072	0.178	0.070
-535.150	178.507	-0.149	-0.221
-534.135	-28.208	-0.294	0.173
-533.121	142.620	-0.135	-0.183
-532.106	239.674	-0.086	0.145
-531.091	124.220	0.025	-0.031
-530.077	-178.831	0.328	0.008
-529.062	187.398	-0.065	-0.099
-528.048	-79.135	-0.166	-0.057
-527.033	-48.783	0.189	-0.092
-526.018	84.875	0.124	0.138
-525.004	800.000	0.032	0.135
-523.989	258.096	0.182	-0.318
-522.975	-72.847	-0.092	-0.034
-521.960	-57.808	0.124	0.055
-520.945	397.870	0.027	0.057
-519.931	-33.849	-0.170	0.095
-518.916	-125.775	-0.189	-0.029
-517.902	21.600	0.188	-0.155
-516.887	-140.999	-0.269	0.028
-515.872	-118.741	0.398	-0.071
-514.858	-200.000	-0.038	-0.199
-513.843	134.880	0.140	-0.184
-512.829	-48.528	-0.208	0.102
-511.814	-65.673	-0.077	0.031
-510.799	-184.759	-0.502	0.008
-509.785	-5.456	-0.065	0.045
-508.770	800.000	0.034	0.125
-507.756	-61.193	0.240	-0.103
-506.741	-15.815	0.101	0.065
-505.726	-19.359	0.548	-0.345
-504.712	366.364	-0.176	-0.359
-503.697	41.613	-0.197	-0.181
-502.683	169.499	-0.171	-0.248
-501.668	-200.000	-0.041	-0.448
-500.653	-119.665	0.070	-0.012
-499.639	65.790	-0.178	0.183
-498.624	9.723	0.160	0.123
-497.610	-182.745	0.178	0.003
-496.595	800.000	0.080	-0.260
-495.581	450.828	-0.023	0.052
-494.566	84.438	-0.097	0.107
-493.551	21.599	-0.039	-0.032
-492.537	115.545	-0.121	0.151
-491.522	-19.209	-0.287	0.180
-490.508	99.450	0.034	0.040
-489.493	-185.881	0.306	0.005
-488.478	-200.000	-0.026	-0.225
-487.464	-66.581	0.183	-0.074
-486.449	704.660	-0.047	0.126
-485.435	-96.478	-0.166	-0.044
-484.420	-13.757	0.144	-0.094
-483.405	55.947	-0.084	-0.083
-482.391	-143.390	0.194	-0.019
-481.376	-32.381	-0.161	-0.091
-480.362	-186.800	-0.378	-0.005
-479.347	48.807	-0.207	-0.197
-478.332	-200.000	0.017	0.118
-477.318	800.000	0.107	-0.316
-476.303	208.839	-0.079	0.125
-475.289	-77.196	-0.385	-0.136
-474.274	-200.000	0.056	0.638
-473.259	-200.000	0.046	0.238
-472.245	-200.000	-0.043	0.291
-471.230	21.005	-0.308	-0.253
-470.216	-2.259	0.188	0.133
-469.201	-200.000	-0.042	-0.459
-468.186	221.417	-0.138	0.225
-467.172	-153.427	0.308	0.022
-466.157	-87.023	-0.441	0.136
-465.143	-135.875	0.160	0.019
-464.128	-98.484	0.254	0.066
-463.113	800.000	-0.080	-0.257
-462.099	26.904	0.255	-0.217
-461.084	-90.176	-0.030	0.009
-460.070	-12.644	-0.155	-0.102
-459.055	73.069	-0.075	0.080
-458.040	-200.000	0.066	-0.367
-457.026	535.009	-0.137	-0.329
-456.011	800.000	0.036	0.127
-454.997	-200.000	-0.008	-0.138
-453.982	17.992	-0.084	-0.068
-452.968	-104.726	-0.301	0.070
-451.953	-106.671	0.200	-0.045
-450.938	800.000	-0.086	0.245
-449.924	-24.813	-0.109	0.066
-448.909	-38.657	-0.335	0.179
-447.895	-55.386	-0.126	-0.057
-446.880	497.724	0.096	0.223
-445.865	-200.000	0.015	0.083
-444.851	179.210	-0.097	-0.144
-443.836	799.351	0.057	-0.160
-442.822	-200.000	0.015	0.158
-441.807	56.849	0.142	0.140
-440.792	800.000	-0.068	0.240
-439.778	-200.000	-0.002	0.018
-438.763	36.153	0.288	0.257
-437.749	448.099	-0.174	0.387
-436.734	-157.881	-0.278	0.017
-435.719	96.723	-0.141	-0.164
-434.705	133.885	0.040	-0.053
-433.690	-7.165	0.130	-0.089
-432.676	-10.718	0.092	0.062
-431.661	-25.542	0.224	-0.134
-430.646	-18.095	0.192	-0.122
-429.632	96.201	-0.124	-0.143
-428.617	-83.738	-0.381	0.123
-427.603	-200.000	-0.003	0.070
-426.588	-200.000	0.039	-0.411
-425.573	-200.000	0.051	0.287
-424.559	26.888	0.117	0.099
-423.544	-79.633	0.246	-0.084
-422.530	-7.974	-0.312	0.213
-421.515	12.578	-0.085	0.066
-420.500	-200.000	-0.008	0.145
-419.486	-200.000	0.035	-0.256
-418.471	-105.741	0.095	-0.022
-417.457	57.510	-0.364	-0.360
-416.442	341.735	-0.081	-0.161
-415.428	-49.414	-0.352	-0.170
-414.413	-162.334	-0.186	-0.009
-413.398	71.450	-0.244	-0.256
-412.384	-121.632	-0.113	0.019
-411.369	-137.117	0.110	0.013
-410.355	108.335	-0.347	0.418
-409.340	311.579	-0.120	-0.227
-408.325	-2.598	-0.060	-0.042
-407.311	59.630	-0.228	-0.228
-406.296	-131.297	0.243	0.033
-405.282	-200.000	-0.033	0.329
-404.267	-100.746	0.174	0.043
-403.252	151.536	-0.272	-0.375
-402.238	62.741	-0.149	0.150
-401.223	-200.000	0.013	0.218
-400.209	291.877	-0.117	0.216
-399.194	-105.647	-0.136	-0.031
-398.179	-20.472	-0.160	0.099
-397.165	705.586	0.078	0.207
-396.150	800.000	0.074	-0.326
-395.136	-139.702	-0.295	0.032
-394.121	800.000	-0.049	0.200
-393.106	-29.403	-0.325	0.188
-392.092	17.882	0.308	0.248
-391.077	-57.046	0.533	0.237
-390.063	59.821	0.093	-0.093
-389.048	-154.977	0.237	-0.016
-388.033	-3.370	-0.087	-0.061
-387.019	-116.497	0.189	0.035
-386.004	800.000	0.057	-0.213
-384.990	-66.936	-0.102	-0.041
-383.975	509.678	0.090	-0.212
-382.960	-8.790	-0.153	0.103
-381.946	800.000	-0.057	0.211
-380.931	800.000	-0.068	0.268
-379.917	-36.050	0.095	-0.052
-378.902	78.816	-0.148	0.160
-377.888	-101.003	0.127	-0.031
-376.873	486.192	0.140	-0.321
-375.858	800.000	-0.058	0.257
-374.844	-45.022	0.482	-0.242
-373.829	35.226	0.116	-0.102
-372.815	-200.000	-0.003	-0.144
-371.800	27.840	-0.121	0.103
-370.785	-153.758	0.197	-0.014
-369.771	-158.763	-0.311	0.018
-368.756	-200.000	-0.031	0.343
-367.742	-194.155	0.144	0.001
-366.727	-200.000	0.018	0.172
-365.712	-200.000	0.039	0.180
-364.698	-113.453	0.143	-0.028
-363.683	-200.000	-0.191	-0.000
-362.669	-200.000	0.017	-0.088
-361.654	-92.464	0.194	-0.055
-360.639	-174.847	-0.189	-0.005
-359.625	-95.731	0.015	-0.004
-358.610	-200.000	0.007	-0.031
-357.596	-165.432	0.256	0.011
-356.581	-55.819	-0.293	0.132
-355.566	94.548	0.052	0.060
-354.552	-66.615	0.065	-0.026
-353.537	98.602	0.207	-0.240
-352.523	800.000	-0.040	0.173
-351.508	-5.081	-0.105	-0.073
-350.493	-71.165	-0.241	0.091
-349.479	800.000	-0.041	0.151
-348.464	-183.360	-0.185	0.003
-347.450	199.155	-0.200	-0.309
-346.435	96.084	-0.155	0.179
-345.420	47.636	-0.083	-0.079
-344.406	800.000	0.078	0.232
-343.391	-13.204	0.221	-0.145
-342.377	800.000	-0.087	-0.342
-341.362	-74.792	0.096	0.035
-340.348	7.818	0.307	-0.232
-339.333	-200.000	-0.008	0.161
-338.318	-92.294	0.162	-0.046
-337.304	-65.223	-0.166	-0.067
-336.289	-97.505	-0.177	-0.046
-335.275	-24.569	-0.246	-0.148
-334.260	-168.596	-0.363	0.014
-333.245	279.982	0.125	0.224
-332.231	316.190	-0.256	-0.488
-331.216	20.359	-0.205	-0.167
-330.202	800.000	0.024	0.089
-329.187	-99.019	-0.202	0.052
-328.172	800.000	0.058	0.230
-327.158	-200.000	0.002	0.343
-326.143	-200.000	0.008	-0.081
-325.129	-200.000	-0.011	0.232
-324.114	-72.865	-0.282	-0.105
-323.099	-38.187	0.198	0.106
-322.085	-50.203	0.241	0.115
-321.070	-181.447	-0.151	0.003
-320.056	-184.077	-0.107	-0.002
-319.041	800.000	0.087	0.325
-318.026	713.991	0.092	0.245
-317.012	76.416	-0.059	0.063
-315.997	-101.494	0.255	0.062
-314.983	638.034	-0.133	0.341
-313.968	-37.374	0.441	0.237
-312.953	-200.000	0.006	0.058
-311.939	-75.943	0.265	0.094
-310.924	-78.952	-0.366	-0.126
-309.910	-167.651	0.308	-0.012
-308.895	-200.000	-0.002	-0.154
-307.880	-11.089	0.119	0.079
-306.866	468.285	0.061	0.137
-305.851	-153.408	0.467	-0.033
-304.837	800.000	0.144	-0.457
-303.822	-200.000	0.053	-0.485
-302.807	-68.356	0.078	-0.031
-301.793	73.027	-0.153	-0.161
-300.778	55.753	0.162	0.158
-299.764	-62.277	0.167	-0.070
-298.749	-69.608	0.176	-0.068
-297.735	-184.890	0.269	0.004
-296.720	-43.071	-0.353	-0.180
-295.705	99.541	0.097	0.113
-294.691	-92.718	0.294	-0.083
-293.676	-105.711	0.216	0.049
-292.662	-158.849	0.168	-0.010
-291.647	-103.830	-0.323	-0.076
-290.632	376.091	0.136	0.280
-289.618	800.000	-0.098	0.336
-288.603	-2.997	-0.070	0.049
-287.589	-200.000	0.009	-0.251
-286.574	245.621	0.188	0.318
-285.559	-148.151	-0.303	0.025
-284.545	-156.677	-0.098	-0.006
-283.530	-57.874	-0.109	0.048
-282.516	112.412	-0.018	-0.021
-281.501	68.089	0.094	-0.097
-280.486	71.687	0.116	0.121
-279.472	20.605	-0.280	0.227
-278.457	-185.717	-0.275	0.004
-277.443	-200.000	-0.002	0.136
-276.428	-200.000	0.019	0.146
-275.413	-63.085	0.139	-0.058
-274.399	800.000	-0.115	0.364
-273.384	-89.582	0.221	0.065
-272.370	762.851	-0.034	0.092
-271.355	225.740	-0.054	0.088
-270.340	233.122	-0.203	0.335
-269.326	19.470	-0.254	0.206
-268.311	-200.000	-0.071	-0.357
-267.297	333.313	-0.021	-0.042
-266.282	-200.000	0.062	-0.426
-265.267	15.821	-0.072	0.057
-264.253	170.911	0.129	-0.186
-263.238	-125.766	-0.088	0.013
-262.224	-14.677	0.455	0.294
-261.209	-83.117	0.208	0.067
-260.195	-89.685	-0.156	-0.046
-259.180	800.000	0.102	-0.333
-258.165	33.704	0.061	0.053
-257.151	705.846	0.029	-0.078
-256.136	-200.000	-0.036	-0.198
-255.122	-200.000	-0.017	0.087
-254.107	87.215	0.055	0.061
-253.092	-200.000	-0.008	0.118
-252.078	683.045	0.012	0.032
-251.063	-19.231	0.132	0.082
-250.049	66.259	-0.159	-0.162
-249.034	-112.858	0.063	-0.012
-248.019	105.087	0.067	-0.080
-247.005	-58.783	-0.187	-0.081
-245.990	155.806	-0.316	-0.438
-244.976	36.784	0.334	-0.297
-243.961	-200.000	-0.065	0.405
-242.946	103.995	-0.271	0.320
-241.932	-58.816	0.183	-0.080
-240.917	-146.532	-0.107	0.009
-239.903	-200.000	-0.017	-0.151
-238.888	105.782	0.159	0.189
-237.873	-109.462	0.338	0.072
-236.859	800.000	-0.024	0.104
-235.844	187.954	0.052	-0.078
-234.830	-153.014	-0.092	0.007
-233.815	119.612	-0.246	-0.306
-232.800	-146.997	-0.181	-0.016
-231.786	123.332	-0.218	0.274
-230.771	-184.265	0.225	-0.004
-229.757	-89.806	0.077	0.023
-228.742	10.222	0.236	0.180
-227.727	239.245	-0.087	0.146
-226.713	-200.000	0.040	-0.218
-225.698	-11.687	-0.460	-0.303
-224.684	549.683	0.021	0.049
-223.669	8.923	-0.162	0.123
-222.655	800.000	0.057	0.184
-221.640	726.060	-0.082	-0.221
-220.625	-70.674	0.246	-0.093
-219.611	319.098	-0.039	0.074
-218.596	410.463	0.037	-0.078
-217.582	800.000	0.065	-0.184
-216.567	20.673	-0.073	0.059
-215.552	395.671	0.184	-0.385
-214.538	-200.000	-0.013	-0.116
-213.523	682.873	-0.066	0.174
-212.509	2.631	0.216	-0.157
-211.494	-17.072	0.308	-0.195
-210.479	-24.827	-0.280	-0.167
-209.465	-56.911	0.132	-0.059
-208.450	-51.831	-0.250	-0.117
-207.436	800.000	-0.036	-0.132
-206.421	20.726	-0.170	-0.138
-205.406	141.934	-0.299	0.397
-204.392	306.331	0.106	0.198
-203.377	-200.000	-0.007	0.044
-202.363	-85.524	0.274	-0.086
-201.348	-200.000	0.004	0.302
-200.333	307.930	0.084	0.158
-199.319	-200.000	-0.053	-0.294
-198.304	326.890	0.069	-0.133
-197.290	-196.340	-0.388	-0.003
-196.275	-138.786	0.275	0.030
-195.260	-85.022	0.381	0.120
-194.246	-200.000	0.005	0.077
-193.231	363.566	0.056	-0.114
-192.217	-31.296	-0.240	0.135
-191.202	800.000	-0.107	0.328
-190.187	-6.320	-0.184	-0.126
-189.173	-200.000	-0.049	0.282
-188.158	-200.000	0.026	0.129
-187.144	24.969	0.326	-0.271
-186.129	-142.038	-0.031	-0.003
-185.114	642.968	-0.054	0.138
-184.100	800.000	-0.087	0.265
-183.085	-200.000	0.088	-0.390
-182.071	113.581	0.156	-0.190
-181.056	-200.000	-0.060	0.415
-180.042	-117.388	-0.238	0.043
-179.027	-166.241	-0.239	0.010
-178.012	-94.552	-0.200	-0.055
-176.998	-200.000	-0.036	-0.167
-175.983	334.823	0.126	-0.245
-174.969	181.457	-0.119	0.176
-173.954	-48.832	-0.070	-0.034
-172.939	-143.374	-0.277	0.027
-171.925	-200.000	-0.061	0.363
-170.910	-200.000	0.004	-0.233
-169.896	-200.000	0.019	-0.183
-168.881	60.574	0.124	-0.123
-167.866	49.872	0.046	-0.043
-166.852	320.351	-0.093	-0.177
-165.837	-200.000	0.022	0.165
-164.823	-192.659	0.241	-0.002
-163.808	-156.096	0.023	0.001
-162.793	152.494	-0.037	-0.051
-161.779	186.273	-0.079	0.118
-160.764	-200.000	0.061	-0.299
-159.750	113.907	0.115	-0.140
-158.735	-52.495	0.029	0.014
-157.720	-68.414	0.141	-0.055
-156.706	582.801	0.054	-0.131
-155.691	-30.122	0.098	0.056
-154.677	-80.218	0.156	-0.052
-153.662	-18.024	-0.134	-0.084
-152.647	800.000	-0.104	0.326
-151.633	127.105	0.057	-0.073
-150.618	158.827	0.086	0.120
-149.604	606.952	0.067	-0.168
-148.589	134.587	0.101	0.131
-147.574	-200.000	0.016	0.322
-146.560	672.424	-0.011	-0.027
-145.545	-200.000	0.004	-0.101
-144.531	-49.108	-0.261	0.125
-143.516	-60.562	0.192	0.081
-142.502	-200.000	0.098	0.476
-141.487	-160.205	-0.450	-0.024
-140.472	-20.175	-0.315	0.194
-139.458	-4.703	0.096	-0.066
-138.443	-200.000	0.046	-0.232
-137.429	-125.258	0.307	0.047
-136.414	-85.985	0.250	0.077
-135.399	-200.000	0.074	-0.399
-134.385	9.221	0.155	-0.118
-133.370	176.299	-0.094	-0.136
-132.356	-141.287	-0.201	0.020
-131.341	40.681	0.091	0.082
-130.326	89.951	-0.038	-0.042
-129.312	800.000	0.049	-0.211
-128.297	114.146	-0.151	0.184
-127.283	-132.202	0.273	-0.035
-126.268	-69.113	0.264	-0.102
-125.253	48.033	0.021	0.020
-124.239	800.000	0.047	0.165
-123.224	133.205	0.113	-0.146
-122.210	-37.182	0.191	0.102
-121.195	-43.125	-0.116	0.059
-120.180	174.470	-0.308	0.445
-119.166	-25.851	0.126	-0.074
-118.151	-171.747	-0.253	0.008
-117.137	-38.717	-0.183	-0.097
-116.122	-200.000	-0.102	0.000
-115.107	6.838	0.186	0.139
-114.093	260.175	0.112	0.193
-113.078	-200.000	0.021	0.339
-112.064	800.000	0.038	0.132
-111.049	247.403	0.240	0.406
-110.034	-36.063	0.250	-0.135
-109.020	-93.175	0.241	0.067
-108.005	-142.522	-0.076	0.007
-106.991	-44.607	0.052	0.026
-105.976	-200.000	0.008	-0.078
-104.962	-151.569	0.151	-0.011
-103.947	-168.080	-0.198	0.008
-102.932	800.000	0.074	-0.216
-101.918	800.000	0.062	-0.257
-100.903	-62.744	0.263	-0.109
-99.889	-102.087	0.220	-0.053
-98.874	98.727	0.210	0.242
-97.859	206.379	0.156	0.243
-96.845	705.403	-0.081	-0.214
-95.830	-41.779	-0.184	-0.094
-94.816	-102.591	0.373	0.089
-93.801	96.007	0.309	0.353
-92.786	-200.000	-0.001	-0.319
-91.772	6.351	0.148	-0.110
-90.757	-14.281	-0.148	-0.095
-89.743	-200.000	-0.021	0.252
-88.728	-126.282	-0.188	0.028
-87.713	28.829	0.139	0.118
-86.699	-49.859	-0.185	0.088
-85.684	117.699	0.128	0.157
-84.670	800.000	0.016	-0.058
-83.655	-158.603	0.207	0.012
-82.640	-200.000	0.018	0.200
-81.626	242.791	0.109	-0.182
-80.611	93.725	-0.043	0.049
-79.597	-123.233	-0.152	0.024
-78.582	282.596	-0.087	0.156
-77.567	-200.000	0.384	-0.001
-76.553	-111.845	0.301	0.061
-75.538	569.921	-0.075	0.181
-74.524	-134.827	-0.205	0.025
-73.509	714.388	0.108	0.285
-72.494	65.671	-0.049	-0.049
-71.480	-88.257	0.285	0.085
-70.465	31.115	0.005	-0.005
-69.451	235.042	0.023	-0.038
-68.436	-50.296	0.219	-0.103
-67.422	-29.130	-0.097	-0.055
-66.407	800.000	0.057	-0.165
-65.392	474.240	-0.142	0.320
-64.378	139.435	-0.107	0.141
-63.363	-162.048	-0.305	0.015
-62.349	-200.000	-0.017	0.338
-61.334	-8.550	-0.753	-0.504
-60.319	800.000	-0.075	-0.226
-59.305	800.000	-0.165	-0.596
-58.290	192.786	0.532	0.801
-57.276	800.000	0.432	1.809
-56.261	-200.000	71.057	525.668
-55.246	606.116	1268.258	3150.898
-54.232	147.697	2489.238	3344.245
-53.217	123.170	2224.034	2777.568
-52.203	57.158	1669.046	1622.940
-51.188	48.367	1385.768	1293.208
-50.173	44.314	1337.160	1223.452
-49.159	61.738	1368.567	1358.225
-48.144	70.572	1387.571	1430.484
-47.130	48.493	1351.164	1261.478
-46.115	44.178	1335.125	1220.577
-45.100	43.924	1330.601	1214.870
-44.086	43.963	1327.826	1212.524
-43.071	43.884	1325.702	1210.064
-42.057	43.695	1323.674	1207.039
-41.042	43.820	1322.041	1206.243
-40.027	43.913	1320.235	1205.104
-39.013	43.905	1318.555	1203.471
-37.998	43.891	1316.667	1201.619
-36.984	43.954	1315.115	1200.529
-35.969	44.011	1313.116	1198.993
-34.954	43.986	1311.492	1197.312
-33.940	44.039	1310.327	1196.515
-32.925	43.992	1308.711	1194.718
-31.911	44.081	1307.143	1193.763
-30.896	44.145	1305.347	1192.450
-29.881	44.207	1303.940	1191.483
-28.867	44.150	1302.330	1189.627
-27.852	44.313	1300.384	1188.759
-26.838	44.168	1299.529	1187.082
-25.823	44.090	1298.551	1185.686
-24.809	44.054	1296.872	1183.892
-23.794	44.152	1295.647	1183.303
-22.779	44.129	1294.168	1181.768
-21.765	44.164	1292.774	1180.651
-20.750	44.122	1291.431	1179.133
-19.736	44.024	1290.071	1177.280
-18.721	44.019	1288.930	1176.163
-17.706	43.906	1288.025	1174.631
-16.692	44.004	1286.534	1173.796
-15.677	43.885	1285.940	1172.520
-14.663	44.077	1284.109	1171.909
-13.648	43.931	1283.266	1170.250
-12.633	43.931	1282.287	1169.314
-11.619	43.821	1282.101	1168.463
-10.604	43.978	1280.786	1168.124
-9.590	43.981	1279.535	1166.950
-8.575	43.840	1278.525	1165.175
-7.560	43.971	1277.452	1164.901
-6.546	43.939	1276.894	1164.161
-5.531	43.929	1275.386	1162.688
-4.517	43.908	1275.016	1162.183
-3.502	43.939	1274.089	1161.468
-2.487	43.972	1272.821	1160.457
-1.473	44.038	1269.004	1157.308
-0.458	42.973	1254.422	1137.946
0.556	38.260	1233.262	1093.909
1.571	33.524	1235.327	1069.015
2.586	31.962	1249.085	1071.908
3.600	30.464	1238.560	1054.288
4.615	21.643	1161.188	941.166
5.629	8.102	1075.454	803.752
6.644	1.654	1049.834	752.717
7.659	1.059	1047.436	747.999
8.673	0.967	1045.844	746.342
9.688	0.922	1044.502	745.095
10.702	1.362	1043.393	746.402
11.717	8.813	1055.144	791.669
12.731	19.718	1069.986	857.098
13.746	23.714	1074.366	880.380
14.761	23.805	1073.825	880.312
15.775	23.671	1073.294	879.133
16.790	23.514	1072.506	877.631
17.804	23.275	1072.071	876.016
18.819	23.546	1071.390	876.723
19.834	23.525	1070.632	875.920
20.848	23.477	1070.936	875.857
21.863	23.638	1069.909	875.731
22.877	23.426	1069.693	874.433
23.892	23.509	1068.390	873.700
24.907	23.458	1068.004	873.056
25.921	23.369	1066.938	871.669
26.936	23.506	1065.594	871.169
27.950	23.435	1063.909	869.364
28.965	23.363	1061.960	867.344
29.980	23.359	1060.253	865.851
30.994	23.598	1059.591	866.404
32.009	23.500	1058.672	865.093
33.023	23.405	1057.510	863.604
34.038	23.446	1056.886	863.220
35.053	23.658	1055.834	863.313
36.067	23.603	1055.426	862.635
37.082	23.680	1054.091	861.843
38.096	23.830	1053.572	862.072
39.111	23.859	1053.502	862.079
40.126	23.729	1051.357	859.617
41.140	23.411	1049.593	856.561
42.155	23.068	1048.797	854.181
43.169	23.184	1047.924	853.955
44.184	23.201	1047.121	853.304
45.199	23.133	1045.904	851.914
46.213	23.191	1044.601	851.053
47.228	23.259	1044.112	850.908
48.242	23.442	1042.839	850.672
49.257	23.610	1042.316	850.974
50.271	23.663	1041.768	850.709
51.286	23.650	1041.033	849.969
52.301	23.646	1039.594	848.700
53.315	23.610	1038.475	847.539
54.330	23.459	1038.241	846.554
55.344	23.540	1036.997	845.851
56.359	23.561	1035.609	844.741
57.374	23.263	1035.491	843.153
58.388	23.393	1034.254	842.690
59.403	23.235	1033.658	841.379
60.417	23.039	1033.157	839.967
61.432	23.250	1032.365	840.247
62.447	23.396	1031.146	839.874
63.461	23.385	1030.693	839.377
64.476	23.351	1029.501	838.172
65.490	23.144	1028.818	836.566
66.505	23.275	1028.414	836.778
67.520	23.399	1027.604	836.631
68.534	23.142	1026.280	834.269
69.549	22.738	1025.118	831.346
70.563	22.866	1024.277	831.194
71.578	22.897	1023.696	830.794
72.593	22.638	1022.669	828.672
73.607	22.759	1022.073	828.684
74.622	23.116	1021.903	830.146
75.636	23.168	1021.206	829.751
76.651	23.009	1020.478	828.343
77.666	22.918	1019.615	827.143
78.680	23.008	1019.004	826.994
79.695	23.013	1018.394	826.449
80.709	23.159	1017.323	826.189
81.724	23.134	1016.526	825.350
82.739	23.188	1015.790	824.934
83.753	23.489	1015.245	825.819
84.768	23.923	1014.822	827.421
85.782	23.957	1013.843	826.706
86.797	23.709	1012.578	824.451
87.812	23.650	1011.818	823.487
88.826	23.746	1011.113	823.286
89.841	23.760	1009.815	822.220
90.855	23.893	1008.657	821.822
91.870	23.683	1008.150	820.366
92.884	23.764	1006.672	819.463
93.899	23.640	1005.715	818.041
94.914	23.717	1005.096	817.819
95.928	23.761	1003.691	816.806
96.943	23.346	1002.773	814.079
97.957	23.237	1001.543	812.509
98.972	23.112	1000.375	810.915
99.987	23.386	1000.123	811.895
101.001	23.525	999.155	811.674
102.016	23.517	998.464	811.005
103.030	23.467	997.176	809.659
104.045	23.221	996.658	808.044
105.060	23.073	995.423	806.296
106.074	23.271	994.761	806.588
107.089	23.681	993.844	807.641
108.103	23.587	993.306	806.705
109.118	23.337	991.889	804.346
110.133	23.284	990.804	803.155
111.147	23.123	989.356	801.184
112.162	23.028	988.364	799.880
113.176	23.173	988.218	800.345
114.191	23.156	987.109	799.298
115.206	22.828	986.283	797.078
116.220	22.809	985.393	796.202
117.235	23.009	984.276	796.131
118.249	22.975	983.501	795.281
119.264	22.872	982.680	794.084
120.279	22.996	982.375	794.324
121.293	22.931	981.254	793.055
122.308	23.130	980.279	793.089
123.322	22.917	979.369	791.330
124.337	22.864	978.276	790.138
125.352	22.406	976.494	786.583
126.366	22.361	975.308	785.360
127.381	22.969	975.409	788.081
128.395	23.483	975.042	790.007
129.410	23.606	974.290	789.874
130.424	23.635	973.143	789.004
131.439	23.588	972.165	787.932
132.454	23.482	971.563	786.904
133.468	23.437	970.561	785.825
134.483	23.515	970.280	785.875
135.497	23.924	969.311	786.827
136.512	23.839	968.841	786.001
137.527	23.965	967.584	785.470
138.541	23.802	967.026	784.228
139.556	23.783	966.036	783.272
140.570	23.962	964.982	783.137
141.585	23.962	964.258	782.477
142.600	23.898	963.481	781.497
143.614	24.083	962.729	781.631
144.629	24.048	962.139	780.930
145.643	23.901	960.947	779.249
146.658	23.831	958.971	777.271
147.673	23.790	958.208	776.402
148.687	23.623	957.334	774.899
149.702	23.662	956.453	774.288
150.716	23.522	955.580	772.900
151.731	23.864	954.819	773.705
152.746	23.913	954.166	773.324
153.760	23.928	953.810	773.030
154.775	24.032	953.077	772.820
155.789	23.931	952.660	771.973
156.804	23.964	951.266	770.921
157.819	23.929	950.540	770.112
158.833	24.101	949.981	770.336
159.848	24.136	948.624	769.316
160.862	23.827	947.878	767.311
161.877	24.023	946.625	767.072
162.892	24.114	945.518	766.501
163.906	24.139	944.502	765.717
164.921	23.900	943.416	763.741
165.935	24.018	942.644	763.554
166.950	23.902	942.117	762.564
167.964	23.850	941.482	761.761
168.979	23.934	939.381	760.351
169.994	23.752	939.365	759.491
171.008	23.911	939.108	759.896
172.023	24.117	937.657	759.534
173.037	23.832	936.700	757.480
174.052	23.651	935.990	756.067
175.067	23.706	935.370	755.732
176.081	23.873	934.801	755.915
177.096	23.628	934.290	754.393
178.110	23.397	933.179	752.450
179.125	23.248	932.352	751.085
180.140	23.259	932.236	750.973
181.154	23.563	931.780	751.828
182.169	23.743	931.436	752.242
183.183	24.050	931.094	753.200
184.198	23.851	930.239	751.602
185.213	23.757	929.514	750.553
186.227	23.999	928.589	750.761
187.242	23.887	928.064	749.796
188.256	23.952	927.433	749.493
189.271	24.099	927.025	749.719
190.286	23.684	925.865	746.970
191.300	22.976	924.306	742.671
192.315	22.325	922.697	738.580
193.329	22.357	922.127	738.193
194.344	23.249	922.781	742.392
195.359	23.732	922.798	744.363
196.373	23.920	921.873	744.338
197.388	23.760	921.716	743.477
198.402	23.847	920.578	742.858
199.417	23.754	920.294	742.175
200.432	23.564	918.934	740.219
201.446	23.390	918.387	738.988
202.461	23.516	918.075	739.195
203.475	22.625	916.358	734.040
204.490	21.782	915.016	729.394
205.504	22.708	914.848	733.045
206.519	23.405	914.976	735.980
207.534	23.377	914.489	735.405
208.548	23.887	914.218	737.239
209.563	23.699	912.935	735.358
210.577	23.728	912.544	735.100
211.592	24.117	912.401	736.530
212.607	24.062	911.360	735.395
213.621	23.884	911.026	734.327
214.636	24.011	910.238	734.149
215.650	23.968	909.398	733.230
216.665	24.133	908.606	733.205
217.680	24.028	907.988	732.210
218.694	23.652	906.711	729.571
219.709	23.460	906.022	728.166
220.723	23.686	905.953	728.970
221.738	23.852	905.128	728.927
222.753	23.757	904.609	728.051
223.767	23.849	904.542	728.312
224.782	24.065	903.957	728.658
225.796	24.117	903.468	728.413
226.811	23.683	901.701	725.152
227.826	22.845	900.201	720.466
228.840	23.093	899.472	720.827
229.855	23.018	899.340	720.354
230.869	22.709	898.489	718.352
231.884	23.118	898.622	720.060
232.899	23.838	898.587	722.895
233.913	23.677	898.268	721.922
234.928	23.607	897.646	721.070
235.942	23.778	896.523	720.798
236.957	23.348	895.645	718.288
237.972	23.482	894.912	718.180
238.986	23.421	894.709	717.704
240.001	23.402	894.280	717.219
241.015	23.633	893.781	717.691
242.030	23.935	892.906	718.144
243.045	23.910	892.625	717.755
244.059	23.871	892.427	717.374
245.074	23.802	891.224	716.064
246.088	23.398	890.536	713.824
247.103	23.732	889.616	714.366
248.117	24.252	890.193	716.860
249.132	24.417	889.787	717.131
250.147	24.586	889.245	717.309
251.161	24.733	888.616	717.327
252.176	24.752	887.961	716.812
253.190	24.784	887.326	716.362
254.205	24.763	886.949	715.914
255.220	24.847	886.148	715.539
256.234	24.637	885.883	714.423
257.249	24.573	884.754	713.191
258.263	24.673	883.799	712.757
259.278	24.707	883.707	712.757
260.293	24.784	882.780	712.252
261.307	24.758	881.901	711.378
262.322	24.632	881.173	710.226
263.336	23.856	879.467	705.709
264.351	22.758	877.854	699.999
265.366	22.775	877.402	699.642
266.380	23.804	878.008	704.143
267.395	24.455	877.646	706.367
268.409	24.259	877.417	705.346
269.424	24.492	876.408	705.393
270.439	24.595	876.005	705.414
271.453	24.694	875.337	705.203
272.468	24.716	875.148	705.075
273.482	24.781	874.438	704.698
274.497	24.454	873.160	702.319
275.512	24.021	872.181	699.766
276.526	24.282	872.740	701.183
277.541	24.514	872.265	701.649
278.555	24.437	870.858	700.153
279.570	24.344	870.082	699.102
280.585	24.380	870.048	699.153
281.599	24.212	869.438	697.946
282.614	23.682	867.841	694.527
283.628	23.713	867.511	694.325
284.643	24.285	867.139	696.201
285.657	23.959	865.740	693.742
286.672	23.428	865.201	691.181
287.687	24.046	865.433	693.713
288.701	24.053	864.638	693.043
289.716	23.890	863.577	691.497
290.730	23.975	862.687	691.054
291.745	23.474	861.894	688.413
292.760	23.691	862.031	689.302
293.774	24.651	862.448	693.302
294.789	25.087	862.166	694.705
295.803	25.035	861.728	694.088
296.818	25.167	860.978	693.934
297.833	24.809	859.468	691.273
298.847	24.512	859.055	689.730
299.862	24.989	858.683	691.214
300.876	25.148	858.578	691.682
301.891	25.074	857.802	690.708
302.906	24.612	856.717	687.994
303.920	24.635	856.451	687.810
304.935	25.010	856.336	689.098
305.949	24.889	855.759	688.108
306.964	24.859	854.742	687.115
307.979	24.876	854.481	686.908
308.993	25.169	854.539	688.018
310.008	25.181	853.658	687.294
311.022	24.988	852.898	685.883
312.037	24.864	852.140	684.738
313.052	24.625	851.268	683.064
314.066	23.891	849.557	678.829
315.081	23.365	849.006	676.322
316.095	24.175	849.168	679.482
317.110	24.873	849.160	682.078
318.125	23.915	848.120	677.534
319.139	22.898	846.077	671.973
320.154	22.856	845.722	671.472
321.168	23.816	846.072	675.343
322.183	24.516	846.324	678.143
323.197	24.638	845.633	677.991
324.212	24.809	845.483	678.461
325.227	24.901	844.947	678.320
326.241	24.713	844.550	677.229
327.256	24.603	843.739	676.100
328.270	24.455	843.315	675.144
329.285	24.336	842.074	673.638
330.300	24.157	841.213	672.214
331.314	24.378	840.996	672.814
332.329	24.789	841.021	674.327
333.343	24.941	840.938	674.773
334.358	24.985	840.191	674.280
335.373	24.920	839.790	673.654
336.387	25.217	840.141	674.994
337.402	25.263	839.887	674.901
338.416	25.336	838.822	674.261
339.431	25.498	838.908	674.879
340.446	25.603	838.415	674.814
341.460	25.597	837.846	674.278
342.475	25.232	837.472	672.547
343.489	25.425	837.108	672.919
344.504	25.662	836.550	673.296
345.519	25.780	836.408	673.563
346.533	25.786	835.942	673.154
347.548	25.785	835.328	672.595
348.562	25.727	835.095	672.131
349.577	25.626	834.402	671.135
350.592	25.640	833.784	670.632
351.606	25.733	833.193	670.445
352.621	25.496	832.470	668.920
353.635	25.362	831.288	667.415
354.650	24.999	829.433	664.519
355.665	23.947	828.455	659.776
356.679	24.336	828.262	661.010
357.694	24.782	827.523	662.012
358.708	24.808	827.181	661.776
359.723	25.118	827.045	662.753
360.738	25.208	826.853	662.872
361.752	25.522	826.453	663.653
362.767	25.696	826.295	664.112
363.781	25.935	825.645	664.409
364.796	25.919	825.918	664.513
365.810	26.163	825.010	664.620
366.825	26.098	824.685	664.061
367.840	25.772	823.698	662.008
368.854	25.472	822.874	660.185
369.869	25.427	822.587	659.734
370.883	25.455	821.907	659.232
371.898	25.297	821.913	658.598
372.913	25.431	821.537	658.731
373.927	25.690	820.761	658.997
374.942	25.612	820.774	658.664
375.956	25.807	819.957	658.664
376.971	25.937	819.716	658.888
377.986	26.112	819.091	658.967
379.000	26.091	818.326	658.216
380.015	25.961	818.015	657.434
381.029	25.896	818.029	657.148
382.044	25.963	817.066	656.560
383.059	26.102	816.673	656.694
384.073	26.063	816.208	656.118
385.088	26.127	815.127	655.425
386.102	25.835	814.528	653.824
387.117	25.769	813.825	652.966
388.132	25.480	812.716	650.971
389.146	24.952	812.049	648.466
390.161	25.278	812.231	649.735
391.175	25.830	811.584	651.155
392.190	25.517	810.623	649.198
393.205	24.217	808.775	642.971
394.219	22.709	806.964	636.045
395.234	22.658	806.471	635.414
396.248	23.971	808.303	641.540
397.263	25.498	809.145	647.658
398.278	25.667	808.388	647.601
399.292	25.361	807.900	646.054
400.307	25.427	807.198	645.672
401.321	25.391	807.343	645.602
402.336	25.855	807.065	646.990
403.350	26.123	806.980	647.825
404.365	26.346	807.123	648.683
405.380	26.756	806.536	649.623
406.394	26.900	806.065	649.702
407.409	26.620	805.693	648.343
408.423	26.735	804.973	648.116
409.438	26.766	804.621	647.890
410.453	26.797	804.413	647.773
411.467	26.704	803.454	646.614
412.482	26.686	803.393	646.444
413.496	26.786	802.896	646.342
414.511	26.777	802.621	646.031
415.526	26.749	801.904	645.298
416.540	26.609	801.316	644.270
417.555	26.466	800.592	643.120
418.569	26.419	800.497	642.820
419.584	26.320	800.135	642.123
420.599	26.213	799.460	641.143
421.613	83.465	1238.710	1296.165
422.628	71.038	1302.772	1296.293
