DTS Sentinel unit serial number:	SN413079Multiplexer serial number:	ORYXHardware model number:	OX4-SRSoftware version number:	ORYX F/W v4.00 Oryx Data Collector v3.7.2.0data status	okinstallation	princeton_trtdifferential loss correction	single-endedforward channel	channel 1reverse channel	N/Adate	2019/09/16time	05:30:36forward acquisition time	60.00reverse acquisition time	0.00gamma	496.2192k internal	0.2331k external	0.2331temperature offset calibration	0.9982default loss term (dB/km)	0.3790temperature slope calibration	1.0000multiplexer offset coefficient	1.0000multiplexer slope coefficient	1.0000fibre end	0.00T internal ref (°C)	27.27T ext. ref 1 (°C)	11.12T ext. ref 2 (°C)	22.10length (m)	temperature (°C)	Stokes	anti-Stokes-747.200	89.672	0.226	0.253
-746.185	-84.653	0.183	-0.058
-745.171	-1.028	0.077	-0.055
-744.156	-20.189	-0.384	0.238
-743.142	-154.203	-0.175	0.012
-742.127	100.254	-0.267	0.312
-741.112	201.843	0.128	-0.198
-740.098	118.329	0.094	0.116
-739.083	800.000	-0.059	-0.232
-738.069	186.498	-0.153	0.229
-737.054	-113.079	0.216	0.043
-736.039	-200.000	0.008	0.071
-735.025	-47.092	0.391	0.192
-734.010	105.794	-0.249	0.296
-732.996	800.000	-0.020	-0.086
-731.981	-114.986	-0.210	-0.040
-730.966	-22.719	-0.208	0.126
-729.952	-147.116	-0.293	0.025
-728.937	-200.000	-0.007	0.098
-727.923	800.000	-0.015	0.058
-726.908	-44.212	-0.292	-0.148
-725.894	110.178	-0.082	0.099
-724.879	-47.445	-0.477	0.233
-723.864	-97.133	-0.127	-0.033
-722.850	291.420	0.260	-0.476
-721.835	37.910	-0.097	-0.087
-720.821	-200.000	0.012	-0.146
-719.806	111.659	0.083	0.101
-718.791	800.000	-0.018	0.069
-717.777	-115.620	-0.365	0.069
-716.762	-119.061	0.212	-0.037
-715.748	-55.471	0.118	-0.053
-714.733	8.126	-0.240	0.181
-713.718	82.138	0.084	-0.091
-712.704	800.000	-0.064	-0.215
-711.689	-200.000	0.004	0.189
-710.675	353.614	0.027	0.054
-709.660	-200.000	0.003	0.082
-708.645	-200.000	-0.024	-0.135
-707.631	88.939	-0.039	0.044
-706.616	-130.401	0.447	-0.061
-705.602	133.439	-0.128	0.167
-704.587	-81.490	0.277	-0.092
-703.572	-99.990	0.206	-0.052
-702.558	-84.491	-0.298	-0.095
-701.543	-4.204	-0.149	-0.104
-700.529	-133.492	-0.179	0.023
-699.514	245.367	-0.092	0.156
-698.499	-200.000	0.024	-0.175
-697.485	236.137	-0.043	0.071
-696.470	-53.172	-0.084	-0.039
-695.456	-80.768	-0.156	0.052
-694.441	-27.420	-0.080	0.047
-693.426	-40.283	0.123	0.064
-692.412	800.000	0.051	0.176
-691.397	16.888	-0.145	0.115
-690.383	361.577	-0.053	-0.108
-689.368	521.711	-0.053	-0.125
-688.354	529.205	0.095	0.224
-687.339	-93.496	0.313	-0.087
-686.324	-200.000	-0.014	-0.254
-685.310	-200.000	0.059	-0.304
-684.295	800.000	-0.079	-0.296
-683.281	-10.224	-0.043	0.029
-682.266	-86.398	0.159	-0.049
-681.251	12.036	0.136	0.105
-680.237	119.092	0.082	0.102
-679.222	327.423	0.081	-0.156
-678.208	-38.293	-0.371	-0.197
-677.193	506.074	0.139	0.322
-676.178	257.077	0.035	-0.060
-675.164	-158.883	-0.226	0.013
-674.149	-200.000	0.021	-0.451
-673.135	-102.552	-0.069	0.017
-672.120	261.975	0.166	0.288
-671.105	-141.977	0.325	0.032
-670.091	121.745	-0.182	-0.228
-669.076	-64.404	-0.204	0.083
-668.062	141.953	0.238	-0.317
-667.047	384.999	-0.248	-0.512
-666.032	-133.292	-0.282	0.036
-665.018	-149.393	0.348	0.028
-664.003	92.912	-0.228	0.258
-662.989	121.230	0.206	-0.257
-661.974	-200.000	0.008	-0.123
-660.959	134.383	0.104	-0.136
-659.945	387.554	0.105	0.217
-658.930	-5.520	0.371	0.255
-657.916	-20.282	-0.256	0.158
-656.901	114.710	0.167	-0.204
-655.886	532.370	0.061	0.144
-654.872	-200.000	-0.078	0.502
-653.857	-117.199	-0.335	-0.061
-652.843	24.596	-0.180	-0.150
-651.828	-21.752	-0.279	-0.170
-650.814	-85.602	0.092	-0.029
-649.799	-90.647	-0.101	0.029
-648.784	50.677	-0.263	-0.250
-647.770	35.454	0.231	-0.203
-646.755	-44.129	-0.215	0.108
-645.741	-20.833	-0.398	0.245
-644.726	-63.738	0.150	-0.062
-643.711	-61.215	-0.333	0.140
-642.697	235.646	-0.217	-0.360
-641.682	-41.119	0.158	-0.082
-640.668	-44.751	0.111	0.056
-639.653	-30.739	-0.127	-0.072
-638.638	239.115	-0.023	-0.038
-637.624	800.000	-0.067	0.248
-636.609	193.181	0.138	0.209
-635.595	-76.911	-0.246	-0.086
-634.580	426.506	-0.123	0.266
-633.565	-200.000	-0.001	-0.191
-632.551	150.418	-0.158	0.215
-631.536	-10.423	0.021	0.014
-630.522	51.898	-0.227	0.216
-629.507	150.591	0.030	0.040
-628.492	-87.250	-0.165	-0.050
-627.478	583.897	0.093	0.229
-626.463	-17.054	0.379	0.240
-625.449	-117.268	0.248	0.045
-624.434	-103.583	0.218	0.051
-623.419	-200.000	0.026	0.134
-622.405	128.210	0.102	-0.130
-621.390	176.796	-0.204	-0.298
-620.376	-159.955	-0.304	-0.017
-619.361	800.000	-0.070	-0.285
-618.346	109.396	-0.044	-0.053
-617.332	241.987	0.085	0.142
-616.317	-5.503	-0.178	-0.122
-615.303	26.868	0.117	-0.098
-614.288	-132.632	-0.244	0.031
-613.273	304.717	0.025	0.047
-612.259	-166.091	0.178	-0.008
-611.244	-94.614	0.037	0.010
-610.230	-100.609	0.121	0.030
-609.215	-85.202	0.329	-0.103
-608.201	-101.506	-0.270	-0.066
-607.186	512.174	-0.036	-0.083
-606.171	-105.121	0.330	-0.075
-605.157	82.805	0.213	-0.232
-604.142	112.899	-0.134	-0.163
-603.128	-200.000	-0.029	-0.172
-602.113	-169.818	0.211	-0.008
-601.098	312.006	0.070	0.132
-600.084	-20.191	-0.251	-0.155
-599.069	-200.000	0.067	0.343
-598.055	59.816	0.140	-0.138
-597.040	800.000	-0.107	-0.308
-596.025	196.877	0.127	-0.194
-595.011	800.000	-0.125	0.350
-593.996	267.783	-0.187	0.328
-592.982	-200.000	0.011	0.099
-591.967	142.574	0.188	0.249
-590.952	800.000	-0.078	-0.305
-589.938	31.296	-0.225	-0.194
-588.923	800.000	-0.084	0.269
-587.909	-72.898	-0.440	-0.162
-586.894	-15.963	-0.175	-0.112
-585.879	-54.758	0.314	-0.142
-584.865	107.425	0.074	-0.088
-583.850	-121.530	0.036	-0.006
-582.836	-2.689	-0.221	-0.155
-581.821	80.448	0.138	0.148
-580.806	-89.281	0.073	0.022
-579.792	-106.214	-0.209	-0.047
-578.777	39.717	-0.136	-0.122
-577.763	-200.000	0.008	-0.298
-576.748	800.000	-0.086	-0.274
-575.733	-15.840	0.241	0.153
-574.719	-156.481	-0.130	-0.008
-573.704	-122.898	-0.115	-0.019
-572.690	391.532	0.098	0.203
-571.675	-107.361	-0.343	0.075
-570.661	397.724	0.212	0.443
-569.646	-200.000	-0.006	-0.131
-568.631	-200.000	0.012	0.068
-567.617	174.897	0.202	-0.292
-566.602	-110.827	-0.215	0.044
-565.588	-46.971	-0.271	-0.132
-564.573	800.000	0.069	-0.227
-563.558	-200.000	0.017	0.236
-562.544	-111.134	0.263	0.054
-561.529	-200.000	-0.014	-0.159
-560.515	800.000	0.032	-0.122
-559.500	800.000	-0.068	0.200
-558.485	461.008	-0.095	0.212
-557.471	-200.000	-0.029	0.301
-556.456	54.545	0.174	-0.168
-555.442	-200.000	0.000	0.003
-554.427	-200.000	-0.030	-0.465
-553.412	-153.842	-0.159	-0.011
-552.398	-200.000	0.094	0.481
-551.383	-200.000	-0.032	-0.190
-550.369	78.307	-0.189	-0.202
-549.354	-160.464	0.166	0.009
-548.339	503.160	0.023	-0.052
-547.325	70.827	-0.093	0.097
-546.310	800.000	0.081	-0.277
-545.296	-200.000	0.021	-0.140
-544.281	-3.164	-0.224	-0.156
-543.266	315.143	0.036	0.067
-542.252	421.417	0.038	-0.082
-541.237	204.799	0.199	0.308
-540.223	189.053	0.200	-0.299
-539.208	-178.001	-0.126	-0.003
-538.193	36.675	-0.281	-0.248
-537.179	-143.931	-0.128	0.012
-536.164	76.434	-0.145	0.154
-535.150	-149.036	0.339	-0.027
-534.135	-159.152	0.370	0.021
-533.121	192.459	0.070	0.105
-532.106	55.088	-0.148	0.143
-531.091	146.364	0.222	0.297
-530.077	800.000	0.155	0.556
-529.062	168.280	-0.121	0.173
-528.048	115.447	0.106	0.129
-527.033	93.509	0.163	0.184
-526.018	-200.000	0.039	0.229
-525.004	-200.000	-0.058	-0.276
-523.989	170.433	0.052	0.075
-522.975	-179.673	0.227	-0.005
-521.960	424.896	-0.113	0.242
-520.945	6.972	-0.181	0.135
-519.931	-96.279	0.192	-0.051
-518.916	225.052	0.149	0.240
-517.902	545.315	0.074	0.176
-516.887	357.906	0.101	0.201
-515.872	308.749	0.155	-0.290
-514.858	18.447	-0.122	0.097
-513.843	175.927	-0.200	-0.289
-512.829	96.969	-0.159	-0.182
-511.814	13.889	-0.291	0.226
-510.799	19.851	-0.077	-0.062
-509.785	-87.363	-0.438	0.132
-508.770	-92.323	0.352	-0.099
-507.756	-200.000	-0.021	-0.294
-506.741	214.238	-0.233	-0.368
-505.726	-62.755	0.265	-0.109
-504.712	-200.000	0.003	-0.198
-503.697	800.000	0.060	0.221
-502.683	-147.634	-0.101	-0.008
-501.668	-200.000	0.007	-0.066
-500.653	16.788	0.193	-0.152
-499.639	322.663	0.022	-0.041
-498.624	-69.050	0.137	-0.052
-497.610	-200.000	-0.007	0.077
-496.595	-200.000	-0.020	-0.172
-495.581	417.265	-0.103	0.218
-494.566	109.883	0.331	0.396
-493.551	-189.035	-0.203	0.002
-492.537	-12.319	-0.307	0.200
-491.522	525.714	-0.066	0.156
-490.508	-53.231	-0.027	0.012
-489.493	44.908	-0.415	-0.381
-488.478	-200.000	0.008	0.475
-487.464	646.637	0.071	-0.182
-486.449	-20.776	-0.309	-0.189
-485.435	-98.473	-0.212	0.054
-484.420	113.540	0.108	-0.131
-483.405	-200.000	-0.001	0.082
-482.391	210.219	0.145	0.227
-481.376	123.629	0.125	0.156
-480.362	-71.599	-0.119	-0.044
-479.347	-106.985	-0.214	0.047
-478.332	-200.000	0.019	-0.096
-477.318	-24.289	-0.221	-0.131
-476.303	-70.548	0.306	0.115
-475.289	266.495	0.096	-0.166
-474.274	-137.457	-0.038	0.004
-473.259	-200.000	-0.004	0.193
-472.245	409.769	0.130	-0.274
-471.230	-126.987	-0.152	0.022
-470.216	-56.552	-0.229	0.101
-469.201	-185.517	-0.415	0.006
-468.186	-36.010	0.058	-0.031
-467.172	93.335	0.070	0.078
-466.157	-10.123	-0.402	0.266
-465.143	-200.000	0.086	0.450
-464.128	717.436	-0.015	-0.040
-463.113	190.739	-0.175	-0.262
-462.099	-76.954	-0.059	0.021
-461.084	-108.535	-0.310	-0.066
-460.070	-145.869	-0.291	-0.026
-459.055	-200.000	-0.006	0.195
-458.040	800.000	0.072	-0.281
-457.026	-172.523	-0.479	-0.015
-456.011	-104.311	-0.237	-0.055
-454.997	-16.070	0.324	0.205
-453.982	-14.111	0.186	-0.119
-452.968	9.260	-0.264	0.199
-451.953	-130.234	0.217	-0.029
-450.938	33.551	-0.087	-0.075
-449.924	-200.000	0.043	-0.234
-448.909	198.487	0.026	-0.040
-447.895	309.824	-0.035	-0.065
-446.880	-82.570	0.110	0.035
-445.865	800.000	-0.096	-0.387
-444.851	160.387	0.258	-0.358
-443.836	-11.160	0.184	-0.121
-442.822	412.796	0.120	-0.254
-441.807	-112.135	-0.301	-0.060
-440.792	-8.274	0.160	-0.107
-439.778	391.752	-0.066	-0.136
-438.763	69.613	0.269	0.276
-437.749	132.724	-0.295	0.379
-436.734	63.083	-0.265	-0.264
-435.719	800.000	-0.041	0.129
-434.705	200.182	0.076	-0.117
-433.690	-171.970	0.202	0.007
-432.676	800.000	-0.044	0.131
-431.661	-138.096	0.290	0.032
-430.646	102.872	-0.152	-0.177
-429.632	-183.573	0.383	-0.007
-428.617	-31.195	0.326	-0.182
-427.603	-97.020	-0.105	0.027
-426.588	465.374	0.086	-0.192
-425.573	168.877	0.068	0.096
-424.559	800.000	-0.067	0.270
-423.544	141.934	0.133	0.176
-422.530	800.000	0.075	0.266
-421.515	-69.221	-0.440	0.168
-420.500	-40.177	0.443	-0.229
-419.486	-28.101	-0.287	0.165
-418.471	-39.631	0.121	0.063
-417.457	31.742	-0.203	0.174
-416.442	800.000	0.049	-0.184
-415.428	-113.364	0.334	-0.065
-414.413	800.000	-0.057	0.169
-413.398	64.616	-0.124	0.124
-412.384	-40.257	0.268	-0.139
-411.369	-153.669	-0.529	0.036
-410.355	-74.540	-0.174	0.062
-409.340	71.209	-0.263	0.271
-408.325	-119.101	0.184	0.032
-407.311	-72.970	-0.050	-0.018
-406.296	-200.000	-0.033	0.288
-405.282	146.789	0.098	-0.131
-404.267	-32.571	-0.143	-0.079
-403.252	210.196	0.120	-0.187
-402.238	800.000	0.062	-0.185
-401.223	-200.000	-0.017	-0.290
-400.209	508.202	0.039	-0.090
-399.194	-48.119	-0.119	0.057
-398.179	-48.723	0.060	-0.029
-397.165	800.000	0.059	-0.239
-396.150	-144.502	0.015	0.001
-395.136	432.792	0.212	0.457
-394.121	-95.558	-0.549	-0.146
-393.106	-120.295	-0.336	-0.057
-392.092	-38.226	-0.312	0.164
-391.077	57.640	0.208	0.202
-390.063	-12.101	0.068	0.044
-389.048	-115.386	0.426	0.080
-388.033	700.810	0.027	-0.070
-387.019	-46.165	-0.157	-0.077
-386.004	-6.169	0.275	0.186
-384.990	-200.000	-0.003	0.294
-383.975	800.000	-0.027	0.079
-382.960	109.342	0.196	0.233
-381.946	-135.955	-0.179	-0.021
-380.931	51.497	-0.103	0.097
-379.917	469.275	-0.040	-0.088
-378.902	254.681	0.253	-0.430
-377.888	151.485	0.167	0.225
-376.873	1.700	-0.103	-0.073
-375.858	-106.081	-0.264	-0.059
-374.844	-200.000	-0.126	-0.001
-373.829	-149.912	-0.175	0.014
-372.815	-200.000	0.020	0.371
-371.800	-146.198	0.094	0.008
-370.785	435.374	0.061	-0.132
-369.771	-118.966	-0.423	-0.074
-368.756	198.531	0.214	-0.325
-367.742	-24.353	-0.207	0.123
-366.727	-200.000	0.002	-0.136
-365.712	-70.915	-0.288	0.108
-364.698	-40.884	-0.076	0.039
-363.683	50.551	0.193	0.181
-362.669	606.346	0.053	-0.130
-361.654	120.678	0.234	-0.289
-360.639	-104.915	-0.079	0.018
-359.625	77.836	-0.075	0.079
-358.610	800.000	-0.078	-0.303
-357.596	-78.462	0.374	0.127
-356.581	-71.546	-0.097	0.036
-355.566	170.704	-0.186	0.264
-354.552	43.671	0.131	-0.119
-353.537	273.473	0.090	0.158
-352.523	-58.993	0.443	-0.189
-351.508	70.063	-0.265	-0.271
-350.493	305.868	0.049	0.091
-349.479	-200.000	-0.044	0.250
-348.464	800.000	-0.052	-0.191
-347.450	-100.426	-0.068	0.017
-346.435	499.313	0.051	0.117
-345.420	-200.000	-0.015	-0.118
-344.406	5.178	0.113	-0.083
-343.391	288.185	-0.170	0.305
-342.377	-37.021	-0.135	-0.071
-341.362	-200.000	0.061	0.315
-340.348	-200.000	-0.022	0.132
-339.333	-200.000	-0.029	-0.128
-338.318	-106.553	0.194	0.043
-337.304	3.963	-0.186	0.135
-336.289	-200.000	0.037	0.265
-335.275	561.123	0.098	0.235
-334.260	368.157	0.069	0.139
-333.245	-69.745	0.228	-0.086
-332.231	800.000	-0.052	-0.207
-331.216	800.000	-0.020	-0.076
-330.202	-183.073	0.303	0.005
-329.187	80.624	0.158	-0.169
-328.172	-40.003	-0.094	-0.049
-327.158	-95.888	0.216	0.057
-326.143	103.278	0.112	-0.130
-325.129	-200.000	0.010	0.200
-324.114	-193.027	-0.086	-0.001
-323.099	192.898	0.071	-0.106
-322.085	-102.188	-0.304	0.072
-321.070	-30.370	0.226	0.127
-320.056	800.000	-0.014	0.058
-319.041	29.756	-0.202	0.170
-318.026	118.685	-0.008	0.009
-317.012	-45.004	-0.300	-0.148
-315.997	30.785	0.099	-0.084
-314.983	99.572	-0.275	-0.315
-313.968	-99.351	0.320	-0.080
-312.953	-200.000	0.030	-0.214
-311.939	-159.554	-0.089	0.005
-310.924	57.157	0.020	0.020
-309.910	-79.344	0.349	-0.117
-308.895	800.000	0.027	0.104
-307.880	-200.000	-0.022	0.164
-306.866	54.269	0.459	-0.437
-305.851	614.609	0.050	-0.125
-304.837	-114.218	0.221	0.042
-303.822	800.000	-0.068	-0.203
-302.807	-44.527	-0.222	0.110
-301.793	-52.608	0.069	-0.032
-300.778	-100.037	-0.189	0.047
-299.764	-200.000	-0.073	-0.412
-298.749	214.650	0.101	0.159
-297.735	800.000	-0.057	-0.171
-296.720	462.611	-0.038	-0.084
-295.705	-70.928	0.195	0.073
-294.691	-99.142	0.252	-0.063
-293.676	143.105	-0.212	-0.279
-292.662	22.192	-0.035	-0.028
-291.647	80.803	0.106	0.113
-290.632	-82.212	-0.155	-0.050
-289.618	-200.000	-0.019	0.098
-288.603	-89.023	-0.249	-0.073
-287.589	266.638	-0.113	0.195
-286.574	80.147	-0.029	0.031
-285.559	800.000	0.077	-0.224
-284.545	-138.780	0.255	0.028
-283.530	538.772	0.135	-0.317
-282.516	800.000	0.072	0.280
-281.501	36.390	-0.116	-0.101
-280.486	-25.695	0.114	-0.066
-279.472	-200.000	-0.044	-0.449
-278.457	-19.380	0.121	-0.074
-277.443	-31.758	-0.332	0.184
-276.428	-19.754	0.100	-0.061
-275.413	800.000	0.032	0.094
-274.399	-128.416	-0.362	-0.051
-273.384	179.532	0.257	0.371
-272.370	800.000	0.047	0.197
-271.355	39.991	-0.159	0.141
-270.340	442.508	0.167	0.361
-269.326	649.413	-0.122	0.308
-268.311	81.110	-0.066	-0.071
-267.297	-2.417	-0.287	-0.198
-266.282	-168.840	-0.186	-0.007
-265.267	117.304	-0.079	-0.096
-264.253	134.291	0.227	-0.291
-263.238	-142.057	0.032	0.003
-262.224	701.257	-0.045	0.118
-261.209	101.449	-0.148	0.171
-260.195	-130.893	0.198	0.026
-259.180	-54.994	-0.405	-0.180
-258.165	182.323	0.117	-0.170
-257.151	800.000	-0.032	0.092
-256.136	-42.326	0.159	0.080
-255.122	140.822	-0.270	-0.353
-254.107	800.000	0.057	-0.170
-253.092	32.951	-0.134	-0.114
-252.078	-124.672	0.251	0.038
-251.063	-151.786	0.090	-0.007
-250.049	124.651	0.152	-0.189
-249.034	-79.761	-0.313	-0.104
-248.019	120.682	0.094	0.116
-247.005	800.000	0.079	0.221
-245.990	800.000	0.078	0.301
-244.976	800.000	0.058	0.223
-243.961	800.000	0.040	0.126
-242.946	425.911	0.151	0.322
-241.932	-200.000	0.041	-0.180
-240.917	388.853	-0.097	-0.198
-239.903	199.503	0.146	-0.221
-238.888	283.838	-0.026	0.045
-237.873	-191.620	0.372	-0.004
-236.859	-105.413	-0.313	0.070
-235.844	-200.000	0.010	-0.056
-234.830	-115.879	0.168	0.031
-233.815	-121.097	0.254	-0.042
-232.800	291.931	-0.126	-0.226
-231.786	763.081	0.051	0.137
-230.771	192.101	-0.015	0.023
-229.757	102.193	0.172	-0.198
-228.742	594.273	0.063	0.154
-227.727	800.000	0.075	-0.237
-226.713	46.104	0.150	-0.137
-225.698	22.879	-0.240	-0.194
-224.684	221.323	-0.039	-0.061
-223.669	108.525	-0.049	0.058
-222.655	192.185	0.029	0.043
-221.640	131.432	-0.127	0.162
-220.625	448.826	-0.036	-0.079
-219.611	281.280	-0.101	-0.179
-218.596	-48.612	-0.306	0.145
-217.582	74.108	0.150	0.156
-216.567	-58.952	0.135	-0.057
-215.552	-158.078	-0.191	0.011
-214.538	-141.992	0.446	0.044
-213.523	800.000	-0.017	-0.062
-212.509	401.839	-0.139	-0.288
-211.494	64.822	0.077	0.077
-210.479	-94.644	0.116	0.031
-209.465	-103.639	-0.307	-0.071
-208.450	-171.845	-0.282	-0.009
-207.436	150.801	0.155	-0.207
-206.421	-200.000	0.003	0.172
-205.406	78.909	0.134	0.141
-204.392	-200.000	0.010	0.365
-203.377	-200.000	-0.007	-0.062
-202.363	-89.200	0.294	0.086
-201.348	-200.000	0.030	-0.139
-200.333	-44.611	0.530	-0.261
-199.319	-128.058	0.159	0.022
-198.304	-59.052	0.080	-0.034
-197.290	-167.574	0.194	0.008
-196.275	43.392	0.184	0.165
-195.260	431.907	0.061	0.129
-194.246	-124.128	0.183	-0.028
-193.231	-87.689	-0.446	-0.133
-192.217	360.002	-0.056	0.110
-191.202	-200.000	-0.065	-0.292
-190.187	95.594	-0.179	0.201
-189.173	207.279	-0.049	-0.075
-188.158	490.348	0.120	-0.271
-187.144	800.000	0.034	0.113
-186.129	208.387	-0.083	0.129
-185.114	-200.000	-0.001	0.142
-184.100	52.039	-0.154	-0.144
-183.085	-67.570	-0.071	-0.028
-182.071	58.106	-0.232	0.224
-181.056	800.000	0.082	-0.257
-180.042	100.370	0.207	-0.236
-179.027	799.226	0.120	0.326
-178.012	149.966	0.163	-0.218
-176.998	143.876	0.168	-0.220
-175.983	281.517	0.207	0.365
-174.969	256.109	-0.035	-0.059
-173.954	723.481	0.143	0.375
-172.939	10.090	0.034	-0.025
-171.925	5.798	0.076	-0.055
-170.910	173.442	-0.122	0.174
-169.896	-38.940	0.225	0.117
-168.881	-200.000	0.004	0.283
-167.866	-152.956	0.282	-0.020
-166.852	286.792	-0.110	0.196
-165.837	406.784	0.019	0.039
-164.823	-78.165	0.070	0.024
-163.808	63.497	0.354	0.350
-162.793	-119.405	0.282	-0.048
-161.779	-200.000	-0.026	-0.115
-160.764	-200.000	-0.044	0.234
-159.750	800.000	0.015	-0.052
-158.735	113.910	-0.179	-0.215
-157.720	-72.230	0.103	0.038
-156.706	-200.000	-0.018	-0.229
-155.691	-37.490	-0.240	-0.126
-154.677	185.076	0.150	0.219
-153.662	-91.744	0.082	0.023
-152.647	-46.600	0.277	-0.133
-151.633	-73.648	-0.154	0.055
-150.618	34.310	0.145	-0.124
-149.604	558.098	0.149	-0.354
-148.589	-142.368	-0.073	0.007
-147.574	52.830	-0.276	0.260
-146.560	90.441	0.194	0.214
-145.545	-78.672	0.281	0.094
-144.531	-66.923	0.286	0.111
-143.516	-200.000	-0.024	-0.257
-142.502	800.000	0.052	-0.224
-141.487	-28.986	-0.214	0.121
-140.472	633.030	0.099	-0.247
-139.458	-200.000	-0.091	0.518
-138.443	17.765	-0.229	-0.179
-137.429	59.361	-0.203	0.197
-136.414	-140.971	-0.245	0.025
-135.399	154.542	-0.158	-0.213
-134.385	209.734	0.139	0.214
-133.370	-127.041	0.051	-0.007
-132.356	-100.671	-0.149	-0.036
-131.341	160.488	-0.254	0.348
-130.326	-112.095	0.304	0.060
-129.312	24.640	0.179	0.145
-128.297	152.960	0.215	-0.288
-127.283	800.000	0.117	-0.379
-126.268	-40.538	-0.301	0.153
-125.253	800.000	0.003	0.010
-124.239	800.000	0.100	-0.338
-123.224	-36.703	-0.156	0.082
-122.210	-200.000	-0.048	0.236
-121.195	-46.643	-0.441	-0.212
-120.180	-70.461	-0.103	0.038
-119.166	87.491	-0.190	0.207
-118.151	-200.000	0.010	-0.052
-117.137	412.498	0.079	-0.165
-116.122	-200.000	-0.001	0.119
-115.107	-200.000	0.025	-0.220
-114.093	-200.000	0.010	-0.133
-113.078	65.799	-0.259	0.258
-112.064	278.021	0.181	-0.316
-111.049	-72.311	0.271	-0.099
-110.034	477.593	0.146	0.324
-109.020	-200.000	-0.014	-0.075
-108.005	-29.718	0.294	-0.165
-106.991	-188.778	0.258	0.003
-105.976	-200.000	0.003	0.179
-104.962	-57.001	0.107	0.046
-103.947	255.107	0.074	0.125
-102.932	235.472	0.052	0.085
-101.918	-200.000	0.014	-0.186
-100.903	-136.670	-0.268	0.030
-99.889	-200.000	0.033	0.325
-98.874	800.000	-0.045	0.136
-97.859	44.180	0.242	0.218
-96.845	-29.655	-0.141	0.079
-95.830	-119.535	0.211	-0.036
-94.816	-147.497	0.233	-0.019
-93.801	-123.075	-0.410	0.065
-92.786	-86.707	0.535	0.161
-91.772	249.833	-0.258	0.430
-90.757	-35.742	-0.085	0.045
-89.743	-200.000	0.013	0.080
-88.728	-185.563	0.151	-0.002
-87.713	-99.283	0.196	-0.049
-86.699	800.000	-0.059	0.230
-85.684	-148.985	0.270	-0.021
-84.670	-44.134	-0.150	0.074
-83.655	-55.032	-0.473	0.209
-82.640	800.000	0.160	0.499
-81.626	-200.000	-0.007	0.063
-80.611	241.432	-0.034	-0.056
-79.597	-169.355	0.475	0.017
-78.582	-97.893	-0.199	0.050
-77.567	504.715	0.049	0.111
-76.553	146.077	0.035	-0.046
-75.538	377.110	0.116	0.233
-74.524	-18.513	0.184	-0.113
-73.509	44.049	-0.433	0.389
-72.494	-98.815	0.175	0.044
-71.480	-64.198	-0.338	0.135
-70.465	800.000	0.104	0.351
-69.451	35.895	-0.061	0.052
-68.436	319.594	0.187	-0.347
-67.422	729.553	-0.093	0.244
-66.407	88.794	-0.252	-0.274
-65.392	-94.807	0.357	0.095
-64.378	776.861	-0.094	0.251
-63.363	-200.000	0.063	0.278
-62.349	180.952	-0.084	0.121
-61.334	134.016	-0.973	-1.235
-60.319	48.776	0.445	0.409
-59.305	-200.000	-0.102	-1.050
-58.290	530.391	0.739	1.711
-57.276	800.000	0.594	1.752
-56.261	-200.000	114.558	645.194
-55.246	462.756	1512.494	3307.792
-54.232	146.372	2679.680	3524.202
-53.217	102.924	2155.789	2472.974
-52.203	38.674	1600.838	1399.174
-51.188	30.445	1346.740	1127.347
-50.173	27.683	1308.594	1079.059
-49.159	55.429	1364.445	1293.211
-48.144	53.751	1379.052	1296.913
-47.130	30.894	1334.559	1119.675
-46.115	27.489	1316.437	1084.197
-45.100	27.245	1312.054	1079.099
-44.086	27.102	1309.517	1076.122
-43.071	27.090	1307.500	1074.351
-42.057	27.144	1305.232	1072.766
-41.042	27.107	1303.574	1071.142
-40.027	27.085	1302.422	1070.020
-39.013	27.131	1300.068	1068.318
-37.998	27.163	1298.270	1066.982
-36.984	27.265	1296.590	1066.157
-35.969	27.281	1294.583	1064.558
-34.954	27.201	1293.133	1062.860
-33.940	27.229	1292.222	1062.227
-32.925	27.282	1290.033	1060.698
-31.911	27.403	1288.540	1060.131
-30.896	27.375	1286.961	1058.626
-29.881	27.358	1286.012	1057.707
-28.867	27.308	1284.552	1056.172
-27.852	27.412	1283.385	1055.773
-26.838	27.338	1281.487	1053.744
-25.823	27.454	1280.430	1053.506
-24.809	27.297	1279.389	1051.699
-23.794	27.398	1277.651	1050.810
-22.779	27.306	1276.998	1049.701
-21.765	27.274	1275.596	1048.322
-20.750	27.267	1274.348	1047.213
-19.736	27.282	1272.949	1046.112
-18.721	27.283	1271.736	1045.080
-17.706	27.265	1270.603	1044.000
-16.692	27.271	1269.465	1043.059
-15.677	27.274	1268.461	1042.212
-14.663	27.197	1267.267	1040.745
-13.648	27.294	1265.786	1040.043
-12.633	27.305	1264.935	1039.366
-11.619	27.227	1264.134	1038.224
-10.604	27.200	1263.592	1037.580
-9.590	27.198	1262.672	1036.773
-8.575	27.209	1261.373	1035.727
-7.560	27.210	1260.202	1034.734
-6.546	27.112	1259.823	1033.821
-5.531	27.197	1258.445	1033.131
-4.517	27.179	1257.818	1032.475
-3.502	27.243	1256.712	1031.888
-2.487	27.165	1256.153	1030.950
-1.473	27.145	1251.907	1027.309
-0.458	25.706	1237.170	1007.130
0.556	21.180	1220.729	971.871
1.571	17.740	1227.220	957.671
2.586	16.985	1242.484	965.203
3.600	17.018	1231.903	957.085
4.615	15.763	1165.498	898.713
5.629	12.829	1098.674	832.311
6.644	11.182	1082.318	811.650
7.659	11.117	1079.873	809.419
8.673	11.179	1078.644	808.734
9.688	11.023	1077.684	807.171
10.702	11.128	1075.658	806.104
11.717	13.079	1076.688	816.461
12.731	15.915	1081.345	833.982
13.746	17.691	1082.295	843.439
14.761	17.707	1081.994	843.207
15.775	16.578	1079.932	835.949
16.790	15.455	1078.034	828.867
17.804	14.733	1076.108	823.750
18.819	14.339	1075.190	821.031
19.834	14.148	1073.879	819.020
20.848	13.812	1073.182	816.763
21.863	13.781	1071.794	815.479
22.877	13.610	1071.368	814.244
23.892	13.591	1070.186	813.180
24.907	13.563	1070.065	812.877
25.921	13.597	1069.081	812.229
26.936	13.682	1067.616	811.458
27.950	13.605	1066.325	810.027
28.965	13.795	1064.681	809.634
29.980	13.769	1063.469	808.516
30.994	13.817	1062.057	807.603
32.009	13.760	1061.183	806.592
33.023	13.768	1060.044	805.691
34.038	13.701	1058.993	804.496
35.053	13.595	1058.173	803.289
36.067	13.653	1057.434	802.937
37.082	13.711	1056.024	802.078
38.096	13.767	1055.586	801.944
39.111	13.707	1054.835	801.013
40.126	13.673	1053.564	799.814
41.140	13.616	1052.137	798.382
42.155	13.520	1051.279	797.201
43.169	13.454	1050.152	795.957
44.184	13.391	1048.882	794.621
45.199	13.584	1048.091	794.880
46.213	13.487	1047.237	793.697
47.228	13.624	1046.097	793.419
48.242	13.742	1044.577	792.757
49.257	13.510	1044.448	791.480
50.271	13.641	1043.002	790.941
51.286	13.644	1042.389	790.422
52.301	13.605	1041.163	789.237
53.315	13.559	1040.098	788.137
54.330	13.587	1038.875	787.275
55.344	13.563	1038.126	786.525
56.359	13.467	1037.617	785.614
57.374	13.566	1036.233	784.967
58.388	13.475	1035.292	783.753
59.403	13.379	1034.891	782.925
60.417	13.521	1033.607	782.555
61.432	13.429	1033.122	781.686
62.447	13.313	1032.551	780.634
63.461	13.256	1031.809	779.738
64.476	13.387	1030.336	779.173
65.490	13.385	1029.571	778.515
66.505	13.525	1028.914	778.609
67.520	13.432	1028.401	777.714
68.534	13.446	1028.000	777.405
69.549	13.404	1027.173	776.516
70.563	13.555	1025.720	776.057
71.578	13.315	1025.546	774.731
72.593	13.336	1024.869	774.251
73.607	13.399	1024.131	773.916
74.622	13.396	1023.508	773.364
75.636	13.385	1022.445	772.443
76.651	13.281	1022.093	771.623
77.666	13.309	1021.546	771.270
78.680	13.272	1021.089	770.689
79.695	13.340	1020.201	770.264
80.709	13.385	1019.520	769.892
81.724	13.562	1018.810	770.109
82.739	13.577	1018.004	769.501
83.753	13.702	1017.361	769.530
84.768	13.769	1016.505	769.123
85.782	13.847	1015.335	768.530
86.797	13.779	1014.646	767.626
87.812	13.632	1013.623	766.104
88.826	13.597	1012.787	765.243
89.841	13.762	1011.705	765.121
90.855	13.764	1010.834	764.405
91.870	13.675	1010.522	763.690
92.884	13.738	1009.512	763.148
93.899	13.697	1008.742	762.309
94.914	13.924	1007.636	762.450
95.928	13.910	1006.965	761.809
96.943	13.739	1005.944	760.186
97.957	13.768	1004.882	759.450
98.972	13.751	1004.331	758.887
99.987	13.845	1003.093	758.315
101.001	13.694	1002.556	757.154
102.016	13.698	1001.964	756.658
103.030	13.866	1000.854	756.517
104.045	13.762	1000.350	755.595
105.060	13.633	999.572	754.353
106.074	13.628	998.166	753.204
107.089	13.599	997.221	752.292
108.103	13.658	996.095	751.646
109.118	13.640	994.868	750.572
110.133	13.604	994.446	750.022
111.147	13.526	993.663	749.013
112.162	13.456	992.560	747.800
113.176	13.634	991.856	748.006
114.191	13.581	991.257	747.249
115.206	13.715	990.094	746.908
116.220	13.622	989.860	746.250
117.235	13.543	988.777	745.009
118.249	13.620	987.772	744.533
119.264	13.619	986.629	743.599
120.279	13.669	985.853	743.176
121.293	13.657	985.035	742.436
122.308	13.752	983.788	741.857
123.322	13.530	983.294	740.428
124.337	13.598	982.031	739.716
125.352	13.470	981.246	738.487
126.366	13.545	979.955	737.786
127.381	13.556	979.149	737.163
128.395	13.600	977.970	736.404
129.410	13.670	977.373	736.198
130.424	13.693	976.390	735.498
131.439	13.709	975.885	735.123
132.454	13.634	974.784	733.895
133.468	13.792	974.071	733.992
134.483	13.629	973.348	732.664
135.497	13.692	972.585	732.302
136.512	13.690	971.660	731.533
137.527	13.583	971.090	730.567
138.541	13.662	969.983	730.016
139.556	13.560	969.962	729.484
140.570	13.785	968.874	729.593
141.585	13.821	968.106	729.107
142.600	13.859	967.054	728.418
143.614	13.976	965.792	727.914
144.629	13.991	965.337	727.574
145.643	13.941	964.609	726.741
146.658	13.808	963.585	725.325
147.673	13.747	962.449	724.140
148.687	13.833	961.810	723.971
149.702	13.719	960.895	722.719
150.716	13.696	960.312	722.117
151.731	13.793	959.419	721.805
152.746	13.756	958.653	721.002
153.760	13.754	958.217	720.604
154.775	13.773	957.672	720.214
155.789	13.857	956.695	719.776
156.804	13.919	956.231	719.634
157.819	13.971	955.337	719.123
158.833	13.985	954.650	718.602
159.848	13.990	954.058	718.113
160.862	13.961	952.774	716.961
161.877	13.767	952.124	715.571
162.892	13.896	950.707	714.997
163.906	13.815	950.333	714.305
164.921	13.948	949.228	713.984
165.935	13.945	948.442	713.316
166.950	14.008	947.263	712.636
167.964	13.903	946.779	711.758
168.979	13.873	945.810	710.840
169.994	13.893	944.882	710.162
171.008	14.104	943.849	710.228
172.023	13.951	943.434	709.199
173.037	14.041	943.024	709.209
174.052	14.049	941.970	708.389
175.067	14.084	941.275	707.951
176.081	13.884	940.880	706.744
177.096	13.919	940.120	706.255
178.110	14.008	939.863	706.381
179.125	13.954	938.844	705.322
180.140	14.009	938.371	705.141
181.154	14.033	938.285	705.114
182.169	14.056	937.537	704.584
183.183	14.031	937.517	704.404
184.198	14.272	936.356	704.487
185.213	14.221	935.319	703.431
186.227	14.311	934.169	702.884
187.242	14.234	934.145	702.479
188.256	14.332	933.357	702.235
189.271	14.225	932.678	701.211
190.286	14.123	931.881	700.121
191.300	14.161	930.812	699.415
192.315	13.882	930.650	698.058
193.329	14.138	929.917	698.524
194.344	14.137	929.153	697.882
195.359	14.178	928.740	697.685
196.373	14.311	927.989	697.614
197.388	14.286	927.834	697.333
198.402	14.386	927.724	697.605
199.417	14.541	926.486	697.263
200.432	14.409	926.301	696.509
201.446	14.553	925.322	696.313
202.461	14.568	925.001	696.071
203.475	14.520	924.597	695.504
204.490	14.510	923.698	694.726
205.504	14.547	922.655	694.036
206.519	14.424	922.230	693.142
207.534	14.433	921.573	692.625
208.548	14.396	920.994	691.974
209.563	14.590	919.982	691.958
210.577	14.413	919.854	691.064
211.592	14.611	919.113	691.268
212.607	14.553	918.236	690.309
213.621	14.609	917.367	689.826
214.636	14.485	916.986	688.963
215.650	14.617	915.969	688.684
216.665	14.495	915.787	687.985
217.680	14.764	914.314	687.924
218.694	14.784	913.855	687.597
219.709	14.767	913.267	687.027
220.723	14.873	912.224	686.618
221.738	14.830	911.689	685.976
222.753	14.741	911.357	685.301
223.767	14.723	910.859	684.793
224.782	14.796	910.258	684.579
225.796	14.854	909.551	684.223
226.811	14.843	909.260	683.898
227.826	14.732	908.128	682.534
228.840	14.781	907.309	682.056
229.855	14.680	906.652	681.092
230.869	14.788	906.051	681.018
231.884	14.929	905.190	680.886
232.899	14.787	904.743	679.913
233.913	14.707	904.130	679.068
234.928	14.770	903.385	678.701
235.942	14.720	902.893	678.068
236.957	14.652	902.321	677.302
237.972	14.716	901.707	677.043
238.986	14.850	900.814	676.857
240.001	14.941	900.473	676.906
241.015	14.943	899.523	676.143
242.030	14.944	898.898	675.618
243.045	15.038	898.586	675.702
244.059	14.837	898.424	674.708
245.074	14.859	897.321	673.907
246.088	14.912	896.309	673.305
247.103	14.890	896.251	673.109
248.117	15.073	895.743	673.407
249.132	15.196	894.817	673.143
250.147	15.171	894.096	672.444
251.161	15.130	893.899	672.070
252.176	15.178	893.094	671.598
253.190	15.448	892.140	671.904
254.205	15.326	891.628	670.968
255.220	15.244	891.280	670.318
256.234	15.408	890.627	670.426
257.249	15.474	889.902	670.084
258.263	15.451	889.253	669.443
259.278	15.402	888.315	668.483
260.293	15.320	887.796	667.709
261.307	15.466	887.420	667.948
262.322	15.356	886.714	666.917
263.336	15.470	885.798	666.625
264.351	15.518	885.183	666.290
265.366	15.605	884.653	666.177
266.380	15.751	883.862	666.101
267.395	15.552	883.406	664.912
268.409	15.521	882.274	663.878
269.424	15.560	881.537	663.421
270.439	15.687	880.721	663.248
271.453	15.628	880.368	662.690
272.468	15.557	879.764	661.896
273.482	15.468	879.415	661.227
274.497	15.555	878.891	661.116
275.512	15.682	877.850	660.774
276.526	15.710	877.485	660.551
277.541	15.569	876.983	659.561
278.555	15.608	876.750	659.480
279.570	15.750	875.952	659.376
280.585	15.790	874.998	658.760
281.599	15.731	874.224	657.886
282.614	15.728	873.710	657.428
283.628	15.746	873.135	657.008
284.643	15.651	872.553	656.140
285.657	15.793	871.836	656.099
286.672	15.666	871.364	655.190
287.687	15.926	870.422	655.435
288.701	15.801	869.855	654.464
289.716	15.978	869.263	654.650
290.730	15.895	868.904	653.999
291.745	15.999	868.081	653.724
292.760	15.922	867.737	653.111
293.774	15.940	867.034	652.591
294.789	16.010	866.042	652.060
295.803	15.851	865.743	651.162
296.818	15.845	865.311	650.754
297.833	15.912	864.440	650.301
298.847	15.926	863.510	649.598
299.862	15.907	863.232	649.258
300.876	15.927	863.113	649.188
301.891	15.939	862.352	648.603
302.906	16.060	861.791	648.593
303.920	16.114	861.686	648.661
304.935	16.230	860.586	648.224
305.949	16.087	860.413	647.487
306.964	16.268	858.905	646.989
307.979	16.021	859.229	646.229
308.993	16.131	858.402	645.967
310.008	16.245	857.201	645.443
311.022	16.257	856.723	645.073
312.037	16.188	856.764	644.782
313.052	16.114	855.777	643.702
314.066	16.188	855.030	643.363
315.081	16.054	854.802	642.626
316.095	15.998	854.058	641.796
317.110	16.116	853.459	641.737
318.125	16.201	852.884	641.572
319.139	16.212	852.293	641.111
320.154	16.217	852.149	640.967
321.168	16.338	851.253	640.697
322.183	16.206	850.983	639.934
323.197	16.334	850.466	639.975
324.212	16.222	849.863	639.039
325.227	16.159	849.082	638.158
326.241	16.379	848.444	638.454
327.256	16.265	848.291	637.851
328.270	16.300	847.298	637.181
329.285	16.423	846.809	637.218
330.300	16.224	846.547	636.215
331.314	16.179	846.045	635.614
332.329	16.319	845.717	635.837
333.343	16.503	845.179	636.066
334.358	16.463	844.757	635.545
335.373	16.482	844.406	635.293
336.387	16.454	843.928	634.776
337.402	16.578	843.821	635.104
338.416	16.656	843.196	634.869
339.431	16.642	842.775	634.443
340.446	16.618	842.171	633.844
341.460	16.655	842.090	633.863
342.475	16.555	842.067	633.415
343.489	16.706	841.235	633.298
344.504	16.836	840.556	633.217
345.519	16.761	840.330	632.711
346.533	16.767	839.620	632.142
347.548	16.677	839.237	631.463
348.562	16.559	838.741	630.596
349.577	16.689	837.862	630.361
350.592	16.570	837.444	629.548
351.606	16.672	836.405	629.091
352.621	16.810	835.828	629.114
353.635	16.704	835.302	628.267
354.650	16.699	834.840	627.845
355.665	16.737	834.189	627.442
356.679	17.029	833.455	627.915
357.694	16.898	832.770	626.859
358.708	16.690	832.236	625.633
359.723	16.672	831.734	625.135
360.738	16.796	831.087	625.052
361.752	16.920	830.735	625.186
362.767	16.920	829.910	624.513
363.781	17.175	829.321	624.952
364.796	16.995	829.293	624.213
365.810	16.979	828.860	623.771
366.825	17.105	828.260	623.730
367.840	17.033	828.097	623.285
368.854	17.007	827.563	622.734
369.869	17.019	827.090	622.368
370.883	17.251	826.798	622.944
371.898	17.193	825.909	622.004
372.913	17.215	825.809	621.954
373.927	17.255	824.903	621.364
374.942	17.252	824.699	621.144
375.956	17.279	824.236	620.839
376.971	17.296	823.851	620.556
377.986	17.279	823.473	620.156
379.000	17.326	822.614	619.625
380.015	17.529	822.234	620.023
381.029	17.364	821.679	618.950
382.044	17.533	821.266	619.196
383.059	17.457	820.462	618.260
384.073	17.448	820.029	617.846
385.088	17.432	819.278	617.168
386.102	17.351	819.032	616.633
387.117	17.354	818.221	615.980
388.132	17.307	817.681	615.349
389.146	17.360	817.432	615.298
390.161	17.363	817.233	615.106
391.175	17.282	816.470	614.183
392.190	17.232	816.268	613.797
393.205	17.246	815.728	613.388
394.219	17.419	815.024	613.429
395.234	17.467	814.544	613.187
396.248	17.284	814.183	612.201
397.263	17.409	813.552	612.122
398.278	17.253	813.470	611.447
399.292	17.325	813.341	611.553
400.307	17.401	812.491	611.134
401.321	17.459	812.037	610.946
402.336	17.514	811.287	610.524
403.350	17.403	811.206	610.009
404.365	17.446	810.793	609.801
405.380	17.636	810.063	609.879
406.394	17.663	809.585	609.561
407.409	17.639	809.376	609.262
408.423	17.653	808.976	608.960
409.438	17.648	808.657	608.645
410.453	17.768	808.056	608.568
411.467	17.881	807.204	608.274
412.482	17.780	807.263	607.906
413.496	17.725	807.060	607.505
414.511	17.916	806.502	607.709
415.526	17.837	806.265	607.195
416.540	17.846	805.531	606.620
417.555	17.785	805.285	606.168
418.569	17.879	804.733	606.030
419.584	17.847	804.279	605.521
420.599	17.772	803.953	604.956
421.613	111.487	1295.087	1476.515
422.628	96.147	1366.598	1476.619
