DTS Sentinel unit serial number:	SN413079Multiplexer serial number:	ORYXHardware model number:	OX4-SRSoftware version number:	ORYX F/W v4.00 Oryx Data Collector v3.7.2.0data status	okinstallation	princeton_trtdifferential loss correction	single-endedforward channel	channel 1reverse channel	N/Adate	2019/09/11time	07:52:11forward acquisition time	60.00reverse acquisition time	0.00gamma	496.2192k internal	0.2322k external	0.2322temperature offset calibration	0.9905default loss term (dB/km)	0.3790temperature slope calibration	1.0000multiplexer offset coefficient	1.0000multiplexer slope coefficient	1.0000fibre end	0.00T internal ref (°C)	31.84T ext. ref 1 (°C)	0.09T ext. ref 2 (°C)	27.94length (m)	temperature (°C)	Stokes	anti-Stokes-747.200	-200.000	-0.023	-0.150
-746.185	256.591	0.084	-0.146
-745.171	800.000	0.061	-0.182
-744.156	229.785	-0.088	-0.145
-743.142	370.934	-0.112	-0.229
-742.127	-91.062	-0.136	0.039
-741.112	0.663	0.112	0.081
-740.098	-200.000	-0.010	0.054
-739.083	154.826	0.045	-0.063
-738.069	-132.801	-0.150	0.019
-737.054	651.868	0.020	-0.051
-736.039	4.228	-0.149	-0.110
-735.025	-39.756	0.396	0.209
-734.010	200.173	-0.162	-0.251
-732.996	101.323	-0.191	-0.224
-731.981	184.480	0.161	0.240
-730.966	-91.158	-0.290	-0.084
-729.952	-99.508	-0.122	0.031
-728.937	73.699	-0.119	0.126
-727.923	-110.553	-0.433	-0.091
-726.908	-200.000	0.016	-0.101
-725.894	647.788	0.037	0.096
-724.879	-200.000	0.012	0.131
-723.864	800.000	-0.017	0.048
-722.850	91.038	0.071	0.080
-721.835	-200.000	-0.003	0.158
-720.821	180.085	-0.129	0.191
-719.806	288.458	0.166	-0.303
-718.791	155.671	-0.121	-0.169
-717.777	602.111	0.057	0.142
-716.762	-200.000	0.024	0.233
-715.748	68.325	0.101	-0.105
-714.733	3.453	-0.213	0.157
-713.718	-200.000	-0.046	-0.317
-712.704	18.982	0.220	-0.178
-711.689	115.671	-0.092	0.113
-710.675	692.691	0.031	0.081
-709.660	630.020	0.115	0.294
-708.645	44.108	0.120	-0.111
-707.631	-169.504	0.161	0.006
-706.616	-200.000	0.026	-0.175
-705.602	266.596	0.115	0.202
-704.587	120.265	-0.078	-0.098
-703.572	16.033	-0.083	0.066
-702.558	-200.000	0.003	0.177
-701.543	40.264	0.073	-0.067
-700.529	115.688	0.087	0.107
-699.514	206.004	0.205	0.321
-698.499	800.000	-0.028	0.098
-697.485	-200.000	-0.045	-0.420
-696.470	147.125	0.092	-0.124
-695.456	800.000	0.062	-0.172
-694.441	286.739	-0.076	0.139
-693.426	341.956	-0.215	-0.423
-692.412	504.973	0.081	0.189
-691.397	47.961	-0.059	0.055
-690.383	-118.746	-0.115	-0.021
-689.368	125.990	-0.213	-0.271
-688.354	330.523	-0.193	-0.375
-687.339	146.822	-0.150	0.204
-686.324	-51.455	-0.194	-0.091
-685.310	668.803	-0.051	0.134
-684.295	-67.030	-0.196	-0.078
-683.281	800.000	0.060	-0.217
-682.266	800.000	-0.022	0.069
-681.251	-200.000	0.013	-0.078
-680.237	800.000	0.039	0.129
-679.222	-33.987	0.128	0.071
-678.208	800.000	0.031	-0.112
-677.193	-105.690	0.361	-0.082
-676.178	800.000	0.107	-0.367
-675.164	-4.146	0.342	-0.238
-674.149	-21.544	-0.127	-0.078
-673.135	-133.204	0.487	0.062
-672.120	103.496	0.247	-0.292
-671.105	130.109	-0.159	0.205
-670.091	-200.000	-0.040	-0.360
-669.076	16.645	-0.091	-0.073
-668.062	-137.480	0.135	0.015
-667.047	36.844	0.089	-0.079
-666.032	-58.858	-0.272	-0.118
-665.018	-200.000	0.020	-0.109
-664.003	-63.032	0.269	0.112
-662.989	-200.000	0.000	-0.154
-661.974	-59.625	-0.066	0.029
-660.959	-180.683	-0.115	0.002
-659.945	800.000	-0.126	0.355
-658.930	-16.644	-0.137	-0.087
-657.916	484.570	0.069	0.158
-656.901	-200.000	-0.003	0.152
-655.886	-200.000	-0.068	0.303
-654.872	-96.726	0.118	-0.031
-653.857	202.214	0.074	-0.114
-652.843	-98.551	-0.088	0.023
-651.828	179.755	0.042	0.061
-650.814	-35.356	0.009	0.005
-649.799	531.845	-0.007	0.017
-648.784	-200.000	-0.034	-0.171
-647.770	270.292	-0.077	-0.136
-646.755	-136.882	0.155	-0.018
-645.741	-48.969	0.091	-0.044
-644.726	-112.980	-0.241	0.048
-643.711	-200.000	-0.031	-0.340
-642.697	-200.000	0.023	-0.151
-641.682	800.000	0.044	-0.142
-640.668	-127.333	0.062	-0.009
-639.653	-21.031	0.216	-0.133
-638.638	97.077	0.086	-0.099
-637.624	215.115	-0.115	0.183
-636.609	301.324	0.082	0.153
-635.595	-136.540	0.124	0.015
-634.580	-125.387	-0.071	-0.011
-633.565	603.118	-0.075	-0.188
-632.551	-10.586	-0.184	0.123
-631.536	-200.000	0.013	-0.149
-630.522	-200.000	0.021	-0.307
-629.507	396.392	-0.002	0.003
-628.492	-200.000	-0.159	0.000
-627.478	-79.642	0.202	0.068
-626.463	26.490	-0.246	-0.207
-625.449	-200.000	0.043	0.217
-624.434	316.771	-0.151	0.287
-623.419	396.397	-0.169	0.354
-622.405	-200.000	-0.447	-0.001
-621.390	70.513	0.126	-0.131
-620.376	-149.956	0.104	0.008
-619.361	-200.000	0.030	-0.257
-618.346	-11.777	-0.051	0.034
-617.332	-72.408	0.432	-0.161
-616.317	42.351	0.333	-0.305
-615.303	-100.543	0.018	-0.004
-614.288	-4.986	-0.173	0.119
-613.273	-154.728	-0.215	0.014
-612.259	423.577	-0.059	-0.128
-611.244	-82.223	0.223	-0.073
-610.230	168.220	-0.169	0.241
-609.215	-200.000	0.030	-0.197
-608.201	-200.000	-0.022	-0.139
-607.186	172.188	-0.182	0.263
-606.171	-145.091	0.265	-0.024
-605.157	69.455	-0.103	-0.107
-604.142	-109.316	0.039	0.008
-603.128	87.121	0.049	-0.055
-602.113	-200.000	-0.086	-0.405
-601.098	53.764	0.397	-0.383
-600.084	-161.138	-0.076	-0.004
-599.069	-49.361	-0.472	0.226
-598.055	-137.625	0.518	0.059
-597.040	-200.000	0.003	0.183
-596.025	-138.009	-0.208	-0.023
-595.011	-200.000	0.005	-0.095
-593.996	100.633	-0.198	0.232
-592.982	-158.075	-0.155	0.009
-591.967	-88.575	-0.107	0.032
-590.952	-200.000	0.037	0.176
-589.938	1.996	0.114	0.083
-588.923	-36.725	-0.236	0.127
-587.909	-87.223	-0.365	0.111
-586.894	-175.093	-0.222	0.006
-585.879	-64.921	-0.206	-0.084
-584.865	-185.409	-0.118	-0.002
-583.850	800.000	-0.122	-0.340
-582.836	112.130	0.128	0.155
-581.821	800.000	-0.056	0.206
-580.806	105.344	0.128	0.152
-579.792	30.473	-0.149	0.128
-578.777	-25.140	0.245	0.146
-577.763	800.000	-0.119	0.411
-576.748	728.158	0.037	0.100
-575.733	174.134	-0.192	0.278
-574.719	138.180	-0.162	0.213
-573.704	-85.385	-0.346	0.108
-572.690	-94.577	-0.390	-0.106
-571.675	153.574	-0.143	-0.197
-570.661	-131.091	0.457	-0.061
-569.646	381.982	0.092	0.190
-568.631	246.143	-0.233	-0.394
-567.617	16.601	0.177	0.140
-566.602	141.237	-0.218	-0.289
-565.588	-200.000	0.032	-0.275
-564.573	718.823	0.057	0.152
-563.558	238.576	-0.144	-0.240
-562.544	-74.038	0.306	-0.111
-561.529	-200.000	0.017	0.240
-560.515	-107.277	0.399	-0.088
-559.500	-111.136	-0.543	0.112
-558.485	202.184	0.067	0.104
-557.471	-200.000	0.028	-0.305
-556.456	-200.000	-0.017	0.091
-555.442	509.502	-0.079	-0.185
-554.427	-85.794	0.138	-0.043
-553.412	498.085	0.057	-0.132
-552.398	-25.219	-0.222	0.132
-551.383	-157.594	-0.037	0.002
-550.369	143.401	-0.068	0.090
-549.354	-2.099	-0.340	0.240
-548.339	-200.000	0.032	-0.159
-547.325	399.956	0.126	-0.265
-546.310	-200.000	-0.050	-0.297
-545.296	-200.000	0.071	0.386
-544.281	-65.677	0.097	0.039
-543.266	6.102	-0.202	-0.150
-542.252	291.477	-0.090	-0.165
-541.237	-103.453	-0.233	-0.055
-540.223	35.395	-0.099	0.087
-539.208	105.865	-0.230	0.273
-538.193	473.870	-0.048	-0.109
-537.179	-200.000	0.022	0.204
-536.164	800.000	0.006	-0.023
-535.150	518.250	0.111	0.259
-534.135	225.090	0.072	-0.116
-533.121	-200.000	0.017	-0.096
-532.106	32.859	-0.099	-0.085
-531.091	-133.658	0.224	0.028
-530.077	-155.586	-0.237	0.015
-529.062	-8.863	0.423	-0.284
-528.048	-200.000	-0.000	-0.239
-527.033	-200.000	0.034	-0.299
-526.018	-200.000	-0.009	0.231
-525.004	-200.000	-0.039	0.320
-523.989	-24.852	-0.291	0.173
-522.975	-200.000	0.002	-0.166
-521.960	-200.000	-0.031	-0.375
-520.945	-200.000	-0.026	-0.125
-519.931	-15.264	-0.029	-0.018
-518.916	28.353	-0.224	0.189
-517.902	74.474	0.198	0.208
-516.887	800.000	0.076	-0.306
-515.872	-120.754	-0.034	0.006
-514.858	-92.026	-0.207	0.059
-513.843	14.686	-0.091	-0.072
-512.829	-99.125	0.431	-0.109
-511.814	-200.000	-0.012	0.230
-510.799	-200.000	0.015	0.096
-509.785	144.079	-0.060	-0.080
-508.770	-200.000	-0.042	-0.210
-507.756	154.280	0.295	-0.405
-506.741	-55.975	0.192	-0.086
-505.726	18.688	-0.240	-0.192
-504.712	-0.414	0.172	-0.123
-503.697	-75.192	-0.364	0.130
-502.683	-200.000	-0.077	-0.355
-501.668	-169.195	-0.179	0.007
-500.653	-80.057	0.263	0.088
-499.639	140.491	-0.099	-0.131
-498.624	-70.969	-0.322	-0.121
-497.610	800.000	0.061	0.246
-496.595	-200.000	-0.039	0.293
-495.581	-200.000	-0.072	-0.527
-494.566	-20.350	-0.214	0.132
-493.551	765.277	-0.142	-0.387
-492.537	-200.000	0.027	-0.286
-491.522	-27.042	0.218	0.127
-490.508	63.350	0.103	-0.104
-489.493	176.801	0.092	0.134
-488.478	-200.000	0.030	0.204
-487.464	-132.159	0.193	0.025
-486.449	197.457	0.165	0.252
-485.435	-74.445	-0.185	0.067
-484.420	-131.647	0.174	-0.023
-483.405	138.261	-0.049	-0.065
-482.391	-59.132	-0.088	0.038
-481.376	637.160	0.064	0.162
-480.362	-34.144	0.146	-0.080
-479.347	255.725	0.020	0.034
-478.332	-200.000	-0.000	-0.051
-477.318	-86.321	0.088	-0.027
-476.303	800.000	0.082	-0.322
-475.289	128.817	-0.041	0.053
-474.274	800.000	0.039	-0.129
-473.259	0.884	0.095	-0.068
-472.245	-165.801	0.283	0.012
-471.230	-98.891	0.097	-0.025
-470.216	800.000	-0.024	-0.084
-469.201	-200.000	0.059	0.363
-468.186	-83.275	0.178	-0.057
-467.172	397.157	0.136	-0.284
-466.157	564.000	0.039	0.094
-465.143	-112.950	-0.459	-0.091
-464.128	-54.510	-0.139	-0.063
-463.113	80.793	0.118	-0.127
-462.099	-200.000	-0.003	-0.262
-461.084	800.000	0.095	0.395
-460.070	49.418	-0.220	-0.207
-459.055	580.750	-0.112	0.273
-458.040	-67.824	-0.122	0.048
-457.026	-79.955	0.139	-0.047
-456.011	800.000	0.139	-0.463
-454.997	-14.342	0.186	0.120
-453.982	-87.740	0.313	-0.094
-452.968	-200.000	-0.035	-0.180
-451.953	-133.670	0.357	0.044
-450.938	-200.000	-0.072	0.454
-449.924	-111.014	-0.293	0.060
-448.909	57.443	-0.046	0.044
-447.895	-149.920	0.323	0.025
-446.880	-1.079	0.326	-0.230
-445.865	-200.000	-0.002	-0.228
-444.851	800.000	0.026	0.105
-443.836	47.765	0.259	0.242
-442.822	-85.298	-0.093	-0.029
-441.807	-147.947	-0.173	0.014
-440.792	-51.042	0.230	-0.108
-439.778	257.653	-0.057	0.098
-438.763	-50.853	0.111	-0.052
-437.749	319.221	-0.047	-0.089
-436.734	332.086	-0.152	-0.293
-435.719	-107.487	-0.204	0.045
-434.705	482.441	-0.046	0.104
-433.690	203.441	-0.110	0.170
-432.676	-200.000	-0.042	0.290
-431.661	-200.000	-0.003	-0.095
-430.646	-121.139	0.373	-0.062
-429.632	-129.779	-0.008	-0.001
-428.617	10.937	0.106	-0.081
-427.603	-62.607	-0.316	-0.131
-426.588	-200.000	-0.078	0.369
-425.573	-92.584	0.177	0.050
-424.559	320.298	-0.069	0.130
-423.544	0.502	0.138	-0.098
-422.530	-59.689	-0.239	-0.102
-421.515	130.688	-0.187	-0.239
-420.500	-63.000	0.242	-0.100
-419.486	115.561	0.204	0.248
-418.471	208.167	-0.116	0.180
-417.457	-107.944	-0.085	-0.018
-416.442	-200.000	-0.098	-0.507
-415.428	-200.000	-0.026	0.175
-414.413	31.339	0.144	-0.123
-413.398	172.030	0.075	-0.108
-412.384	-122.365	-0.084	0.014
-411.369	-42.952	-0.268	0.136
-410.355	189.058	0.112	0.167
-409.340	-200.000	0.055	-0.406
-408.325	-32.708	-0.034	-0.019
-407.311	-81.674	-0.089	-0.029
-406.296	-159.239	-0.099	-0.006
-405.282	-45.980	0.282	0.139
-404.267	-73.480	0.112	-0.041
-403.252	65.513	0.149	-0.151
-402.238	-49.934	-0.158	-0.075
-401.223	295.584	-0.065	-0.118
-400.209	-122.711	-0.411	-0.066
-399.194	-7.505	-0.121	0.081
-398.179	269.427	0.154	0.269
-397.165	18.028	-0.222	0.177
-396.150	129.068	0.305	-0.387
-395.136	-54.118	0.335	0.152
-394.121	286.580	0.027	0.048
-393.106	7.959	-0.068	-0.051
-392.092	-127.432	-0.299	0.043
-391.077	-136.337	-0.211	0.024
-390.063	-74.334	0.123	-0.044
-389.048	-62.356	-0.213	0.088
-388.033	-51.719	0.154	0.071
-387.019	32.723	0.088	0.076
-386.004	-3.104	-0.234	0.163
-384.990	-200.000	-0.001	0.154
-383.975	167.646	0.189	-0.267
-382.960	800.000	0.018	0.057
-381.946	-78.944	0.198	0.067
-380.931	-157.048	0.327	0.020
-379.917	-31.933	0.090	-0.050
-378.902	-200.000	0.022	0.159
-377.888	-121.003	-0.210	-0.035
-376.873	215.505	-0.081	0.128
-375.858	109.558	-0.184	-0.220
-374.844	597.710	-0.125	0.307
-373.829	-35.430	-0.246	0.133
-372.815	12.498	-0.212	0.162
-371.800	139.373	-0.046	-0.061
-370.785	-200.000	-0.004	0.102
-369.771	137.156	-0.131	0.170
-368.756	-200.000	0.027	0.226
-367.742	365.975	0.080	0.161
-366.727	-1.803	-0.045	0.032
-365.712	33.117	-0.212	-0.183
-364.698	-200.000	0.018	-0.232
-363.683	-84.992	0.261	0.081
-362.669	66.889	-0.165	0.168
-361.654	-72.960	0.095	-0.035
-360.639	46.883	0.065	-0.060
-359.625	-20.273	-0.090	0.055
-358.610	217.765	0.075	-0.118
-357.596	-14.253	-0.314	-0.201
-356.581	67.708	-0.168	-0.171
-355.566	-200.000	0.021	-0.395
-354.552	-59.402	-0.183	-0.078
-353.537	-200.000	0.045	-0.280
-352.523	-143.614	0.278	-0.026
-351.508	228.252	0.120	-0.194
-350.493	-37.016	0.232	0.124
-349.479	35.496	-0.260	-0.227
-348.464	800.000	0.024	-0.105
-347.450	-98.282	-0.174	-0.045
-346.435	353.323	0.005	0.010
-345.420	-52.973	0.175	0.080
-344.406	209.709	-0.041	-0.064
-343.391	-7.616	-0.060	-0.040
-342.377	-158.974	-0.163	0.009
-341.362	-86.982	0.018	0.006
-340.348	-13.868	-0.347	-0.223
-339.333	-110.941	0.590	-0.121
-338.318	-58.394	-0.235	0.102
-337.304	401.913	-0.135	-0.281
-336.289	23.079	0.135	0.110
-335.275	-200.000	-0.035	-0.221
-334.260	-98.109	0.186	-0.048
-333.245	-8.372	0.080	0.054
-332.231	-200.000	0.398	-0.000
-331.216	210.806	-0.251	-0.392
-330.202	51.125	-0.081	0.076
-329.187	-16.243	0.367	-0.232
-328.172	-200.000	0.021	-0.192
-327.158	-74.590	0.267	0.095
-326.143	367.049	-0.123	0.248
-325.129	261.855	-0.149	-0.257
-324.114	102.901	-0.076	-0.089
-323.099	800.000	0.047	-0.145
-322.085	-142.506	-0.116	-0.011
-321.070	-71.894	-0.267	0.099
-320.056	-200.000	0.030	0.220
-319.041	-154.372	0.357	0.024
-318.026	350.644	-0.156	-0.307
-317.012	260.300	-0.154	-0.264
-315.997	800.000	-0.065	0.214
-314.983	-200.000	0.005	0.401
-313.968	-71.453	-0.269	-0.100
-312.953	143.767	0.114	0.151
-311.939	800.000	0.051	-0.165
-310.924	32.137	-0.384	-0.329
-309.910	36.070	0.364	-0.318
-308.895	82.262	-0.036	-0.039
-307.880	-85.516	0.116	0.036
-306.866	-18.459	0.245	0.152
-305.851	-119.853	-0.058	-0.010
-304.837	170.372	0.031	0.045
-303.822	15.988	-0.076	0.060
-302.807	-23.966	-0.135	-0.080
-301.793	-91.394	-0.147	0.042
-300.778	-5.559	-0.085	0.058
-299.764	540.218	0.025	0.060
-298.749	134.840	0.232	0.299
-297.735	-200.000	-0.005	0.196
-296.720	-106.873	0.075	-0.016
-295.705	-188.127	0.350	0.004
-294.691	-113.798	0.107	-0.021
-293.676	-27.776	0.267	0.154
-292.662	-200.000	0.014	0.128
-291.647	-200.000	-0.020	-0.148
-290.632	-32.881	0.198	0.109
-289.618	75.041	0.251	0.262
-288.603	281.931	-0.147	0.261
-287.589	20.807	-0.092	0.074
-286.574	143.714	-0.080	0.106
-285.559	-8.158	-0.087	-0.058
-284.545	800.000	-0.088	0.253
-283.530	800.000	-0.012	0.046
-282.516	-5.559	-0.166	0.113
-281.501	-23.051	0.231	0.138
-280.486	-57.418	0.082	-0.036
-279.472	711.748	-0.014	-0.037
-278.457	-200.000	0.005	-0.076
-277.443	73.917	0.070	-0.073
-276.428	-118.497	0.215	0.038
-275.413	800.000	0.071	-0.268
-274.399	-16.470	-0.219	-0.138
-273.384	-143.453	0.132	-0.012
-272.370	-200.000	0.000	-0.049
-271.355	-200.000	0.011	-0.090
-270.340	99.839	-0.090	-0.103
-269.326	-95.650	-0.084	-0.022
-268.311	-135.833	0.334	0.039
-267.297	426.980	0.143	-0.305
-266.282	342.798	0.089	0.173
-265.267	-155.856	-0.096	-0.006
-264.253	-143.885	0.409	0.038
-263.238	520.356	-0.121	-0.281
-262.224	-125.476	-0.253	0.038
-261.209	-200.000	0.068	0.322
-260.195	-6.322	0.221	0.149
-259.180	-200.000	-0.004	0.089
-258.165	120.578	-0.036	0.044
-257.151	120.964	0.121	-0.149
-256.136	-102.417	0.287	0.068
-255.122	800.000	-0.059	0.228
-254.107	-200.000	0.016	0.151
-253.092	-104.948	-0.474	0.108
-252.078	18.570	0.041	0.033
-251.063	800.000	0.054	0.158
-250.049	-140.988	-0.131	0.013
-249.034	258.824	0.093	0.160
-248.019	524.362	0.088	-0.204
-247.005	-41.698	-0.152	0.078
-245.990	526.180	-0.103	0.241
-244.976	398.185	0.141	-0.292
-243.961	61.879	-0.256	0.253
-242.946	-162.357	0.422	-0.021
-241.932	643.448	-0.037	0.093
-240.917	-26.684	0.045	0.026
-239.903	-22.935	-0.220	0.132
-238.888	108.421	-0.158	-0.187
-237.873	800.000	0.027	-0.093
-236.859	217.735	0.077	-0.122
-235.844	115.507	-0.278	-0.337
-234.830	292.162	-0.076	0.138
-233.815	-70.064	-0.224	-0.084
-232.800	-118.212	0.341	0.060
-231.786	1.894	0.113	0.080
-230.771	-68.716	0.073	-0.028
-229.757	-20.126	-0.054	0.033
-228.742	-72.365	-0.238	0.087
-227.727	-102.996	0.150	0.035
-226.713	44.184	0.047	0.042
-225.698	-79.722	-0.310	0.103
-224.684	24.612	0.139	-0.114
-223.669	-169.633	0.170	-0.006
-222.655	-125.764	0.323	-0.048
-221.640	-82.363	-0.176	0.057
-220.625	56.045	-0.229	0.220
-219.611	244.839	0.190	-0.316
-218.596	-95.454	0.183	-0.049
-217.582	82.687	0.073	0.079
-216.567	378.605	-0.130	0.264
-215.552	-200.000	-0.018	0.355
-214.538	230.986	0.070	0.113
-213.523	-75.933	-0.039	-0.014
-212.509	800.000	-0.030	-0.100
-211.494	-200.000	-0.015	0.129
-210.479	-31.760	-0.153	0.085
-209.465	280.649	0.107	0.189
-208.450	86.183	0.118	-0.128
-207.436	182.131	0.133	0.193
-206.421	-200.000	0.040	-0.249
-205.406	-37.409	0.118	-0.062
-204.392	52.076	-0.167	0.158
-203.377	-76.511	-0.134	-0.047
-202.363	-200.000	-0.007	0.043
-201.348	-200.000	0.008	0.181
-200.333	-200.000	0.033	-0.217
-199.319	-141.332	-0.115	0.012
-198.304	120.906	0.178	-0.219
-197.290	-200.000	0.010	-0.159
-196.275	2.805	0.144	-0.104
-195.260	-40.841	0.056	0.029
-194.246	-97.211	0.151	0.039
-193.231	800.000	0.028	-0.096
-192.217	-200.000	-0.031	-0.275
-191.202	-134.503	0.246	-0.030
-190.187	60.364	-0.232	-0.227
-189.173	-200.000	-0.086	0.378
-188.158	-200.000	0.076	0.435
-187.144	800.000	0.054	0.189
-186.129	-176.529	0.314	-0.008
-185.114	37.870	0.172	-0.151
-184.100	-93.674	0.054	0.015
-183.085	800.000	0.095	-0.359
-182.071	-26.531	0.272	-0.157
-181.056	512.566	0.114	0.261
-180.042	39.616	-0.160	0.142
-179.027	-10.467	0.086	0.056
-178.012	-35.429	0.197	0.106
-176.998	-18.493	-0.083	0.051
-175.983	800.000	0.112	0.326
-174.969	340.045	-0.059	0.114
-173.954	-64.134	-0.029	-0.012
-172.939	195.556	-0.168	0.252
-171.925	800.000	0.071	0.259
-170.910	48.452	-0.055	0.051
-169.896	-19.941	0.404	0.246
-168.881	-200.000	0.037	0.324
-167.866	-200.000	-0.056	0.256
-166.852	121.883	-0.112	-0.138
-165.837	-89.660	-0.331	0.096
-164.823	-200.000	-0.006	0.121
-163.808	24.227	0.154	0.126
-162.793	-200.000	0.000	0.218
-161.779	592.750	-0.058	0.141
-160.764	-200.000	-0.034	0.327
-159.750	-82.919	0.020	0.006
-158.735	605.800	0.066	-0.162
-157.720	183.439	-0.165	-0.241
-156.706	-200.000	-0.024	0.111
-155.691	434.832	0.026	0.055
-154.677	215.105	-0.210	0.329
-153.662	-109.800	0.125	0.026
-152.647	-116.493	-0.221	-0.040
-151.633	-200.000	-0.021	0.101
-150.618	-21.077	0.255	0.154
-149.604	53.929	0.135	0.128
-148.589	774.218	0.072	-0.194
-147.574	413.762	0.036	-0.075
-146.560	209.945	-0.116	-0.180
-145.545	-20.322	-0.396	-0.241
-144.531	-200.000	0.038	-0.462
-143.516	242.706	-0.045	-0.075
-142.502	63.462	-0.090	-0.089
-141.487	504.485	0.013	0.029
-140.472	-48.829	-0.163	0.077
-139.458	332.048	0.120	-0.229
-138.443	-25.628	-0.157	0.091
-137.429	-135.212	0.172	0.020
-136.414	203.320	0.235	0.358
-135.399	800.000	-0.092	-0.397
-134.385	202.882	-0.172	-0.262
-133.370	669.023	0.097	0.248
-132.356	800.000	-0.038	0.114
-131.341	-99.671	0.494	0.122
-130.326	189.858	0.165	-0.245
-129.312	64.694	0.194	-0.193
-128.297	47.944	0.165	-0.152
-127.283	1.757	0.188	0.134
-126.268	-62.581	-0.125	-0.051
-125.253	-40.450	0.104	0.053
-124.239	-19.067	-0.102	-0.062
-123.224	-60.152	0.302	0.127
-122.210	171.983	0.262	0.371
-121.195	-160.756	0.062	0.003
-120.180	-164.600	0.276	-0.012
-119.166	-130.827	0.191	0.025
-118.151	75.915	0.079	-0.083
-117.137	-200.000	0.034	0.263
-116.122	156.562	0.075	0.102
-115.107	-33.312	0.135	-0.074
-114.093	-200.000	0.022	0.116
-113.078	-200.000	-0.011	0.124
-112.064	-127.588	0.033	-0.005
-111.049	21.862	0.241	0.194
-110.034	-3.160	0.170	-0.117
-109.020	-28.055	0.302	-0.172
-108.005	-100.073	-0.037	-0.009
-106.991	682.783	-0.121	0.311
-105.976	-200.000	0.016	-0.279
-104.962	436.371	-0.050	0.107
-103.947	-20.039	-0.083	0.051
-102.932	56.202	0.199	0.190
-101.918	297.738	0.101	0.183
-100.903	55.565	-0.061	-0.058
-99.889	2.138	0.258	-0.184
-98.874	-137.839	0.192	0.021
-97.859	350.489	0.099	-0.193
-96.845	-102.821	-0.196	-0.046
-95.830	800.000	-0.080	0.248
-94.816	800.000	-0.018	0.061
-93.801	-7.699	-0.265	0.176
-92.786	-82.267	-0.047	-0.015
-91.772	800.000	0.082	-0.273
-90.757	55.081	-0.113	-0.108
-89.743	-104.166	-0.072	0.017
-88.728	-37.492	-0.363	-0.191
-87.713	147.215	0.054	0.072
-86.699	573.491	-0.126	-0.303
-85.684	73.208	-0.148	0.152
-84.670	140.141	-0.184	0.239
-83.655	-200.000	0.019	-0.150
-82.640	-200.000	0.002	0.037
-81.626	2.341	-0.078	-0.056
-80.611	122.025	-0.047	0.058
-79.597	-144.650	-0.262	-0.024
-78.582	63.791	-0.081	0.080
-77.567	-134.384	-0.242	0.029
-76.553	-200.000	0.023	-0.169
-75.538	-113.547	-0.136	0.026
-74.524	-59.646	-0.324	-0.137
-73.509	12.468	-0.267	0.202
-72.494	-133.059	0.092	-0.011
-71.480	173.586	-0.082	0.116
-70.465	-200.000	-0.016	-0.170
-69.451	-60.300	-0.419	-0.175
-68.436	25.095	-0.271	-0.221
-67.422	-105.596	-0.192	-0.043
-66.407	-153.890	0.236	-0.016
-65.392	-47.612	0.083	-0.040
-64.378	355.008	0.061	0.118
-63.363	-200.000	0.029	-0.265
-62.349	-18.062	0.113	-0.070
-61.334	48.782	-1.004	-0.927
-60.319	88.870	0.655	0.716
-59.305	746.253	-0.358	-0.948
-58.290	25.614	0.993	0.813
-57.276	800.000	0.468	1.652
-56.261	-200.000	100.496	639.499
-55.246	620.515	1450.292	3586.132
-54.232	180.843	2661.020	3842.914
-53.217	118.599	2182.812	2649.654
-52.203	44.061	1624.524	1464.259
-51.188	35.367	1359.189	1172.221
-50.173	32.123	1317.391	1116.875
-49.159	56.393	1367.156	1306.415
-48.144	58.160	1383.424	1332.564
-47.130	35.637	1339.177	1156.400
-46.115	32.058	1321.720	1119.981
-45.100	31.828	1316.881	1114.468
-44.086	31.753	1314.333	1111.820
-43.071	31.674	1312.012	1109.346
-42.057	31.599	1309.949	1107.115
-41.042	31.743	1308.109	1106.368
-40.027	31.717	1306.991	1105.222
-39.013	31.828	1304.256	1103.517
-37.998	31.701	1303.002	1101.664
-36.984	31.836	1301.688	1101.303
-35.969	31.824	1299.517	1099.356
-34.954	31.851	1297.958	1098.147
-33.940	31.985	1296.592	1097.736
-32.925	31.993	1295.053	1096.436
-31.911	31.952	1293.714	1095.018
-30.896	31.870	1292.347	1093.337
-29.881	31.870	1291.090	1092.232
-28.867	31.993	1289.884	1091.887
-27.852	31.915	1288.384	1090.116
-26.838	32.033	1286.640	1089.285
-25.823	31.929	1285.398	1087.586
-24.809	31.857	1283.929	1085.882
-23.794	31.910	1282.599	1085.021
-22.779	31.927	1281.118	1083.827
-21.765	31.987	1279.553	1082.804
-20.750	31.934	1278.314	1081.407
-19.736	31.881	1277.051	1079.991
-18.721	31.798	1276.282	1078.818
-17.706	31.729	1275.146	1077.422
-16.692	31.846	1273.611	1076.752
-15.677	31.916	1272.767	1076.396
-14.663	31.822	1271.384	1074.647
-13.648	31.709	1270.465	1073.183
-12.633	31.788	1269.285	1072.593
-11.619	31.678	1268.920	1071.612
-10.604	31.848	1267.618	1071.443
-9.590	31.756	1266.668	1070.069
-8.575	31.709	1265.754	1068.990
-7.560	31.688	1264.967	1068.160
-6.546	31.780	1263.777	1067.640
-5.531	31.776	1262.779	1066.728
-4.517	31.793	1262.006	1066.132
-3.502	31.782	1261.356	1065.479
-2.487	31.745	1260.574	1064.561
-1.473	31.821	1256.988	1061.925
-0.458	30.796	1242.293	1043.728
0.556	25.089	1224.932	1008.574
1.571	21.892	1231.038	995.402
2.586	21.076	1246.862	1003.416
3.600	20.525	1235.848	991.324
4.615	15.720	1163.046	906.990
5.629	5.953	1085.146	796.798
6.644	0.643	1062.698	753.799
7.659	0.004	1060.326	748.872
8.673	-0.154	1058.956	747.050
9.688	-0.140	1057.483	746.014
10.702	0.444	1056.800	748.365
11.717	6.934	1065.844	787.097
12.731	16.042	1078.432	842.018
13.746	20.127	1083.562	866.410
14.761	20.943	1084.719	871.337
15.775	20.987	1084.058	870.948
16.790	20.576	1083.479	868.356
17.804	20.610	1082.572	867.721
18.819	20.761	1082.090	868.013
19.834	20.901	1081.564	868.210
20.848	20.808	1081.396	867.537
21.863	20.883	1080.849	867.395
22.877	20.775	1080.126	866.198
23.892	20.627	1079.389	864.797
24.907	20.766	1078.535	864.725
25.921	20.729	1077.645	863.750
26.936	20.709	1076.163	862.389
27.950	20.718	1074.656	861.147
28.965	20.617	1072.596	858.925
29.980	20.583	1070.904	857.324
30.994	20.964	1069.688	858.150
32.009	20.930	1068.753	857.159
33.023	20.813	1067.459	855.468
34.038	20.747	1067.137	854.810
35.053	20.889	1066.537	854.953
36.067	20.857	1065.500	853.889
37.082	20.963	1064.568	853.585
38.096	21.038	1064.581	853.889
39.111	21.073	1063.344	852.992
40.126	20.903	1061.785	850.833
41.140	20.592	1059.725	847.594
42.155	20.425	1058.125	845.426
43.169	20.486	1057.881	845.453
44.184	20.510	1056.900	844.713
45.199	20.399	1055.788	843.209
46.213	20.437	1054.715	842.462
47.228	20.601	1053.860	842.499
48.242	20.699	1052.681	841.956
49.257	20.755	1052.095	841.685
50.271	20.975	1050.850	841.676
51.286	20.750	1050.837	840.505
52.301	20.973	1049.539	840.466
53.315	20.921	1048.530	839.333
54.330	20.812	1047.716	838.083
55.344	20.947	1046.842	837.960
56.359	20.714	1046.476	836.470
57.374	20.507	1045.146	834.339
58.388	20.499	1044.601	833.794
59.403	20.609	1043.225	833.148
60.417	20.495	1042.113	831.642
61.432	20.512	1041.936	831.509
62.447	20.587	1041.829	831.709
63.461	20.757	1040.385	831.296
64.476	20.464	1039.774	829.331
65.490	20.381	1038.931	828.190
66.505	20.595	1037.713	828.166
67.520	20.621	1036.846	827.527
68.534	20.376	1036.107	825.698
69.549	20.143	1034.709	823.401
70.563	20.105	1034.456	822.950
71.578	20.080	1033.545	822.035
72.593	20.074	1032.096	820.777
73.607	20.060	1031.929	820.506
74.622	20.402	1031.548	821.749
75.636	20.374	1031.157	821.235
76.651	20.440	1029.439	820.105
77.666	20.302	1028.885	818.939
78.680	20.344	1028.280	818.584
79.695	20.312	1027.803	817.981
80.709	20.596	1026.815	818.461
81.724	20.405	1026.409	817.165
82.739	20.548	1025.577	817.103
83.753	20.773	1025.551	818.066
84.768	21.124	1023.918	818.339
85.782	21.127	1023.277	817.769
86.797	21.070	1021.859	816.293
87.812	20.814	1021.407	814.663
88.826	21.041	1020.136	814.637
89.841	21.072	1019.379	814.108
90.855	21.171	1018.020	813.410
91.870	20.991	1017.674	812.222
92.884	21.013	1016.077	810.981
93.899	20.805	1015.654	809.604
94.914	21.056	1014.658	809.902
95.928	20.772	1013.853	807.871
96.943	20.638	1012.684	806.247
97.957	20.445	1011.340	804.214
98.972	20.464	1009.592	802.840
99.987	20.654	1009.305	803.415
101.001	20.831	1008.314	803.372
102.016	20.694	1007.852	802.304
103.030	20.791	1006.554	801.647
104.045	20.481	1005.990	799.697
105.060	20.336	1005.175	798.313
106.074	20.501	1004.411	798.396
107.089	20.888	1003.859	799.662
108.103	20.722	1003.028	798.169
109.118	20.488	1001.197	795.570
110.133	20.691	999.928	795.418
111.147	20.353	999.081	793.132
112.162	20.361	998.223	792.416
113.176	20.523	997.554	792.553
114.191	20.495	996.495	791.512
115.206	20.093	995.892	789.133
116.220	20.115	994.897	788.375
117.235	20.284	993.774	788.185
118.249	20.295	992.727	787.334
119.264	20.197	991.850	786.123
120.279	20.152	991.414	785.506
121.293	20.317	990.579	785.524
122.308	20.301	989.336	784.394
123.322	20.241	988.456	783.354
124.337	20.081	987.095	781.485
125.352	19.634	984.895	777.666
126.366	19.605	984.081	776.823
127.381	20.469	983.802	780.418
128.395	20.707	983.842	781.446
129.410	20.786	982.592	780.739
130.424	20.802	981.698	780.033
131.439	20.892	980.609	779.499
132.454	20.724	979.750	777.999
133.468	20.497	979.273	776.534
134.483	20.827	978.178	777.072
135.497	21.040	977.156	777.142
136.512	21.105	976.529	776.864
137.527	21.149	975.477	776.150
138.541	21.007	974.824	774.932
139.556	20.943	974.281	774.150
140.570	21.057	973.260	773.776
141.585	21.044	972.263	772.857
142.600	21.048	971.135	771.908
143.614	21.305	970.338	772.343
144.629	21.462	969.323	772.158
145.643	21.095	968.516	769.830
146.658	20.963	967.528	768.394
147.673	20.948	966.094	767.122
148.687	20.914	964.819	765.893
149.702	20.890	963.426	764.614
150.716	20.773	963.161	763.821
151.731	20.911	963.041	764.263
152.746	21.069	962.040	764.094
153.760	21.252	961.535	764.426
154.775	21.152	960.792	763.331
155.789	21.167	959.968	762.675
156.804	21.172	958.867	761.754
157.819	21.175	958.384	761.315
158.833	21.315	957.050	760.801
159.848	21.390	955.884	760.132
160.862	21.198	955.066	758.579
161.877	21.187	954.008	757.623
162.892	21.248	952.683	756.770
163.906	21.175	951.975	755.821
164.921	21.268	951.086	755.451
165.935	21.181	950.185	754.296
166.950	21.094	949.505	753.314
167.964	21.222	948.474	752.981
168.979	20.972	947.648	751.182
169.994	21.018	946.238	750.196
171.008	21.246	945.919	750.856
172.023	21.257	945.213	750.274
173.037	20.894	943.949	747.649
174.052	20.819	943.343	746.782
175.067	20.856	942.726	746.385
176.081	21.011	942.117	746.499
177.096	21.059	940.746	745.551
178.110	20.705	939.888	743.297
179.125	20.661	939.091	742.413
180.140	20.639	939.325	742.437
181.154	20.689	938.810	742.176
182.169	20.982	939.032	743.536
183.183	21.196	938.115	743.657
184.198	21.125	936.915	742.338
185.213	21.046	936.580	741.671
186.227	21.212	935.876	741.752
187.242	21.193	935.360	741.198
188.256	21.142	934.680	740.378
189.271	21.341	933.924	740.555
190.286	21.071	932.246	738.016
191.300	20.412	931.451	734.537
192.315	19.658	929.833	730.013
193.329	19.714	929.430	729.869
194.344	20.511	929.678	733.362
195.359	20.993	929.639	735.298
196.373	21.200	928.744	735.396
197.388	20.991	928.325	734.120
198.402	20.968	928.083	733.767
199.417	21.123	926.674	733.242
200.432	20.684	925.869	730.697
201.446	20.608	925.406	729.948
202.461	20.645	924.732	729.504
203.475	19.879	922.342	724.351
204.490	19.043	921.608	720.213
205.504	20.006	921.877	724.387
206.519	20.760	921.652	727.299
207.534	20.675	921.360	726.651
208.548	21.154	921.288	728.529
209.563	20.947	920.175	726.721
210.577	20.945	919.239	725.910
211.592	21.167	919.357	726.860
212.607	21.141	918.275	725.834
213.621	21.390	917.477	726.173
214.636	21.389	916.817	725.580
215.650	21.159	915.868	723.812
216.665	21.269	915.579	723.978
217.680	21.286	914.798	723.367
218.694	20.781	913.161	719.921
219.709	20.645	912.811	719.019
220.723	20.929	912.117	719.581
221.738	21.046	911.676	719.651
222.753	21.068	910.910	719.072
223.767	21.097	910.689	718.955
224.782	21.404	910.194	719.763
225.796	21.456	909.499	719.367
226.811	20.639	908.102	714.842
227.826	20.028	906.971	711.381
228.840	20.239	906.240	711.606
229.855	20.289	905.571	711.226
230.869	20.021	904.800	709.459
231.884	20.505	904.780	711.361
232.899	21.090	904.786	713.696
233.913	20.998	904.035	712.668
234.928	21.038	903.297	712.183
235.942	20.952	902.662	711.271
236.957	20.770	901.809	709.792
237.972	20.674	901.243	708.894
238.986	20.732	901.022	708.894
240.001	20.696	900.147	707.996
241.015	20.883	899.518	708.199
242.030	21.059	898.987	708.431
243.045	21.151	898.580	708.423
244.059	21.273	898.427	708.734
245.074	21.025	897.447	706.893
246.088	20.636	896.412	704.440
247.103	20.879	895.794	704.874
248.117	21.560	895.694	707.488
249.132	21.800	895.219	708.019
250.147	21.837	894.850	707.815
251.161	21.963	894.453	707.945
252.176	21.771	893.815	706.604
253.190	21.912	893.439	706.815
254.205	22.189	892.891	707.431
255.220	22.018	892.494	706.367
256.234	21.807	891.389	704.582
257.249	21.877	890.515	704.110
258.263	21.796	890.008	703.320
259.278	21.875	889.404	703.100
260.293	21.875	889.238	702.908
261.307	21.845	888.003	701.747
262.322	21.678	886.960	700.192
263.336	20.860	884.700	695.084
264.351	19.799	883.075	689.521
265.366	20.007	882.904	690.152
266.380	21.119	883.861	695.273
267.395	21.641	883.208	696.775
268.409	21.442	882.297	695.206
269.424	21.738	882.158	696.209
270.439	21.650	881.792	695.510
271.453	21.745	881.122	695.295
272.468	21.979	880.709	695.837
273.482	22.046	880.205	695.643
274.497	21.518	878.832	692.405
275.512	21.273	878.305	690.960
276.526	21.763	877.843	692.472
277.541	21.782	877.782	692.440
278.555	21.641	876.810	691.053
279.570	21.419	875.816	689.335
280.585	21.487	875.506	689.298
281.599	21.612	874.386	688.847
282.614	21.038	873.125	685.538
283.628	20.796	873.480	684.804
284.643	21.309	872.342	685.864
285.657	20.921	871.184	683.374
286.672	20.770	870.139	681.901
287.687	21.193	870.431	683.729
288.701	21.424	869.683	683.983
289.716	21.094	868.831	681.961
290.730	21.000	867.820	680.741
291.745	20.695	867.111	678.933
292.760	21.076	867.181	680.415
293.774	21.890	867.669	683.914
294.789	22.265	867.549	685.219
295.803	22.424	866.813	685.195
296.818	22.291	865.842	683.852
297.833	21.937	864.672	681.494
298.847	21.727	864.157	680.210
299.862	22.133	863.964	681.575
300.876	22.307	863.800	682.060
301.891	22.098	863.122	680.655
302.906	21.600	862.195	677.934
303.920	21.802	861.837	678.375
304.935	22.240	861.151	679.466
305.949	22.163	860.539	678.626
306.964	22.020	859.833	677.460
307.979	21.978	859.697	677.129
308.993	22.376	859.251	678.252
310.008	22.383	858.805	677.866
311.022	22.195	857.849	676.331
312.037	22.006	857.269	675.087
313.052	21.915	856.284	673.902
314.066	20.887	854.844	668.764
315.081	20.642	853.938	667.058
316.095	21.609	854.247	670.946
317.110	21.865	854.481	672.051
318.125	21.163	852.807	667.993
319.139	20.061	851.284	662.529
320.154	20.135	850.723	662.317
321.168	21.069	851.126	666.140
322.183	21.714	851.298	668.677
323.197	21.880	851.042	669.049
324.212	22.073	850.602	669.380
325.227	22.064	850.234	668.995
326.241	21.873	849.573	667.693
327.256	21.893	848.683	667.009
328.270	21.729	848.219	665.962
329.285	21.519	847.146	664.264
330.300	21.337	846.456	662.972
331.314	21.584	846.603	663.966
332.329	22.028	846.011	665.123
333.343	22.156	845.711	665.315
334.358	22.047	845.595	664.751
335.373	22.211	844.918	664.782
336.387	22.456	844.805	665.562
337.402	22.730	844.494	666.290
338.416	22.660	843.933	665.527
339.431	22.583	843.747	665.030
340.446	22.778	843.599	665.590
341.460	22.546	843.263	664.392
342.475	22.312	842.685	662.993
343.489	22.411	842.229	662.950
344.504	22.797	841.862	664.057
345.519	22.810	841.728	663.940
346.533	23.007	840.956	664.011
347.548	22.901	840.609	663.282
348.562	22.811	840.056	662.447
349.577	22.879	839.209	661.976
350.592	22.823	838.699	661.306
351.606	22.952	837.858	661.066
352.621	22.744	837.067	659.607
353.635	22.549	836.367	658.269
354.650	22.080	834.688	655.140
355.665	21.153	833.365	650.592
356.679	21.586	832.971	651.840
357.694	21.975	832.622	652.953
358.708	21.890	831.940	652.046
359.723	22.351	832.065	653.801
360.738	22.519	831.790	654.149
361.752	22.683	831.233	654.263
362.767	22.933	830.568	654.607
363.781	23.115	830.264	654.984
364.796	23.259	830.141	655.362
365.810	23.271	830.044	655.273
366.825	23.211	829.344	654.438
367.840	22.970	828.590	652.895
368.854	22.756	827.763	651.397
369.869	22.590	827.185	650.273
370.883	22.711	826.870	650.413
371.898	22.495	826.600	649.345
372.913	22.482	826.170	648.902
373.927	22.807	825.807	649.756
374.942	22.817	825.346	649.373
375.956	22.979	824.844	649.517
376.971	23.105	824.520	649.669
377.986	23.134	824.475	649.679
379.000	23.211	823.971	649.509
380.015	23.067	822.734	647.948
381.029	23.157	822.350	647.920
382.044	23.394	821.522	648.077
383.059	23.209	821.275	647.148
384.073	23.391	820.664	647.274
385.088	23.231	820.088	646.179
386.102	23.046	818.981	644.575
387.117	22.903	818.746	643.808
388.132	22.611	817.487	641.701
389.146	22.128	816.727	639.292
390.161	22.664	816.220	640.786
391.175	22.870	816.394	641.613
392.190	22.577	815.160	639.525
393.205	21.257	813.221	633.166
394.219	20.006	811.282	627.073
395.234	19.907	811.763	627.029
396.248	21.454	813.180	633.678
397.263	22.794	813.651	638.843
398.278	22.759	813.358	638.429
399.292	22.600	812.530	637.148
400.307	22.623	811.622	636.465
401.321	22.631	811.578	636.403
402.336	23.008	811.463	637.615
403.350	23.508	811.569	639.444
404.365	23.615	811.268	639.537
405.380	23.799	810.924	639.872
406.394	23.849	810.699	639.817
407.409	23.883	809.879	639.237
408.423	23.792	809.537	638.584
409.438	23.865	809.160	638.491
410.453	24.022	808.425	638.418
411.467	23.949	808.174	637.901
412.482	23.929	807.847	637.517
413.496	24.157	807.068	637.659
414.511	23.912	806.937	636.624
415.526	23.920	806.604	636.333
416.540	23.766	805.578	634.918
417.555	23.481	805.150	633.506
418.569	23.625	804.783	633.673
419.584	23.557	804.083	632.823
420.599	23.450	803.421	631.865
421.613	155.020	1365.768	1795.930
422.628	134.573	1447.700	1796.021
