DTS Sentinel unit serial number:	SN413079Multiplexer serial number:	ORYXHardware model number:	OX4-SRSoftware version number:	ORYX F/W v4.00 Oryx Data Collector v3.7.2.0data status	okinstallation	princeton_trtdifferential loss correction	single-endedforward channel	channel 1reverse channel	N/Adate	2019/09/11time	21:32:11forward acquisition time	60.00reverse acquisition time	0.00gamma	496.2192k internal	0.2310k external	0.2310temperature offset calibration	1.0054default loss term (dB/km)	0.3790temperature slope calibration	1.0000multiplexer offset coefficient	1.0000multiplexer slope coefficient	1.0000fibre end	0.00T internal ref (°C)	35.98T ext. ref 1 (°C)	1.64T ext. ref 2 (°C)	29.92length (m)	temperature (°C)	Stokes	anti-Stokes-747.200	-200.000	0.009	0.439
-746.185	-200.000	-0.024	0.189
-745.171	800.000	-0.076	0.271
-744.156	-43.896	0.300	0.153
-743.142	-19.520	0.202	0.127
-742.127	-200.000	0.105	0.513
-741.112	-200.000	0.005	0.025
-740.098	695.283	-0.078	0.209
-739.083	-143.139	-0.290	0.028
-738.069	-65.684	-0.118	-0.048
-737.054	50.649	0.037	-0.036
-736.039	140.615	-0.192	0.258
-735.025	-114.854	-0.140	0.027
-734.010	-92.437	0.260	-0.074
-732.996	146.295	0.079	0.107
-731.981	87.982	-0.133	-0.150
-730.966	-72.735	-0.275	-0.103
-729.952	12.076	-0.164	-0.128
-728.937	133.587	0.134	-0.176
-727.923	53.488	-0.149	0.145
-726.908	-200.000	-0.077	-0.432
-725.894	800.000	0.152	-0.436
-724.879	-118.346	-0.301	0.054
-723.864	379.729	-0.111	0.231
-722.850	111.641	-0.204	-0.250
-721.835	-97.720	0.125	0.033
-720.821	-200.000	0.058	-0.419
-719.806	-200.000	0.029	0.185
-718.791	-129.205	0.467	-0.066
-717.777	-171.634	0.379	-0.013
-716.762	164.800	-0.121	0.173
-715.748	-200.000	0.006	-0.103
-714.733	-200.000	0.020	0.236
-713.718	-200.000	0.030	-0.270
-712.704	-84.561	-0.093	-0.030
-711.689	-200.000	0.049	-0.259
-710.675	80.663	0.109	-0.119
-709.660	800.000	-0.013	-0.047
-708.645	800.000	0.129	0.372
-707.631	47.229	0.435	0.411
-706.616	-1.078	-0.281	-0.202
-705.602	-200.000	0.030	-0.203
-704.587	161.234	0.209	0.296
-703.572	-168.364	0.261	0.010
-702.558	-169.288	-0.119	-0.004
-701.543	51.056	0.148	-0.142
-700.529	-44.571	0.023	0.012
-699.514	-200.000	0.019	-0.371
-698.499	-166.929	-0.175	0.007
-697.485	-26.867	0.197	-0.117
-696.470	800.000	-0.134	0.534
-695.456	72.858	0.105	0.112
-694.441	-43.894	0.077	-0.039
-693.426	-100.764	0.225	0.056
-692.412	54.603	-0.046	-0.045
-691.397	-80.725	-0.104	-0.035
-690.383	-97.637	-0.148	-0.039
-689.368	107.234	0.114	-0.137
-688.354	-141.414	0.146	-0.015
-687.339	-200.000	-0.010	0.182
-686.324	80.212	-0.306	0.334
-685.310	-114.223	-0.193	0.038
-684.295	800.000	0.097	0.349
-683.281	-193.142	-0.057	0.001
-682.266	-151.813	-0.373	0.028
-681.251	-108.470	-0.444	0.097
-680.237	-169.003	-0.255	-0.010
-679.222	18.645	-0.169	0.137
-678.208	-92.720	-0.236	0.067
-677.193	-55.865	0.134	0.061
-676.178	-200.000	-0.018	0.199
-675.164	-88.401	0.283	-0.086
-674.149	-21.113	-0.079	0.049
-673.135	126.882	-0.089	-0.115
-672.120	-2.601	-0.097	-0.069
-671.105	-145.640	0.252	-0.023
-670.091	5.356	-0.265	0.198
-669.076	318.608	0.112	0.214
-668.062	-200.000	-0.040	0.302
-667.047	209.933	-0.191	-0.303
-666.032	-113.561	-0.493	0.098
-665.018	-30.952	0.161	0.092
-664.003	800.000	-0.075	0.329
-662.989	-11.682	-0.326	-0.217
-661.974	-200.000	0.017	-0.209
-660.959	37.392	-0.127	-0.114
-659.945	208.647	-0.069	-0.109
-658.930	155.540	0.274	0.382
-657.916	-195.446	0.258	0.002
-656.901	-200.000	-0.014	-0.296
-655.886	45.118	-0.073	0.068
-654.872	800.000	-0.029	0.118
-653.857	-30.358	0.049	-0.028
-652.843	-152.981	0.186	0.013
-651.828	-200.000	0.011	0.391
-650.814	788.095	-0.098	-0.272
-649.799	-51.785	0.026	0.012
-648.784	-200.000	-0.040	-0.216
-647.770	25.114	0.092	-0.077
-646.755	-176.925	-0.381	-0.010
-645.741	96.186	-0.062	0.072
-644.726	-30.723	-0.067	0.038
-643.711	-162.494	-0.175	-0.009
-642.697	-86.609	0.304	0.094
-641.682	-55.294	-0.087	0.039
-640.668	-167.063	0.232	0.010
-639.653	273.135	-0.191	0.342
-638.638	-159.730	-0.193	-0.011
-637.624	-110.185	0.215	0.045
-636.609	-200.000	0.011	-0.134
-635.595	-77.816	-0.154	0.054
-634.580	550.994	-0.125	-0.303
-633.565	436.141	-0.027	0.060
-632.551	27.690	0.073	-0.062
-631.536	-123.065	0.125	-0.020
-630.522	-200.000	0.003	-0.140
-629.507	-5.804	0.053	0.036
-628.492	418.922	0.077	0.167
-627.478	88.069	-0.017	-0.019
-626.463	165.073	0.164	0.234
-625.449	-166.306	-0.244	-0.010
-624.434	-66.333	0.324	-0.130
-623.419	46.432	0.114	-0.106
-622.405	45.762	-0.083	-0.077
-621.390	-200.000	-0.003	-0.153
-620.376	800.000	-0.014	-0.042
-619.361	289.125	-0.160	-0.294
-618.346	157.026	-0.093	-0.129
-617.332	203.597	-0.262	-0.409
-616.317	357.975	-0.212	-0.428
-615.303	95.409	-0.184	-0.211
-614.288	-118.030	-0.168	-0.030
-613.273	-44.299	-0.196	0.099
-612.259	13.928	0.086	0.067
-611.244	499.703	-0.065	-0.151
-610.230	800.000	-0.085	-0.254
-609.215	-200.000	0.016	-0.073
-608.201	-122.173	0.340	-0.056
-607.186	-128.191	-0.346	-0.050
-606.171	-200.000	0.030	-0.157
-605.157	-87.638	-0.371	0.113
-604.142	247.057	-0.055	-0.093
-603.128	-52.127	0.104	0.049
-602.113	59.386	-0.322	0.321
-601.098	-200.000	0.024	0.120
-600.084	93.955	0.081	0.093
-599.069	516.171	-0.127	0.300
-598.055	-128.531	0.215	-0.031
-597.040	-200.000	-0.033	0.358
-596.025	-200.000	0.001	-0.012
-595.011	800.000	-0.047	0.201
-593.996	-2.019	-0.075	0.054
-592.982	-54.294	0.261	0.120
-591.967	96.278	-0.170	-0.197
-590.952	153.228	-0.183	0.252
-589.938	304.368	-0.062	0.115
-588.923	-200.000	0.008	-0.109
-587.909	71.484	-0.187	-0.196
-586.894	-79.599	0.075	0.026
-585.879	-107.054	-0.449	-0.100
-584.865	241.835	0.077	-0.129
-583.850	195.574	0.020	0.031
-582.836	434.813	0.079	0.174
-581.821	-86.077	-0.402	0.125
-580.806	-61.339	0.091	-0.038
-579.792	1.285	0.260	0.189
-578.777	47.651	0.086	-0.081
-577.763	252.227	-0.028	0.049
-576.748	32.864	0.285	-0.249
-575.733	-200.000	-0.032	0.319
-574.719	-200.000	-0.036	0.560
-573.704	221.176	0.181	0.294
-572.690	324.815	-0.138	-0.267
-571.675	-81.615	-0.189	0.063
-570.661	-200.000	-0.015	-0.323
-569.646	-128.503	0.280	-0.040
-568.631	-200.000	0.032	0.334
-567.617	169.827	0.394	-0.568
-566.602	-200.000	-0.001	0.088
-565.588	-200.000	-0.012	0.127
-564.573	131.780	-0.109	0.141
-563.558	-200.000	0.002	0.016
-562.544	-31.607	0.073	0.041
-561.529	-133.031	-0.136	-0.017
-560.515	-153.768	0.124	0.009
-559.500	-102.666	-0.215	-0.052
-558.485	73.481	-0.173	0.183
-557.471	108.974	0.162	0.195
-556.456	311.762	-0.058	0.109
-555.442	662.681	0.084	0.218
-554.427	663.690	0.161	0.419
-553.412	8.351	-0.241	0.183
-552.398	-200.000	0.002	0.128
-551.383	82.259	-0.251	0.274
-550.369	28.903	-0.109	-0.093
-549.354	584.907	0.024	-0.061
-548.339	-143.716	0.207	-0.020
-547.325	-124.256	-0.216	-0.034
-546.310	-137.695	0.258	-0.029
-545.296	468.718	0.054	0.123
-544.281	46.365	0.205	0.192
-543.266	800.000	0.075	0.227
-542.252	-200.000	0.014	0.063
-541.237	186.385	0.113	-0.169
-540.223	-200.000	-0.013	-0.161
-539.208	4.487	-0.251	-0.185
-538.193	-200.000	-0.035	-0.228
-537.179	99.873	-0.095	-0.110
-536.164	568.010	0.076	0.186
-535.150	-44.222	-0.330	-0.167
-534.135	800.000	-0.018	-0.076
-533.121	-17.946	0.116	0.073
-532.106	-40.442	0.253	-0.133
-531.091	-125.949	-0.229	0.035
-530.077	-101.744	0.043	0.011
-529.062	-184.231	-0.326	-0.005
-528.048	240.261	0.149	0.250
-527.033	-94.587	0.057	0.016
-526.018	-51.402	0.497	-0.234
-525.004	-200.000	-0.023	-0.170
-523.989	-186.170	-0.283	-0.004
-522.975	-200.000	0.057	-0.253
-521.960	-68.274	0.072	0.028
-520.945	-200.000	-0.017	-0.207
-519.931	140.310	0.254	0.337
-518.916	800.000	-0.030	-0.097
-517.902	95.407	0.306	0.351
-516.887	175.190	0.115	0.168
-515.872	-100.690	0.100	-0.025
-514.858	103.382	0.068	0.080
-513.843	44.137	-0.245	0.227
-512.829	-200.000	0.010	0.110
-511.814	49.073	0.057	0.054
-510.799	108.743	-0.074	-0.089
-509.785	-10.583	-0.260	0.173
-508.770	-23.994	-0.228	-0.137
-507.756	-200.000	0.021	0.180
-506.741	118.816	0.300	-0.373
-505.726	23.539	-0.135	0.112
-504.712	203.815	0.041	0.065
-503.697	198.921	-0.086	-0.133
-502.683	330.955	0.110	0.213
-501.668	-200.000	-0.029	-0.256
-500.653	800.000	0.083	-0.272
-499.639	-2.635	0.358	-0.252
-498.624	725.878	-0.112	0.302
-497.610	-4.134	0.213	-0.148
-496.595	56.500	0.071	-0.069
-495.581	-200.000	0.004	0.385
-494.566	-146.686	-0.084	0.007
-493.551	457.551	-0.140	0.312
-492.537	800.000	-0.007	0.027
-491.522	-119.522	-0.470	-0.082
-490.508	-200.000	-0.002	0.144
-489.493	34.122	-0.234	-0.205
-488.478	800.000	0.053	-0.203
-487.464	-91.724	-0.271	-0.078
-486.449	-57.782	-0.085	-0.037
-485.435	-117.402	-0.100	-0.018
-484.420	120.453	0.258	0.323
-483.405	-140.217	0.318	-0.034
-482.391	93.499	0.195	-0.222
-481.376	-200.000	-0.017	0.113
-480.362	54.963	-0.205	-0.199
-479.347	125.225	0.040	0.051
-478.332	89.413	0.161	-0.180
-477.318	32.459	-0.349	0.303
-476.303	60.100	0.189	-0.188
-475.289	222.531	-0.042	0.068
-474.274	-200.000	0.038	0.236
-473.259	83.987	-0.194	0.212
-472.245	-200.000	0.046	-0.272
-471.230	30.242	-0.162	-0.139
-470.216	-40.925	-0.159	-0.082
-469.201	393.662	0.044	0.093
-468.186	244.902	0.107	0.181
-467.172	-59.440	-0.341	0.147
-466.157	800.000	-0.056	0.197
-465.143	74.789	0.070	0.074
-464.128	-110.473	-0.434	-0.091
-463.113	800.000	0.058	0.221
-462.099	-100.299	-0.224	-0.056
-461.084	60.555	0.167	-0.166
-460.070	131.643	-0.121	0.156
-459.055	-114.747	0.617	-0.118
-458.040	25.139	0.201	0.168
-457.026	121.232	-0.107	0.133
-456.011	800.000	-0.021	0.059
-454.997	70.207	0.193	-0.200
-453.982	800.000	-0.070	0.286
-452.968	-89.595	-0.136	0.040
-451.953	150.045	0.019	-0.025
-450.938	43.079	0.136	0.124
-449.924	446.128	-0.074	0.164
-448.909	0.502	0.264	-0.190
-447.895	200.221	-0.030	0.046
-446.880	57.945	-0.147	-0.144
-445.865	-200.000	-0.005	-0.049
-444.851	259.638	0.056	-0.097
-443.836	-200.000	-0.024	0.135
-442.822	-99.224	0.504	0.128
-441.807	-200.000	-0.000	0.130
-440.792	-24.874	0.143	0.085
-439.778	-84.743	0.460	-0.145
-438.763	-200.000	-0.005	-0.196
-437.749	-160.905	0.072	0.004
-436.734	800.000	0.099	0.324
-435.719	781.355	0.114	0.314
-434.705	-200.000	0.004	0.240
-433.690	279.885	-0.123	0.221
-432.676	88.756	-0.093	-0.104
-431.661	-136.569	-0.038	-0.004
-430.646	107.364	0.134	0.160
-429.632	149.342	0.106	-0.143
-428.617	66.987	0.062	-0.064
-427.603	-64.607	-0.209	0.085
-426.588	800.000	0.106	-0.390
-425.573	31.573	0.147	0.127
-424.559	136.253	-0.197	-0.257
-423.544	-200.000	0.012	-0.071
-422.530	-4.198	-0.224	0.156
-421.515	-200.000	-0.078	0.376
-420.500	-116.526	-0.274	0.051
-419.486	-81.547	0.115	0.038
-418.471	-200.000	0.017	-0.267
-417.457	125.764	0.191	-0.242
-416.442	800.000	-0.163	-0.485
-415.428	-131.697	0.438	0.058
-414.413	-5.412	0.014	0.010
-413.398	-6.692	0.110	-0.075
-412.384	-200.000	0.061	0.272
-411.369	17.345	-0.062	-0.050
-410.355	-200.000	0.015	-0.082
-409.340	-200.000	0.026	-0.369
-408.325	57.346	0.303	-0.297
-407.311	135.906	-0.210	-0.274
-406.296	-158.384	0.115	-0.007
-405.282	-120.683	0.148	0.025
-404.267	-24.610	0.352	-0.210
-403.252	-111.430	-0.182	-0.037
-402.238	-77.600	-0.028	0.010
-401.223	-200.000	0.005	0.081
-400.209	102.811	-0.246	-0.289
-399.194	-72.471	0.411	0.152
-398.179	-44.953	0.286	0.143
-397.165	-8.463	-0.061	0.041
-396.150	-200.000	-0.008	-0.100
-395.136	800.000	-0.097	-0.363
-394.121	-165.882	-0.152	-0.007
-393.106	342.977	-0.169	-0.331
-392.092	310.520	-0.126	0.236
-391.077	-65.798	0.222	-0.089
-390.063	-103.003	-0.263	-0.062
-389.048	-190.139	0.127	-0.001
-388.033	-82.617	-0.102	0.033
-387.019	800.000	0.103	0.380
-386.004	294.199	-0.105	-0.192
-384.990	-72.509	-0.229	-0.085
-383.975	-62.339	-0.280	0.117
-382.960	-88.058	-0.358	-0.108
-381.946	-51.170	0.077	0.036
-380.931	93.692	0.165	-0.188
-379.917	-136.159	0.232	0.027
-378.902	188.973	0.136	-0.204
-377.888	-100.250	-0.386	0.096
-376.873	800.000	0.075	0.214
-375.858	-162.188	0.107	0.005
-374.844	-70.900	0.377	0.142
-373.829	-48.283	-0.198	-0.096
-372.815	800.000	0.037	-0.103
-371.800	-200.000	-0.003	-0.071
-370.785	25.142	0.168	-0.140
-369.771	-106.042	-0.246	-0.055
-368.756	-139.760	-0.256	-0.027
-367.742	233.328	-0.168	-0.276
-366.727	237.023	-0.144	0.239
-365.712	-200.000	-0.046	0.425
-364.698	73.795	0.347	0.364
-363.683	-200.000	0.025	0.254
-362.669	47.300	0.119	-0.111
-361.654	56.996	-0.079	0.077
-360.639	-102.464	-0.398	-0.095
-359.625	-124.708	0.141	0.022
-358.610	310.911	0.071	-0.134
-357.596	-99.212	0.412	-0.104
-356.581	-80.357	0.156	-0.052
-355.566	513.935	-0.027	-0.063
-354.552	-200.000	-0.034	-0.164
-353.537	24.994	-0.273	-0.226
-352.523	475.388	-0.073	-0.165
-351.508	214.530	-0.089	0.140
-350.493	724.420	0.219	0.583
-349.479	800.000	-0.033	0.138
-348.464	-91.148	-0.249	-0.072
-347.450	33.158	0.111	-0.097
-346.435	-8.496	-0.202	0.135
-345.420	-50.746	-0.164	-0.077
-344.406	-200.000	0.047	-0.212
-343.391	-120.982	0.043	-0.007
-342.377	103.562	-0.196	-0.231
-341.362	-135.151	-0.372	0.045
-340.348	-87.642	0.265	0.080
-339.333	134.875	-0.160	0.207
-338.318	-28.035	0.329	-0.191
-337.304	800.000	-0.027	-0.097
-336.289	-73.295	0.319	0.117
-335.275	-200.000	0.067	-0.340
-334.260	-200.000	0.018	0.087
-333.245	25.631	-0.053	0.044
-332.231	4.138	0.173	-0.127
-331.216	-91.168	-0.077	-0.022
-330.202	309.025	-0.158	0.295
-329.187	166.874	-0.117	-0.165
-328.172	800.000	0.069	-0.281
-327.158	293.472	0.164	0.299
-326.143	-153.990	-0.187	-0.013
-325.129	-154.852	-0.466	0.031
-324.114	25.593	-0.204	0.170
-323.099	181.197	-0.117	0.172
-322.085	206.203	-0.102	-0.158
-321.070	-116.249	-0.243	-0.045
-320.056	-93.322	-0.327	-0.091
-319.041	-54.138	-0.300	0.136
-318.026	455.482	0.104	0.231
-317.012	560.636	0.098	-0.236
-315.997	125.767	-0.162	0.204
-314.983	583.478	0.184	-0.450
-313.968	-103.532	0.141	0.033
-312.953	-88.139	0.205	0.061
-311.939	380.167	0.210	-0.430
-310.924	-71.035	0.143	-0.054
-309.910	-125.072	-0.273	-0.042
-308.895	5.533	0.437	-0.323
-307.880	316.660	-0.061	-0.115
-306.866	713.633	0.105	-0.278
-305.851	-200.000	-0.046	-0.234
-304.837	252.508	0.098	-0.168
-303.822	800.000	0.088	0.337
-302.807	75.879	0.116	0.122
-301.793	42.892	-0.240	0.218
-300.778	366.229	0.239	0.480
-299.764	-109.454	0.196	-0.041
-298.749	665.811	0.148	-0.380
-297.735	204.672	-0.138	0.213
-296.720	-68.866	0.398	0.153
-295.705	105.404	0.094	0.111
-294.691	370.391	0.049	0.098
-293.676	-5.471	-0.322	0.220
-292.662	-63.514	0.100	-0.041
-291.647	81.024	0.057	0.061
-290.632	-105.939	0.087	-0.019
-289.618	-42.394	0.174	-0.089
-288.603	277.023	-0.206	-0.365
-287.589	89.988	-0.152	0.170
-286.574	-12.807	0.429	0.279
-285.559	27.420	-0.105	0.088
-284.545	65.209	-0.067	0.068
-283.530	170.846	-0.157	-0.224
-282.516	7.584	-0.053	-0.039
-281.501	-177.271	-0.087	0.002
-280.486	-33.629	0.144	0.079
-279.472	22.032	0.223	-0.182
-278.457	-64.348	0.206	-0.084
-277.443	387.457	0.057	-0.118
-276.428	443.140	-0.120	-0.262
-275.413	225.402	-0.042	0.068
-274.399	800.000	0.066	-0.232
-273.384	-141.715	0.257	0.026
-272.370	480.736	-0.080	-0.180
-271.355	-172.526	-0.247	-0.008
-270.340	175.779	0.039	-0.057
-269.326	91.902	-0.163	-0.182
-268.311	-73.609	-0.079	0.029
-267.297	800.000	0.084	0.246
-266.282	-136.112	-0.219	-0.026
-265.267	-200.000	0.036	0.426
-264.253	-136.542	-0.245	0.028
-263.238	402.092	0.088	0.183
-262.224	604.258	-0.144	-0.358
-261.209	225.753	-0.158	-0.255
-260.195	-62.204	0.168	0.070
-259.180	-200.000	-0.024	0.123
-258.165	-81.888	-0.111	0.036
-257.151	-169.348	0.095	-0.003
-256.136	-5.512	-0.112	0.077
-255.122	27.446	0.208	0.174
-254.107	-200.000	-0.019	-0.150
-253.092	-146.349	0.060	0.005
-252.078	29.259	-0.082	0.069
-251.063	39.269	0.047	0.042
-250.049	38.795	0.063	0.056
-249.034	-3.188	0.204	0.142
-248.019	202.575	0.121	-0.186
-247.005	-98.736	0.343	-0.087
-245.990	-200.000	-0.007	0.195
-244.976	-200.000	0.057	0.356
-243.961	3.639	0.093	0.067
-242.946	-165.550	-0.156	-0.007
-241.932	190.587	0.121	0.181
-240.917	222.987	-0.299	0.480
-239.903	-178.598	-0.402	-0.009
-238.888	349.124	-0.136	-0.266
-237.873	-97.991	0.333	0.086
-236.859	800.000	0.047	0.171
-235.844	-89.384	-0.249	0.073
-234.830	-200.000	0.042	-0.237
-233.815	96.056	0.164	0.187
-232.800	-107.084	0.104	0.023
-231.786	-200.000	-0.035	-0.251
-230.771	-200.000	0.034	-0.181
-229.757	-69.938	-0.474	-0.180
-228.742	-200.000	-0.042	-0.357
-227.727	100.455	0.051	0.059
-226.713	-151.028	-0.177	-0.013
-225.698	-84.381	0.228	0.072
-224.684	-144.270	-0.252	-0.023
-223.669	23.548	0.096	0.078
-222.655	-99.335	-0.039	-0.010
-221.640	3.796	0.173	0.125
-220.625	-143.770	-0.266	-0.025
-219.611	393.762	-0.041	-0.085
-218.596	-158.267	0.196	-0.011
-217.582	93.191	0.164	-0.185
-216.567	800.000	-0.072	-0.282
-215.552	248.671	0.195	0.328
-214.538	-30.839	0.138	0.078
-213.523	-104.589	-0.461	-0.106
-212.509	27.650	0.146	-0.123
-211.494	656.042	0.099	-0.252
-210.479	-200.000	-0.022	0.213
-209.465	-200.000	-0.005	-0.216
-208.450	-200.000	0.074	-0.343
-207.436	170.290	-0.191	0.272
-206.421	-139.401	0.152	-0.016
-205.406	-43.431	0.404	-0.203
-204.392	-34.426	0.285	0.155
-203.377	252.992	0.030	-0.050
-202.363	-200.000	0.012	0.515
-201.348	-11.218	0.175	-0.115
-200.333	459.066	-0.034	0.075
-199.319	-200.000	-0.007	-0.119
-198.304	376.795	-0.032	-0.064
-197.290	-175.646	0.238	0.006
-196.275	800.000	0.089	-0.300
-195.260	179.319	-0.007	0.011
-194.246	-19.402	0.052	0.032
-193.231	-91.680	0.285	-0.080
-192.217	305.265	-0.037	0.069
-191.202	-3.758	-0.077	-0.053
-190.187	-93.671	-0.350	-0.096
-189.173	319.756	-0.073	-0.138
-188.158	-67.328	0.136	0.053
-187.144	24.456	-0.169	0.139
-186.129	-43.573	0.378	0.190
-185.114	107.941	-0.148	-0.176
-184.100	87.513	0.254	0.279
-183.085	156.173	-0.067	-0.092
-182.071	-200.000	-0.029	-0.216
-181.056	-109.262	0.127	0.027
-180.042	-200.000	-0.003	-0.162
-179.027	193.548	0.011	0.016
-178.012	22.318	-0.123	-0.100
-176.998	800.000	0.042	0.171
-175.983	-20.296	0.169	0.103
-174.969	-200.000	0.023	0.241
-173.954	-55.291	-0.079	0.035
-172.939	80.360	-0.032	0.034
-171.925	-200.000	0.022	-0.182
-170.910	-125.650	-0.205	-0.031
-169.896	-200.000	-0.019	0.290
-168.881	18.017	0.266	0.211
-167.866	-160.222	0.200	0.011
-166.852	-83.345	-0.228	-0.072
-165.837	-48.627	-0.251	0.120
-164.823	-200.000	0.052	0.290
-163.808	244.119	-0.155	-0.259
-162.793	90.554	-0.124	-0.137
-161.779	-64.047	-0.141	-0.057
-160.764	319.065	0.091	-0.172
-159.750	-156.901	-0.311	-0.019
-158.735	226.066	0.042	-0.067
-157.720	-61.872	0.210	0.087
-156.706	337.816	0.099	-0.192
-155.691	351.611	0.078	-0.154
-154.677	-135.720	0.109	-0.013
-153.662	98.882	0.249	0.286
-152.647	-109.857	-0.284	0.059
-151.633	-20.232	-0.112	-0.069
-150.618	-123.065	0.075	0.012
-149.604	206.885	-0.107	0.165
-148.589	-200.000	0.021	-0.139
-147.574	71.649	0.133	-0.137
-146.560	-200.000	-0.053	-0.612
-145.545	-69.217	0.277	-0.106
-144.531	800.000	0.054	0.177
-143.516	627.464	0.047	-0.118
-142.502	-93.510	-0.157	0.043
-141.487	-1.736	-0.261	-0.182
-140.472	2.845	-0.225	-0.162
-139.458	-200.000	0.026	0.136
-138.443	546.483	-0.124	0.293
-137.429	115.144	0.202	0.244
-136.414	482.842	-0.141	0.318
-135.399	179.866	-0.091	0.132
-134.385	-113.246	0.132	-0.026
-133.370	-200.000	0.048	-0.445
-132.356	800.000	-0.042	-0.122
-131.341	-147.796	0.398	-0.033
-130.326	-12.016	-0.146	-0.095
-129.312	800.000	-0.075	0.219
-128.297	-90.195	0.184	0.053
-127.283	71.619	0.127	0.131
-126.268	-200.000	0.000	-0.268
-125.253	-88.104	0.137	-0.041
-124.239	660.067	-0.104	0.266
-123.224	208.846	-0.068	0.105
-122.210	122.142	-0.081	0.100
-121.195	629.914	0.177	-0.444
-120.180	-114.931	-0.024	0.005
-119.166	0.770	0.190	0.135
-118.151	334.511	-0.177	0.339
-117.137	376.478	-0.107	-0.216
-116.122	800.000	0.061	0.242
-115.107	-3.736	0.306	0.211
-114.093	-86.549	0.126	0.038
-113.078	-200.000	-0.017	0.248
-112.064	318.971	0.205	0.385
-111.049	123.503	0.142	0.176
-110.034	152.198	-0.167	-0.226
-109.020	413.220	0.068	0.143
-108.005	80.416	-0.173	-0.185
-106.991	-93.265	0.325	0.089
-105.976	800.000	-0.044	0.126
-104.962	-25.819	-0.123	0.072
-103.947	56.625	-0.399	0.384
-102.932	-46.745	0.088	0.043
-101.918	663.750	-0.109	-0.279
-100.903	800.000	0.019	0.082
-99.889	-23.829	0.214	0.127
-98.874	51.927	0.097	-0.092
-97.859	-109.632	0.200	-0.042
-96.845	800.000	0.028	0.080
-95.830	-200.000	0.040	-0.263
-94.816	800.000	-0.016	-0.047
-93.801	84.553	-0.085	-0.092
-92.786	-65.216	-0.237	0.095
-91.772	208.659	0.103	-0.159
-90.757	-153.687	-0.239	0.016
-89.743	800.000	-0.046	-0.163
-88.728	-0.439	0.016	0.011
-87.713	-200.000	-0.002	0.308
-86.699	800.000	0.196	0.553
-85.684	-45.342	0.316	0.155
-84.670	800.000	-0.048	-0.207
-83.655	-200.000	0.077	-0.340
-82.640	-104.998	0.336	-0.076
-81.626	-141.309	0.165	-0.017
-80.611	60.881	0.132	0.130
-79.597	800.000	0.065	-0.200
-78.582	800.000	-0.067	-0.203
-77.567	-23.579	0.165	-0.098
-76.553	140.328	-0.183	0.239
-75.538	300.696	-0.013	0.024
-74.524	-13.634	0.488	0.313
-73.509	-52.895	-0.089	-0.040
-72.494	-200.000	-0.001	0.075
-71.480	-103.781	0.210	0.049
-70.465	-121.456	0.163	0.027
-69.451	-99.511	0.051	-0.013
-68.436	-105.023	0.106	0.024
-67.422	176.109	-0.053	-0.076
-66.407	487.732	-0.134	-0.301
-65.392	-115.980	-0.106	-0.020
-64.378	-127.440	-0.295	0.042
-63.363	712.153	0.094	0.247
-62.349	-72.736	-0.122	0.044
-61.334	92.274	-0.878	-0.978
-60.319	46.953	0.559	0.514
-59.305	678.867	-0.315	-0.810
-58.290	45.472	0.758	0.692
-57.276	687.208	0.567	1.465
-56.261	-200.000	93.071	559.928
-55.246	554.210	1364.418	3244.288
-54.232	153.538	2573.923	3484.640
-53.217	117.443	2166.172	2633.693
-52.203	47.810	1626.067	1500.698
-51.188	39.584	1362.686	1207.458
-50.173	36.182	1319.929	1149.292
-49.159	57.881	1368.114	1323.279
-48.144	62.493	1386.548	1368.963
-47.130	39.825	1341.147	1189.632
-46.115	36.151	1323.352	1151.901
-45.100	35.994	1318.586	1146.777
-44.086	35.842	1316.136	1143.697
-43.071	35.801	1313.904	1141.465
-42.057	35.764	1311.895	1139.455
-41.042	35.869	1310.223	1138.583
-40.027	35.866	1308.355	1136.895
-39.013	35.927	1306.383	1135.493
-37.998	35.856	1305.067	1133.888
-36.984	35.974	1302.943	1132.695
-35.969	36.110	1301.143	1131.879
-34.954	36.081	1299.316	1130.077
-33.940	36.104	1297.980	1129.002
-32.925	36.040	1297.311	1128.001
-31.911	36.167	1295.146	1126.820
-30.896	36.100	1294.248	1125.604
-29.881	36.056	1292.523	1123.799
-28.867	36.156	1291.312	1123.286
-27.852	36.114	1289.774	1121.661
-26.838	36.234	1287.790	1120.586
-25.823	36.157	1286.881	1119.302
-24.809	36.000	1285.788	1117.397
-23.794	36.019	1284.140	1116.028
-22.779	36.038	1282.684	1114.829
-21.765	36.019	1281.064	1113.270
-20.750	36.054	1279.778	1112.311
-19.736	35.909	1279.009	1110.762
-18.721	35.899	1277.725	1109.545
-17.706	35.859	1276.641	1108.326
-16.692	35.933	1275.113	1107.384
-15.677	35.970	1273.564	1106.205
-14.663	35.923	1272.687	1105.132
-13.648	36.001	1271.517	1104.516
-12.633	35.888	1271.117	1103.478
-11.619	35.909	1270.494	1103.016
-10.604	35.834	1269.665	1101.822
-9.590	35.930	1267.840	1100.743
-8.575	35.895	1267.496	1100.202
-7.560	35.819	1266.670	1099.005
-6.546	35.842	1265.787	1098.330
-5.531	35.888	1264.728	1097.625
-4.517	35.878	1263.682	1096.620
-3.502	35.856	1263.103	1095.949
-2.487	36.004	1261.547	1095.395
-1.473	35.883	1257.666	1091.294
-0.458	34.448	1242.604	1070.137
0.556	30.806	1224.331	1030.183
1.571	26.913	1229.075	1012.415
2.586	25.822	1244.470	1018.840
3.600	25.013	1233.227	1005.004
4.615	18.044	1159.414	907.880
5.629	7.051	1079.820	790.803
6.644	2.017	1057.152	749.454
7.659	1.569	1054.297	745.169
8.673	1.520	1053.145	744.049
9.688	1.465	1051.617	742.636
10.702	2.010	1050.359	744.341
11.717	8.737	1060.544	784.541
12.731	19.181	1075.273	846.991
13.746	24.087	1080.540	875.247
14.761	24.580	1081.567	878.427
15.775	24.433	1081.146	877.282
16.790	24.276	1080.170	875.641
17.804	24.305	1079.615	875.260
18.819	24.393	1078.929	875.057
19.834	24.543	1079.032	875.800
20.848	24.593	1078.134	875.238
21.863	24.556	1077.784	874.694
22.877	24.306	1077.617	873.256
23.892	24.440	1076.207	872.693
24.907	24.434	1075.696	872.171
25.921	24.466	1074.552	871.324
26.936	24.299	1073.237	869.364
27.950	24.300	1071.985	868.278
28.965	24.174	1069.943	865.936
29.980	24.375	1068.000	865.260
30.994	24.631	1067.632	866.129
32.009	24.458	1066.546	864.332
33.023	24.291	1065.196	862.356
34.038	24.282	1065.026	862.097
35.053	24.510	1064.085	862.360
36.067	24.577	1063.086	861.799
37.082	24.823	1061.684	861.771
38.096	24.738	1061.508	861.141
39.111	24.853	1060.784	861.030
40.126	24.577	1059.367	858.480
41.140	24.141	1057.929	855.146
42.155	24.008	1055.982	852.858
43.169	24.167	1055.286	852.980
44.184	24.191	1054.085	852.052
45.199	24.033	1053.313	850.598
46.213	24.074	1052.671	850.199
47.228	24.220	1052.201	850.440
48.242	24.302	1050.796	849.619
49.257	24.401	1050.532	849.802
50.271	24.531	1049.513	849.523
51.286	24.504	1048.823	848.762
52.301	24.588	1048.278	848.644
53.315	24.419	1046.785	846.556
54.330	24.377	1045.674	845.385
55.344	24.438	1045.178	845.196
56.359	24.486	1044.087	844.468
57.374	24.269	1042.891	842.399
58.388	24.306	1042.098	841.862
59.403	24.156	1041.466	840.566
60.417	23.898	1041.067	838.955
61.432	24.133	1040.437	839.480
62.447	24.214	1039.494	839.024
63.461	24.271	1038.826	838.680
64.476	24.232	1037.862	837.644
65.490	24.181	1036.806	836.480
66.505	24.291	1036.022	836.287
67.520	24.193	1035.763	835.546
68.534	24.060	1034.154	833.553
69.549	23.816	1033.147	831.526
70.563	23.704	1032.488	830.397
71.578	23.799	1031.589	830.045
72.593	23.603	1030.607	828.265
73.607	23.676	1029.910	827.971
74.622	24.191	1029.377	829.869
75.636	24.160	1028.772	829.166
76.651	23.938	1028.172	827.576
77.666	23.878	1027.378	826.585
78.680	24.009	1026.552	826.454
79.695	24.007	1026.525	826.350
80.709	24.077	1025.491	825.772
81.724	24.010	1024.846	824.867
82.739	24.139	1023.700	824.470
83.753	24.576	1023.049	825.894
84.768	24.861	1022.341	826.563
85.782	24.868	1021.698	826.003
86.797	24.732	1020.951	824.700
87.812	24.641	1019.882	823.344
88.826	24.667	1019.059	822.728
89.841	24.820	1017.764	822.311
90.855	24.787	1017.091	821.542
91.870	24.745	1016.073	820.455
92.884	24.522	1015.303	818.741
93.899	24.623	1013.935	818.025
94.914	24.809	1012.990	818.042
95.928	24.641	1012.223	816.583
96.943	24.401	1010.853	814.311
97.957	24.102	1009.817	812.039
98.972	23.940	1009.234	810.761
99.987	24.277	1008.648	811.753
101.001	24.596	1007.446	812.166
102.016	24.415	1006.753	810.710
103.030	24.284	1006.217	809.613
104.045	24.226	1005.012	808.310
105.060	24.042	1003.651	806.309
106.074	24.270	1003.188	806.900
107.089	24.558	1002.935	807.929
108.103	24.473	1001.822	806.576
109.118	24.291	1000.230	804.401
110.133	24.100	999.662	803.010
111.147	24.011	998.084	801.273
112.162	23.845	997.421	799.921
113.176	24.105	996.699	800.440
114.191	24.006	995.970	799.339
115.206	23.741	994.671	797.037
116.220	23.868	993.721	796.773
117.235	23.839	993.146	796.115
118.249	23.914	992.227	795.641
119.264	23.822	991.585	794.644
120.279	23.970	990.936	794.717
121.293	23.918	990.087	793.733
122.308	23.938	988.850	792.761
123.322	24.020	987.909	792.299
124.337	23.695	986.773	789.876
125.352	23.348	984.842	786.718
126.366	23.234	984.173	785.610
127.381	23.910	984.211	788.567
128.395	24.406	983.940	790.480
129.410	24.550	982.974	790.269
130.424	24.522	981.728	789.075
131.439	24.335	981.030	787.619
132.454	24.337	980.297	786.971
133.468	24.347	979.411	786.234
134.483	24.569	978.596	786.487
135.497	24.619	978.052	786.201
136.512	24.615	977.180	785.409
137.527	24.700	976.086	784.837
138.541	24.773	975.276	784.433
139.556	24.673	974.546	783.338
140.570	24.784	973.618	783.013
141.585	24.730	972.869	782.105
142.600	24.712	971.627	780.955
143.614	24.847	971.501	781.374
144.629	24.951	970.720	781.134
145.643	24.851	969.194	779.398
146.658	24.682	968.059	777.684
147.673	24.538	966.829	776.000
148.687	24.568	965.630	775.102
149.702	24.490	964.488	773.778
150.716	24.496	963.499	772.940
151.731	24.534	963.594	773.114
152.746	24.747	962.903	773.410
153.760	24.808	962.620	773.381
154.775	24.802	961.731	772.569
155.789	24.866	960.790	772.021
156.804	24.888	959.609	771.100
157.819	24.961	959.057	770.901
158.833	24.937	958.532	770.309
159.848	24.959	957.186	769.254
160.862	24.868	956.102	767.926
161.877	24.905	955.022	767.147
162.892	24.773	954.289	765.926
163.906	24.809	953.431	765.325
164.921	24.716	952.527	764.134
165.935	24.965	951.341	764.176
166.950	24.829	950.097	762.531
167.964	24.824	949.654	762.084
168.979	24.756	948.265	760.615
169.994	24.612	947.545	759.359
171.008	24.824	947.014	759.766
172.023	24.893	945.996	759.174
173.037	24.671	944.938	757.318
174.052	24.626	943.933	756.254
175.067	24.486	943.387	755.159
176.081	24.628	943.518	755.794
177.096	24.636	942.269	754.761
178.110	24.429	940.974	752.785
179.125	24.047	940.834	750.995
180.140	24.199	940.260	751.110
181.154	24.436	939.843	751.709
182.169	24.625	940.208	752.733
183.183	24.822	939.276	752.750
184.198	24.722	938.269	751.456
185.213	24.681	937.625	750.701
186.227	24.850	936.774	750.662
187.242	24.758	936.776	750.211
188.256	24.898	935.923	750.046
189.271	24.940	935.075	749.477
190.286	24.553	933.725	746.712
191.300	23.971	932.582	743.300
192.315	23.272	930.870	738.955
193.329	23.105	930.542	737.931
194.344	24.166	930.623	742.355
195.359	24.678	930.794	744.558
196.373	24.930	930.086	744.975
197.388	24.737	929.719	743.813
198.402	24.665	929.055	742.918
199.417	24.846	928.170	742.895
200.432	24.427	927.576	740.615
201.446	24.473	926.523	739.899
202.461	24.268	926.099	738.647
203.475	23.538	924.381	734.191
204.490	22.778	922.599	729.569
205.504	23.499	923.306	733.043
206.519	24.349	923.004	736.249
207.534	24.330	922.643	735.820
208.548	24.950	922.358	738.083
209.563	24.416	921.811	735.378
210.577	24.387	920.875	734.449
211.592	25.014	920.502	736.664
212.607	24.848	919.945	735.472
213.621	24.890	919.194	734.980
214.636	24.979	918.209	734.492
215.650	24.931	917.611	733.750
216.665	25.035	916.966	733.595
217.680	24.981	915.960	732.507
218.694	24.302	915.082	728.962
219.709	24.324	914.476	728.506
220.723	24.665	914.066	729.507
221.738	24.761	913.159	729.112
222.753	24.733	912.710	728.573
223.767	24.870	912.636	729.006
224.782	24.981	912.202	729.047
225.796	24.986	911.432	728.388
226.811	24.424	909.614	724.591
227.826	23.682	908.940	720.980
228.840	23.980	908.469	721.749
229.855	23.983	907.351	720.809
230.869	23.705	906.233	718.734
231.884	24.090	906.842	720.712
232.899	24.665	906.728	722.881
233.913	24.683	905.832	722.177
234.928	24.644	905.354	721.574
235.942	24.592	904.908	720.947
236.957	24.308	903.863	718.906
237.972	24.284	903.195	718.213
238.986	24.344	902.648	717.956
240.001	24.393	902.087	717.646
241.015	24.534	901.159	717.409
242.030	24.618	900.841	717.430
243.045	24.710	900.718	717.639
244.059	24.765	900.338	717.489
245.074	24.617	899.534	716.193
246.088	24.198	898.588	713.700
247.103	24.580	897.845	714.572
248.117	25.080	898.065	716.686
249.132	25.299	897.908	717.373
250.147	25.471	896.787	717.101
251.161	25.543	896.698	717.253
252.176	25.586	895.854	716.685
253.190	25.668	895.220	716.442
254.205	25.850	894.857	716.810
255.220	25.663	894.218	715.493
256.234	25.686	893.195	714.702
257.249	25.474	892.598	713.320
258.263	25.511	892.135	713.035
259.278	25.491	891.746	712.579
260.293	25.444	890.893	711.650
261.307	25.490	890.112	711.146
262.322	25.286	889.416	709.720
263.336	24.698	887.001	705.409
264.351	23.629	885.434	699.887
265.366	23.808	885.352	700.468
266.380	24.818	885.646	704.617
267.395	25.231	885.434	706.011
268.409	25.124	885.037	705.213
269.424	25.378	884.374	705.619
270.439	25.269	884.080	704.896
271.453	25.283	883.393	704.340
272.468	25.610	883.024	705.267
273.482	25.652	882.726	705.129
274.497	25.285	881.402	702.573
275.512	24.887	880.085	699.906
276.526	25.232	880.532	701.549
277.541	25.324	879.903	701.346
278.555	25.170	879.078	700.023
279.570	25.134	878.149	699.082
280.585	25.256	877.422	698.915
281.599	25.180	876.734	698.009
282.614	24.697	875.488	695.082
283.628	24.583	875.311	694.433
284.643	24.971	875.282	695.858
285.657	24.766	873.811	693.832
286.672	24.302	873.210	691.493
287.687	24.714	873.527	693.283
288.701	24.957	872.504	693.351
289.716	24.613	871.588	691.228
290.730	24.620	870.656	690.457
291.745	24.461	869.507	688.870
292.760	24.757	869.910	690.270
293.774	25.654	870.107	693.826
294.789	26.006	869.858	694.925
295.803	25.891	869.598	694.212
296.818	25.954	868.909	693.841
297.833	25.584	867.595	691.311
298.847	25.375	866.947	689.930
299.862	25.705	866.845	691.055
300.876	25.868	866.874	691.642
301.891	25.879	865.836	690.797
302.906	25.482	864.887	688.456
303.920	25.582	864.547	688.508
304.935	26.015	864.095	689.743
305.949	25.924	863.353	688.741
306.964	25.744	862.683	687.459
307.979	25.679	862.573	687.064
308.993	26.006	862.469	688.167
310.008	26.073	861.420	687.523
311.022	25.846	860.562	685.915
312.037	25.747	860.128	685.134
313.052	25.299	858.999	682.468
314.066	24.633	857.458	678.655
315.081	24.173	856.994	676.484
316.095	25.056	857.482	680.162
317.110	25.558	856.778	681.446
318.125	24.765	855.355	677.253
319.139	23.699	853.986	672.078
320.154	23.667	853.544	671.548
321.168	24.610	854.218	675.586
322.183	25.408	854.309	678.615
323.197	25.413	854.157	678.453
324.212	25.575	854.223	679.055
325.227	25.659	853.263	678.549
326.241	25.422	852.380	676.893
327.256	25.580	851.510	676.737
328.270	25.386	851.231	675.726
329.285	25.156	850.390	674.136
330.300	25.052	849.247	672.781
331.314	25.180	849.289	673.233
332.329	25.723	848.940	674.932
333.343	25.770	848.482	674.685
334.358	25.738	848.176	674.263
335.373	25.898	847.675	674.405
336.387	26.164	847.921	675.534
337.402	26.053	848.071	675.180
338.416	26.145	846.914	674.541
339.431	26.237	846.962	674.865
340.446	26.517	846.271	675.299
341.460	26.185	846.178	673.928
342.475	26.108	845.584	673.106
343.489	26.128	845.325	672.914
344.504	26.414	844.955	673.627
345.519	26.636	844.237	673.820
346.533	26.579	843.883	673.266
347.548	26.606	843.620	673.098
348.562	26.659	842.790	672.572
349.577	26.575	841.836	671.441
350.592	26.475	841.600	670.823
351.606	26.355	841.478	670.220
352.621	26.480	840.023	669.466
353.635	26.259	839.302	668.015
354.650	25.700	837.647	664.576
355.665	24.777	836.102	659.887
356.679	25.106	836.223	661.136
357.694	25.602	835.620	662.428
358.708	25.604	835.249	662.083
359.723	25.917	834.908	662.906
360.738	26.095	834.729	663.362
361.752	26.266	834.256	663.553
362.767	26.564	834.289	664.615
363.781	26.841	833.894	665.259
364.796	26.917	832.802	664.608
365.810	27.020	832.635	664.792
366.825	26.805	832.523	663.856
367.840	26.635	831.349	662.239
368.854	26.219	830.432	659.930
369.869	26.240	830.153	659.726
370.883	26.407	829.738	659.948
371.898	26.292	829.195	659.038
372.913	26.420	829.151	659.412
373.927	26.562	828.232	659.142
374.942	26.519	828.474	659.118
375.956	26.620	827.904	658.974
376.971	26.724	827.542	659.005
377.986	27.040	826.831	659.531
379.000	26.881	826.522	658.647
380.015	26.660	825.929	657.313
381.029	26.930	824.880	657.401
382.044	26.909	824.684	657.111
383.059	26.981	823.845	656.642
384.073	26.993	823.565	656.404
385.088	26.680	823.300	655.006
386.102	26.607	822.133	653.755
387.117	26.637	821.588	653.370
388.132	26.228	820.348	650.855
389.146	25.858	819.499	648.792
390.161	26.051	819.695	649.585
391.175	26.414	819.755	650.882
392.190	26.314	818.502	649.469
393.205	24.888	816.259	642.518
394.219	23.379	814.835	635.928
395.234	23.500	814.346	635.926
396.248	25.120	815.461	642.551
397.263	26.373	816.715	647.975
398.278	26.441	816.043	647.627
399.292	26.289	815.073	646.257
400.307	26.173	815.121	645.824
401.321	26.338	814.654	645.986
402.336	26.681	814.365	646.924
403.350	27.094	814.264	648.261
404.365	27.491	814.009	649.418
405.380	27.645	813.605	649.586
406.394	27.548	813.210	648.868
407.409	27.586	812.895	648.695
408.423	27.629	812.446	648.430
409.438	27.660	812.228	648.309
410.453	27.649	811.581	647.695
411.467	27.519	811.172	646.851
412.482	27.613	810.477	646.573
413.496	27.681	810.427	646.720
414.511	27.728	809.806	646.331
415.526	27.751	809.256	645.917
416.540	27.355	809.212	644.424
417.555	27.199	807.775	642.669
418.569	27.364	807.305	642.823
419.584	27.337	806.778	642.249
420.599	26.962	807.007	641.051
421.613	106.556	1278.880	1436.584
422.628	91.966	1347.653	1436.687
