DTS Sentinel unit serial number:	SN413079Multiplexer serial number:	ORYXHardware model number:	OX4-SRSoftware version number:	ORYX F/W v4.00 Oryx Data Collector v3.7.2.0data status	okinstallation	princeton_trtdifferential loss correction	single-endedforward channel	channel 1reverse channel	N/Adate	2019/09/12time	00:24:11forward acquisition time	60.00reverse acquisition time	0.00gamma	496.2192k internal	0.2319k external	0.2319temperature offset calibration	1.0074default loss term (dB/km)	0.3790temperature slope calibration	1.0000multiplexer offset coefficient	1.0000multiplexer slope coefficient	1.0000fibre end	0.00T internal ref (°C)	33.48T ext. ref 1 (°C)	2.05T ext. ref 2 (°C)	27.53length (m)	temperature (°C)	Stokes	anti-Stokes-747.200	34.825	0.066	0.059
-746.185	589.324	0.093	0.232
-745.171	-107.115	0.298	0.066
-744.156	-135.900	-0.167	-0.020
-743.142	-137.363	0.226	-0.026
-742.127	-192.602	-0.043	0.000
-741.112	207.079	0.249	0.392
-740.098	-200.000	0.070	0.322
-739.083	631.909	-0.089	0.227
-738.069	310.204	0.200	0.378
-737.054	-200.000	0.010	0.216
-736.039	-200.000	-0.097	-0.458
-735.025	800.000	0.058	0.232
-734.010	-37.331	-0.060	0.032
-732.996	800.000	-0.053	-0.159
-731.981	94.855	-0.153	-0.176
-730.966	-137.936	-0.308	0.035
-729.952	800.000	-0.043	0.165
-728.937	-126.348	-0.411	-0.062
-727.923	-200.000	-0.021	-0.372
-726.908	-141.751	-0.137	-0.014
-725.894	177.857	-0.140	0.206
-724.879	-200.000	-0.002	-0.154
-723.864	166.366	-0.210	-0.301
-722.850	-200.000	-0.028	-0.254
-721.835	17.870	0.110	-0.088
-720.821	422.213	0.136	0.295
-719.806	196.794	-0.158	0.243
-718.791	-200.000	0.003	-0.189
-717.777	-114.242	-0.350	0.068
-716.762	153.050	-0.207	-0.287
-715.748	19.030	0.185	-0.150
-714.733	-119.160	-0.219	-0.039
-713.718	-10.449	0.078	0.052
-712.704	63.677	0.057	0.058
-711.689	-200.000	-0.061	-0.291
-710.675	68.169	-0.118	0.122
-709.660	223.436	-0.134	-0.219
-708.645	72.094	0.119	-0.125
-707.631	-200.000	0.026	0.200
-706.616	-44.766	-0.330	0.166
-705.602	-200.000	-0.008	-0.158
-704.587	149.295	0.125	-0.171
-703.572	800.000	0.044	-0.151
-702.558	167.874	0.029	0.041
-701.543	250.362	-0.273	-0.468
-700.529	5.967	-0.052	-0.039
-699.514	449.407	0.117	-0.261
-698.499	31.408	-0.147	-0.127
-697.485	214.792	0.194	0.310
-696.470	634.635	0.117	0.300
-695.456	-200.000	0.007	0.036
-694.441	-46.710	0.267	0.132
-693.426	-100.430	-0.092	-0.023
-692.412	108.239	-0.135	0.163
-691.397	10.650	-0.092	-0.071
-690.383	-200.000	-0.072	-0.320
-689.368	-200.000	0.010	0.128
-688.354	-154.869	0.393	0.026
-687.339	-119.242	0.163	-0.029
-686.324	-89.447	-0.133	-0.040
-685.310	-200.000	0.045	0.262
-684.295	-58.991	-0.130	0.057
-683.281	-85.805	-0.208	0.065
-682.266	60.934	-0.157	0.157
-681.251	2.321	0.243	0.178
-680.237	-76.275	0.113	0.040
-679.222	-20.131	-0.111	-0.069
-678.208	2.446	0.219	-0.160
-677.193	176.580	-0.057	0.083
-676.178	-200.000	0.024	-0.222
-675.164	5.637	-0.090	-0.067
-674.149	-150.259	-0.121	0.009
-673.135	-200.000	0.013	-0.071
-672.120	800.000	0.045	0.144
-671.105	-104.192	0.320	0.075
-670.091	-200.000	0.003	-0.106
-669.076	-200.000	0.073	0.372
-668.062	-147.060	0.210	-0.018
-667.047	64.469	0.095	0.096
-666.032	6.261	0.403	0.302
-665.018	-137.217	0.109	-0.013
-664.003	-200.000	-0.038	0.211
-662.989	-129.151	-0.052	0.007
-661.974	800.000	0.088	0.282
-660.959	-200.000	0.010	0.192
-659.945	130.984	0.012	0.016
-658.930	-34.876	0.052	0.028
-657.916	-200.000	-0.017	0.221
-656.901	-96.975	0.177	-0.047
-655.886	-151.172	-0.433	-0.033
-654.872	489.375	0.106	-0.244
-653.857	-200.000	-0.005	0.331
-652.843	283.062	-0.164	-0.297
-651.828	-96.820	0.319	0.084
-650.814	-200.000	-0.001	0.110
-649.799	-96.863	0.075	0.020
-648.784	232.577	-0.005	0.009
-647.770	-96.325	-0.249	0.066
-646.755	221.470	0.104	0.168
-645.741	225.689	0.056	0.091
-644.726	426.081	-0.161	-0.350
-643.711	-200.000	-0.049	0.276
-642.697	-200.000	0.022	-0.294
-641.682	200.491	0.270	-0.419
-640.668	-27.993	0.121	0.071
-639.653	27.302	-0.271	-0.229
-638.638	-63.705	0.060	0.025
-637.624	-200.000	0.020	-0.089
-636.609	-200.000	-0.023	-0.136
-635.595	-39.382	-0.419	-0.221
-634.580	-148.899	-0.229	-0.019
-633.565	355.566	0.016	-0.032
-632.551	-200.000	0.055	0.492
-631.536	-48.983	0.374	-0.180
-630.522	-131.659	0.319	0.042
-629.507	-10.555	0.152	0.101
-628.492	-27.443	-0.208	0.122
-627.478	393.643	-0.068	0.143
-626.463	-115.930	-0.245	0.046
-625.449	125.186	0.268	0.341
-624.434	-166.156	-0.208	0.009
-623.419	-109.199	0.201	0.043
-622.405	-114.540	0.133	0.026
-621.390	-49.658	-0.267	-0.128
-620.376	292.150	0.162	-0.297
-619.361	142.343	0.196	-0.262
-618.346	-85.123	0.112	0.035
-617.332	431.597	0.050	0.110
-616.317	41.496	-0.138	-0.126
-615.303	800.000	-0.137	0.526
-614.288	206.263	-0.113	0.177
-613.273	95.941	-0.242	-0.278
-612.259	104.147	-0.275	-0.325
-611.244	-7.900	0.047	0.032
-610.230	-88.802	-0.398	-0.119
-609.215	-200.000	-0.004	-0.041
-608.201	149.690	-0.182	-0.248
-607.186	455.999	-0.170	-0.379
-606.171	572.508	-0.111	-0.273
-605.157	-200.000	0.009	-0.059
-604.142	-80.242	0.353	0.119
-603.128	69.247	0.112	-0.116
-602.113	172.556	-0.298	-0.431
-601.098	800.000	-0.058	-0.161
-600.084	-7.792	0.022	0.015
-599.069	87.785	0.138	-0.153
-598.055	-200.000	0.035	-0.164
-597.040	-107.828	-0.490	-0.107
-596.025	-4.726	0.197	0.137
-595.011	800.000	-0.115	0.480
-593.996	-74.181	-0.108	-0.039
-592.982	-12.464	-0.066	-0.043
-591.967	110.588	0.270	-0.327
-590.952	-130.427	-0.132	-0.018
-589.938	-129.655	-0.140	0.019
-588.923	312.680	-0.113	0.214
-587.909	233.743	0.031	-0.051
-586.894	44.365	-0.150	0.138
-585.879	-200.000	0.015	-0.068
-584.865	-142.335	-0.084	-0.008
-583.850	-12.611	-0.165	-0.109
-582.836	-180.628	0.321	0.007
-581.821	90.033	0.223	0.250
-580.806	-40.082	0.389	-0.204
-579.792	148.918	0.082	0.112
-578.777	31.625	-0.042	0.036
-577.763	48.126	-0.150	-0.141
-576.748	-80.543	0.156	-0.052
-575.733	109.889	0.049	-0.059
-574.719	-200.000	0.032	0.181
-573.704	-75.224	0.118	0.042
-572.690	-79.834	0.373	0.126
-571.675	417.770	-0.133	-0.285
-570.661	800.000	0.116	-0.381
-569.646	-15.579	-0.117	-0.075
-568.631	306.627	0.243	-0.455
-567.617	-200.000	0.003	-0.337
-566.602	65.660	-0.271	0.276
-565.588	800.000	0.052	0.168
-564.573	202.391	0.195	-0.302
-563.558	27.961	0.247	0.209
-562.544	545.073	-0.068	-0.162
-561.529	521.286	0.048	0.113
-560.515	87.478	-0.410	-0.456
-559.500	-31.609	0.404	-0.228
-558.485	565.689	-0.117	-0.285
-557.471	-26.785	0.168	-0.099
-556.456	201.226	0.251	0.389
-555.442	-150.564	-0.254	-0.019
-554.427	19.538	-0.231	-0.186
-553.412	-32.406	-0.101	-0.056
-552.398	-17.267	0.223	-0.141
-551.383	-200.000	0.016	-0.333
-550.369	-200.000	-0.393	0.001
-549.354	-145.119	0.424	0.039
-548.339	1.547	-0.262	0.190
-547.325	-200.000	-0.006	-0.216
-546.310	694.985	0.049	-0.129
-545.296	509.553	0.273	-0.637
-544.281	79.048	0.185	0.199
-543.266	-184.605	0.291	0.005
-542.252	101.145	0.080	0.093
-541.237	-1.820	-0.065	-0.046
-540.223	-67.200	0.075	-0.030
-539.208	394.694	0.117	0.244
-538.193	192.665	-0.144	-0.219
-537.179	-200.000	-0.106	-0.477
-536.164	44.126	-0.065	-0.060
-535.150	129.006	0.167	-0.214
-534.135	-141.749	-0.198	-0.020
-533.121	547.666	0.075	-0.181
-532.106	450.173	-0.145	0.321
-531.091	-55.304	-0.273	-0.123
-530.077	50.400	-0.166	-0.158
-529.062	-34.951	0.152	0.083
-528.048	-134.109	-0.294	-0.036
-527.033	-200.000	-0.035	0.331
-526.018	194.493	0.084	-0.127
-525.004	-122.115	-0.161	-0.026
-523.989	-200.000	0.030	0.593
-522.975	63.682	0.172	0.173
-521.960	-27.229	-0.174	0.102
-520.945	35.693	-0.210	-0.185
-519.931	-103.222	0.418	0.099
-518.916	-57.144	0.470	-0.208
-517.902	206.574	-0.111	-0.173
-516.887	-59.188	-0.143	0.062
-515.872	800.000	0.083	0.239
-514.858	-192.765	-0.125	0.001
-513.843	120.968	0.031	-0.039
-512.829	-30.445	0.091	0.052
-511.814	-200.000	-0.039	0.268
-510.799	-198.632	-0.440	0.002
-509.785	20.485	0.071	0.057
-508.770	47.933	-0.343	-0.322
-507.756	-141.532	0.171	0.017
-506.741	800.000	0.038	0.125
-505.726	-115.500	-0.132	-0.025
-504.712	495.779	-0.026	0.061
-503.697	-200.000	0.019	0.138
-502.683	-200.000	-0.052	-0.239
-501.668	33.026	-0.067	0.058
-500.653	-160.529	-0.127	0.007
-499.639	186.194	0.126	0.188
-498.624	-200.000	-0.032	0.403
-497.610	-200.000	-0.024	0.108
-496.595	-200.000	0.012	0.084
-495.581	38.054	0.137	0.122
-494.566	413.604	0.065	0.138
-493.551	485.396	-0.106	-0.243
-492.537	-99.987	0.138	-0.034
-491.522	-200.000	-0.045	0.208
-490.508	800.000	0.066	-0.202
-489.493	26.683	0.178	-0.150
-488.478	-85.528	-0.506	-0.158
-487.464	41.305	-0.237	0.215
-486.449	-200.000	0.016	-0.163
-485.435	-58.330	-0.293	0.128
-484.420	-130.680	0.142	-0.019
-483.405	-154.202	-0.235	-0.016
-482.391	4.507	0.006	-0.004
-481.376	69.047	0.195	-0.201
-480.362	-200.000	0.006	0.268
-479.347	718.842	-0.105	-0.279
-478.332	309.410	-0.026	0.048
-477.318	800.000	-0.036	0.118
-476.303	-200.000	0.025	0.126
-475.289	-182.052	0.215	-0.004
-474.274	199.323	-0.089	0.137
-473.259	165.840	0.155	-0.219
-472.245	301.957	0.069	-0.127
-471.230	-200.000	0.012	0.432
-470.216	-33.209	0.187	0.104
-469.201	800.000	0.054	-0.170
-468.186	-113.690	0.267	0.052
-467.172	-39.930	0.102	-0.053
-466.157	150.800	-0.088	-0.120
-465.143	435.281	0.035	-0.076
-464.128	-31.582	0.470	-0.264
-463.113	-14.855	-0.113	-0.073
-462.099	28.894	-0.118	-0.100
-461.084	556.993	0.110	-0.266
-460.070	-124.456	-0.125	0.019
-459.055	800.000	-0.061	-0.259
-458.040	-20.762	0.123	0.075
-457.026	19.949	-0.299	-0.241
-456.011	-47.078	-0.002	-0.001
-454.997	-200.000	-0.018	-0.168
-453.982	-96.977	-0.256	0.067
-452.968	95.711	0.148	0.169
-451.953	286.570	0.212	0.383
-450.938	-30.328	-0.112	-0.064
-449.924	-200.000	-0.054	0.354
-448.909	-200.000	-0.082	-0.415
-447.895	-200.000	0.022	-0.193
-446.880	-200.000	-0.022	0.317
-445.865	-200.000	-0.055	-0.287
-444.851	-17.626	-0.271	-0.170
-443.836	94.264	0.132	-0.150
-442.822	-129.558	0.211	-0.029
-441.807	80.256	-0.148	0.159
-440.792	30.455	-0.302	-0.258
-439.778	-83.526	-0.162	0.052
-438.763	576.476	-0.059	-0.145
-437.749	-122.061	0.468	0.077
-436.734	730.656	0.062	-0.166
-435.719	-45.408	0.183	-0.091
-434.705	-99.022	-0.566	-0.143
-433.690	-84.742	-0.126	-0.040
-432.676	-112.423	0.178	-0.036
-431.661	-102.874	-0.373	-0.089
-430.646	-43.835	-0.149	0.075
-429.632	710.726	-0.008	0.022
-428.617	-110.216	0.286	0.060
-427.603	-47.954	-0.258	-0.125
-426.588	-200.000	-0.031	0.169
-425.573	31.025	0.409	-0.351
-424.559	40.675	0.065	-0.059
-423.544	800.000	-0.070	0.283
-422.530	-118.148	0.198	-0.035
-421.515	288.560	-0.018	0.032
-420.500	452.751	0.159	0.351
-419.486	-174.579	-0.144	0.004
-418.471	169.543	0.101	-0.144
-417.457	-200.000	0.000	-0.121
-416.442	-17.264	0.150	-0.094
-415.428	-200.000	0.006	-0.057
-414.413	-47.312	0.388	0.189
-413.398	-57.337	0.217	0.095
-412.384	-200.000	-0.023	0.117
-411.369	223.555	0.065	-0.105
-410.355	-64.097	0.405	0.165
-409.340	315.261	0.129	0.242
-408.325	-14.762	-0.090	0.058
-407.311	255.625	-0.159	-0.273
-406.296	-80.339	-0.306	-0.102
-405.282	369.965	-0.066	0.133
-404.267	76.990	-0.237	0.251
-403.252	53.102	-0.153	-0.147
-402.238	24.325	-0.012	-0.010
-401.223	27.720	0.027	-0.023
-400.209	-132.795	0.321	-0.041
-399.194	-121.545	0.353	-0.059
-398.179	-84.649	0.384	0.121
-397.165	201.387	0.130	0.199
-396.150	-200.000	-0.022	-0.110
-395.136	-200.000	0.006	0.051
-394.121	800.000	0.058	0.245
-393.106	186.299	-0.140	0.207
-392.092	17.305	-0.311	0.246
-391.077	431.602	-0.184	0.399
-390.063	34.237	0.103	0.090
-389.048	800.000	0.012	0.050
-388.033	-19.362	-0.216	0.134
-387.019	-149.423	0.277	0.022
-386.004	-124.363	0.229	-0.036
-384.990	42.089	0.235	0.213
-383.975	539.336	0.179	0.425
-382.960	-26.000	0.290	-0.170
-381.946	-200.000	-0.018	0.289
-380.931	602.595	0.144	0.358
-379.917	-103.143	-0.405	0.096
-378.902	-200.000	0.016	0.124
-377.888	-117.385	-0.185	-0.033
-376.873	800.000	-0.109	-0.301
-375.858	-35.304	-0.071	-0.039
-374.844	-200.000	0.039	-0.210
-373.829	548.385	-0.051	0.123
-372.815	408.553	-0.100	0.210
-371.800	415.163	0.102	-0.216
-370.785	800.000	0.061	-0.213
-369.771	15.747	0.234	0.184
-368.756	460.447	-0.095	-0.211
-367.742	-75.050	0.029	0.010
-366.727	-36.692	0.121	0.065
-365.712	194.620	0.200	-0.303
-364.698	-200.000	-0.005	0.164
-363.683	469.435	0.013	0.029
-362.669	-157.215	0.074	-0.004
-361.654	-180.679	-0.172	0.004
-360.639	-22.482	-0.036	-0.022
-359.625	-107.740	-0.120	-0.026
-358.610	-64.323	0.219	0.089
-357.596	163.536	-0.205	-0.288
-356.581	-143.728	0.351	-0.033
-355.566	-50.814	-0.123	0.058
-354.552	77.686	-0.129	-0.137
-353.537	800.000	0.045	0.143
-352.523	375.106	0.181	0.367
-351.508	-200.000	-0.001	0.060
-350.493	-5.349	0.088	-0.060
-349.479	308.453	0.184	-0.342
-348.464	-136.978	0.028	0.003
-347.450	-67.728	-0.191	0.074
-346.435	-200.000	-0.014	-0.234
-345.420	-13.333	0.271	0.175
-344.406	-111.142	0.113	0.023
-343.391	106.846	-0.132	-0.156
-342.377	-138.740	-0.181	0.020
-341.362	-171.410	0.168	0.006
-340.348	402.652	0.043	0.091
-339.333	600.853	-0.051	0.125
-338.318	556.081	0.051	0.122
-337.304	223.190	0.018	-0.029
-336.289	3.174	-0.141	0.102
-335.275	-200.000	0.061	0.270
-334.260	-23.957	-0.333	0.198
-333.245	-200.000	0.005	-0.265
-332.231	800.000	-0.043	-0.148
-331.216	-159.373	-0.231	0.013
-330.202	149.916	-0.332	0.448
-329.187	61.262	0.145	-0.143
-328.172	377.555	0.122	0.247
-327.158	270.927	0.173	-0.303
-326.143	-101.072	-0.141	0.034
-325.129	328.909	0.109	0.209
-324.114	185.050	0.178	0.263
-323.099	0.016	0.321	0.228
-322.085	-200.000	-0.059	0.370
-321.070	-64.617	-0.258	-0.104
-320.056	783.775	0.124	0.339
-319.041	221.000	-0.066	-0.105
-318.026	-200.000	-0.018	-0.118
-317.012	-93.461	-0.168	-0.046
-315.997	-24.604	-0.298	0.176
-314.983	800.000	0.056	-0.238
-313.968	-124.150	0.058	0.009
-312.953	107.540	-0.406	-0.481
-311.939	-200.000	-0.020	0.148
-310.924	249.465	-0.135	-0.228
-309.910	-134.976	0.128	0.015
-308.895	-17.337	-0.106	-0.066
-307.880	-175.344	0.121	-0.003
-306.866	14.591	-0.136	-0.105
-305.851	211.478	0.185	0.290
-304.837	64.065	0.136	-0.136
-303.822	800.000	0.133	-0.367
-302.807	-16.683	0.085	0.054
-301.793	-122.911	0.254	0.041
-300.778	-200.000	0.020	0.244
-299.764	-84.120	-0.226	-0.071
-298.749	-33.577	-0.232	-0.128
-297.735	-124.431	0.188	-0.029
-296.720	-149.446	-0.314	0.025
-295.705	396.232	-0.081	-0.169
-294.691	-139.467	-0.147	-0.016
-293.676	82.313	0.050	0.054
-292.662	29.274	0.292	0.247
-291.647	-16.207	-0.105	0.066
-290.632	-78.894	0.349	0.118
-289.618	37.417	-0.170	-0.149
-288.603	-94.137	-0.462	0.126
-287.589	-57.680	-0.158	0.069
-286.574	-96.322	-0.288	-0.076
-285.559	-200.000	0.002	0.053
-284.545	222.051	-0.054	0.087
-283.530	97.103	-0.135	-0.154
-282.516	800.000	-0.011	0.043
-281.501	-11.240	-0.044	0.029
-280.486	128.050	-0.104	-0.132
-279.472	8.716	-0.187	0.140
-278.457	197.164	-0.085	0.129
-277.443	7.312	0.127	-0.094
-276.428	-16.497	0.124	0.078
-275.413	134.885	-0.174	0.225
-274.399	19.763	0.162	0.130
-273.384	273.659	0.024	-0.042
-272.370	-66.447	0.240	0.095
-271.355	-200.000	0.009	0.047
-270.340	-99.277	0.222	-0.056
-269.326	-28.606	-0.226	0.129
-268.311	301.548	0.116	0.214
-267.297	565.439	0.117	-0.282
-266.282	221.175	-0.211	-0.336
-265.267	439.119	-0.099	0.215
-264.253	-57.008	-0.039	-0.017
-263.238	-89.844	-0.221	0.064
-262.224	542.491	0.032	0.076
-261.209	12.000	0.104	-0.079
-260.195	-105.027	0.224	-0.051
-259.180	-200.000	-0.012	0.204
-258.165	-48.937	-0.079	0.038
-257.151	-55.289	0.041	0.018
-256.136	-200.000	0.032	0.302
-255.122	546.253	0.112	-0.267
-254.107	800.000	-0.150	0.443
-253.092	276.171	0.128	0.226
-252.078	62.998	-0.136	-0.135
-251.063	-183.899	0.370	0.006
-250.049	164.741	0.156	-0.219
-249.034	-200.000	-0.001	-0.162
-248.019	-200.000	0.014	0.230
-247.005	-114.546	-0.142	0.027
-245.990	-7.445	-0.223	-0.150
-244.976	-67.420	0.225	0.088
-243.961	-49.731	0.088	0.042
-242.946	800.000	0.084	0.296
-241.932	-92.158	0.133	0.037
-240.917	800.000	-0.073	0.282
-239.903	-104.882	0.193	-0.044
-238.888	33.369	-0.089	-0.077
-237.873	-71.455	-0.200	-0.074
-236.859	-99.325	-0.369	-0.092
-235.844	-100.279	0.246	-0.061
-234.830	-109.589	-0.255	0.053
-233.815	-200.000	0.016	-0.135
-232.800	-50.151	-0.247	0.116
-231.786	-200.000	0.023	-0.144
-230.771	682.975	0.101	-0.261
-229.757	39.427	-0.065	-0.058
-228.742	18.787	0.143	-0.114
-227.727	-200.000	0.028	0.203
-226.713	108.920	-0.126	0.150
-225.698	-89.630	-0.072	-0.021
-224.684	322.586	0.113	-0.214
-223.669	6.290	0.102	-0.075
-222.655	89.818	-0.166	0.184
-221.640	548.215	0.071	0.168
-220.625	471.116	0.190	0.424
-219.611	-199.054	-0.425	-0.002
-218.596	-166.813	0.192	0.008
-217.582	476.284	-0.027	-0.060
-216.567	-200.000	0.031	-0.313
-215.552	454.103	-0.030	-0.066
-214.538	-31.602	-0.129	-0.072
-213.523	-1.237	-0.085	0.060
-212.509	-41.317	0.302	-0.154
-211.494	-200.000	0.042	0.315
-210.479	-200.000	-0.025	-0.166
-209.465	611.246	0.180	-0.446
-208.450	215.171	0.047	0.073
-207.436	422.962	0.217	0.462
-206.421	-88.225	-0.157	0.047
-205.406	-70.904	-0.284	-0.106
-204.392	-88.222	-0.179	0.053
-203.377	55.478	0.172	-0.165
-202.363	24.335	0.157	-0.129
-201.348	147.185	0.260	0.346
-200.333	73.869	-0.199	0.207
-199.319	-96.374	-0.081	0.021
-198.304	515.990	-0.056	0.130
-197.290	800.000	0.084	-0.283
-196.275	-102.151	-0.232	0.055
-195.260	451.686	0.077	-0.168
-194.246	-97.179	-0.270	0.070
-193.231	800.000	-0.049	0.194
-192.217	37.821	0.071	-0.063
-191.202	-135.552	-0.031	0.004
-190.187	-114.769	0.355	0.067
-189.173	800.000	-0.072	0.287
-188.158	-200.000	0.048	-0.255
-187.144	-9.469	0.206	0.136
-186.129	446.903	-0.082	0.178
-185.114	-30.489	0.113	0.063
-184.100	258.121	0.064	-0.110
-183.085	-200.000	-0.027	-0.313
-182.071	20.660	-0.158	0.127
-181.056	9.772	0.198	0.149
-180.042	-118.850	-0.370	0.064
-179.027	105.367	0.218	0.254
-178.012	-93.886	-0.092	-0.025
-176.998	-200.000	0.003	0.091
-175.983	-94.016	-0.274	-0.075
-174.969	-84.509	0.335	-0.105
-173.954	115.512	-0.070	-0.085
-172.939	58.317	-0.212	0.206
-171.925	-159.355	0.376	-0.021
-170.910	-200.000	0.001	0.266
-169.896	-148.415	-0.200	-0.016
-168.881	508.449	0.088	0.202
-167.866	-65.905	-0.217	0.086
-166.852	-200.000	-0.006	-0.128
-165.837	-34.601	-0.051	0.028
-164.823	-99.773	0.200	-0.050
-163.808	-22.188	0.073	0.044
-162.793	325.873	0.078	-0.148
-161.779	3.492	0.207	0.149
-160.764	-200.000	0.019	-0.270
-159.750	-55.134	0.210	0.093
-158.735	66.556	0.118	-0.119
-157.720	-5.653	0.179	-0.121
-156.706	233.034	0.116	-0.189
-155.691	-158.190	-0.524	-0.030
-154.677	-87.415	-0.191	0.057
-153.662	-200.000	-0.034	0.241
-152.647	800.000	-0.072	0.226
-151.633	-152.587	0.184	0.013
-150.618	141.555	0.057	0.075
-149.604	123.837	0.110	-0.137
-148.589	-109.801	0.333	-0.069
-147.574	-63.685	-0.144	-0.059
-146.560	19.331	0.141	-0.112
-145.545	-119.062	0.314	0.054
-144.531	263.187	-0.070	-0.120
-143.516	301.292	-0.086	0.157
-142.502	800.000	-0.030	0.086
-141.487	800.000	0.055	0.224
-140.472	14.771	0.139	0.107
-139.458	755.755	-0.140	0.374
-138.443	-127.974	0.411	-0.058
-137.429	-89.942	0.149	0.043
-136.414	445.167	0.071	0.153
-135.399	-200.000	0.002	0.039
-134.385	800.000	-0.102	0.395
-133.370	-94.285	-0.266	0.072
-132.356	28.617	-0.295	-0.246
-131.341	800.000	-0.038	0.114
-130.326	-200.000	-0.053	-0.332
-129.312	1.841	-0.437	0.311
-128.297	800.000	0.042	-0.129
-127.283	-200.000	-0.010	0.459
-126.268	800.000	-0.022	-0.090
-125.253	3.073	-0.116	0.084
-124.239	56.385	-0.246	0.236
-123.224	-200.000	-0.030	-0.294
-122.210	76.290	0.280	-0.293
-121.195	-24.973	0.095	-0.055
-120.180	-200.000	0.027	0.194
-119.166	132.981	0.064	0.082
-118.151	-113.642	0.352	0.068
-117.137	39.812	-0.186	-0.165
-116.122	-73.394	0.276	-0.100
-115.107	-200.000	0.008	-0.085
-114.093	-121.849	0.204	-0.033
-113.078	54.733	-0.221	0.211
-112.064	-200.000	-0.017	-0.293
-111.049	134.890	-0.043	0.055
-110.034	-42.497	-0.040	-0.020
-109.020	800.000	-0.068	0.224
-108.005	-83.208	0.123	0.039
-106.991	-200.000	-0.022	-0.275
-105.976	638.790	-0.108	0.272
-104.962	800.000	0.099	0.401
-103.947	13.640	-0.221	0.169
-102.932	174.774	-0.174	0.249
-101.918	793.472	0.226	-0.615
-100.903	-119.345	-0.195	0.034
-99.889	-121.344	0.162	0.027
-98.874	-157.747	0.115	-0.007
-97.859	-107.535	0.200	0.043
-96.845	-62.588	-0.202	0.083
-95.830	-200.000	-0.012	-0.163
-94.816	-75.114	0.104	0.037
-93.801	800.000	0.069	-0.200
-92.786	-108.458	0.176	-0.037
-91.772	-200.000	-0.011	-0.214
-90.757	116.386	-0.164	-0.198
-89.743	-98.914	0.198	-0.050
-88.728	235.473	-0.247	0.402
-87.713	150.187	0.053	0.070
-86.699	-200.000	-0.008	-0.092
-85.684	800.000	0.087	0.377
-84.670	75.568	-0.074	-0.077
-83.655	159.407	-0.147	0.202
-82.640	-70.007	-0.210	0.079
-81.626	20.632	0.138	-0.110
-80.611	-102.982	0.231	-0.054
-79.597	-28.994	0.250	-0.141
-78.582	501.170	-0.074	0.168
-77.567	-116.548	-0.207	0.038
-76.553	-200.000	-0.006	-0.182
-75.538	-45.346	0.161	0.079
-74.524	-200.000	0.006	0.114
-73.509	282.683	0.179	-0.317
-72.494	509.375	0.046	0.106
-71.480	284.592	0.085	0.152
-70.465	-200.000	-0.028	0.276
-69.451	2.229	0.146	0.104
-68.436	517.228	-0.088	0.202
-67.422	423.329	0.066	-0.140
-66.407	166.324	-0.098	0.137
-65.392	4.303	-0.037	-0.026
-64.378	-128.482	0.161	-0.022
-63.363	88.160	0.195	-0.213
-62.349	797.641	0.110	0.298
-61.334	46.377	-0.811	-0.741
-60.319	131.454	0.333	0.421
-59.305	-200.000	-0.074	-1.117
-58.290	99.378	0.715	0.815
-57.276	800.000	0.555	1.689
-56.261	-200.000	96.829	579.423
-55.246	543.679	1387.998	3262.870
-54.232	156.862	2571.685	3500.109
-53.217	112.109	2148.069	2556.693
-52.203	44.867	1607.900	1457.458
-51.188	36.931	1346.211	1172.438
-50.173	33.780	1304.084	1117.200
-49.159	56.131	1350.945	1291.529
-48.144	58.230	1368.248	1320.567
-47.130	37.181	1325.687	1155.869
-46.115	33.675	1308.787	1120.431
-45.100	33.505	1304.106	1115.377
-44.086	33.508	1301.122	1112.797
-43.071	33.295	1299.316	1109.962
-42.057	33.323	1297.343	1108.394
-41.042	33.391	1295.496	1107.173
-40.027	33.323	1294.691	1106.039
-39.013	33.364	1292.743	1104.575
-37.998	33.400	1290.991	1103.242
-36.984	33.467	1288.841	1101.748
-35.969	33.476	1287.375	1100.504
-34.954	33.463	1285.890	1099.116
-33.940	33.606	1283.884	1098.186
-32.925	33.607	1282.910	1097.317
-31.911	33.536	1281.397	1095.566
-30.896	33.514	1280.298	1094.458
-29.881	33.580	1278.628	1093.365
-28.867	33.521	1277.586	1092.094
-27.852	33.592	1275.873	1090.995
-26.838	33.668	1274.124	1089.894
-25.823	33.607	1273.190	1088.699
-24.809	33.588	1271.542	1087.136
-23.794	33.445	1270.478	1085.364
-22.779	33.569	1269.069	1084.831
-21.765	33.580	1268.174	1084.082
-20.750	33.510	1266.843	1082.500
-19.736	33.458	1265.176	1080.738
-18.721	33.399	1264.196	1079.521
-17.706	33.392	1263.340	1078.710
-16.692	33.460	1261.719	1077.671
-15.677	33.352	1261.324	1076.676
-14.663	33.500	1259.608	1076.004
-13.648	33.499	1258.657	1075.145
-12.633	33.488	1257.770	1074.285
-11.619	33.387	1256.700	1072.756
-10.604	33.510	1255.893	1072.717
-9.590	33.528	1254.805	1071.850
-8.575	33.458	1253.751	1070.511
-7.560	33.357	1253.296	1069.508
-6.546	33.491	1252.267	1069.347
-5.531	33.338	1252.028	1068.237
-4.517	33.404	1250.497	1067.257
-3.502	33.384	1249.930	1066.618
-2.487	33.374	1249.167	1065.868
-1.473	33.425	1245.157	1062.695
-0.458	32.000	1229.843	1041.678
0.556	28.969	1213.200	1005.081
1.571	25.496	1219.042	990.724
2.586	24.984	1234.525	1000.360
3.600	24.467	1224.236	989.076
4.615	18.122	1151.256	896.854
5.629	7.344	1072.740	782.667
6.644	2.495	1051.156	743.352
7.659	1.932	1048.893	738.962
8.673	1.876	1047.381	737.561
9.688	1.879	1045.614	736.264
10.702	2.390	1045.185	738.364
11.717	9.318	1054.944	778.845
12.731	19.710	1069.098	839.990
13.746	24.338	1074.706	866.873
14.761	25.094	1075.952	871.477
15.775	25.094	1075.623	871.132
16.790	24.913	1074.462	869.235
17.804	24.768	1074.013	868.095
18.819	24.852	1073.727	868.195
19.834	25.059	1073.378	868.837
20.848	25.198	1072.600	868.802
21.863	25.231	1071.919	868.335
22.877	25.133	1071.312	867.294
23.892	25.058	1070.730	866.381
24.907	25.048	1069.940	865.620
25.921	25.064	1068.723	864.635
26.936	25.121	1067.236	863.631
27.950	24.903	1066.103	861.587
28.965	24.930	1064.306	860.186
29.980	24.974	1062.930	859.209
30.994	25.158	1061.700	859.020
32.009	25.086	1060.984	858.020
33.023	24.872	1059.562	855.775
34.038	24.860	1059.247	855.388
35.053	25.035	1058.551	855.585
36.067	25.098	1057.593	855.035
37.082	25.202	1056.762	854.781
38.096	25.150	1056.928	854.592
39.111	25.430	1055.315	854.546
40.126	25.236	1054.306	852.731
41.140	24.799	1052.636	849.232
42.155	24.603	1050.927	846.847
43.169	24.698	1050.355	846.761
44.184	24.776	1049.051	846.005
45.199	24.677	1048.508	845.024
46.213	24.703	1047.603	844.342
47.228	24.750	1047.032	844.032
48.242	24.873	1045.827	843.562
49.257	25.065	1045.463	844.097
50.271	25.207	1044.473	843.895
51.286	25.274	1043.373	843.243
52.301	25.123	1043.040	842.194
53.315	24.986	1041.707	840.399
54.330	24.930	1041.439	839.843
55.344	25.130	1040.197	839.704
56.359	24.971	1039.564	838.377
57.374	24.833	1038.351	836.677
58.388	24.894	1037.677	836.349
59.403	24.732	1037.094	835.048
60.417	24.717	1035.629	833.724
61.432	24.717	1035.488	833.538
62.447	24.827	1034.598	833.260
63.461	24.835	1034.181	832.887
64.476	24.908	1032.870	832.095
65.490	24.819	1031.889	830.817
66.505	24.749	1031.486	830.095
67.520	24.758	1030.986	829.661
68.534	24.625	1029.563	827.827
69.549	24.294	1028.642	825.479
70.563	24.447	1027.783	825.428
71.578	24.330	1026.765	823.997
72.593	24.197	1025.909	822.624
73.607	24.412	1025.520	823.228
74.622	24.575	1025.167	823.624
75.636	24.713	1024.778	823.874
76.651	24.482	1023.647	821.827
77.666	24.410	1022.980	820.888
78.680	24.431	1022.243	820.324
79.695	24.535	1021.770	820.350
80.709	24.742	1021.200	820.769
81.724	24.654	1020.352	819.609
82.739	24.649	1019.468	818.803
83.753	24.897	1019.169	819.628
84.768	25.263	1018.419	820.626
85.782	25.563	1016.983	820.765
86.797	25.432	1016.042	819.335
87.812	25.218	1015.448	817.808
88.826	25.374	1014.489	817.676
89.841	25.424	1013.742	817.228
90.855	25.336	1013.011	816.169
91.870	25.358	1011.482	814.961
92.884	25.165	1010.952	813.589
93.899	25.128	1009.979	812.567
94.914	25.173	1009.320	812.165
95.928	25.229	1007.707	811.051
96.943	24.909	1006.696	808.721
97.957	24.684	1005.678	806.816
98.972	24.519	1004.758	805.261
99.987	24.884	1003.795	806.063
101.001	24.975	1003.385	806.072
102.016	25.020	1002.432	805.436
103.030	24.926	1001.340	804.067
104.045	24.787	1000.713	802.868
105.060	24.632	999.462	801.096
106.074	24.753	998.934	801.147
107.089	25.138	998.748	802.649
108.103	25.027	997.028	800.699
109.118	24.791	996.059	798.799
110.133	24.823	994.965	797.993
111.147	24.665	993.560	796.091
112.162	24.536	992.712	794.766
113.176	24.712	992.368	795.203
114.191	24.796	991.302	794.653
115.206	24.362	990.395	791.928
116.220	24.409	989.400	791.272
117.235	24.492	988.707	791.015
118.249	24.485	988.034	790.376
119.264	24.396	987.065	789.138
120.279	24.559	986.674	789.476
121.293	24.547	985.776	788.632
122.308	24.621	984.777	788.091
123.322	24.495	983.431	786.392
124.337	24.225	982.612	784.477
125.352	23.841	980.919	781.369
126.366	23.821	979.604	780.161
127.381	24.588	980.118	783.870
128.395	24.966	979.386	784.875
129.410	24.999	979.107	784.726
130.424	25.127	977.628	784.029
131.439	25.059	976.956	783.125
132.454	24.961	976.359	782.150
133.468	24.891	974.970	780.662
134.483	25.015	974.477	780.740
135.497	25.311	973.988	781.566
136.512	25.393	972.959	781.025
137.527	25.240	972.474	779.903
138.541	25.326	971.640	779.538
139.556	25.281	970.726	778.543
140.570	25.416	969.824	778.333
141.585	25.478	968.513	777.480
142.600	25.341	967.542	776.040
143.614	25.564	967.258	776.711
144.629	25.680	966.546	776.567
145.643	25.416	965.318	774.376
146.658	25.250	963.877	772.436
147.673	25.149	962.994	771.227
148.687	25.166	961.756	770.240
149.702	24.863	961.339	768.537
150.716	24.993	960.319	768.212
151.731	25.316	959.682	769.016
152.746	25.330	959.076	768.525
153.760	25.496	958.533	768.732
154.775	25.487	958.032	768.223
155.789	25.319	957.452	766.974
156.804	25.395	956.248	766.264
157.819	25.575	955.071	766.018
158.833	25.543	954.677	765.500
159.848	25.590	954.040	765.122
160.862	25.458	952.745	763.456
161.877	25.394	951.625	762.218
162.892	25.401	951.051	761.718
163.906	25.409	949.467	760.420
164.921	25.467	948.633	759.927
165.935	25.487	947.951	759.400
166.950	25.451	947.353	758.702
167.964	25.369	946.280	757.431
168.979	25.344	945.006	756.238
169.994	25.243	944.212	755.110
171.008	25.445	943.776	755.541
172.023	25.509	942.504	754.729
173.037	25.405	941.412	753.349
174.052	25.132	940.665	751.541
175.067	25.174	939.927	751.062
176.081	25.347	939.291	751.209
177.096	25.324	938.733	750.599
178.110	24.858	937.897	747.919
179.125	24.756	937.413	747.040
180.140	24.817	937.190	747.050
181.154	25.011	936.834	747.513
182.169	25.270	936.574	748.317
183.183	25.337	936.343	748.346
184.198	25.300	935.126	747.154
185.213	25.281	934.627	746.609
186.227	25.357	933.526	745.979
187.242	25.333	932.955	745.359
188.256	25.380	932.707	745.290
189.271	25.472	932.058	745.086
190.286	25.100	930.934	742.580
191.300	24.538	929.371	738.943
192.315	24.038	926.968	734.905
193.329	23.767	926.962	733.717
194.344	24.692	927.610	737.981
195.359	25.310	927.844	740.654
196.373	25.422	927.174	740.515
197.388	25.200	926.497	738.995
198.402	25.255	925.918	738.697
199.417	25.287	925.098	738.106
200.432	25.064	924.055	736.295
201.446	24.867	923.586	735.044
202.461	24.904	923.210	734.832
203.475	24.054	921.041	729.561
204.490	23.317	919.583	725.324
205.504	24.254	919.965	729.397
206.519	24.995	919.692	732.144
207.534	25.108	918.961	731.959
208.548	25.369	918.858	732.879
209.563	25.060	918.590	731.338
210.577	25.147	917.814	731.010
211.592	25.538	917.668	732.424
212.607	25.504	916.427	731.230
213.621	25.521	915.882	730.798
214.636	25.434	915.508	730.084
215.650	25.395	914.538	729.088
216.665	25.604	913.818	729.296
217.680	25.437	913.023	727.920
218.694	25.018	912.060	725.392
219.709	24.936	911.284	724.377
220.723	25.209	910.828	725.055
221.738	25.367	910.161	725.099
222.753	25.250	909.753	724.237
223.767	25.420	909.263	724.468
224.782	25.611	909.060	725.012
225.796	25.608	908.246	724.287
226.811	24.808	907.072	720.071
227.826	24.147	905.966	716.471
228.840	24.485	905.299	717.236
229.855	24.482	904.530	716.553
230.869	24.185	903.571	714.537
231.884	24.657	903.571	716.369
232.899	25.324	903.551	718.961
233.913	25.373	902.709	718.423
234.928	25.267	902.290	717.602
235.942	25.188	901.650	716.713
236.957	24.806	900.566	714.263
237.972	24.852	900.208	714.102
238.986	24.987	899.364	713.904
240.001	25.027	898.783	713.541
241.015	25.083	898.415	713.408
242.030	25.255	897.978	713.680
243.045	25.362	897.181	713.408
244.059	25.510	896.602	713.474
245.074	25.386	895.674	712.180
246.088	24.989	894.755	709.815
247.103	25.374	894.567	711.126
248.117	25.892	894.942	713.413
249.132	25.989	894.528	713.406
250.147	26.005	894.347	713.262
251.161	26.163	893.539	713.176
252.176	26.240	892.641	712.702
253.190	26.335	892.268	712.714
254.205	26.406	891.876	712.618
255.220	26.397	890.988	711.812
256.234	26.348	890.422	711.102
257.249	26.019	889.668	709.144
258.263	26.091	889.181	708.978
259.278	26.267	888.492	709.054
260.293	26.262	888.012	708.591
261.307	26.083	887.256	707.221
262.322	25.931	886.365	705.856
263.336	25.257	884.285	701.502
264.351	24.346	882.365	696.362
265.366	24.343	882.275	696.217
266.380	25.254	883.161	700.413
267.395	25.756	882.879	702.084
268.409	25.723	881.927	701.136
269.424	26.034	881.496	701.942
270.439	25.920	880.987	701.030
271.453	26.035	880.587	701.099
272.468	26.164	880.414	701.399
273.482	26.335	879.437	701.225
274.497	25.816	878.431	698.347
275.512	25.453	877.389	696.050
276.526	25.873	877.282	697.532
277.541	26.093	877.211	698.263
278.555	25.842	876.389	696.578
279.570	25.753	875.217	695.241
280.585	25.875	874.974	695.455
281.599	25.762	873.821	694.045
282.614	25.231	872.652	691.010
283.628	25.251	872.390	690.817
284.643	25.695	872.037	692.184
285.657	25.229	870.963	689.483
286.672	24.949	870.093	687.658
287.687	25.491	870.494	689.994
288.701	25.590	869.418	689.457
289.716	25.286	868.706	687.669
290.730	25.199	868.249	686.912
291.745	25.010	866.861	685.031
292.760	25.280	867.268	686.325
293.774	26.471	866.939	690.553
294.789	26.559	867.188	691.026
295.803	26.575	866.829	690.739
296.818	26.544	865.863	689.791
297.833	26.216	864.303	687.240
298.847	26.108	863.784	686.355
299.862	26.260	864.044	687.080
300.876	26.521	863.574	687.636
301.891	26.456	862.731	686.656
302.906	26.095	861.738	684.438
303.920	26.161	861.601	684.520
304.935	26.438	861.616	685.520
305.949	26.552	860.434	684.951
306.964	26.252	859.916	683.344
307.979	26.304	859.331	683.014
308.993	26.638	859.216	684.126
310.008	26.752	858.713	684.093
311.022	26.452	857.679	682.079
312.037	26.131	857.709	680.830
313.052	26.064	856.094	679.238
314.066	25.283	854.443	674.930
315.081	24.894	853.923	672.999
316.095	25.622	854.322	675.991
317.110	26.168	854.109	677.813
318.125	25.341	852.603	673.456
319.139	24.308	851.372	668.554
320.154	24.335	851.138	668.411
321.168	25.080	851.565	671.482
322.183	25.875	851.235	674.135
323.197	26.044	851.223	674.700
324.212	26.223	850.703	674.898
325.227	26.279	850.048	674.528
326.241	26.036	849.572	673.183
327.256	26.093	848.830	672.749
328.270	26.053	848.194	672.033
329.285	25.697	847.381	670.007
330.300	25.563	846.541	668.785
331.314	25.937	846.409	670.011
332.329	26.200	846.252	670.803
333.343	26.295	845.987	670.889
334.358	26.445	845.244	670.795
335.373	26.582	845.071	671.106
336.387	26.652	845.045	671.286
337.402	26.836	844.875	671.774
338.416	26.771	844.376	671.079
339.431	26.974	843.976	671.450
340.446	27.021	843.925	671.526
341.460	26.829	843.058	670.067
342.475	26.778	842.473	669.354
343.489	26.821	841.863	668.967
344.504	26.991	842.198	669.802
345.519	27.282	841.679	670.402
346.533	27.242	841.360	669.941
347.548	27.378	840.581	669.764
348.562	27.228	840.020	668.705
349.577	27.089	839.558	667.767
350.592	27.237	838.462	667.380
351.606	27.165	837.971	666.667
352.621	27.040	837.146	665.494
353.635	26.890	836.857	664.655
354.650	26.221	835.019	660.688
355.665	25.412	833.210	656.244
356.679	25.754	833.412	657.596
357.694	26.219	832.830	658.774
358.708	26.221	832.135	658.175
359.723	26.572	832.031	659.313
360.738	26.955	831.932	660.568
361.752	26.902	831.617	660.069
362.767	27.263	831.061	660.880
363.781	27.420	830.939	661.295
364.796	27.657	830.534	661.774
365.810	27.634	829.975	661.187
366.825	27.599	829.523	660.642
367.840	27.143	829.036	658.543
368.854	26.934	827.816	656.761
369.869	26.779	827.779	656.110
370.883	27.054	826.738	656.224
371.898	26.789	826.837	655.285
372.913	26.831	826.778	655.333
373.927	26.957	826.250	655.313
374.942	27.157	825.618	655.475
375.956	27.253	825.252	655.471
376.971	27.531	824.692	655.969
377.986	27.542	824.543	655.831
379.000	27.500	824.021	655.206
380.015	27.174	823.360	653.451
381.029	27.349	822.839	653.611
382.044	27.570	822.197	653.836
383.059	27.662	821.565	653.606
384.073	27.616	820.729	652.716
385.088	27.444	820.186	651.613
386.102	27.239	819.771	650.489
387.117	27.161	819.402	649.860
388.132	27.040	818.001	648.259
389.146	26.351	817.310	645.199
390.161	26.910	816.652	646.614
391.175	27.161	816.736	647.516
392.190	27.056	815.685	646.253
393.205	25.635	813.474	639.397
394.219	23.987	812.063	632.383
395.234	23.991	811.763	632.107
396.248	25.649	813.227	639.085
397.263	27.085	813.738	644.528
398.278	27.097	813.526	644.347
399.292	26.790	812.830	642.651
400.307	26.742	812.582	642.228
401.321	26.857	812.126	642.217
402.336	27.337	811.742	643.554
403.350	27.648	812.030	644.825
404.365	27.903	811.657	645.375
405.380	28.237	811.272	646.191
406.394	28.346	810.862	646.191
407.409	28.234	810.259	645.257
408.423	28.368	809.542	645.101
409.438	28.333	809.204	644.653
410.453	28.261	808.970	644.156
411.467	28.142	808.762	643.516
412.482	28.111	808.396	643.058
413.496	28.308	807.942	643.331
414.511	28.204	807.603	642.638
415.526	28.193	807.088	642.133
416.540	28.084	806.229	641.010
417.555	27.878	805.326	639.514
418.569	28.081	805.031	639.937
419.584	27.796	804.764	638.670
420.599	27.686	804.202	637.782
421.613	110.055	1284.620	1452.184
422.628	95.018	1354.614	1452.298
