DTS Sentinel unit serial number:	SN413079Multiplexer serial number:	ORYXHardware model number:	OX4-SRSoftware version number:	ORYX F/W v4.00 Oryx Data Collector v3.7.2.0data status	okinstallation	princeton_trtdifferential loss correction	single-endedforward channel	channel 1reverse channel	N/Adate	2019/09/13time	18:46:35forward acquisition time	60.00reverse acquisition time	0.00gamma	496.2192k internal	0.2320k external	0.2320temperature offset calibration	1.0127default loss term (dB/km)	0.3790temperature slope calibration	1.0000multiplexer offset coefficient	1.0000multiplexer slope coefficient	1.0000fibre end	0.00T internal ref (°C)	32.58T ext. ref 1 (°C)	4.11T ext. ref 2 (°C)	25.75length (m)	temperature (°C)	Stokes	anti-Stokes-747.200	-56.291	-0.121	0.054
-746.185	800.000	-0.119	0.340
-745.171	800.000	-0.104	0.342
-744.156	268.974	0.138	0.246
-743.142	2.312	-0.050	-0.036
-742.127	526.735	0.046	0.110
-741.112	-104.328	0.237	0.056
-740.098	-106.206	-0.094	-0.021
-739.083	263.676	-0.082	-0.144
-738.069	734.416	0.086	0.233
-737.054	-99.355	-0.211	-0.054
-736.039	-78.588	-0.377	0.130
-735.025	239.145	0.090	0.151
-734.010	-200.000	0.015	0.098
-732.996	-192.242	-0.386	-0.004
-731.981	-34.747	0.174	0.096
-730.966	-97.523	0.112	-0.029
-729.952	-200.000	0.027	-0.300
-728.937	-54.739	0.108	-0.049
-727.923	-110.592	-0.360	0.075
-726.908	-48.713	0.106	-0.052
-725.894	140.348	-0.179	0.238
-724.879	-110.276	-0.131	-0.028
-723.864	5.112	-0.065	0.048
-722.850	550.906	-0.230	-0.557
-721.835	-157.589	0.071	0.004
-720.821	-196.901	0.089	-0.001
-719.806	-69.884	-0.192	-0.074
-718.791	800.000	-0.050	0.161
-717.777	-145.932	0.320	0.029
-716.762	-167.280	0.080	0.003
-715.748	143.528	-0.085	-0.114
-714.733	233.253	0.038	0.063
-713.718	-200.000	-0.040	0.241
-712.704	267.502	-0.149	0.264
-711.689	-172.700	0.384	0.012
-710.675	-200.000	0.020	-0.229
-709.660	800.000	-0.063	-0.200
-708.645	800.000	-0.005	-0.020
-707.631	344.017	-0.122	-0.241
-706.616	-200.000	-0.013	0.357
-705.602	800.000	-0.040	0.139
-704.587	-200.000	0.030	0.185
-703.572	92.297	-0.062	0.071
-702.558	-200.000	0.006	-0.215
-701.543	-21.508	0.210	0.129
-700.529	-123.833	0.205	-0.033
-699.514	248.169	0.077	-0.131
-698.499	51.470	-0.080	-0.076
-697.485	49.602	-0.121	0.115
-696.470	82.377	0.174	0.191
-695.456	-72.670	-0.297	-0.111
-694.441	101.142	0.289	-0.339
-693.426	201.118	-0.062	-0.097
-692.412	-200.000	-0.011	0.282
-691.397	30.081	0.163	-0.140
-690.383	549.908	-0.067	-0.163
-689.368	800.000	-0.078	0.314
-688.354	-200.000	0.010	0.429
-687.339	626.048	0.113	-0.288
-686.324	-0.258	0.203	-0.146
-685.310	-200.000	-0.034	-0.310
-684.295	-14.031	-0.074	0.048
-683.281	-200.000	0.014	0.334
-682.266	20.586	-0.109	0.089
-681.251	-74.904	-0.142	0.051
-680.237	-85.199	0.253	0.080
-679.222	-117.304	0.218	0.040
-678.208	-200.000	-0.009	-0.056
-677.193	644.524	0.088	-0.227
-676.178	262.226	-0.186	0.325
-675.164	800.000	-0.025	0.090
-674.149	-114.173	0.231	0.045
-673.135	183.382	0.160	-0.238
-672.120	213.473	-0.074	-0.119
-671.105	800.000	0.026	-0.080
-670.091	-150.517	-0.129	-0.010
-669.076	-5.363	-0.172	-0.119
-668.062	453.480	-0.076	0.169
-667.047	-200.000	0.012	-0.252
-666.032	-200.000	0.032	0.252
-665.018	-130.412	-0.118	0.016
-664.003	203.595	0.093	0.145
-662.989	10.019	0.331	0.253
-661.974	209.054	0.023	-0.036
-660.959	206.345	-0.219	-0.343
-659.945	-147.868	-0.310	-0.026
-658.930	-58.773	-0.204	0.089
-657.916	-200.000	-0.016	-0.187
-656.901	276.238	-0.183	-0.327
-655.886	-56.219	-0.074	0.033
-654.872	89.589	0.108	0.121
-653.857	-200.000	-0.024	-0.133
-652.843	131.642	-0.138	-0.179
-651.828	800.000	-0.044	-0.127
-650.814	422.185	0.077	-0.167
-649.799	14.099	0.047	-0.037
-648.784	63.653	-0.203	-0.206
-647.770	-144.523	0.381	-0.035
-646.755	5.974	-0.264	0.197
-645.741	-139.345	-0.089	0.010
-644.726	177.730	0.187	0.275
-643.711	340.443	0.101	-0.198
-642.697	-200.000	0.010	-0.171
-641.682	-200.000	-0.007	-0.225
-640.668	585.277	-0.138	0.342
-639.653	50.152	0.245	-0.233
-638.638	-37.050	-0.259	0.140
-637.624	-73.327	-0.079	0.029
-636.609	-125.171	-0.185	-0.029
-635.595	800.000	0.031	-0.122
-634.580	-18.938	0.419	-0.262
-633.565	800.000	0.083	-0.247
-632.551	-166.262	0.105	-0.004
-631.536	-22.148	-0.204	0.125
-630.522	64.702	0.220	0.224
-629.507	-38.834	-0.097	-0.051
-628.492	-119.495	-0.308	-0.054
-627.478	-200.000	0.012	-0.119
-626.463	-66.495	0.162	-0.065
-625.449	800.000	-0.083	0.298
-624.434	-166.843	-0.158	-0.007
-623.419	-98.524	-0.093	0.024
-622.405	-63.832	0.136	0.056
-621.390	800.000	0.047	-0.174
-620.376	-108.035	0.158	0.034
-619.361	-23.350	-0.130	0.078
-618.346	800.000	-0.104	-0.386
-617.332	800.000	-0.028	-0.107
-616.317	-200.000	0.012	-0.140
-615.303	34.650	-0.005	-0.004
-614.288	-200.000	0.057	-0.452
-613.273	648.978	0.084	0.217
-612.259	144.170	0.030	0.040
-611.244	-90.065	0.179	0.052
-610.230	-200.000	0.016	0.198
-609.215	-200.000	0.040	0.278
-608.201	-169.092	0.108	-0.004
-607.186	695.861	0.105	-0.278
-606.171	317.322	0.128	-0.243
-605.157	-62.484	0.257	-0.107
-604.142	1.173	0.265	0.191
-603.128	4.467	0.219	0.161
-602.113	-5.990	0.192	0.132
-601.098	800.000	-0.035	0.114
-600.084	201.449	-0.091	-0.141
-599.069	-106.952	-0.358	0.080
-598.055	-200.000	-0.062	-0.317
-597.040	-109.344	0.616	-0.131
-596.025	-200.000	0.049	-0.250
-595.011	104.071	0.047	-0.056
-593.996	-10.288	0.335	0.223
-592.982	390.940	0.149	0.311
-591.967	-20.926	0.100	-0.061
-590.952	781.153	0.051	-0.141
-589.938	139.962	0.082	-0.109
-588.923	71.862	0.095	0.099
-587.909	469.305	0.053	-0.119
-586.894	126.162	-0.043	-0.054
-585.879	-200.000	0.042	-0.332
-584.865	20.557	-0.198	0.161
-583.850	82.615	-0.027	0.030
-582.836	-47.622	-0.133	0.065
-581.821	-50.278	-0.273	0.130
-580.806	-182.865	-0.329	0.006
-579.792	-59.013	-0.082	-0.035
-578.777	-118.619	-0.472	-0.084
-577.763	-99.803	0.298	-0.075
-576.748	-151.311	-0.101	-0.008
-575.733	-84.760	-0.119	0.038
-574.719	98.916	-0.217	-0.252
-573.704	8.314	-0.148	-0.112
-572.690	800.000	-0.053	0.187
-571.675	800.000	-0.105	0.297
-570.661	41.224	-0.203	-0.184
-569.646	800.000	0.003	-0.013
-568.631	288.059	0.070	0.127
-567.617	-147.001	-0.112	0.010
-566.602	30.437	-0.142	0.122
-565.588	471.254	0.054	-0.121
-564.573	-14.434	-0.172	0.111
-563.558	621.235	-0.037	-0.095
-562.544	405.943	0.024	-0.050
-561.529	-200.000	0.078	0.390
-560.515	-117.587	0.191	-0.035
-559.500	-58.789	-0.182	-0.079
-558.485	-200.000	-0.014	0.239
-557.471	-54.712	-0.151	-0.068
-556.456	-23.860	0.149	-0.090
-555.442	-87.473	-0.451	-0.137
-554.427	-200.000	-0.012	0.061
-553.412	-92.236	0.096	0.027
-552.398	-200.000	0.019	-0.222
-551.383	-68.401	-0.270	0.105
-550.369	-200.000	-0.023	0.276
-549.354	-151.928	0.253	-0.019
-548.339	208.418	-0.086	0.135
-547.325	800.000	-0.059	-0.242
-546.310	-113.573	0.217	0.043
-545.296	-105.803	0.259	-0.059
-544.281	-182.250	0.404	-0.008
-543.266	800.000	0.076	0.214
-542.252	-85.452	0.272	-0.085
-541.237	-5.292	-0.209	0.144
-540.223	-94.346	0.138	0.038
-539.208	-7.708	-0.115	-0.078
-538.193	781.974	-0.074	0.204
-537.179	12.897	-0.193	0.150
-536.164	207.787	-0.068	-0.107
-535.150	-200.000	-0.049	-0.224
-534.135	-56.868	0.428	-0.190
-533.121	224.448	-0.104	-0.168
-532.106	-16.677	-0.406	0.258
-531.091	-34.416	0.040	0.022
-530.077	-97.337	0.372	0.097
-529.062	800.000	-0.027	-0.090
-528.048	-35.557	-0.116	0.063
-527.033	-200.000	-0.020	0.216
-526.018	-62.736	-0.335	-0.139
-525.004	104.213	-0.186	-0.219
-523.989	156.551	-0.164	-0.227
-522.975	-200.000	-0.012	-0.409
-521.960	245.196	-0.121	-0.203
-520.945	-136.480	0.540	-0.063
-519.931	-5.024	-0.369	-0.255
-518.916	145.940	-0.072	0.097
-517.902	-86.697	-0.346	0.106
-516.887	-77.602	-0.098	0.034
-515.872	71.770	-0.330	-0.343
-514.858	-13.589	0.238	-0.154
-513.843	-154.132	-0.203	0.014
-512.829	-99.823	-0.015	0.004
-511.814	142.150	0.102	-0.136
-510.799	-84.088	-0.250	0.080
-509.785	800.000	-0.037	0.127
-508.770	-34.294	0.182	-0.100
-507.756	20.314	-0.026	-0.021
-506.741	-84.203	0.105	-0.033
-505.726	44.445	-0.095	-0.087
-504.712	14.745	-0.264	-0.206
-503.697	800.000	-0.125	-0.384
-502.683	-69.566	0.307	-0.118
-501.668	462.559	0.067	-0.150
-500.653	-200.000	-0.009	0.213
-499.639	-92.500	0.255	-0.072
-498.624	155.449	0.112	0.155
-497.610	170.248	-0.119	-0.170
-496.595	-153.982	0.422	-0.029
-495.581	-64.055	0.170	0.070
-494.566	16.244	-0.028	0.022
-493.551	99.481	-0.144	0.167
-492.537	-67.312	0.187	0.074
-491.522	539.877	0.053	0.127
-490.508	-200.000	-0.020	-0.214
-489.493	165.579	-0.200	0.283
-488.478	383.021	-0.084	0.172
-487.464	-32.139	-0.242	-0.136
-486.449	-200.000	0.006	-0.281
-485.435	-200.000	0.000	0.126
-484.420	-190.179	-0.159	0.002
-483.405	72.283	0.128	-0.134
-482.391	115.783	0.103	0.126
-481.376	-31.656	-0.199	0.112
-480.362	608.429	-0.094	-0.234
-479.347	233.296	0.076	-0.124
-478.332	57.259	0.114	0.111
-477.318	-200.000	0.011	-0.132
-476.303	800.000	0.062	-0.199
-475.289	-83.141	-0.355	-0.114
-474.274	5.280	-0.170	0.125
-473.259	-2.823	-0.191	0.134
-472.245	18.597	-0.222	0.177
-471.230	-200.000	0.125	0.574
-470.216	-115.344	-0.156	-0.030
-469.201	-200.000	0.016	-0.127
-468.186	-200.000	0.043	0.232
-467.172	364.072	-0.139	0.280
-466.157	-200.000	0.017	0.160
-465.143	-200.000	0.022	-0.126
-464.128	-63.609	-0.306	0.126
-463.113	32.929	-0.115	0.100
-462.099	800.000	0.055	0.155
-461.084	317.584	-0.079	0.150
-460.070	204.036	-0.102	-0.159
-459.055	-19.910	0.122	0.075
-458.040	-12.717	0.057	0.037
-457.026	-90.403	0.175	0.051
-456.011	-19.398	-0.113	0.070
-454.997	-200.000	-0.003	0.226
-453.982	371.584	-0.075	-0.152
-452.968	-151.488	0.276	0.020
-451.953	1.626	-0.180	0.129
-450.938	-137.619	0.245	-0.028
-449.924	800.000	0.093	0.291
-448.909	-125.773	-0.306	-0.046
-447.895	800.000	0.056	-0.219
-446.880	-83.162	0.175	0.056
-445.865	144.144	0.058	-0.077
-444.851	-169.088	0.056	0.002
-443.836	-94.810	-0.221	0.060
-442.822	-36.245	0.089	-0.048
-441.807	-73.856	-0.079	0.029
-440.792	-128.151	0.266	-0.038
-439.778	314.256	-0.124	0.234
-438.763	-154.771	0.372	0.025
-437.749	69.481	0.058	-0.060
-436.734	347.070	-0.139	0.273
-435.719	-39.356	-0.046	-0.024
-434.705	800.000	-0.043	-0.183
-433.690	383.029	0.114	0.235
-432.676	135.737	-0.081	-0.106
-431.661	-200.000	-0.000	0.191
-430.646	-8.888	-0.131	0.088
-429.632	1.004	0.087	0.062
-428.617	115.191	0.217	0.265
-427.603	109.427	-0.147	-0.175
-426.588	127.833	0.231	-0.293
-425.573	183.578	-0.140	-0.207
-424.559	49.589	0.192	0.180
-423.544	-161.465	-0.164	0.008
-422.530	800.000	-0.040	-0.159
-421.515	-95.997	0.112	0.030
-420.500	-115.964	0.104	-0.019
-419.486	-54.103	-0.139	-0.063
-418.471	399.900	0.075	-0.157
-417.457	-50.298	-0.274	0.129
-416.442	-24.226	0.247	0.147
-415.428	549.317	0.062	0.148
-414.413	-200.000	-0.016	-0.218
-413.398	-200.000	-0.064	-0.310
-412.384	58.045	0.226	0.221
-411.369	40.979	0.091	-0.082
-410.355	-200.000	-0.070	0.363
-409.340	454.123	0.152	0.336
-408.325	-59.622	0.390	0.167
-407.311	148.069	-0.121	0.163
-406.296	368.940	0.093	-0.188
-405.282	800.000	0.091	0.283
-404.267	34.918	0.225	0.197
-403.252	-200.000	0.003	0.219
-402.238	-190.075	-0.174	0.002
-401.223	3.212	-0.294	0.214
-400.209	238.880	0.218	0.362
-399.194	-200.000	-0.004	0.086
-398.179	800.000	-0.027	0.113
-397.165	-18.593	0.117	-0.073
-396.150	-118.079	-0.232	0.041
-395.136	-7.137	-0.024	-0.016
-394.121	136.263	0.187	0.243
-393.106	-200.000	-0.072	-0.334
-392.092	-73.701	0.096	0.035
-391.077	-144.962	0.052	-0.005
-390.063	538.474	-0.054	-0.128
-389.048	-200.000	0.014	-0.063
-388.033	-106.180	0.444	0.099
-387.019	554.706	-0.109	0.263
-386.004	283.852	-0.117	-0.209
-384.990	616.826	-0.179	-0.447
-383.975	139.454	-0.144	-0.189
-382.960	-15.482	0.162	0.103
-381.946	135.274	0.132	0.171
-380.931	-200.000	-0.023	0.220
-379.917	-68.064	0.107	-0.042
-378.902	-200.000	0.026	0.180
-377.888	-0.815	0.199	-0.140
-376.873	51.714	0.120	0.114
-375.858	-200.000	-0.018	0.121
-374.844	-101.004	0.321	-0.079
-373.829	-52.696	-0.263	-0.121
-372.815	-200.000	-0.001	-0.044
-371.800	347.236	-0.126	-0.248
-370.785	-200.000	-0.006	0.174
-369.771	800.000	-0.055	-0.214
-368.756	660.517	0.062	0.160
-367.742	544.983	-0.105	-0.250
-366.727	-43.530	0.148	0.074
-365.712	121.745	0.066	0.082
-364.698	-96.867	0.060	0.016
-363.683	-61.258	-0.274	-0.115
-362.669	136.858	-0.213	-0.277
-361.654	-127.054	-0.110	0.016
-360.639	-183.459	-0.343	0.006
-359.625	-117.225	-0.202	-0.037
-358.610	242.080	0.118	-0.197
-357.596	39.829	0.108	0.096
-356.581	21.795	0.330	0.268
-355.566	26.848	-0.259	0.216
-354.552	187.979	0.189	-0.281
-353.537	-200.000	0.012	-0.311
-352.523	50.724	-0.161	-0.152
-351.508	169.663	0.076	-0.108
-350.493	19.569	-0.059	-0.047
-349.479	-9.155	-0.205	0.137
-348.464	-13.833	-0.099	0.064
-347.450	423.433	0.088	0.188
-346.435	-200.000	-0.011	-0.170
-345.420	-0.914	-0.214	-0.151
-344.406	318.040	-0.101	-0.189
-343.391	-66.968	-0.209	0.082
-342.377	-28.239	-0.186	-0.107
-341.362	90.739	0.059	-0.066
-340.348	59.437	0.148	0.145
-339.333	495.756	-0.037	0.085
-338.318	75.378	-0.086	-0.090
-337.304	-200.000	0.018	-0.243
-336.289	-200.000	-0.005	0.284
-335.275	63.810	0.169	0.169
-334.260	-182.858	0.018	-0.000
-333.245	-200.000	0.045	-0.290
-332.231	90.008	-0.103	-0.115
-331.216	407.377	0.072	-0.151
-330.202	175.273	-0.155	0.224
-329.187	800.000	0.018	0.062
-328.172	-128.548	-0.202	0.028
-327.158	-200.000	0.066	-0.332
-326.143	-78.720	-0.119	-0.041
-325.129	-60.446	0.160	0.068
-324.114	800.000	0.082	-0.241
-323.099	800.000	0.008	0.027
-322.085	-90.648	0.117	-0.034
-321.070	4.103	-0.142	0.103
-320.056	568.031	-0.117	0.282
-319.041	191.446	-0.153	0.229
-318.026	-28.920	0.185	0.106
-317.012	135.754	0.118	0.153
-315.997	361.326	0.164	-0.327
-314.983	-72.821	0.261	0.095
-313.968	-162.027	-0.314	0.016
-312.953	-82.512	0.056	-0.018
-311.939	493.759	-0.060	0.138
-310.924	-114.691	-0.165	0.031
-309.910	11.719	-0.048	-0.036
-308.895	-16.131	-0.085	0.054
-307.880	-20.880	-0.169	0.103
-306.866	-80.758	-0.181	-0.060
-305.851	289.089	0.082	-0.148
-304.837	23.150	-0.169	-0.138
-303.822	-133.922	0.122	-0.015
-302.807	800.000	-0.087	0.285
-301.793	327.721	0.246	-0.469
-300.778	-173.849	-0.065	-0.002
-299.764	-39.618	-0.197	0.103
-298.749	3.870	-0.163	0.118
-297.735	-81.051	0.359	0.118
-296.720	95.588	-0.139	-0.157
-295.705	-129.329	0.085	0.012
-294.691	13.415	0.166	0.128
-293.676	23.600	-0.170	-0.139
-292.662	30.120	-0.129	0.109
-291.647	-200.000	-0.018	0.171
-290.632	-64.631	0.239	0.096
-289.618	-172.485	0.273	0.009
-288.603	-200.000	0.076	-0.416
-287.589	800.000	0.056	-0.240
-286.574	-178.243	0.172	0.004
-285.559	-69.126	-0.047	-0.018
-284.545	175.672	0.150	0.216
-283.530	135.923	-0.082	-0.106
-282.516	98.151	-0.241	0.276
-281.501	104.964	0.210	0.246
-280.486	149.711	0.102	-0.137
-279.472	15.984	-0.178	0.139
-278.457	583.123	0.132	-0.321
-277.443	343.527	-0.061	-0.119
-276.428	-181.202	0.143	0.003
-275.413	43.053	-0.265	0.240
-274.399	156.658	-0.146	-0.201
-273.384	73.662	0.107	0.112
-272.370	50.627	0.400	0.375
-271.355	800.000	0.022	-0.094
-270.340	-135.727	0.447	-0.053
-269.326	-200.000	-0.012	0.408
-268.311	47.713	-0.175	0.162
-267.297	-130.082	-0.151	0.020
-266.282	-164.830	-0.100	0.004
-265.267	-200.000	0.049	0.214
-264.253	10.048	-0.149	-0.112
-263.238	108.305	0.164	-0.194
-262.224	-15.813	0.159	0.101
-261.209	19.940	0.150	0.120
-260.195	-86.367	0.026	0.008
-259.180	212.522	0.106	-0.166
-258.165	247.755	-0.044	-0.074
-257.151	-200.000	0.013	-0.330
-256.136	233.583	-0.188	-0.307
-255.122	-200.000	0.024	0.141
-254.107	100.676	0.152	0.175
-253.092	156.672	0.175	-0.240
-252.078	800.000	-0.112	-0.351
-251.063	800.000	-0.137	-0.423
-250.049	-154.541	0.157	0.010
-249.034	107.456	-0.087	0.103
-248.019	-10.923	-0.152	0.099
-247.005	302.907	-0.063	-0.115
-245.990	-109.493	0.152	-0.032
-244.976	-80.867	-0.053	0.017
-243.961	-200.000	-0.022	-0.124
-242.946	-44.955	-0.132	-0.065
-241.932	148.586	0.141	-0.188
-240.917	385.321	-0.161	-0.330
-239.903	800.000	0.089	0.296
-238.888	800.000	-0.018	0.054
-237.873	90.554	-0.191	-0.213
-236.859	-173.628	-0.089	0.003
-235.844	221.287	-0.101	0.160
-234.830	21.265	-0.155	-0.125
-233.815	-200.000	0.017	-0.275
-232.800	-200.000	-0.004	0.143
-231.786	157.114	-0.024	-0.033
-230.771	54.551	-0.124	0.118
-229.757	-143.789	0.138	-0.013
-228.742	-24.822	0.218	-0.128
-227.727	-68.934	-0.277	0.106
-226.713	800.000	0.069	0.191
-225.698	-71.756	-0.432	-0.160
-224.684	637.791	-0.062	-0.156
-223.669	674.389	-0.097	0.248
-222.655	-64.142	0.165	-0.067
-221.640	17.230	0.178	-0.140
-220.625	76.345	-0.099	-0.104
-219.611	-38.897	-0.237	-0.124
-218.596	111.798	-0.294	-0.352
-217.582	800.000	-0.045	-0.145
-216.567	437.803	-0.055	0.119
-215.552	95.596	0.090	-0.102
-214.538	-124.651	0.117	-0.018
-213.523	-64.363	-0.458	0.185
-212.509	-76.619	0.276	0.096
-211.494	-200.000	-0.052	0.305
-210.479	-124.885	0.308	0.047
-209.465	748.028	0.071	-0.188
-208.450	-106.107	0.304	-0.068
-207.436	468.309	-0.063	-0.140
-206.421	-200.000	0.040	0.192
-205.406	52.765	0.064	-0.061
-204.392	-26.359	-0.283	0.164
-203.377	-200.000	0.024	0.155
-202.363	800.000	0.101	0.391
-201.348	225.795	0.101	-0.163
-200.333	229.467	0.009	0.015
-199.319	800.000	-0.026	0.082
-198.304	-38.993	0.328	0.171
-197.290	278.776	0.123	0.217
-196.275	20.067	-0.169	-0.135
-195.260	-136.223	-0.122	-0.014
-194.246	-70.561	0.385	-0.144
-193.231	-162.396	0.218	0.011
-192.217	168.830	-0.076	-0.107
-191.202	497.118	-0.020	-0.045
-190.187	-113.460	0.284	0.055
-189.173	-81.349	0.132	0.043
-188.158	-64.465	0.429	0.173
-187.144	-79.251	-0.212	-0.071
-186.129	76.335	-0.169	0.177
-185.114	298.457	0.149	-0.271
-184.100	-16.303	-0.056	-0.035
-183.085	339.469	0.166	-0.320
-182.071	13.225	0.293	0.225
-181.056	-175.556	0.210	-0.006
-180.042	18.645	-0.145	0.115
-179.027	-123.536	-0.118	-0.019
-178.012	-200.000	-0.027	-0.163
-176.998	-200.000	0.061	0.442
-175.983	-52.258	-0.224	0.103
-174.969	-115.889	0.561	-0.104
-173.954	-33.563	0.203	-0.111
-172.939	233.956	0.008	0.013
-171.925	800.000	-0.013	0.045
-170.910	64.849	-0.152	-0.152
-169.896	-82.420	-0.212	-0.068
-168.881	-28.666	-0.264	-0.150
-167.866	-134.626	0.172	0.021
-166.852	173.722	0.187	-0.267
-165.837	-13.198	0.137	0.088
-164.823	-200.000	-0.151	-0.001
-163.808	-46.395	0.139	0.068
-162.793	139.696	-0.169	0.220
-161.779	-129.574	-0.178	0.024
-160.764	800.000	-0.091	0.268
-159.750	-200.000	-0.013	-0.125
-158.735	-25.312	-0.132	0.077
-157.720	772.681	-0.114	0.307
-156.706	416.610	0.099	0.209
-155.691	-200.000	-0.004	0.365
-154.677	20.340	-0.264	0.211
-153.662	800.000	-0.022	-0.075
-152.647	-200.000	0.004	0.106
-151.633	52.406	0.119	-0.112
-150.618	348.971	0.077	0.150
-149.604	83.148	-0.102	-0.110
-148.589	-200.000	-0.000	-0.025
-147.574	181.261	-0.101	0.147
-146.560	76.102	-0.066	0.069
-145.545	-14.465	0.043	-0.028
-144.531	502.640	-0.088	0.201
-143.516	101.639	0.187	0.215
-142.502	-200.000	0.029	0.233
-141.487	800.000	0.085	-0.281
-140.472	-200.000	0.005	-0.083
-139.458	105.810	-0.098	-0.114
-138.443	-111.043	-0.288	-0.058
-137.429	800.000	-0.053	0.157
-136.414	23.059	-0.032	-0.026
-135.399	643.971	0.134	0.338
-134.385	722.193	-0.030	-0.080
-133.370	-142.290	0.204	-0.020
-132.356	800.000	-0.069	0.217
-131.341	-200.000	0.045	0.282
-130.326	-200.000	-0.001	-0.047
-129.312	0.330	-0.367	0.258
-128.297	-18.109	-0.160	0.099
-127.283	406.498	-0.007	-0.014
-126.268	93.927	-0.164	0.184
-125.253	-176.684	0.465	-0.012
-124.239	-126.674	0.053	0.008
-123.224	72.981	0.248	0.256
-122.210	462.877	0.119	-0.262
-121.195	-104.926	-0.169	-0.038
-120.180	12.557	0.235	0.179
-119.166	466.078	0.111	0.246
-118.151	-169.077	-0.154	0.006
-117.137	-33.543	0.045	-0.025
-116.122	-95.126	0.183	0.049
-115.107	-105.796	0.113	-0.025
-114.093	367.286	-0.128	0.254
-113.078	64.733	0.029	0.029
-112.064	-200.000	0.073	-0.360
-111.049	-101.949	-0.040	-0.010
-110.034	-200.000	-0.036	0.242
-109.020	-200.000	0.000	0.112
-108.005	69.728	-0.036	-0.037
-106.991	-162.001	-0.080	0.004
-105.976	671.291	0.050	-0.129
-104.962	-200.000	0.025	-0.118
-103.947	146.605	0.084	0.111
-102.932	-83.239	0.201	0.064
-101.918	-83.433	-0.120	-0.038
-100.903	401.165	-0.120	-0.249
-99.889	54.799	-0.134	0.128
-98.874	800.000	-0.133	-0.432
-97.859	-200.000	0.012	-0.094
-96.845	174.677	-0.071	0.101
-95.830	-200.000	0.018	-0.180
-94.816	141.052	0.123	0.160
-93.801	9.576	0.130	-0.097
-92.786	-116.535	0.420	0.076
-91.772	-122.907	0.140	-0.022
-90.757	-200.000	-0.044	0.283
-89.743	-200.000	-0.062	0.350
-88.728	-200.000	-0.001	-0.077
-87.713	-61.827	0.165	0.068
-86.699	-152.625	0.118	-0.008
-85.684	-200.000	0.018	0.149
-84.670	-127.465	0.175	-0.025
-83.655	155.513	-0.232	-0.314
-82.640	117.688	-0.154	-0.187
-81.626	-40.463	-0.221	0.113
-80.611	194.542	-0.083	-0.123
-79.597	158.961	0.197	0.270
-78.582	368.325	0.085	0.169
-77.567	-109.299	-0.063	-0.013
-76.553	-200.000	0.044	0.282
-75.538	-20.640	0.180	-0.109
-74.524	-63.811	-0.395	-0.159
-73.509	17.677	-0.094	-0.074
-72.494	-123.312	0.210	-0.033
-71.480	3.182	0.143	-0.102
-70.465	-200.000	0.013	0.152
-69.451	-119.767	-0.119	0.020
-68.436	96.789	-0.093	0.105
-67.422	-157.484	0.128	-0.008
-66.407	85.308	0.050	0.054
-65.392	-65.012	0.068	-0.027
-64.378	473.757	0.121	0.268
-63.363	23.451	0.158	0.128
-62.349	-200.000	-0.009	0.243
-61.334	17.681	-1.025	-0.803
-60.319	-131.949	0.652	0.084
-59.305	-200.000	0.019	-1.066
-58.290	256.553	0.809	1.368
-57.276	395.050	0.694	1.424
-56.261	-200.000	95.919	597.588
-55.246	659.030	1368.628	3466.475
-54.232	200.402	2539.725	3841.264
-53.217	120.701	2134.371	2611.247
-52.203	44.480	1603.199	1449.586
-51.188	36.180	1342.473	1163.962
-50.173	32.952	1301.716	1109.648
-49.159	55.131	1347.752	1281.819
-48.144	57.199	1364.814	1310.338
-47.130	36.369	1324.082	1148.961
-46.115	32.817	1306.941	1113.128
-45.100	32.659	1302.261	1108.169
-44.086	32.516	1299.593	1105.017
-43.071	32.459	1297.507	1102.866
-42.057	32.472	1295.454	1101.152
-41.042	32.497	1293.799	1099.851
-40.027	32.541	1291.943	1098.485
-39.013	32.522	1290.266	1096.908
-37.998	32.396	1288.661	1094.761
-36.984	32.602	1286.500	1094.078
-35.969	32.575	1284.735	1092.381
-34.954	32.512	1283.013	1090.507
-33.940	32.559	1282.071	1089.933
-32.925	32.580	1280.680	1088.831
-31.911	32.667	1279.209	1088.039
-30.896	32.748	1277.152	1086.716
-29.881	32.625	1276.268	1085.207
-28.867	32.767	1274.380	1084.377
-27.852	32.707	1273.210	1082.994
-26.838	32.651	1272.113	1081.698
-25.823	32.845	1270.426	1081.334
-24.809	32.672	1269.300	1079.341
-23.794	32.715	1268.127	1078.545
-22.779	32.651	1266.703	1076.928
-21.765	32.753	1265.279	1076.254
-20.750	32.770	1263.898	1075.132
-19.736	32.604	1262.635	1073.071
-18.721	32.506	1261.636	1071.623
-17.706	32.503	1260.829	1070.877
-16.692	32.542	1259.343	1069.794
-15.677	32.610	1258.230	1069.191
-14.663	32.528	1257.474	1068.041
-13.648	32.520	1256.251	1066.916
-12.633	32.562	1255.086	1066.121
-11.619	32.476	1254.934	1065.463
-10.604	32.496	1253.833	1064.601
-9.590	32.442	1252.751	1063.331
-8.575	32.394	1251.882	1062.282
-7.560	32.427	1250.971	1061.655
-6.546	32.465	1250.156	1061.133
-5.531	32.494	1248.876	1060.168
-4.517	32.581	1247.963	1059.842
-3.502	32.545	1247.096	1058.860
-2.487	32.578	1246.282	1058.311
-1.473	32.487	1242.126	1054.233
-0.458	30.545	1226.165	1029.898
0.556	27.253	1206.538	984.436
1.571	22.674	1209.675	961.990
2.586	21.369	1223.516	965.709
3.600	20.522	1211.867	951.792
4.615	15.516	1141.105	870.261
5.629	7.777	1068.651	777.238
6.644	4.362	1048.896	746.401
7.659	4.025	1046.625	743.101
8.673	3.980	1045.808	742.239
9.688	4.054	1044.715	741.754
10.702	4.318	1042.369	741.281
11.717	8.437	1048.037	765.004
12.731	16.345	1058.952	811.016
13.746	20.593	1063.855	835.148
14.761	20.856	1064.124	836.548
15.775	20.010	1062.288	830.971
16.790	19.093	1059.720	824.498
17.804	18.298	1058.610	819.757
18.819	18.072	1057.410	817.676
19.834	17.919	1056.372	816.069
20.848	17.734	1056.008	814.831
21.863	17.554	1055.220	813.292
22.877	17.452	1054.654	812.298
23.892	17.432	1053.783	811.460
24.907	17.355	1052.949	810.378
25.921	17.380	1051.808	809.545
26.936	17.291	1050.799	808.278
27.950	17.358	1049.538	807.551
28.965	17.453	1048.066	806.799
29.980	17.584	1046.498	806.141
30.994	17.584	1045.822	805.547
32.009	17.765	1044.533	805.338
33.023	17.701	1043.636	804.275
34.038	17.629	1042.523	803.006
35.053	17.462	1041.484	801.348
36.067	17.561	1040.576	801.045
37.082	17.488	1040.296	800.415
38.096	17.735	1039.305	800.742
39.111	17.822	1038.415	800.393
40.126	17.473	1037.078	797.656
41.140	17.240	1035.760	795.484
42.155	17.184	1034.701	794.338
43.169	17.196	1033.882	793.693
44.184	17.030	1033.193	792.321
45.199	17.226	1031.384	791.774
46.213	17.371	1030.526	791.722
47.228	17.415	1030.075	791.510
48.242	17.585	1029.424	791.729
49.257	17.530	1027.654	790.042
50.271	17.444	1027.585	789.519
51.286	17.567	1026.335	789.058
52.301	17.553	1025.659	788.408
53.315	17.490	1023.893	786.686
54.330	17.497	1022.713	785.744
55.344	17.269	1022.592	784.528
56.359	17.353	1021.549	784.048
57.374	17.409	1020.489	783.421
58.388	17.110	1019.962	781.573
59.403	17.123	1018.714	780.608
60.417	17.079	1018.511	780.180
61.432	17.146	1017.285	779.477
62.447	17.044	1016.544	778.376
63.461	17.003	1015.697	777.468
64.476	16.996	1014.465	776.425
65.490	16.932	1014.226	775.881
66.505	16.921	1013.490	775.198
67.520	17.084	1012.348	775.002
68.534	17.010	1012.067	774.382
69.549	16.968	1011.315	773.542
70.563	16.813	1010.591	772.217
71.578	16.987	1008.889	771.637
72.593	16.886	1008.449	770.776
73.607	16.826	1007.856	769.982
74.622	16.930	1007.472	770.089
75.636	16.939	1006.723	769.492
76.651	16.970	1005.778	768.841
77.666	16.881	1005.565	768.206
78.680	17.038	1004.877	768.326
79.695	16.902	1004.627	767.448
80.709	17.123	1003.702	767.676
81.724	17.113	1003.074	767.082
82.739	17.268	1002.131	766.990
83.753	17.495	1001.780	767.679
84.768	17.694	1000.673	767.660
85.782	17.762	1000.220	767.548
86.797	17.713	999.293	766.548
87.812	17.534	998.221	764.857
88.826	17.608	997.290	764.409
89.841	17.694	996.347	764.000
90.855	17.701	995.575	763.373
91.870	17.649	994.625	762.343
92.884	17.824	993.539	762.227
93.899	17.713	992.399	760.789
94.914	17.901	991.847	761.137
95.928	17.877	990.637	760.037
96.943	17.726	990.058	758.853
97.957	17.603	989.741	757.995
98.972	17.648	988.219	756.960
99.987	17.621	987.977	756.588
101.001	17.705	986.571	755.820
102.016	17.670	985.854	755.045
103.030	17.662	985.191	754.435
104.045	17.686	984.324	753.812
105.060	17.517	983.697	752.517
106.074	17.348	981.893	750.328
107.089	17.210	981.106	749.051
108.103	17.197	979.849	747.967
109.118	17.226	979.305	747.615
110.133	16.917	979.138	746.060
111.147	17.003	978.098	745.579
112.162	16.983	977.091	744.657
113.176	17.218	976.261	744.990
114.191	17.314	975.929	745.093
115.206	17.304	974.639	743.996
116.220	17.256	973.909	743.164
117.235	17.234	973.368	742.589
118.249	17.117	972.836	741.609
119.264	17.132	971.647	740.699
120.279	17.007	971.110	739.682
121.293	17.161	969.599	739.136
122.308	16.924	968.787	737.420
123.322	16.934	967.781	736.634
124.337	16.951	967.013	736.057
125.352	16.912	965.856	734.940
126.366	17.037	964.539	734.415
127.381	16.927	963.769	733.287
128.395	16.996	963.206	733.091
129.410	17.026	962.326	732.487
130.424	17.211	961.233	732.387
131.439	17.184	960.706	731.808
132.454	17.276	960.011	731.606
133.468	17.413	958.552	731.020
134.483	17.307	958.280	730.292
135.497	17.328	957.203	729.497
136.512	17.425	956.172	729.063
137.527	17.329	956.023	728.471
138.541	17.316	955.113	727.659
139.556	17.362	954.429	727.270
140.570	17.407	954.300	727.300
141.585	17.663	953.240	727.524
142.600	17.670	952.372	726.825
143.614	17.880	951.681	727.127
144.629	17.720	951.037	725.890
145.643	17.719	949.835	724.904
146.658	17.549	948.724	723.272
147.673	17.476	947.356	721.853
148.687	17.427	946.711	721.091
149.702	17.344	945.828	720.002
150.716	17.330	944.932	719.197
151.731	17.221	944.815	718.583
152.746	17.342	944.027	718.434
153.760	17.332	943.646	718.036
154.775	17.504	942.687	717.971
155.789	17.565	942.170	717.769
156.804	17.577	941.460	717.217
157.819	17.711	940.886	717.280
158.833	17.813	940.119	717.060
159.848	17.860	939.193	716.485
160.862	17.718	938.617	715.388
161.877	17.570	936.885	713.385
162.892	17.396	935.957	711.889
163.906	17.452	934.759	711.149
164.921	17.402	934.112	710.383
165.935	17.481	933.274	710.011
166.950	17.542	932.732	709.793
167.964	17.624	931.565	709.182
168.979	17.347	931.003	707.539
169.994	17.424	930.105	707.115
171.008	17.654	929.492	707.540
172.023	17.807	928.960	707.709
173.037	17.842	928.496	707.435
174.052	17.652	927.683	705.965
175.067	17.511	926.641	704.527
176.081	17.412	926.057	703.611
177.096	17.352	925.855	703.149
178.110	17.557	925.236	703.466
179.125	17.549	924.893	703.106
180.140	17.502	924.436	702.504
181.154	17.562	924.225	702.529
182.169	17.818	923.373	702.874
183.183	17.753	923.253	702.453
184.198	17.780	922.576	701.985
185.213	17.801	921.699	701.342
186.227	17.889	920.687	700.874
187.242	17.978	920.284	700.868
188.256	18.050	919.630	700.602
189.271	18.038	918.715	699.796
190.286	17.636	918.140	697.652
191.300	17.522	916.473	695.858
192.315	17.332	915.976	694.643
193.329	17.513	915.449	694.917
194.344	17.568	915.363	695.017
195.359	17.649	914.661	694.754
196.373	17.847	914.030	695.018
197.388	17.984	913.637	695.215
198.402	17.941	913.565	694.923
199.417	18.185	912.431	694.990
200.432	18.273	912.495	695.337
201.446	18.278	912.130	695.016
202.461	18.335	911.378	694.612
203.475	18.360	910.499	693.985
204.490	18.177	909.329	692.291
205.504	17.909	908.947	690.852
206.519	17.927	908.163	690.269
207.534	17.877	907.703	689.657
208.548	18.053	906.815	689.630
209.563	18.117	905.990	689.200
210.577	18.103	905.607	688.790
211.592	18.282	904.933	688.938
212.607	18.381	904.149	688.678
213.621	18.192	903.689	687.508
214.636	18.249	903.072	687.209
215.650	18.365	902.419	687.117
216.665	18.339	901.823	686.497
217.680	18.326	901.012	685.766
218.694	18.439	900.167	685.514
219.709	18.328	899.836	684.758
220.723	18.281	899.056	683.917
221.738	18.327	898.496	683.612
222.753	18.316	897.990	683.123
223.767	18.505	897.497	683.440
224.782	18.588	896.735	683.132
225.796	18.415	896.217	681.986
226.811	18.407	895.506	681.353
227.826	18.420	894.906	680.890
228.840	18.382	893.827	679.857
229.855	18.426	892.986	679.332
230.869	18.429	892.264	678.733
231.884	18.212	891.641	677.343
232.899	18.240	890.964	676.877
233.913	18.164	890.310	676.020
234.928	18.036	889.765	675.043
235.942	18.075	889.553	674.977
236.957	18.038	888.451	673.934
237.972	18.241	887.884	674.243
238.986	18.201	887.234	673.532
240.001	18.208	886.988	673.315
241.015	18.204	886.344	672.749
242.030	18.368	885.727	672.866
243.045	18.359	885.303	672.450
244.059	18.412	884.760	672.186
245.074	18.313	884.360	671.435
246.088	18.406	883.715	671.248
247.103	18.637	883.125	671.645
248.117	18.620	882.679	671.180
249.132	18.925	882.469	672.154
250.147	18.992	881.560	671.663
251.161	19.189	880.512	671.575
252.176	19.098	880.452	671.113
253.190	19.080	879.879	670.547
254.205	18.975	879.673	669.922
255.220	19.054	878.694	669.424
256.234	19.127	877.880	669.031
257.249	19.111	877.262	668.436
258.263	19.040	876.547	667.557
259.278	19.158	875.871	667.443
260.293	19.145	875.339	666.927
261.307	19.303	875.005	667.225
262.322	19.321	874.445	666.810
263.336	19.351	873.075	665.823
264.351	19.377	872.408	665.352
265.366	19.491	872.387	665.720
266.380	19.289	871.660	664.326
267.395	19.127	870.776	662.971
268.409	19.170	869.794	662.328
269.424	19.146	869.342	661.836
270.439	19.264	868.452	661.552
271.453	19.082	868.120	660.542
272.468	19.127	867.371	660.085
273.482	19.172	866.529	659.559
274.497	19.108	866.075	658.910
275.512	19.125	865.673	658.608
276.526	19.189	864.920	658.223
277.541	19.296	864.737	658.435
278.555	19.284	864.485	658.138
279.570	19.373	863.482	657.656
280.585	19.460	862.932	657.511
281.599	19.301	862.025	656.156
282.614	19.253	861.116	655.222
283.628	19.295	860.824	655.102
284.643	19.298	860.135	654.532
285.657	19.418	859.404	654.374
286.672	19.395	859.153	654.036
287.687	19.246	858.633	653.019
288.701	19.288	857.877	652.544
289.716	19.293	857.344	652.102
290.730	19.347	856.598	651.679
291.745	19.381	855.986	651.284
292.760	19.504	855.526	651.341
293.774	19.598	854.778	651.071
294.789	19.398	854.158	649.786
295.803	19.438	853.145	649.109
296.818	19.390	852.730	648.554
297.833	19.455	851.923	648.127
298.847	19.433	851.526	647.687
299.862	19.444	851.266	647.472
300.876	19.597	850.574	647.462
301.891	19.524	850.456	647.041
302.906	19.694	850.259	647.469
303.920	19.779	849.459	647.122
304.935	19.936	848.972	647.282
305.949	19.827	848.371	646.357
306.964	19.604	847.514	644.815
307.979	19.553	847.280	644.391
308.993	19.810	846.381	644.610
310.008	19.858	845.696	644.206
311.022	19.701	845.229	643.211
312.037	19.684	844.667	642.664
313.052	19.544	843.873	641.481
314.066	19.340	843.563	640.430
315.081	19.267	843.042	639.710
316.095	19.419	842.447	639.766
317.110	19.461	841.649	639.255
318.125	19.597	841.033	639.238
319.139	19.427	840.859	638.419
320.154	19.542	840.347	638.399
321.168	19.612	839.882	638.247
322.183	19.648	839.481	638.021
323.197	19.598	839.244	637.596
324.212	19.651	838.208	636.948
325.227	19.639	837.619	636.401
326.241	19.505	836.982	635.369
327.256	19.560	836.677	635.284
328.270	19.502	836.330	634.749
329.285	19.582	835.284	634.194
330.300	19.626	834.295	633.549
331.314	19.673	834.216	633.605
332.329	19.736	833.733	633.414
333.343	19.788	833.731	633.544
334.358	19.862	833.282	633.419
335.373	19.817	832.897	632.907
336.387	20.142	832.043	633.388
337.402	20.008	832.455	633.156
338.416	20.091	832.387	633.353
339.431	20.218	831.762	633.283
340.446	20.223	831.175	632.798
341.460	20.218	831.251	632.783
342.475	20.238	830.825	632.475
343.489	20.388	830.139	632.442
344.504	20.435	829.663	632.194
345.519	20.489	829.020	631.845
346.533	20.458	828.462	631.252
347.548	20.148	828.241	629.900
348.562	20.110	827.423	629.086
349.577	19.950	826.733	627.925
350.592	20.002	825.690	627.264
351.606	19.890	825.128	626.378
352.621	20.017	824.669	626.432
353.635	20.060	824.240	626.207
354.650	20.243	823.529	626.274
355.665	20.062	823.440	625.498
356.679	20.203	822.408	625.166
357.694	20.388	821.598	625.161
358.708	20.258	821.303	624.414
359.723	20.143	820.653	623.450
360.738	20.244	820.186	623.404
361.752	20.416	819.592	623.513
362.767	20.419	819.087	623.084
363.781	20.651	818.460	623.386
364.796	20.625	818.221	623.056
365.810	20.816	817.974	623.496
366.825	20.735	817.548	622.826
367.840	20.747	817.120	622.488
368.854	20.650	816.288	621.451
369.869	20.537	816.068	620.826
370.883	20.586	815.902	620.819
371.898	20.679	815.516	620.802
372.913	20.686	815.161	620.502
373.927	20.725	814.140	619.809
374.942	20.718	813.717	619.406
375.956	20.818	813.524	619.560
376.971	20.938	813.263	619.733
377.986	20.893	812.649	619.051
379.000	21.204	811.559	619.270
380.015	21.087	811.010	618.383
381.029	20.956	810.694	617.620
382.044	21.159	810.194	617.907
383.059	20.979	809.725	616.856
384.073	20.935	809.251	616.287
385.088	20.699	808.612	614.909
386.102	20.637	808.095	614.245
387.117	20.694	807.351	613.825
388.132	20.686	807.053	613.515
389.146	20.578	806.752	612.850
390.161	20.863	805.995	613.227
391.175	20.963	805.467	613.121
392.190	20.823	805.159	612.342
393.205	20.725	804.420	611.379
394.219	20.753	803.737	610.904
395.234	20.667	804.090	610.817
396.248	20.564	803.003	609.578
397.263	20.480	802.913	609.159
398.278	20.625	801.973	608.900
399.292	20.607	801.887	608.719
400.307	20.568	801.252	608.045
401.321	20.523	800.896	607.566
402.336	20.686	800.207	607.558
403.350	20.776	799.874	607.565
404.365	20.925	799.683	607.887
405.380	21.097	799.103	607.990
406.394	21.072	798.949	607.731
407.409	21.152	798.463	607.588
408.423	21.426	798.042	608.168
409.438	21.402	797.578	607.674
410.453	21.110	797.674	606.680
411.467	21.288	797.014	606.743
412.482	21.381	796.898	606.923
413.496	21.473	796.340	606.766
414.511	21.356	796.378	606.332
415.526	21.388	795.459	605.692
416.540	21.487	794.682	605.389
417.555	21.462	794.348	604.994
418.569	21.376	794.167	604.504
419.584	21.290	793.848	603.911
420.599	21.354	793.447	603.775
421.613	161.199	1370.628	1794.060
422.628	139.736	1454.712	1794.174
