DTS Sentinel unit serial number:	SN413079Multiplexer serial number:	ORYXHardware model number:	OX4-SRSoftware version number:	ORYX F/W v4.00 Oryx Data Collector v3.7.2.0data status	okinstallation	princeton_trtdifferential loss correction	single-endedforward channel	channel 1reverse channel	N/Adate	2019/09/16time	07:58:35forward acquisition time	60.00reverse acquisition time	0.00gamma	496.2192k internal	0.2327k external	0.2327temperature offset calibration	0.9978default loss term (dB/km)	0.3790temperature slope calibration	1.0000multiplexer offset coefficient	1.0000multiplexer slope coefficient	1.0000fibre end	0.00T internal ref (°C)	28.41T ext. ref 1 (°C)	11.75T ext. ref 2 (°C)	24.72length (m)	temperature (°C)	Stokes	anti-Stokes-747.200	-200.000	0.072	0.520
-746.185	-99.937	-0.304	0.077
-745.171	-200.000	-0.005	0.242
-744.156	-57.845	-0.046	0.020
-743.142	119.726	-0.052	-0.064
-742.127	-117.365	-0.084	-0.015
-741.112	-200.000	0.015	0.170
-740.098	-20.962	-0.165	-0.102
-739.083	-132.907	-0.215	-0.028
-738.069	-200.000	-0.070	0.426
-737.054	-123.940	-0.411	-0.065
-736.039	-33.594	-0.280	0.156
-735.025	-1.565	0.297	0.211
-734.010	0.498	-0.343	-0.247
-732.996	277.478	-0.226	-0.406
-731.981	-100.944	-0.248	-0.061
-730.966	102.728	-0.018	0.022
-729.952	-9.381	-0.235	-0.158
-728.937	215.010	0.095	0.151
-727.923	46.591	-0.119	0.111
-726.908	-200.000	0.040	-0.581
-725.894	-21.766	-0.160	-0.098
-724.879	-27.786	0.111	-0.065
-723.864	-200.000	0.002	-0.187
-722.850	162.991	-0.127	0.179
-721.835	-91.647	0.034	-0.010
-720.821	45.542	-0.027	-0.025
-719.806	480.494	0.024	0.055
-718.791	322.211	-0.142	0.272
-717.777	-200.000	0.018	-0.326
-716.762	133.181	-0.122	-0.159
-715.748	150.824	-0.079	0.108
-714.733	-119.997	0.131	0.023
-713.718	-124.155	-0.128	-0.020
-712.704	150.595	-0.247	-0.338
-711.689	-20.100	0.040	0.025
-710.675	641.861	-0.110	-0.283
-709.660	-159.955	-0.219	-0.012
-708.645	-136.681	0.246	0.029
-707.631	-169.723	0.417	-0.015
-706.616	-20.227	-0.196	-0.122
-705.602	800.000	-0.045	-0.154
-704.587	800.000	0.048	0.171
-703.572	-200.000	-0.001	-0.011
-702.558	-130.416	-0.208	-0.028
-701.543	148.645	0.289	0.393
-700.529	311.481	-0.063	-0.118
-699.514	800.000	-0.020	-0.063
-698.499	-48.492	0.221	-0.107
-697.485	-93.509	-0.182	0.051
-696.470	8.774	-0.272	-0.206
-695.456	361.990	-0.063	-0.127
-694.441	-200.000	-0.034	-0.173
-693.426	508.117	-0.014	0.032
-692.412	-127.233	-0.307	-0.045
-691.397	-52.769	0.366	-0.170
-690.383	20.620	0.064	0.052
-689.368	312.158	-0.159	0.300
-688.354	-64.593	0.243	0.099
-687.339	-45.276	-0.391	0.195
-686.324	121.888	-0.110	-0.138
-685.310	-89.672	-0.317	0.093
-684.295	-128.992	-0.051	0.007
-683.281	-114.219	-0.050	-0.010
-682.266	170.676	-0.233	-0.335
-681.251	795.246	0.060	-0.165
-680.237	54.557	-0.154	0.149
-679.222	-200.000	0.024	-0.165
-678.208	165.561	0.063	-0.089
-677.193	141.798	0.282	-0.375
-676.178	-200.000	-0.023	0.259
-675.164	-121.477	-0.215	0.036
-674.149	188.089	-0.161	-0.241
-673.135	-40.426	-0.120	0.062
-672.120	20.174	-0.184	-0.149
-671.105	241.886	0.095	0.159
-670.091	-156.335	0.227	0.014
-669.076	800.000	0.028	-0.095
-668.062	240.416	0.024	-0.041
-667.047	-159.696	-0.144	0.008
-666.032	-120.806	-0.299	-0.051
-665.018	-59.258	0.288	-0.125
-664.003	503.805	0.079	-0.183
-662.989	800.000	0.097	-0.271
-661.974	800.000	-0.049	-0.138
-660.959	153.118	0.248	-0.341
-659.945	800.000	-0.040	-0.126
-658.930	-162.028	0.288	-0.015
-657.916	25.044	0.178	-0.148
-656.901	101.555	-0.198	-0.231
-655.886	747.292	-0.064	-0.172
-654.872	19.452	-0.073	0.059
-653.857	155.931	0.111	-0.154
-652.843	-132.523	0.229	0.030
-651.828	-117.328	-0.157	-0.029
-650.814	140.853	-0.121	0.160
-649.799	16.412	0.130	-0.103
-648.784	-90.385	0.285	-0.083
-647.770	121.433	-0.080	-0.100
-646.755	-70.025	-0.124	0.047
-645.741	336.745	0.094	0.183
-644.726	77.885	-0.028	0.030
-643.711	295.887	0.152	0.280
-642.697	548.311	0.008	0.019
-641.682	129.661	0.083	-0.107
-640.668	-200.000	0.001	-0.022
-639.653	800.000	0.138	0.470
-638.638	-126.784	0.163	0.024
-637.624	-200.000	0.010	0.248
-636.609	50.338	-0.124	0.118
-635.595	231.027	0.181	-0.298
-634.580	-200.000	0.006	0.094
-633.565	800.000	-0.081	-0.244
-632.551	-82.657	0.118	-0.038
-631.536	-200.000	-0.025	-0.358
-630.522	-127.038	-0.202	-0.030
-629.507	173.335	0.119	0.173
-628.492	140.319	0.206	-0.273
-627.478	-97.430	-0.299	-0.078
-626.463	-28.168	-0.416	-0.241
-625.449	179.172	0.209	-0.307
-624.434	184.415	0.122	0.181
-623.419	311.001	0.091	0.171
-622.405	-92.203	0.308	-0.087
-621.390	201.788	-0.013	0.021
-620.376	-189.592	0.053	-0.001
-619.361	-68.753	-0.145	-0.056
-618.346	800.000	0.081	-0.250
-617.332	-86.918	-0.180	0.055
-616.317	-200.000	0.022	-0.150
-615.303	-2.220	0.094	-0.066
-614.288	-197.223	-0.214	-0.001
-613.273	-149.883	0.105	-0.008
-612.259	258.371	0.128	0.221
-611.244	-200.000	-0.018	0.263
-610.230	-200.000	-0.020	-0.204
-609.215	741.610	-0.126	0.339
-608.201	-90.343	0.147	0.043
-607.186	88.832	0.227	-0.253
-606.171	450.219	0.070	0.155
-605.157	-103.648	-0.297	-0.070
-604.142	529.222	0.080	0.189
-603.128	-200.000	-0.027	-0.176
-602.113	-34.416	0.111	0.061
-601.098	-200.000	-0.105	-0.466
-600.084	-28.885	-0.384	-0.221
-599.069	15.419	-0.159	0.125
-598.055	-50.171	-0.175	-0.083
-597.040	232.015	0.077	0.126
-596.025	3.714	0.152	-0.111
-595.011	51.574	-0.130	-0.124
-593.996	-200.000	-0.015	0.138
-592.982	-72.634	0.543	0.201
-591.967	45.131	-0.079	0.073
-590.952	518.301	-0.092	-0.216
-589.938	94.060	0.102	-0.116
-588.923	-58.681	0.093	-0.040
-587.909	-67.857	0.269	-0.105
-586.894	-200.000	-0.035	-0.158
-585.879	58.145	0.309	-0.304
-584.865	83.472	-0.156	0.170
-583.850	-75.600	-0.128	0.046
-582.836	-106.150	-0.150	-0.034
-581.821	800.000	0.179	0.508
-580.806	-200.000	0.019	-0.208
-579.792	60.643	0.082	-0.082
-578.777	-7.521	0.180	-0.122
-577.763	122.615	0.218	-0.273
-576.748	54.237	0.112	-0.108
-575.733	-14.763	0.187	0.120
-574.719	398.807	0.132	-0.276
-573.704	-16.878	0.068	-0.043
-572.690	16.561	-0.225	-0.178
-571.675	62.845	0.194	0.194
-570.661	-52.437	0.106	-0.049
-569.646	-53.818	0.090	0.041
-568.631	800.000	0.030	-0.105
-567.617	11.319	0.303	-0.232
-566.602	-130.118	-0.233	-0.032
-565.588	710.764	-0.149	-0.394
-564.573	423.410	-0.074	0.158
-563.558	-2.353	-0.243	-0.171
-562.544	800.000	-0.154	0.479
-561.529	-177.260	-0.228	-0.006
-560.515	191.968	-0.126	0.190
-559.500	-35.283	0.207	-0.113
-558.485	-200.000	0.020	-0.090
-557.471	-151.338	-0.356	0.027
-556.456	800.000	0.087	0.295
-555.442	-200.000	-0.014	-0.207
-554.427	-22.251	-0.210	-0.127
-553.412	-155.763	-0.107	-0.007
-552.398	577.525	-0.103	0.251
-551.383	72.217	0.112	-0.117
-550.369	-158.541	0.181	0.010
-549.354	-200.000	0.005	0.122
-548.339	-67.197	0.293	-0.115
-547.325	-200.000	-0.017	0.168
-546.310	-161.265	-0.190	-0.010
-545.296	53.158	0.397	0.380
-544.281	571.408	-0.029	0.070
-543.266	-200.000	-0.009	0.185
-542.252	-200.000	0.002	0.070
-541.237	130.857	0.157	-0.201
-540.223	800.000	-0.063	-0.238
-539.208	284.184	-0.053	0.095
-538.193	-95.172	0.322	0.087
-537.179	800.000	-0.036	0.127
-536.164	510.823	0.111	0.258
-535.150	374.526	0.058	0.118
-534.135	437.767	0.034	0.073
-533.121	48.293	-0.251	-0.234
-532.106	401.351	-0.066	-0.139
-531.091	274.422	0.103	-0.182
-530.077	-145.435	-0.265	-0.024
-529.062	800.000	0.156	0.507
-528.048	72.418	0.129	0.135
-527.033	-56.221	-0.141	-0.063
-526.018	91.167	-0.147	-0.165
-525.004	-200.000	-0.021	-0.193
-523.989	58.624	-0.142	0.139
-522.975	574.892	-0.076	-0.185
-521.960	161.048	-0.129	0.180
-520.945	20.985	-0.138	0.112
-519.931	-69.438	-0.186	-0.071
-518.916	800.000	0.039	0.167
-517.902	639.214	0.093	-0.235
-516.887	48.853	0.170	0.160
-515.872	-17.736	0.091	-0.057
-514.858	196.963	0.238	-0.362
-513.843	231.094	0.146	-0.239
-512.829	-200.000	-0.041	0.212
-511.814	-200.000	-0.019	-0.114
-510.799	174.162	-0.024	0.035
-509.785	-44.960	-0.157	0.078
-508.770	-200.000	-0.001	-0.081
-507.756	-144.473	0.167	0.015
-506.741	158.842	-0.083	0.115
-505.726	-42.769	0.495	0.251
-504.712	378.191	0.105	0.214
-503.697	-200.000	0.018	0.172
-502.683	68.160	0.151	-0.154
-501.668	350.499	0.125	0.246
-500.653	54.403	0.189	0.181
-499.639	-2.173	-0.193	0.135
-498.624	477.358	0.107	-0.242
-497.610	-3.136	0.116	0.081
-496.595	-15.117	0.209	0.134
-495.581	-168.253	0.136	0.005
-494.566	-71.195	0.261	-0.098
-493.551	800.000	-0.010	-0.031
-492.537	248.021	-0.026	-0.044
-491.522	-48.459	0.119	0.057
-490.508	-200.000	0.017	0.375
-489.493	44.540	0.089	0.081
-488.478	-131.467	0.333	-0.044
-487.464	149.349	0.264	-0.357
-486.449	-200.000	-0.047	-0.322
-485.435	-99.770	-0.292	-0.073
-484.420	-25.372	-0.112	-0.066
-483.405	266.107	0.126	-0.220
-482.391	74.203	0.079	0.083
-481.376	-67.964	-0.211	-0.082
-480.362	17.048	0.100	0.079
-479.347	-89.162	0.188	-0.055
-478.332	300.105	0.205	0.377
-477.318	-93.491	-0.158	0.044
-476.303	363.991	-0.068	-0.136
-475.289	-21.112	-0.137	0.084
-474.274	-200.000	-0.015	-0.179
-473.259	800.000	-0.062	0.259
-472.245	-127.811	0.145	0.021
-471.230	-200.000	0.020	-0.236
-470.216	49.840	0.322	0.303
-469.201	154.404	-0.109	0.149
-468.186	-130.394	0.124	-0.017
-467.172	253.263	-0.046	0.079
-466.157	640.118	-0.110	-0.279
-465.143	-200.000	-0.013	-0.280
-464.128	800.000	-0.065	0.229
-463.113	750.815	-0.087	-0.234
-462.099	114.934	-0.087	-0.106
-461.084	682.359	0.094	-0.245
-460.070	-200.000	0.016	0.135
-459.055	-123.400	0.167	-0.027
-458.040	60.451	-0.393	-0.388
-457.026	296.555	-0.203	-0.370
-456.011	-30.446	0.128	0.072
-454.997	-200.000	-0.072	-0.408
-453.982	-130.675	0.187	0.025
-452.968	163.539	-0.110	0.154
-451.953	251.191	-0.028	0.047
-450.938	-43.294	-0.125	-0.063
-449.924	-11.235	-0.133	0.087
-448.909	-9.743	0.133	-0.088
-447.895	-81.035	0.055	0.018
-446.880	-99.876	-0.108	0.027
-445.865	-9.227	0.368	0.245
-444.851	-200.000	0.022	-0.139
-443.836	-89.881	-0.108	-0.031
-442.822	-9.170	0.250	-0.167
-441.807	516.083	-0.112	0.260
-440.792	93.311	-0.109	0.123
-439.778	547.306	-0.112	0.267
-438.763	18.429	-0.105	-0.084
-437.749	247.414	-0.072	-0.121
-436.734	710.882	-0.092	-0.243
-435.719	94.163	-0.043	-0.048
-434.705	-176.805	-0.244	-0.006
-433.690	-52.579	0.171	-0.079
-432.676	125.577	-0.223	0.280
-431.661	41.859	0.110	-0.100
-430.646	800.000	-0.036	-0.147
-429.632	800.000	-0.037	0.147
-428.617	-99.182	0.324	-0.082
-427.603	182.577	-0.087	-0.127
-426.588	83.797	-0.189	0.206
-425.573	-200.000	0.015	-0.110
-424.559	245.810	-0.075	-0.125
-423.544	-200.000	0.063	-0.290
-422.530	219.139	-0.155	-0.247
-421.515	611.848	0.220	-0.548
-420.500	-15.532	-0.299	0.190
-419.486	-200.000	-0.023	0.350
-418.471	-31.178	0.211	-0.118
-417.457	559.225	0.124	0.297
-416.442	35.521	-0.109	-0.095
-415.428	-200.000	0.048	-0.312
-414.413	-102.053	0.089	-0.021
-413.398	-42.675	0.097	0.049
-412.384	-91.395	0.129	-0.037
-411.369	-200.000	-0.022	-0.168
-410.355	-84.138	-0.211	0.067
-409.340	420.362	0.100	-0.213
-408.325	-68.623	0.151	-0.058
-407.311	-149.599	-0.315	0.025
-406.296	-8.641	0.173	-0.115
-405.282	71.373	0.200	-0.207
-404.267	-104.101	0.099	-0.023
-403.252	-200.000	-0.018	0.201
-402.238	-6.562	-0.297	-0.201
-401.223	341.254	0.109	-0.212
-400.209	185.486	-0.282	0.416
-399.194	-58.019	-0.142	0.062
-398.179	800.000	0.034	-0.109
-397.165	42.788	0.413	-0.374
-396.150	-200.000	0.008	0.309
-395.136	-200.000	-0.030	0.230
-394.121	-11.242	0.236	0.154
-393.106	238.647	-0.176	-0.292
-392.092	25.454	0.367	0.303
-391.077	28.663	-0.085	0.072
-390.063	442.763	0.069	-0.150
-389.048	-80.887	-0.309	-0.102
-388.033	349.243	-0.110	-0.216
-387.019	-200.000	0.008	-0.065
-386.004	206.138	-0.176	-0.272
-384.990	800.000	0.015	-0.061
-383.975	-121.705	-0.161	-0.027
-382.960	800.000	-0.040	-0.121
-381.946	-3.648	0.243	0.168
-380.931	-63.963	-0.175	0.071
-379.917	203.285	0.139	0.214
-378.902	-69.029	0.020	0.008
-377.888	210.806	0.035	0.055
-376.873	-200.000	-0.026	-0.185
-375.858	800.000	0.096	-0.369
-374.844	-200.000	-0.067	0.316
-373.829	-126.649	0.061	-0.009
-372.815	-200.000	0.008	-0.389
-371.800	-79.988	0.529	0.176
-370.785	-125.486	0.101	0.015
-369.771	-82.021	0.347	0.113
-368.756	-200.000	0.013	-0.160
-367.742	200.952	-0.140	0.214
-366.727	-29.629	-0.183	0.104
-365.712	-200.000	0.003	-0.317
-364.698	144.379	0.066	-0.088
-363.683	-70.720	-0.199	0.075
-362.669	800.000	-0.031	0.096
-361.654	-138.728	-0.194	-0.021
-360.639	-61.912	0.215	-0.089
-359.625	800.000	-0.114	-0.394
-358.610	-15.020	0.277	0.176
-357.596	239.732	0.053	0.088
-356.581	-12.660	-0.064	-0.042
-355.566	-7.292	-0.174	0.117
-354.552	-62.207	-0.078	0.032
-353.537	219.512	0.125	0.199
-352.523	153.254	0.118	0.160
-351.508	-200.000	-0.003	0.170
-350.493	-95.722	-0.385	0.102
-349.479	800.000	-0.036	-0.134
-348.464	309.099	-0.093	0.172
-347.450	-41.298	0.051	0.026
-346.435	800.000	0.053	0.209
-345.420	-68.418	0.064	0.025
-344.406	439.147	-0.051	-0.112
-343.391	112.618	-0.125	0.150
-342.377	-121.067	-0.074	-0.012
-341.362	-200.000	-0.019	-0.204
-340.348	-15.080	0.219	-0.139
-339.333	-200.000	-0.015	0.078
-338.318	-10.558	0.247	0.162
-337.304	639.487	0.144	-0.365
-336.289	14.046	0.070	0.054
-335.275	43.211	-0.139	-0.126
-334.260	21.107	0.056	-0.045
-333.245	97.736	-0.044	-0.050
-332.231	-16.596	-0.102	-0.064
-331.216	-131.601	-0.585	0.076
-330.202	338.739	0.103	-0.199
-329.187	800.000	-0.030	0.117
-328.172	-133.175	0.207	-0.026
-327.158	-89.332	-0.060	0.018
-326.143	-116.375	0.425	-0.078
-325.129	-200.000	0.001	-0.094
-324.114	-18.977	-0.235	0.145
-323.099	-99.826	-0.150	-0.037
-322.085	30.866	0.076	-0.065
-321.070	-121.731	-0.260	-0.043
-320.056	28.753	-0.173	0.145
-319.041	-110.387	-0.103	-0.021
-318.026	318.827	0.117	0.220
-317.012	-4.897	-0.057	0.039
-315.997	19.234	0.195	-0.155
-314.983	188.511	0.169	-0.251
-313.968	-111.343	-0.187	0.038
-312.953	-48.815	-0.233	-0.111
-311.939	-68.777	-0.227	0.087
-310.924	297.889	-0.019	0.035
-309.910	722.979	-0.095	-0.249
-308.895	80.078	0.283	0.302
-307.880	259.439	-0.112	0.192
-306.866	110.085	0.163	-0.194
-305.851	-200.000	-0.039	-0.243
-304.837	191.781	-0.164	0.245
-303.822	800.000	-0.070	0.212
-302.807	250.125	-0.066	0.111
-301.793	309.148	-0.035	0.064
-300.778	55.543	0.205	-0.197
-299.764	-136.501	-0.167	-0.019
-298.749	-96.929	-0.202	0.052
-297.735	27.893	-0.372	-0.311
-296.720	-91.563	0.235	-0.066
-295.705	34.081	0.117	-0.101
-294.691	-200.000	0.016	-0.078
-293.676	-53.979	0.188	0.085
-292.662	-146.772	-0.343	0.029
-291.647	23.460	0.110	0.090
-290.632	179.195	0.064	-0.093
-289.618	-119.730	0.355	-0.061
-288.603	-86.966	0.498	0.150
-287.589	800.000	0.080	0.319
-286.574	-75.241	0.396	-0.140
-285.559	-80.673	-0.128	0.042
-284.545	190.641	-0.115	-0.171
-283.530	800.000	-0.054	-0.149
-282.516	-11.946	-0.200	0.130
-281.501	-200.000	0.062	0.302
-280.486	82.347	0.038	-0.040
-279.472	-200.000	-0.044	0.194
-278.457	-200.000	-0.007	0.084
-277.443	-39.526	-0.492	0.255
-276.428	-200.000	0.003	-0.064
-275.413	267.237	0.029	-0.050
-274.399	6.275	0.105	0.077
-273.384	4.185	-0.118	0.085
-272.370	432.764	-0.116	-0.250
-271.355	271.535	-0.073	0.128
-270.340	-57.773	0.248	0.108
-269.326	-200.000	0.045	0.237
-268.311	373.797	0.029	0.059
-267.297	800.000	-0.034	-0.116
-266.282	800.000	-0.023	0.082
-265.267	195.717	0.089	-0.134
-264.253	3.451	-0.301	0.217
-263.238	-8.796	0.409	-0.272
-262.224	144.152	-0.112	0.148
-261.209	15.334	-0.110	-0.086
-260.195	-113.707	0.455	-0.088
-259.180	-144.075	-0.215	-0.020
-258.165	800.000	-0.038	0.110
-257.151	-200.000	0.003	0.020
-256.136	284.276	0.093	-0.165
-255.122	-200.000	0.034	0.150
-254.107	-18.220	-0.176	-0.109
-253.092	176.318	-0.184	0.265
-252.078	-24.443	0.330	0.195
-251.063	-172.372	-0.585	-0.018
-250.049	-63.259	0.267	-0.109
-249.034	70.932	-0.192	-0.197
-248.019	83.232	-0.166	-0.179
-247.005	212.121	-0.119	0.186
-245.990	800.000	-0.038	-0.112
-244.976	70.586	0.261	-0.267
-243.961	10.278	-0.070	-0.053
-242.946	-56.275	-0.328	0.144
-241.932	91.910	-0.134	0.149
-240.917	-138.958	-0.370	-0.040
-239.903	-71.287	-0.087	0.032
-238.888	90.250	-0.199	-0.220
-237.873	-200.000	0.056	0.399
-236.859	-15.539	0.031	-0.019
-235.844	41.717	-0.174	0.156
-234.830	-200.000	0.003	-0.149
-233.815	-103.370	-0.368	0.086
-232.800	-89.739	-0.132	-0.038
-231.786	55.819	-0.172	0.165
-230.771	258.687	0.053	0.090
-229.757	-200.000	0.018	0.193
-228.742	-200.000	-0.024	0.132
-227.727	-71.262	0.604	0.224
-226.713	75.573	0.171	-0.179
-225.698	-25.164	-0.023	-0.013
-224.684	41.091	0.133	0.119
-223.669	216.245	0.074	-0.116
-222.655	-127.474	-0.206	-0.030
-221.640	-152.944	0.472	-0.033
-220.625	131.389	-0.168	0.213
-219.611	-10.573	-0.070	0.046
-218.596	-62.511	0.098	-0.040
-217.582	154.708	0.060	-0.081
-216.567	185.530	0.218	-0.320
-215.552	-99.074	-0.091	-0.023
-214.538	-200.000	0.018	-0.122
-213.523	800.000	-0.106	0.304
-212.509	800.000	0.029	-0.088
-211.494	800.000	0.069	0.294
-210.479	17.980	-0.150	-0.118
-209.465	-51.957	-0.461	-0.212
-208.450	172.515	-0.115	0.164
-207.436	-200.000	-0.005	0.067
-206.421	-133.427	-0.342	-0.042
-205.406	-86.518	-0.356	0.108
-204.392	-128.640	-0.233	-0.033
-203.377	285.051	0.139	0.248
-202.363	117.062	0.134	0.162
-201.348	-51.532	-0.385	0.177
-200.333	36.412	0.126	-0.110
-199.319	-200.000	0.008	-0.133
-198.304	19.028	-0.333	0.264
-197.290	124.908	-0.149	0.185
-196.275	115.043	-0.092	0.111
-195.260	484.715	0.153	0.345
-194.246	-10.679	0.036	-0.023
-193.231	-51.188	0.204	-0.094
-192.217	800.000	0.027	0.105
-191.202	-136.893	-0.253	0.029
-190.187	-5.824	-0.181	-0.123
-189.173	-35.006	0.328	0.176
-188.158	132.730	0.149	-0.189
-187.144	-47.478	0.396	-0.190
-186.129	287.587	-0.141	0.252
-185.114	-112.038	0.234	-0.046
-184.100	-158.280	0.068	-0.004
-183.085	-49.430	0.225	0.106
-182.071	286.371	0.052	0.092
-181.056	10.219	-0.206	0.154
-180.042	135.755	0.179	0.230
-179.027	744.207	0.047	-0.125
-178.012	800.000	0.047	0.186
-176.998	319.350	-0.040	-0.074
-175.983	383.540	-0.212	-0.431
-174.969	-145.119	-0.224	0.020
-173.954	-200.000	-0.013	0.208
-172.939	-200.000	-0.044	-0.236
-171.925	29.074	0.119	0.100
-170.910	220.224	-0.128	-0.202
-169.896	153.441	-0.139	0.187
-168.881	-200.000	-0.017	0.074
-167.866	-85.672	-0.233	-0.071
-166.852	-12.962	0.093	0.060
-165.837	-92.306	-0.099	-0.027
-164.823	420.571	0.069	0.145
-163.808	-200.000	-0.046	-0.282
-162.793	53.456	0.188	0.177
-161.779	10.973	-0.318	0.239
-160.764	150.135	-0.145	0.194
-159.750	-116.497	-0.092	0.017
-158.735	493.341	0.122	0.275
-157.720	0.521	-0.038	-0.027
-156.706	324.391	-0.141	-0.266
-155.691	-96.148	-0.178	0.047
-154.677	-168.385	0.084	0.003
-153.662	-187.820	0.129	-0.002
-152.647	172.157	0.078	-0.111
-151.633	333.421	-0.198	0.378
-150.618	1.692	0.065	0.046
-149.604	126.874	0.042	-0.052
-148.589	-22.667	0.296	0.176
-147.574	-9.531	-0.076	-0.050
-146.560	800.000	0.061	0.174
-145.545	380.953	0.202	0.407
-144.531	-176.920	-0.195	-0.005
-143.516	-184.992	0.199	0.003
-142.502	430.581	-0.098	0.210
-141.487	144.429	0.199	0.261
-140.472	95.619	0.219	0.245
-139.458	464.946	0.141	0.310
-138.443	-113.073	-0.201	0.039
-137.429	-85.388	-0.210	-0.065
-136.414	-134.594	-0.162	0.020
-135.399	-53.888	0.098	-0.044
-134.385	318.579	0.179	0.334
-133.370	73.527	0.125	-0.129
-132.356	-55.771	0.168	-0.074
-131.341	800.000	-0.107	-0.367
-130.326	-200.000	-0.008	-0.046
-129.312	298.978	0.078	-0.140
-128.297	-46.828	0.130	-0.063
-127.283	-200.000	0.016	-0.206
-126.268	-64.105	-0.035	-0.014
-125.253	-200.000	0.029	0.208
-124.239	147.140	-0.128	0.170
-123.224	128.140	-0.134	0.168
-122.210	497.051	-0.089	-0.201
-121.195	-2.850	-0.330	0.227
-120.180	405.663	-0.060	-0.124
-119.166	206.358	0.178	-0.272
-118.151	800.000	0.043	0.186
-117.137	800.000	-0.041	-0.157
-116.122	16.206	0.182	0.141
-115.107	-141.033	-0.274	-0.028
-114.093	800.000	0.034	-0.136
-113.078	-177.327	0.091	0.002
-112.064	82.744	0.094	0.100
-111.049	292.263	-0.074	0.133
-110.034	-140.835	-0.205	-0.021
-109.020	61.847	-0.251	-0.246
-108.005	457.304	0.097	-0.213
-106.991	439.880	-0.016	-0.034
-105.976	-19.163	0.190	0.116
-104.962	249.271	-0.172	0.287
-103.947	472.844	0.046	0.102
-102.932	66.162	-0.138	0.138
-101.918	-32.792	0.378	0.206
-100.903	-130.082	-0.217	0.029
-99.889	-167.138	0.213	0.009
-98.874	36.648	0.037	0.032
-97.859	471.240	-0.051	0.112
-96.845	-156.197	-0.176	-0.011
-95.830	-111.801	-0.408	-0.081
-94.816	318.205	-0.046	0.086
-93.801	-200.000	0.006	-0.319
-92.786	-32.664	-0.152	0.083
-91.772	12.140	0.100	0.076
-90.757	-51.547	0.156	0.072
-89.743	53.400	0.054	-0.051
-88.728	-3.823	-0.138	0.094
-87.713	800.000	0.092	-0.345
-86.699	236.179	0.167	0.271
-85.684	14.103	0.108	-0.082
-84.670	31.098	0.257	0.217
-83.655	-200.000	0.016	-0.072
-82.640	152.635	-0.271	-0.363
-81.626	-200.000	-0.001	0.318
-80.611	-200.000	-0.016	-0.242
-79.597	-3.411	0.047	-0.032
-78.582	193.772	-0.162	0.240
-77.567	132.201	0.022	-0.028
-76.553	800.000	0.072	-0.217
-75.538	-101.234	0.117	0.028
-74.524	-90.671	0.101	0.029
-73.509	176.605	-0.211	-0.302
-72.494	584.529	0.043	-0.103
-71.480	-200.000	-0.183	-0.001
-70.465	294.319	-0.161	0.290
-69.451	-3.284	-0.308	-0.211
-68.436	321.927	0.124	-0.231
-67.422	-99.935	-0.183	-0.045
-66.407	-74.674	0.239	-0.084
-65.392	326.747	-0.056	-0.105
-64.378	225.869	0.127	0.203
-63.363	-21.997	-0.176	0.105
-62.349	149.544	0.197	-0.262
-61.334	96.504	-0.932	-1.048
-60.319	28.009	0.742	0.614
-59.305	127.657	-0.496	-0.619
-58.290	227.477	0.802	1.280
-57.276	779.353	0.676	1.815
-56.261	-200.000	109.362	586.399
-55.246	428.923	1510.962	3204.389
-54.232	143.410	2694.048	3519.575
-53.217	103.346	2169.559	2496.820
-52.203	39.783	1612.616	1419.920
-51.188	31.875	1353.446	1143.674
-50.173	28.734	1313.831	1091.526
-49.159	52.193	1369.450	1280.842
-48.144	52.235	1384.716	1295.324
-47.130	31.945	1338.694	1131.450
-46.115	28.523	1321.083	1096.115
-45.100	28.361	1316.581	1091.368
-44.086	28.218	1314.255	1088.549
-43.071	28.173	1311.969	1086.341
-42.057	28.267	1309.533	1084.842
-41.042	28.215	1307.789	1083.044
-40.027	28.336	1306.706	1082.822
-39.013	28.317	1304.508	1080.844
-37.998	28.352	1302.739	1079.542
-36.984	28.353	1300.613	1077.745
-35.969	28.507	1298.603	1076.936
-34.954	28.417	1297.100	1075.124
-33.940	28.399	1295.986	1074.050
-32.925	28.517	1294.518	1073.480
-31.911	28.452	1292.957	1071.766
-30.896	28.411	1291.944	1070.646
-29.881	28.559	1290.305	1070.106
-28.867	28.611	1288.619	1068.966
-27.852	28.524	1287.375	1067.391
-26.838	28.501	1286.077	1066.134
-25.823	28.514	1284.540	1064.893
-24.809	28.439	1283.480	1063.537
-23.794	28.609	1281.672	1062.981
-22.779	28.432	1280.970	1061.331
-21.765	28.492	1279.567	1060.474
-20.750	28.443	1278.343	1059.137
-19.736	28.399	1277.071	1057.789
-18.721	28.395	1275.457	1056.383
-17.706	28.316	1274.728	1055.281
-16.692	28.385	1273.348	1054.495
-15.677	28.280	1272.405	1053.072
-14.663	28.374	1271.382	1052.719
-13.648	28.352	1270.046	1051.445
-12.633	28.330	1269.163	1050.547
-11.619	28.345	1268.694	1050.204
-10.604	28.350	1267.705	1049.375
-9.590	28.352	1266.550	1048.388
-8.575	28.359	1265.867	1047.821
-7.560	28.280	1264.858	1046.494
-6.546	28.344	1263.985	1046.092
-5.531	28.328	1263.170	1045.286
-4.517	28.335	1262.317	1044.580
-3.502	28.544	1260.995	1044.636
-2.487	28.287	1260.595	1042.796
-1.473	28.483	1255.805	1039.908
-0.458	27.082	1242.316	1020.828
0.556	22.833	1226.388	987.754
1.571	19.686	1233.130	975.366
2.586	18.797	1248.954	982.707
3.600	18.886	1237.774	974.333
4.615	17.236	1170.391	912.358
5.629	13.491	1103.341	841.023
6.644	11.895	1086.038	819.778
7.659	11.767	1084.137	817.629
8.673	11.749	1082.855	816.500
9.688	11.590	1081.539	814.641
10.702	11.829	1079.388	814.138
11.717	13.997	1081.854	826.725
12.731	16.991	1085.738	844.550
13.746	18.232	1085.982	850.838
14.761	17.587	1085.503	847.178
15.775	16.589	1083.170	840.331
16.790	15.716	1080.908	834.174
17.804	14.881	1079.396	828.796
18.819	14.454	1078.201	825.691
19.834	14.101	1077.075	823.005
20.848	13.897	1076.372	821.385
21.863	13.682	1075.137	819.309
22.877	13.459	1074.583	817.712
23.892	13.419	1073.903	816.926
24.907	13.510	1073.001	816.614
25.921	13.564	1071.874	815.954
26.936	13.539	1070.694	814.859
27.950	13.656	1069.278	814.282
28.965	13.632	1067.580	812.801
29.980	13.700	1066.320	812.105
30.994	13.720	1065.495	811.501
32.009	13.847	1064.317	811.151
33.023	13.779	1063.089	809.811
34.038	13.683	1062.051	808.485
35.053	13.702	1061.239	807.888
36.067	13.717	1061.021	807.721
37.082	13.614	1060.279	806.584
38.096	13.632	1059.238	805.810
39.111	13.804	1057.903	805.556
40.126	13.670	1056.795	803.990
41.140	13.506	1055.987	802.513
42.155	13.437	1054.749	801.164
43.169	13.470	1053.870	800.587
44.184	13.476	1052.550	799.539
45.199	13.560	1051.257	798.895
46.213	13.553	1050.313	798.073
47.228	13.592	1049.591	797.642
48.242	13.816	1047.654	797.176
49.257	13.500	1047.617	795.555
50.271	13.637	1046.422	795.239
51.286	13.641	1045.765	794.688
52.301	13.638	1044.814	793.879
53.315	13.673	1043.229	792.773
54.330	13.454	1042.598	791.176
55.344	13.602	1041.455	790.942
56.359	13.462	1040.779	789.693
57.374	13.446	1040.175	789.090
58.388	13.418	1039.322	788.238
59.403	13.360	1038.562	787.316
60.417	13.421	1037.565	786.782
61.432	13.524	1036.247	786.199
62.447	13.340	1036.107	785.150
63.461	13.402	1034.738	784.340
64.476	13.422	1034.121	783.899
65.490	13.314	1033.141	782.575
66.505	13.467	1032.430	782.687
67.520	13.408	1031.962	781.985
68.534	13.462	1030.982	781.428
69.549	13.381	1030.438	780.566
70.563	13.414	1029.601	780.018
71.578	13.364	1028.373	778.781
72.593	13.228	1027.806	777.645
73.607	13.256	1027.489	777.468
74.622	13.361	1026.377	777.052
75.636	13.353	1025.861	776.556
76.651	13.374	1024.933	775.880
77.666	13.145	1024.724	774.583
78.680	13.305	1023.927	774.661
79.695	13.435	1023.161	774.620
80.709	13.429	1022.256	773.839
81.724	13.514	1021.881	773.885
82.739	13.510	1021.156	773.246
83.753	13.642	1020.346	773.183
84.768	13.703	1019.213	772.539
85.782	13.658	1018.494	771.715
86.797	13.717	1017.365	771.067
87.812	13.676	1016.717	770.316
88.826	13.551	1016.023	769.144
89.841	13.576	1014.883	768.327
90.855	13.664	1014.024	768.018
91.870	13.781	1013.131	767.813
92.884	13.783	1012.127	766.992
93.899	13.746	1011.234	766.079
94.914	13.826	1010.772	766.030
95.928	13.856	1009.860	765.408
96.943	13.737	1009.183	764.279
97.957	13.663	1008.196	763.126
98.972	13.625	1007.686	762.495
99.987	13.784	1006.426	762.205
101.001	13.717	1005.502	761.130
102.016	13.658	1004.879	760.320
103.030	13.809	1003.836	760.155
104.045	13.878	1002.993	759.767
105.060	13.636	1002.840	758.475
106.074	13.633	1001.317	757.245
107.089	13.540	1000.399	756.059
108.103	13.533	999.260	755.099
109.118	13.444	998.735	754.231
110.133	13.537	997.522	753.669
111.147	13.525	996.833	753.028
112.162	13.549	995.942	752.400
113.176	13.681	995.188	752.361
114.191	13.783	993.897	751.780
115.206	13.640	993.949	751.106
116.220	13.578	993.081	750.101
117.235	13.606	991.765	749.170
118.249	13.546	991.400	748.556
119.264	13.613	990.107	747.816
120.279	13.568	989.381	746.997
121.293	13.436	989.159	746.168
122.308	13.454	988.054	745.352
123.322	13.501	986.998	744.698
124.337	13.446	985.982	743.621
125.352	13.520	984.395	742.687
126.366	13.556	983.567	742.157
127.381	13.545	982.455	741.207
128.395	13.485	981.509	740.158
129.410	13.440	980.765	739.330
130.424	13.476	980.237	739.029
131.439	13.512	979.323	738.434
132.454	13.676	978.160	738.222
133.468	13.670	977.563	737.681
134.483	13.685	976.636	736.982
135.497	13.638	975.811	736.084
136.512	13.652	974.609	735.174
137.527	13.632	974.006	734.566
138.541	13.603	973.388	733.906
139.556	13.755	972.511	733.854
140.570	13.833	971.731	733.545
141.585	13.739	971.472	732.871
142.600	13.764	970.360	732.078
143.614	13.866	969.490	731.803
144.629	13.736	969.208	730.954
145.643	13.767	967.951	730.077
146.658	13.776	966.696	729.106
147.673	13.787	965.809	728.421
148.687	13.660	965.238	727.370
149.702	13.684	963.858	726.368
150.716	13.582	963.407	725.520
151.731	13.652	962.651	725.190
152.746	13.755	961.731	724.884
153.760	13.737	961.609	724.649
154.775	13.752	960.865	724.092
155.789	13.838	960.286	723.966
156.804	13.980	959.218	723.716
157.819	13.836	958.862	722.753
158.833	13.915	958.163	722.506
159.848	14.030	956.975	722.047
160.862	13.800	956.468	720.604
161.877	13.827	954.680	719.309
162.892	13.748	954.346	718.651
163.906	13.711	953.242	717.595
164.921	13.842	952.323	717.407
165.935	13.909	951.394	716.932
166.950	13.958	950.734	716.581
167.964	13.882	949.874	715.545
168.979	13.806	949.138	714.600
169.994	13.852	948.065	713.926
171.008	13.896	947.501	713.626
172.023	14.025	946.702	713.515
173.037	14.058	946.154	713.182
174.052	14.020	945.310	712.318
175.067	13.931	944.843	711.522
176.081	13.866	944.292	710.768
177.096	13.772	943.973	710.061
178.110	13.938	942.898	709.901
179.125	13.988	942.729	709.924
180.140	13.991	941.907	709.252
181.154	14.056	941.378	709.071
182.169	14.168	941.072	709.255
183.183	14.169	940.477	708.750
184.198	14.123	939.427	707.697
185.213	14.164	938.797	707.334
186.227	14.164	938.073	706.729
187.242	14.255	937.327	706.490
188.256	14.345	936.367	706.083
189.271	14.275	935.814	705.309
190.286	14.024	935.123	703.663
191.300	14.053	934.511	703.263
192.315	14.036	933.538	702.394
193.329	14.026	933.388	702.178
194.344	13.879	932.925	701.148
195.359	14.064	931.696	700.943
196.373	14.155	931.143	700.847
197.388	14.223	931.013	700.976
198.402	14.397	930.088	700.947
199.417	14.317	929.785	700.321
200.432	14.484	929.065	700.418
201.446	14.384	928.644	699.617
202.461	14.552	928.107	699.857
203.475	14.382	927.717	698.787
204.490	14.265	927.336	697.948
205.504	14.334	926.221	697.337
206.519	14.325	925.059	696.362
207.534	14.307	924.783	696.017
208.548	14.303	924.249	695.537
209.563	14.271	923.659	694.900
210.577	14.403	922.650	694.630
211.592	14.493	922.141	694.561
212.607	14.486	921.532	694.011
213.621	14.460	920.631	693.162
214.636	14.517	919.957	692.828
215.650	14.523	919.117	692.162
216.665	14.614	918.381	691.923
217.680	14.623	917.766	691.433
218.694	14.754	916.829	691.212
219.709	14.630	916.374	690.295
220.723	14.687	915.664	689.931
221.738	14.658	915.252	689.441
222.753	14.669	914.097	688.555
223.767	14.829	913.341	688.585
224.782	14.686	913.207	687.834
225.796	14.824	912.680	687.945
226.811	14.683	912.075	686.848
227.826	14.676	911.222	686.117
228.840	14.831	909.998	685.768
229.855	14.858	909.143	685.173
230.869	14.700	908.909	684.290
231.884	14.536	908.677	683.384
232.899	14.648	907.356	682.788
233.913	14.695	906.724	682.443
234.928	14.656	906.084	681.742
235.942	14.710	905.927	681.785
236.957	14.453	905.858	680.623
237.972	14.637	904.677	680.427
238.986	14.659	903.631	679.668
240.001	14.731	903.286	679.642
241.015	14.685	902.968	679.153
242.030	14.784	902.050	678.808
243.045	14.731	901.305	677.969
244.059	14.874	900.966	678.237
245.074	14.895	900.274	677.739
246.088	14.823	899.469	676.782
247.103	14.937	898.795	676.678
248.117	15.030	898.688	676.914
249.132	15.066	897.660	676.223
250.147	15.223	897.102	676.376
251.161	15.198	896.263	675.584
252.176	15.250	896.199	675.686
253.190	15.273	894.965	674.787
254.205	15.233	894.679	674.351
255.220	15.257	893.820	673.740
256.234	15.127	893.660	673.037
257.249	15.393	892.289	673.014
258.263	15.316	891.735	672.226
259.278	15.311	890.779	671.429
260.293	15.270	890.578	671.053
261.307	15.408	889.926	671.054
262.322	15.417	889.197	670.479
263.336	15.375	888.432	669.678
264.351	15.307	888.039	669.049
265.366	15.494	887.132	669.054
266.380	15.566	886.225	668.595
267.395	15.363	885.976	667.541
268.409	15.312	885.351	666.809
269.424	15.382	884.416	666.323
270.439	15.626	883.355	666.434
271.453	15.457	882.937	665.388
272.468	15.363	882.519	664.643
273.482	15.410	881.455	663.967
274.497	15.496	881.000	663.908
275.512	15.427	881.064	663.622
276.526	15.540	880.036	663.237
277.541	15.530	879.932	663.062
278.555	15.431	879.441	662.239
279.570	15.785	878.059	662.536
280.585	15.657	877.437	661.504
281.599	15.688	876.416	660.796
282.614	15.721	875.771	660.383
283.628	15.651	875.408	659.776
284.643	15.698	874.598	659.290
285.657	15.691	874.120	658.845
286.672	15.705	873.248	658.183
287.687	15.689	872.659	657.618
288.701	15.692	872.282	657.287
289.716	15.655	871.903	656.802
290.730	15.724	871.559	656.751
291.745	15.655	870.777	655.836
292.760	15.662	870.539	655.627
293.774	15.847	869.286	655.343
294.789	15.809	868.688	654.689
295.803	15.829	868.226	654.359
296.818	15.850	867.357	653.729
297.833	15.846	866.627	653.104
298.847	15.724	866.339	652.356
299.862	15.801	865.912	652.276
300.876	15.997	864.869	652.190
301.891	15.911	864.665	651.646
302.906	15.849	863.836	650.726
303.920	16.066	863.648	651.366
304.935	16.038	863.010	650.716
305.949	16.078	862.399	650.355
306.964	16.045	861.619	649.579
307.979	16.051	860.878	648.987
308.993	16.017	860.489	648.504
310.008	16.093	859.516	648.008
311.022	15.872	859.338	646.967
312.037	15.967	859.080	647.080
313.052	15.965	857.987	646.194
314.066	15.947	857.435	645.652
315.081	16.005	856.841	645.370
316.095	16.065	856.292	645.128
317.110	16.037	855.762	644.563
318.125	16.000	855.547	644.203
319.139	16.059	854.701	643.736
320.154	16.006	854.634	643.424
321.168	16.055	853.684	642.840
322.183	16.138	852.996	642.579
323.197	16.241	852.477	642.525
324.212	16.213	851.712	641.787
325.227	16.242	851.056	641.344
326.241	16.129	850.794	640.662
327.256	16.099	850.508	640.277
328.270	16.122	849.638	639.650
329.285	16.139	848.915	639.114
330.300	16.175	848.721	639.049
331.314	16.192	848.198	638.662
332.329	16.295	847.251	638.283
333.343	16.309	847.062	638.137
334.358	16.379	847.019	638.312
335.373	16.327	846.304	637.520
336.387	16.308	846.035	637.189
337.402	16.352	846.079	637.330
338.416	16.513	845.485	637.436
339.431	16.515	845.030	637.043
340.446	16.438	844.646	636.408
341.460	16.622	844.135	636.659
342.475	16.497	843.822	635.895
343.489	16.575	843.545	635.925
344.504	16.699	842.681	635.682
345.519	16.625	842.059	634.880
346.533	16.581	841.864	634.510
347.548	16.593	841.224	634.019
348.562	16.479	840.824	633.231
349.577	16.597	839.786	632.835
350.592	16.579	839.909	632.804
351.606	16.582	838.822	631.941
352.621	16.566	838.077	631.266
353.635	16.652	837.664	631.220
354.650	16.682	836.824	630.643
355.665	16.623	836.265	629.945
356.679	16.747	835.352	629.663
357.694	16.686	835.331	629.366
358.708	16.705	834.660	628.873
359.723	16.772	833.776	628.399
360.738	16.809	833.201	628.048
361.752	16.733	832.780	627.395
362.767	16.876	832.115	627.368
363.781	16.748	832.041	626.781
364.796	16.937	831.536	627.046
365.810	16.979	830.948	626.701
366.825	17.003	830.507	626.401
367.840	16.970	830.121	625.934
368.854	17.004	829.435	625.485
369.869	17.086	829.093	625.474
370.883	16.982	828.666	624.716
371.898	16.899	828.528	624.249
372.913	17.141	828.000	624.687
373.927	17.108	827.530	624.155
374.942	16.905	827.087	623.020
375.956	17.207	826.332	623.506
376.971	17.083	826.365	623.019
377.986	17.109	825.832	622.657
379.000	17.216	825.460	622.715
380.015	17.239	824.588	622.087
381.029	17.250	824.054	621.669
382.044	17.218	823.671	621.207
383.059	17.080	823.533	620.545
384.073	17.131	822.450	619.859
385.088	17.333	821.528	619.845
386.102	17.220	820.988	618.971
387.117	17.016	820.734	617.984
388.132	17.234	820.153	618.285
389.146	17.290	819.648	618.054
390.161	17.327	818.866	617.542
391.175	17.366	818.814	617.591
392.190	17.245	818.126	616.577
393.205	17.214	817.897	616.236
394.219	17.170	817.519	615.740
395.234	17.312	816.817	615.671
396.248	17.139	816.504	614.755
397.263	17.170	815.982	614.417
398.278	17.299	815.437	614.420
399.292	17.302	815.125	614.142
400.307	17.119	815.031	613.354
401.321	17.150	814.195	612.782
402.336	17.419	813.277	613.006
403.350	17.308	813.426	612.663
404.365	17.454	812.868	612.717
405.380	17.560	812.080	612.450
406.394	17.565	811.434	611.927
407.409	17.518	811.319	611.618
408.423	17.591	811.245	611.767
409.438	17.649	810.664	611.484
410.453	17.671	810.067	611.057
411.467	17.650	809.901	610.806
412.482	17.577	809.707	610.341
413.496	17.738	809.009	610.339
414.511	17.843	808.638	610.379
415.526	17.867	808.144	610.040
416.540	17.820	807.668	609.456
417.555	17.722	807.231	608.725
418.569	17.624	806.982	608.135
419.584	17.715	806.486	608.030
420.599	17.799	806.349	608.171
421.613	110.211	1293.717	1471.823
422.628	95.056	1364.703	1471.898
