DTS Sentinel unit serial number:	SN413079Multiplexer serial number:	ORYXHardware model number:	OX4-SRSoftware version number:	ORYX F/W v4.00 Oryx Data Collector v3.7.2.0data status	okinstallation	princeton_trtdifferential loss correction	single-endedforward channel	channel 1reverse channel	N/Adate	2019/09/12time	17:00:11forward acquisition time	60.00reverse acquisition time	0.00gamma	496.2192k internal	0.2311k external	0.2311temperature offset calibration	1.0096default loss term (dB/km)	0.3790temperature slope calibration	1.0000multiplexer offset coefficient	1.0000multiplexer slope coefficient	1.0000fibre end	0.00T internal ref (°C)	35.77T ext. ref 1 (°C)	2.76T ext. ref 2 (°C)	28.89length (m)	temperature (°C)	Stokes	anti-Stokes-747.200	730.329	0.012	-0.033
-746.185	4.755	0.194	0.145
-745.171	800.000	0.014	0.057
-744.156	800.000	-0.035	0.106
-743.142	800.000	-0.050	-0.213
-742.127	-148.872	-0.346	0.028
-741.112	-200.000	-0.002	-0.113
-740.098	-200.000	-0.033	0.214
-739.083	9.147	-0.235	0.180
-738.069	-200.000	-0.033	0.399
-737.054	-133.343	-0.039	0.005
-736.039	-200.000	-0.014	-0.135
-735.025	-127.286	0.233	-0.034
-734.010	-130.791	0.008	-0.001
-732.996	-117.483	-0.464	-0.085
-731.981	-200.000	-0.013	0.311
-730.966	38.720	-0.018	0.017
-729.952	-160.654	-0.352	0.019
-728.937	-200.000	0.006	-0.047
-727.923	-28.631	-0.293	0.171
-726.908	130.694	0.253	-0.330
-725.894	315.616	0.073	-0.140
-724.879	-76.600	0.225	0.080
-723.864	800.000	0.125	0.405
-722.850	92.503	0.204	0.233
-721.835	-200.000	0.001	-0.068
-720.821	698.751	0.106	0.284
-719.806	-125.236	-0.270	0.042
-718.791	-200.000	-0.063	0.334
-717.777	-42.382	-0.329	-0.170
-716.762	-44.561	-0.330	-0.167
-715.748	168.175	-0.210	-0.303
-714.733	366.475	-0.151	0.309
-713.718	343.635	0.129	0.257
-712.704	-98.716	0.241	-0.062
-711.689	-20.439	-0.233	0.145
-710.675	-200.000	-0.031	0.177
-709.660	111.105	0.076	-0.093
-708.645	120.447	0.101	0.127
-707.631	3.779	-0.161	0.119
-706.616	-200.000	0.066	0.315
-705.602	800.000	0.031	-0.116
-704.587	-200.000	0.016	0.194
-703.572	-116.519	-0.017	-0.003
-702.558	-200.000	0.020	0.174
-701.543	206.448	-0.037	-0.058
-700.529	-153.586	0.103	-0.007
-699.514	-65.402	-0.252	-0.103
-698.499	425.346	-0.121	-0.263
-697.485	-20.287	-0.221	-0.138
-696.470	182.611	0.031	-0.046
-695.456	-77.287	-0.079	0.028
-694.441	52.173	0.049	0.047
-693.426	-192.393	0.261	-0.002
-692.412	-77.806	-0.327	0.115
-691.397	58.397	-0.164	0.163
-690.383	-166.333	0.204	0.009
-689.368	409.642	-0.152	-0.326
-688.354	-199.104	-0.040	-0.000
-687.339	-68.562	0.039	-0.015
-686.324	173.439	-0.193	-0.282
-685.310	231.974	0.207	-0.344
-684.295	83.752	-0.126	0.140
-683.281	-92.529	-0.423	0.120
-682.266	-200.000	-0.046	-0.223
-681.251	94.524	-0.073	0.084
-680.237	183.208	0.157	0.235
-679.222	-200.000	0.007	-0.155
-678.208	-84.172	-0.331	-0.106
-677.193	-200.000	0.021	-0.120
-676.178	-40.430	-0.359	0.189
-675.164	798.435	-0.047	0.132
-674.149	-200.000	0.013	-0.091
-673.135	-28.947	-0.275	0.160
-672.120	800.000	-0.095	0.277
-671.105	275.369	0.151	0.270
-670.091	-13.372	0.172	-0.113
-669.076	422.900	0.131	-0.284
-668.062	138.380	0.134	-0.178
-667.047	171.081	-0.120	0.175
-666.032	-97.540	-0.361	-0.095
-665.018	29.796	0.156	-0.134
-664.003	-183.158	-0.153	-0.003
-662.989	602.874	0.076	-0.192
-661.974	93.427	0.077	-0.089
-660.959	2.409	-0.035	0.026
-659.945	-63.161	-0.127	-0.053
-658.930	345.727	-0.041	0.082
-657.916	29.008	0.084	0.072
-656.901	78.337	-0.332	-0.358
-655.886	577.639	0.095	-0.235
-654.872	-75.098	-0.306	0.111
-653.857	-96.054	-0.261	-0.070
-652.843	-44.107	-0.060	0.030
-651.828	78.599	-0.108	-0.117
-650.814	269.787	0.156	0.278
-649.799	465.899	0.058	0.131
-648.784	-200.000	-0.005	-0.275
-647.770	-92.829	0.056	0.016
-646.755	800.000	0.101	-0.417
-645.741	-57.147	-0.189	-0.084
-644.726	-200.000	0.012	0.075
-643.711	-97.867	-0.108	-0.028
-642.697	30.168	0.110	-0.095
-641.682	-55.083	0.213	-0.097
-640.668	217.915	-0.079	-0.127
-639.653	195.117	-0.213	-0.328
-638.638	-200.000	0.006	0.207
-637.624	-65.576	0.291	0.118
-636.609	-31.338	-0.106	0.060
-635.595	67.859	0.269	0.278
-634.580	127.494	-0.023	0.030
-633.565	64.503	0.022	-0.022
-632.551	0.166	0.152	0.110
-631.536	-200.000	0.053	-0.384
-630.522	-153.589	0.480	-0.033
-629.507	-45.045	-0.149	-0.075
-628.492	126.411	-0.190	-0.242
-627.478	156.587	0.082	-0.114
-626.463	-33.866	-0.134	-0.075
-625.449	-98.113	-0.147	-0.038
-624.434	-56.138	0.329	0.148
-623.419	217.017	-0.119	-0.191
-622.405	800.000	-0.102	-0.340
-621.390	-37.011	-0.098	-0.053
-620.376	-200.000	-0.071	-0.329
-619.361	510.156	0.070	-0.164
-618.346	70.498	-0.152	-0.158
-617.332	-200.000	-0.011	0.210
-616.317	155.266	0.281	0.391
-615.303	371.324	-0.051	0.105
-614.288	-10.870	0.148	-0.099
-613.273	357.802	0.077	0.156
-612.259	-200.000	-0.008	0.109
-611.244	800.000	-0.056	0.218
-610.230	-90.387	0.237	0.069
-609.215	-29.429	-0.260	0.150
-608.201	64.743	0.139	0.142
-607.186	83.153	0.256	0.281
-606.171	13.549	-0.050	-0.039
-605.157	264.906	-0.129	-0.226
-604.142	-200.000	0.003	-0.073
-603.128	-200.000	0.011	-0.240
-602.113	-66.672	-0.107	0.043
-601.098	-136.730	-0.165	-0.019
-600.084	-35.752	-0.226	-0.124
-599.069	-161.525	0.062	0.003
-598.055	-18.832	-0.088	-0.056
-597.040	50.868	0.163	0.156
-596.025	321.429	0.047	-0.091
-595.011	313.762	0.284	-0.539
-593.996	-56.541	-0.193	-0.086
-592.982	-27.876	-0.187	-0.109
-591.967	65.641	0.135	-0.138
-590.952	67.360	0.149	-0.154
-589.938	69.637	0.223	0.232
-588.923	-114.751	0.165	-0.032
-587.909	458.954	0.175	-0.392
-586.894	39.406	0.253	0.228
-585.879	800.000	-0.136	-0.386
-584.865	-114.170	-0.398	-0.077
-583.850	-124.034	0.193	-0.031
-582.836	-59.292	-0.097	0.042
-581.821	800.000	0.104	0.421
-580.806	-200.000	-0.004	0.109
-579.792	1.605	0.160	-0.116
-578.777	-200.000	-0.132	0.000
-577.763	682.467	0.069	-0.182
-576.748	-115.607	0.177	-0.034
-575.733	349.401	0.165	-0.328
-574.719	229.839	-0.085	-0.139
-573.704	67.961	-0.082	-0.085
-572.690	230.600	-0.111	0.182
-571.675	498.389	-0.038	-0.089
-570.661	-200.000	-0.058	-0.503
-569.646	37.520	-0.128	-0.115
-568.631	-22.869	0.438	0.266
-567.617	-44.900	-0.137	0.069
-566.602	-200.000	0.031	-0.263
-565.588	800.000	-0.051	-0.166
-564.573	800.000	-0.009	0.029
-563.558	-200.000	-0.004	0.061
-562.544	-145.597	0.366	-0.033
-561.529	228.735	0.209	0.344
-560.515	-200.000	-0.032	-0.173
-559.500	212.718	0.089	-0.141
-558.485	-15.638	0.062	-0.040
-557.471	-167.974	-0.097	-0.004
-556.456	18.918	-0.058	0.047
-555.442	-200.000	-0.038	0.199
-554.427	297.757	-0.110	-0.203
-553.412	800.000	-0.032	0.117
-552.398	-104.204	0.313	-0.073
-551.383	120.787	-0.122	-0.153
-550.369	800.000	-0.029	-0.100
-549.354	-41.442	0.219	0.114
-548.339	-21.808	-0.131	0.080
-547.325	-28.561	0.213	0.124
-546.310	-23.305	-0.078	0.047
-545.296	97.542	0.247	0.286
-544.281	-84.965	-0.206	0.065
-543.266	647.663	0.100	0.258
-542.252	-200.000	0.025	-0.122
-541.237	800.000	0.031	-0.111
-540.223	-62.037	-0.229	0.096
-539.208	331.188	-0.071	0.138
-538.193	-106.464	-0.265	0.060
-537.179	14.456	-0.301	0.236
-536.164	568.080	-0.047	0.115
-535.150	-29.438	0.214	0.123
-534.135	-52.104	-0.044	0.020
-533.121	-27.671	0.199	0.116
-532.106	-190.421	-0.183	0.002
-531.091	-200.000	0.020	0.188
-530.077	207.713	-0.063	-0.100
-529.062	0.994	-0.061	0.044
-528.048	-200.000	0.039	-0.232
-527.033	-119.471	-0.183	-0.032
-526.018	-200.000	0.005	-0.048
-525.004	-200.000	-0.010	-0.063
-523.989	475.287	-0.066	-0.150
-522.975	22.719	0.102	0.084
-521.960	74.971	-0.248	0.263
-520.945	77.213	-0.084	-0.090
-519.931	-61.633	-0.127	-0.054
-518.916	174.185	-0.128	-0.186
-517.902	800.000	0.066	0.262
-516.887	-133.061	-0.315	-0.040
-515.872	-112.768	0.186	-0.037
-514.858	-125.590	-0.276	-0.042
-513.843	156.021	0.072	0.100
-512.829	-26.794	0.164	0.096
-511.814	-96.744	0.458	-0.121
-510.799	156.642	-0.259	-0.359
-509.785	-124.623	-0.356	0.056
-508.770	-200.000	0.007	-0.162
-507.756	-105.839	0.172	0.039
-506.741	800.000	0.040	-0.178
-505.726	800.000	0.061	-0.209
-504.712	-88.675	0.085	-0.025
-503.697	78.155	-0.055	0.059
-502.683	11.380	0.124	0.096
-501.668	-200.000	-0.003	-0.069
-500.653	193.341	-0.078	0.119
-499.639	-26.376	-0.259	0.153
-498.624	800.000	0.027	0.113
-497.610	800.000	0.024	0.068
-496.595	-24.481	-0.289	0.173
-495.581	-73.643	0.234	0.086
-494.566	-125.163	-0.336	0.052
-493.551	-94.592	0.475	0.130
-492.537	252.495	0.081	0.139
-491.522	154.977	-0.048	-0.067
-490.508	11.935	0.171	0.132
-489.493	359.893	0.027	-0.055
-488.478	-165.193	-0.256	-0.011
-487.464	-128.513	-0.272	0.039
-486.449	-200.000	-0.012	0.218
-485.435	-27.920	-0.049	-0.028
-484.420	-76.216	-0.110	-0.039
-483.405	-159.863	-0.252	0.014
-482.391	-200.000	-0.035	-0.319
-481.376	-8.893	0.052	-0.035
-480.362	3.657	0.232	0.170
-479.347	158.972	-0.126	-0.176
-478.332	-200.000	-0.003	-0.022
-477.318	-9.673	-0.091	0.061
-476.303	-100.439	-0.400	0.100
-475.289	11.618	-0.136	-0.104
-474.274	781.259	0.150	0.413
-473.259	800.000	-0.071	0.208
-472.245	800.000	0.057	0.175
-471.230	-60.217	-0.123	-0.053
-470.216	-40.563	0.269	-0.140
-469.201	-200.000	0.026	0.269
-468.186	-200.000	-0.002	0.013
-467.172	1.818	-0.199	0.144
-466.157	155.363	-0.140	-0.194
-465.143	127.664	-0.212	0.271
-464.128	16.541	-0.213	0.169
-463.113	391.922	0.210	-0.438
-462.099	-173.708	0.266	-0.008
-461.084	-57.030	-0.368	0.163
-460.070	-94.939	-0.087	0.024
-459.055	800.000	-0.122	0.354
-458.040	146.129	-0.139	0.187
-457.026	-200.000	0.022	-0.225
-456.011	410.374	-0.128	-0.272
-454.997	-102.024	0.344	-0.083
-453.982	-37.389	-0.316	-0.169
-452.968	244.248	-0.104	0.176
-451.953	-200.000	-0.010	0.125
-450.938	-157.945	-0.384	-0.023
-449.924	-163.897	0.118	0.006
-448.909	750.850	0.065	-0.176
-447.895	-198.393	-0.096	-0.001
-446.880	-61.103	-0.443	-0.188
-445.865	178.769	0.081	-0.118
-444.851	36.746	0.098	-0.087
-443.836	-200.000	0.063	-0.285
-442.822	-200.000	-0.012	-0.262
-441.807	-53.503	0.106	-0.048
-440.792	779.949	0.126	0.346
-439.778	26.912	-0.367	-0.309
-438.763	-200.000	0.007	-0.052
-437.749	-200.000	-0.002	-0.248
-436.734	-200.000	-0.026	-0.420
-435.719	264.544	-0.178	-0.310
-434.705	7.801	0.131	-0.098
-433.690	800.000	-0.053	0.182
-432.676	284.332	-0.170	-0.308
-431.661	-200.000	-0.023	-0.142
-430.646	-15.832	0.246	-0.157
-429.632	800.000	0.067	-0.190
-428.617	-1.720	-0.066	-0.047
-427.603	-89.689	0.443	-0.130
-426.588	-200.000	0.016	0.082
-425.573	-60.060	-0.270	0.116
-424.559	-99.777	0.085	0.021
-423.544	-23.135	0.167	0.101
-422.530	45.676	0.172	-0.159
-421.515	800.000	0.054	0.205
-420.500	338.057	0.110	0.214
-419.486	-13.387	0.103	-0.067
-418.471	-100.293	0.461	0.115
-417.457	-200.000	-0.043	0.207
-416.442	-4.550	0.134	0.092
-415.428	479.563	-0.022	-0.050
-414.413	311.694	-0.097	-0.183
-413.398	430.320	-0.192	-0.416
-412.384	-62.274	0.244	0.102
-411.369	784.906	0.014	-0.038
-410.355	412.446	-0.070	-0.149
-409.340	800.000	-0.068	0.287
-408.325	-47.199	-0.400	0.195
-407.311	204.572	0.095	-0.147
-406.296	81.655	-0.117	0.127
-405.282	590.714	0.106	-0.263
-404.267	-200.000	-0.013	-0.143
-403.252	28.928	-0.167	0.142
-402.238	-51.885	-0.173	0.080
-401.223	-91.222	0.205	-0.059
-400.209	-11.098	-0.090	-0.059
-399.194	-28.394	-0.236	-0.136
-398.179	294.157	-0.124	-0.226
-397.165	117.530	-0.073	-0.090
-396.150	-134.451	0.166	0.020
-395.136	-200.000	-0.015	0.273
-394.121	120.307	-0.213	0.265
-393.106	-200.000	0.018	0.327
-392.092	-200.000	-0.059	0.355
-391.077	-200.000	-0.027	-0.150
-390.063	25.068	0.289	-0.240
-389.048	-200.000	0.001	-0.302
-388.033	33.691	0.305	-0.265
-387.019	-62.078	-0.105	-0.044
-386.004	84.801	-0.146	0.161
-384.990	-91.423	-0.324	0.093
-383.975	124.297	0.104	0.131
-382.960	-161.286	0.259	-0.013
-381.946	-153.188	0.219	-0.015
-380.931	-112.471	-0.145	-0.029
-379.917	-36.813	-0.201	0.108
-378.902	269.486	-0.148	0.260
-377.888	-84.731	-0.195	-0.061
-376.873	91.182	0.147	0.165
-375.858	100.343	-0.003	0.003
-374.844	-18.659	-0.291	-0.182
-373.829	-200.000	0.009	0.123
-372.815	800.000	0.030	-0.082
-371.800	394.882	-0.074	-0.155
-370.785	106.109	0.060	0.071
-369.771	-23.613	0.312	-0.187
-368.756	284.915	0.190	0.342
-367.742	-136.924	0.034	-0.004
-366.727	800.000	0.023	0.073
-365.712	49.433	-0.259	0.244
-364.698	-200.000	-0.006	0.258
-363.683	-102.218	-0.190	0.046
-362.669	-10.479	0.389	-0.257
-361.654	-200.000	-0.016	-0.101
-360.639	-55.882	0.164	-0.073
-359.625	708.147	-0.119	0.315
-358.610	-200.000	-0.010	0.226
-357.596	214.864	-0.099	-0.157
-356.581	800.000	0.100	0.332
-355.566	-175.314	0.073	-0.002
-354.552	-200.000	-0.006	-0.159
-353.537	-108.689	0.233	-0.050
-352.523	491.985	-0.172	0.394
-351.508	-26.601	0.345	0.202
-350.493	800.000	-0.140	-0.408
-349.479	775.517	-0.079	-0.217
-348.464	440.934	-0.026	-0.056
-347.450	36.678	-0.182	-0.161
-346.435	-56.736	0.257	0.114
-345.420	-158.932	0.140	0.008
-344.406	-200.000	0.029	-0.146
-343.391	-82.509	0.335	-0.108
-342.377	-72.053	-0.117	0.043
-341.362	73.502	-0.014	0.014
-340.348	-106.024	0.108	0.024
-339.333	-120.160	-0.099	0.017
-338.318	-2.495	0.202	-0.141
-337.304	32.539	-0.013	-0.011
-336.289	-100.523	0.072	0.018
-335.275	-200.000	-0.036	-0.317
-334.260	-9.341	-0.057	-0.038
-333.245	241.931	-0.072	-0.120
-332.231	-200.000	-0.043	0.259
-331.216	13.386	0.113	0.088
-330.202	800.000	0.048	-0.138
-329.187	-200.000	0.012	0.297
-328.172	425.168	-0.163	-0.351
-327.158	-27.718	0.110	0.064
-326.143	-200.000	0.037	-0.176
-325.129	99.154	0.135	-0.155
-324.114	-118.145	0.096	-0.017
-323.099	-200.000	-0.002	0.451
-322.085	14.997	0.175	0.137
-321.070	10.002	-0.064	0.048
-320.056	-59.796	0.021	-0.009
-319.041	330.384	-0.046	0.088
-318.026	668.994	-0.101	0.261
-317.012	800.000	-0.122	0.383
-315.997	-129.984	-0.198	-0.027
-314.983	-118.060	-0.319	0.057
-313.968	-127.587	-0.220	0.032
-312.953	295.457	0.009	-0.017
-311.939	207.149	0.248	0.386
-310.924	-90.831	0.285	0.082
-309.910	-22.580	-0.189	0.114
-308.895	-123.897	-0.395	0.062
-307.880	469.244	0.118	0.265
-306.866	-200.000	-0.017	0.127
-305.851	48.776	-0.046	0.043
-304.837	-8.131	0.133	-0.090
-303.822	-4.398	0.191	-0.132
-302.807	54.571	-0.061	0.059
-301.793	30.579	-0.097	0.083
-300.778	-33.200	0.365	-0.202
-299.764	293.494	-0.024	0.044
-298.749	-89.667	-0.100	-0.029
-297.735	29.429	-0.097	0.083
-296.720	357.490	-0.044	0.087
-295.705	-200.000	-0.021	0.279
-294.691	75.329	-0.211	0.222
-293.676	800.000	0.025	-0.095
-292.662	127.032	0.179	0.226
-291.647	-41.697	0.176	0.090
-290.632	85.839	-0.100	0.110
-289.618	-106.209	0.212	0.047
-288.603	-2.414	-0.088	0.061
-287.589	-8.983	-0.108	0.072
-286.574	-37.911	0.238	-0.126
-285.559	-200.000	0.032	0.181
-284.545	-47.690	-0.173	0.084
-283.530	-109.584	-0.339	-0.071
-282.516	800.000	0.059	-0.189
-281.501	88.675	-0.108	0.120
-280.486	-10.475	-0.056	-0.037
-279.472	800.000	0.019	-0.060
-278.457	296.785	0.109	0.199
-277.443	-141.731	0.334	0.033
-276.428	-200.000	0.022	0.106
-275.413	178.505	-0.051	-0.074
-274.399	-200.000	-0.004	-0.043
-273.384	-144.450	0.183	0.017
-272.370	84.588	0.124	-0.135
-271.355	-200.000	-0.034	-0.226
-270.340	64.472	-0.116	-0.116
-269.326	152.900	0.184	0.251
-268.311	-102.567	0.214	-0.051
-267.297	145.528	-0.221	-0.295
-266.282	295.909	0.108	-0.197
-265.267	9.043	-0.104	-0.078
-264.253	-130.380	0.248	0.033
-263.238	-91.082	0.203	0.058
-262.224	-200.000	0.045	-0.228
-261.209	676.311	-0.096	0.249
-260.195	267.801	0.179	0.312
-259.180	141.149	0.171	-0.225
-258.165	-158.763	0.170	-0.010
-257.151	84.447	0.150	0.163
-256.136	-51.012	-0.253	-0.118
-255.122	-200.000	0.004	-0.174
-254.107	-90.049	-0.281	-0.082
-253.092	29.121	0.112	0.095
-252.078	-93.638	0.358	0.099
-251.063	361.185	-0.234	0.467
-250.049	-200.000	0.037	-0.179
-249.034	-200.000	-0.003	0.093
-248.019	-166.913	-0.459	-0.019
-247.005	-17.940	-0.053	-0.033
-245.990	-129.459	0.277	-0.038
-244.976	-200.000	-0.018	0.080
-243.961	-71.578	0.193	-0.072
-242.946	89.146	-0.195	0.216
-241.932	-24.226	-0.142	0.084
-240.917	800.000	0.030	-0.105
-239.903	800.000	0.084	0.287
-238.888	115.160	0.218	-0.265
-237.873	800.000	0.082	0.315
-236.859	6.622	0.242	0.179
-235.844	3.288	0.067	-0.048
-234.830	-200.000	-0.001	-0.240
-233.815	-164.641	-0.321	-0.014
-232.800	-197.984	0.494	-0.003
-231.786	-74.636	0.238	0.085
-230.771	-109.882	-0.346	0.072
-229.757	62.727	-0.342	0.340
-228.742	-98.959	-0.148	0.037
-227.727	-200.000	-0.034	-0.182
-226.713	-66.860	0.177	0.069
-225.698	-77.593	0.078	0.027
-224.684	-63.086	-0.039	0.016
-223.669	280.707	-0.065	-0.116
-222.655	-137.919	0.140	-0.016
-221.640	-200.000	0.051	0.447
-220.625	-200.000	-0.014	0.179
-219.611	583.694	-0.142	-0.347
-218.596	-62.393	0.268	0.111
-217.582	800.000	-0.145	-0.443
-216.567	498.176	-0.127	-0.290
-215.552	-77.675	-0.089	0.030
-214.538	-68.303	-0.019	-0.008
-213.523	-200.000	-0.007	0.231
-212.509	594.003	0.066	0.161
-211.494	-54.401	0.149	0.067
-210.479	30.161	-0.124	-0.105
-209.465	140.612	-0.052	0.068
-208.450	-163.968	-0.398	0.018
-207.436	800.000	0.060	-0.202
-206.421	-173.175	-0.357	0.011
-205.406	-147.612	-0.191	-0.016
-204.392	196.813	0.090	-0.137
-203.377	-148.722	-0.095	0.008
-202.363	178.805	-0.138	0.200
-201.348	-200.000	-0.012	0.380
-200.333	-200.000	0.039	-0.398
-199.319	-119.783	0.263	-0.045
-198.304	115.474	-0.118	0.143
-197.290	-72.033	0.235	0.087
-196.275	-22.071	-0.213	0.129
-195.260	340.571	-0.096	-0.185
-194.246	142.642	-0.036	-0.047
-193.231	-171.546	-0.074	-0.002
-192.217	-80.538	-0.111	-0.037
-191.202	353.114	0.086	-0.170
-190.187	-16.181	0.189	-0.120
-189.173	-57.457	-0.199	-0.087
-188.158	149.136	0.015	-0.020
-187.144	250.227	0.035	0.059
-186.129	419.644	-0.071	-0.151
-185.114	329.226	0.034	-0.066
-184.100	-185.840	-0.027	-0.000
-183.085	479.528	0.081	-0.181
-182.071	177.532	-0.215	0.311
-181.056	-4.031	-0.219	0.151
-180.042	-200.000	0.026	-0.156
-179.027	119.080	-0.095	0.117
-178.012	-118.249	0.157	0.028
-176.998	-200.000	0.064	-0.302
-175.983	-39.773	0.187	-0.097
-174.969	-11.929	-0.184	0.120
-173.954	-44.729	-0.388	-0.192
-172.939	302.003	0.151	0.276
-171.925	-200.000	0.023	-0.115
-170.910	-200.000	0.021	-0.147
-169.896	-107.102	0.446	0.098
-168.881	542.537	-0.013	0.031
-167.866	-127.520	0.253	-0.036
-166.852	163.016	0.204	0.284
-165.837	-19.346	-0.294	0.181
-164.823	38.052	0.253	0.223
-163.808	-200.000	-0.039	0.459
-162.793	147.448	0.076	-0.101
-161.779	800.000	0.030	-0.112
-160.764	800.000	0.011	0.038
-159.750	53.925	0.140	-0.134
-158.735	297.065	0.152	-0.277
-157.720	-200.000	0.001	0.059
-156.706	64.306	0.172	0.172
-155.691	-200.000	0.033	0.151
-154.677	29.164	-0.128	-0.108
-153.662	-31.474	-0.264	-0.147
-152.647	516.987	0.104	0.241
-151.633	-200.000	0.009	-0.446
-150.618	800.000	0.122	-0.343
-149.604	-103.555	0.357	0.083
-148.589	31.715	0.156	0.133
-147.574	-88.789	0.272	-0.080
-146.560	87.296	0.023	0.025
-145.545	-169.285	-0.362	0.013
-144.531	179.227	0.110	-0.160
-143.516	-38.676	0.015	-0.008
-142.502	-200.000	0.033	0.146
-141.487	-115.062	-0.045	0.008
-140.472	-70.786	0.179	0.067
-139.458	-93.539	0.381	0.104
-138.443	-200.000	-0.160	-0.001
-137.429	-200.000	0.024	-0.204
-136.414	-200.000	0.012	-0.196
-135.399	177.878	-0.173	0.250
-134.385	-200.000	0.039	-0.244
-133.370	-47.247	0.204	-0.099
-132.356	771.493	0.058	0.156
-131.341	593.979	0.043	0.106
-130.326	530.524	0.065	-0.152
-129.312	118.068	0.142	-0.173
-128.297	61.466	0.176	0.173
-127.283	649.992	-0.072	-0.182
-126.268	-200.000	0.002	-0.056
-125.253	-200.000	-0.011	0.067
-124.239	132.400	0.116	0.148
-123.224	-25.003	0.170	-0.100
-122.210	-10.893	-0.157	0.103
-121.195	-200.000	-0.036	0.174
-120.180	132.018	0.208	0.265
-119.166	-86.803	-0.098	0.030
-118.151	-109.962	-0.068	-0.014
-117.137	-12.450	0.152	0.098
-116.122	-172.515	-0.561	-0.018
-115.107	524.244	0.141	-0.328
-114.093	800.000	0.125	-0.410
-113.078	-200.000	-0.000	0.069
-112.064	330.066	0.055	-0.105
-111.049	-126.622	-0.198	0.029
-110.034	-3.590	-0.102	-0.070
-109.020	-166.562	0.125	-0.005
-108.005	-174.654	0.118	-0.003
-106.991	800.000	-0.062	0.182
-105.976	276.610	0.039	-0.069
-104.962	-134.420	-0.246	0.030
-103.947	-70.162	-0.452	-0.170
-102.932	69.218	0.049	-0.050
-101.918	-200.000	-0.003	-0.123
-100.903	-200.000	0.001	-0.049
-99.889	68.966	-0.169	0.172
-98.874	-153.884	-0.219	-0.015
-97.859	41.043	0.232	0.208
-96.845	290.779	0.129	-0.232
-95.830	800.000	-0.075	0.262
-94.816	-68.153	0.247	-0.095
-93.801	-200.000	0.047	-0.294
-92.786	-17.874	0.281	0.175
-91.772	491.350	-0.162	0.367
-90.757	-200.000	0.046	0.312
-89.743	-200.000	-0.048	0.265
-88.728	196.077	0.278	-0.419
-87.713	-24.498	0.316	0.186
-86.699	40.205	0.221	-0.196
-85.684	-75.816	0.245	-0.086
-84.670	-160.721	0.109	-0.006
-83.655	-103.990	0.043	0.010
-82.640	-14.788	-0.228	0.145
-81.626	9.075	-0.132	-0.098
-80.611	-0.835	-0.212	0.148
-79.597	800.000	-0.014	-0.059
-78.582	-87.502	0.299	0.089
-77.567	-30.247	0.112	-0.063
-76.553	271.234	-0.109	-0.190
-75.538	-200.000	-0.008	-0.077
-74.524	-200.000	-0.074	-0.398
-73.509	194.054	-0.096	0.144
-72.494	67.452	-0.087	-0.088
-71.480	-200.000	0.021	-0.215
-70.465	-96.498	0.141	-0.037
-69.451	-36.866	-0.143	0.076
-68.436	-116.909	0.233	-0.042
-67.422	413.968	0.010	0.021
-66.407	-200.000	-0.027	-0.164
-65.392	-76.650	0.170	-0.059
-64.378	800.000	-0.113	-0.443
-63.363	310.002	0.025	0.045
-62.349	-11.102	0.149	0.097
-61.334	29.967	-0.710	-0.598
-60.319	222.121	0.310	0.493
-59.305	800.000	-0.192	-0.744
-58.290	385.158	0.441	0.898
-57.276	800.000	0.648	1.781
-56.261	-200.000	95.122	576.547
-55.246	566.069	1369.870	3283.392
-54.232	154.059	2572.975	3486.624
-53.217	117.114	2162.332	2624.945
-52.203	47.505	1621.881	1493.915
-51.188	39.235	1358.850	1201.346
-50.173	35.901	1316.489	1144.074
-49.159	58.047	1365.435	1321.044
-48.144	62.493	1383.479	1365.276
-47.130	39.652	1337.212	1184.534
-46.115	35.902	1319.562	1146.571
-45.100	35.857	1314.911	1142.213
-44.086	35.634	1312.264	1138.547
-43.071	35.604	1309.924	1136.294
-42.057	35.544	1307.905	1134.146
-41.042	35.575	1306.344	1132.930
-40.027	35.718	1304.753	1132.348
-39.013	35.682	1302.519	1130.152
-37.998	35.753	1300.906	1129.126
-36.984	35.796	1299.254	1127.896
-35.969	35.788	1297.500	1126.285
-34.954	35.914	1295.287	1125.053
-33.940	35.734	1294.511	1123.281
-32.925	35.897	1292.894	1122.785
-31.911	35.850	1291.845	1121.560
-30.896	35.991	1290.012	1120.743
-29.881	35.946	1288.886	1119.459
-28.867	35.806	1287.928	1117.768
-27.852	35.926	1285.963	1116.713
-26.838	35.902	1284.486	1115.249
-25.823	35.930	1283.294	1114.333
-24.809	35.893	1281.592	1112.595
-23.794	35.888	1280.059	1111.192
-22.779	35.850	1279.276	1110.250
-21.765	35.800	1278.043	1108.844
-20.750	35.728	1276.735	1107.255
-19.736	35.791	1275.540	1106.533
-18.721	35.775	1274.005	1105.070
-17.706	35.726	1273.287	1104.120
-16.692	35.672	1271.811	1102.486
-15.677	35.747	1270.679	1101.893
-14.663	35.657	1269.574	1100.375
-13.648	35.690	1268.571	1099.652
-12.633	35.701	1267.399	1098.654
-11.619	35.666	1266.917	1097.993
-10.604	35.601	1265.937	1096.726
-9.590	35.693	1264.858	1096.276
-8.575	35.674	1263.972	1095.357
-7.560	35.577	1263.218	1094.104
-6.546	35.619	1262.420	1093.607
-5.531	35.600	1261.502	1092.662
-4.517	35.637	1260.344	1091.824
-3.502	35.717	1259.392	1091.415
-2.487	35.798	1258.579	1091.127
-1.473	35.611	1254.387	1086.389
-0.458	33.670	1239.209	1062.346
0.556	30.189	1219.187	1017.758
1.571	25.688	1223.407	996.340
2.586	24.560	1237.660	1001.536
3.600	23.645	1226.579	987.393
4.615	17.469	1154.150	896.577
5.629	7.571	1077.332	787.935
6.644	3.115	1056.291	750.763
7.659	2.832	1053.282	747.182
8.673	2.565	1052.239	745.081
9.688	2.520	1050.961	743.889
10.702	3.002	1049.080	744.829
11.717	8.782	1057.540	778.944
12.731	18.933	1071.721	839.107
13.746	24.756	1079.509	873.667
14.761	26.063	1081.077	881.247
15.775	26.166	1080.836	881.472
16.790	26.163	1079.786	880.525
17.804	25.901	1079.224	878.711
18.819	25.921	1079.331	878.817
19.834	26.241	1078.666	879.759
20.848	26.321	1078.009	879.535
21.863	26.284	1077.613	878.951
22.877	26.275	1076.841	878.201
23.892	26.112	1076.059	876.694
24.907	26.107	1075.535	876.167
25.921	26.223	1074.186	875.550
26.936	26.160	1073.136	874.311
27.950	26.068	1071.645	872.574
28.965	25.922	1069.676	870.192
29.980	26.024	1068.265	869.457
30.994	26.315	1067.763	870.373
32.009	26.370	1066.254	869.330
33.023	26.106	1065.127	867.070
34.038	26.133	1064.458	866.574
35.053	26.150	1064.436	866.563
36.067	26.150	1063.386	865.632
37.082	26.203	1062.791	865.324
38.096	26.406	1061.946	865.533
39.111	26.446	1061.219	865.054
40.126	26.292	1059.683	862.992
41.140	25.924	1057.911	859.717
42.155	25.725	1056.463	857.515
43.169	25.893	1055.447	857.416
44.184	25.939	1054.483	856.775
45.199	25.717	1054.013	855.258
46.213	25.799	1053.194	854.911
47.228	26.088	1052.294	855.474
48.242	26.074	1051.729	854.875
49.257	26.098	1051.090	854.391
50.271	26.170	1050.520	854.193
51.286	26.337	1048.997	853.667
52.301	26.283	1048.458	852.898
53.315	26.174	1047.579	851.593
54.330	26.098	1046.751	850.490
55.344	26.166	1046.066	850.178
56.359	26.183	1045.195	849.473
57.374	25.922	1044.002	847.200
58.388	25.947	1043.379	846.737
59.403	25.945	1042.065	845.586
60.417	25.645	1041.848	843.930
61.432	25.868	1040.834	844.079
62.447	25.933	1040.850	844.320
63.461	26.060	1039.423	843.682
64.476	25.930	1038.315	842.100
65.490	25.748	1037.824	840.778
66.505	25.834	1037.269	840.657
67.520	25.914	1036.948	840.696
68.534	25.682	1035.515	838.380
69.549	25.399	1034.494	836.160
70.563	25.471	1033.573	835.677
71.578	25.438	1032.785	834.811
72.593	25.286	1031.860	833.287
73.607	25.439	1031.469	833.605
74.622	25.761	1031.035	834.676
75.636	25.560	1030.383	833.140
76.651	25.612	1029.289	832.424
77.666	25.513	1028.442	831.209
78.680	25.514	1028.056	830.826
79.695	25.683	1027.293	830.919
80.709	25.868	1026.264	830.863
81.724	25.861	1025.472	830.116
82.739	25.849	1024.939	829.555
83.753	26.181	1024.336	830.521
84.768	26.423	1023.875	831.189
85.782	26.456	1023.435	830.908
86.797	26.489	1022.231	830.010
87.812	26.346	1021.105	828.367
88.826	26.439	1020.399	828.146
89.841	26.555	1019.453	827.835
90.855	26.481	1018.684	826.800
91.870	26.391	1017.715	825.531
92.884	26.420	1016.280	824.423
93.899	26.267	1015.559	823.070
94.914	26.541	1014.875	823.687
95.928	26.314	1013.496	821.468
96.943	25.969	1012.974	819.403
97.957	25.851	1011.100	817.277
98.972	25.829	1010.316	816.471
99.987	26.071	1009.890	817.153
101.001	26.143	1009.219	816.863
102.016	26.135	1008.298	816.008
103.030	26.210	1006.992	815.220
104.045	26.159	1005.843	813.988
105.060	25.769	1005.238	811.668
106.074	26.037	1004.666	812.340
107.089	26.319	1004.242	813.196
108.103	26.203	1003.235	811.787
109.118	25.920	1002.201	809.610
110.133	25.969	1001.101	808.868
111.147	25.695	999.936	806.624
112.162	25.622	998.894	805.386
113.176	25.783	998.836	805.991
114.191	25.847	997.410	805.053
115.206	25.479	996.405	802.527
116.220	25.462	995.680	801.797
117.235	25.563	995.289	801.862
118.249	25.602	994.114	801.019
119.264	25.417	993.332	799.496
120.279	25.596	992.359	799.439
121.293	25.587	991.981	799.019
122.308	25.606	990.958	798.212
123.322	25.488	990.115	796.938
124.337	25.460	988.646	795.562
125.352	24.916	986.877	791.662
126.366	24.873	986.319	790.955
127.381	25.571	986.544	794.150
128.395	25.929	986.376	795.524
129.410	26.284	984.870	795.802
130.424	26.213	984.304	794.963
131.439	26.148	983.477	793.940
132.454	26.022	982.795	792.763
133.468	26.100	981.689	792.143
134.483	26.196	981.003	791.942
135.497	26.382	980.357	792.167
136.512	26.337	979.575	791.266
137.527	26.431	978.721	790.917
138.541	26.400	977.798	789.968
139.556	26.336	977.473	789.353
140.570	26.556	976.376	789.358
141.585	26.461	975.341	788.036
142.600	26.462	974.262	787.101
143.614	26.574	973.960	787.275
144.629	26.784	972.658	787.064
145.643	26.627	971.249	785.172
146.658	26.268	970.446	782.897
147.673	26.192	969.301	781.579
148.687	26.208	967.905	780.453
149.702	26.102	966.984	779.184
150.716	25.979	966.376	778.092
151.731	26.358	965.389	778.860
152.746	26.457	964.856	778.790
153.760	26.528	964.466	778.710
154.775	26.596	963.859	778.444
155.789	26.577	962.572	777.256
156.804	26.464	962.033	776.268
157.819	26.656	960.938	776.137
158.833	26.618	960.933	775.900
159.848	26.760	959.485	775.269
160.862	26.627	958.179	773.578
161.877	26.637	957.117	772.696
162.892	26.551	956.598	771.842
163.906	26.435	954.991	769.983
164.921	26.456	954.490	769.599
165.935	26.560	953.549	769.217
166.950	26.548	952.613	768.339
167.964	26.566	951.801	767.696
168.979	26.365	950.877	766.030
169.994	26.320	949.612	764.754
171.008	26.645	949.004	765.568
172.023	26.544	948.938	765.022
173.037	26.506	947.249	763.430
174.052	26.207	946.769	761.716
175.067	26.303	945.880	761.338
176.081	26.338	945.325	760.973
177.096	26.346	944.517	760.289
178.110	26.035	944.073	758.558
179.125	25.809	943.610	757.168
180.140	25.895	943.175	757.113
181.154	26.115	942.618	757.523
182.169	26.291	942.567	758.151
183.183	26.548	942.014	758.717
184.198	26.483	941.153	757.684
185.213	26.439	940.404	756.830
186.227	26.566	939.629	756.669
187.242	26.539	939.184	756.131
188.256	26.636	938.709	756.090
189.271	26.585	937.907	755.163
190.286	26.289	936.539	752.759
191.300	25.746	934.847	749.074
192.315	24.798	933.774	744.207
193.329	24.720	933.460	743.570
194.344	25.779	933.787	748.165
195.359	26.450	933.397	750.572
196.373	26.508	932.970	750.402
197.388	26.349	932.714	749.471
198.402	26.465	932.002	749.311
199.417	26.357	931.751	748.598
200.432	26.123	930.434	746.507
201.446	25.933	930.296	745.544
202.461	26.110	929.013	745.180
203.475	25.207	927.629	740.279
204.490	24.404	926.249	735.803
205.504	25.202	926.600	739.306
206.519	26.035	926.436	742.540
207.534	26.077	926.065	742.351
208.548	26.444	925.552	743.382
209.563	26.345	924.489	742.058
210.577	26.164	923.872	740.754
211.592	26.581	923.960	742.469
212.607	26.504	923.348	741.595
213.621	26.748	922.422	741.786
214.636	26.566	922.085	740.706
215.650	26.541	920.839	739.535
216.665	26.623	920.392	739.447
217.680	26.587	919.550	738.556
218.694	26.165	918.674	736.069
219.709	26.095	917.734	734.965
220.723	26.361	917.376	735.698
221.738	26.416	916.865	735.446
222.753	26.438	916.300	735.013
223.767	26.497	915.858	734.835
224.782	26.692	915.779	735.499
225.796	26.632	915.391	734.880
226.811	26.125	913.657	731.366
227.826	25.405	912.245	727.258
228.840	25.690	911.503	727.754
229.855	25.650	911.073	727.188
230.869	25.225	909.924	724.487
231.884	25.854	910.043	727.059
232.899	26.360	910.080	729.066
233.913	26.205	909.751	728.111
234.928	26.277	909.182	727.883
235.942	26.245	907.967	726.716
236.957	25.871	907.447	724.732
237.972	26.043	906.705	724.768
238.986	26.095	906.171	724.483
240.001	26.011	905.696	723.703
241.015	26.028	905.487	723.541
242.030	26.202	905.225	723.966
243.045	26.476	904.209	724.185
244.059	26.716	903.924	724.855
245.074	26.407	902.915	722.744
246.088	26.090	901.741	720.477
247.103	26.426	901.213	721.332
248.117	26.882	902.112	723.808
249.132	27.121	901.524	724.222
250.147	27.285	900.902	724.314
251.161	27.398	900.246	724.170
252.176	27.270	899.909	723.328
253.190	27.410	899.294	723.325
254.205	27.521	898.722	723.240
255.220	27.376	898.322	722.278
256.234	27.277	897.439	721.114
257.249	27.179	896.831	720.173
258.263	27.232	896.099	719.731
259.278	27.308	895.488	719.476
260.293	27.420	894.830	719.326
261.307	27.375	893.797	718.255
262.322	27.116	893.286	716.760
263.336	26.350	891.505	712.250
264.351	25.369	889.240	706.522
265.366	25.427	889.289	706.726
266.380	26.498	889.972	711.419
267.395	26.937	889.943	713.057
268.409	26.900	889.001	712.096
269.424	27.005	888.671	712.180
270.439	27.127	888.144	712.174
271.453	27.208	887.551	711.950
272.468	27.248	887.442	711.958
273.482	27.356	886.671	711.699
274.497	26.934	885.648	709.167
275.512	26.601	884.760	707.091
276.526	27.165	884.550	709.061
277.541	27.193	884.502	709.072
278.555	26.999	883.449	707.409
279.570	26.841	882.781	706.195
280.585	26.960	882.293	706.204
281.599	27.024	881.066	705.410
282.614	26.361	879.775	701.739
283.628	26.436	879.307	701.595
284.643	26.732	879.464	702.808
285.657	26.394	878.107	700.351
286.672	26.016	877.379	698.245
287.687	26.658	877.522	700.783
288.701	26.705	876.985	700.475
289.716	26.357	875.919	698.215
290.730	26.287	875.220	697.327
291.745	26.190	874.363	696.210
292.760	26.423	874.458	697.120
293.774	27.366	874.651	700.846
294.789	27.732	874.621	702.169
295.803	27.601	873.786	700.932
296.818	27.792	872.877	700.876
297.833	27.274	872.061	698.170
298.847	27.026	871.657	696.834
299.862	27.363	871.063	697.590
300.876	27.822	870.528	698.858
301.891	27.703	870.009	697.923
302.906	27.227	869.155	695.356
303.920	27.375	868.897	695.654
304.935	27.743	868.631	696.784
305.949	27.707	867.937	696.028
306.964	27.287	867.686	694.166
307.979	27.396	867.065	694.024
308.993	27.759	866.647	695.010
310.008	27.920	865.788	694.870
311.022	27.639	864.881	693.013
312.037	27.363	864.671	691.735
313.052	27.090	863.658	689.828
314.066	26.260	861.776	685.119
315.081	25.797	861.461	683.049
316.095	26.777	861.742	686.927
317.110	27.275	861.557	688.606
318.125	26.474	859.862	684.163
319.139	25.499	858.042	678.972
320.154	25.412	858.142	678.662
321.168	26.173	859.036	682.188
322.183	26.787	858.918	684.352
323.197	27.104	858.378	685.055
324.212	27.260	858.109	685.370
325.227	27.360	857.218	684.973
326.241	27.383	856.713	684.595
327.256	27.062	856.300	682.997
328.270	26.962	855.419	681.857
329.285	27.005	854.336	681.096
330.300	26.662	853.563	679.134
331.314	26.894	853.663	680.022
332.329	27.399	853.439	681.676
333.343	27.619	853.085	682.156
334.358	27.417	852.661	681.002
335.373	27.462	852.183	680.728
336.387	27.705	852.418	681.764
337.402	27.984	852.198	682.568
338.416	28.056	851.521	682.236
339.431	27.948	851.409	681.684
340.446	28.203	851.268	682.459
341.460	28.060	850.382	681.158
342.475	27.813	850.050	679.911
343.489	27.971	849.562	680.049
344.504	28.162	849.578	680.712
345.519	28.525	848.752	681.340
346.533	28.374	848.646	680.633
347.548	28.340	848.308	680.174
348.562	28.355	847.554	679.567
349.577	28.199	847.066	678.536
350.592	28.269	846.188	678.031
351.606	28.358	844.979	677.334
352.621	28.052	844.607	675.843
353.635	28.031	843.881	675.126
354.650	27.418	842.452	671.662
355.665	26.465	840.788	666.763
356.679	26.896	840.953	668.425
357.694	27.316	840.632	669.656
358.708	27.271	840.027	668.950
359.723	27.717	839.489	670.101
360.738	27.982	839.181	670.767
361.752	28.047	838.589	670.475
362.767	28.484	838.522	671.964
363.781	28.541	838.638	672.207
364.796	28.705	837.732	672.019
365.810	28.766	837.633	672.103
366.825	28.823	836.948	671.704
367.840	28.334	836.188	669.249
368.854	27.906	835.279	666.900
369.869	27.998	834.766	666.766
370.883	28.063	834.260	666.540
371.898	27.871	834.114	665.664
372.913	28.059	834.032	666.225
373.927	28.067	833.393	665.687
374.942	28.223	833.147	665.998
375.956	28.485	832.449	666.335
376.971	28.596	832.211	666.488
377.986	28.697	831.788	666.457
379.000	28.725	830.822	665.724
380.015	28.495	830.619	664.671
381.029	28.614	829.975	664.526
382.044	28.604	829.714	664.223
383.059	28.599	828.983	663.559
384.073	28.609	828.386	663.059
385.088	28.609	827.642	662.405
386.102	28.324	827.088	660.874
387.117	28.432	826.241	660.531
388.132	28.005	825.175	658.083
389.146	27.454	824.435	655.451
390.161	27.954	824.547	657.282
391.175	28.394	824.323	658.625
392.190	27.850	823.427	655.899
393.205	26.722	820.968	649.840
394.219	25.223	819.233	643.041
395.234	25.042	819.047	642.190
396.248	26.552	820.757	648.892
397.263	28.080	821.604	654.982
398.278	28.027	821.184	654.397
399.292	27.895	820.258	653.129
400.307	27.871	819.912	652.711
401.321	27.906	819.316	652.303
402.336	28.450	819.372	654.234
403.350	28.923	819.057	655.609
404.365	29.189	818.896	656.371
405.380	29.329	818.983	656.881
406.394	29.381	818.508	656.629
407.409	29.310	817.868	655.804
408.423	29.354	817.258	655.413
409.438	29.344	817.168	655.247
410.453	29.287	816.813	654.704
411.467	29.224	816.198	653.930
412.482	29.260	815.690	653.589
413.496	29.468	815.422	654.055
414.511	29.491	814.954	653.705
415.526	29.496	814.362	653.188
416.540	29.257	813.701	651.755
417.555	28.788	813.346	649.756
418.569	29.107	812.818	650.402
419.584	28.949	812.079	649.197
420.599	28.764	811.480	648.006
421.613	107.543	1282.224	1438.595
422.628	92.949	1350.823	1438.691
