DTS Sentinel unit serial number:	SN413079Multiplexer serial number:	ORYXHardware model number:	OX4-SRSoftware version number:	ORYX F/W v4.00 Oryx Data Collector v3.7.2.0data status	okinstallation	princeton_trtdifferential loss correction	single-endedforward channel	channel 1reverse channel	N/Adate	2019/09/19time	11:22:35forward acquisition time	60.00reverse acquisition time	0.00gamma	496.2192k internal	0.2338k external	0.2338temperature offset calibration	1.0010default loss term (dB/km)	0.3790temperature slope calibration	1.0000multiplexer offset coefficient	1.0000multiplexer slope coefficient	1.0000fibre end	0.00T internal ref (°C)	25.25T ext. ref 1 (°C)	0.79T ext. ref 2 (°C)	20.94length (m)	temperature (°C)	Stokes	anti-Stokes-747.200	-18.157	-0.187	0.117
-746.185	800.000	0.063	-0.209
-745.171	538.353	0.122	0.291
-744.156	249.104	0.017	0.028
-743.142	290.536	-0.113	0.207
-742.127	-200.000	-0.060	0.277
-741.112	-28.067	0.060	0.035
-740.098	-64.906	-0.073	0.030
-739.083	72.059	0.135	-0.141
-738.069	-200.000	-0.067	0.512
-737.054	-92.311	0.208	-0.059
-736.039	-110.247	-0.471	-0.098
-735.025	181.310	0.199	0.293
-734.010	-34.260	-0.351	-0.193
-732.996	-37.111	-0.042	0.023
-731.981	48.838	0.143	0.135
-730.966	644.732	-0.048	-0.123
-729.952	327.169	-0.053	-0.102
-728.937	-166.007	-0.200	-0.009
-727.923	-62.759	0.243	-0.101
-726.908	58.095	-0.255	0.251
-725.894	-30.587	0.199	-0.113
-724.879	93.467	0.289	0.328
-723.864	-110.501	0.338	-0.070
-722.850	-15.025	-0.084	0.054
-721.835	-200.000	0.040	-0.190
-720.821	-98.453	-0.362	0.093
-719.806	-53.847	-0.369	-0.169
-718.791	6.590	-0.345	-0.257
-717.777	38.097	0.095	-0.085
-716.762	-200.000	0.017	-0.177
-715.748	-76.363	-0.168	-0.059
-714.733	335.676	0.027	-0.053
-713.718	41.086	0.360	-0.326
-712.704	198.088	0.037	-0.057
-711.689	90.131	-0.095	-0.106
-710.675	-160.108	-0.086	0.005
-709.660	348.496	0.226	0.446
-708.645	100.809	0.068	0.080
-707.631	45.700	-0.277	0.257
-706.616	19.856	-0.161	0.130
-705.602	346.412	-0.110	-0.217
-704.587	-58.921	-0.212	0.092
-703.572	-200.000	0.011	0.382
-702.558	651.396	0.109	0.279
-701.543	800.000	0.020	-0.082
-700.529	-181.304	-0.221	0.004
-699.514	-170.277	-0.151	-0.005
-698.499	42.025	-0.312	-0.284
-697.485	-25.458	-0.270	-0.160
-696.470	39.161	-0.401	0.359
-695.456	-106.944	0.400	-0.089
-694.441	-106.193	0.135	-0.030
-693.426	245.775	-0.040	0.068
-692.412	382.061	0.079	0.162
-691.397	153.534	0.155	-0.213
-690.383	29.287	-0.100	0.085
-689.368	-125.292	0.235	-0.036
-688.354	-200.000	-0.006	0.115
-687.339	-200.000	-0.013	0.292
-686.324	250.241	-0.153	0.261
-685.310	380.807	0.056	0.115
-684.295	-84.556	-0.358	0.113
-683.281	-77.803	-0.074	0.025
-682.266	31.620	0.120	0.103
-681.251	-200.000	-0.367	-0.000
-680.237	-200.000	-0.010	-0.153
-679.222	-52.560	-0.271	-0.125
-678.208	-106.263	-0.397	-0.089
-677.193	-200.000	0.024	0.279
-676.178	-43.368	0.172	-0.087
-675.164	421.728	0.073	-0.156
-674.149	-36.351	-0.191	0.103
-673.135	-200.000	-0.007	0.091
-672.120	-200.000	-0.003	-0.409
-671.105	165.490	-0.130	-0.184
-670.091	73.605	-0.302	0.316
-669.076	800.000	0.030	-0.092
-668.062	-90.055	-0.248	0.072
-667.047	-200.000	0.009	-0.169
-666.032	-200.000	0.029	-0.181
-665.018	-60.060	-0.290	0.124
-664.003	800.000	-0.065	-0.221
-662.989	528.994	-0.139	0.327
-661.974	85.047	0.212	0.232
-660.959	279.224	0.066	-0.117
-659.945	-179.151	-0.368	0.008
-658.930	148.589	0.273	-0.369
-657.916	-39.387	0.081	-0.043
-656.901	-69.851	-0.184	-0.070
-655.886	-52.154	0.176	-0.082
-654.872	218.770	-0.184	0.294
-653.857	-200.000	0.066	0.305
-652.843	-200.000	0.037	-0.273
-651.828	706.170	0.072	-0.191
-650.814	37.368	-0.172	-0.152
-649.799	24.752	0.146	0.121
-648.784	-66.975	0.102	-0.040
-647.770	-10.056	0.212	0.141
-646.755	-85.123	-0.327	-0.102
-645.741	-39.817	-0.407	0.213
-644.726	279.564	0.100	-0.179
-643.711	274.599	-0.117	-0.207
-642.697	-1.250	-0.265	-0.187
-641.682	38.281	0.153	-0.136
-640.668	-200.000	0.021	-0.410
-639.653	-200.000	-0.039	0.187
-638.638	324.493	0.132	-0.252
-637.624	-200.000	0.018	-0.131
-636.609	-20.017	-0.198	-0.122
-635.595	27.304	-0.226	-0.190
-634.580	-4.405	-0.067	-0.047
-633.565	-200.000	-0.019	0.103
-632.551	-200.000	0.015	-0.118
-631.536	140.727	-0.298	-0.393
-630.522	-30.670	-0.100	0.057
-629.507	-0.514	0.107	0.076
-628.492	47.224	0.251	-0.234
-627.478	47.076	-0.107	-0.100
-626.463	-10.357	-0.266	-0.176
-625.449	-133.199	0.050	0.006
-624.434	447.178	-0.101	0.221
-623.419	174.861	-0.034	0.050
-622.405	74.926	0.138	0.146
-621.390	35.536	0.038	0.033
-620.376	114.342	0.148	-0.180
-619.361	800.000	-0.042	0.155
-618.346	-200.000	-0.036	-0.257
-617.332	64.226	-0.088	-0.088
-616.317	800.000	0.015	0.044
-615.303	-131.394	-0.222	0.029
-614.288	22.477	0.275	-0.224
-613.273	-200.000	0.046	0.209
-612.259	-200.000	0.009	-0.141
-611.244	-200.000	0.059	-0.474
-610.230	163.531	-0.106	0.149
-609.215	-108.441	0.069	-0.015
-608.201	-29.549	0.114	-0.065
-607.186	347.226	0.140	0.275
-606.171	151.487	0.124	0.169
-605.157	-191.983	-0.051	0.000
-604.142	-134.256	-0.238	-0.029
-603.128	-200.000	0.010	-0.125
-602.113	103.890	-0.032	0.037
-601.098	800.000	-0.044	0.135
-600.084	-176.235	0.127	0.003
-599.069	370.039	-0.024	-0.049
-598.055	106.071	-0.193	0.228
-597.040	800.000	-0.110	-0.459
-596.025	-53.258	-0.330	-0.151
-595.011	-79.922	0.221	-0.074
-593.996	176.137	0.081	0.118
-592.982	525.013	-0.098	-0.229
-591.967	301.419	0.033	0.060
-590.952	512.681	-0.118	-0.275
-589.938	1.909	-0.071	-0.051
-588.923	-200.000	0.064	0.352
-587.909	800.000	-0.175	0.484
-586.894	800.000	0.082	-0.237
-585.879	147.558	-0.026	0.035
-584.865	-29.560	-0.213	0.121
-583.850	-77.073	-0.077	0.027
-582.836	-129.229	0.226	0.031
-581.821	-200.000	0.004	0.291
-580.806	45.114	-0.168	-0.155
-579.792	-48.364	-0.155	-0.074
-578.777	132.715	-0.041	-0.052
-577.763	800.000	-0.020	0.086
-576.748	572.657	0.169	-0.410
-575.733	50.727	-0.110	-0.103
-574.719	-200.000	0.099	0.000
-573.704	-200.000	0.006	-0.080
-572.690	92.501	0.216	0.243
-571.675	231.569	-0.120	-0.197
-570.661	145.313	-0.200	-0.266
-569.646	-200.000	-0.002	0.024
-568.631	-1.776	0.300	-0.210
-567.617	-173.401	0.016	0.000
-566.602	61.029	0.231	-0.228
-565.588	61.035	0.153	-0.151
-564.573	-121.119	0.226	0.038
-563.558	340.730	0.089	0.173
-562.544	94.147	-0.119	0.135
-561.529	-200.000	0.000	0.096
-560.515	-200.000	-0.063	-0.616
-559.500	6.549	0.054	0.040
-558.485	7.122	0.168	-0.125
-557.471	136.111	0.147	-0.191
-556.456	-116.653	0.129	-0.024
-555.442	-67.105	0.065	-0.026
-554.427	-28.103	0.198	0.114
-553.412	-200.000	-0.048	-0.469
-552.398	-111.315	0.542	0.110
-551.383	601.827	-0.060	-0.148
-550.369	-86.160	-0.169	0.052
-549.354	-136.675	-0.188	-0.022
-548.339	370.134	0.099	-0.201
-547.325	369.507	-0.088	-0.178
-546.310	203.674	0.155	-0.239
-545.296	-84.736	-0.417	0.131
-544.281	17.567	-0.148	-0.117
-543.266	-19.532	-0.177	0.109
-542.252	38.863	-0.104	0.092
-541.237	525.692	0.177	-0.414
-540.223	-17.150	-0.198	0.124
-539.208	-200.000	0.074	-0.391
-538.193	-116.990	0.119	0.022
-537.179	126.676	-0.187	-0.235
-536.164	-49.928	0.059	-0.028
-535.150	132.826	-0.258	-0.331
-534.135	800.000	-0.047	-0.184
-533.121	-200.000	0.008	-0.150
-532.106	-132.412	-0.091	0.012
-531.091	13.394	0.026	-0.020
-530.077	-200.000	0.005	-0.103
-529.062	473.503	-0.039	0.086
-528.048	-16.390	-0.218	0.138
-527.033	-200.000	0.026	-0.205
-526.018	-200.000	-0.002	0.130
-525.004	389.480	-0.084	0.174
-523.989	800.000	-0.038	-0.117
-522.975	-26.130	0.118	0.069
-521.960	800.000	0.053	-0.195
-520.945	86.106	-0.081	-0.088
-519.931	-200.000	-0.007	0.083
-518.916	-200.000	0.041	-0.241
-517.902	-200.000	0.016	0.180
-516.887	-110.196	0.204	-0.042
-515.872	160.521	0.197	0.274
-514.858	123.539	0.079	0.098
-513.843	800.000	-0.049	0.156
-512.829	188.299	0.174	-0.259
-511.814	-92.369	0.113	0.032
-510.799	-200.000	0.014	-0.172
-509.785	-200.000	0.009	0.074
-508.770	-18.389	0.279	0.173
-507.756	-94.994	-0.073	0.020
-506.741	627.909	-0.101	0.255
-505.726	-108.893	-0.495	0.105
-504.712	-200.000	0.008	-0.062
-503.697	-92.586	0.244	-0.068
-502.683	800.000	-0.095	0.270
-501.668	-5.935	-0.332	0.226
-500.653	472.301	0.116	0.259
-499.639	38.452	-0.183	0.162
-498.624	800.000	0.087	0.265
-497.610	12.561	0.071	-0.055
-496.595	-200.000	-0.047	-0.205
-495.581	-4.636	0.220	0.151
-494.566	-6.218	-0.113	-0.076
-493.551	-86.732	-0.318	0.097
-492.537	800.000	-0.019	0.057
-491.522	-46.765	0.151	0.073
-490.508	462.592	-0.087	-0.193
-489.493	147.340	0.072	-0.096
-488.478	-79.851	0.355	0.118
-487.464	-200.000	0.017	-0.348
-486.449	-89.088	-0.097	0.028
-485.435	88.716	-0.226	-0.249
-484.420	-103.337	-0.177	0.041
-483.405	800.000	0.027	-0.098
-482.391	440.884	-0.036	-0.078
-481.376	800.000	-0.078	-0.231
-480.362	-72.575	0.191	-0.070
-479.347	-200.000	0.026	0.331
-478.332	-111.852	0.075	-0.015
-477.318	166.570	0.171	0.240
-476.303	197.995	-0.172	0.261
-475.289	800.000	-0.061	0.176
-474.274	-67.526	-0.191	-0.075
-473.259	146.554	-0.065	-0.086
-472.245	-145.698	0.249	-0.022
-471.230	202.527	0.028	0.043
-470.216	-107.387	-0.103	-0.023
-469.201	105.120	-0.150	0.176
-468.186	-130.732	0.033	-0.004
-467.172	59.095	-0.321	-0.313
-466.157	-45.540	-0.156	0.077
-465.143	-200.000	0.046	-0.223
-464.128	63.913	-0.298	-0.297
-463.113	-121.454	-0.150	0.025
-462.099	-30.571	-0.273	-0.154
-461.084	-200.000	0.047	0.304
-460.070	25.070	0.358	-0.295
-459.055	-125.936	0.107	0.016
-458.040	-165.189	0.082	0.004
-457.026	74.530	0.205	0.214
-456.011	33.395	0.072	-0.062
-454.997	11.671	0.092	-0.070
-453.982	703.267	0.044	0.115
-452.968	-56.214	-0.152	0.067
-451.953	101.271	0.008	0.009
-450.938	-37.212	-0.250	0.133
-449.924	-77.806	0.500	0.171
-448.909	-119.041	0.299	0.052
-447.895	-200.000	0.006	0.125
-446.880	-134.764	0.128	-0.015
-445.865	-200.000	0.000	0.220
-444.851	-200.000	-0.018	0.133
-443.836	-75.580	-0.189	0.067
-442.822	-103.193	0.329	-0.077
-441.807	354.230	-0.085	0.167
-440.792	197.138	-0.166	-0.251
-439.778	186.283	0.073	0.108
-438.763	158.307	-0.262	-0.360
-437.749	-133.909	0.136	-0.017
-436.734	-200.000	0.038	0.194
-435.719	-127.474	0.452	0.065
-434.705	151.826	-0.146	-0.198
-433.690	-200.000	0.001	-0.007
-432.676	61.949	0.196	-0.194
-431.661	27.085	-0.225	0.187
-430.646	-57.590	0.240	-0.104
-429.632	-200.000	0.057	-0.275
-428.617	167.697	0.214	-0.302
-427.603	-172.677	-0.359	0.011
-426.588	-56.776	-0.365	-0.160
-425.573	-30.502	0.273	-0.154
-424.559	209.539	-0.104	0.162
-423.544	800.000	-0.059	-0.163
-422.530	209.626	0.023	0.035
-421.515	70.664	-0.103	-0.106
-420.500	-200.000	0.020	-0.131
-419.486	-26.956	0.101	-0.058
-418.471	460.370	-0.109	0.241
-417.457	-200.000	-0.067	0.364
-416.442	-140.702	0.164	0.017
-415.428	-46.139	0.088	0.043
-414.413	-8.500	-0.262	-0.174
-413.398	800.000	-0.104	-0.307
-412.384	-32.527	0.080	-0.044
-411.369	-106.562	0.205	0.045
-410.355	-12.865	-0.190	-0.123
-409.340	328.841	-0.162	-0.308
-408.325	-14.056	0.250	-0.160
-407.311	-84.589	0.199	-0.062
-406.296	-200.000	-0.011	-0.223
-405.282	-80.338	0.289	0.096
-404.267	-98.541	0.196	0.050
-403.252	26.634	-0.135	-0.112
-402.238	-25.003	-0.237	0.139
-401.223	800.000	-0.077	-0.261
-400.209	800.000	-0.016	0.063
-399.194	-1.923	0.307	0.213
-398.179	-73.069	-0.146	-0.053
-397.165	-42.497	0.058	0.029
-396.150	224.275	0.093	-0.149
-395.136	800.000	-0.018	-0.057
-394.121	-42.635	-0.098	0.049
-393.106	-122.482	-0.169	0.027
-392.092	192.423	-0.145	0.217
-391.077	165.432	-0.343	-0.480
-390.063	-105.634	0.297	-0.067
-389.048	76.648	0.224	-0.235
-388.033	187.477	0.069	0.101
-387.019	-200.000	0.078	0.425
-386.004	229.428	-0.149	0.240
-384.990	-16.394	-0.129	0.081
-383.975	663.989	0.207	-0.528
-382.960	-74.233	0.161	-0.057
-381.946	800.000	-0.053	0.224
-380.931	-108.478	0.129	0.028
-379.917	-200.000	-0.035	0.400
-378.902	800.000	-0.020	0.056
-377.888	-141.071	0.025	0.003
-376.873	155.505	-0.140	0.191
-375.858	-115.981	0.248	-0.046
-374.844	479.427	-0.100	0.225
-373.829	153.931	0.247	0.335
-372.815	-61.847	0.075	0.031
-371.800	60.690	-0.082	-0.080
-370.785	288.207	0.211	0.377
-369.771	800.000	-0.074	0.231
-368.756	800.000	0.114	0.445
-367.742	800.000	-0.019	-0.067
-366.727	-39.368	0.090	0.047
-365.712	34.339	0.079	0.068
-364.698	-93.360	-0.063	-0.017
-363.683	-117.772	0.243	-0.043
-362.669	213.849	0.064	0.100
-361.654	-133.425	0.065	0.008
-360.639	255.981	-0.079	0.133
-359.625	-200.000	0.051	-0.359
-358.610	216.273	-0.172	-0.270
-357.596	-100.393	-0.119	-0.029
-356.581	38.920	0.185	-0.163
-355.566	-200.000	-0.004	0.027
-354.552	-200.000	-0.053	-0.373
-353.537	-139.707	0.026	-0.003
-352.523	-200.000	0.023	-0.123
-351.508	800.000	0.091	-0.338
-350.493	502.750	0.119	0.273
-349.479	-200.000	-0.009	-0.296
-348.464	-200.000	-0.002	0.109
-347.450	-77.366	-0.087	0.030
-346.435	440.261	-0.085	0.183
-345.420	-137.181	0.501	-0.056
-344.406	-9.774	0.220	0.144
-343.391	109.956	-0.041	-0.049
-342.377	-127.226	-0.163	0.024
-341.362	609.456	-0.149	0.367
-340.348	-181.576	-0.339	-0.007
-339.333	-200.000	-0.019	0.150
-338.318	-116.813	0.099	-0.018
-337.304	-39.758	-0.197	0.102
-336.289	-118.385	0.300	0.053
-335.275	-200.000	0.048	0.256
-334.260	57.055	-0.284	0.273
-333.245	270.834	-0.159	0.276
-332.231	228.002	0.168	-0.271
-331.216	-121.901	-0.201	0.033
-330.202	338.169	0.148	0.285
-329.187	-200.000	0.016	0.336
-328.172	-61.545	-0.296	0.123
-327.158	-200.000	0.011	-0.340
-326.143	-200.000	-0.025	0.138
-325.129	-32.632	0.295	-0.162
-324.114	-55.002	-0.285	0.127
-323.099	371.417	0.075	0.150
-322.085	-200.000	0.031	0.135
-321.070	800.000	-0.072	-0.236
-320.056	95.411	-0.155	-0.174
-319.041	-200.000	0.034	0.231
-318.026	106.176	-0.051	-0.059
-317.012	-66.612	-0.112	-0.044
-315.997	-9.535	-0.291	0.192
-314.983	-44.567	-0.231	0.114
-313.968	-200.000	-0.008	-0.127
-312.953	-158.783	-0.104	-0.006
-311.939	-34.815	-0.311	0.168
-310.924	-25.120	-0.262	0.153
-309.910	-4.062	-0.133	-0.091
-308.895	-114.814	-0.195	-0.037
-307.880	-45.351	0.186	-0.091
-306.866	-124.944	-0.178	-0.027
-305.851	89.810	0.207	0.228
-304.837	800.000	-0.077	0.330
-303.822	593.468	-0.065	-0.158
-302.807	-167.283	-0.271	-0.011
-301.793	160.206	0.112	-0.154
-300.778	-116.691	0.209	0.038
-299.764	767.536	-0.070	-0.188
-298.749	-21.553	-0.298	-0.179
-297.735	-79.716	-0.386	0.128
-296.720	-200.000	-0.012	-0.232
-295.705	-200.000	0.036	0.321
-294.691	159.864	0.101	0.139
-293.676	105.354	-0.096	0.112
-292.662	-200.000	-0.046	0.259
-291.647	-160.182	-0.193	0.010
-290.632	800.000	0.044	0.159
-289.618	41.030	0.062	0.055
-288.603	-200.000	-0.021	0.117
-287.589	-65.408	0.259	-0.103
-286.574	64.999	-0.065	-0.065
-285.559	-34.535	-0.197	-0.106
-284.545	800.000	0.049	0.142
-283.530	-94.158	0.123	0.033
-282.516	-200.000	-0.010	-0.086
-281.501	-63.148	-0.007	-0.003
-280.486	-200.000	0.001	-0.235
-279.472	-41.401	-0.414	-0.210
-278.457	293.550	-0.034	0.061
-277.443	-50.594	0.151	-0.070
-276.428	144.053	0.300	-0.395
-275.413	800.000	-0.136	0.496
-274.399	800.000	-0.110	0.312
-273.384	-106.589	-0.077	0.017
-272.370	-24.932	-0.163	0.095
-271.355	210.357	-0.175	0.271
-270.340	613.801	-0.099	0.244
-269.326	-122.566	0.326	-0.052
-268.311	5.113	-0.191	-0.139
-267.297	-90.864	-0.084	-0.024
-266.282	-127.905	-0.236	0.033
-265.267	-0.084	0.128	-0.090
-264.253	-34.253	-0.081	0.044
-263.238	-39.685	0.288	0.148
-262.224	-200.000	0.056	-0.311
-261.209	-96.189	0.247	-0.064
-260.195	-188.506	-0.080	-0.001
-259.180	157.754	0.254	0.347
-258.165	-32.154	-0.358	0.197
-257.151	800.000	0.070	0.205
-256.136	-183.772	0.325	-0.005
-255.122	-78.401	0.129	0.044
-254.107	800.000	-0.075	0.246
-253.092	167.042	0.059	-0.082
-252.078	-200.000	-0.002	0.027
-251.063	-165.740	0.296	-0.013
-250.049	123.079	-0.070	-0.086
-249.034	-136.589	-0.103	-0.012
-248.019	800.000	0.106	-0.289
-247.005	104.817	0.061	-0.071
-245.990	-54.134	-0.192	0.086
-244.976	-200.000	0.019	0.088
-243.961	86.138	0.085	0.092
-242.946	-200.000	-0.034	0.183
-241.932	-104.509	0.110	0.025
-240.917	-13.425	-0.090	-0.057
-239.903	-129.733	-0.185	-0.025
-238.888	-11.573	0.166	0.108
-237.873	229.372	0.117	0.189
-236.859	648.719	0.122	0.308
-235.844	79.715	0.140	0.147
-234.830	82.458	0.188	-0.201
-233.815	-10.346	-0.135	0.088
-232.800	327.852	0.100	0.188
-231.786	-200.000	-0.026	0.237
-230.771	-82.171	0.352	0.113
-229.757	297.903	-0.057	-0.102
-228.742	165.830	0.044	-0.061
-227.727	-79.914	0.111	0.037
-226.713	157.146	-0.153	0.208
-225.698	76.436	0.220	-0.229
-224.684	-99.101	0.104	0.026
-223.669	800.000	0.023	0.094
-222.655	-172.128	0.034	0.001
-221.640	-200.000	0.025	0.182
-220.625	-87.255	-0.070	-0.021
-219.611	22.686	-0.136	-0.110
-218.596	-41.152	0.137	0.070
-217.582	471.403	0.080	0.176
-216.567	40.134	-0.050	0.044
-215.552	-95.361	0.018	0.005
-214.538	-200.000	-0.005	0.106
-213.523	146.598	-0.109	-0.145
-212.509	-200.000	0.030	-0.281
-211.494	800.000	0.087	-0.297
-210.479	-52.312	0.090	-0.041
-209.465	1.824	0.330	-0.234
-208.450	-200.000	-0.024	0.176
-207.436	800.000	-0.061	0.218
-206.421	2.793	-0.132	-0.094
-205.406	186.650	0.148	-0.216
-204.392	-156.487	-0.109	-0.007
-203.377	168.900	0.169	-0.237
-202.363	-200.000	-0.056	0.438
-201.348	-119.801	-0.279	0.047
-200.333	800.000	0.112	-0.305
-199.319	27.826	0.121	-0.100
-198.304	148.235	-0.116	0.154
-197.290	-30.954	0.340	0.188
-196.275	-107.975	-0.092	-0.020
-195.260	-180.684	0.352	-0.007
-194.246	-144.404	-0.148	-0.013
-193.231	462.730	0.010	-0.022
-192.217	424.236	0.211	0.445
-191.202	-200.000	0.001	0.201
-190.187	115.079	0.220	-0.264
-189.173	-200.000	-0.078	0.710
-188.158	120.045	0.280	-0.341
-187.144	103.544	-0.058	-0.066
-186.129	-70.672	-0.297	0.110
-185.114	410.684	0.066	-0.138
-184.100	102.948	-0.078	0.090
-183.085	176.385	-0.051	-0.073
-182.071	-200.000	-0.032	0.315
-181.056	37.467	-0.043	0.037
-180.042	-171.145	0.203	0.007
-179.027	-108.796	0.317	0.067
-178.012	-51.601	0.117	-0.054
-176.998	40.909	-0.084	-0.075
-175.983	90.731	-0.030	0.033
-174.969	-200.000	-0.006	-0.070
-173.954	-200.000	-0.016	-0.226
-172.939	254.837	-0.042	0.070
-171.925	148.575	-0.176	-0.233
-170.910	-49.841	0.185	0.086
-169.896	39.524	-0.213	0.187
-168.881	168.504	-0.084	0.118
-167.866	715.664	-0.090	-0.233
-166.852	-45.096	0.393	0.192
-165.837	-200.000	-0.084	0.387
-164.823	-60.484	-0.268	-0.112
-163.808	800.000	0.033	-0.100
-162.793	7.758	-0.394	0.290
-161.779	800.000	0.118	-0.381
-160.764	-49.880	0.378	0.176
-159.750	-10.010	-0.161	0.105
-158.735	272.554	0.060	0.104
-157.720	-127.606	0.182	-0.026
-156.706	-26.541	-0.104	0.060
-155.691	800.000	-0.067	-0.186
-154.677	-200.000	0.018	-0.179
-153.662	-200.000	-0.080	0.357
-152.647	303.537	0.037	-0.067
-151.633	446.826	0.129	-0.278
-150.618	66.273	-0.255	0.254
-149.604	-200.000	-0.019	0.293
-148.589	40.699	-0.071	0.062
-147.574	338.221	0.145	-0.277
-146.560	95.680	-0.139	-0.156
-145.545	-115.674	-0.103	0.019
-144.531	111.074	-0.116	0.137
-143.516	-54.662	-0.069	0.031
-142.502	-175.335	0.201	0.005
-141.487	-200.000	-0.022	0.356
-140.472	106.199	0.169	0.196
-139.458	25.773	-0.234	0.191
-138.443	-128.404	-0.469	-0.065
-137.429	112.290	0.283	0.335
-136.414	415.111	-0.242	0.505
-135.399	-149.868	0.326	0.025
-134.385	-69.932	-0.237	-0.089
-133.370	-91.016	0.146	-0.041
-132.356	-169.104	0.064	-0.002
-131.341	154.630	0.271	0.365
-130.326	69.648	0.335	-0.338
-129.312	800.000	0.092	-0.317
-128.297	-82.849	0.183	-0.058
-127.283	-70.944	0.240	-0.089
-126.268	569.100	-0.147	-0.349
-125.253	157.846	-0.122	-0.166
-124.239	-65.456	-0.212	-0.084
-123.224	87.365	0.188	-0.204
-122.210	271.220	-0.164	-0.283
-121.195	800.000	0.082	-0.247
-120.180	-37.718	-0.217	-0.113
-119.166	601.508	-0.023	0.057
-118.151	-89.578	-0.357	0.103
-117.137	45.523	-0.254	0.230
-116.122	-46.793	0.291	0.139
-115.107	-19.082	0.191	0.116
-114.093	349.112	0.133	0.258
-113.078	800.000	-0.016	-0.045
-112.064	-200.000	0.015	-0.222
-111.049	-178.894	-0.139	-0.003
-110.034	108.713	-0.068	0.080
-109.020	264.624	-0.136	0.232
-108.005	-6.105	-0.306	-0.205
-106.991	309.567	-0.111	-0.203
-105.976	-72.353	-0.113	-0.041
-104.962	15.080	-0.211	0.162
-103.947	-23.809	0.300	-0.176
-102.932	68.773	-0.149	-0.150
-101.918	-200.000	0.054	0.403
-100.903	-200.000	-0.066	-0.438
-99.889	502.732	-0.136	-0.307
-98.874	800.000	0.017	0.058
-97.859	-22.023	-0.168	0.100
-96.845	359.930	0.122	0.238
-95.830	151.066	-0.147	0.196
-94.816	104.511	-0.162	0.187
-93.801	14.178	0.016	-0.012
-92.786	-38.900	-0.036	-0.018
-91.772	233.793	-0.124	0.200
-90.757	134.497	0.058	0.074
-89.743	-38.030	0.327	0.170
-88.728	-7.375	-0.017	0.011
-87.713	503.980	-0.066	-0.150
-86.699	-110.775	-0.216	-0.044
-85.684	-131.587	-0.113	-0.015
-84.670	-94.753	-0.414	0.110
-83.655	-200.000	0.020	-0.152
-82.640	108.925	0.110	0.129
-81.626	-26.130	-0.230	-0.132
-80.611	800.000	-0.008	0.033
-79.597	-200.000	-0.003	0.037
-78.582	800.000	0.046	0.165
-77.567	-119.845	0.191	0.032
-76.553	-111.031	0.146	0.029
-75.538	-200.000	-0.020	0.283
-74.524	-73.451	-0.188	0.067
-73.509	19.313	0.046	0.036
-72.494	-65.092	-0.325	0.128
-71.480	-18.691	0.296	0.180
-70.465	-200.000	0.012	0.173
-69.451	-34.576	-0.200	0.107
-68.436	113.041	-0.053	-0.063
-67.422	-105.910	-0.130	0.029
-66.407	-200.000	0.023	0.244
-65.392	-121.505	0.269	-0.044
-64.378	592.433	0.074	0.178
-63.363	-156.843	-0.177	-0.011
-62.349	79.888	0.144	0.151
-61.334	213.472	-0.771	-1.190
-60.319	639.086	0.340	0.844
-59.305	174.714	-0.450	-0.637
-58.290	311.981	0.477	0.875
-57.276	800.000	0.469	1.418
-56.261	-200.000	119.622	619.664
-55.246	388.779	1575.402	3186.280
-54.232	139.072	2751.315	3533.438
-53.217	96.739	2190.387	2450.916
-52.203	36.880	1616.296	1395.795
-51.188	28.658	1356.419	1121.347
-50.173	25.705	1318.049	1072.026
-49.159	51.331	1381.113	1280.666
-48.144	49.620	1393.661	1281.814
-47.130	28.744	1344.806	1112.093
-46.115	25.484	1326.338	1077.275
-45.100	25.184	1321.496	1071.509
-44.086	25.165	1318.606	1069.008
-43.071	25.182	1315.958	1066.918
-42.057	24.996	1314.672	1064.730
-41.042	25.183	1312.389	1063.948
-40.027	25.229	1310.699	1062.810
-39.013	25.090	1308.945	1060.519
-37.998	25.180	1307.210	1059.607
-36.984	25.240	1305.706	1058.695
-35.969	25.115	1304.503	1056.942
-34.954	25.258	1302.412	1056.052
-33.940	25.267	1300.629	1054.617
-32.925	25.262	1299.710	1053.797
-31.911	25.334	1298.172	1052.933
-30.896	25.292	1296.756	1051.495
-29.881	25.375	1295.113	1050.604
-28.867	25.315	1293.749	1049.109
-27.852	25.412	1292.297	1048.455
-26.838	25.343	1291.164	1047.091
-25.823	25.354	1289.564	1045.817
-24.809	25.357	1288.445	1044.887
-23.794	25.367	1286.984	1043.717
-22.779	25.285	1285.740	1042.190
-21.765	25.340	1284.905	1041.789
-20.750	25.280	1283.245	1040.058
-19.736	25.197	1282.089	1038.596
-18.721	25.261	1280.792	1037.878
-17.706	25.199	1279.708	1036.598
-16.692	25.287	1278.172	1035.820
-15.677	25.304	1277.028	1034.953
-14.663	25.218	1276.048	1033.622
-13.648	25.160	1275.088	1032.466
-12.633	25.280	1273.898	1032.154
-11.619	25.221	1273.161	1031.173
-10.604	25.166	1272.613	1030.375
-9.590	25.284	1270.766	1029.519
-8.575	25.090	1270.357	1028.033
-7.560	25.156	1269.433	1027.621
-6.546	25.315	1268.253	1027.537
-5.531	25.129	1267.681	1025.969
-4.517	25.177	1266.910	1025.576
-3.502	25.173	1266.403	1025.102
-2.487	25.303	1264.681	1024.411
-1.473	25.208	1261.011	1020.858
-0.458	23.840	1246.877	1001.670
0.556	19.722	1230.265	965.863
1.571	16.071	1238.524	951.683
2.586	15.309	1253.286	958.588
3.600	15.073	1241.572	948.211
4.615	11.253	1168.458	871.895
5.629	4.294	1095.037	782.052
6.644	0.971	1077.293	752.807
7.659	0.638	1075.375	749.749
8.673	0.741	1074.384	749.502
9.688	0.801	1073.213	748.919
10.702	0.840	1071.109	747.577
11.717	5.075	1075.955	771.877
12.731	12.119	1085.316	813.578
13.746	16.313	1090.258	838.066
14.761	17.432	1091.111	844.205
15.775	16.638	1089.482	838.934
16.790	15.598	1087.732	832.364
17.804	14.916	1086.056	827.635
18.819	14.547	1084.710	824.708
19.834	14.372	1083.511	822.863
20.848	14.070	1083.061	820.957
21.863	13.792	1082.092	818.778
22.877	13.630	1081.321	817.323
23.892	13.610	1080.345	816.414
24.907	13.568	1079.640	815.602
25.921	13.681	1078.863	815.498
26.936	13.626	1078.257	814.699
27.950	13.842	1076.862	814.632
28.965	13.782	1075.908	813.547
29.980	13.836	1074.541	812.701
30.994	13.796	1073.749	811.836
32.009	13.808	1072.865	811.154
33.023	13.831	1071.610	810.246
34.038	13.712	1070.987	809.126
35.053	13.761	1069.405	808.097
36.067	13.695	1069.429	807.720
37.082	13.703	1067.908	806.541
38.096	13.809	1067.196	806.444
39.111	13.746	1066.978	805.904
40.126	13.705	1065.462	804.490
41.140	13.651	1064.335	803.303
42.155	13.524	1063.149	801.722
43.169	13.598	1062.137	801.245
44.184	13.667	1061.031	800.675
45.199	13.638	1059.846	799.572
46.213	13.625	1058.604	798.499
47.228	13.687	1057.913	798.204
48.242	13.724	1056.605	797.327
49.257	13.792	1055.658	796.870
50.271	13.706	1055.097	795.961
51.286	13.748	1053.917	795.204
52.301	13.700	1053.080	794.272
53.315	13.788	1051.857	793.700
54.330	13.636	1050.993	792.252
55.344	13.710	1050.095	791.857
56.359	13.721	1049.454	791.354
57.374	13.654	1048.410	790.180
58.388	13.598	1047.758	789.349
59.403	13.597	1046.881	788.615
60.417	13.589	1045.875	787.748
61.432	13.529	1045.373	787.018
62.447	13.573	1044.518	786.512
63.461	13.638	1043.504	785.985
64.476	13.645	1042.506	785.197
65.490	13.550	1041.933	784.247
66.505	13.583	1041.171	783.761
67.520	13.594	1040.130	782.962
68.534	13.627	1039.712	782.731
69.549	13.658	1038.897	782.195
70.563	13.615	1038.125	781.343
71.578	13.617	1037.269	780.638
72.593	13.512	1036.367	779.396
73.607	13.422	1036.240	778.811
74.622	13.585	1035.035	778.598
75.636	13.539	1034.396	777.836
76.651	13.534	1033.914	777.380
77.666	13.532	1033.073	776.670
78.680	13.361	1032.903	775.673
79.695	13.587	1032.038	776.012
80.709	13.603	1031.396	775.535
81.724	13.607	1030.764	775.009
82.739	13.719	1029.483	774.500
83.753	13.666	1029.065	773.873
84.768	13.755	1028.044	773.452
85.782	13.626	1027.292	772.216
86.797	13.689	1026.116	771.556
87.812	13.493	1025.056	769.778
88.826	13.736	1023.884	769.957
89.841	13.697	1023.068	769.096
90.855	13.677	1022.336	768.384
91.870	13.928	1021.179	768.609
92.884	13.842	1020.440	767.588
93.899	13.897	1019.181	766.827
94.914	13.918	1018.664	766.469
95.928	13.802	1018.049	765.402
96.943	13.853	1016.944	764.739
97.957	13.912	1015.935	764.183
98.972	13.779	1015.382	763.086
99.987	13.895	1014.311	762.747
101.001	13.792	1013.386	761.511
102.016	13.880	1012.714	761.343
103.030	13.875	1012.147	760.827
104.045	13.938	1011.089	760.252
105.060	13.909	1010.030	759.256
106.074	13.687	1009.455	757.745
107.089	13.785	1008.006	757.038
108.103	13.682	1007.566	756.170
109.118	13.762	1006.496	755.665
110.133	13.723	1005.709	754.830
111.147	13.821	1004.555	754.341
112.162	13.747	1003.885	753.435
113.176	13.795	1003.340	753.178
114.191	13.918	1002.152	752.774
115.206	13.783	1001.277	751.440
116.220	13.781	1001.050	751.195
117.235	13.755	999.500	749.849
118.249	13.765	998.758	749.267
119.264	13.725	998.030	748.477
120.279	13.788	997.206	748.077
121.293	13.861	996.217	747.595
122.308	13.690	995.711	746.381
123.322	13.677	994.414	745.284
124.337	13.786	993.628	745.119
125.352	13.677	992.391	743.636
126.366	13.741	991.503	743.191
127.381	13.723	990.591	742.361
128.395	13.774	989.665	741.829
129.410	13.815	988.459	741.046
130.424	13.902	987.267	740.473
131.439	13.661	987.151	739.248
132.454	13.819	985.970	739.000
133.468	13.836	985.314	738.517
134.483	13.835	984.599	737.911
135.497	13.856	983.565	737.166
136.512	13.706	983.077	736.071
137.527	13.748	981.617	735.099
138.541	13.732	981.433	734.822
139.556	13.796	980.376	734.250
140.570	13.831	979.879	733.966
141.585	13.910	978.638	733.321
142.600	13.962	977.879	732.920
143.614	14.044	976.465	732.154
144.629	14.066	976.045	731.873
145.643	13.981	975.185	730.788
146.658	14.010	973.767	729.787
147.673	13.898	973.102	728.734
148.687	13.891	972.453	728.151
149.702	14.000	971.101	727.554
150.716	13.907	970.879	726.915
151.731	14.002	969.968	726.587
152.746	13.850	969.320	725.369
153.760	13.882	969.222	725.375
154.775	14.033	968.249	725.238
155.789	14.061	967.505	724.739
156.804	13.962	967.053	723.907
157.819	13.988	966.170	723.295
158.833	14.102	965.582	723.284
159.848	14.214	964.466	722.875
160.862	14.086	963.981	721.889
161.877	14.105	962.693	720.944
162.892	14.005	961.758	719.745
163.906	14.167	960.728	719.612
164.921	14.042	960.336	718.717
165.935	13.991	959.321	717.671
166.950	14.194	958.012	717.504
167.964	14.012	957.812	716.505
168.979	14.052	956.828	715.878
169.994	14.115	955.988	715.457
171.008	14.187	955.527	715.359
172.023	14.270	954.537	714.910
173.037	14.281	954.133	714.594
174.052	14.243	953.239	713.697
175.067	14.250	952.262	712.932
176.081	14.249	951.869	712.572
177.096	14.224	951.312	711.983
178.110	14.147	950.791	711.203
179.125	14.249	949.946	710.943
180.140	14.164	949.614	710.268
181.154	14.157	949.214	709.875
182.169	14.369	948.249	709.995
183.183	14.406	947.814	709.765
184.198	14.291	947.097	708.675
185.213	14.550	946.275	709.100
186.227	14.473	945.570	708.180
187.242	14.534	945.026	707.968
188.256	14.490	944.318	707.190
189.271	14.467	943.831	706.664
190.286	14.470	942.621	705.711
191.300	14.291	942.226	704.595
192.315	14.065	942.152	703.520
193.329	14.354	940.922	703.761
194.344	14.351	940.252	703.185
195.359	14.425	940.085	703.307
196.373	14.498	939.025	702.761
197.388	14.321	939.192	702.078
198.402	14.481	938.243	701.980
199.417	14.442	937.959	701.543
200.432	14.602	936.609	701.144
201.446	14.671	936.050	700.951
202.461	14.599	935.902	700.477
203.475	14.696	935.106	700.226
204.490	14.625	934.534	699.437
205.504	14.622	933.745	698.772
206.519	14.640	932.736	698.032
207.534	14.727	932.364	698.055
208.548	14.593	931.660	696.908
209.563	14.575	931.190	696.417
210.577	14.810	930.030	696.468
211.592	14.817	929.395	695.962
212.607	14.766	928.764	695.212
213.621	14.730	928.226	694.599
214.636	14.790	927.541	694.275
215.650	14.695	927.002	693.418
216.665	14.871	925.708	693.115
217.680	14.957	925.086	692.946
218.694	14.914	924.299	692.117
219.709	14.891	924.063	691.785
220.723	14.830	923.338	690.928
221.738	14.903	922.364	690.441
222.753	14.850	921.662	689.634
223.767	14.994	921.347	689.932
224.782	15.008	920.403	689.220
225.796	15.064	919.806	688.942
226.811	14.945	919.354	688.053
227.826	14.966	918.526	687.461
228.840	15.077	917.777	687.294
229.855	14.913	917.265	686.178
230.869	15.063	916.481	686.143
231.884	14.968	915.808	685.190
232.899	15.113	914.581	684.805
233.913	15.027	914.454	684.296
234.928	15.024	913.225	683.305
235.942	14.955	913.198	682.942
236.957	15.032	912.410	682.608
237.972	15.094	911.442	682.074
238.986	14.964	910.970	681.134
240.001	14.961	910.218	680.500
241.015	15.043	909.866	680.508
242.030	15.048	909.317	680.059
243.045	15.127	908.609	679.789
244.059	15.117	908.070	679.285
245.074	15.087	907.682	678.812
246.088	15.288	906.244	678.491
247.103	15.179	905.862	677.703
248.117	15.294	905.138	677.567
249.132	15.281	904.606	677.057
250.147	15.442	903.931	677.140
251.161	15.383	903.177	676.277
252.176	15.258	902.582	675.268
253.190	15.392	901.708	675.094
254.205	15.566	901.214	675.363
255.220	15.481	900.608	674.510
256.234	15.321	900.265	673.550
257.249	15.531	899.421	673.700
258.263	15.479	898.600	672.817
259.278	15.509	897.568	672.106
260.293	15.667	896.837	672.133
261.307	15.678	896.443	671.822
262.322	15.694	895.865	671.391
263.336	15.600	895.588	670.751
264.351	15.636	894.261	669.842
265.366	15.769	893.450	669.702
266.380	15.727	892.944	669.097
267.395	15.678	892.724	668.678
268.409	15.711	891.536	667.862
269.424	15.657	890.910	667.118
270.439	15.543	890.437	666.254
271.453	15.694	889.480	666.076
272.468	15.657	889.501	665.885
273.482	15.829	888.716	665.922
274.497	15.707	888.091	664.911
275.512	15.665	888.006	664.621
276.526	15.787	886.961	664.264
277.541	15.764	886.380	663.678
278.555	15.848	885.733	663.465
279.570	15.949	884.496	662.877
280.585	15.956	884.153	662.591
281.599	15.808	883.413	661.394
282.614	15.978	882.823	661.562
283.628	15.823	882.662	660.775
284.643	15.991	881.866	660.781
285.657	15.976	880.749	659.824
286.672	15.883	880.529	659.238
287.687	15.958	879.824	658.947
288.701	15.981	879.096	658.430
289.716	16.012	878.630	658.147
290.730	16.073	877.867	657.753
291.745	16.110	877.052	657.230
292.760	16.236	876.701	657.397
293.774	16.137	876.029	656.451
294.789	16.144	875.340	655.904
295.803	16.095	874.962	655.372
296.818	16.077	874.073	654.578
297.833	16.192	873.325	654.406
298.847	16.220	872.724	654.008
299.862	16.131	872.088	653.130
300.876	16.194	871.881	653.161
301.891	16.164	871.417	652.638
302.906	16.296	870.464	652.377
303.920	16.289	870.102	652.018
304.935	16.263	869.364	651.310
305.949	16.231	868.997	650.852
306.964	16.229	868.370	650.319
307.979	16.523	867.518	650.753
308.993	16.385	867.023	649.796
310.008	16.650	865.790	649.832
311.022	16.331	865.817	648.568
312.037	16.372	865.173	648.187
313.052	16.265	864.954	647.554
314.066	16.358	864.584	647.575
315.081	16.314	863.948	646.873
316.095	16.388	863.074	646.444
317.110	16.300	862.798	645.843
318.125	16.357	861.998	645.409
319.139	16.484	861.196	645.233
320.154	16.540	860.987	645.233
321.168	16.393	860.279	644.087
322.183	16.486	859.628	643.895
323.197	16.530	859.111	643.619
324.212	16.497	858.382	642.892
325.227	16.560	857.876	642.693
326.241	16.545	857.437	642.250
327.256	16.495	857.107	641.757
328.270	16.452	856.614	641.167
329.285	16.422	856.215	640.700
330.300	16.567	854.972	640.261
331.314	16.582	854.555	639.950
332.329	16.522	854.130	639.349
333.343	16.509	854.036	639.170
334.358	16.546	853.573	638.907
335.373	16.587	853.376	638.860
336.387	16.689	852.439	638.484
337.402	16.647	852.357	638.209
338.416	16.548	852.418	637.824
339.431	16.759	851.897	638.176
340.446	16.743	850.974	637.368
341.460	16.719	850.930	637.185
342.475	16.797	850.541	637.132
343.489	16.871	849.891	636.866
344.504	16.919	849.045	636.358
345.519	16.916	848.648	635.992
346.533	17.011	848.097	635.880
347.548	16.928	847.625	635.158
348.562	16.850	847.456	634.682
349.577	16.865	846.654	634.082
350.592	16.814	846.248	633.530
351.606	16.935	845.437	633.318
352.621	17.012	844.628	632.943
353.635	16.932	844.086	632.186
354.650	17.066	843.219	631.977
355.665	16.940	842.831	631.163
356.679	17.005	841.738	630.529
357.694	16.907	841.753	630.122
358.708	17.051	841.082	630.098
359.723	17.124	840.052	629.540
360.738	17.050	839.807	629.025
361.752	17.044	839.276	628.552
362.767	17.114	838.212	627.956
363.781	17.117	837.827	627.625
364.796	17.234	837.360	627.652
365.810	17.262	837.359	627.699
366.825	17.256	836.876	627.258
367.840	17.205	836.010	626.365
368.854	17.241	835.965	626.409
369.869	17.163	835.769	625.922
370.883	17.307	835.095	625.891
371.898	17.299	834.574	625.416
372.913	17.268	834.396	625.112
373.927	17.377	833.647	624.896
374.942	17.179	833.760	624.198
375.956	17.456	832.876	624.497
376.971	17.452	832.376	624.052
377.986	17.604	831.849	624.161
379.000	17.608	831.218	623.646
380.015	17.530	830.793	622.986
381.029	17.501	830.033	622.254
382.044	17.592	829.733	622.306
383.059	17.523	829.356	621.718
384.073	17.477	828.600	620.928
385.088	17.486	828.118	620.544
386.102	17.601	827.543	620.478
387.117	17.550	826.973	619.810
388.132	17.574	826.263	619.311
389.146	17.598	825.809	619.002
390.161	17.604	825.219	618.527
391.175	17.695	824.756	618.458
392.190	17.626	824.131	617.682
393.205	17.628	823.733	617.337
394.219	17.556	823.538	616.874
395.234	17.566	823.264	616.652
396.248	17.702	822.540	616.547
397.263	17.648	822.072	615.946
398.278	17.745	821.803	616.042
399.292	17.739	821.511	615.744
400.307	17.583	821.157	614.862
401.321	17.453	820.987	614.210
402.336	17.621	820.126	614.118
403.350	17.666	819.710	613.914
404.365	17.777	819.314	613.964
405.380	17.718	818.759	613.281
406.394	17.742	818.025	612.764
407.409	17.858	817.567	612.781
408.423	17.978	817.030	612.758
409.438	17.961	816.866	612.519
410.453	17.961	816.320	612.054
411.467	17.994	815.854	611.768
412.482	17.875	816.060	611.443
413.496	18.131	815.431	611.833
414.511	17.963	815.136	610.958
415.526	18.147	814.658	611.202
416.540	18.057	813.741	610.140
417.555	18.109	813.522	610.108
418.569	18.174	812.983	609.880
419.584	18.174	812.625	609.558
420.599	18.160	812.130	609.081
421.613	114.526	1297.597	1486.079
422.628	99.135	1368.293	1486.144
