DTS Sentinel unit serial number:	SN413079Multiplexer serial number:	ORYXHardware model number:	OX4-SRSoftware version number:	ORYX F/W v4.00 Oryx Data Collector v3.7.2.0data status	okinstallation	princeton_trtdifferential loss correction	single-endedforward channel	channel 1reverse channel	N/Adate	2019/09/15time	09:38:35forward acquisition time	60.00reverse acquisition time	0.00gamma	496.2192k internal	0.2310k external	0.2310temperature offset calibration	0.9982default loss term (dB/km)	0.3790temperature slope calibration	1.0000multiplexer offset coefficient	1.0000multiplexer slope coefficient	1.0000fibre end	0.00T internal ref (°C)	33.89T ext. ref 1 (°C)	4.91T ext. ref 2 (°C)	29.66length (m)	temperature (°C)	Stokes	anti-Stokes-747.200	18.385	-0.292	-0.237
-746.185	-105.708	-0.339	-0.078
-745.171	345.680	0.052	-0.104
-744.156	260.098	0.065	-0.114
-743.142	-171.773	0.154	-0.005
-742.127	147.046	-0.218	0.298
-741.112	21.465	0.041	0.034
-740.098	27.859	-0.067	0.057
-739.083	800.000	-0.079	-0.279
-738.069	562.067	0.053	-0.129
-737.054	-106.945	0.210	-0.047
-736.039	47.298	0.040	-0.038
-735.025	-100.124	0.102	-0.026
-734.010	-141.140	0.284	-0.029
-732.996	-200.000	-0.015	-0.232
-731.981	189.100	0.129	-0.196
-730.966	193.732	0.271	0.416
-729.952	-49.171	0.076	-0.037
-728.937	474.029	-0.168	-0.385
-727.923	448.785	0.086	-0.192
-726.908	-62.536	0.096	-0.040
-725.894	-200.000	-0.008	-0.059
-724.879	422.510	-0.140	-0.304
-723.864	210.834	-0.099	-0.158
-722.850	-77.335	-0.125	0.044
-721.835	-30.731	-0.291	0.167
-720.821	-200.000	0.008	-0.047
-719.806	800.000	-0.057	0.185
-718.791	-167.801	-0.380	0.015
-717.777	800.000	-0.092	0.262
-716.762	490.314	-0.028	-0.064
-715.748	-200.000	0.006	0.089
-714.733	-200.000	0.008	0.177
-713.718	-26.371	0.193	-0.115
-712.704	-89.839	-0.304	-0.090
-711.689	800.000	0.067	-0.272
-710.675	208.360	-0.203	-0.322
-709.660	-14.415	-0.051	0.033
-708.645	-200.000	-0.017	-0.133
-707.631	238.653	-0.028	0.048
-706.616	263.167	-0.171	0.301
-705.602	65.432	0.018	0.018
-704.587	216.615	0.225	0.362
-703.572	-20.662	0.037	0.023
-702.558	283.394	0.127	0.231
-701.543	31.686	0.239	-0.209
-700.529	-49.487	0.113	0.054
-699.514	-116.516	0.260	0.049
-698.499	800.000	-0.109	-0.382
-697.485	-139.284	-0.085	-0.009
-696.470	207.742	-0.206	-0.326
-695.456	163.072	0.147	-0.209
-694.441	-48.751	-0.052	-0.025
-693.426	175.316	0.044	-0.065
-692.412	-120.299	-0.288	-0.050
-691.397	-173.322	0.378	0.012
-690.383	-60.774	0.223	-0.096
-689.368	-132.842	0.097	-0.013
-688.354	800.000	0.092	0.299
-687.339	-80.396	0.404	0.137
-686.324	7.862	0.088	0.067
-685.310	-200.000	-0.002	0.115
-684.295	531.550	-0.206	0.493
-683.281	215.605	0.133	0.215
-682.266	800.000	-0.010	0.031
-681.251	-17.474	0.071	-0.045
-680.237	-120.677	0.289	-0.049
-679.222	409.123	-0.087	-0.187
-678.208	-22.965	0.085	0.052
-677.193	-200.000	0.013	-0.102
-676.178	-92.875	-0.252	-0.071
-675.164	199.946	-0.106	-0.164
-674.149	-200.000	-0.010	0.161
-673.135	-200.000	-0.027	0.174
-672.120	531.913	0.108	-0.258
-671.105	800.000	0.043	0.175
-670.091	268.309	0.104	-0.184
-669.076	800.000	0.082	-0.321
-668.062	-54.507	-0.144	-0.066
-667.047	547.273	0.057	0.139
-666.032	-41.868	-0.208	-0.108
-665.018	158.819	0.111	0.156
-664.003	-200.000	0.004	0.346
-662.989	-200.000	-0.043	-0.280
-661.974	-160.450	-0.359	0.020
-660.959	-2.499	-0.211	0.149
-659.945	800.000	0.057	0.167
-658.930	-122.374	0.196	-0.032
-657.916	-86.096	-0.493	0.154
-656.901	-72.583	0.042	-0.016
-655.886	138.612	-0.196	0.261
-654.872	-200.000	-0.068	-0.310
-653.857	-71.946	-0.228	0.086
-652.843	50.180	-0.348	-0.333
-651.828	227.958	-0.213	-0.351
-650.814	-200.000	0.011	-0.079
-649.799	-85.132	0.166	0.053
-648.784	-151.666	-0.258	-0.019
-647.770	-200.000	0.096	-0.452
-646.755	800.000	0.042	0.137
-645.741	-6.137	-0.086	0.059
-644.726	242.632	-0.162	0.274
-643.711	-119.909	0.203	-0.035
-642.697	354.202	0.123	-0.248
-641.682	-134.954	0.052	0.006
-640.668	72.629	-0.094	-0.099
-639.653	-64.077	-0.229	-0.095
-638.638	-152.620	-0.277	-0.020
-637.624	-200.000	0.011	0.083
-636.609	-77.126	0.252	-0.089
-635.595	800.000	-0.062	-0.245
-634.580	193.283	0.260	-0.397
-633.565	-38.206	-0.054	0.029
-632.551	159.124	0.234	-0.330
-631.536	0.542	-0.272	-0.197
-630.522	304.381	-0.100	0.187
-629.507	258.070	0.250	-0.435
-628.492	286.192	0.037	0.068
-627.478	-200.000	-0.019	0.309
-626.463	96.089	-0.277	0.320
-625.449	51.258	-0.190	-0.183
-624.434	129.681	-0.128	-0.165
-623.419	-17.764	0.263	0.167
-622.405	800.000	0.072	0.227
-621.390	-200.000	-0.005	-0.356
-620.376	-200.000	0.027	-0.225
-619.361	-125.966	0.329	-0.050
-618.346	-89.718	-0.214	0.063
-617.332	800.000	-0.022	0.088
-616.317	800.000	-0.143	0.415
-615.303	-200.000	-0.006	0.029
-614.288	-167.969	0.227	-0.009
-613.273	466.407	0.114	-0.257
-612.259	40.582	-0.310	-0.282
-611.244	26.084	0.112	0.094
-610.230	121.295	0.065	0.082
-609.215	-126.468	0.440	0.066
-608.201	-25.104	-0.030	-0.018
-607.186	-75.059	-0.135	-0.049
-606.171	-200.000	0.029	-0.144
-605.157	-86.179	-0.158	0.049
-604.142	37.724	-0.059	0.053
-603.128	241.083	-0.155	0.261
-602.113	33.480	-0.250	-0.220
-601.098	-200.000	-0.025	-0.260
-600.084	800.000	0.094	-0.324
-599.069	800.000	0.066	0.266
-598.055	86.390	0.021	-0.024
-597.040	-81.883	-0.244	0.080
-596.025	26.388	-0.041	0.035
-595.011	86.926	-0.058	0.065
-593.996	-85.303	0.191	0.060
-592.982	48.276	0.156	0.147
-591.967	28.291	-0.213	0.182
-590.952	800.000	0.046	-0.173
-589.938	-113.768	-0.121	-0.024
-588.923	-79.448	-0.428	-0.146
-587.909	800.000	0.032	0.129
-586.894	5.118	0.132	-0.098
-585.879	224.330	0.057	0.093
-584.865	262.384	0.066	0.116
-583.850	112.544	-0.063	-0.077
-582.836	359.726	-0.090	0.182
-581.821	800.000	-0.091	0.322
-580.806	453.558	0.122	0.273
-579.792	-200.000	-0.065	0.298
-578.777	109.959	-0.103	0.125
-577.763	-99.206	-0.265	0.068
-576.748	-200.000	-0.022	-0.150
-575.733	193.099	-0.094	0.143
-574.719	110.921	0.279	-0.339
-573.704	82.225	0.223	0.244
-572.690	229.960	0.172	0.284
-571.675	-30.362	0.266	-0.152
-570.661	552.188	0.049	-0.120
-569.646	32.375	-0.166	-0.144
-568.631	-30.686	-0.192	0.110
-567.617	-72.320	-0.415	-0.155
-566.602	144.421	0.050	0.067
-565.588	114.664	-0.112	0.138
-564.573	-200.000	0.005	-0.183
-563.558	540.892	0.071	-0.169
-562.544	-103.592	-0.198	0.047
-561.529	417.627	0.091	0.197
-560.515	277.864	-0.113	-0.204
-559.500	-200.000	0.004	-0.020
-558.485	68.107	-0.111	0.114
-557.471	190.631	0.063	0.095
-556.456	186.069	0.159	0.238
-555.442	800.000	-0.059	0.254
-554.427	126.067	0.165	-0.210
-553.412	-200.000	-0.017	-0.103
-552.398	-56.018	0.092	0.041
-551.383	800.000	-0.058	0.191
-550.369	-200.000	0.005	0.412
-549.354	-66.805	0.194	0.078
-548.339	-200.000	0.002	0.423
-547.325	282.429	-0.005	-0.010
-546.310	0.153	-0.168	-0.121
-545.296	-23.823	-0.368	-0.222
-544.281	-200.000	-0.013	0.193
-543.266	82.352	-0.139	0.152
-542.252	464.036	0.185	-0.417
-541.237	5.722	-0.114	0.085
-540.223	-200.000	0.015	-0.187
-539.208	-66.551	0.049	0.020
-538.193	660.887	0.123	-0.319
-537.179	-200.000	0.048	-0.275
-536.164	-200.000	-0.021	-0.095
-535.150	-146.828	0.279	-0.024
-534.135	-4.942	-0.191	0.133
-533.121	314.607	-0.147	0.279
-532.106	49.732	0.257	0.244
-531.091	-21.028	-0.075	-0.046
-530.077	-151.025	-0.116	-0.009
-529.062	368.027	0.037	0.076
-528.048	-49.196	-0.228	-0.110
-527.033	609.391	-0.109	-0.273
-526.018	73.167	0.230	0.242
-525.004	-129.863	-0.031	-0.004
-523.989	-168.978	0.262	-0.010
-522.975	800.000	-0.101	0.377
-521.960	-93.911	0.187	-0.052
-520.945	-17.735	-0.168	0.106
-519.931	9.480	0.111	0.085
-518.916	31.575	-0.094	0.082
-517.902	-68.413	-0.263	0.103
-516.887	258.616	0.064	0.111
-515.872	39.205	0.067	-0.060
-514.858	-200.000	0.070	0.000
-513.843	-113.284	0.184	0.036
-512.829	800.000	-0.047	0.171
-511.814	58.055	-0.072	-0.071
-510.799	-53.069	-0.024	0.011
-509.785	-76.098	0.166	-0.059
-508.770	0.847	-0.046	0.033
-507.756	-200.000	0.089	-0.435
-506.741	-200.000	0.045	-0.259
-505.726	800.000	-0.009	-0.038
-504.712	129.644	-0.206	-0.265
-503.697	-187.000	-0.166	-0.002
-502.683	-89.231	-0.241	-0.072
-501.668	-131.145	0.135	0.018
-500.653	704.044	-0.050	-0.132
-499.639	-33.863	-0.032	-0.018
-498.624	337.490	0.190	-0.372
-497.610	-114.048	-0.195	-0.038
-496.595	236.323	-0.035	-0.059
-495.581	-37.589	0.116	-0.062
-494.566	-34.398	-0.263	0.145
-493.551	-167.305	0.090	0.004
-492.537	-2.011	0.088	0.063
-491.522	40.388	0.182	0.164
-490.508	-200.000	0.011	0.273
-489.493	136.212	0.125	0.164
-488.478	-1.234	-0.101	0.071
-487.464	-200.000	0.041	-0.225
-486.449	26.790	-0.247	0.208
-485.435	-55.925	-0.297	0.133
-484.420	168.744	-0.079	0.113
-483.405	-200.000	0.003	-0.114
-482.391	-11.320	-0.023	0.015
-481.376	110.022	0.027	-0.032
-480.362	-64.436	0.296	-0.121
-479.347	-36.836	0.186	-0.100
-478.332	260.136	0.094	-0.163
-477.318	39.401	-0.189	0.170
-476.303	-115.627	0.601	-0.113
-475.289	-49.823	0.175	-0.083
-474.274	114.818	-0.052	-0.064
-473.259	116.627	-0.111	0.137
-472.245	-200.000	0.007	0.076
-471.230	-83.264	0.112	0.036
-470.216	126.042	-0.401	-0.509
-469.201	-200.000	0.022	0.107
-468.186	703.963	0.156	0.413
-467.172	-70.203	0.081	0.031
-466.157	800.000	-0.052	-0.184
-465.143	-200.000	0.042	-0.256
-464.128	-26.739	-0.124	0.073
-463.113	-5.975	-0.181	0.124
-462.099	116.514	0.203	-0.250
-461.084	-200.000	-0.018	-0.086
-460.070	-126.401	-0.032	-0.005
-459.055	-79.507	-0.305	0.103
-458.040	-48.328	0.100	0.048
-457.026	453.561	0.056	0.124
-456.011	-111.512	-0.272	-0.056
-454.997	-115.941	0.277	0.052
-453.982	800.000	0.093	0.315
-452.968	-200.000	0.014	-0.300
-451.953	467.139	0.125	-0.281
-450.938	-82.873	-0.190	0.061
-449.924	-200.000	0.050	0.244
-448.909	298.589	-0.155	-0.287
-447.895	800.000	-0.082	-0.282
-446.880	-26.910	-0.223	-0.131
-445.865	75.124	-0.124	0.132
-444.851	800.000	-0.073	0.302
-443.836	109.312	0.110	-0.132
-442.822	-6.562	-0.100	-0.069
-441.807	-119.229	0.134	-0.023
-440.792	741.031	-0.044	0.120
-439.778	-145.960	0.206	-0.018
-438.763	800.000	-0.084	0.282
-437.749	800.000	0.049	0.159
-436.734	34.242	0.239	0.209
-435.719	800.000	0.115	0.351
-434.705	3.036	0.463	0.338
-433.690	-131.430	0.258	-0.034
-432.676	-200.000	0.074	0.354
-431.661	150.096	-0.111	0.151
-430.646	800.000	0.019	-0.061
-429.632	-11.063	-0.110	-0.073
-428.617	88.321	-0.059	-0.065
-427.603	-200.000	-0.018	-0.137
-426.588	-155.359	0.282	0.018
-425.573	-141.689	-0.379	0.038
-424.559	692.241	0.078	0.206
-423.544	8.349	-0.217	-0.163
-422.530	-158.124	0.140	0.008
-421.515	-200.000	0.105	-0.463
-420.500	-20.424	0.089	-0.055
-419.486	41.533	-0.161	-0.146
-418.471	-28.531	-0.270	0.156
-417.457	-200.000	-0.010	-0.211
-416.442	79.357	0.134	0.144
-415.428	-54.556	0.116	-0.053
-414.413	-32.752	0.124	-0.069
-413.398	214.843	0.117	-0.186
-412.384	-200.000	-0.022	0.146
-411.369	800.000	-0.072	0.263
-410.355	261.343	0.118	-0.205
-409.340	-88.553	-0.148	0.044
-408.325	-80.059	-0.224	0.075
-407.311	-67.593	0.098	-0.039
-406.296	19.678	-0.249	-0.201
-405.282	-149.555	-0.063	-0.005
-404.267	246.209	-0.141	-0.239
-403.252	-148.529	0.331	-0.027
-402.238	488.775	-0.044	-0.100
-401.223	-71.226	-0.124	0.047
-400.209	-148.061	-0.187	-0.016
-399.194	163.188	-0.156	0.220
-398.179	-51.473	0.254	-0.119
-397.165	-200.000	-0.037	-0.209
-396.150	-81.151	-0.134	-0.044
-395.136	-40.024	-0.425	-0.222
-394.121	29.683	-0.163	-0.139
-393.106	-38.541	-0.151	0.080
-392.092	-167.601	-0.344	0.014
-391.077	-138.220	-0.106	0.012
-390.063	158.652	0.158	0.220
-389.048	-106.474	0.290	0.065
-388.033	-161.298	0.156	-0.008
-387.019	55.525	-0.103	-0.100
-386.004	-88.928	0.210	-0.062
-384.990	-200.000	-0.003	-0.161
-383.975	800.000	0.076	-0.282
-382.960	800.000	0.116	0.505
-381.946	800.000	0.114	-0.390
-380.931	-200.000	0.001	0.174
-379.917	714.525	0.082	-0.219
-378.902	-20.462	-0.399	-0.245
-377.888	94.961	0.070	-0.080
-376.873	-55.362	-0.281	0.126
-375.858	-200.000	0.002	0.332
-374.844	413.063	-0.086	-0.182
-373.829	800.000	0.032	0.128
-372.815	-79.903	0.473	-0.159
-371.800	349.810	-0.062	-0.123
-370.785	-200.000	0.028	0.238
-369.771	-78.340	0.285	0.098
-368.756	159.165	0.055	0.077
-367.742	-90.566	-0.155	-0.045
-366.727	-73.575	0.311	-0.114
-365.712	-45.558	-0.124	0.062
-364.698	-140.850	-0.325	0.033
-363.683	-200.000	-0.001	0.024
-362.669	-49.283	0.037	-0.018
-361.654	-172.651	0.163	0.005
-360.639	-194.071	0.475	0.004
-359.625	-166.260	-0.205	0.009
-358.610	-167.599	-0.010	-0.000
-357.596	20.724	-0.085	-0.069
-356.581	-0.239	0.143	0.102
-355.566	126.539	-0.023	0.030
-354.552	-200.000	0.034	-0.183
-353.537	453.803	-0.198	0.439
-352.523	-200.000	0.026	0.249
-351.508	-89.480	0.343	0.101
-350.493	800.000	0.068	0.272
-349.479	145.726	0.075	0.101
-348.464	-77.751	-0.170	0.059
-347.450	216.766	-0.070	0.112
-346.435	-154.775	-0.077	0.005
-345.420	-20.622	-0.214	-0.131
-344.406	431.208	-0.160	-0.347
-343.391	800.000	0.038	0.166
-342.377	-200.000	-0.049	0.232
-341.362	-200.000	0.047	0.253
-340.348	-179.427	0.253	0.006
-339.333	367.365	-0.044	-0.089
-338.318	13.202	-0.169	0.131
-337.304	-200.000	0.007	-0.078
-336.289	-178.718	0.049	-0.001
-335.275	-154.492	0.068	-0.005
-334.260	-8.883	0.156	0.104
-333.245	800.000	0.033	0.111
-332.231	344.791	-0.155	0.303
-331.216	-45.611	-0.404	0.200
-330.202	-21.609	-0.139	0.085
-329.187	63.457	0.178	0.178
-328.172	36.297	0.214	-0.188
-327.158	-49.432	-0.058	0.028
-326.143	256.906	0.086	-0.148
-325.129	-83.532	-0.152	0.049
-324.114	800.000	-0.098	0.329
-323.099	-80.485	0.267	-0.089
-322.085	-32.080	0.302	-0.168
-321.070	-42.150	0.154	0.079
-320.056	-29.480	-0.141	0.080
-319.041	125.103	0.250	0.315
-318.026	25.066	-0.155	0.128
-317.012	-200.000	-0.065	-0.327
-315.997	-200.000	-0.066	-0.299
-314.983	-31.610	-0.041	-0.023
-313.968	51.998	0.236	-0.225
-312.953	-200.000	0.015	-0.128
-311.939	162.684	0.195	-0.274
-310.924	-34.001	-0.367	-0.202
-309.910	202.381	0.100	-0.154
-308.895	130.775	-0.022	0.028
-307.880	-98.607	0.054	-0.014
-306.866	112.938	0.245	-0.296
-305.851	3.741	0.186	-0.136
-304.837	-200.000	-0.039	0.262
-303.822	-73.374	-0.038	-0.014
-302.807	-104.550	-0.264	0.061
-301.793	-176.236	0.367	-0.010
-300.778	-200.000	-0.006	0.278
-299.764	-91.480	0.412	-0.117
-298.749	69.562	0.096	-0.098
-297.735	81.163	-0.044	-0.047
-296.720	319.726	-0.054	-0.102
-295.705	-82.287	0.346	-0.112
-294.691	171.402	-0.026	0.037
-293.676	-200.000	0.030	0.255
-292.662	-81.037	0.426	0.141
-291.647	-161.406	0.059	-0.003
-290.632	-100.964	-0.137	0.033
-289.618	800.000	0.034	0.109
-288.603	640.641	0.108	-0.273
-287.589	-105.664	-0.352	0.080
-286.574	-178.789	-0.193	-0.004
-285.559	-23.500	0.395	-0.237
-284.545	-198.715	-0.094	-0.001
-283.530	3.955	0.294	0.214
-282.516	41.035	0.088	0.079
-281.501	-43.314	-0.200	0.101
-280.486	-111.093	-0.212	-0.043
-279.472	-200.000	0.006	-0.240
-278.457	133.827	0.194	-0.251
-277.443	-69.664	-0.329	0.125
-276.428	-132.636	-0.219	-0.028
-275.413	800.000	0.061	-0.230
-274.399	-93.684	-0.238	0.066
-273.384	10.526	0.304	0.231
-272.370	-200.000	-0.033	0.300
-271.355	-28.140	-0.174	0.100
-270.340	-200.000	0.002	0.420
-269.326	132.858	-0.212	-0.272
-268.311	1.297	0.153	0.110
-267.297	-200.000	0.015	0.144
-266.282	152.100	-0.401	-0.546
-265.267	-94.470	0.096	0.026
-264.253	89.168	-0.201	0.223
-263.238	800.000	-0.086	-0.247
-262.224	-122.098	-0.119	-0.020
-261.209	-200.000	0.112	0.000
-260.195	-200.000	-0.059	0.271
-259.180	221.536	0.133	0.212
-258.165	-39.039	-0.225	-0.118
-257.151	-121.828	0.107	0.018
-256.136	-106.708	-0.102	0.023
-255.122	-8.701	-0.154	0.103
-254.107	-200.000	-0.063	-0.324
-253.092	226.353	0.048	-0.078
-252.078	73.630	-0.180	0.188
-251.063	800.000	0.090	0.289
-250.049	29.846	0.253	0.215
-249.034	800.000	-0.084	0.264
-248.019	-105.020	0.274	-0.062
-247.005	-200.000	0.004	0.129
-245.990	-29.717	0.036	-0.021
-244.976	314.009	0.155	-0.290
-243.961	110.797	-0.114	-0.136
-242.946	-62.579	-0.121	0.050
-241.932	35.026	0.014	-0.012
-240.917	-200.000	0.008	0.270
-239.903	800.000	0.039	-0.161
-238.888	-200.000	0.010	-0.270
-237.873	-200.000	-0.029	-0.242
-236.859	800.000	-0.008	0.027
-235.844	-120.490	0.141	-0.024
-234.830	-142.295	-0.126	-0.012
-233.815	503.967	0.139	-0.319
-232.800	203.878	0.083	0.127
-231.786	19.469	0.285	-0.228
-230.771	4.258	0.127	-0.093
-229.757	-69.810	-0.195	-0.074
-228.742	-200.000	0.002	-0.370
-227.727	800.000	0.053	0.219
-226.713	-12.167	-0.132	-0.086
-225.698	172.485	-0.302	-0.432
-224.684	800.000	-0.054	-0.163
-223.669	361.762	0.189	0.377
-222.655	23.691	0.264	0.217
-221.640	-200.000	-0.022	0.395
-220.625	645.243	-0.021	-0.055
-219.611	-187.540	0.073	-0.001
-218.596	-39.710	0.039	0.020
-217.582	-58.712	-0.140	0.060
-216.567	84.807	-0.148	0.161
-215.552	200.271	0.054	-0.083
-214.538	-70.610	-0.232	0.087
-213.523	-133.321	-0.456	-0.057
-212.509	-200.000	0.001	-0.068
-211.494	-81.876	0.158	-0.052
-210.479	150.973	0.188	0.254
-209.465	800.000	-0.029	0.121
-208.450	-200.000	0.003	0.064
-207.436	28.119	-0.142	0.119
-206.421	96.497	-0.054	-0.061
-205.406	646.181	-0.079	-0.201
-204.392	153.613	0.113	-0.154
-203.377	-102.635	-0.294	-0.070
-202.363	-174.830	-0.019	-0.001
-201.348	237.813	0.081	0.134
-200.333	-101.152	-0.213	-0.052
-199.319	13.658	-0.326	-0.251
-198.304	35.431	-0.230	-0.201
-197.290	800.000	-0.085	-0.239
-196.275	55.505	0.050	-0.048
-195.260	-156.665	0.423	-0.026
-194.246	124.317	-0.184	-0.230
-193.231	-9.328	-0.193	0.128
-192.217	-114.682	0.287	-0.055
-191.202	-76.016	0.167	-0.059
-190.187	34.160	-0.140	-0.121
-189.173	-5.723	-0.067	0.046
-188.158	-125.340	0.264	0.040
-187.144	197.067	-0.121	0.183
-186.129	64.566	-0.244	-0.245
-185.114	51.313	0.118	0.111
-184.100	-86.079	0.287	0.088
-183.085	-172.636	0.273	0.009
-182.071	800.000	-0.084	0.281
-181.056	800.000	0.160	-0.485
-180.042	-200.000	0.023	0.256
-179.027	-85.299	-0.352	0.109
-178.012	-23.117	0.146	-0.087
-176.998	86.465	0.064	-0.070
-175.983	800.000	0.031	-0.104
-174.969	800.000	-0.082	-0.332
-173.954	96.449	-0.124	-0.141
-172.939	800.000	0.100	0.349
-171.925	-200.000	0.025	0.184
-170.910	6.672	0.064	-0.047
-169.896	-109.152	0.328	0.069
-168.881	-78.435	0.158	-0.054
-167.866	451.387	0.086	0.188
-166.852	412.089	-0.122	0.257
-165.837	90.241	-0.025	-0.028
-164.823	26.268	-0.055	0.045
-163.808	-5.652	-0.174	0.118
-162.793	-107.724	-0.152	-0.033
-161.779	-200.000	0.057	-0.457
-160.764	-1.263	0.247	0.173
-159.750	-125.549	-0.172	0.026
-158.735	59.964	-0.076	-0.075
-157.720	75.649	0.035	-0.036
-156.706	86.460	0.057	-0.062
-155.691	336.952	0.124	-0.239
-154.677	-200.000	0.012	-0.204
-153.662	25.735	0.308	0.255
-152.647	302.028	-0.093	0.171
-151.633	-25.165	0.217	0.127
-150.618	-200.000	-0.014	-0.112
-149.604	130.118	0.097	-0.124
-148.589	-78.498	-0.179	-0.061
-147.574	-28.883	0.246	0.140
-146.560	-57.464	-0.301	-0.131
-145.545	18.642	-0.196	-0.156
-144.531	-200.000	0.024	-0.175
-143.516	-114.659	0.171	-0.032
-142.502	-200.000	-0.246	0.000
-141.487	143.785	-0.108	0.142
-140.472	-149.429	0.246	-0.019
-139.458	97.061	-0.203	-0.231
-138.443	-200.000	0.011	0.097
-137.429	-93.823	-0.229	-0.063
-136.414	-119.614	0.441	0.076
-135.399	-75.786	0.053	-0.018
-134.385	278.347	-0.163	-0.287
-133.370	-82.848	0.230	-0.074
-132.356	-128.804	0.163	-0.023
-131.341	-111.657	0.309	0.062
-130.326	206.640	0.104	0.161
-129.312	-150.289	0.170	-0.013
-128.297	-50.626	0.166	0.078
-127.283	699.874	-0.047	-0.122
-126.268	168.829	0.118	-0.166
-125.253	284.833	0.200	-0.357
-124.239	800.000	-0.092	0.360
-123.224	-124.340	0.203	0.031
-122.210	-8.260	0.148	0.098
-121.195	800.000	-0.076	0.233
-120.180	-6.152	-0.298	-0.202
-119.166	-82.397	0.165	-0.053
-118.151	-200.000	0.025	0.154
-117.137	-53.666	-0.444	0.201
-116.122	369.223	-0.149	0.299
-115.107	648.622	-0.091	0.231
-114.093	-105.673	0.183	0.041
-113.078	-80.563	0.268	-0.088
-112.064	-200.000	0.000	-0.004
-111.049	-55.356	-0.106	0.047
-110.034	-80.190	0.214	0.071
-109.020	-143.069	0.260	-0.025
-108.005	-200.000	-0.041	0.257
-106.991	-68.915	0.173	-0.066
-105.976	-76.500	-0.114	0.040
-104.962	165.254	-0.137	0.192
-103.947	292.187	-0.050	-0.090
-102.932	-14.440	-0.092	0.059
-101.918	-200.000	-0.026	0.196
-100.903	-113.869	0.104	-0.020
-99.889	523.672	-0.108	-0.252
-98.874	237.297	0.144	-0.236
-97.859	-200.000	-0.001	0.226
-96.845	14.346	0.195	0.150
-95.830	39.806	0.220	-0.195
-94.816	800.000	0.009	0.034
-93.801	-200.000	-0.004	0.227
-92.786	-24.031	0.181	0.107
-91.772	153.748	0.059	-0.080
-90.757	-80.428	-0.345	0.114
-89.743	187.193	-0.135	-0.199
-88.728	354.575	-0.073	0.144
-87.713	-5.396	0.145	0.099
-86.699	125.765	-0.182	-0.228
-85.684	304.333	0.053	-0.097
-84.670	538.456	-0.115	-0.270
-83.655	217.038	-0.107	-0.169
-82.640	0.589	-0.202	-0.143
-81.626	89.874	0.182	0.201
-80.611	800.000	0.150	0.428
-79.597	-20.111	-0.147	0.089
-78.582	584.963	0.029	0.070
-77.567	-139.922	-0.530	-0.055
-76.553	-2.472	-0.130	0.090
-75.538	146.596	0.160	0.213
-74.524	298.909	0.092	-0.167
-73.509	314.647	-0.079	0.147
-72.494	-200.000	-0.048	-0.313
-71.480	-200.000	0.049	-0.447
-70.465	375.836	0.168	-0.340
-69.451	92.128	0.182	-0.203
-68.436	-200.000	0.012	0.477
-67.422	5.161	0.265	0.193
-66.407	48.346	-0.070	-0.065
-65.392	-184.632	0.265	0.004
-64.378	-75.344	0.243	0.086
-63.363	-63.796	-0.170	0.069
-62.349	800.000	-0.152	0.548
-61.334	156.679	-0.711	-0.971
-60.319	800.000	0.133	0.441
-59.305	423.583	-0.382	-0.812
-58.290	112.843	0.796	0.953
-57.276	360.657	0.761	1.507
-56.261	-200.000	97.571	573.255
-55.246	613.140	1413.622	3498.094
-54.232	184.371	2621.371	3838.275
-53.217	119.714	2187.993	2679.877
-52.203	45.639	1633.869	1492.129
-51.188	37.344	1367.988	1198.381
-50.173	34.141	1324.859	1141.380
-49.159	56.236	1374.566	1319.625
-48.144	59.753	1391.579	1357.335
-47.130	37.751	1346.088	1181.476
-46.115	34.208	1328.253	1144.520
-45.100	33.918	1323.671	1138.794
-44.086	33.821	1321.617	1136.397
-43.071	33.679	1319.425	1133.617
-42.057	33.716	1316.841	1131.576
-41.042	33.780	1315.689	1130.921
-40.027	33.795	1313.757	1129.303
-39.013	33.794	1312.190	1127.907
-37.998	33.849	1310.083	1126.377
-36.984	33.851	1308.558	1125.036
-35.969	33.875	1306.886	1123.697
-34.954	33.933	1305.217	1122.559
-33.940	33.920	1303.757	1121.183
-32.925	33.941	1302.818	1120.451
-31.911	33.992	1300.638	1118.831
-30.896	34.062	1299.268	1118.020
-29.881	33.972	1298.153	1116.488
-28.867	33.919	1297.083	1115.216
-27.852	34.057	1295.265	1114.414
-26.838	34.035	1293.817	1112.994
-25.823	34.043	1292.004	1111.440
-24.809	33.983	1290.973	1110.157
-23.794	33.998	1289.544	1108.971
-22.779	33.976	1288.642	1108.025
-21.765	33.955	1287.223	1106.639
-20.750	33.919	1285.575	1104.970
-19.736	33.866	1284.120	1103.367
-18.721	33.885	1283.157	1102.606
-17.706	33.813	1282.323	1101.426
-16.692	33.923	1280.834	1100.741
-15.677	33.877	1279.692	1099.449
-14.663	33.793	1279.137	1098.445
-13.648	33.747	1278.274	1097.395
-12.633	33.786	1277.276	1096.716
-11.619	33.821	1276.026	1095.802
-10.604	33.827	1275.081	1094.985
-9.590	33.859	1274.029	1094.219
-8.575	33.866	1273.202	1093.505
-7.560	33.715	1272.574	1092.054
-6.546	33.847	1271.596	1091.930
-5.531	33.819	1270.674	1090.937
-4.517	33.760	1269.403	1089.462
-3.502	33.860	1268.509	1089.225
-2.487	33.812	1267.614	1088.137
-1.473	33.890	1263.624	1085.115
-0.458	32.432	1249.135	1064.393
0.556	27.727	1230.171	1025.306
1.571	23.811	1234.780	1006.921
2.586	22.681	1249.904	1012.678
3.600	21.802	1239.183	998.897
4.615	16.812	1166.780	913.609
5.629	8.814	1091.541	814.128
6.644	5.215	1071.501	781.135
7.659	4.812	1068.797	777.079
8.673	4.773	1067.845	776.127
9.688	4.851	1065.903	775.032
10.702	4.998	1064.698	774.818
11.717	9.813	1071.571	803.789
12.731	16.984	1081.704	847.256
13.746	19.209	1083.200	859.467
14.761	18.110	1081.700	852.719
15.775	16.908	1079.168	844.665
16.790	15.852	1076.880	837.548
17.804	15.121	1076.009	833.161
18.819	14.851	1074.127	830.291
19.834	14.524	1073.407	828.036
20.848	14.259	1072.949	826.294
21.863	13.984	1071.788	823.961
22.877	13.880	1071.045	822.805
23.892	13.985	1070.439	822.786
24.907	13.901	1070.050	821.999
25.921	13.971	1068.578	821.139
26.936	13.896	1067.342	819.746
27.950	13.944	1065.889	818.798
28.965	14.131	1064.332	818.449
29.980	14.142	1062.717	817.188
30.994	14.271	1061.278	816.641
32.009	14.262	1060.439	815.881
33.023	14.257	1059.516	815.075
34.038	14.191	1058.456	813.864
35.053	14.007	1057.564	812.205
36.067	14.121	1056.348	811.754
37.082	14.111	1055.820	811.230
38.096	14.145	1055.289	810.918
39.111	14.093	1054.718	810.152
40.126	14.055	1052.958	808.544
41.140	13.931	1051.696	806.901
42.155	13.934	1050.137	805.649
43.169	13.756	1049.793	804.447
44.184	13.812	1048.838	803.917
45.199	13.984	1047.327	803.521
46.213	13.959	1045.946	802.266
47.228	14.007	1045.229	801.877
48.242	13.959	1044.265	800.836
49.257	14.036	1043.289	800.389
50.271	13.933	1042.775	799.427
51.286	14.156	1041.525	799.469
52.301	14.038	1040.817	798.289
53.315	14.068	1039.353	797.242
54.330	14.013	1038.103	795.947
55.344	14.016	1037.189	795.193
56.359	13.927	1036.832	794.423
57.374	13.957	1035.617	793.562
58.388	13.866	1034.506	792.207
59.403	13.802	1033.775	791.272
60.417	13.769	1033.468	790.808
61.432	13.831	1032.620	790.387
62.447	13.784	1031.350	789.119
63.461	13.829	1030.432	788.563
64.476	13.830	1029.451	787.748
65.490	13.756	1028.982	786.966
66.505	13.836	1028.495	786.906
67.520	13.710	1027.488	785.470
68.534	13.835	1026.682	785.374
69.549	13.886	1026.030	785.044
70.563	13.871	1025.397	784.423
71.578	13.621	1024.522	782.504
72.593	13.581	1023.942	781.801
73.607	13.709	1022.884	781.529
74.622	13.747	1022.289	781.181
75.636	13.732	1021.713	780.605
76.651	13.663	1021.217	779.833
77.666	13.617	1020.542	779.030
78.680	13.728	1019.504	778.691
79.695	13.735	1019.179	778.406
80.709	13.815	1018.639	778.301
81.724	13.698	1017.768	777.019
82.739	13.883	1017.258	777.427
83.753	13.912	1016.734	777.091
84.768	14.068	1015.545	776.841
85.782	14.193	1014.340	776.437
86.797	14.015	1013.922	775.216
87.812	14.057	1013.102	774.719
88.826	14.020	1011.826	773.501
89.841	14.058	1011.193	773.122
90.855	14.117	1010.086	772.482
91.870	14.134	1009.167	771.793
92.884	14.214	1008.436	771.534
93.899	14.120	1007.753	770.508
94.914	14.293	1006.569	770.336
95.928	14.221	1006.067	769.552
96.943	14.115	1005.161	768.303
97.957	14.054	1004.358	767.337
98.972	14.151	1003.189	766.822
99.987	14.161	1002.702	766.427
101.001	14.181	1001.305	765.387
102.016	14.148	1000.707	764.708
103.030	14.134	999.934	763.986
104.045	14.174	999.123	763.484
105.060	14.112	998.007	762.280
106.074	14.015	997.432	761.327
107.089	13.865	996.206	759.638
108.103	13.721	995.159	758.116
109.118	13.863	994.556	758.238
110.133	13.838	993.664	757.377
111.147	13.811	992.979	756.662
112.162	13.861	992.306	756.310
113.176	13.951	991.243	755.841
114.191	14.029	990.526	755.585
115.206	13.970	989.628	754.565
116.220	13.914	989.232	753.942
117.235	13.836	988.201	752.734
118.249	13.930	987.047	752.215
119.264	13.959	986.438	751.817
120.279	13.887	985.877	750.998
121.293	13.878	984.769	750.043
122.308	13.832	983.704	748.961
123.322	13.833	983.030	748.384
124.337	13.833	982.405	747.844
125.352	13.721	980.972	746.182
126.366	13.887	979.649	745.858
127.381	13.805	979.067	744.978
128.395	13.877	977.895	744.344
129.410	14.018	977.109	744.310
130.424	13.978	976.511	743.613
131.439	14.014	975.309	742.789
132.454	13.967	975.302	742.508
133.468	14.257	973.605	742.446
134.483	14.072	973.486	741.466
135.497	14.028	972.434	740.400
136.512	14.070	971.673	739.945
137.527	13.985	970.863	738.885
138.541	14.109	969.923	738.653
139.556	14.076	969.466	738.094
140.570	14.153	968.744	737.822
141.585	14.279	967.608	737.447
142.600	14.226	967.099	736.760
143.614	14.239	966.411	736.226
144.629	14.288	965.873	735.970
145.643	14.230	964.902	734.907
146.658	14.161	963.868	733.753
147.673	14.157	962.443	732.583
148.687	14.129	961.743	731.865
149.702	14.138	960.808	731.128
150.716	14.100	960.315	730.520
151.731	14.256	959.379	730.428
152.746	14.107	958.993	729.414
153.760	14.159	958.313	729.063
154.775	14.187	957.768	728.704
155.789	14.328	956.867	728.574
156.804	14.270	956.577	728.035
157.819	14.399	955.513	727.722
158.833	14.317	955.188	727.053
159.848	14.423	954.310	726.781
160.862	14.362	953.124	725.548
161.877	14.310	951.498	724.019
162.892	14.119	951.588	723.193
163.906	14.175	950.111	722.253
164.921	14.217	949.483	721.892
165.935	14.341	948.214	721.402
166.950	14.278	947.509	720.528
167.964	14.328	946.712	720.072
168.979	14.282	945.682	719.027
169.994	14.361	945.024	718.806
171.008	14.303	944.192	717.859
172.023	14.367	943.484	717.531
173.037	14.351	943.194	717.181
174.052	14.455	942.063	716.705
175.067	14.328	941.464	715.641
176.081	14.274	940.488	714.600
177.096	14.268	940.507	714.528
178.110	14.350	939.558	714.093
179.125	14.298	938.996	713.380
180.140	14.403	938.360	713.284
181.154	14.430	938.183	713.201
182.169	14.445	937.737	712.864
183.183	14.604	937.352	713.190
184.198	14.605	936.274	712.309
185.213	14.571	935.527	711.535
186.227	14.565	934.924	710.988
187.242	14.709	934.423	711.154
188.256	14.862	933.331	710.913
189.271	14.630	933.242	709.793
190.286	14.357	932.557	708.052
191.300	14.288	931.424	706.834
192.315	14.178	930.872	705.886
193.329	14.223	930.193	705.501
194.344	14.453	929.546	705.922
195.359	14.422	929.074	705.371
196.373	14.602	928.153	705.368
197.388	14.672	927.800	705.334
198.402	14.888	927.107	705.656
199.417	14.796	926.874	705.026
200.432	14.854	926.911	705.240
201.446	14.973	926.033	705.010
202.461	14.780	926.253	704.301
203.475	14.935	924.881	703.847
204.490	14.827	923.828	702.533
205.504	14.833	922.866	701.761
206.519	14.687	922.301	700.656
207.534	14.713	922.090	700.547
208.548	14.709	920.705	699.414
209.563	14.785	920.510	699.522
210.577	14.905	919.866	699.473
211.592	14.947	918.907	698.857
212.607	14.974	918.285	698.433
213.621	14.970	917.277	697.589
214.636	14.823	916.912	696.637
215.650	14.980	915.822	696.401
216.665	15.018	915.602	696.329
217.680	15.163	914.776	696.242
218.694	15.136	913.944	695.438
219.709	15.052	913.582	694.753
220.723	15.002	912.921	693.978
221.738	15.061	912.188	693.604
222.753	15.134	912.020	693.717
223.767	15.066	911.626	693.075
224.782	15.256	910.491	692.938
225.796	15.212	909.561	691.988
226.811	15.193	909.475	691.781
227.826	15.139	908.399	690.679
228.840	15.051	907.748	689.761
229.855	15.073	906.829	689.089
230.869	15.175	905.702	688.594
231.884	15.085	905.352	687.897
232.899	14.966	904.839	686.957
233.913	15.038	903.970	686.532
234.928	15.041	903.236	685.926
235.942	14.990	902.669	685.228
236.957	14.963	902.372	684.829
237.972	15.075	901.676	684.700
238.986	15.125	900.738	684.129
240.001	15.160	900.068	683.703
241.015	15.125	899.648	683.183
242.030	15.185	899.223	683.043
243.045	15.144	899.029	682.668
244.059	15.211	898.277	682.309
245.074	15.375	897.634	682.430
246.088	15.179	896.777	680.918
247.103	15.256	896.258	680.779
248.117	15.467	895.590	681.068
249.132	15.481	895.221	680.784
250.147	15.582	894.279	680.414
251.161	15.693	893.504	680.215
252.176	15.652	893.616	680.073
253.190	15.704	892.402	679.300
254.205	15.639	891.833	678.545
255.220	15.786	891.053	678.484
256.234	15.704	890.638	677.777
257.249	15.693	889.858	677.080
258.263	15.777	889.070	676.758
259.278	15.787	888.478	676.288
260.293	15.763	887.806	675.619
261.307	15.921	887.005	675.582
262.322	15.732	886.776	674.592
263.336	15.842	885.891	674.298
264.351	15.830	885.383	673.805
265.366	15.983	884.486	673.676
266.380	16.097	883.784	673.535
267.395	15.810	883.287	671.952
268.409	15.867	882.771	671.727
269.424	15.977	881.934	671.471
270.439	15.764	881.409	670.162
271.453	15.801	879.999	669.177
272.468	15.808	880.277	669.357
273.482	15.801	879.747	668.868
274.497	15.961	878.948	668.834
275.512	15.846	878.524	667.995
276.526	15.920	877.765	667.654
277.541	15.883	877.072	666.922
278.555	16.072	876.273	667.003
279.570	16.091	875.880	666.719
280.585	16.134	874.848	666.047
281.599	16.140	874.005	665.370
282.614	16.096	873.723	664.920
283.628	15.865	873.286	663.618
284.643	15.964	872.769	663.557
285.657	16.006	871.888	662.993
286.672	16.028	870.789	662.188
287.687	16.103	870.583	662.265
288.701	16.145	870.300	662.156
289.716	16.182	869.353	661.523
290.730	16.219	869.203	661.494
291.745	16.072	868.489	660.320
292.760	16.133	867.597	659.821
293.774	16.368	866.621	659.937
294.789	16.314	866.092	659.267
295.803	16.133	865.678	658.186
296.818	16.150	865.018	657.692
297.833	16.161	864.281	657.114
298.847	16.240	863.946	657.109
299.862	16.211	863.256	656.414
300.876	16.161	862.879	655.874
301.891	16.238	862.180	655.585
302.906	16.374	861.780	655.752
303.920	16.410	861.244	655.424
304.935	16.495	860.413	655.064
305.949	16.521	859.544	654.444
306.964	16.370	859.534	653.796
307.979	16.472	858.622	653.439
308.993	16.585	857.975	653.326
310.008	16.535	857.373	652.616
311.022	16.523	856.872	652.129
312.037	16.618	856.304	652.005
313.052	16.445	855.948	651.008
314.066	16.415	855.194	650.265
315.081	16.409	854.707	649.814
316.095	16.317	854.211	649.025
317.110	16.280	853.745	648.473
318.125	16.405	853.120	648.418
319.139	16.533	852.590	648.450
320.154	16.381	852.317	647.603
321.168	16.553	851.471	647.560
322.183	16.677	850.597	647.312
323.197	16.561	850.611	646.821
324.212	16.569	850.137	646.437
325.227	16.385	849.548	645.227
326.241	16.583	848.601	645.209
327.256	16.481	848.243	644.489
328.270	16.434	847.633	643.788
329.285	16.512	847.038	643.575
330.300	16.541	846.095	642.912
331.314	16.638	845.577	642.833
332.329	16.724	844.897	642.584
333.343	16.742	845.010	642.683
334.358	16.673	844.436	641.928
335.373	16.734	844.225	641.939
336.387	16.713	844.032	641.655
337.402	16.762	843.646	641.494
338.416	16.752	843.442	641.243
339.431	16.787	842.964	640.957
340.446	16.981	842.158	641.017
341.460	17.037	841.822	640.916
342.475	17.079	841.916	641.090
343.489	17.126	841.142	640.622
344.504	17.056	840.948	640.153
345.519	17.096	840.034	639.554
346.533	17.081	839.714	639.196
347.548	16.963	839.168	638.278
348.562	16.892	838.428	637.394
349.577	16.851	837.752	636.670
350.592	16.977	836.893	636.433
351.606	16.951	836.280	635.811
352.621	17.025	835.369	635.340
353.635	16.862	835.316	634.632
354.650	16.945	834.811	634.503
355.665	17.045	834.120	634.299
356.679	17.118	833.159	633.784
357.694	17.129	832.971	633.626
358.708	16.951	832.578	632.606
359.723	17.064	831.888	632.446
360.738	17.181	830.932	632.099
361.752	17.197	830.677	631.910
362.767	17.389	829.718	631.835
363.781	17.355	829.343	631.369
364.796	17.325	828.981	630.928
365.810	17.327	828.906	630.820
366.825	17.242	828.384	630.051
367.840	17.472	827.671	630.306
368.854	17.422	827.185	629.696
369.869	17.430	826.940	629.483
370.883	17.549	825.941	629.106
371.898	17.539	826.158	629.179
372.913	17.553	825.464	628.645
373.927	17.269	825.291	627.413
374.942	17.332	824.844	627.247
375.956	17.412	824.443	627.182
376.971	17.485	824.037	627.086
377.986	17.531	823.296	626.635
379.000	17.661	822.682	626.592
380.015	17.667	822.429	626.365
381.029	17.595	822.032	625.743
382.044	17.705	821.017	625.321
383.059	17.893	819.819	625.038
384.073	17.683	819.972	624.333
385.088	17.631	819.282	623.560
386.102	17.564	818.729	622.842
387.117	17.564	818.252	622.421
388.132	17.574	817.462	621.803
389.146	17.598	817.072	621.540
390.161	17.647	816.832	621.479
391.175	17.697	815.824	620.839
392.190	17.573	815.574	620.144
393.205	17.738	814.859	620.146
394.219	17.644	815.108	619.936
395.234	17.594	814.691	619.385
396.248	17.537	813.966	618.570
397.263	17.477	813.806	618.178
398.278	17.549	813.382	618.061
399.292	17.529	812.831	617.515
400.307	17.764	812.124	617.775
401.321	17.773	811.328	617.147
402.336	17.729	811.098	616.758
403.350	17.845	810.639	616.775
404.365	17.698	810.800	616.309
405.380	17.862	810.042	616.270
406.394	18.021	809.019	616.012
407.409	18.033	808.972	615.966
408.423	18.060	808.471	615.626
409.438	18.101	808.371	615.643
410.453	17.971	808.061	614.884
411.467	18.102	807.435	614.826
412.482	18.233	806.777	614.742
413.496	18.118	806.971	614.419
414.511	18.189	806.137	613.988
415.526	18.139	805.970	613.625
416.540	18.157	805.117	612.988
417.555	18.188	804.911	612.887
418.569	18.155	804.661	612.524
419.584	18.138	804.092	611.974
420.599	18.307	803.749	612.264
421.613	153.670	1370.280	1790.965
422.628	133.266	1452.849	1791.067
