DTS Sentinel unit serial number:	SN413079Multiplexer serial number:	ORYXHardware model number:	OX4-SRSoftware version number:	ORYX F/W v4.00 Oryx Data Collector v3.7.2.0data status	okinstallation	princeton_trtdifferential loss correction	single-endedforward channel	channel 1reverse channel	N/Adate	2019/09/13time	10:58:35forward acquisition time	60.00reverse acquisition time	0.00gamma	496.2192k internal	0.2319k external	0.2319temperature offset calibration	1.0158default loss term (dB/km)	0.3790temperature slope calibration	1.0000multiplexer offset coefficient	1.0000multiplexer slope coefficient	1.0000fibre end	0.00T internal ref (°C)	31.81T ext. ref 1 (°C)	4.63T ext. ref 2 (°C)	28.43length (m)	temperature (°C)	Stokes	anti-Stokes-747.200	-200.000	-0.014	-0.479
-746.185	-200.000	-0.027	-0.185
-745.171	-200.000	-0.007	-0.110
-744.156	-1.612	-0.556	0.397
-743.142	522.066	0.085	-0.203
-742.127	800.000	0.078	0.271
-741.112	-80.593	-0.088	0.030
-740.098	-116.160	-0.318	0.060
-739.083	252.660	0.101	-0.175
-738.069	-24.983	-0.037	0.022
-737.054	168.162	0.113	0.162
-736.039	800.000	-0.065	0.287
-735.025	14.459	-0.147	-0.116
-734.010	596.759	-0.038	-0.095
-732.996	-2.639	0.264	-0.187
-731.981	-172.980	-0.172	-0.005
-730.966	-82.086	0.261	-0.086
-729.952	-200.000	0.041	-0.393
-728.937	185.150	-0.171	0.257
-727.923	274.988	0.075	-0.134
-726.908	223.715	-0.117	0.191
-725.894	62.249	-0.177	-0.178
-724.879	-200.000	-0.054	-0.300
-723.864	-68.837	-0.396	-0.155
-722.850	-200.000	0.038	-0.180
-721.835	407.530	-0.065	-0.140
-720.821	121.790	-0.133	-0.168
-719.806	85.657	0.118	0.131
-718.791	-26.260	-0.135	0.080
-717.777	-99.878	-0.187	-0.047
-716.762	-61.095	0.235	-0.100
-715.748	-200.000	0.009	-0.075
-714.733	-28.780	0.120	0.070
-713.718	99.368	-0.193	0.226
-712.704	69.655	0.135	0.140
-711.689	70.229	-0.247	-0.258
-710.675	-94.451	-0.379	0.104
-709.660	307.282	-0.047	-0.088
-708.645	78.734	0.139	0.150
-707.631	-37.258	-0.148	-0.080
-706.616	-200.000	0.002	-0.053
-705.602	-87.166	0.261	0.080
-704.587	800.000	-0.086	0.321
-703.572	63.087	-0.317	0.321
-702.558	800.000	-0.056	0.218
-701.543	-149.631	-0.193	0.015
-700.529	-200.000	0.001	0.095
-699.514	-9.773	0.105	0.071
-698.499	800.000	0.050	-0.158
-697.485	-200.000	-0.014	-0.081
-696.470	-29.630	0.038	0.022
-695.456	15.366	-0.181	-0.143
-694.441	800.000	-0.059	-0.177
-693.426	-200.000	0.003	0.125
-692.412	-185.435	0.092	-0.001
-691.397	36.121	-0.273	0.243
-690.383	545.754	0.068	0.165
-689.368	630.371	-0.120	-0.306
-688.354	-75.536	-0.536	-0.192
-687.339	-200.000	0.033	0.354
-686.324	-67.466	-0.127	-0.050
-685.310	800.000	0.054	-0.199
-684.295	800.000	0.050	0.187
-683.281	-27.948	0.029	-0.017
-682.266	-200.000	0.052	-0.279
-681.251	-145.775	-0.335	0.030
-680.237	241.510	-0.133	-0.224
-679.222	111.292	0.016	-0.019
-678.208	800.000	0.068	-0.246
-677.193	-118.763	0.261	0.046
-676.178	-31.676	0.069	0.039
-675.164	-63.697	-0.211	-0.087
-674.149	-103.523	0.086	-0.020
-673.135	251.471	-0.122	-0.210
-672.120	-10.146	0.303	-0.203
-671.105	-6.650	-0.158	0.108
-670.091	800.000	-0.014	0.043
-669.076	58.315	0.085	-0.084
-668.062	38.310	0.162	0.145
-667.047	-200.000	0.025	0.233
-666.032	195.983	-0.050	-0.077
-665.018	285.293	-0.039	-0.071
-664.003	-22.709	0.238	0.145
-662.989	23.304	0.159	-0.132
-661.974	-136.059	-0.097	0.012
-660.959	-70.610	0.361	0.138
-659.945	176.610	0.195	-0.285
-658.930	-151.867	-0.211	0.016
-657.916	28.002	-0.103	-0.087
-656.901	-14.847	0.217	-0.141
-655.886	-48.895	0.090	0.044
-654.872	-200.000	-0.007	-0.197
-653.857	-163.819	-0.134	-0.006
-652.843	-57.492	0.230	-0.102
-651.828	-200.000	0.004	0.140
-650.814	487.269	-0.137	-0.316
-649.799	34.375	0.237	-0.208
-648.784	266.727	0.169	-0.297
-647.770	272.345	-0.109	-0.193
-646.755	-200.000	0.002	0.241
-645.741	-200.000	-0.017	0.212
-644.726	-33.499	0.342	-0.190
-643.711	-200.000	-0.022	-0.189
-642.697	286.978	-0.079	-0.143
-641.682	43.717	0.168	0.155
-640.668	-200.000	0.045	0.265
-639.653	-200.000	-0.050	-0.336
-638.638	-36.733	-0.153	0.083
-637.624	-39.504	-0.128	-0.068
-636.609	736.451	0.063	-0.171
-635.595	28.618	0.230	0.196
-634.580	47.715	0.115	-0.108
-633.565	-200.000	0.033	0.212
-632.551	-29.767	0.200	-0.115
-631.536	-116.720	-0.224	-0.041
-630.522	-200.000	0.027	-0.270
-629.507	82.993	-0.389	0.426
-628.492	-200.000	0.016	-0.329
-627.478	-200.000	-0.043	-0.343
-626.463	246.406	0.179	0.304
-625.449	22.853	0.022	-0.018
-624.434	-82.039	0.275	-0.091
-623.419	119.852	-0.104	0.130
-622.405	-126.806	-0.184	0.027
-621.390	1.396	0.061	0.044
-620.376	88.121	-0.174	0.194
-619.361	-166.775	-0.581	0.024
-618.346	25.851	-0.264	0.221
-617.332	207.997	-0.081	-0.128
-616.317	-95.918	-0.247	0.066
-615.303	-25.833	-0.120	0.071
-614.288	239.355	-0.145	0.243
-613.273	-12.246	0.126	0.083
-612.259	319.109	0.061	-0.116
-611.244	8.851	0.161	-0.122
-610.230	207.516	0.095	0.149
-609.215	-68.100	0.167	-0.066
-608.201	142.771	-0.133	0.179
-607.186	-44.001	-0.184	-0.093
-606.171	-173.114	-0.311	0.010
-605.157	17.457	-0.345	0.276
-604.142	25.656	-0.165	-0.138
-603.128	188.579	-0.289	0.435
-602.113	-200.000	0.067	-0.341
-601.098	165.129	-0.181	-0.257
-600.084	-200.000	0.023	0.315
-599.069	800.000	-0.040	0.117
-598.055	300.500	0.089	0.165
-597.040	-200.000	0.033	0.182
-596.025	-68.640	0.211	0.082
-595.011	-101.948	0.375	-0.091
-593.996	-20.019	-0.159	0.099
-592.982	-90.774	0.351	-0.102
-591.967	-200.000	-0.002	-0.163
-590.952	800.000	0.038	-0.108
-589.938	-200.000	-0.033	-0.265
-588.923	20.998	-0.192	-0.157
-587.909	94.575	0.010	0.011
-586.894	-130.895	0.047	0.006
-585.879	-130.193	0.276	0.038
-584.865	-34.249	-0.247	-0.137
-583.850	796.022	0.046	0.128
-582.836	-111.670	-0.206	-0.042
-581.821	800.000	-0.132	-0.430
-580.806	105.991	-0.218	-0.259
-579.792	79.097	-0.149	0.161
-578.777	262.748	-0.172	0.300
-577.763	-117.023	0.210	0.038
-576.748	347.246	0.127	0.252
-575.733	-54.783	0.034	-0.015
-574.719	427.712	0.020	0.044
-573.704	25.522	-0.281	0.235
-572.690	-62.457	0.182	0.076
-571.675	200.472	-0.190	0.294
-570.661	-100.197	0.131	0.033
-569.646	113.919	-0.047	-0.058
-568.631	-200.000	0.047	-0.268
-567.617	326.423	0.066	-0.127
-566.602	-200.000	-0.041	0.257
-565.588	209.386	-0.091	0.143
-564.573	96.258	-0.132	0.152
-563.558	-200.000	-0.022	0.118
-562.544	-124.771	-0.269	-0.042
-561.529	560.995	0.024	-0.059
-560.515	-200.000	-0.026	-0.355
-559.500	412.173	0.067	0.142
-558.485	800.000	0.032	-0.089
-557.471	-200.000	0.009	0.351
-556.456	-80.203	-0.350	0.118
-555.442	135.366	-0.200	0.261
-554.427	-59.787	0.072	-0.031
-553.412	371.904	-0.151	0.309
-552.398	-48.262	0.329	0.159
-551.383	472.817	0.088	-0.199
-550.369	-110.490	0.144	0.030
-549.354	270.856	-0.098	0.173
-548.339	113.489	0.120	0.146
-547.325	800.000	0.037	0.159
-546.310	-66.047	-0.236	0.094
-545.296	-37.225	-0.175	0.094
-544.281	-34.609	0.157	0.087
-543.266	-200.000	-0.030	-0.157
-542.252	800.000	0.051	-0.186
-541.237	-200.000	0.058	-0.465
-540.223	2.298	0.082	-0.059
-539.208	289.758	-0.064	-0.116
-538.193	-10.289	-0.034	0.022
-537.179	214.223	-0.051	-0.081
-536.164	-86.866	-0.172	0.053
-535.150	348.512	0.058	0.114
-534.135	-186.770	-0.091	-0.001
-533.121	-200.000	0.018	-0.359
-532.106	-31.044	0.213	-0.121
-531.091	-200.000	-0.047	-0.297
-530.077	-25.453	0.158	-0.094
-529.062	-71.928	0.277	0.104
-528.048	-19.288	0.310	-0.193
-527.033	337.034	-0.096	-0.188
-526.018	318.963	-0.126	0.239
-525.004	-200.000	-0.014	-0.231
-523.989	-25.734	0.365	-0.216
-522.975	14.043	-0.096	-0.075
-521.960	-200.000	-0.003	0.079
-520.945	-91.016	-0.285	-0.082
-519.931	-143.657	0.102	0.010
-518.916	-200.000	0.010	0.068
-517.902	-200.000	0.010	-0.154
-516.887	-59.673	-0.059	0.026
-515.872	15.095	0.091	0.072
-514.858	-91.327	0.247	0.071
-513.843	125.251	0.056	-0.071
-512.829	-113.655	0.426	0.083
-511.814	16.630	0.215	0.171
-510.799	32.083	0.097	-0.084
-509.785	93.903	0.135	0.154
-508.770	-200.000	-0.012	-0.063
-507.756	103.465	-0.008	-0.010
-506.741	-109.712	-0.301	-0.063
-505.726	-45.724	-0.134	0.067
-504.712	-200.000	-0.053	0.300
-503.697	-200.000	-0.049	-0.241
-502.683	100.367	-0.112	-0.130
-501.668	351.793	-0.103	0.204
-500.653	116.853	0.111	0.137
-499.639	405.079	-0.051	0.108
-498.624	800.000	0.037	0.157
-497.610	-200.000	0.001	-0.300
-496.595	103.013	0.095	-0.111
-495.581	-89.087	0.145	-0.043
-494.566	-3.107	-0.102	0.071
-493.551	636.442	-0.027	0.070
-492.537	179.328	-0.211	0.309
-491.522	550.228	-0.079	-0.189
-490.508	-200.000	-0.042	-0.223
-489.493	48.659	0.214	0.201
-488.478	18.783	-0.027	-0.022
-487.464	-200.000	-0.005	-0.040
-486.449	241.222	-0.309	0.516
-485.435	542.970	0.108	0.257
-484.420	800.000	0.102	-0.349
-483.405	115.332	-0.100	0.122
-482.391	184.339	-0.116	0.172
-481.376	-19.617	-0.235	-0.145
-480.362	-0.536	-0.237	0.169
-479.347	-73.156	-0.128	-0.047
-478.332	-84.953	0.043	-0.014
-477.318	-70.242	-0.203	0.077
-476.303	397.930	0.156	0.326
-475.289	-13.656	0.413	-0.267
-474.274	-110.363	-0.309	0.064
-473.259	-14.034	0.147	-0.095
-472.245	90.817	0.204	-0.229
-471.230	289.997	0.047	-0.085
-470.216	-200.000	0.015	0.212
-469.201	154.817	-0.139	0.191
-468.186	-100.245	-0.160	-0.040
-467.172	53.666	-0.055	0.053
-466.157	150.984	0.153	0.208
-465.143	83.233	-0.099	-0.108
-464.128	-66.337	0.242	0.097
-463.113	74.450	0.202	-0.212
-462.099	-88.749	0.215	0.064
-461.084	800.000	0.048	-0.157
-460.070	-200.000	-0.011	0.169
-459.055	-175.178	-0.218	-0.006
-458.040	-172.120	-0.174	0.006
-457.026	32.210	0.167	0.144
-456.011	-122.336	0.095	-0.015
-454.997	429.587	-0.055	0.119
-453.982	-200.000	-0.046	-0.224
-452.968	337.371	-0.164	0.319
-451.953	233.270	-0.116	-0.190
-450.938	-86.341	0.374	0.115
-449.924	800.000	0.039	-0.146
-448.909	-200.000	-0.029	0.169
-447.895	-65.452	0.095	0.038
-446.880	310.387	0.225	-0.421
-445.865	-200.000	0.000	-0.115
-444.851	800.000	-0.050	0.210
-443.836	-50.120	0.390	-0.185
-442.822	800.000	0.022	-0.082
-441.807	18.869	-0.337	0.270
-440.792	800.000	-0.110	-0.331
-439.778	-200.000	-0.026	-0.300
-438.763	800.000	-0.050	0.160
-437.749	433.571	-0.044	-0.095
-436.734	-159.123	0.249	0.014
-435.719	419.335	0.065	0.139
-434.705	-45.987	0.052	-0.025
-433.690	-111.146	-0.085	-0.017
-432.676	-29.556	0.303	-0.173
-431.661	800.000	0.017	-0.074
-430.646	24.394	0.035	0.029
-429.632	37.670	0.229	-0.204
-428.617	800.000	-0.024	0.084
-427.603	-132.044	-0.336	-0.044
-426.588	195.898	0.214	-0.325
-425.573	-80.963	-0.496	0.164
-424.559	-20.201	-0.208	-0.128
-423.544	414.917	-0.108	-0.229
-422.530	118.419	-0.136	-0.168
-421.515	-119.356	0.383	-0.067
-420.500	-79.086	0.221	0.075
-419.486	-22.883	-0.346	-0.209
-418.471	800.000	0.100	-0.328
-417.457	278.327	0.089	-0.159
-416.442	-200.000	0.030	0.216
-415.428	-200.000	0.060	0.308
-414.413	-200.000	0.006	0.221
-413.398	800.000	0.022	0.094
-412.384	120.099	0.289	0.358
-411.369	212.154	0.006	0.010
-410.355	88.043	-0.115	0.128
-409.340	-79.989	0.179	0.060
-408.325	-8.590	0.084	-0.056
-407.311	-200.000	-0.036	0.266
-406.296	83.000	0.106	0.115
-405.282	509.369	-0.131	-0.305
-404.267	-18.483	0.220	-0.137
-403.252	-54.875	-0.295	-0.133
-402.238	7.894	0.463	0.347
-401.223	-101.328	0.291	0.071
-400.209	-68.797	-0.425	0.164
-399.194	-200.000	0.029	-0.142
-398.179	88.430	-0.138	-0.152
-397.165	800.000	-0.043	-0.163
-396.150	-95.945	-0.388	0.103
-395.136	-200.000	0.013	-0.165
-394.121	8.521	-0.351	0.264
-393.106	-200.000	-0.015	-0.149
-392.092	98.921	0.201	-0.231
-391.077	-67.512	0.181	-0.071
-390.063	-200.000	-0.007	-0.253
-389.048	206.217	0.102	-0.158
-388.033	800.000	-0.039	0.127
-387.019	404.963	0.051	-0.107
-386.004	-86.464	-0.357	-0.109
-384.990	58.113	0.181	0.177
-383.975	-28.792	0.129	-0.074
-382.960	611.457	0.075	-0.186
-381.946	-70.170	0.120	0.046
-380.931	192.209	-0.027	-0.041
-379.917	-200.000	-0.002	-0.024
-378.902	-64.889	-0.094	0.038
-377.888	53.592	0.189	-0.180
-376.873	-11.932	0.160	0.105
-375.858	-12.350	0.127	0.083
-374.844	-120.516	-0.106	0.018
-373.829	21.283	0.301	-0.244
-372.815	74.154	-0.349	0.366
-371.800	-200.000	0.030	0.224
-370.785	481.780	0.118	-0.268
-369.771	4.047	0.170	-0.124
-368.756	-200.000	0.039	0.200
-367.742	78.058	0.057	-0.061
-366.727	70.125	-0.034	-0.035
-365.712	68.292	0.010	-0.011
-364.698	67.263	-0.126	0.128
-363.683	-42.167	-0.187	-0.095
-362.669	-139.551	0.207	-0.022
-361.654	-200.000	-0.006	-0.158
-360.639	-200.000	0.007	0.061
-359.625	-118.418	-0.357	0.063
-358.610	-97.627	0.358	-0.093
-357.596	15.760	-0.018	0.014
-356.581	-48.732	0.268	0.128
-355.566	-23.303	0.153	0.092
-354.552	-200.000	0.071	-0.394
-353.537	800.000	-0.106	-0.398
-352.523	-87.154	0.212	0.064
-351.508	800.000	-0.065	-0.182
-350.493	-178.718	-0.164	-0.004
-349.479	-107.576	0.375	-0.082
-348.464	440.107	-0.087	0.189
-347.450	-200.000	-0.009	0.163
-346.435	800.000	0.077	0.225
-345.420	58.962	0.084	-0.082
-344.406	-200.000	-0.038	0.292
-343.391	602.309	0.019	-0.048
-342.377	293.707	-0.041	0.075
-341.362	191.684	0.074	0.111
-340.348	49.148	-0.140	-0.131
-339.333	231.614	-0.065	-0.106
-338.318	-18.466	0.193	-0.120
-337.304	-26.722	-0.049	0.028
-336.289	-106.944	-0.190	0.042
-335.275	-113.918	-0.264	-0.051
-334.260	-200.000	-0.019	0.123
-333.245	-132.537	0.345	0.044
-332.231	244.447	-0.038	0.063
-331.216	800.000	0.008	0.027
-330.202	800.000	-0.085	-0.341
-329.187	-144.240	0.105	-0.010
-328.172	271.998	-0.057	0.101
-327.158	-116.565	0.116	0.021
-326.143	-200.000	0.001	0.009
-325.129	26.439	-0.070	0.058
-324.114	-200.000	-0.032	0.190
-323.099	-200.000	-0.036	-0.341
-322.085	88.377	0.084	-0.093
-321.070	100.180	-0.097	0.112
-320.056	-36.423	-0.268	-0.144
-319.041	-200.000	-0.024	-0.118
-318.026	-109.226	-0.461	-0.097
-317.012	-200.000	0.021	-0.338
-315.997	331.374	0.108	0.206
-314.983	-71.356	-0.051	-0.019
-313.968	394.998	-0.024	-0.050
-312.953	123.297	0.056	0.069
-311.939	59.604	-0.074	-0.072
-310.924	800.000	-0.069	0.223
-309.910	-66.959	-0.467	0.183
-308.895	-32.567	0.074	0.041
-307.880	-19.107	0.224	-0.138
-306.866	-143.878	-0.166	-0.016
-305.851	-168.213	0.167	-0.006
-304.837	-47.864	-0.262	0.126
-303.822	-59.276	0.044	0.019
-302.807	-200.000	-0.019	-0.250
-301.793	-200.000	0.058	0.359
-300.778	-148.601	-0.148	-0.012
-299.764	404.502	0.030	-0.064
-298.749	-33.843	0.243	-0.133
-297.735	-26.888	-0.021	-0.012
-296.720	-4.085	0.285	0.196
-295.705	-200.000	-0.020	-0.367
-294.691	-200.000	0.024	-0.190
-293.676	165.597	-0.325	0.457
-292.662	800.000	0.056	0.223
-291.647	204.274	-0.038	0.059
-290.632	606.232	0.093	0.230
-289.618	21.486	0.127	-0.103
-288.603	-171.201	0.326	-0.011
-287.589	800.000	-0.045	-0.144
-286.574	-138.958	-0.614	-0.066
-285.559	143.978	-0.043	0.056
-284.545	-200.000	-0.013	0.092
-283.530	-73.379	-0.174	0.063
-282.516	-186.382	-0.411	-0.006
-281.501	64.729	0.146	0.147
-280.486	-123.424	-0.194	0.031
-279.472	-113.976	0.320	0.062
-278.457	48.420	0.161	0.150
-277.443	-100.494	0.287	0.071
-276.428	-68.320	-0.229	0.089
-275.413	93.952	-0.129	0.146
-274.399	-200.000	-0.023	-0.151
-273.384	402.230	0.076	0.159
-272.370	562.190	0.094	-0.226
-271.355	-136.268	0.608	0.071
-270.340	-200.000	-0.008	0.055
-269.326	800.000	0.036	-0.108
-268.311	-58.606	-0.185	-0.080
-267.297	-52.884	0.259	-0.119
-266.282	-200.000	0.011	0.117
-265.267	-200.000	0.017	-0.280
-264.253	-31.960	-0.227	-0.126
-263.238	800.000	-0.034	0.125
-262.224	-200.000	0.078	-0.355
-261.209	800.000	0.091	-0.257
-260.195	-135.228	0.309	0.037
-259.180	-73.193	0.283	-0.103
-258.165	800.000	-0.040	0.146
-257.151	100.414	0.161	-0.185
-256.136	-168.998	-0.283	-0.010
-255.122	208.803	0.145	-0.226
-254.107	89.879	-0.292	0.324
-253.092	-200.000	-0.053	0.248
-252.078	-159.122	-0.412	0.023
-251.063	-34.823	-0.166	0.090
-250.049	-3.648	-0.145	0.100
-249.034	-166.886	-0.192	0.008
-248.019	35.247	0.148	0.129
-247.005	73.584	0.086	-0.090
-245.990	68.300	-0.339	-0.345
-244.976	-145.022	-0.446	-0.040
-243.961	253.249	0.090	0.152
-242.946	-200.000	0.005	0.240
-241.932	-155.637	-0.041	-0.003
-240.917	-134.436	0.295	-0.036
-239.903	549.367	0.071	-0.168
-238.888	-163.690	0.344	-0.016
-237.873	145.101	0.335	0.445
-236.859	463.034	-0.162	0.359
-235.844	-200.000	-0.032	0.305
-234.830	175.584	0.135	0.195
-233.815	-76.157	-0.283	0.099
-232.800	25.405	-0.060	-0.050
-231.786	800.000	0.062	-0.208
-230.771	-45.735	-0.281	-0.138
-229.757	-188.170	0.406	-0.005
-228.742	0.263	-0.259	0.184
-227.727	-200.000	-0.001	-0.160
-226.713	-200.000	-0.022	-0.149
-225.698	-200.000	-0.032	-0.491
-224.684	39.735	-0.132	-0.118
-223.669	-200.000	0.002	-0.122
-222.655	-200.000	-0.441	0.002
-221.640	800.000	-0.061	0.217
-220.625	-200.000	-0.056	-0.360
-219.611	332.092	0.066	0.127
-218.596	-41.709	0.034	-0.017
-217.582	-41.613	-0.278	0.141
-216.567	160.400	0.102	0.141
-215.552	-200.000	-0.024	0.191
-214.538	-149.944	-0.268	0.021
-213.523	-200.000	-0.018	0.094
-212.509	-91.730	0.441	-0.124
-211.494	-115.201	0.247	-0.046
-210.479	-123.854	0.118	-0.018
-209.465	-200.000	0.009	-0.056
-208.450	-200.000	-0.028	-0.186
-207.436	-129.182	0.365	-0.050
-206.421	-16.463	0.508	0.319
-205.406	-200.000	-0.018	0.343
-204.392	43.941	-0.086	-0.078
-203.377	209.483	-0.146	0.227
-202.363	435.967	0.227	-0.490
-201.348	-133.102	0.056	-0.007
-200.333	800.000	0.092	-0.301
-199.319	-200.000	0.024	-0.302
-198.304	-90.629	0.389	0.111
-197.290	-151.197	-0.147	-0.011
-196.275	-200.000	0.009	0.139
-195.260	-172.543	-0.221	-0.007
-194.246	83.042	0.174	-0.188
-193.231	-47.028	0.044	-0.021
-192.217	-200.000	-0.010	-0.233
-191.202	-92.287	0.235	0.066
-190.187	800.000	-0.015	-0.054
-189.173	-6.724	-0.078	-0.053
-188.158	107.631	-0.228	0.269
-187.144	800.000	0.047	0.182
-186.129	197.286	0.164	0.248
-185.114	800.000	-0.040	-0.113
-184.100	158.721	-0.169	0.232
-183.085	-108.883	-0.399	-0.084
-182.071	-103.792	-0.176	0.041
-181.056	-163.503	-0.157	-0.007
-180.042	266.253	-0.050	-0.086
-179.027	-27.707	-0.041	-0.024
-178.012	62.806	-0.153	-0.152
-176.998	245.180	-0.126	0.210
-175.983	272.549	0.135	-0.235
-174.969	484.811	0.033	-0.075
-173.954	-200.000	0.016	0.402
-172.939	16.480	0.266	0.208
-171.925	800.000	-0.170	0.531
-170.910	-53.639	0.088	-0.040
-169.896	-82.770	0.148	0.047
-168.881	800.000	0.060	0.205
-167.866	-148.891	-0.055	0.004
-166.852	-200.000	0.070	-0.429
-165.837	9.266	0.124	0.092
-164.823	-186.989	0.352	0.005
-163.808	79.025	-0.122	-0.130
-162.793	-185.516	-0.123	0.002
-161.779	89.008	0.154	-0.170
-160.764	-80.519	-0.089	0.029
-159.750	293.557	-0.203	-0.366
-158.735	20.112	0.059	0.047
-157.720	-35.121	0.167	-0.090
-156.706	178.287	0.150	0.216
-155.691	82.435	-0.115	-0.123
-154.677	152.903	0.056	0.076
-153.662	-76.916	-0.102	-0.035
-152.647	188.331	0.071	-0.105
-151.633	86.400	0.078	0.086
-150.618	12.018	-0.145	-0.110
-149.604	90.710	0.056	0.062
-148.589	102.140	0.148	-0.170
-147.574	57.562	-0.110	-0.107
-146.560	518.163	0.074	-0.170
-145.545	625.967	0.091	-0.228
-144.531	-98.501	0.091	0.023
-143.516	-55.309	0.185	0.082
-142.502	62.844	-0.205	0.203
-141.487	-75.259	0.207	-0.073
-140.472	800.000	0.047	-0.174
-139.458	-20.008	-0.365	0.222
-138.443	111.191	0.104	0.124
-137.429	-30.246	-0.147	0.082
-136.414	-23.580	0.444	0.263
-135.399	-61.557	-0.086	0.035
-134.385	24.706	-0.202	0.165
-133.370	-103.537	-0.135	-0.031
-132.356	800.000	-0.049	-0.137
-131.341	-200.000	0.017	-0.096
-130.326	-112.656	0.504	-0.099
-129.312	225.305	0.101	0.162
-128.297	-129.511	0.157	0.021
-127.283	42.581	0.232	-0.209
-126.268	297.918	-0.124	0.225
-125.253	-46.030	0.078	-0.038
-124.239	-200.000	-0.022	0.448
-123.224	800.000	-0.057	0.191
-122.210	153.319	-0.226	-0.306
-121.195	236.392	-0.103	0.169
-120.180	-200.000	-0.016	0.364
-119.166	44.420	-0.065	0.059
-118.151	0.905	0.151	-0.107
-117.137	126.994	-0.205	0.257
-116.122	-71.326	-0.124	-0.046
-115.107	79.439	-0.112	0.118
-114.093	-70.211	0.141	-0.053
-113.078	-41.452	-0.065	0.033
-112.064	-200.000	0.011	0.181
-111.049	-170.689	-0.184	-0.006
-110.034	295.388	-0.101	-0.182
-109.020	-73.164	0.112	0.040
-108.005	170.937	-0.085	0.120
-106.991	5.345	-0.151	0.110
-105.976	-33.138	0.149	-0.081
-104.962	-31.811	-0.324	-0.179
-103.947	-200.000	0.010	-0.185
-102.932	281.759	0.151	-0.268
-101.918	-126.285	0.093	0.014
-100.903	-8.605	0.065	0.043
-99.889	138.843	-0.141	0.182
-98.874	-200.000	0.016	0.180
-97.859	-158.874	0.191	0.011
-96.845	240.587	0.157	0.258
-95.830	86.196	-0.123	0.134
-94.816	-13.646	-0.130	-0.083
-93.801	79.001	-0.132	-0.139
-92.786	78.175	-0.071	0.075
-91.772	-57.614	0.455	0.197
-90.757	36.918	-0.083	0.073
-89.743	800.000	-0.112	-0.447
-88.728	-200.000	0.004	0.032
-87.713	-7.607	0.211	-0.141
-86.699	-94.480	0.259	0.069
-85.684	-38.731	-0.067	-0.035
-84.670	-48.450	-0.103	0.049
-83.655	11.909	-0.135	0.102
-82.640	44.178	-0.058	-0.052
-81.626	103.375	0.109	-0.126
-80.611	6.637	-0.156	-0.114
-79.597	-72.866	0.130	-0.047
-78.582	-200.000	0.031	-0.173
-77.567	-34.261	0.251	-0.136
-76.553	-1.889	-0.196	-0.136
-75.538	800.000	-0.014	0.058
-74.524	-200.000	0.014	-0.401
-73.509	149.834	-0.093	-0.124
-72.494	253.619	0.107	0.180
-71.480	42.725	-0.121	-0.108
-70.465	-200.000	0.022	0.203
-69.451	800.000	0.041	-0.134
-68.436	103.808	-0.218	0.252
-67.422	-38.681	0.346	0.180
-66.407	21.097	0.199	-0.159
-65.392	-9.785	0.248	-0.163
-64.378	800.000	-0.055	0.188
-63.363	-117.660	0.177	-0.031
-62.349	-200.000	0.003	0.161
-61.334	42.247	-0.944	-0.845
-60.319	72.765	0.381	0.391
-59.305	800.000	-0.249	-0.872
-58.290	170.936	0.894	1.263
-57.276	800.000	0.572	1.677
-56.261	-200.000	95.915	596.934
-55.246	641.594	1394.980	3499.320
-54.232	192.081	2586.988	3842.034
-53.217	120.291	2168.297	2650.612
-52.203	44.115	1620.697	1463.512
-51.188	35.390	1355.371	1170.919
-50.173	32.117	1313.739	1115.507
-49.159	55.185	1360.239	1294.672
-48.144	57.062	1376.172	1321.085
-47.130	35.483	1336.328	1154.845
-46.115	32.163	1318.538	1119.678
-45.100	31.884	1313.759	1113.920
-44.086	31.826	1311.144	1111.313
-43.071	31.642	1309.328	1108.641
-42.057	31.746	1306.617	1106.918
-41.042	31.744	1305.249	1105.704
-40.027	31.811	1303.600	1104.655
-39.013	31.683	1301.690	1102.238
-37.998	31.708	1300.355	1101.214
-36.984	31.763	1298.118	1099.595
-35.969	31.757	1296.207	1097.900
-34.954	31.843	1294.857	1097.218
-33.940	31.893	1293.493	1096.312
-32.925	31.982	1291.881	1095.422
-31.911	31.806	1290.569	1093.237
-30.896	31.913	1288.987	1092.474
-29.881	31.910	1287.372	1091.046
-28.867	31.950	1286.154	1090.203
-27.852	31.995	1284.832	1089.300
-26.838	31.853	1283.582	1087.378
-25.823	31.870	1281.996	1086.088
-24.809	31.966	1280.454	1085.295
-23.794	31.825	1279.331	1083.481
-22.779	31.932	1277.875	1082.827
-21.765	31.865	1276.815	1081.495
-20.750	31.884	1275.277	1080.262
-19.736	31.748	1274.280	1078.591
-18.721	31.876	1272.449	1077.736
-17.706	31.712	1271.987	1076.359
-16.692	31.788	1270.125	1075.178
-15.677	31.758	1269.676	1074.578
-14.663	31.802	1268.252	1073.583
-13.648	31.713	1267.158	1072.108
-12.633	31.724	1266.212	1071.324
-11.619	31.827	1265.031	1070.874
-10.604	31.745	1264.547	1069.953
-9.590	31.716	1263.859	1069.160
-8.575	31.790	1262.240	1068.172
-7.560	31.697	1261.707	1067.148
-6.546	31.755	1260.388	1066.321
-5.531	31.800	1259.531	1065.807
-4.517	31.821	1258.638	1065.132
-3.502	31.785	1257.910	1064.269
-2.487	31.667	1257.134	1062.899
-1.473	31.697	1252.872	1059.426
-0.458	30.533	1238.264	1040.515
0.556	28.932	1219.910	1001.902
1.571	24.960	1225.251	984.414
2.586	23.732	1239.281	988.765
3.600	22.547	1226.898	972.270
4.615	16.972	1154.554	885.825
5.629	8.786	1079.843	788.296
6.644	5.027	1059.862	755.455
7.659	4.707	1057.349	752.053
8.673	4.456	1055.794	749.670
9.688	4.332	1055.372	748.706
10.702	4.852	1053.168	749.580
11.717	10.244	1060.971	781.150
12.731	18.554	1072.356	829.841
13.746	21.947	1075.893	848.944
14.761	21.960	1075.342	848.501
15.775	21.144	1073.742	843.219
16.790	20.104	1071.915	836.695
17.804	19.508	1070.236	832.435
18.819	19.068	1069.862	829.950
19.834	19.065	1069.054	829.232
20.848	18.866	1068.110	827.471
21.863	18.816	1067.146	826.409
22.877	18.697	1066.399	825.189
23.892	18.561	1065.918	824.087
24.907	18.523	1064.993	823.116
25.921	18.442	1064.186	822.032
26.936	18.626	1062.901	821.849
27.950	18.688	1060.989	820.593
28.965	18.751	1059.884	819.968
29.980	18.910	1058.458	819.548
30.994	18.879	1057.802	818.822
32.009	18.982	1056.995	818.613
33.023	18.834	1055.855	816.956
34.038	18.822	1054.300	815.622
35.053	18.744	1053.394	814.479
36.067	18.673	1052.554	813.423
37.082	18.716	1052.021	813.140
38.096	18.841	1051.574	813.315
39.111	18.931	1050.358	812.732
40.126	18.593	1049.190	810.157
41.140	18.360	1047.467	807.657
42.155	18.204	1046.840	806.369
43.169	18.163	1045.069	804.736
44.184	18.304	1044.181	804.648
45.199	18.339	1043.079	803.891
46.213	18.417	1042.987	804.114
47.228	18.776	1042.012	804.975
48.242	18.719	1041.167	803.983
49.257	18.568	1039.885	802.218
50.271	18.698	1039.349	802.339
51.286	18.706	1038.513	801.658
52.301	18.650	1037.521	800.562
53.315	18.569	1036.128	799.042
54.330	18.511	1035.303	798.065
55.344	18.319	1034.126	796.192
56.359	18.465	1033.465	796.289
57.374	18.317	1032.707	794.952
58.388	18.217	1031.699	793.638
59.403	18.265	1030.597	792.943
60.417	18.280	1030.158	792.606
61.432	18.188	1029.332	791.472
62.447	18.119	1028.482	790.432
63.461	18.120	1027.418	789.548
64.476	18.012	1026.770	788.484
65.490	17.988	1025.959	787.678
66.505	18.119	1025.151	787.594
67.520	18.213	1024.223	787.241
68.534	18.092	1023.787	786.281
69.549	18.011	1023.287	785.456
70.563	17.946	1022.333	784.353
71.578	17.959	1021.253	783.518
72.593	17.792	1020.480	782.089
73.607	17.859	1019.664	781.699
74.622	17.845	1019.372	781.342
75.636	17.923	1018.802	781.195
76.651	17.993	1017.637	780.553
77.666	17.935	1017.593	780.185
78.680	17.986	1016.854	779.782
79.695	18.154	1015.679	779.577
80.709	18.177	1015.342	779.353
81.724	18.297	1014.910	779.499
82.739	18.411	1014.327	779.505
83.753	18.548	1013.838	779.678
84.768	18.835	1012.968	780.246
85.782	18.875	1012.453	779.961
86.797	18.885	1011.497	779.200
87.812	18.735	1010.223	777.471
88.826	18.665	1009.334	776.403
89.841	18.802	1008.973	776.678
90.855	18.812	1007.739	775.700
91.870	18.952	1006.878	775.603
92.884	18.939	1006.334	775.057
93.899	18.849	1005.361	773.833
94.914	19.022	1004.322	773.743
95.928	18.962	1003.485	772.759
96.943	18.848	1002.651	771.540
97.957	18.763	1001.900	770.511
98.972	18.737	1001.117	769.725
99.987	18.826	1000.056	769.240
101.001	18.933	998.968	768.810
102.016	18.882	998.055	767.813
103.030	18.819	997.657	767.159
104.045	18.890	996.686	766.661
105.060	18.673	996.041	765.129
106.074	18.534	994.674	763.391
107.089	18.253	993.327	761.038
108.103	18.069	992.793	759.745
109.118	18.122	991.478	758.907
110.133	18.105	990.943	758.358
111.147	18.095	989.553	757.179
112.162	18.167	988.954	756.976
113.176	18.290	988.642	757.213
114.191	18.370	987.974	756.990
115.206	18.402	986.875	756.218
116.220	18.129	986.518	754.675
117.235	18.191	985.190	753.863
118.249	18.066	984.927	753.047
119.264	18.112	983.972	752.452
120.279	18.000	983.134	751.252
121.293	18.057	981.982	750.556
122.308	17.925	980.797	749.003
123.322	17.806	979.998	747.806
124.337	17.892	979.048	747.393
125.352	17.921	977.973	746.630
126.366	17.858	976.977	745.532
127.381	17.930	975.789	744.873
128.395	18.010	975.103	744.631
129.410	18.115	974.378	744.472
130.424	18.178	973.540	744.036
131.439	18.337	973.238	744.431
132.454	18.421	972.296	744.011
133.468	18.382	971.197	742.936
134.483	18.372	970.194	742.059
135.497	18.396	969.152	741.298
136.512	18.336	968.995	740.853
137.527	18.390	968.365	740.542
138.541	18.507	967.156	740.053
139.556	18.339	966.897	739.065
140.570	18.624	966.338	739.803
141.585	18.729	965.532	739.571
142.600	18.757	964.864	739.116
143.614	18.882	963.883	738.838
144.629	19.036	962.714	738.536
145.643	18.870	962.217	737.379
146.658	18.744	960.698	735.608
147.673	18.706	959.792	734.686
148.687	18.597	958.934	733.500
149.702	18.366	958.300	731.963
150.716	18.309	957.361	730.935
151.731	18.541	956.551	731.244
152.746	18.290	956.469	730.044
153.760	18.464	955.623	730.076
154.775	18.571	955.089	730.058
155.789	18.752	954.220	730.100
156.804	18.680	953.328	729.048
157.819	18.769	953.124	729.206
158.833	18.818	952.380	728.779
159.848	19.079	951.733	729.327
160.862	18.876	950.402	727.380
161.877	18.527	949.209	724.928
162.892	18.341	948.463	723.512
163.906	18.536	947.395	723.454
164.921	18.300	946.654	721.829
165.935	18.531	945.740	722.041
166.950	18.543	944.703	721.238
167.964	18.520	943.976	720.520
168.979	18.559	942.380	719.403
169.994	18.449	942.131	718.689
171.008	18.512	941.611	718.490
172.023	18.844	940.661	719.091
173.037	18.845	940.602	718.988
174.052	18.763	939.224	717.529
175.067	18.378	938.964	715.659
176.081	18.316	937.998	714.599
177.096	18.409	937.494	714.538
178.110	18.482	937.031	714.429
179.125	18.503	936.280	713.881
180.140	18.575	936.043	713.936
181.154	18.769	935.513	714.275
182.169	18.870	935.022	714.257
183.183	18.940	934.571	714.141
184.198	18.931	933.437	713.171
185.213	18.807	933.142	712.370
186.227	18.946	932.071	712.065
187.242	18.922	931.935	711.798
188.256	19.244	931.269	712.561
189.271	19.123	930.181	711.166
190.286	18.799	929.227	709.034
191.300	18.380	928.109	706.391
192.315	18.244	927.506	705.307
193.329	18.368	927.010	705.381
194.344	18.532	926.363	705.502
195.359	18.641	925.969	705.585
196.373	18.698	925.807	705.636
197.388	18.906	925.223	705.982
198.402	19.135	924.829	706.559
199.417	19.086	924.694	706.190
200.432	19.372	924.062	706.817
201.446	19.566	923.502	707.124
202.461	19.492	923.238	706.555
203.475	19.449	922.276	705.579
204.490	19.240	921.359	703.965
205.504	18.990	920.287	702.060
206.519	18.920	919.734	701.290
207.534	19.050	918.690	700.964
208.548	18.838	918.558	699.934
209.563	19.003	917.603	699.818
210.577	19.030	916.803	699.256
211.592	19.226	916.350	699.644
212.607	19.305	916.061	699.681
213.621	19.292	915.150	698.873
214.636	19.319	914.138	698.146
215.650	19.353	913.455	697.701
216.665	19.368	912.752	697.164
217.680	19.516	911.837	697.001
218.694	19.465	911.383	696.386
219.709	19.279	911.011	695.290
220.723	19.370	910.087	694.889
221.738	19.163	910.078	693.986
222.753	19.206	909.294	693.502
223.767	19.588	908.311	694.225
224.782	19.602	908.204	694.140
225.796	19.583	907.662	693.588
226.811	19.508	906.979	692.702
227.826	19.378	905.970	691.350
228.840	19.308	905.177	690.404
229.855	19.294	904.477	689.750
230.869	19.293	904.001	689.324
231.884	19.313	903.078	688.640
232.899	19.231	902.428	687.754
233.913	19.107	901.349	686.378
234.928	19.076	900.917	685.865
235.942	19.031	900.583	685.369
236.957	19.094	899.767	684.939
237.972	19.222	898.968	684.779
238.986	19.091	898.507	683.846
240.001	19.074	898.023	683.351
241.015	19.296	897.097	683.465
242.030	19.325	896.696	683.215
243.045	19.302	896.388	682.826
244.059	19.327	895.785	682.407
245.074	19.359	895.247	682.065
246.088	19.489	894.689	682.092
247.103	19.590	894.191	682.052
248.117	19.659	894.117	682.206
249.132	20.016	893.229	682.879
250.147	20.201	892.759	683.186
251.161	20.321	892.115	683.106
252.176	20.340	891.701	682.804
253.190	20.374	890.811	682.195
254.205	20.310	890.341	681.523
255.220	20.318	889.895	681.153
256.234	20.297	889.001	680.324
257.249	20.347	888.379	679.985
258.263	20.226	887.721	678.949
259.278	20.202	886.807	678.096
260.293	20.339	886.487	678.324
261.307	20.502	885.850	678.416
262.322	20.400	885.147	677.418
263.336	20.452	884.561	677.110
264.351	20.556	883.565	676.695
265.366	20.481	883.139	676.016
266.380	20.425	882.621	675.343
267.395	20.353	881.641	674.253
268.409	20.299	880.869	673.395
269.424	20.338	880.065	672.873
270.439	20.396	879.390	672.521
271.453	20.117	878.720	670.869
272.468	20.092	878.519	670.559
273.482	20.104	877.501	669.769
274.497	20.148	876.946	669.455
275.512	20.150	876.793	669.289
276.526	20.103	876.424	668.764
277.541	20.266	875.666	668.755
278.555	20.473	875.055	669.026
279.570	20.663	874.748	669.466
280.585	20.788	873.702	669.084
281.599	20.509	872.526	667.056
282.614	20.380	871.838	665.976
283.628	20.305	871.538	665.402
284.643	20.344	870.703	664.851
285.657	20.319	870.391	664.459
286.672	20.421	869.387	664.024
287.687	20.287	869.018	663.172
288.701	20.413	868.453	663.163
289.716	20.327	867.929	662.378
290.730	20.248	867.827	661.937
291.745	20.399	866.802	661.675
292.760	20.505	866.408	661.716
293.774	20.592	866.143	661.788
294.789	20.594	864.906	660.792
295.803	20.348	864.623	659.581
296.818	20.390	863.443	658.783
297.833	20.409	863.029	658.483
298.847	20.498	862.017	657.986
299.862	20.607	861.649	658.063
300.876	20.619	861.512	657.943
301.891	20.713	861.230	658.027
302.906	20.797	860.547	657.761
303.920	21.053	860.051	658.294
304.935	21.110	859.557	658.070
305.949	20.875	858.788	656.538
306.964	20.808	857.769	655.450
307.979	20.837	857.391	655.212
308.993	20.856	857.032	654.951
310.008	20.808	856.155	654.044
311.022	21.038	855.412	654.279
312.037	20.721	855.030	652.741
313.052	20.434	854.244	651.006
314.066	20.331	853.929	650.325
315.081	20.288	853.151	649.514
316.095	20.426	852.509	649.483
317.110	20.422	851.999	649.020
318.125	20.404	851.816	648.758
319.139	20.444	850.954	648.193
320.154	20.366	850.883	647.792
321.168	20.546	849.925	647.674
322.183	20.483	849.592	647.129
323.197	20.509	849.371	646.998
324.212	20.725	848.460	647.052
325.227	20.764	847.703	646.561
326.241	20.529	847.455	645.444
327.256	20.525	846.634	644.744
328.270	20.511	846.381	644.442
329.285	20.530	845.517	643.798
330.300	20.554	845.104	643.517
331.314	20.592	844.693	643.287
332.329	20.675	844.328	643.259
333.343	20.843	844.138	643.677
334.358	20.756	843.829	643.063
335.373	20.980	843.117	643.291
336.387	20.873	842.561	642.415
337.402	20.991	842.950	643.090
338.416	21.096	842.480	643.062
339.431	21.360	842.088	643.678
340.446	21.371	841.783	643.428
341.460	21.432	841.061	643.045
342.475	21.481	840.789	642.961
343.489	21.440	840.681	642.670
344.504	21.423	840.308	642.267
345.519	21.614	839.519	642.307
346.533	21.566	839.055	641.719
347.548	21.184	838.312	639.696
348.562	21.061	837.570	638.622
349.577	21.061	836.673	637.879
350.592	20.877	835.951	636.603
351.606	21.058	835.049	636.521
352.621	21.077	834.266	635.936
353.635	21.026	834.165	635.615
354.650	21.050	833.849	635.406
355.665	21.043	832.900	634.603
356.679	21.167	832.306	634.544
357.694	21.030	832.240	633.941
358.708	21.339	831.162	634.183
359.723	21.315	830.489	633.526
360.738	21.144	830.168	632.606
361.752	21.316	829.371	632.565
362.767	21.581	828.761	633.004
363.781	21.680	828.651	633.220
364.796	21.656	828.755	633.157
365.810	21.900	828.312	633.643
366.825	21.745	827.515	632.419
367.840	21.912	826.848	632.455
368.854	21.610	826.542	631.076
369.869	21.547	826.038	630.411
370.883	21.698	825.645	630.598
371.898	21.579	825.795	630.227
372.913	21.770	824.539	629.898
373.927	21.686	824.269	629.336
374.942	21.758	823.653	629.067
375.956	21.899	823.317	629.262
376.971	21.963	823.061	629.240
377.986	21.933	822.847	628.913
379.000	21.928	822.510	628.583
380.015	22.055	821.536	628.236
381.029	21.890	820.936	627.133
382.044	22.001	820.491	627.135
383.059	22.151	819.710	627.016
384.073	21.884	819.198	625.617
385.088	21.620	818.287	623.924
386.102	21.611	817.833	623.492
387.117	21.568	817.248	622.838
388.132	21.543	816.777	622.334
389.146	21.659	816.302	622.331
390.161	21.868	816.069	622.841
391.175	21.875	815.600	622.452
392.190	21.748	814.969	621.464
393.205	21.792	814.188	620.969
394.219	21.729	813.794	620.391
395.234	21.678	813.302	619.780
396.248	21.499	812.876	618.769
397.263	21.477	812.130	618.069
398.278	21.384	811.899	617.511
399.292	21.461	811.657	617.543
400.307	21.367	810.920	616.596
401.321	21.611	810.597	617.155
402.336	21.754	809.949	617.113
403.350	21.864	809.484	617.090
404.365	21.923	809.293	617.095
405.380	22.025	809.023	617.195
406.394	22.197	808.581	617.407
407.409	22.227	808.151	617.130
408.423	22.392	807.754	617.349
409.438	22.270	807.572	616.727
410.453	22.312	807.689	616.910
411.467	22.417	807.048	616.734
412.482	22.482	806.540	616.519
413.496	22.642	806.017	616.626
414.511	22.599	805.381	615.934
415.526	22.464	805.284	615.332
416.540	22.354	804.725	614.466
417.555	22.362	804.235	614.066
418.569	22.310	803.933	613.600
419.584	22.382	803.125	613.180
420.599	22.559	802.732	613.440
421.613	162.828	1368.919	1794.790
422.628	141.557	1451.413	1794.879
