DTS Sentinel unit serial number:	SN413079Multiplexer serial number:	ORYXHardware model number:	OX4-SRSoftware version number:	ORYX F/W v4.00 Oryx Data Collector v3.7.2.0data status	okinstallation	princeton_trtdifferential loss correction	single-endedforward channel	channel 1reverse channel	N/Adate	2019/09/13time	10:02:35forward acquisition time	60.00reverse acquisition time	0.00gamma	496.2192k internal	0.2325k external	0.2325temperature offset calibration	1.0157default loss term (dB/km)	0.3790temperature slope calibration	1.0000multiplexer offset coefficient	1.0000multiplexer slope coefficient	1.0000fibre end	0.00T internal ref (°C)	30.31T ext. ref 1 (°C)	4.47T ext. ref 2 (°C)	27.72length (m)	temperature (°C)	Stokes	anti-Stokes-747.200	-130.384	0.175	-0.024
-746.185	-22.360	-0.311	0.190
-745.171	-144.849	-0.233	-0.022
-744.156	-12.558	-0.040	-0.027
-743.142	261.953	0.042	0.073
-742.127	547.198	-0.102	0.246
-741.112	-88.038	-0.286	-0.087
-740.098	-200.000	0.032	-0.143
-739.083	-3.072	-0.172	0.121
-738.069	800.000	0.041	0.124
-737.054	35.728	-0.236	0.209
-736.039	800.000	-0.091	-0.342
-735.025	-32.306	0.104	0.059
-734.010	280.564	-0.086	-0.155
-732.996	-200.000	0.013	0.278
-731.981	250.680	0.108	-0.186
-730.966	-124.900	-0.166	0.026
-729.952	142.655	-0.177	0.237
-728.937	-80.345	-0.141	-0.048
-727.923	-61.915	0.295	-0.124
-726.908	-200.000	-0.003	0.118
-725.894	242.159	-0.122	0.206
-724.879	-200.000	0.072	0.334
-723.864	-200.000	0.009	0.256
-722.850	41.213	-0.218	0.199
-721.835	54.107	-0.233	0.226
-720.821	10.325	0.158	0.121
-719.806	-200.000	-0.000	0.267
-718.791	71.881	-0.190	-0.199
-717.777	800.000	0.048	-0.153
-716.762	266.716	-0.124	-0.218
-715.748	67.661	0.098	0.101
-714.733	-200.000	0.035	0.201
-713.718	-20.341	0.210	0.130
-712.704	-56.450	-0.319	0.142
-711.689	242.599	-0.086	0.145
-710.675	266.296	-0.052	-0.091
-709.660	185.443	-0.146	-0.219
-708.645	16.996	0.194	0.155
-707.631	431.742	0.081	0.177
-706.616	13.503	0.245	-0.192
-705.602	-64.316	0.065	-0.027
-704.587	138.650	0.107	-0.141
-703.572	-42.020	0.194	-0.100
-702.558	-200.000	0.031	-0.140
-701.543	-67.583	-0.212	0.084
-700.529	-200.000	0.069	-0.326
-699.514	215.278	-0.148	0.237
-698.499	789.082	0.084	0.234
-697.485	113.034	-0.096	0.118
-696.470	31.740	-0.255	-0.221
-695.456	66.346	-0.055	0.056
-694.441	-200.000	0.006	0.315
-693.426	-16.609	-0.123	0.078
-692.412	151.411	0.023	-0.032
-691.397	-34.592	0.200	0.110
-690.383	-41.854	0.203	0.105
-689.368	9.410	-0.277	-0.211
-688.354	-10.049	0.253	0.169
-687.339	-44.802	0.133	0.067
-686.324	800.000	0.050	-0.206
-685.310	-83.587	0.242	-0.078
-684.295	42.775	-0.111	-0.102
-683.281	-53.121	-0.332	-0.154
-682.266	800.000	0.110	-0.468
-681.251	61.408	-0.109	0.109
-680.237	-160.229	-0.111	0.006
-679.222	-85.659	0.153	0.048
-678.208	-45.889	0.260	0.129
-677.193	-200.000	0.022	-0.468
-676.178	42.498	0.153	0.140
-675.164	-75.117	0.216	0.078
-674.149	1.490	0.067	-0.049
-673.135	39.231	0.166	0.149
-672.120	-200.000	-0.002	0.447
-671.105	-200.000	0.042	0.294
-670.091	-141.329	-0.312	-0.032
-669.076	71.389	-0.155	-0.162
-668.062	-22.960	-0.220	0.133
-667.047	11.677	0.108	0.084
-666.032	-154.238	0.205	0.014
-665.018	-200.000	0.051	0.289
-664.003	-200.000	-0.001	0.098
-662.989	-52.507	0.433	0.201
-661.974	620.859	-0.158	-0.400
-660.959	89.945	0.115	-0.129
-659.945	6.949	0.287	-0.215
-658.930	421.294	0.047	0.101
-657.916	179.054	0.095	-0.140
-656.901	-200.000	-0.026	0.309
-655.886	-149.817	0.102	-0.008
-654.872	-54.132	-0.158	0.072
-653.857	-200.000	0.050	-0.317
-652.843	107.688	-0.079	0.094
-651.828	80.083	0.070	-0.076
-650.814	800.000	0.065	-0.200
-649.799	7.218	0.158	-0.119
-648.784	-200.000	-0.035	-0.273
-647.770	-31.332	-0.228	-0.129
-646.755	-200.000	-0.306	0.001
-645.741	-23.665	-0.083	-0.050
-644.726	136.906	0.160	-0.211
-643.711	-109.438	0.441	-0.094
-642.697	-13.889	-0.332	-0.215
-641.682	78.123	-0.125	-0.134
-640.668	7.456	0.066	0.050
-639.653	86.701	0.050	0.056
-638.638	-20.026	0.189	0.117
-637.624	800.000	-0.061	-0.253
-636.609	-106.475	-0.300	0.067
-635.595	-17.702	0.176	-0.111
-634.580	-105.372	0.226	0.052
-633.565	372.380	0.088	-0.180
-632.551	-147.425	-0.025	0.002
-631.536	451.347	0.154	-0.342
-630.522	-200.000	-0.017	0.181
-629.507	-74.241	-0.304	0.110
-628.492	354.589	0.046	-0.092
-627.478	-200.000	-0.011	-0.122
-626.463	36.386	0.167	-0.148
-625.449	-200.000	0.005	0.036
-624.434	48.538	0.211	-0.198
-623.419	408.942	0.013	-0.028
-622.405	-126.503	-0.312	-0.047
-621.390	308.098	0.029	0.055
-620.376	-200.000	0.026	0.148
-619.361	4.121	0.011	0.008
-618.346	-24.144	-0.304	-0.182
-617.332	292.886	0.054	-0.099
-616.317	800.000	-0.043	0.135
-615.303	800.000	0.035	0.103
-614.288	530.989	-0.039	0.092
-613.273	800.000	-0.048	-0.140
-612.259	-77.539	0.205	-0.072
-611.244	800.000	0.029	0.124
-610.230	305.624	0.154	0.287
-609.215	167.023	0.214	0.304
-608.201	225.842	0.225	-0.366
-607.186	347.115	0.035	-0.069
-606.171	28.322	0.158	0.134
-605.157	5.924	0.324	-0.241
-604.142	-132.514	-0.218	0.028
-603.128	800.000	0.015	0.049
-602.113	-156.464	-0.169	0.011
-601.098	265.795	0.125	-0.219
-600.084	-79.639	0.068	0.023
-599.069	131.294	0.140	-0.180
-598.055	-113.264	-0.373	-0.074
-597.040	285.588	0.123	0.222
-596.025	79.808	-0.199	-0.215
-595.011	-115.408	-0.179	-0.034
-593.996	-153.329	0.070	0.005
-592.982	-200.000	-0.022	0.193
-591.967	-200.000	0.016	-0.138
-590.952	-200.000	-0.039	0.350
-589.938	-1.518	-0.292	0.206
-588.923	102.476	0.153	0.179
-587.909	-148.265	-0.357	-0.030
-586.894	-169.659	0.089	0.003
-585.879	86.372	0.259	-0.286
-584.865	266.769	-0.091	0.159
-583.850	-167.771	0.158	0.006
-582.836	-13.550	-0.046	-0.030
-581.821	95.358	0.159	-0.182
-580.806	458.135	-0.048	-0.107
-579.792	-200.000	0.015	-0.079
-578.777	800.000	-0.087	-0.259
-577.763	-49.235	-0.359	-0.172
-576.748	336.640	-0.071	0.138
-575.733	97.958	-0.245	0.283
-574.719	-200.000	-0.018	0.135
-573.704	-200.000	0.024	-0.127
-572.690	1.394	0.075	0.054
-571.675	-126.300	-0.120	0.018
-570.661	-127.112	-0.333	-0.049
-569.646	653.696	0.045	-0.117
-568.631	-104.733	-0.274	-0.063
-567.617	800.000	-0.132	0.403
-566.602	355.451	0.189	-0.377
-565.588	-52.947	0.281	-0.129
-564.573	35.437	-0.028	-0.025
-563.558	93.240	-0.189	-0.214
-562.544	-147.082	0.303	0.026
-561.529	122.105	-0.073	0.091
-560.515	-110.250	0.324	-0.068
-559.500	-22.431	-0.151	-0.092
-558.485	20.413	0.100	0.081
-557.471	-96.972	0.051	0.013
-556.456	-151.986	0.163	-0.012
-555.442	-200.000	0.043	-0.319
-554.427	-69.880	-0.345	0.132
-553.412	-159.602	0.522	0.029
-552.398	-200.000	0.057	0.296
-551.383	186.126	0.107	0.159
-550.369	-58.647	0.170	-0.074
-549.354	216.939	0.141	0.225
-548.339	800.000	0.062	-0.172
-547.325	102.630	0.020	-0.024
-546.310	-93.545	-0.364	-0.101
-545.296	-91.899	0.139	0.040
-544.281	-174.033	-0.304	-0.009
-543.266	-182.238	-0.239	0.004
-542.252	428.008	-0.050	-0.109
-541.237	-200.000	-0.012	-0.182
-540.223	16.240	-0.139	-0.110
-539.208	130.888	-0.268	-0.344
-538.193	172.966	-0.119	-0.172
-537.179	175.373	-0.127	0.184
-536.164	-24.637	-0.403	-0.240
-535.150	-52.060	0.078	0.036
-534.135	12.857	0.181	-0.140
-533.121	317.037	0.108	-0.205
-532.106	104.275	0.106	0.125
-531.091	172.279	0.156	0.225
-530.077	-48.935	0.071	-0.034
-529.062	116.798	-0.054	-0.066
-528.048	-40.190	-0.064	-0.034
-527.033	-200.000	-0.004	-0.145
-526.018	-135.440	-0.168	-0.020
-525.004	120.325	0.084	-0.104
-523.989	292.174	-0.124	-0.225
-522.975	-153.623	-0.340	-0.023
-521.960	182.878	0.038	0.056
-520.945	118.105	-0.097	0.119
-519.931	140.988	-0.145	-0.192
-518.916	-138.206	-0.065	-0.007
-517.902	13.228	0.206	0.159
-516.887	800.000	0.030	-0.115
-515.872	-200.000	0.007	-0.213
-514.858	-58.043	-0.164	-0.072
-513.843	193.771	0.175	0.265
-512.829	161.743	0.105	0.147
-511.814	800.000	-0.055	0.193
-510.799	-51.075	-0.213	-0.100
-509.785	135.258	-0.140	0.183
-508.770	401.763	0.165	0.346
-507.756	-11.066	0.548	-0.362
-506.741	74.564	-0.088	0.093
-505.726	-200.000	0.021	0.349
-504.712	476.525	-0.075	0.171
-503.697	10.882	-0.264	-0.202
-502.683	-2.022	0.257	0.180
-501.668	-20.363	0.088	0.054
-500.653	26.092	-0.295	-0.246
-499.639	-108.737	-0.136	-0.029
-498.624	-200.000	-0.010	0.061
-497.610	30.633	0.044	-0.037
-496.595	91.033	0.258	-0.289
-495.581	475.925	0.022	-0.049
-494.566	-91.629	0.013	0.004
-493.551	51.387	-0.059	0.056
-492.537	24.956	-0.063	0.052
-491.522	-200.000	-0.042	0.472
-490.508	-167.461	-0.163	-0.007
-489.493	-31.349	0.262	-0.148
-488.478	-30.816	-0.116	0.066
-487.464	116.072	-0.146	-0.178
-486.449	140.687	0.188	-0.248
-485.435	-140.840	0.039	-0.004
-484.420	-200.000	-0.030	-0.395
-483.405	0.220	0.188	-0.134
-482.391	691.819	-0.028	-0.073
-481.376	-200.000	0.053	0.259
-480.362	-21.694	0.237	0.144
-479.347	101.645	-0.112	0.130
-478.332	-106.190	0.226	-0.051
-477.318	-67.165	-0.107	0.042
-476.303	800.000	0.042	-0.153
-475.289	-0.234	-0.147	0.104
-474.274	428.920	-0.097	-0.208
-473.259	-197.928	0.195	0.001
-472.245	42.554	-0.090	0.082
-471.230	800.000	0.067	-0.261
-470.216	276.189	-0.232	-0.411
-469.201	190.737	-0.092	-0.137
-468.186	-88.404	-0.127	0.038
-467.172	-25.728	-0.196	0.116
-466.157	800.000	0.035	-0.107
-465.143	179.775	-0.180	0.263
-464.128	-130.624	0.247	0.033
-463.113	-200.000	0.028	-0.129
-462.099	-200.000	0.009	-0.126
-461.084	-38.376	0.178	0.094
-460.070	-138.376	0.161	0.018
-459.055	-39.876	0.101	0.053
-458.040	4.748	-0.281	-0.206
-457.026	110.361	0.070	-0.083
-456.011	-200.000	0.227	0.001
-454.997	120.155	-0.170	-0.210
-453.982	-103.503	-0.094	0.022
-452.968	-87.959	-0.320	0.096
-451.953	-96.140	0.343	-0.091
-450.938	-116.937	0.090	-0.016
-449.924	-0.526	0.135	-0.095
-448.909	-81.138	-0.257	0.085
-447.895	-51.779	-0.105	0.049
-446.880	-200.000	-0.000	-0.292
-445.865	30.689	0.186	0.159
-444.851	800.000	-0.015	0.058
-443.836	438.728	-0.075	-0.164
-442.822	582.332	0.037	0.091
-441.807	-105.553	0.437	0.099
-440.792	-70.351	0.198	-0.075
-439.778	-130.527	0.236	-0.032
-438.763	-200.000	-0.046	-0.252
-437.749	-200.000	0.001	-0.176
-436.734	433.489	-0.110	-0.238
-435.719	-200.000	0.010	0.199
-434.705	238.098	0.097	0.161
-433.690	37.954	0.058	0.051
-432.676	218.933	0.122	0.195
-431.661	95.429	-0.278	0.316
-430.646	253.608	-0.128	0.218
-429.632	-119.306	0.142	0.025
-428.617	142.367	0.169	-0.223
-427.603	-200.000	0.039	-0.242
-426.588	-76.799	-0.222	0.077
-425.573	765.469	0.039	-0.107
-424.559	-77.987	0.193	0.066
-423.544	800.000	-0.010	-0.034
-422.530	-103.285	-0.147	-0.034
-421.515	170.012	0.038	-0.054
-420.500	61.031	-0.121	-0.119
-419.486	166.425	-0.218	-0.308
-418.471	601.430	0.088	-0.217
-417.457	-200.000	-0.003	-0.099
-416.442	-196.409	0.375	-0.003
-415.428	-33.117	-0.633	-0.350
-414.413	-96.574	0.264	-0.069
-413.398	800.000	-0.089	-0.262
-412.384	-35.530	-0.370	-0.200
-411.369	-57.194	0.283	0.124
-410.355	-22.402	0.028	-0.017
-409.340	-21.843	-0.128	0.078
-408.325	282.210	0.157	-0.280
-407.311	-162.745	-0.226	0.011
-406.296	59.617	-0.161	0.158
-405.282	-41.454	-0.066	-0.034
-404.267	800.000	-0.095	0.382
-403.252	-200.000	0.003	-0.055
-402.238	-161.949	0.325	-0.016
-401.223	177.266	-0.163	0.236
-400.209	-0.785	-0.148	0.105
-399.194	-129.707	0.360	0.049
-398.179	454.714	0.040	0.089
-397.165	-162.874	0.110	-0.005
-396.150	357.011	0.074	-0.147
-395.136	-200.000	-0.032	-0.169
-394.121	-96.633	-0.497	0.130
-393.106	-200.000	-0.069	0.440
-392.092	-200.000	-0.028	0.190
-391.077	-133.117	0.465	0.059
-390.063	-24.148	0.119	0.071
-389.048	437.726	0.111	0.242
-388.033	-121.226	-0.243	-0.040
-387.019	-122.851	-0.039	-0.006
-386.004	98.049	0.102	-0.117
-384.990	484.816	-0.131	0.298
-383.975	-45.650	0.298	0.147
-382.960	150.867	0.132	0.179
-381.946	430.158	-0.016	0.035
-380.931	378.943	0.167	0.341
-379.917	111.337	-0.099	-0.119
-378.902	-94.209	-0.168	-0.046
-377.888	195.966	-0.080	0.121
-376.873	631.310	0.050	0.126
-375.858	-200.000	0.012	-0.272
-374.844	-200.000	-0.036	-0.244
-373.829	437.813	-0.106	0.230
-372.815	-200.000	-0.018	0.541
-371.800	-80.591	0.078	0.026
-370.785	-109.011	0.227	-0.048
-369.771	246.288	0.160	-0.269
-368.756	283.671	-0.078	-0.140
-367.742	125.846	0.132	-0.166
-366.727	-200.000	-0.064	0.359
-365.712	-110.651	0.338	0.069
-364.698	-41.933	0.081	-0.041
-363.683	35.564	-0.230	-0.201
-362.669	674.354	0.096	0.246
-361.654	800.000	-0.023	-0.063
-360.639	-119.869	-0.161	0.027
-359.625	523.159	-0.039	-0.092
-358.610	-200.000	-0.037	0.380
-357.596	-54.278	0.012	-0.005
-356.581	-200.000	0.028	0.387
-355.566	201.207	0.199	0.304
-354.552	800.000	0.081	0.307
-353.537	134.019	0.220	0.283
-352.523	-44.063	-0.159	-0.079
-351.508	-85.533	-0.178	0.055
-350.493	800.000	-0.119	0.364
-349.479	52.017	-0.128	0.121
-348.464	135.131	-0.173	0.223
-347.450	-104.166	-0.168	-0.039
-346.435	800.000	-0.011	-0.042
-345.420	3.756	-0.166	-0.121
-344.406	491.003	-0.075	-0.171
-343.391	146.274	-0.186	-0.248
-342.377	800.000	-0.102	-0.284
-341.362	402.071	-0.114	-0.238
-340.348	-200.000	-0.090	-0.420
-339.333	-133.792	0.366	0.045
-338.318	-63.308	0.232	0.095
-337.304	89.744	0.295	0.327
-336.289	767.854	0.062	0.168
-335.275	800.000	0.099	0.273
-334.260	196.443	0.190	0.288
-333.245	-200.000	-0.046	0.484
-332.231	609.322	0.134	0.331
-331.216	-200.000	-0.084	-0.444
-330.202	3.973	0.380	-0.276
-329.187	281.934	-0.090	-0.159
-328.172	67.386	0.106	-0.108
-327.158	-200.000	-0.038	-0.168
-326.143	201.923	-0.153	-0.234
-325.129	81.120	-0.163	-0.175
-324.114	67.299	-0.196	0.198
-323.099	-128.374	-0.234	0.033
-322.085	-150.958	-0.079	-0.006
-321.070	-97.224	-0.432	-0.112
-320.056	800.000	-0.023	0.085
-319.041	-74.131	-0.151	0.054
-318.026	-200.000	0.043	-0.265
-317.012	126.879	0.090	0.114
-315.997	12.676	-0.236	0.181
-314.983	-200.000	0.017	0.204
-313.968	-24.064	-0.093	0.055
-312.953	800.000	-0.022	-0.071
-311.939	-78.147	-0.206	-0.070
-310.924	164.924	0.155	-0.217
-309.910	34.180	-0.248	0.214
-308.895	-100.562	-0.191	0.047
-307.880	-200.000	-0.026	-0.118
-306.866	-200.000	0.010	0.069
-305.851	-136.127	-0.248	-0.029
-304.837	92.797	0.155	-0.174
-303.822	64.915	-0.166	0.166
-302.807	34.256	-0.087	0.075
-301.793	-111.029	-0.302	-0.062
-300.778	-200.000	0.002	0.466
-299.764	110.553	0.117	-0.139
-298.749	-200.000	-0.006	0.028
-297.735	328.863	-0.096	-0.183
-296.720	171.455	-0.043	0.061
-295.705	346.519	0.054	-0.106
-294.691	-43.850	0.265	-0.132
-293.676	22.289	0.199	0.162
-292.662	-96.454	0.076	0.020
-291.647	144.721	0.060	-0.079
-290.632	-171.207	-0.146	0.005
-289.618	-200.000	0.040	-0.263
-288.603	317.251	0.136	0.254
-287.589	240.626	0.073	0.121
-286.574	195.612	-0.185	-0.279
-285.559	-136.810	0.196	-0.022
-284.545	-153.423	-0.217	0.015
-283.530	89.655	-0.058	0.064
-282.516	401.333	0.121	0.253
-281.501	321.461	0.077	-0.146
-280.486	-117.322	-0.138	0.025
-279.472	146.337	0.133	0.177
-278.457	422.959	-0.115	-0.246
-277.443	-3.519	-0.218	-0.150
-276.428	41.352	0.252	0.226
-275.413	192.777	0.085	0.126
-274.399	-200.000	0.034	-0.233
-273.384	-48.693	0.269	-0.128
-272.370	48.951	-0.212	-0.197
-271.355	-67.596	0.184	-0.071
-270.340	725.923	0.140	0.369
-269.326	35.705	0.214	-0.186
-268.311	37.865	0.130	0.115
-267.297	-75.795	-0.108	-0.038
-266.282	-27.685	0.098	-0.056
-265.267	92.718	-0.101	0.113
-264.253	-83.952	0.131	-0.041
-263.238	-200.000	0.007	-0.143
-262.224	380.239	0.129	-0.262
-261.209	251.462	0.069	0.116
-260.195	765.306	0.109	-0.292
-259.180	-59.405	-0.129	0.055
-258.165	239.851	0.129	0.213
-257.151	-93.967	0.190	-0.052
-256.136	-62.255	-0.117	0.048
-255.122	-200.000	0.024	-0.114
-254.107	-95.146	-0.197	0.053
-253.092	-39.245	0.120	-0.063
-252.078	149.510	-0.182	-0.244
-251.063	-143.719	0.270	-0.025
-250.049	-95.619	-0.070	0.019
-249.034	-200.000	-0.037	0.375
-248.019	52.764	-0.074	-0.070
-247.005	-77.598	0.214	-0.073
-245.990	-54.373	-0.272	-0.122
-244.976	-153.783	0.428	-0.029
-243.961	-57.760	-0.217	-0.094
-242.946	-148.159	-0.201	-0.016
-241.932	21.893	0.162	0.131
-240.917	-121.042	0.136	-0.023
-239.903	119.031	-0.044	0.054
-238.888	800.000	-0.038	0.104
-237.873	-200.000	-0.056	0.264
-236.859	210.228	-0.177	0.274
-235.844	-200.000	-0.019	0.177
-234.830	15.009	-0.293	-0.227
-233.815	-11.480	0.195	0.127
-232.800	49.972	0.165	0.154
-231.786	23.559	-0.291	0.237
-230.771	-69.885	0.036	-0.014
-229.757	-200.000	-0.025	-0.110
-228.742	-200.000	-0.374	0.002
-227.727	220.249	-0.179	0.283
-226.713	-169.897	-0.263	-0.009
-225.698	800.000	0.104	0.318
-224.684	-139.615	0.315	-0.033
-223.669	-112.755	-0.110	-0.022
-222.655	-80.731	-0.074	-0.024
-221.640	-200.000	0.065	0.412
-220.625	84.894	-0.230	-0.249
-219.611	-7.219	0.213	0.143
-218.596	-78.789	0.168	0.057
-217.582	-42.628	0.133	0.067
-216.567	-200.000	0.006	0.152
-215.552	-83.764	0.171	-0.054
-214.538	-200.000	-0.051	-0.285
-213.523	159.518	0.078	-0.108
-212.509	189.943	0.078	-0.115
-211.494	-101.723	-0.216	0.052
-210.479	800.000	0.058	-0.199
-209.465	-122.140	0.272	0.044
-208.450	39.007	0.111	-0.098
-207.436	-45.139	0.324	0.159
-206.421	257.249	0.095	-0.161
-205.406	-163.572	0.333	0.016
-204.392	-39.099	-0.151	0.078
-203.377	-14.735	-0.241	0.153
-202.363	764.362	-0.066	-0.177
-201.348	-163.399	-0.211	0.010
-200.333	86.457	0.076	0.083
-199.319	194.891	-0.191	-0.286
-198.304	102.799	-0.143	-0.165
-197.290	-138.343	0.243	0.027
-196.275	-39.120	0.292	0.152
-195.260	-140.982	0.220	0.022
-194.246	-51.007	-0.240	-0.111
-193.231	800.000	-0.053	-0.162
-192.217	45.508	0.226	0.206
-191.202	-116.291	0.409	-0.075
-190.187	324.709	-0.119	0.225
-189.173	77.712	-0.080	0.084
-188.158	69.020	-0.067	0.068
-187.144	104.995	-0.083	-0.097
-186.129	-42.817	-0.264	-0.132
-185.114	577.192	-0.170	0.411
-184.100	65.964	-0.301	0.301
-183.085	579.527	-0.091	-0.221
-182.071	-127.803	-0.070	-0.010
-181.056	-17.059	-0.233	-0.145
-180.042	45.675	0.087	0.079
-179.027	-79.140	-0.209	0.070
-178.012	354.700	-0.048	-0.094
-176.998	65.284	0.159	0.158
-175.983	55.118	0.541	-0.516
-174.969	-121.060	0.352	0.058
-173.954	219.813	-0.106	0.168
-172.939	193.728	0.100	-0.149
-171.925	-70.588	0.155	0.058
-170.910	-81.360	-0.095	0.031
-169.896	-200.000	-0.093	0.462
-168.881	-89.027	-0.061	-0.018
-167.866	40.829	0.200	0.178
-166.852	294.588	-0.162	0.292
-165.837	431.852	-0.075	0.161
-164.823	142.913	0.306	0.401
-163.808	-73.942	0.233	0.083
-162.793	-58.613	-0.034	0.015
-161.779	211.214	0.133	0.206
-160.764	49.120	0.226	-0.210
-159.750	-200.000	0.007	0.257
-158.735	224.954	-0.070	-0.111
-157.720	-169.299	0.126	-0.005
-156.706	460.755	-0.162	-0.357
-155.691	-138.086	-0.169	-0.019
-154.677	-200.000	0.046	0.211
-153.662	558.888	0.055	0.130
-152.647	198.555	-0.151	-0.228
-151.633	98.146	-0.057	0.064
-150.618	-200.000	0.117	0.000
-149.604	91.864	0.166	-0.184
-148.589	294.982	0.030	-0.054
-147.574	-51.344	0.422	0.195
-146.560	-66.555	-0.450	0.176
-145.545	26.411	0.038	0.031
-144.531	-184.861	0.191	-0.003
-143.516	-176.945	-0.124	-0.003
-142.502	89.431	0.136	0.150
-141.487	-64.242	0.056	0.022
-140.472	-117.007	-0.129	0.023
-139.458	800.000	-0.087	-0.333
-138.443	800.000	0.126	0.354
-137.429	-200.000	0.016	0.109
-136.414	-144.824	-0.208	0.019
-135.399	-60.079	0.486	0.204
-134.385	-200.000	0.005	0.198
-133.370	-200.000	0.020	0.214
-132.356	40.546	0.194	-0.172
-131.341	-14.595	-0.193	-0.122
-130.326	-98.580	-0.368	-0.093
-129.312	-61.011	0.366	0.152
-128.297	146.386	-0.027	-0.036
-127.283	-20.305	-0.079	0.048
-126.268	800.000	-0.084	-0.359
-125.253	-200.000	-0.011	0.319
-124.239	24.281	0.194	0.158
-123.224	-16.083	0.239	0.149
-122.210	-154.088	-0.014	-0.001
-121.195	339.427	0.057	0.109
-120.180	-12.742	0.223	0.143
-119.166	-80.198	-0.095	-0.031
-118.151	800.000	0.138	0.399
-117.137	-74.075	-0.338	-0.120
-116.122	-200.000	-0.027	0.306
-115.107	304.299	-0.110	0.200
-114.093	-141.933	0.203	-0.020
-113.078	79.839	0.230	-0.244
-112.064	800.000	0.052	0.203
-111.049	293.117	-0.145	-0.260
-110.034	383.670	0.206	-0.417
-109.020	-20.455	0.382	-0.231
-108.005	800.000	0.158	-0.455
-106.991	116.429	-0.177	0.214
-105.976	376.283	0.122	0.244
-104.962	9.922	0.090	-0.067
-103.947	-70.830	0.282	0.105
-102.932	149.321	0.098	0.131
-101.918	-131.945	0.057	-0.007
-100.903	130.333	-0.155	-0.195
-99.889	651.577	-0.103	0.260
-98.874	318.957	0.172	0.321
-97.859	800.000	0.011	-0.039
-96.845	-48.351	-0.253	0.120
-95.830	-200.000	0.018	-0.112
-94.816	-200.000	0.024	0.132
-93.801	245.935	0.042	0.069
-92.786	-107.362	-0.163	0.035
-91.772	-139.142	-0.229	0.024
-90.757	-133.654	-0.300	-0.037
-89.743	-200.000	-0.019	0.261
-88.728	-200.000	-0.013	0.302
-87.713	-39.219	0.302	0.156
-86.699	-52.200	0.246	-0.112
-85.684	-200.000	-0.005	-0.072
-84.670	209.169	0.056	-0.087
-83.655	48.818	-0.282	-0.260
-82.640	239.253	0.114	0.186
-81.626	37.483	0.156	0.136
-80.611	-33.764	-0.184	-0.100
-79.597	13.731	-0.160	-0.122
-78.582	346.920	-0.062	0.119
-77.567	21.224	-0.149	-0.119
-76.553	-200.000	-0.010	-0.114
-75.538	-55.299	0.161	-0.071
-74.524	433.249	0.159	0.340
-73.509	137.962	0.136	0.175
-72.494	-200.000	0.006	-0.133
-71.480	-200.000	-0.052	0.307
-70.465	-17.255	0.061	-0.038
-69.451	800.000	-0.070	0.211
-68.436	-133.190	0.168	-0.021
-67.422	-50.021	0.240	-0.112
-66.407	216.172	0.061	0.096
-65.392	-99.108	-0.195	-0.049
-64.378	276.005	0.130	0.226
-63.363	-200.000	-0.006	0.325
-62.349	-37.421	-0.082	-0.043
-61.334	63.917	-1.167	-1.153
-60.319	137.866	0.434	0.559
-59.305	-200.000	-0.045	-0.930
-58.290	465.212	0.512	1.125
-57.276	312.559	0.847	1.563
-56.261	-200.000	101.901	587.977
-55.246	542.191	1442.909	3379.003
-54.232	183.535	2646.776	3843.010
-53.217	116.821	2167.242	2612.865
-52.203	42.539	1606.671	1435.775
-51.188	33.798	1338.658	1143.861
-50.173	30.606	1297.153	1089.682
-49.159	54.178	1348.244	1273.945
-48.144	55.039	1364.320	1294.217
-47.130	33.952	1321.151	1129.636
-46.115	30.473	1303.152	1093.765
-45.100	30.351	1298.132	1088.791
-44.086	30.171	1296.260	1086.120
-43.071	30.159	1293.628	1083.804
-42.057	30.201	1291.235	1082.000
-41.042	30.246	1289.791	1081.009
-40.027	30.220	1288.234	1079.509
-39.013	30.324	1286.497	1078.620
-37.998	30.231	1284.722	1076.550
-36.984	30.294	1283.236	1075.624
-35.969	30.345	1281.371	1074.314
-34.954	30.365	1279.959	1073.205
-33.940	30.298	1278.477	1071.531
-32.925	30.400	1277.166	1070.976
-31.911	30.401	1275.600	1069.626
-30.896	30.311	1274.453	1068.106
-29.881	30.523	1272.281	1067.463
-28.867	30.542	1271.482	1066.855
-27.852	30.493	1270.604	1065.798
-26.838	30.413	1268.681	1063.687
-25.823	30.370	1267.461	1062.372
-24.809	30.355	1266.543	1061.477
-23.794	30.409	1264.928	1060.388
-22.779	30.356	1263.812	1059.106
-21.765	30.422	1262.319	1058.190
-20.750	30.362	1260.987	1056.693
-19.736	30.324	1259.391	1055.097
-18.721	30.253	1258.782	1054.137
-17.706	30.330	1257.170	1053.185
-16.692	30.234	1256.478	1052.019
-15.677	30.255	1255.149	1050.981
-14.663	30.242	1254.158	1050.040
-13.648	30.173	1252.675	1048.363
-12.633	30.194	1252.359	1048.176
-11.619	30.255	1251.027	1047.368
-10.604	30.339	1250.474	1047.337
-9.590	30.309	1249.306	1046.145
-8.575	30.213	1248.162	1044.604
-7.560	30.164	1247.693	1043.895
-6.546	30.201	1246.739	1043.262
-5.531	30.140	1246.326	1042.536
-4.517	30.203	1244.866	1041.624
-3.502	30.308	1244.141	1041.566
-2.487	30.346	1243.072	1040.841
-1.473	30.212	1239.286	1036.881
-0.458	29.149	1225.233	1019.203
0.556	27.706	1207.309	982.506
1.571	23.922	1212.561	966.179
2.586	22.946	1226.680	971.978
3.600	21.840	1214.882	956.513
4.615	16.598	1142.491	872.476
5.629	8.535	1069.400	777.525
6.644	4.882	1050.162	746.003
7.659	4.423	1047.657	741.963
8.673	4.286	1046.399	740.353
9.688	4.310	1045.246	739.585
10.702	4.850	1043.585	740.913
11.717	10.195	1050.965	771.639
12.731	18.286	1062.141	818.622
13.746	21.897	1065.772	838.645
14.761	21.955	1065.573	838.692
15.775	21.274	1063.596	833.810
16.790	20.300	1062.048	827.882
17.804	19.431	1060.649	822.572
18.819	19.384	1059.445	821.345
19.834	19.245	1058.723	820.048
20.848	19.165	1058.438	819.374
21.863	18.863	1057.521	817.158
22.877	18.782	1056.820	816.160
23.892	18.673	1056.232	815.115
24.907	18.726	1055.155	814.465
25.921	18.646	1054.162	813.245
26.936	18.605	1052.742	811.885
27.950	18.739	1051.423	811.428
28.965	18.790	1050.068	810.552
29.980	18.999	1048.825	810.505
30.994	19.108	1047.546	809.959
32.009	19.160	1046.783	809.540
33.023	19.059	1045.556	808.048
34.038	18.967	1044.736	806.909
35.053	18.759	1043.906	805.224
36.067	18.808	1043.014	804.693
37.082	18.931	1042.356	804.687
38.096	19.030	1041.286	804.256
39.111	18.932	1041.012	803.511
40.126	18.793	1039.271	801.451
41.140	18.565	1037.964	799.309
42.155	18.408	1036.431	797.329
43.169	18.308	1035.785	796.294
44.184	18.359	1034.190	795.236
45.199	18.346	1033.948	794.919
46.213	18.466	1032.930	794.622
47.228	18.781	1032.055	795.338
48.242	18.895	1030.683	794.736
49.257	18.761	1029.799	793.368
50.271	18.830	1029.477	793.364
51.286	18.965	1028.696	793.316
52.301	18.892	1027.477	791.968
53.315	18.697	1026.141	789.972
54.330	18.522	1025.462	788.573
55.344	18.593	1024.189	787.850
56.359	18.578	1023.526	787.204
57.374	18.552	1022.666	786.354
58.388	18.293	1021.933	784.534
59.403	18.291	1020.765	783.556
60.417	18.358	1020.053	783.250
61.432	18.319	1019.978	782.946
62.447	18.204	1018.524	781.234
63.461	18.092	1017.801	780.100
64.476	18.056	1016.999	779.249
65.490	18.165	1015.853	778.801
66.505	18.276	1015.249	778.775
67.520	18.289	1014.866	778.471
68.534	18.290	1014.084	777.805
69.549	18.114	1013.426	776.434
70.563	18.166	1012.631	775.992
71.578	17.891	1011.883	774.104
72.593	17.877	1011.179	773.432
73.607	18.032	1009.995	773.160
74.622	17.916	1009.916	772.506
75.636	17.962	1009.294	772.170
76.651	18.143	1008.152	772.044
77.666	18.113	1007.951	771.688
78.680	18.060	1007.261	770.852
79.695	18.156	1006.414	770.568
80.709	18.298	1006.113	770.909
81.724	18.324	1005.619	770.579
82.739	18.517	1004.641	770.627
83.753	18.724	1004.317	771.243
84.768	18.983	1003.571	771.765
85.782	19.170	1002.775	771.922
86.797	18.927	1002.282	770.387
87.812	18.849	1000.782	768.813
88.826	18.816	999.648	767.728
89.841	18.909	999.341	767.839
90.855	19.055	998.240	767.579
91.870	19.047	997.579	766.967
92.884	19.006	996.307	765.738
93.899	19.028	995.735	765.326
94.914	19.116	995.042	765.117
95.928	19.083	993.918	764.038
96.943	19.013	993.103	763.033
97.957	18.914	991.880	761.591
98.972	18.905	991.385	761.104
99.987	19.077	990.379	761.024
101.001	18.940	989.185	759.434
102.016	18.872	988.604	758.617
103.030	18.859	987.876	757.937
104.045	19.015	987.050	757.922
105.060	18.746	986.324	756.113
106.074	18.670	985.061	754.743
107.089	18.359	984.198	752.652
108.103	18.294	982.996	751.381
109.118	18.175	981.973	750.007
110.133	18.185	980.763	749.062
111.147	18.217	980.118	748.643
112.162	18.198	979.593	748.093
113.176	18.499	978.791	748.732
114.191	18.591	977.730	748.255
115.206	18.390	977.210	746.911
116.220	18.310	976.669	746.085
117.235	18.363	975.238	745.155
118.249	18.350	974.457	744.438
119.264	18.291	973.294	743.228
120.279	18.137	973.314	742.508
121.293	18.243	971.964	741.870
122.308	18.141	971.118	740.717
123.322	17.926	970.324	739.116
124.337	17.987	969.316	738.549
125.352	18.080	967.894	737.802
126.366	17.973	967.275	736.803
127.381	18.038	966.180	736.183
128.395	18.028	965.341	735.437
129.410	18.185	964.644	735.512
130.424	18.270	963.877	735.227
131.439	18.381	963.148	735.085
132.454	18.411	962.633	734.754
133.468	18.447	962.007	734.365
134.483	18.390	961.173	733.420
135.497	18.351	960.145	732.403
136.512	18.421	959.527	732.167
137.527	18.438	958.722	731.562
138.541	18.581	957.948	731.517
139.556	18.496	957.379	730.652
140.570	18.544	957.112	730.590
141.585	18.893	956.052	731.202
142.600	18.868	955.170	730.354
143.614	18.970	954.718	730.380
144.629	19.168	953.665	730.347
145.643	18.913	952.773	728.522
146.658	18.667	951.666	726.569
147.673	18.670	950.472	725.606
148.687	18.556	949.822	724.563
149.702	18.463	948.889	723.392
150.716	18.419	948.160	722.588
151.731	18.565	947.476	722.617
152.746	18.532	946.902	721.976
153.760	18.705	945.762	721.772
154.775	18.810	945.547	721.984
155.789	18.752	945.016	721.274
156.804	18.745	944.238	720.584
157.819	18.747	944.091	720.418
158.833	19.067	942.951	720.827
159.848	19.145	942.569	720.796
160.862	18.982	941.056	718.895
161.877	18.696	939.714	716.611
162.892	18.671	938.519	715.533
163.906	18.573	937.301	714.131
164.921	18.598	936.762	713.762
165.935	18.537	936.288	713.083
166.950	18.666	935.360	712.851
167.964	18.770	934.089	712.252
168.979	18.567	933.533	710.921
169.994	18.569	932.492	710.075
171.008	18.670	932.341	710.316
172.023	18.874	931.407	710.383
173.037	19.013	930.853	710.473
174.052	18.817	930.094	709.023
175.067	18.584	929.474	707.524
176.081	18.499	928.599	706.446
177.096	18.490	927.767	705.713
178.110	18.644	927.252	705.893
179.125	18.659	926.939	705.656
180.140	18.577	926.579	704.983
181.154	18.690	926.733	705.500
182.169	19.034	925.988	706.283
183.183	18.962	925.399	705.474
184.198	18.947	924.522	704.683
185.213	19.102	923.850	704.742
186.227	18.946	923.192	703.540
187.242	19.136	922.512	703.736
188.256	19.212	922.020	703.612
189.271	19.380	921.367	703.733
190.286	18.870	919.883	700.463
191.300	18.340	919.057	697.609
192.315	18.319	918.102	696.741
193.329	18.419	917.619	696.716
194.344	18.717	917.048	697.436
195.359	18.790	916.856	697.523
196.373	19.021	915.864	697.643
197.388	19.042	916.278	697.983
198.402	19.218	915.840	698.302
199.417	19.372	914.966	698.194
200.432	19.445	914.468	698.049
201.446	19.629	914.091	698.443
202.461	19.589	913.841	698.029
203.475	19.581	912.941	697.249
204.490	19.386	911.743	695.485
205.504	19.155	911.220	694.091
206.519	19.128	910.382	693.283
207.534	19.078	909.601	692.428
208.548	19.085	909.052	691.975
209.563	19.084	908.356	691.379
210.577	19.203	907.603	691.223
211.592	19.448	907.160	691.808
212.607	19.459	906.710	691.446
213.621	19.301	905.739	690.012
214.636	19.343	905.003	689.560
215.650	19.443	904.104	689.215
216.665	19.578	903.353	689.118
217.680	19.656	903.063	689.148
218.694	19.541	902.875	688.484
219.709	19.531	901.763	687.537
220.723	19.596	900.702	686.925
221.738	19.488	900.369	686.181
222.753	19.412	899.968	685.514
223.767	19.664	899.528	686.116
224.782	19.670	899.034	685.704
225.796	19.769	898.385	685.538
226.811	19.695	897.391	684.426
227.826	19.592	896.691	683.426
228.840	19.387	896.011	682.037
229.855	19.408	895.233	681.468
230.869	19.483	894.196	680.914
231.884	19.380	893.908	680.228
232.899	19.214	893.174	678.955
233.913	19.265	892.295	678.429
234.928	19.202	891.527	677.536
235.942	19.114	891.053	676.771
236.957	19.274	890.528	676.939
237.972	19.134	890.271	676.134
238.986	19.119	890.041	675.841
240.001	19.312	888.798	675.595
241.015	19.267	888.453	675.095
242.030	19.461	887.636	675.173
243.045	19.444	887.180	674.702
244.059	19.520	886.621	674.513
245.074	19.646	885.774	674.300
246.088	19.660	885.305	673.941
247.103	19.830	884.849	674.193
248.117	19.824	885.093	674.299
249.132	20.090	884.589	674.890
250.147	20.469	883.638	675.579
251.161	20.366	883.341	674.894
252.176	20.345	882.937	674.440
253.190	20.444	882.066	674.102
254.205	20.382	881.823	673.616
255.220	20.502	880.473	672.988
256.234	20.346	880.138	672.071
257.249	20.443	879.382	671.808
258.263	20.331	878.745	670.828
259.278	20.391	878.217	670.597
260.293	20.442	877.662	670.313
261.307	20.605	876.972	670.354
262.322	20.459	876.598	669.447
263.336	20.567	875.706	669.122
264.351	20.567	874.944	668.480
265.366	20.604	874.306	668.077
266.380	20.630	873.542	667.534
267.395	20.534	872.810	666.548
268.409	20.351	872.168	665.295
269.424	20.422	871.508	665.007
270.439	20.310	870.756	663.944
271.453	20.232	869.711	662.791
272.468	20.271	869.443	662.678
273.482	20.212	868.968	662.030
274.497	20.162	868.382	661.337
275.512	20.152	867.739	660.750
276.526	20.237	867.374	660.738
277.541	20.255	867.065	660.511
278.555	20.369	866.576	660.513
279.570	20.758	865.714	661.276
280.585	20.662	865.077	660.367
281.599	20.547	863.852	658.936
282.614	20.430	863.246	657.973
283.628	20.323	862.884	657.235
284.643	20.333	862.361	656.816
285.657	20.429	861.750	656.654
286.672	20.379	861.186	655.978
287.687	20.447	860.813	655.892
288.701	20.459	859.957	655.226
289.716	20.403	859.398	654.533
290.730	20.550	858.611	654.430
291.745	20.530	858.608	654.293
292.760	20.649	857.797	654.065
293.774	20.747	857.547	654.184
294.789	20.698	856.314	653.002
295.803	20.485	855.634	651.629
296.818	20.484	855.052	651.121
297.833	20.543	854.249	650.673
298.847	20.489	853.675	649.977
299.862	20.560	853.475	650.033
300.876	20.685	853.089	650.148
301.891	20.810	852.413	650.042
302.906	20.903	852.194	650.164
303.920	21.181	851.535	650.642
304.935	21.305	851.042	650.669
305.949	21.040	850.423	649.152
306.964	20.737	849.961	647.616
307.979	20.886	848.866	647.278
308.993	20.997	848.636	647.458
310.008	21.032	847.844	646.923
311.022	20.994	847.215	646.245
312.037	20.880	846.481	645.208
313.052	20.631	845.902	643.787
314.066	20.490	845.000	642.521
315.081	20.530	844.971	642.590
316.095	20.596	844.035	642.066
317.110	20.490	843.582	641.276
318.125	20.522	843.116	640.981
319.139	20.505	842.446	640.351
320.154	20.428	842.455	640.018
321.168	20.555	841.950	640.045
322.183	20.631	841.376	639.834
323.197	20.735	840.939	639.828
324.212	20.734	839.944	639.010
325.227	20.611	839.436	638.114
326.241	20.720	838.877	638.031
327.256	20.522	838.305	636.816
328.270	20.620	837.708	636.665
329.285	20.671	837.228	636.428
330.300	20.565	836.733	635.609
331.314	20.469	836.348	634.909
332.329	20.870	836.019	636.068
333.343	20.954	835.323	635.789
334.358	20.950	834.891	635.389
335.373	20.898	834.885	635.141
336.387	21.071	834.442	635.374
337.402	21.126	834.487	635.553
338.416	21.258	833.908	635.537
339.431	21.386	833.571	635.690
340.446	21.495	833.438	635.930
341.460	21.395	833.174	635.308
342.475	21.466	832.583	635.058
343.489	21.585	832.061	635.034
344.504	21.583	831.693	634.690
345.519	21.643	831.302	634.556
346.533	21.436	830.775	633.345
347.548	21.405	829.959	632.557
348.562	21.252	828.848	631.100
349.577	20.961	828.535	629.754
350.592	20.934	828.002	629.196
351.606	21.008	827.384	628.939
352.621	21.094	826.245	628.329
353.635	21.137	826.189	628.385
354.650	21.167	825.168	627.660
355.665	21.284	824.831	627.767
356.679	21.301	824.281	627.353
357.694	21.460	823.602	627.353
358.708	21.339	822.923	626.346
359.723	21.144	823.036	625.677
360.738	21.198	822.066	625.080
361.752	21.274	821.540	624.897
362.767	21.528	821.002	625.340
363.781	21.714	820.476	625.548
364.796	21.855	820.008	625.637
365.810	21.950	819.820	625.776
366.825	21.950	819.346	625.360
367.840	21.868	818.929	624.695
368.854	21.675	818.702	623.780
369.869	21.604	817.746	622.743
370.883	21.694	817.574	622.878
371.898	21.920	817.236	623.369
372.913	21.735	817.109	622.559
373.927	21.692	816.122	621.598
374.942	21.912	815.189	621.611
375.956	21.940	815.612	621.979
376.971	22.089	815.077	622.045
377.986	22.070	814.455	621.448
379.000	22.095	814.479	621.497
380.015	22.088	813.623	620.765
381.029	21.922	812.912	619.581
382.044	22.159	812.373	619.953
383.059	22.163	811.572	619.300
384.073	21.895	811.077	617.923
385.088	21.731	810.349	616.738
386.102	21.638	810.232	616.267
387.117	21.709	809.134	615.627
388.132	21.898	808.166	615.498
389.146	21.908	807.783	615.188
390.161	22.030	807.347	615.229
391.175	22.115	807.110	615.290
392.190	22.022	806.416	614.382
393.205	21.703	806.519	613.289
394.219	21.727	805.648	612.658
395.234	21.558	805.422	611.841
396.248	21.503	805.046	611.309
397.263	21.461	804.224	610.483
398.278	21.483	803.322	609.823
399.292	21.527	803.638	610.162
400.307	21.597	803.128	609.963
401.321	21.557	802.675	609.428
402.336	21.675	802.025	609.290
403.350	21.941	801.691	609.907
404.365	21.818	801.628	609.376
405.380	22.241	801.023	610.333
406.394	22.192	800.633	609.810
407.409	22.255	800.123	609.588
408.423	22.252	800.389	609.726
409.438	22.418	800.140	610.058
410.453	22.584	799.117	609.796
411.467	22.450	799.044	609.224
412.482	22.586	798.676	609.360
413.496	22.665	798.071	609.116
414.511	22.614	797.798	608.678
415.526	22.550	797.022	607.812
416.540	22.308	797.113	606.993
417.555	22.519	796.535	607.225
418.569	22.450	796.336	606.782
419.584	22.706	795.283	606.809
420.599	22.549	794.757	605.812
421.613	164.091	1368.600	1795.836
422.628	142.423	1452.224	1795.918
