DTS Sentinel unit serial number:	SN413079Multiplexer serial number:	ORYXHardware model number:	OX4-SRSoftware version number:	ORYX F/W v4.00 Oryx Data Collector v3.7.2.0data status	okinstallation	princeton_trtdifferential loss correction	single-endedforward channel	channel 1reverse channel	N/Adate	2019/09/14time	07:06:35forward acquisition time	60.00reverse acquisition time	0.00gamma	496.2192k internal	0.2337k external	0.2337temperature offset calibration	1.0079default loss term (dB/km)	0.3790temperature slope calibration	1.0000multiplexer offset coefficient	1.0000multiplexer slope coefficient	1.0000fibre end	0.00T internal ref (°C)	26.19T ext. ref 1 (°C)	3.42T ext. ref 2 (°C)	20.93length (m)	temperature (°C)	Stokes	anti-Stokes-747.200	-200.000	-0.049	-0.580
-746.185	383.195	-0.034	-0.069
-745.171	342.678	-0.063	-0.124
-744.156	800.000	-0.127	0.400
-743.142	-200.000	0.162	0.000
-742.127	-149.573	-0.398	-0.032
-741.112	-123.038	0.235	-0.038
-740.098	-77.028	0.027	0.010
-739.083	-19.756	-0.180	0.111
-738.069	800.000	-0.081	-0.246
-737.054	-200.000	-0.030	0.496
-736.039	70.877	-0.159	-0.166
-735.025	455.940	0.119	0.264
-734.010	25.798	-0.103	0.086
-732.996	800.000	-0.093	0.290
-731.981	399.056	-0.237	-0.498
-730.966	96.518	-0.156	-0.180
-729.952	-10.979	0.252	-0.167
-728.937	181.413	-0.120	-0.177
-727.923	240.089	-0.046	0.078
-726.908	-99.677	0.178	-0.045
-725.894	800.000	0.058	0.173
-724.879	208.074	0.169	-0.264
-723.864	-11.909	-0.110	-0.072
-722.850	-174.344	0.356	0.010
-721.835	-200.000	-0.011	0.217
-720.821	135.944	-0.069	-0.090
-719.806	-98.524	-0.225	-0.058
-718.791	800.000	0.049	-0.204
-717.777	5.066	-0.107	-0.079
-716.762	-66.680	0.150	0.060
-715.748	800.000	0.061	-0.179
-714.733	58.923	-0.419	-0.413
-713.718	-128.655	-0.208	0.029
-712.704	437.386	0.160	-0.349
-711.689	-113.585	-0.169	0.033
-710.675	-97.497	0.358	-0.093
-709.660	-99.509	0.247	-0.062
-708.645	-200.000	-0.003	-0.185
-707.631	-200.000	-0.028	-0.140
-706.616	44.166	-0.173	-0.159
-705.602	-59.795	-0.060	-0.026
-704.587	-87.922	0.138	0.042
-703.572	79.439	-0.147	-0.158
-702.558	149.223	-0.030	0.041
-701.543	-108.611	-0.110	-0.024
-700.529	-109.177	0.173	-0.037
-699.514	-200.000	0.002	-0.044
-698.499	-7.493	0.199	-0.135
-697.485	15.211	0.113	-0.089
-696.470	-161.542	-0.123	-0.006
-695.456	278.866	0.054	0.096
-694.441	381.939	-0.016	-0.032
-693.426	-105.663	-0.142	0.032
-692.412	577.831	0.132	0.322
-691.397	-200.000	0.009	0.213
-690.383	181.300	-0.129	0.190
-689.368	-200.000	-0.072	-0.320
-688.354	-200.000	-0.071	-0.311
-687.339	-143.521	-0.205	-0.020
-686.324	-112.771	0.339	-0.067
-685.310	-200.000	-0.000	0.018
-684.295	800.000	-0.074	0.243
-683.281	800.000	0.025	0.085
-682.266	-200.000	0.038	-0.186
-681.251	5.468	-0.043	-0.032
-680.237	-139.044	0.405	-0.044
-679.222	-128.108	0.108	0.015
-678.208	-45.865	0.112	-0.055
-677.193	329.584	0.107	-0.206
-676.178	-200.000	-0.019	0.152
-675.164	77.974	-0.093	-0.099
-674.149	466.450	-0.184	-0.412
-673.135	51.423	0.252	0.240
-672.120	-96.262	0.212	0.056
-671.105	-66.952	-0.161	-0.064
-670.091	62.460	0.162	-0.162
-669.076	-30.175	0.071	0.040
-668.062	-33.626	0.062	0.034
-667.047	88.960	-0.166	-0.185
-666.032	-19.991	-0.093	-0.058
-665.018	149.339	0.077	0.105
-664.003	-36.338	-0.313	-0.169
-662.989	800.000	-0.062	-0.248
-661.974	-147.840	0.280	-0.023
-660.959	800.000	-0.023	-0.090
-659.945	249.106	0.123	0.208
-658.930	-88.715	0.068	-0.020
-657.916	-63.306	0.321	-0.132
-656.901	-200.000	-0.037	-0.162
-655.886	800.000	-0.054	0.177
-654.872	-70.391	0.252	-0.095
-653.857	800.000	-0.023	-0.092
-652.843	-90.454	0.203	-0.059
-651.828	-116.094	-0.194	-0.036
-650.814	328.165	-0.120	-0.229
-649.799	26.900	-0.198	0.166
-648.784	109.959	0.102	-0.122
-647.770	535.511	-0.059	-0.139
-646.755	-22.744	0.294	-0.178
-645.741	-34.241	-0.111	0.061
-644.726	-81.360	0.274	0.090
-643.711	214.572	-0.044	-0.069
-642.697	-200.000	0.005	-0.032
-641.682	-138.766	0.262	0.029
-640.668	-200.000	-0.036	0.192
-639.653	67.206	0.111	0.113
-638.638	85.679	-0.078	0.086
-637.624	-200.000	0.001	-0.066
-636.609	32.595	-0.182	-0.158
-635.595	-200.000	0.059	0.000
-634.580	124.061	0.109	-0.136
-633.565	68.200	-0.222	0.227
-632.551	127.295	-0.181	-0.229
-631.536	-200.000	0.028	0.133
-630.522	71.869	-0.076	-0.079
-629.507	238.250	0.123	0.204
-628.492	-200.000	0.046	0.214
-627.478	-200.000	-0.003	-0.143
-626.463	-200.000	0.010	0.105
-625.449	-200.000	-0.029	-0.140
-624.434	90.604	0.164	-0.183
-623.419	330.822	-0.137	-0.263
-622.405	-137.925	-0.151	0.017
-621.390	48.292	-0.223	-0.209
-620.376	155.567	0.075	0.104
-619.361	-200.000	-0.014	0.315
-618.346	-200.000	0.022	-0.272
-617.332	66.083	0.064	-0.064
-616.317	-89.982	0.040	-0.012
-615.303	-200.000	-0.016	-0.304
-614.288	141.003	0.187	-0.247
-613.273	-130.800	0.070	0.009
-612.259	-140.643	-0.102	-0.011
-611.244	-200.000	0.016	-0.354
-610.230	61.800	0.190	-0.189
-609.215	140.896	0.071	-0.094
-608.201	-200.000	0.012	-0.501
-607.186	550.899	0.041	0.098
-606.171	800.000	-0.049	-0.183
-605.157	-69.150	-0.221	-0.085
-604.142	-58.103	-0.068	-0.030
-603.128	156.166	-0.175	-0.242
-602.113	80.756	0.091	0.098
-601.098	-200.000	-0.025	-0.281
-600.084	138.051	0.072	-0.095
-599.069	-200.000	-0.008	-0.268
-598.055	550.113	0.191	-0.457
-597.040	68.616	-0.139	-0.143
-596.025	-171.794	-0.365	0.012
-595.011	162.454	-0.107	0.150
-593.996	-11.384	0.081	-0.053
-592.982	800.000	-0.054	0.172
-591.967	-200.000	0.005	0.091
-590.952	-200.000	0.009	-0.143
-589.938	-200.000	0.000	0.071
-588.923	159.511	-0.114	-0.158
-587.909	-200.000	0.020	0.181
-586.894	-6.415	-0.110	-0.075
-585.879	-117.244	-0.292	0.053
-584.865	118.738	-0.028	-0.035
-583.850	-119.112	-0.107	0.019
-582.836	60.780	0.114	0.113
-581.821	-124.231	-0.323	0.050
-580.806	-124.462	0.115	-0.018
-579.792	-32.354	0.152	0.085
-578.777	-71.134	-0.194	-0.073
-577.763	800.000	0.042	-0.153
-576.748	-12.542	0.245	-0.159
-575.733	-130.337	-0.258	0.035
-574.719	-110.238	-0.140	0.029
-573.704	-168.469	0.172	0.007
-572.690	-3.737	-0.214	-0.148
-571.675	-200.000	0.015	0.070
-570.661	226.775	-0.118	-0.191
-569.646	147.806	0.221	-0.297
-568.631	-76.755	0.226	0.079
-567.617	136.583	0.102	-0.133
-566.602	-200.000	-0.028	0.237
-565.588	424.426	0.172	0.368
-564.573	-143.131	0.281	-0.027
-563.558	-11.706	-0.225	0.148
-562.544	-200.000	-0.041	0.255
-561.529	-67.169	0.019	0.007
-560.515	66.653	-0.098	0.099
-559.500	800.000	0.074	-0.237
-558.485	89.651	0.117	0.130
-557.471	800.000	-0.059	-0.172
-556.456	403.655	-0.095	-0.199
-555.442	109.334	-0.277	-0.331
-554.427	564.269	0.073	-0.177
-553.412	-149.760	-0.415	-0.032
-552.398	-200.000	-0.035	0.390
-551.383	8.702	-0.138	-0.104
-550.369	-95.969	0.128	0.034
-549.354	254.686	0.142	-0.243
-548.339	20.340	-0.032	-0.026
-547.325	800.000	-0.088	0.289
-546.310	-200.000	-0.004	-0.026
-545.296	346.021	0.114	0.222
-544.281	-20.937	0.302	-0.184
-543.266	-54.016	0.177	-0.080
-542.252	172.323	0.156	0.224
-541.237	-67.566	-0.258	0.101
-540.223	112.793	0.152	-0.183
-539.208	94.584	-0.117	0.132
-538.193	651.269	0.123	-0.314
-537.179	660.941	0.148	-0.379
-536.164	-133.254	0.057	0.007
-535.150	496.098	0.127	0.291
-534.135	-25.169	0.237	-0.140
-533.121	-127.111	-0.360	0.052
-532.106	474.894	0.033	-0.073
-531.091	-183.068	0.124	-0.002
-530.077	76.434	-0.212	-0.224
-529.062	-59.209	0.519	-0.223
-528.048	-200.000	-0.008	-0.196
-527.033	-22.828	-0.194	0.117
-526.018	-200.000	0.011	-0.174
-525.004	-143.030	0.430	-0.041
-523.989	331.434	-0.022	-0.042
-522.975	326.131	0.093	-0.178
-521.960	2.325	0.052	-0.037
-520.945	-138.943	-0.108	0.012
-519.931	11.873	0.128	0.098
-518.916	-200.000	-0.005	-0.091
-517.902	68.220	0.340	0.347
-516.887	103.987	-0.099	0.116
-515.872	-4.290	-0.210	0.145
-514.858	-200.000	0.019	-0.124
-513.843	-149.914	0.242	-0.019
-512.829	-200.000	-0.002	-0.185
-511.814	385.813	0.078	0.161
-510.799	82.810	-0.275	-0.297
-509.785	-9.136	-0.170	0.113
-508.770	431.300	-0.140	0.301
-507.756	-27.958	0.143	0.082
-506.741	-200.000	-0.044	-0.200
-505.726	-50.525	0.090	-0.042
-504.712	-18.582	-0.366	0.227
-503.697	-200.000	-0.005	0.031
-502.683	-157.440	0.165	0.010
-501.668	-4.079	0.316	-0.218
-500.653	-200.000	-0.014	-0.326
-499.639	-11.958	0.348	-0.227
-498.624	-73.625	0.167	-0.060
-497.610	800.000	-0.047	0.144
-496.595	-200.000	0.002	0.326
-495.581	43.889	0.078	-0.071
-494.566	11.418	0.410	-0.312
-493.551	542.888	-0.085	-0.202
-492.537	800.000	0.090	0.314
-491.522	-78.555	0.112	0.038
-490.508	427.056	-0.161	-0.344
-489.493	-131.221	-0.089	0.012
-488.478	-200.000	-0.030	-0.263
-487.464	-84.271	-0.156	-0.049
-486.449	97.389	-0.105	0.120
-485.435	-200.000	0.024	-0.166
-484.420	234.173	-0.202	-0.331
-483.405	-200.000	-0.008	-0.071
-482.391	21.963	-0.069	-0.056
-481.376	800.000	-0.049	0.213
-480.362	192.298	0.025	-0.038
-479.347	21.303	0.213	-0.172
-478.332	-193.139	0.106	0.001
-477.318	-159.589	0.042	-0.002
-476.303	-3.553	-0.397	-0.274
-475.289	-94.867	-0.067	-0.018
-474.274	-14.561	-0.222	-0.142
-473.259	-200.000	-0.012	-0.151
-472.245	744.983	0.110	-0.293
-471.230	800.000	0.060	-0.242
-470.216	1.635	0.293	-0.210
-469.201	800.000	0.069	-0.193
-468.186	-64.685	-0.271	0.109
-467.172	-110.428	-0.192	-0.040
-466.157	368.926	-0.097	-0.195
-465.143	-63.834	0.293	-0.119
-464.128	800.000	-0.114	-0.478
-463.113	222.782	0.029	0.047
-462.099	-200.000	-0.009	-0.041
-461.084	130.856	-0.101	-0.128
-460.070	-200.000	0.026	0.442
-459.055	182.231	0.110	0.160
-458.040	-153.648	0.068	0.005
-457.026	194.744	-0.098	0.147
-456.011	63.571	-0.087	0.087
-454.997	-18.032	-0.237	0.147
-453.982	247.964	0.185	0.310
-452.968	297.680	-0.119	0.216
-451.953	36.370	0.136	0.119
-450.938	-200.000	0.023	-0.135
-449.924	93.739	0.120	-0.134
-448.909	-115.282	-0.219	0.041
-447.895	416.017	-0.107	-0.226
-446.880	-76.543	-0.192	-0.067
-445.865	-28.291	0.504	0.289
-444.851	-76.377	0.345	0.120
-443.836	169.339	0.104	0.147
-442.822	51.558	0.332	0.313
-441.807	251.679	0.175	-0.296
-440.792	800.000	-0.084	0.291
-439.778	-114.160	0.036	-0.007
-438.763	-200.000	0.009	0.189
-437.749	58.529	-0.117	-0.114
-436.734	112.514	-0.123	0.148
-435.719	800.000	-0.024	0.086
-434.705	-85.279	-0.204	-0.063
-433.690	10.348	-0.042	-0.031
-432.676	800.000	-0.070	-0.219
-431.661	40.510	0.127	0.113
-430.646	488.496	-0.074	-0.167
-429.632	85.126	-0.207	-0.225
-428.617	800.000	-0.130	0.398
-427.603	-17.036	-0.315	0.197
-426.588	-194.215	-0.227	0.002
-425.573	-135.408	0.287	-0.034
-424.559	-133.463	-0.083	0.010
-423.544	800.000	0.114	-0.330
-422.530	-124.810	-0.674	0.103
-421.515	800.000	0.047	0.170
-420.500	607.428	-0.107	-0.264
-419.486	-200.000	-0.003	-0.121
-418.471	-200.000	-0.006	0.031
-417.457	380.867	-0.119	-0.241
-416.442	78.946	-0.159	-0.169
-415.428	-49.133	0.209	-0.099
-414.413	609.733	-0.123	-0.304
-413.398	654.660	0.066	0.168
-412.384	16.621	0.095	-0.074
-411.369	63.591	-0.133	-0.132
-410.355	225.414	0.225	-0.362
-409.340	-200.000	-0.049	-0.212
-408.325	-35.090	-0.375	0.202
-407.311	-77.576	0.062	-0.021
-406.296	-32.851	0.156	0.086
-405.282	-98.159	0.254	-0.065
-404.267	-79.934	-0.123	-0.041
-403.252	74.356	0.195	0.203
-402.238	-200.000	0.005	-0.051
-401.223	344.025	0.086	-0.167
-400.209	-35.026	0.173	-0.094
-399.194	242.530	-0.046	-0.076
-398.179	-200.000	0.019	-0.385
-397.165	-200.000	0.007	0.115
-396.150	-19.524	0.198	-0.121
-395.136	8.771	-0.022	0.016
-394.121	-200.000	-0.006	-0.026
-393.106	-102.728	0.078	0.018
-392.092	-200.000	-0.004	0.237
-391.077	321.769	0.062	-0.117
-390.063	16.972	-0.271	0.213
-389.048	191.043	0.121	0.180
-388.033	800.000	0.062	-0.198
-387.019	-155.933	-0.166	0.010
-386.004	16.900	0.206	-0.162
-384.990	364.482	-0.028	0.057
-383.975	-94.279	-0.270	-0.073
-382.960	-71.075	0.263	0.098
-381.946	77.893	0.182	0.192
-380.931	130.301	-0.234	0.296
-379.917	-66.594	-0.191	-0.075
-378.902	231.238	0.105	0.170
-377.888	34.854	0.169	0.146
-376.873	625.665	0.025	0.064
-375.858	70.772	-0.050	0.051
-374.844	-70.319	-0.092	-0.035
-373.829	278.782	-0.156	-0.274
-372.815	-200.000	-0.042	0.241
-371.800	-38.867	0.247	0.129
-370.785	-37.089	0.242	0.128
-369.771	-200.000	-0.066	-0.459
-368.756	169.649	-0.101	0.143
-367.742	-85.910	0.176	0.054
-366.727	46.264	0.186	0.170
-365.712	800.000	-0.085	0.312
-364.698	-138.761	-0.046	0.005
-363.683	-67.889	0.099	0.038
-362.669	-109.623	0.193	0.040
-361.654	88.662	-0.145	0.159
-360.639	-16.097	-0.098	-0.061
-359.625	120.275	-0.226	-0.277
-358.610	375.355	0.067	0.135
-357.596	800.000	-0.031	-0.129
-356.581	-55.801	0.206	-0.091
-355.566	-160.485	0.198	-0.010
-354.552	449.872	-0.043	-0.093
-353.537	800.000	0.052	-0.164
-352.523	214.715	0.135	0.211
-351.508	71.884	-0.085	0.088
-350.493	10.920	0.098	0.074
-349.479	-145.828	-0.361	0.032
-348.464	39.719	-0.148	-0.131
-347.450	102.728	-0.019	-0.022
-346.435	28.424	0.067	0.056
-345.420	-142.190	0.246	0.024
-344.406	-69.085	-0.137	-0.052
-343.391	-67.179	0.067	-0.026
-342.377	368.232	-0.035	0.069
-341.362	87.968	-0.185	-0.203
-340.348	800.000	-0.016	-0.058
-339.333	-54.552	0.223	-0.100
-338.318	417.574	-0.127	-0.269
-337.304	145.831	0.214	0.283
-336.289	-60.768	0.229	0.096
-335.275	-122.787	-0.149	-0.024
-334.260	-34.083	0.229	0.124
-333.245	201.912	0.051	-0.078
-332.231	-200.000	0.061	0.300
-331.216	-200.000	0.023	0.449
-330.202	56.074	-0.181	0.173
-329.187	-169.566	-0.262	0.009
-328.172	682.352	0.105	0.271
-327.158	-200.000	-0.061	0.330
-326.143	-200.000	0.051	-0.261
-325.129	-29.903	0.372	0.209
-324.114	-2.225	-0.096	0.066
-323.099	-156.091	-0.306	0.019
-322.085	800.000	-0.093	0.305
-321.070	-200.000	0.048	-0.373
-320.056	-200.000	-0.007	-0.205
-319.041	-3.576	0.056	0.039
-318.026	-126.038	0.021	-0.003
-317.012	217.949	0.252	0.397
-315.997	48.641	0.190	0.176
-314.983	373.047	0.039	0.077
-313.968	242.774	0.058	-0.095
-312.953	46.412	0.201	0.184
-311.939	-200.000	0.001	0.364
-310.924	-63.369	-0.432	0.176
-309.910	-97.645	-0.226	0.058
-308.895	-69.985	0.419	0.158
-307.880	-123.058	-0.174	-0.028
-306.866	-200.000	-0.031	0.272
-305.851	-22.295	0.162	0.097
-304.837	249.087	0.135	0.226
-303.822	-17.223	-0.239	0.149
-302.807	-12.080	0.098	-0.064
-301.793	800.000	-0.078	-0.229
-300.778	800.000	-0.107	0.378
-299.764	-143.192	-0.113	0.011
-298.749	-200.000	0.006	-0.207
-297.735	-128.219	-0.290	0.041
-296.720	800.000	0.039	0.151
-295.705	-40.827	0.203	0.104
-294.691	225.704	0.083	0.132
-293.676	96.075	0.180	0.202
-292.662	-137.543	0.177	-0.020
-291.647	-200.000	-0.005	-0.036
-290.632	-58.807	-0.402	0.172
-289.618	-90.697	0.414	0.118
-288.603	-65.459	0.354	0.140
-287.589	-200.000	0.038	-0.173
-286.574	-82.968	-0.253	-0.080
-285.559	195.433	-0.079	0.118
-284.545	57.710	-0.139	-0.134
-283.530	27.437	0.051	0.043
-282.516	-200.000	-0.034	0.459
-281.501	800.000	0.039	0.111
-280.486	-106.858	-0.253	-0.055
-279.472	108.790	-0.212	-0.250
-278.457	-200.000	-0.031	0.203
-277.443	-200.000	-0.017	0.138
-276.428	800.000	0.142	-0.427
-275.413	-113.263	-0.198	-0.038
-274.399	800.000	0.078	-0.216
-273.384	-26.123	0.289	0.168
-272.370	-200.000	-0.001	-0.019
-271.355	686.503	0.051	0.133
-270.340	-127.490	0.281	0.040
-269.326	800.000	0.044	-0.156
-268.311	35.010	-0.229	-0.198
-267.297	-128.738	-0.133	0.018
-266.282	515.870	0.054	0.124
-265.267	56.749	-0.212	0.203
-264.253	494.563	0.039	0.088
-263.238	-107.381	-0.329	-0.071
-262.224	-200.000	-0.013	-0.091
-261.209	-200.000	-0.015	-0.307
-260.195	785.531	0.115	0.310
-259.180	800.000	-0.078	0.230
-258.165	107.007	-0.218	-0.255
-257.151	-120.645	-0.240	0.040
-256.136	-77.373	0.130	0.045
-255.122	-200.000	-0.016	-0.117
-254.107	800.000	0.071	0.258
-253.092	0.921	-0.180	0.127
-252.078	258.070	0.159	0.269
-251.063	537.362	0.163	-0.381
-250.049	66.198	0.075	-0.075
-249.034	-152.174	-0.407	0.029
-248.019	-132.694	-0.208	-0.026
-247.005	800.000	-0.063	-0.196
-245.990	-103.447	-0.103	-0.024
-244.976	-127.742	-0.313	0.044
-243.961	-43.970	0.167	-0.083
-242.946	800.000	-0.141	0.552
-241.932	-200.000	0.050	0.371
-240.917	-119.065	0.269	-0.046
-239.903	438.271	0.157	0.338
-238.888	109.563	-0.117	0.138
-237.873	280.262	0.251	-0.442
-236.859	-138.052	-0.289	0.032
-235.844	-106.432	-0.169	-0.037
-234.830	-200.000	-0.004	0.143
-233.815	800.000	0.027	0.100
-232.800	800.000	-0.048	0.193
-231.786	38.233	0.294	-0.257
-230.771	-39.102	-0.133	0.069
-229.757	-89.707	0.057	-0.016
-228.742	-200.000	0.028	-0.433
-227.727	176.344	0.112	-0.161
-226.713	-171.730	-0.185	0.006
-225.698	800.000	-0.030	0.122
-224.684	93.003	-0.234	0.260
-223.669	213.076	0.271	0.421
-222.655	-8.164	-0.166	0.110
-221.640	800.000	0.025	0.108
-220.625	-200.000	0.004	-0.089
-219.611	-171.284	0.349	-0.012
-218.596	-103.467	-0.084	0.020
-217.582	-200.000	-0.007	-0.090
-216.567	-107.856	0.240	0.051
-215.552	-22.895	-0.168	-0.100
-214.538	80.792	0.123	-0.131
-213.523	-157.924	0.411	-0.024
-212.509	-200.000	-0.032	-0.173
-211.494	-147.869	-0.173	0.014
-210.479	22.258	-0.144	-0.116
-209.465	208.668	-0.123	0.189
-208.450	130.323	0.118	0.149
-207.436	-145.440	0.159	-0.014
-206.421	-200.000	0.033	0.156
-205.406	800.000	-0.134	-0.386
-204.392	22.050	-0.012	-0.009
-203.377	32.139	-0.141	-0.120
-202.363	-34.624	-0.267	0.144
-201.348	-66.808	0.555	0.216
-200.333	-107.097	0.079	0.017
-199.319	-200.000	-0.047	0.207
-198.304	-200.000	-0.002	-0.145
-197.290	-79.697	-0.368	0.122
-196.275	-110.244	0.359	0.074
-195.260	-122.156	0.159	0.026
-194.246	-78.427	-0.110	0.037
-193.231	-200.000	0.017	-0.148
-192.217	-42.801	0.440	0.220
-191.202	364.733	0.008	0.016
-190.187	-48.519	-0.133	-0.063
-189.173	-200.000	-0.019	-0.124
-188.158	218.556	0.043	0.067
-187.144	-149.084	-0.340	0.027
-186.129	195.754	0.095	0.141
-185.114	153.241	-0.154	0.207
-184.100	217.198	0.134	0.210
-183.085	-82.026	-0.356	0.114
-182.071	-101.033	0.349	0.084
-181.056	-88.271	-0.382	-0.112
-180.042	-200.000	0.059	0.255
-179.027	99.916	0.163	-0.185
-178.012	-200.000	-0.005	0.092
-176.998	-200.000	0.001	0.053
-175.983	-200.000	-0.014	-0.076
-174.969	-23.059	0.197	0.117
-173.954	-23.854	0.066	-0.039
-172.939	258.151	-0.142	0.239
-171.925	-55.916	-0.091	0.040
-170.910	-160.425	-0.198	0.010
-169.896	140.871	0.135	0.175
-168.881	-37.888	-0.283	-0.147
-167.866	-200.000	-0.003	0.284
-166.852	800.000	0.115	0.363
-165.837	-105.745	-0.269	0.060
-164.823	-144.640	-0.099	0.009
-163.808	-73.066	0.112	-0.040
-162.793	-22.974	-0.147	-0.087
-161.779	-200.000	-0.073	-0.363
-160.764	-77.700	-0.135	-0.046
-159.750	-200.000	0.010	0.339
-158.735	-61.221	0.250	-0.103
-157.720	185.948	0.185	0.270
-156.706	-200.000	-0.016	-0.093
-155.691	-73.046	0.179	-0.064
-154.677	-187.502	-0.064	-0.001
-153.662	649.568	-0.109	-0.274
-152.647	548.554	-0.037	-0.088
-151.633	80.230	-0.150	0.158
-150.618	484.331	-0.137	0.305
-149.604	-129.007	0.191	-0.026
-148.589	112.304	-0.080	0.095
-147.574	133.986	0.081	-0.103
-146.560	765.257	0.008	-0.022
-145.545	-200.000	0.013	0.096
-144.531	51.314	-0.201	-0.188
-143.516	-60.131	0.292	-0.122
-142.502	800.000	0.116	-0.403
-141.487	-200.000	0.040	0.316
-140.472	-36.940	0.181	-0.095
-139.458	93.118	-0.184	-0.204
-138.443	-200.000	0.004	0.312
-137.429	-29.340	0.328	0.184
-136.414	-15.524	-0.189	-0.118
-135.399	-35.350	-0.090	0.048
-134.385	-14.462	-0.057	0.036
-133.370	-200.000	-0.012	0.466
-132.356	463.294	-0.085	0.185
-131.341	1.573	-0.027	-0.019
-130.326	-46.365	0.095	-0.046
-129.312	568.258	0.036	0.087
-128.297	800.000	-0.091	0.337
-127.283	-128.259	-0.073	-0.010
-126.268	-149.855	0.291	0.022
-125.253	43.063	0.180	-0.161
-124.239	285.985	0.125	-0.221
-123.224	-200.000	0.016	0.151
-122.210	32.690	-0.160	0.135
-121.195	-200.000	-0.050	0.257
-120.180	-200.000	-0.041	-0.328
-119.166	-44.746	0.273	0.133
-118.151	800.000	-0.050	0.194
-117.137	-74.461	-0.081	0.029
-116.122	-200.000	0.005	0.116
-115.107	-113.948	-0.252	0.048
-114.093	-47.928	0.368	0.175
-113.078	232.679	-0.162	0.260
-112.064	467.293	-0.068	-0.149
-111.049	-200.000	0.003	0.145
-110.034	8.822	0.185	0.136
-109.020	76.217	-0.050	-0.051
-108.005	758.657	-0.104	0.275
-106.991	174.641	-0.205	0.291
-105.976	-114.340	0.085	-0.016
-104.962	67.937	-0.187	0.187
-103.947	-200.000	0.004	-0.049
-102.932	33.782	0.083	0.071
-101.918	-145.890	-0.209	0.018
-100.903	-87.830	0.316	0.093
-99.889	-68.168	0.240	-0.091
-98.874	-113.824	0.177	0.034
-97.859	-155.924	-0.385	0.024
-96.845	0.203	-0.065	0.045
-95.830	800.000	0.016	-0.058
-94.816	-129.573	0.142	-0.019
-93.801	248.250	0.036	-0.059
-92.786	-66.202	0.286	-0.112
-91.772	-88.676	-0.265	0.077
-90.757	-54.116	0.297	0.132
-89.743	-109.882	0.176	0.036
-88.728	-52.434	0.146	-0.066
-87.713	465.858	0.062	0.136
-86.699	248.649	0.075	-0.125
-85.684	-62.870	-0.156	0.063
-84.670	800.000	0.047	0.189
-83.655	-73.199	0.105	-0.038
-82.640	442.495	-0.062	-0.134
-81.626	-159.588	-0.250	0.014
-80.611	-149.777	0.284	-0.022
-79.597	-143.168	0.157	0.015
-78.582	81.117	0.240	0.254
-77.567	-102.878	0.388	0.090
-76.553	-200.000	0.029	0.239
-75.538	-29.677	-0.358	-0.200
-74.524	-53.941	0.117	0.052
-73.509	800.000	-0.097	-0.307
-72.494	-71.416	0.237	0.087
-71.480	-49.934	-0.194	0.090
-70.465	548.509	0.052	-0.122
-69.451	-200.000	0.018	-0.149
-68.436	244.926	-0.220	0.362
-67.422	-200.000	0.009	0.210
-66.407	120.908	-0.232	0.283
-65.392	16.733	0.108	0.084
-64.378	466.751	0.137	0.301
-63.363	8.734	0.136	0.100
-62.349	49.179	0.121	0.111
-61.334	40.917	-1.234	-1.088
-60.319	30.025	0.655	0.546
-59.305	-200.000	-0.177	-1.240
-58.290	800.000	0.373	1.159
-57.276	281.246	0.784	1.371
-56.261	-200.000	116.808	637.080
-55.246	481.650	1552.336	3444.220
-54.232	173.819	2723.638	3842.397
-53.217	105.306	2160.717	2493.152
-52.203	38.030	1590.626	1382.269
-51.188	29.594	1332.116	1107.265
-50.173	26.702	1293.637	1058.373
-49.159	52.102	1352.933	1259.539
-48.144	50.692	1365.854	1263.101
-47.130	29.511	1319.947	1096.480
-46.115	26.316	1301.757	1062.577
-45.100	26.160	1296.408	1057.260
-44.086	26.060	1293.661	1054.393
-43.071	26.033	1291.520	1052.449
-42.057	25.982	1289.448	1050.418
-41.042	26.000	1287.981	1049.285
-40.027	26.095	1286.252	1048.388
-39.013	26.105	1284.232	1046.760
-37.998	26.045	1282.894	1045.280
-36.984	26.124	1280.823	1044.008
-35.969	26.259	1278.880	1043.159
-34.954	26.139	1277.339	1041.172
-33.940	26.138	1275.897	1039.947
-32.925	26.355	1274.563	1040.066
-31.911	26.165	1272.985	1037.646
-30.896	26.290	1271.423	1037.052
-29.881	26.294	1270.125	1035.977
-28.867	26.359	1268.863	1035.274
-27.852	26.416	1267.346	1034.320
-26.838	26.200	1266.330	1032.219
-25.823	26.334	1264.681	1031.600
-24.809	26.202	1263.759	1030.053
-23.794	26.283	1261.999	1029.038
-22.779	26.256	1261.102	1028.110
-21.765	26.250	1259.873	1027.038
-20.750	26.301	1258.219	1025.939
-19.736	26.242	1257.259	1024.777
-18.721	26.208	1255.979	1023.500
-17.706	26.131	1255.101	1022.307
-16.692	26.036	1253.974	1020.814
-15.677	26.142	1252.824	1020.434
-14.663	26.074	1251.787	1019.164
-13.648	26.167	1250.040	1018.231
-12.633	26.134	1249.516	1017.574
-11.619	26.174	1248.586	1017.005
-10.604	26.032	1247.759	1015.491
-9.590	26.066	1247.549	1015.468
-8.575	26.174	1245.740	1014.566
-7.560	26.153	1244.752	1013.599
-6.546	26.184	1244.144	1013.238
-5.531	26.160	1243.247	1012.333
-4.517	26.187	1242.057	1011.477
-3.502	26.260	1241.204	1011.151
-2.487	26.177	1240.807	1010.324
-1.473	26.037	1236.258	1005.796
-0.458	24.495	1221.765	985.462
0.556	21.333	1205.541	949.069
1.571	17.775	1211.724	934.395
2.586	17.116	1226.450	942.011
3.600	16.698	1214.218	930.241
4.615	12.578	1142.969	854.228
5.629	6.193	1072.875	770.567
6.644	3.522	1055.254	744.956
7.659	3.366	1053.143	742.651
8.673	3.375	1052.051	741.855
9.688	3.427	1051.156	741.412
10.702	3.592	1048.645	740.366
11.717	7.196	1053.476	761.052
12.731	14.257	1063.337	802.247
13.746	18.725	1068.502	827.663
14.761	19.432	1069.606	831.851
15.775	18.756	1067.564	826.939
16.790	17.691	1065.494	820.137
17.804	16.935	1064.425	815.609
18.819	16.618	1063.191	813.070
19.834	16.629	1061.861	812.031
20.848	16.359	1061.376	810.293
21.863	16.235	1060.589	809.026
22.877	15.994	1060.178	807.486
23.892	15.970	1059.451	806.746
24.907	15.982	1058.881	806.297
25.921	16.023	1057.174	805.127
26.936	16.032	1055.852	804.092
27.950	15.983	1054.900	803.061
28.965	16.029	1053.660	802.265
29.980	16.312	1051.689	802.035
30.994	16.424	1050.822	801.835
32.009	16.404	1049.877	800.949
33.023	16.251	1048.760	799.302
34.038	16.118	1047.776	797.850
35.053	16.161	1046.891	797.312
36.067	16.129	1045.702	796.183
37.082	16.076	1045.027	795.349
38.096	16.295	1044.192	795.676
39.111	16.154	1043.945	794.752
40.126	16.120	1042.390	793.336
41.140	15.963	1040.974	791.451
42.155	15.714	1040.069	789.528
43.169	15.905	1038.175	788.915
44.184	15.896	1037.672	788.419
45.199	15.816	1036.969	787.442
46.213	15.870	1035.877	786.793
47.228	16.083	1034.587	786.740
48.242	16.127	1033.872	786.333
49.257	16.052	1032.893	785.167
50.271	16.108	1031.855	784.571
51.286	16.075	1031.220	783.864
52.301	16.191	1030.193	783.551
53.315	16.095	1028.989	782.122
54.330	15.864	1028.094	780.302
55.344	15.868	1027.200	779.574
56.359	15.943	1026.578	779.380
57.374	15.857	1025.806	778.326
58.388	15.816	1024.779	777.288
59.403	15.811	1024.025	776.626
60.417	15.743	1023.376	775.749
61.432	15.842	1022.172	775.227
62.447	15.666	1021.459	773.808
63.461	15.736	1020.451	773.298
64.476	15.598	1020.040	772.280
65.490	15.717	1019.451	772.314
66.505	15.659	1018.626	771.353
67.520	15.602	1018.025	770.569
68.534	15.786	1016.912	770.501
69.549	15.713	1015.905	769.338
70.563	15.769	1015.029	768.860
71.578	15.650	1014.016	767.482
72.593	15.614	1013.443	766.817
73.607	15.586	1013.123	766.380
74.622	15.549	1012.820	765.911
75.636	15.732	1011.332	765.554
76.651	15.601	1010.878	764.546
77.666	15.548	1010.433	763.898
78.680	15.597	1009.776	763.558
79.695	15.695	1009.106	763.429
80.709	15.777	1008.783	763.491
81.724	15.982	1008.022	763.775
82.739	15.960	1007.157	762.953
83.753	15.979	1006.872	762.757
84.768	16.169	1005.585	762.571
85.782	16.365	1004.714	762.728
86.797	16.302	1003.911	761.770
87.812	16.131	1002.794	760.084
88.826	16.048	1002.158	759.160
89.841	16.227	1001.268	759.224
90.855	16.246	1000.223	758.449
91.870	16.271	999.178	757.700
92.884	16.274	998.290	756.975
93.899	16.245	997.868	756.460
94.914	16.467	996.676	756.482
95.928	16.275	996.053	755.081
96.943	16.282	994.727	754.043
97.957	16.202	994.168	753.196
98.972	16.200	993.473	752.593
99.987	16.261	992.427	752.004
101.001	16.221	991.634	751.161
102.016	16.226	991.022	750.650
103.030	16.297	990.405	750.432
104.045	16.243	989.494	749.439
105.060	16.157	988.296	748.084
106.074	15.921	987.443	746.324
107.089	15.859	986.550	745.311
108.103	15.819	985.717	744.438
109.118	15.643	985.065	743.100
110.133	15.860	983.191	742.579
111.147	15.853	982.991	742.331
112.162	15.883	982.016	741.660
113.176	15.889	981.784	741.445
114.191	15.932	980.988	740.969
115.206	15.983	979.718	740.168
116.220	15.922	979.318	739.534
117.235	15.859	978.083	738.258
118.249	15.932	977.268	737.900
119.264	15.832	976.729	736.987
120.279	15.841	975.774	736.241
121.293	15.719	975.263	735.258
122.308	15.766	974.250	734.632
123.322	15.768	972.685	733.397
124.337	15.641	971.820	732.127
125.352	15.687	970.960	731.615
126.366	15.676	970.046	730.813
127.381	15.672	968.913	729.880
128.395	15.728	967.979	729.354
129.410	15.824	967.242	729.150
130.424	15.712	966.417	727.980
131.439	15.947	965.902	728.543
132.454	15.981	964.674	727.699
133.468	15.966	963.770	726.885
134.483	15.995	963.141	726.474
135.497	16.119	961.817	725.943
136.512	15.975	961.859	725.293
137.527	15.923	960.978	724.339
138.541	16.084	960.211	724.391
139.556	16.000	959.363	723.325
140.570	16.193	958.812	723.675
141.585	16.322	957.824	723.417
142.600	16.379	956.846	722.856
143.614	16.285	956.423	722.074
144.629	16.515	955.313	722.152
145.643	16.246	954.639	720.432
146.658	16.322	953.417	719.769
147.673	16.083	952.965	718.348
148.687	16.016	951.989	717.260
149.702	16.003	950.835	716.273
150.716	15.851	950.668	715.439
151.731	15.987	949.854	715.339
152.746	16.123	948.820	715.074
153.760	16.243	947.920	714.839
154.775	16.085	947.958	714.139
155.789	16.290	946.949	714.183
156.804	16.266	945.981	713.285
157.819	16.156	945.636	712.500
158.833	16.344	944.748	712.558
159.848	16.580	944.019	712.943
160.862	16.585	943.121	712.222
161.877	16.176	941.967	709.568
162.892	16.177	940.892	708.700
163.906	16.227	939.646	707.908
164.921	16.196	939.278	707.439
165.935	16.280	938.218	706.930
166.950	16.355	937.252	706.450
167.964	16.296	936.861	705.848
168.979	16.102	935.933	704.277
169.994	16.175	935.009	703.824
171.008	16.367	934.034	703.827
172.023	16.311	933.807	703.360
173.037	16.441	932.784	703.067
174.052	16.379	932.371	702.437
175.067	16.127	931.961	701.018
176.081	16.154	931.049	700.384
177.096	16.183	930.208	699.807
178.110	16.346	929.818	700.128
179.125	16.194	930.129	699.669
180.140	16.366	928.817	699.336
181.154	16.423	928.537	699.297
182.169	16.457	928.075	699.028
183.183	16.553	927.403	698.856
184.198	16.494	926.742	698.052
185.213	16.527	926.004	697.572
186.227	16.560	925.115	696.975
187.242	16.698	924.729	697.194
188.256	16.701	924.205	696.749
189.271	16.733	923.386	696.198
190.286	16.477	922.367	694.319
191.300	16.134	921.245	692.004
192.315	16.255	920.538	691.909
193.329	16.059	920.391	690.935
194.344	16.198	919.768	690.976
195.359	16.412	919.182	691.349
196.373	16.561	918.661	691.505
197.388	16.665	918.178	691.506
198.402	16.750	917.836	691.535
199.417	16.824	917.037	691.172
200.432	16.830	916.930	691.054
201.446	16.949	916.532	691.179
202.461	16.950	915.691	690.489
203.475	16.832	915.287	689.643
204.490	16.698	914.207	688.221
205.504	16.761	913.011	687.519
206.519	16.708	912.565	686.906
207.534	16.781	911.749	686.527
208.548	16.845	910.929	686.107
209.563	16.706	910.427	685.105
210.577	16.829	910.072	685.275
211.592	16.889	909.465	684.999
212.607	17.107	908.495	685.091
213.621	17.102	907.431	684.204
214.636	16.970	907.031	683.312
215.650	16.882	906.858	682.766
216.665	16.973	905.740	682.232
217.680	16.988	905.579	682.108
218.694	17.168	904.869	682.239
219.709	17.168	904.116	681.608
220.723	17.027	903.225	680.312
221.738	17.098	902.820	680.229
222.753	16.966	901.648	678.761
223.767	17.059	901.643	679.069
224.782	17.168	900.997	678.955
225.796	17.329	900.811	679.398
226.811	17.175	899.570	677.791
227.826	17.004	899.102	676.693
228.840	17.022	897.890	675.796
229.855	17.034	897.444	675.449
230.869	17.086	896.704	675.038
231.884	16.935	896.181	673.984
232.899	16.898	895.525	673.283
233.913	17.023	894.290	672.789
234.928	16.997	893.814	672.271
235.942	16.893	893.312	671.423
236.957	16.946	892.844	671.220
237.972	17.031	891.726	670.654
238.986	16.915	891.506	669.974
240.001	17.003	891.021	669.897
241.015	17.122	890.446	669.873
242.030	17.119	889.856	669.360
243.045	17.114	889.239	668.816
244.059	17.129	888.611	668.345
245.074	17.125	888.126	667.904
246.088	17.277	887.186	667.735
247.103	17.332	886.899	667.676
248.117	17.316	887.025	667.648
249.132	17.490	886.018	667.517
250.147	17.800	885.398	668.202
251.161	17.865	884.450	667.682
252.176	17.825	884.363	667.403
253.190	17.764	883.690	666.594
254.205	17.795	883.022	666.153
255.220	17.712	882.183	665.138
256.234	17.717	881.828	664.830
257.249	17.691	881.164	664.169
258.263	17.793	880.024	663.649
259.278	17.764	879.467	663.059
260.293	17.832	878.977	662.894
261.307	18.013	878.397	663.103
262.322	17.859	877.851	662.034
263.336	17.892	877.111	661.542
264.351	17.992	876.569	661.463
265.366	17.957	875.427	660.408
266.380	17.908	875.289	660.056
267.395	17.799	874.329	658.853
268.409	17.832	873.788	658.513
269.424	17.893	873.121	658.188
270.439	17.795	872.309	657.141
271.453	17.808	871.534	656.550
272.468	17.865	871.158	656.427
273.482	17.697	870.544	655.261
274.497	17.771	869.824	654.944
275.512	17.828	869.148	654.596
276.526	17.824	868.936	654.362
277.541	17.936	868.524	654.424
278.555	18.012	867.828	654.134
279.570	18.180	866.869	653.994
280.585	18.086	866.446	653.260
281.599	17.953	865.539	652.008
282.614	18.009	864.452	651.348
283.628	17.907	864.536	650.964
284.643	17.932	863.893	650.517
285.657	17.954	863.300	650.094
286.672	17.937	862.695	649.520
287.687	17.986	861.836	649.000
288.701	17.968	861.749	648.808
289.716	18.096	861.132	648.774
290.730	18.093	860.437	648.182
291.745	18.149	859.915	647.942
292.760	18.134	859.389	647.432
293.774	18.314	858.749	647.573
294.789	18.291	857.949	646.824
295.803	18.142	856.736	645.290
296.818	18.091	856.653	644.982
297.833	18.129	855.679	644.334
298.847	18.181	854.869	643.860
299.862	18.196	854.905	643.886
300.876	18.300	854.525	643.935
301.891	18.436	853.605	643.698
302.906	18.429	853.044	643.192
303.920	18.558	852.983	643.572
304.935	18.549	852.482	643.102
305.949	18.452	851.571	641.994
306.964	18.465	850.773	641.387
307.979	18.352	850.285	640.537
308.993	18.583	849.693	640.899
310.008	18.543	848.884	640.085
311.022	18.565	848.483	639.804
312.037	18.463	847.632	638.729
313.052	18.327	846.890	637.604
314.066	18.203	846.494	636.791
315.081	18.226	846.039	636.477
316.095	18.187	845.433	635.819
317.110	18.223	844.744	635.378
318.125	18.295	844.156	635.146
319.139	18.295	843.988	634.966
320.154	18.492	843.380	635.179
321.168	18.427	842.631	634.319
322.183	18.310	842.485	633.719
323.197	18.382	842.359	633.838
324.212	18.424	841.226	633.082
325.227	18.294	840.864	632.276
326.241	18.460	840.005	632.186
327.256	18.394	839.750	631.695
328.270	18.412	838.978	631.122
329.285	18.321	838.629	630.470
330.300	18.330	838.291	630.192
331.314	18.410	837.172	629.591
332.329	18.522	837.245	630.001
333.343	18.559	836.821	629.762
334.358	18.491	836.517	629.227
335.373	18.618	835.761	629.069
336.387	18.605	835.572	628.824
337.402	18.680	835.503	628.990
338.416	18.928	835.278	629.673
339.431	18.792	834.733	628.712
340.446	19.007	834.291	629.110
341.460	18.885	833.879	628.297
342.475	19.064	833.351	628.495
343.489	19.036	833.097	628.146
344.504	19.081	832.303	627.658
345.519	19.119	831.783	627.346
346.533	19.115	831.394	626.983
347.548	18.938	830.729	625.781
348.562	18.870	829.970	624.908
349.577	18.806	829.483	624.254
350.592	18.826	828.991	623.901
351.606	18.812	828.174	623.181
352.621	18.786	827.659	622.643
353.635	18.858	826.750	622.165
354.650	18.986	826.001	622.008
355.665	18.917	825.713	621.487
356.679	18.825	825.664	621.065
357.694	18.946	824.583	620.634
358.708	18.943	824.041	620.158
359.723	19.159	823.183	620.235
360.738	19.054	822.959	619.632
361.752	19.060	822.281	619.092
362.767	19.129	821.805	618.924
363.781	19.025	821.618	618.358
364.796	19.220	821.113	618.622
365.810	19.457	821.121	619.425
366.825	19.405	820.582	618.777
367.840	19.331	819.911	617.952
368.854	19.336	819.131	617.326
369.869	19.324	818.599	616.826
370.883	19.283	818.465	616.524
371.898	19.326	818.268	616.477
372.913	19.482	817.756	616.594
373.927	19.405	817.111	615.776
374.942	19.393	816.709	615.375
375.956	19.454	816.267	615.206
376.971	19.595	815.457	615.045
377.986	19.598	815.340	614.912
379.000	19.555	815.235	614.625
380.015	19.683	814.298	614.320
381.029	19.594	813.854	613.613
382.044	19.706	813.041	613.343
383.059	19.764	812.469	613.063
384.073	19.539	812.031	611.882
385.088	19.469	811.160	610.922
386.102	19.496	810.704	610.620
387.117	19.410	810.441	610.066
388.132	19.422	809.920	609.661
389.146	19.634	809.256	609.855
390.161	19.668	808.662	609.475
391.175	19.811	808.063	609.473
392.190	19.529	807.964	608.350
393.205	19.507	807.293	607.715
394.219	19.534	807.160	607.657
395.234	19.380	806.597	606.635
396.248	19.338	806.362	606.259
397.263	19.308	805.479	605.434
398.278	19.399	804.800	605.192
399.292	19.401	804.628	605.014
400.307	19.301	804.638	604.618
401.321	19.300	803.880	603.992
402.336	19.526	803.083	604.130
403.350	19.584	802.941	604.173
404.365	19.575	803.088	604.199
405.380	19.815	801.931	604.113
406.394	19.928	801.754	604.322
407.409	19.873	801.382	603.796
408.423	20.167	800.558	604.145
409.438	19.995	800.651	603.563
410.453	20.183	799.929	603.618
411.467	19.899	799.681	602.391
412.482	20.061	799.206	602.541
413.496	20.047	799.244	602.470
414.511	20.097	798.687	602.169
415.526	20.119	798.041	601.706
416.540	19.975	797.621	600.838
417.555	19.950	797.424	600.547
418.569	20.157	796.666	600.643
419.584	20.110	796.347	600.185
420.599	20.183	795.616	599.835
421.613	162.701	1371.216	1797.319
422.628	141.157	1455.060	1797.427
