DTS Sentinel unit serial number:	SN413079Multiplexer serial number:	ORYXHardware model number:	OX4-SRSoftware version number:	ORYX F/W v4.00 Oryx Data Collector v3.7.2.0data status	okinstallation	princeton_trtdifferential loss correction	single-endedforward channel	channel 1reverse channel	N/Adate	2019/09/15time	23:34:35forward acquisition time	60.00reverse acquisition time	0.00gamma	496.2192k internal	0.2332k external	0.2332temperature offset calibration	0.9972default loss term (dB/km)	0.3790temperature slope calibration	1.0000multiplexer offset coefficient	1.0000multiplexer slope coefficient	1.0000fibre end	0.00T internal ref (°C)	28.12T ext. ref 1 (°C)	9.20T ext. ref 2 (°C)	22.01length (m)	temperature (°C)	Stokes	anti-Stokes-747.200	497.768	-0.034	-0.078
-746.185	-44.167	-0.211	0.106
-745.171	295.194	-0.026	0.048
-744.156	-51.078	-0.088	-0.041
-743.142	309.097	0.203	-0.382
-742.127	47.206	-0.209	0.195
-741.112	69.505	-0.131	0.135
-740.098	61.703	-0.081	-0.081
-739.083	-139.109	0.348	0.038
-738.069	-200.000	0.012	0.063
-737.054	-155.297	-0.184	-0.012
-736.039	-106.052	-0.310	-0.070
-735.025	800.000	0.204	0.610
-734.010	-69.639	-0.271	0.104
-732.996	-92.077	-0.119	0.034
-731.981	-110.689	-0.301	0.063
-730.966	307.599	-0.241	-0.452
-729.952	-145.784	-0.287	0.026
-728.937	-108.092	0.165	0.036
-727.923	108.254	-0.117	-0.141
-726.908	-25.430	0.140	-0.083
-725.894	-183.012	-0.397	-0.007
-724.879	18.527	0.203	0.163
-723.864	-15.449	0.222	-0.142
-722.850	-102.787	-0.304	-0.073
-721.835	-120.861	-0.402	-0.068
-720.821	343.242	-0.088	-0.174
-719.806	115.626	0.085	-0.104
-718.791	-57.967	-0.181	0.080
-717.777	-115.563	0.080	-0.015
-716.762	218.750	-0.214	-0.344
-715.748	-154.909	0.215	-0.014
-714.733	98.234	-0.070	-0.082
-713.718	-196.113	-0.021	0.000
-712.704	800.000	0.046	-0.144
-711.689	-29.833	0.028	0.016
-710.675	-200.000	-0.027	-0.191
-709.660	605.338	-0.031	0.077
-708.645	-67.086	-0.147	0.058
-707.631	800.000	0.132	0.417
-706.616	-6.913	0.053	0.036
-705.602	-141.387	-0.195	-0.020
-704.587	-80.394	-0.317	0.106
-703.572	-86.329	0.413	0.128
-702.558	-2.001	0.017	-0.012
-701.543	46.404	0.210	-0.195
-700.529	132.707	0.055	-0.071
-699.514	-200.000	0.014	-0.367
-698.499	-138.166	0.222	0.025
-697.485	-200.000	-0.000	-0.069
-696.470	53.268	-0.158	0.152
-695.456	193.906	0.238	0.363
-694.441	67.650	0.213	0.219
-693.426	-47.525	-0.184	-0.090
-692.412	-200.000	0.021	-0.242
-691.397	-200.000	0.016	0.165
-690.383	-32.034	-0.250	-0.140
-689.368	-200.000	-0.010	0.066
-688.354	332.142	-0.013	-0.025
-687.339	140.796	-0.201	0.266
-686.324	119.158	-0.088	-0.109
-685.310	-51.204	-0.210	-0.099
-684.295	651.296	0.044	-0.114
-683.281	-200.000	0.026	-0.184
-682.266	282.949	-0.085	-0.153
-681.251	94.866	0.035	-0.040
-680.237	-116.069	-0.416	0.078
-679.222	200.813	0.134	-0.207
-678.208	-49.571	-0.188	-0.090
-677.193	66.296	-0.153	-0.156
-676.178	352.171	-0.057	-0.112
-675.164	-97.126	0.205	-0.054
-674.149	-200.000	-0.003	0.148
-673.135	26.569	-0.242	0.204
-672.120	50.600	-0.305	0.290
-671.105	75.456	0.081	0.086
-670.091	98.942	-0.076	0.089
-669.076	-200.000	-0.069	-0.406
-668.062	-32.335	0.337	0.189
-667.047	92.217	-0.041	0.046
-666.032	-53.110	-0.236	0.109
-665.018	-36.296	0.187	-0.101
-664.003	-200.000	-0.056	-0.271
-662.989	-200.000	-0.026	-0.184
-661.974	-200.000	0.024	0.210
-660.959	-130.669	-0.292	-0.039
-659.945	-50.900	-0.027	0.013
-658.930	-154.983	-0.328	-0.022
-657.916	-57.458	-0.223	-0.098
-656.901	-77.665	0.275	0.095
-655.886	15.946	-0.216	-0.170
-654.872	-200.000	-0.001	-0.250
-653.857	-47.833	0.289	0.140
-652.843	-111.130	-0.256	-0.053
-651.828	-116.262	-0.230	0.043
-650.814	485.343	-0.074	-0.168
-649.799	28.799	-0.129	-0.109
-648.784	186.606	-0.036	-0.053
-647.770	645.372	-0.092	-0.235
-646.755	-30.350	0.153	0.087
-645.741	265.145	0.161	0.282
-644.726	-44.404	0.390	-0.196
-643.711	43.648	0.242	-0.222
-642.697	67.645	0.282	-0.289
-641.682	483.766	0.099	0.227
-640.668	-71.844	-0.271	-0.101
-639.653	-67.281	-0.286	0.113
-638.638	77.325	-0.092	0.098
-637.624	22.990	0.257	-0.211
-636.609	-103.615	-0.103	-0.024
-635.595	-109.527	0.470	0.100
-634.580	-200.000	0.026	0.139
-633.565	599.468	-0.055	0.136
-632.551	90.813	-0.122	-0.137
-631.536	-200.000	0.003	-0.460
-630.522	800.000	-0.113	-0.382
-629.507	174.632	-0.143	-0.208
-628.492	162.011	0.041	-0.057
-627.478	59.840	0.078	0.077
-626.463	800.000	-0.089	-0.264
-625.449	-39.597	-0.121	0.063
-624.434	103.161	-0.107	0.126
-623.419	-27.352	-0.220	-0.128
-622.405	-127.797	0.059	0.008
-621.390	10.095	0.157	-0.119
-620.376	-130.130	0.222	0.030
-619.361	800.000	0.085	0.237
-618.346	115.983	0.109	0.134
-617.332	-120.676	-0.236	-0.040
-616.317	-142.619	-0.111	0.011
-615.303	-112.456	0.371	-0.074
-614.288	-52.290	-0.238	0.110
-613.273	357.412	-0.019	-0.038
-612.259	-200.000	0.074	-0.332
-611.244	41.713	-0.246	0.223
-610.230	21.342	-0.289	-0.235
-609.215	-31.013	-0.414	-0.234
-608.201	49.730	-0.263	0.248
-607.186	800.000	0.096	-0.284
-606.171	276.837	-0.086	-0.153
-605.157	-143.345	-0.187	-0.018
-604.142	307.101	0.121	0.225
-603.128	-200.000	0.034	0.214
-602.113	-9.701	-0.215	0.143
-601.098	-133.174	0.253	-0.032
-600.084	-92.174	-0.313	0.089
-599.069	800.000	-0.037	0.161
-598.055	486.681	-0.087	-0.198
-597.040	146.142	-0.124	-0.167
-596.025	-92.154	0.245	0.069
-595.011	-200.000	-0.025	0.159
-593.996	-151.548	0.062	0.005
-592.982	103.993	-0.098	-0.115
-591.967	800.000	0.033	-0.104
-590.952	160.091	0.032	-0.045
-589.938	-102.508	-0.309	0.074
-588.923	71.497	-0.157	0.163
-587.909	-33.210	0.459	0.255
-586.894	800.000	-0.018	0.054
-585.879	1.644	-0.044	-0.032
-584.865	132.884	0.267	0.345
-583.850	-111.458	0.077	0.016
-582.836	151.296	-0.055	0.075
-581.821	-166.645	0.172	0.007
-580.806	800.000	0.136	-0.394
-579.792	105.178	0.172	-0.202
-578.777	-81.790	0.052	0.017
-577.763	246.712	-0.043	0.073
-576.748	-200.000	-0.002	-0.118
-575.733	-180.417	-0.236	0.005
-574.719	-25.448	0.184	-0.109
-573.704	185.185	-0.135	-0.200
-572.690	800.000	-0.057	-0.161
-571.675	37.260	-0.379	0.336
-570.661	-1.350	0.170	-0.120
-569.646	-68.953	0.180	-0.070
-568.631	484.182	0.079	-0.181
-567.617	70.109	0.175	-0.181
-566.602	-141.569	-0.402	0.040
-565.588	271.033	0.144	0.253
-564.573	-147.884	-0.200	-0.017
-563.558	-128.585	-0.413	0.058
-562.544	-200.000	-0.069	-0.468
-561.529	11.279	0.127	-0.097
-560.515	-20.468	-0.092	-0.056
-559.500	135.989	-0.226	0.294
-558.485	-102.294	0.306	-0.073
-557.471	-50.523	-0.152	0.071
-556.456	-57.365	0.066	0.029
-555.442	-66.717	0.195	-0.077
-554.427	722.261	-0.154	-0.409
-553.412	800.000	0.051	-0.158
-552.398	-200.000	-0.021	-0.097
-551.383	651.005	-0.063	-0.162
-550.369	-165.803	-0.079	0.003
-549.354	66.747	0.149	-0.151
-548.339	204.235	0.059	0.092
-547.325	-109.684	0.269	0.057
-546.310	-29.814	0.220	0.125
-545.296	117.943	-0.042	-0.052
-544.281	31.801	0.144	-0.124
-543.266	-91.503	-0.117	0.033
-542.252	606.820	0.081	-0.201
-541.237	-195.892	-0.460	0.003
-540.223	10.678	-0.232	-0.177
-539.208	78.599	0.071	-0.076
-538.193	-200.000	0.010	0.124
-537.179	30.024	-0.066	0.056
-536.164	110.130	-0.093	-0.112
-535.150	-52.259	0.118	-0.055
-534.135	-170.936	0.235	0.008
-533.121	800.000	0.045	0.161
-532.106	18.593	0.079	-0.063
-531.091	225.582	-0.183	-0.296
-530.077	-67.600	-0.404	0.158
-529.062	-87.204	0.162	-0.049
-528.048	430.939	0.066	-0.143
-527.033	800.000	-0.094	-0.277
-526.018	800.000	-0.056	0.205
-525.004	-26.529	0.107	0.063
-523.989	-70.331	-0.201	0.076
-522.975	224.505	0.144	-0.232
-521.960	-59.936	0.356	-0.152
-520.945	800.000	-0.102	0.437
-519.931	800.000	0.082	0.290
-518.916	46.017	0.289	0.267
-517.902	-104.748	-0.276	-0.063
-516.887	-165.532	-0.266	-0.012
-515.872	-40.031	0.156	0.081
-514.858	188.595	0.137	-0.205
-513.843	-46.622	-0.210	-0.103
-512.829	-105.920	-0.103	0.023
-511.814	-59.169	-0.072	-0.031
-510.799	-50.427	0.260	0.122
-509.785	-152.167	-0.189	0.014
-508.770	115.313	-0.440	-0.536
-507.756	-17.420	0.126	0.079
-506.741	707.683	-0.046	-0.120
-505.726	6.541	0.088	-0.065
-504.712	-200.000	0.043	0.198
-503.697	450.166	-0.091	0.200
-502.683	5.787	0.097	-0.071
-501.668	800.000	0.090	0.337
-500.653	-118.017	-0.509	0.091
-499.639	-65.177	0.384	-0.154
-498.624	800.000	-0.111	-0.398
-497.610	-182.597	0.227	0.004
-496.595	-200.000	0.004	0.033
-495.581	-66.768	0.167	-0.066
-494.566	-102.227	-0.127	0.030
-493.551	53.189	-0.176	0.168
-492.537	18.070	0.053	0.042
-491.522	800.000	-0.094	0.287
-490.508	418.715	-0.146	-0.311
-489.493	-107.641	-0.342	0.074
-488.478	-200.000	0.002	-0.069
-487.464	-200.000	0.221	-0.000
-486.449	280.460	-0.052	-0.093
-485.435	-200.000	0.071	-0.398
-484.420	-187.082	0.434	-0.006
-483.405	-61.085	0.194	0.081
-482.391	8.823	0.199	0.150
-481.376	60.823	0.283	0.280
-480.362	800.000	-0.053	-0.170
-479.347	-95.367	-0.242	-0.065
-478.332	70.490	-0.235	0.242
-477.318	800.000	-0.112	0.330
-476.303	174.709	0.190	0.274
-475.289	-65.807	-0.153	0.061
-474.274	472.429	0.072	-0.161
-473.259	-200.000	-0.002	-0.029
-472.245	-160.769	-0.166	0.009
-471.230	-200.000	-0.006	0.137
-470.216	-200.000	-0.020	0.244
-469.201	707.114	-0.160	0.421
-468.186	-117.876	0.382	0.068
-467.172	-86.442	-0.230	0.070
-466.157	800.000	0.034	0.098
-465.143	-122.539	0.131	0.021
-464.128	185.885	-0.163	0.241
-463.113	53.764	-0.078	0.075
-462.099	800.000	0.083	0.308
-461.084	36.345	0.118	-0.104
-460.070	180.981	-0.073	-0.107
-459.055	-123.831	0.217	-0.034
-458.040	380.272	0.176	-0.359
-457.026	-106.594	0.189	0.042
-456.011	-92.412	0.134	-0.038
-454.997	227.028	0.054	-0.088
-453.982	164.899	0.178	0.250
-452.968	-200.000	0.025	0.216
-451.953	377.447	0.070	-0.142
-450.938	499.346	0.077	-0.177
-449.924	-98.669	0.249	0.063
-448.909	10.384	0.147	0.111
-447.895	-48.585	-0.398	0.190
-446.880	-4.190	-0.114	-0.079
-445.865	-118.884	-0.382	0.067
-444.851	-200.000	-0.007	0.045
-443.836	-145.662	-0.060	0.005
-442.822	-200.000	-0.015	0.198
-441.807	-200.000	-0.037	0.202
-440.792	-200.000	0.013	-0.080
-439.778	-200.000	-0.019	-0.494
-438.763	-200.000	0.021	-0.100
-437.749	778.489	0.134	0.364
-436.734	-34.319	-0.126	-0.069
-435.719	-92.451	0.067	0.019
-434.705	-200.000	-0.008	0.178
-433.690	10.125	-0.251	-0.190
-432.676	-200.000	-0.022	-0.421
-431.661	-93.131	0.299	0.083
-430.646	-59.903	0.165	0.070
-429.632	323.493	-0.170	0.321
-428.617	800.000	-0.033	-0.114
-427.603	358.188	-0.115	-0.229
-426.588	114.350	-0.111	-0.134
-425.573	294.841	0.194	0.352
-424.559	-121.871	0.124	0.020
-423.544	-200.000	-0.019	0.297
-422.530	-130.786	-0.318	-0.042
-421.515	800.000	-0.013	-0.057
-420.500	800.000	0.064	0.202
-419.486	-44.047	-0.240	0.120
-418.471	-106.952	-0.045	0.010
-417.457	74.709	0.132	0.138
-416.442	-135.303	0.312	-0.037
-415.428	222.478	-0.016	0.026
-414.413	-200.000	0.001	0.140
-413.398	-111.599	0.160	-0.032
-412.384	-46.030	0.071	0.035
-411.369	143.968	0.143	-0.190
-410.355	120.776	-0.115	0.143
-409.340	776.118	0.025	0.067
-408.325	800.000	0.063	-0.174
-407.311	-47.108	0.312	0.151
-406.296	-56.310	-0.348	0.154
-405.282	-200.000	0.003	0.512
-404.267	-200.000	-0.008	0.176
-403.252	-200.000	0.051	-0.283
-402.238	-155.208	0.121	0.008
-401.223	320.830	0.120	-0.226
-400.209	34.931	-0.267	-0.232
-399.194	-50.560	0.329	0.154
-398.179	-200.000	-0.011	-0.256
-397.165	77.711	0.073	0.077
-396.150	36.184	0.147	0.129
-395.136	83.066	0.151	0.163
-394.121	19.254	0.149	-0.119
-393.106	-200.000	-0.000	-0.387
-392.092	110.514	0.183	-0.218
-391.077	389.766	0.197	0.405
-390.063	-133.105	-0.325	0.041
-389.048	-52.543	0.175	-0.080
-388.033	738.973	-0.035	-0.092
-387.019	156.561	0.150	0.205
-386.004	-200.000	-0.008	-0.120
-384.990	-200.000	-0.003	-0.145
-383.975	50.115	0.109	0.102
-382.960	-110.157	-0.224	-0.046
-381.946	-35.512	-0.135	0.073
-380.931	776.878	0.093	-0.252
-379.917	9.639	-0.148	-0.111
-378.902	-62.278	-0.150	0.062
-377.888	-200.000	0.009	-0.089
-376.873	21.808	-0.172	0.139
-375.858	747.214	-0.058	-0.155
-374.844	-200.000	0.050	0.320
-373.829	-86.337	-0.033	-0.010
-372.815	-200.000	0.060	-0.405
-371.800	-44.535	0.097	-0.048
-370.785	-49.277	-0.104	0.049
-369.771	-139.531	0.363	-0.038
-368.756	-123.012	0.197	-0.031
-367.742	161.233	-0.094	-0.130
-366.727	800.000	0.086	0.270
-365.712	54.881	-0.329	0.314
-364.698	-36.863	-0.102	0.054
-363.683	155.762	-0.128	-0.175
-362.669	161.974	-0.139	0.193
-361.654	-108.884	0.176	0.037
-360.639	-200.000	0.021	0.218
-359.625	-97.971	0.045	0.012
-358.610	-47.720	-0.291	0.140
-357.596	-67.590	-0.409	0.159
-356.581	41.779	-0.185	-0.167
-355.566	-200.000	0.021	-0.173
-354.552	215.957	-0.029	-0.046
-353.537	-160.726	-0.189	0.010
-352.523	-104.311	-0.326	0.075
-351.508	267.826	-0.045	-0.078
-350.493	-200.000	-0.021	-0.094
-349.479	-101.562	-0.289	-0.070
-348.464	-183.818	-0.177	-0.003
-347.450	-123.891	0.111	-0.017
-346.435	324.870	-0.102	-0.193
-345.420	437.719	-0.052	0.113
-344.406	-88.390	0.202	0.060
-343.391	800.000	0.050	0.213
-342.377	295.187	0.178	-0.322
-341.362	-99.542	-0.236	0.059
-340.348	-61.312	0.273	-0.114
-339.333	-200.000	0.024	0.219
-338.318	-200.000	-0.001	-0.019
-337.304	80.568	-0.190	0.203
-336.289	800.000	-0.071	-0.219
-335.275	-130.950	0.054	0.007
-334.260	-13.212	-0.317	-0.204
-333.245	-200.000	-0.001	-0.095
-332.231	53.934	-0.086	0.082
-331.216	-200.000	-0.007	-0.259
-330.202	117.287	0.129	-0.157
-329.187	-105.283	-0.233	-0.053
-328.172	-200.000	0.008	0.231
-327.158	-96.591	-0.214	0.056
-326.143	-11.852	-0.126	0.082
-325.129	-29.392	0.244	0.138
-324.114	-200.000	0.006	-0.159
-323.099	-200.000	0.025	-0.382
-322.085	-92.188	0.314	-0.088
-321.070	-81.072	-0.399	0.131
-320.056	-200.000	-0.055	0.288
-319.041	16.779	0.246	-0.193
-318.026	126.638	0.213	-0.267
-317.012	-200.000	0.046	-0.316
-315.997	133.599	-0.032	-0.041
-314.983	-155.966	0.466	-0.029
-313.968	-200.000	0.001	0.070
-312.953	110.812	-0.111	-0.132
-311.939	-74.939	0.110	0.039
-310.924	-50.627	0.081	0.038
-309.910	22.790	0.085	0.069
-308.895	-200.000	0.069	0.379
-307.880	109.242	0.130	0.154
-306.866	259.928	-0.066	-0.113
-305.851	-200.000	-0.008	0.167
-304.837	15.550	-0.016	-0.012
-303.822	375.145	-0.016	0.031
-302.807	-200.000	0.001	0.078
-301.793	-73.414	0.376	-0.136
-300.778	103.176	-0.098	-0.113
-299.764	-200.000	-0.049	0.261
-298.749	100.045	-0.049	-0.056
-297.735	-200.000	-0.002	0.311
-296.720	211.844	0.214	-0.333
-295.705	60.822	-0.319	-0.312
-294.691	9.035	0.027	0.020
-293.676	-121.569	-0.227	-0.037
-292.662	-200.000	0.040	-0.390
-291.647	-94.150	0.492	0.133
-290.632	43.820	-0.139	-0.126
-289.618	229.644	-0.085	-0.137
-288.603	-200.000	-0.026	0.199
-287.589	-2.823	0.192	0.132
-286.574	-135.863	0.147	0.017
-285.559	47.399	-0.177	-0.163
-284.545	-89.395	0.248	-0.072
-283.530	800.000	0.081	0.304
-282.516	60.273	0.163	0.160
-281.501	-200.000	0.037	0.228
-280.486	26.813	0.255	0.211
-279.472	-200.000	0.050	-0.318
-278.457	-200.000	0.027	0.123
-277.443	800.000	-0.016	-0.069
-276.428	22.248	0.171	0.138
-275.413	750.311	0.053	0.142
-274.399	800.000	-0.094	0.320
-273.384	-108.267	0.239	0.051
-272.370	110.589	-0.144	-0.171
-271.355	-147.186	0.159	0.013
-270.340	800.000	-0.028	-0.101
-269.326	-200.000	0.025	0.163
-268.311	590.982	0.039	0.094
-267.297	111.838	-0.082	-0.098
-266.282	-81.238	-0.384	-0.125
-265.267	-31.321	-0.236	-0.131
-264.253	117.870	-0.226	-0.274
-263.238	727.417	-0.101	-0.267
-262.224	229.243	0.183	0.294
-261.209	-128.480	0.168	-0.024
-260.195	266.537	0.077	0.133
-259.180	-89.902	0.152	-0.044
-258.165	-51.627	-0.171	-0.079
-257.151	-66.249	-0.206	-0.081
-256.136	-38.631	-0.040	0.021
-255.122	-35.871	0.291	0.155
-254.107	-200.000	-0.012	0.326
-253.092	800.000	-0.044	0.157
-252.078	28.579	-0.088	0.074
-251.063	285.375	-0.109	-0.193
-250.049	452.199	-0.056	0.122
-249.034	-200.000	0.030	-0.558
-248.019	800.000	0.030	0.105
-247.005	395.774	-0.004	-0.008
-245.990	54.250	0.002	0.002
-244.976	268.687	0.195	0.337
-243.961	-21.265	-0.121	0.073
-242.946	186.908	-0.207	0.304
-241.932	139.881	-0.164	0.214
-240.917	-111.075	-0.226	-0.046
-239.903	-200.000	-0.014	-0.247
-238.888	-108.262	-0.061	0.013
-237.873	-165.131	0.438	-0.019
-236.859	37.696	0.231	-0.203
-235.844	-136.218	0.493	-0.057
-234.830	-83.771	0.297	0.093
-233.815	236.630	0.122	0.199
-232.800	66.989	0.229	-0.230
-231.786	-146.052	0.230	0.020
-230.771	437.537	-0.058	-0.125
-229.757	-200.000	0.018	0.203
-228.742	-172.293	0.009	0.000
-227.727	-43.809	0.082	0.040
-226.713	-58.604	0.161	-0.069
-225.698	218.082	0.151	0.237
-224.684	-78.451	-0.256	0.086
-223.669	-86.901	-0.088	0.026
-222.655	-41.570	-0.118	-0.060
-221.640	-200.000	0.059	0.372
-220.625	-101.980	0.422	-0.100
-219.611	539.368	-0.100	-0.233
-218.596	-32.568	0.167	-0.092
-217.582	255.319	-0.142	0.240
-216.567	800.000	0.043	0.174
-215.552	22.750	0.101	0.081
-214.538	-200.000	0.000	0.207
-213.523	-131.921	0.242	0.031
-212.509	50.941	0.062	-0.058
-211.494	34.708	-0.035	-0.031
-210.479	-67.279	-0.200	-0.078
-209.465	-73.581	0.169	-0.061
-208.450	800.000	-0.039	0.129
-207.436	800.000	-0.098	0.273
-206.421	-75.524	0.130	0.046
-205.406	-200.000	0.005	0.187
-204.392	325.396	0.158	0.298
-203.377	114.848	-0.088	-0.105
-202.363	-200.000	0.012	0.062
-201.348	800.000	-0.054	-0.180
-200.333	28.034	-0.238	-0.198
-199.319	-97.675	0.205	0.052
-198.304	-200.000	-0.023	-0.328
-197.290	-123.841	-0.225	0.035
-196.275	-68.325	-0.407	-0.156
-195.260	-200.000	0.035	-0.180
-194.246	-101.135	-0.108	0.026
-193.231	-59.013	-0.158	0.067
-192.217	73.643	-0.173	-0.179
-191.202	234.022	0.132	-0.215
-190.187	401.457	0.111	-0.229
-189.173	87.589	-0.336	-0.366
-188.158	800.000	-0.086	-0.263
-187.144	10.589	0.115	-0.086
-186.129	-142.375	-0.205	0.020
-185.114	-67.570	0.095	-0.037
-184.100	12.634	-0.127	-0.096
-183.085	-151.184	0.199	-0.015
-182.071	-200.000	0.016	0.279
-181.056	-22.970	-0.033	0.020
-180.042	244.832	0.093	0.154
-179.027	52.505	0.282	0.265
-178.012	-143.164	-0.285	0.027
-176.998	-95.222	0.203	0.054
-175.983	-19.857	-0.066	0.040
-174.969	-163.340	-0.215	-0.010
-173.954	-74.220	0.106	0.038
-172.939	800.000	0.011	0.033
-171.925	354.782	0.157	-0.307
-170.910	-33.791	-0.189	0.102
-169.896	-81.468	-0.404	0.131
-168.881	-163.107	0.169	-0.008
-167.866	800.000	-0.042	-0.178
-166.852	479.203	0.061	0.135
-165.837	800.000	0.052	-0.164
-164.823	800.000	-0.028	0.081
-163.808	35.444	0.107	0.092
-162.793	-200.000	-0.005	0.046
-161.779	-200.000	-0.051	0.326
-160.764	-170.381	-0.285	-0.010
-159.750	512.702	0.029	-0.067
-158.735	74.999	0.091	0.095
-157.720	800.000	-0.049	0.157
-156.706	-149.821	-0.096	0.007
-155.691	-200.000	0.028	-0.127
-154.677	281.425	-0.204	-0.359
-153.662	179.914	0.061	-0.087
-152.647	-182.539	-0.207	-0.004
-151.633	800.000	-0.163	0.515
-150.618	82.879	-0.051	0.054
-149.604	800.000	-0.107	0.302
-148.589	17.981	-0.257	0.201
-147.574	-200.000	0.010	-0.218
-146.560	-200.000	0.032	0.154
-145.545	215.616	0.091	0.141
-144.531	800.000	0.054	-0.197
-143.516	-33.235	0.308	-0.168
-142.502	-78.239	0.123	-0.042
-141.487	-142.333	-0.144	-0.014
-140.472	183.235	0.169	0.245
-139.458	401.281	0.183	-0.377
-138.443	-103.060	-0.178	0.042
-137.429	-45.286	0.484	-0.236
-136.414	747.547	-0.018	-0.046
-135.399	-200.000	-0.052	0.364
-134.385	-200.000	0.031	-0.168
-133.370	-81.969	0.202	-0.065
-132.356	800.000	-0.034	0.126
-131.341	-90.977	-0.035	-0.010
-130.326	-72.653	0.229	-0.083
-129.312	-200.000	0.028	0.212
-128.297	304.827	-0.176	0.322
-127.283	-132.701	-0.225	-0.028
-126.268	-200.000	-0.006	0.089
-125.253	-87.829	0.338	0.100
-124.239	-122.339	-0.168	-0.027
-123.224	-200.000	-0.027	-0.131
-122.210	243.842	0.068	0.111
-121.195	-102.106	0.079	-0.019
-120.180	-78.619	-0.023	-0.008
-119.166	-4.962	-0.148	-0.100
-118.151	120.463	-0.133	-0.162
-117.137	131.342	-0.166	-0.210
-116.122	-27.233	0.118	0.067
-115.107	-77.486	0.255	0.087
-114.093	-30.592	0.149	-0.083
-113.078	175.060	0.087	-0.124
-112.064	22.679	-0.207	0.166
-111.049	-167.914	-0.142	-0.005
-110.034	-200.000	0.020	-0.242
-109.020	15.136	0.056	0.043
-108.005	-52.347	0.155	-0.071
-106.991	-103.877	0.406	-0.093
-105.976	-200.000	0.014	0.093
-104.962	-183.404	0.139	-0.002
-103.947	-87.818	-0.116	0.034
-102.932	88.659	0.239	0.260
-101.918	-38.341	-0.182	-0.095
-100.903	116.505	0.127	-0.153
-99.889	-12.755	0.069	-0.044
-98.874	-200.000	0.022	0.261
-97.859	95.246	0.032	-0.036
-96.845	-200.000	-0.005	0.439
-95.830	-4.436	0.075	0.051
-94.816	34.482	-0.264	-0.226
-93.801	150.153	0.110	-0.147
-92.786	44.775	-0.245	0.221
-91.772	-64.013	0.147	-0.059
-90.757	367.384	0.102	0.203
-89.743	-137.713	-0.226	-0.025
-88.728	-25.872	0.229	-0.132
-87.713	-200.000	-0.018	0.086
-86.699	661.695	0.083	-0.209
-85.684	-121.347	0.140	-0.023
-84.670	-179.278	-0.273	0.006
-83.655	703.172	0.058	0.151
-82.640	-60.500	-0.228	-0.095
-81.626	-41.428	-0.206	-0.104
-80.611	389.387	0.097	-0.197
-79.597	403.021	-0.030	0.061
-78.582	-118.071	0.188	0.033
-77.567	-90.718	0.195	-0.055
-76.553	-200.000	0.031	-0.148
-75.538	128.609	-0.190	0.237
-74.524	-200.000	0.029	0.143
-73.509	6.662	0.398	0.290
-72.494	-60.741	0.180	0.075
-71.480	-0.254	-0.070	-0.049
-70.465	800.000	0.027	-0.097
-69.451	-24.808	-0.341	-0.199
-68.436	87.595	0.173	0.188
-67.422	-157.737	-0.247	-0.014
-66.407	-200.000	0.010	0.096
-65.392	323.711	0.101	0.188
-64.378	384.846	0.102	-0.207
-63.363	284.240	-0.077	-0.136
-62.349	-200.000	-0.014	0.450
-61.334	-14.517	-1.423	-0.896
-60.319	94.360	0.631	0.702
-59.305	564.053	-0.514	-1.219
-58.290	58.908	0.889	0.856
-57.276	301.231	0.620	1.121
-56.261	-200.000	111.685	651.995
-55.246	493.436	1485.552	3336.869
-54.232	151.243	2643.740	3523.541
-53.217	107.691	2136.690	2491.235
-52.203	39.563	1595.360	1400.340
-51.188	31.323	1344.719	1130.683
-50.173	28.560	1306.142	1081.930
-49.159	57.026	1361.823	1299.851
-48.144	55.930	1376.742	1307.480
-47.130	31.771	1332.918	1123.267
-46.115	28.334	1315.177	1087.900
-45.100	28.083	1310.617	1082.601
-44.086	28.010	1308.109	1080.054
-43.071	27.948	1306.090	1077.977
-42.057	27.909	1303.730	1075.757
-41.042	27.902	1302.407	1074.580
-40.027	28.053	1300.533	1073.880
-39.013	27.992	1298.552	1071.846
-37.998	28.052	1296.515	1070.471
-36.984	28.127	1294.983	1069.604
-35.969	28.118	1293.272	1068.095
-34.954	28.077	1291.737	1066.541
-33.940	28.125	1290.612	1065.855
-32.925	28.161	1289.189	1064.847
-31.911	28.219	1287.502	1063.745
-30.896	28.171	1286.271	1062.407
-29.881	28.227	1285.248	1061.848
-28.867	28.232	1283.508	1060.398
-27.852	28.285	1281.898	1059.330
-26.838	28.167	1280.957	1057.831
-25.823	28.195	1279.519	1056.762
-24.809	28.267	1277.982	1055.861
-23.794	28.202	1276.798	1054.472
-22.779	28.139	1275.443	1052.946
-21.765	28.093	1274.285	1051.682
-20.750	28.176	1272.479	1050.628
-19.736	28.216	1271.196	1049.758
-18.721	28.087	1270.066	1048.044
-17.706	28.071	1269.588	1047.517
-16.692	28.131	1267.979	1046.489
-15.677	28.125	1267.247	1045.810
-14.663	28.066	1265.984	1044.390
-13.648	28.104	1264.718	1043.519
-12.633	28.184	1263.488	1042.920
-11.619	28.106	1262.837	1041.898
-10.604	28.089	1261.954	1041.029
-9.590	28.140	1260.816	1040.341
-8.575	28.019	1260.179	1039.083
-7.560	27.943	1259.545	1038.090
-6.546	28.056	1258.692	1037.985
-5.531	28.121	1257.978	1037.724
-4.517	28.058	1256.905	1036.440
-3.502	28.056	1256.249	1035.847
-2.487	27.952	1255.539	1034.635
-1.473	27.967	1251.514	1031.359
-0.458	26.460	1235.540	1009.750
0.556	21.228	1219.126	971.572
1.571	17.498	1224.901	955.203
2.586	16.626	1238.770	960.983
3.600	16.606	1227.962	952.397
4.615	14.801	1161.258	890.967
5.629	11.165	1093.959	820.966
6.644	9.406	1076.901	799.362
7.659	9.198	1074.618	796.566
8.673	9.181	1073.323	795.448
9.688	9.015	1072.428	793.895
10.702	9.332	1070.457	793.929
11.717	11.574	1072.385	806.369
12.731	15.186	1077.833	828.280
13.746	17.437	1079.886	840.921
14.761	17.353	1079.778	840.345
15.775	16.419	1077.785	834.113
16.790	15.396	1075.441	827.185
17.804	14.576	1073.917	821.900
18.819	14.289	1072.768	819.538
19.834	14.036	1071.423	817.192
20.848	13.792	1071.091	815.666
21.863	13.493	1069.937	813.248
22.877	13.430	1069.617	812.622
23.892	13.402	1068.600	811.644
24.907	13.479	1067.427	811.057
25.921	13.303	1066.903	809.724
26.936	13.465	1065.322	809.244
27.950	13.534	1064.185	808.645
28.965	13.553	1062.640	807.495
29.980	13.662	1061.120	806.796
30.994	13.654	1060.023	805.852
32.009	13.601	1058.864	804.642
33.023	13.712	1057.767	804.275
34.038	13.611	1057.119	803.222
35.053	13.599	1056.127	802.342
36.067	13.489	1055.477	801.243
37.082	13.544	1054.652	800.815
38.096	13.673	1053.885	800.781
39.111	13.608	1052.740	799.530
40.126	13.443	1052.175	798.234
41.140	13.329	1050.388	796.257
42.155	13.301	1049.195	795.148
43.169	13.283	1048.005	794.089
44.184	13.294	1047.196	793.457
45.199	13.429	1045.857	793.024
46.213	13.500	1044.395	792.181
47.228	13.407	1044.307	791.602
48.242	13.574	1042.686	791.099
49.257	13.476	1041.896	789.960
50.271	13.616	1040.973	789.860
51.286	13.499	1040.514	788.884
52.301	13.638	1039.023	788.346
53.315	13.534	1037.685	786.765
54.330	13.400	1037.014	785.550
55.344	13.450	1036.175	785.082
56.359	13.454	1034.890	784.060
57.374	13.423	1034.324	783.412
58.388	13.326	1033.175	782.017
59.403	13.348	1032.531	781.564
60.417	13.392	1032.005	781.304
61.432	13.162	1031.690	779.912
62.447	13.343	1030.334	779.672
63.461	13.243	1029.252	778.312
64.476	13.347	1028.518	778.177
65.490	13.279	1027.874	777.303
66.505	13.284	1027.048	776.634
67.520	13.330	1026.168	776.116
68.534	13.342	1025.775	775.802
69.549	13.357	1024.814	775.076
70.563	13.180	1023.521	773.205
71.578	13.175	1022.912	772.654
72.593	13.257	1021.947	772.237
73.607	13.228	1021.815	771.934
74.622	13.208	1020.784	770.996
75.636	13.227	1020.147	770.534
76.651	13.134	1019.792	769.764
77.666	13.236	1018.858	769.463
78.680	13.298	1017.969	769.012
79.695	13.209	1017.542	768.208
80.709	13.463	1016.414	768.469
81.724	13.293	1016.271	767.503
82.739	13.464	1015.421	767.587
83.753	13.500	1014.583	767.053
84.768	13.550	1013.947	766.734
85.782	13.614	1013.201	766.402
86.797	13.589	1011.920	765.245
87.812	13.486	1010.855	763.899
88.826	13.557	1009.933	763.462
89.841	13.602	1009.362	763.171
90.855	13.607	1008.141	762.201
91.870	13.652	1007.412	761.791
92.884	13.636	1006.813	761.198
93.899	13.726	1005.927	760.874
94.914	13.772	1004.831	760.188
95.928	13.655	1004.141	759.062
96.943	13.631	1003.314	758.259
97.957	13.569	1002.546	757.330
98.972	13.671	1001.318	756.802
99.987	13.654	1000.571	756.090
101.001	13.593	999.968	755.292
102.016	13.613	998.787	754.424
103.030	13.708	998.354	754.461
104.045	13.515	997.723	753.039
105.060	13.516	996.512	752.061
106.074	13.522	995.460	751.231
107.089	13.390	994.625	749.933
108.103	13.386	993.867	749.281
109.118	13.424	992.602	748.432
110.133	13.390	991.977	747.740
111.147	13.409	991.036	747.051
112.162	13.479	989.959	746.487
113.176	13.515	989.211	746.018
114.191	13.556	988.647	745.712
115.206	13.561	987.920	745.121
116.220	13.595	987.005	744.519
117.235	13.504	985.998	743.285
118.249	13.546	985.031	742.679
119.264	13.556	984.225	742.048
120.279	13.480	983.844	741.357
121.293	13.530	982.460	740.471
122.308	13.425	982.005	739.596
123.322	13.432	981.031	738.825
124.337	13.329	980.135	737.627
125.352	13.420	978.771	736.939
126.366	13.360	977.732	735.826
127.381	13.400	976.717	735.175
128.395	13.392	976.288	734.752
129.410	13.595	975.061	734.662
130.424	13.486	974.200	733.466
131.439	13.462	973.587	732.834
132.454	13.618	972.360	732.537
133.468	13.594	971.976	732.073
134.483	13.577	970.900	731.126
135.497	13.533	970.162	730.312
136.512	13.534	969.394	729.674
137.527	13.536	968.644	729.050
138.541	13.509	967.884	728.295
139.556	13.546	967.075	727.786
140.570	13.632	966.491	727.661
141.585	13.769	965.552	727.489
142.600	13.731	964.309	726.321
143.614	13.791	964.071	726.343
144.629	13.751	963.609	725.753
145.643	13.720	962.366	724.615
146.658	13.760	961.147	723.808
147.673	13.764	960.146	723.008
148.687	13.608	959.837	722.032
149.702	13.640	958.713	721.262
150.716	13.645	957.810	720.543
151.731	13.609	957.135	719.815
152.746	13.621	956.827	719.569
153.760	13.691	955.898	719.113
154.775	13.753	955.323	718.885
155.789	13.735	954.850	718.385
156.804	13.806	953.856	717.882
157.819	13.747	953.473	717.278
158.833	13.901	952.631	717.245
159.848	13.928	952.096	716.896
160.862	13.941	950.832	715.937
161.877	13.815	949.861	714.600
162.892	13.833	948.618	713.676
163.906	13.715	948.168	712.770
164.921	13.746	947.069	712.011
165.935	13.779	946.213	711.445
166.950	13.790	945.499	710.893
167.964	13.777	945.061	710.446
168.979	13.869	943.691	709.747
169.994	13.810	943.019	708.929
171.008	13.858	942.418	708.617
172.023	13.889	941.839	708.254
173.037	13.861	940.777	707.271
174.052	13.823	940.550	706.877
175.067	13.823	939.449	705.985
176.081	13.856	939.092	705.796
177.096	13.763	938.442	704.850
178.110	13.940	937.496	704.828
179.125	13.861	937.090	704.123
180.140	13.721	937.063	703.449
181.154	13.815	936.454	703.329
182.169	13.923	935.726	703.176
183.183	14.085	935.495	703.627
184.198	13.989	934.294	702.255
185.213	14.069	933.548	701.971
186.227	14.157	932.558	701.534
187.242	14.143	932.180	701.130
188.256	14.210	931.565	700.887
189.271	14.064	931.408	700.089
190.286	13.905	930.466	698.653
191.300	13.882	929.643	697.875
192.315	13.917	928.634	697.205
193.329	13.797	928.370	696.441
194.344	13.914	927.765	696.416
195.359	14.097	926.788	696.386
196.373	14.253	926.327	696.634
197.388	14.212	926.002	696.153
198.402	14.318	925.258	695.977
199.417	14.316	925.057	695.755
200.432	14.412	924.492	695.671
201.446	14.376	924.167	695.214
202.461	14.487	923.435	695.063
203.475	14.453	922.591	694.224
204.490	14.318	921.908	693.087
205.504	14.303	921.137	692.386
206.519	14.286	920.539	691.803
207.534	14.153	919.812	690.646
208.548	14.219	919.335	690.500
209.563	14.297	918.444	690.090
210.577	14.344	917.661	689.635
211.592	14.523	917.001	689.822
212.607	14.453	916.570	689.144
213.621	14.390	915.640	688.125
214.636	14.529	914.736	687.958
215.650	14.480	914.256	687.336
216.665	14.612	913.331	687.121
217.680	14.614	912.511	686.452
218.694	14.662	912.229	686.374
219.709	14.533	911.496	685.235
220.723	14.533	910.963	684.773
221.738	14.626	909.930	684.319
222.753	14.592	909.335	683.671
223.767	14.624	909.250	683.678
224.782	14.665	908.607	683.300
225.796	14.799	907.470	682.934
226.811	14.633	907.306	682.072
227.826	14.584	906.720	681.371
228.840	14.730	905.663	681.111
229.855	14.762	904.570	680.357
230.869	14.602	904.130	679.316
231.884	14.637	903.676	679.058
232.899	14.515	902.544	677.653
233.913	14.527	902.026	677.251
234.928	14.643	901.365	677.164
235.942	14.620	901.187	676.877
236.957	14.490	900.903	676.080
237.972	14.668	899.454	675.650
238.986	14.554	899.187	674.929
240.001	14.760	898.046	674.847
241.015	14.668	897.865	674.277
242.030	14.789	896.957	674.025
243.045	14.688	896.768	673.416
244.059	14.744	895.967	672.982
245.074	14.856	895.148	672.755
246.088	14.840	894.589	672.213
247.103	14.835	893.943	671.647
248.117	14.934	894.040	672.058
249.132	14.945	893.089	671.328
250.147	15.061	892.559	671.336
251.161	15.087	891.621	670.675
252.176	15.178	891.132	670.614
253.190	15.280	890.211	670.270
254.205	15.314	889.595	669.881
255.220	15.253	889.186	669.271
256.234	15.307	888.668	669.037
257.249	15.248	888.069	668.292
258.263	15.183	887.243	667.352
259.278	15.124	886.695	666.644
260.293	15.330	885.710	666.666
261.307	15.312	885.455	666.342
262.322	15.434	884.617	666.136
263.336	15.382	883.863	665.305
264.351	15.549	883.183	665.393
265.366	15.415	882.632	664.391
266.380	15.337	882.039	663.578
267.395	15.497	881.552	663.783
268.409	15.339	880.799	662.536
269.424	15.364	879.819	661.839
270.439	15.311	879.208	661.111
271.453	15.356	878.226	660.492
272.468	15.507	878.014	660.866
273.482	15.598	876.971	660.379
274.497	15.427	876.668	659.422
275.512	15.589	875.539	659.151
276.526	15.491	875.648	658.791
277.541	15.505	875.363	658.572
278.555	15.493	874.528	657.838
279.570	15.684	873.809	657.987
280.585	15.581	872.982	656.903
281.599	15.607	872.411	656.518
282.614	15.569	871.693	655.772
283.628	15.612	871.308	655.590
284.643	15.411	871.341	654.771
285.657	15.661	870.117	654.771
286.672	15.547	869.108	653.510
287.687	15.662	868.780	653.650
288.701	15.502	868.366	652.658
289.716	15.666	867.495	652.585
290.730	15.660	866.925	652.076
291.745	15.807	866.029	651.912
292.760	15.789	865.921	651.703
293.774	15.954	865.147	651.701
294.789	15.818	864.657	650.751
295.803	15.650	864.070	649.599
296.818	15.746	863.176	649.243
297.833	15.678	862.863	648.687
298.847	15.819	862.016	648.534
299.862	15.763	861.553	647.914
300.876	15.879	861.202	648.041
301.891	15.903	860.358	647.440
302.906	16.059	859.649	647.447
303.920	16.000	859.452	647.015
304.935	15.836	859.307	646.219
305.949	16.091	858.138	646.262
306.964	16.104	857.417	645.713
307.979	16.062	857.077	645.237
308.993	16.044	856.450	644.638
310.008	16.150	855.702	644.423
311.022	16.026	855.456	643.708
312.037	15.974	854.843	642.990
313.052	15.981	854.039	642.357
314.066	15.827	853.550	641.343
315.081	15.953	853.267	641.555
316.095	15.813	852.646	640.499
317.110	15.998	851.951	640.624
318.125	15.833	851.558	639.642
319.139	16.039	850.885	639.863
320.154	15.944	850.397	639.080
321.168	15.951	849.752	638.566
322.183	16.058	848.873	638.253
323.197	16.160	848.704	638.455
324.212	16.003	848.229	637.447
325.227	16.033	847.792	637.175
326.241	16.015	846.988	636.447
327.256	16.158	846.592	636.635
328.270	16.090	845.576	635.557
329.285	16.017	845.609	635.250
330.300	16.073	844.993	634.942
331.314	16.191	844.321	634.824
332.329	16.169	843.983	634.434
333.343	16.279	843.309	634.285
334.358	16.467	842.443	634.283
335.373	16.224	842.579	633.416
336.387	16.288	842.216	633.328
337.402	16.192	842.029	632.769
338.416	16.476	841.652	633.497
339.431	16.418	841.381	633.016
340.446	16.512	840.718	632.816
341.460	16.459	840.838	632.649
342.475	16.368	840.596	632.074
343.489	16.465	839.697	631.702
344.504	16.632	839.230	631.918
345.519	16.643	838.482	631.339
346.533	16.483	838.365	630.601
347.548	16.549	837.482	630.127
348.562	16.488	836.552	629.143
349.577	16.476	836.553	629.044
350.592	16.452	835.405	628.038
351.606	16.480	835.114	627.867
352.621	16.514	834.390	627.391
353.635	16.386	834.292	626.789
354.650	16.547	833.049	626.393
355.665	16.364	832.937	625.579
356.679	16.613	831.879	625.650
357.694	16.469	831.855	625.042
358.708	16.638	830.793	624.813
359.723	16.710	830.180	624.563
360.738	16.758	829.437	624.124
361.752	16.843	829.063	624.103
362.767	16.729	828.605	623.283
363.781	16.674	828.543	622.978
364.796	16.778	827.793	622.743
365.810	16.878	827.329	622.705
366.825	16.988	826.820	622.669
367.840	16.978	826.473	622.318
368.854	17.028	825.643	621.821
369.869	17.011	825.489	621.589
370.883	16.991	824.890	621.008
371.898	17.100	824.211	620.841
372.913	17.046	823.941	620.385
373.927	16.940	823.525	619.631
374.942	17.048	823.103	619.650
375.956	17.057	823.054	619.591
376.971	17.027	822.471	618.989
377.986	17.135	822.033	618.999
379.000	17.055	821.206	618.029
380.015	17.041	821.091	617.838
381.029	17.191	820.181	617.642
382.044	17.263	819.766	617.538
383.059	17.293	819.075	617.071
384.073	17.216	818.582	616.367
385.088	17.146	818.167	615.745
386.102	17.158	817.792	615.453
387.117	17.095	817.068	614.625
388.132	17.176	816.475	614.417
389.146	17.211	815.486	613.747
390.161	17.137	815.483	613.422
391.175	17.347	814.885	613.677
392.190	17.239	814.403	612.868
393.205	17.023	814.260	611.929
394.219	17.247	813.536	612.136
395.234	17.163	813.152	611.490
396.248	17.177	812.294	610.840
397.263	17.127	812.421	610.705
398.278	17.181	811.826	610.397
399.292	17.202	811.340	610.053
400.307	17.122	811.028	609.478
401.321	17.259	810.381	609.429
402.336	17.238	809.794	608.859
403.350	17.226	809.373	608.444
404.365	17.369	809.291	608.839
405.380	17.408	808.794	608.550
406.394	17.425	808.045	607.995
407.409	17.509	807.396	607.754
408.423	17.544	807.351	607.789
409.438	17.649	806.919	607.786
410.453	17.551	806.187	606.832
411.467	17.646	806.002	606.977
412.482	17.647	805.556	606.592
413.496	17.645	805.464	606.462
414.511	17.876	805.120	606.971
415.526	17.602	804.543	605.509
416.540	17.632	803.993	605.146
417.555	17.702	803.314	604.828
418.569	17.717	803.092	604.661
419.584	17.784	802.503	604.402
420.599	17.724	802.447	604.096
421.613	111.110	1295.030	1475.664
422.628	95.751	1366.779	1475.764
