DTS Sentinel unit serial number:	SN413079Multiplexer serial number:	ORYXHardware model number:	OX4-SRSoftware version number:	ORYX F/W v4.00 Oryx Data Collector v3.7.2.0data status	okinstallation	princeton_trtdifferential loss correction	single-endedforward channel	channel 1reverse channel	N/Adate	2019/09/14time	21:10:35forward acquisition time	60.00reverse acquisition time	0.00gamma	496.2192k internal	0.2318k external	0.2318temperature offset calibration	1.0008default loss term (dB/km)	0.3790temperature slope calibration	1.0000multiplexer offset coefficient	1.0000multiplexer slope coefficient	1.0000fibre end	0.00T internal ref (°C)	33.06T ext. ref 1 (°C)	4.74T ext. ref 2 (°C)	27.80length (m)	temperature (°C)	Stokes	anti-Stokes-747.200	138.207	-0.202	-0.268
-746.185	-48.570	-0.272	0.133
-745.171	-200.000	0.027	-0.227
-744.156	20.322	0.372	0.304
-743.142	-89.821	-0.251	0.074
-742.127	-161.105	-0.205	0.011
-741.112	800.000	0.058	0.244
-740.098	74.930	-0.186	0.198
-739.083	5.054	-0.109	-0.081
-738.069	155.922	0.086	-0.120
-737.054	-200.000	-0.022	0.178
-736.039	-158.404	-0.245	-0.014
-735.025	-75.213	0.398	0.144
-734.010	225.860	0.080	-0.131
-732.996	-94.474	-0.103	0.029
-731.981	-83.975	-0.052	-0.017
-730.966	363.516	-0.112	0.227
-729.952	800.000	-0.059	-0.169
-728.937	800.000	0.086	-0.312
-727.923	800.000	-0.037	-0.108
-726.908	-24.536	-0.352	0.212
-725.894	-76.033	-0.396	0.142
-724.879	-96.194	-0.491	0.132
-723.864	43.250	0.190	0.176
-722.850	-113.344	-0.316	0.063
-721.835	-16.612	-0.376	0.240
-720.821	-200.000	-0.003	0.152
-719.806	-94.886	-0.232	-0.064
-718.791	-134.430	0.082	-0.010
-717.777	-78.413	-0.268	-0.093
-716.762	-24.805	-0.375	-0.225
-715.748	32.238	-0.131	0.114
-714.733	800.000	0.031	-0.123
-713.718	-48.458	-0.181	0.088
-712.704	-114.961	0.140	-0.027
-711.689	688.183	0.087	0.231
-710.675	53.477	0.230	-0.223
-709.660	-162.228	0.168	0.008
-708.645	467.735	-0.086	0.194
-707.631	402.221	0.145	-0.308
-706.616	-200.000	-0.001	0.212
-705.602	-200.000	0.002	-0.041
-704.587	658.506	-0.124	0.321
-703.572	37.391	-0.220	0.197
-702.558	-68.348	-0.176	0.069
-701.543	800.000	-0.090	-0.268
-700.529	486.356	0.141	0.325
-699.514	-123.272	0.122	0.020
-698.499	800.000	0.077	0.249
-697.485	-200.000	0.006	-0.042
-696.470	38.789	0.387	-0.349
-695.456	-127.911	0.163	0.024
-694.441	-63.689	0.152	0.063
-693.426	-66.691	-0.144	-0.058
-692.412	-17.957	0.302	0.191
-691.397	68.646	-0.186	0.192
-690.383	9.515	0.151	0.115
-689.368	500.193	-0.050	0.116
-688.354	-83.900	0.120	-0.039
-687.339	-99.551	-0.219	-0.056
-686.324	96.960	0.108	0.126
-685.310	-59.416	0.222	0.096
-684.295	-200.000	-0.081	-0.370
-683.281	-78.161	-0.141	-0.049
-682.266	90.004	0.077	-0.087
-681.251	-28.342	-0.071	-0.041
-680.237	139.195	0.072	0.095
-679.222	94.797	-0.099	-0.114
-678.208	-200.000	-0.031	-0.274
-677.193	1.071	0.027	-0.019
-676.178	318.980	0.101	-0.194
-675.164	-200.000	-0.029	0.195
-674.149	-80.489	0.344	0.116
-673.135	400.227	0.115	-0.243
-672.120	-164.557	0.057	-0.003
-671.105	65.027	-0.175	-0.179
-670.091	490.867	-0.100	-0.232
-669.076	390.928	0.124	-0.260
-668.062	39.179	0.286	-0.258
-667.047	-98.884	0.337	0.086
-666.032	91.606	0.306	0.348
-665.018	-17.465	-0.193	-0.123
-664.003	590.056	-0.108	0.268
-662.989	-34.901	-0.083	-0.046
-661.974	50.363	0.056	0.054
-660.959	123.174	-0.103	-0.130
-659.945	101.007	0.169	-0.199
-658.930	-200.000	0.041	-0.198
-657.916	-200.000	0.010	0.090
-656.901	250.059	-0.095	0.162
-655.886	81.173	-0.058	0.064
-654.872	800.000	-0.122	0.355
-653.857	-200.000	-0.100	0.468
-652.843	79.298	-0.125	0.135
-651.828	-94.981	0.100	0.027
-650.814	-39.230	0.136	-0.072
-649.799	68.476	-0.198	0.204
-648.784	167.335	-0.112	0.160
-647.770	7.584	-0.080	-0.060
-646.755	-98.196	-0.427	0.111
-645.741	122.313	-0.108	0.136
-644.726	14.973	-0.430	-0.340
-643.711	179.911	0.275	-0.406
-642.697	450.315	-0.044	-0.099
-641.682	800.000	0.025	0.085
-640.668	140.268	0.299	0.398
-639.653	-137.538	-0.519	-0.059
-638.638	-3.228	-0.314	-0.221
-637.624	-109.130	-0.244	0.052
-636.609	222.893	0.101	0.164
-635.595	37.328	-0.154	0.138
-634.580	259.909	-0.087	0.152
-633.565	32.866	-0.235	0.205
-632.551	567.151	0.019	-0.047
-631.536	-42.131	-0.161	-0.083
-630.522	12.271	-0.248	0.192
-629.507	-200.000	0.004	-0.234
-628.492	266.594	-0.155	0.273
-627.478	25.611	-0.059	-0.050
-626.463	193.588	-0.014	-0.021
-625.449	-16.511	-0.515	-0.329
-624.434	-68.996	0.198	-0.077
-623.419	-135.320	-0.161	-0.019
-622.405	800.000	0.013	0.053
-621.390	-66.502	0.149	0.060
-620.376	25.676	-0.148	-0.124
-619.361	800.000	0.010	-0.041
-618.346	-118.703	0.337	-0.060
-617.332	120.965	-0.229	0.287
-616.317	-102.254	-0.213	-0.052
-615.303	-66.817	0.098	0.039
-614.288	168.672	-0.097	-0.139
-613.273	103.543	0.185	-0.219
-612.259	446.240	0.144	-0.319
-611.244	105.112	-0.201	-0.239
-610.230	636.698	-0.075	0.191
-609.215	29.590	0.320	0.275
-608.201	169.893	-0.117	-0.168
-607.186	134.394	0.062	0.081
-606.171	-125.577	-0.198	-0.030
-605.157	-181.566	0.412	0.008
-604.142	140.503	-0.190	-0.253
-603.128	-82.099	-0.234	-0.077
-602.113	-200.000	0.010	-0.084
-601.098	471.908	0.077	-0.175
-600.084	241.756	-0.182	-0.306
-599.069	-60.251	0.171	-0.073
-598.055	800.000	-0.025	-0.097
-597.040	-18.518	-0.342	-0.215
-596.025	800.000	-0.075	-0.288
-595.011	29.534	-0.140	-0.120
-593.996	800.000	0.067	-0.252
-592.982	-200.000	-0.018	-0.338
-591.967	-159.110	0.355	-0.020
-590.952	-200.000	-0.031	0.215
-589.938	-124.268	-0.264	0.042
-588.923	-37.276	-0.093	0.050
-587.909	-105.193	0.298	-0.068
-586.894	543.536	0.142	-0.341
-585.879	84.989	0.232	-0.256
-584.865	-13.289	-0.269	0.176
-583.850	102.711	0.066	0.078
-582.836	336.860	-0.145	0.283
-581.821	231.220	-0.238	0.392
-580.806	-153.869	0.122	-0.008
-579.792	389.642	-0.134	-0.280
-578.777	391.024	0.037	-0.078
-577.763	74.912	0.182	-0.193
-576.748	-73.429	-0.373	-0.137
-575.733	479.201	-0.124	-0.284
-574.719	-136.519	-0.226	0.026
-573.704	242.174	0.168	-0.283
-572.690	66.841	0.187	-0.192
-571.675	-200.000	0.017	0.241
-570.661	92.452	0.170	-0.192
-569.646	354.312	0.024	0.049
-568.631	61.309	0.097	0.097
-567.617	-99.650	-0.194	-0.049
-566.602	-45.528	0.015	-0.007
-565.588	114.618	-0.087	0.107
-564.573	-36.756	0.149	0.080
-563.558	800.000	-0.016	-0.056
-562.544	-89.083	0.381	-0.113
-561.529	39.744	-0.253	-0.229
-560.515	95.095	0.053	0.060
-559.500	39.156	0.279	0.251
-558.485	16.029	-0.134	-0.106
-557.471	-39.436	-0.363	-0.191
-556.456	-200.000	0.026	-0.208
-555.442	-62.820	0.287	-0.119
-554.427	24.074	-0.054	-0.045
-553.412	89.062	0.137	-0.153
-552.398	71.935	-0.028	-0.030
-551.383	525.962	-0.024	-0.056
-550.369	17.646	-0.090	0.072
-549.354	-24.128	-0.286	0.172
-548.339	-35.117	-0.244	-0.133
-547.325	800.000	0.056	0.187
-546.310	10.155	-0.166	0.127
-545.296	739.105	-0.046	-0.124
-544.281	112.141	-0.243	-0.295
-543.266	-44.352	0.196	0.099
-542.252	17.233	0.233	0.185
-541.237	-154.797	-0.217	0.014
-540.223	-200.000	0.037	0.266
-539.208	-127.240	-0.023	-0.003
-538.193	44.065	-0.261	0.241
-537.179	289.207	-0.121	0.220
-536.164	-9.949	0.209	-0.139
-535.150	-200.000	-0.016	0.093
-534.135	-200.000	-0.002	-0.074
-533.121	-200.000	-0.000	0.200
-532.106	-49.207	-0.375	0.180
-531.091	-158.251	0.169	-0.010
-530.077	113.479	-0.049	-0.060
-529.062	28.110	0.151	-0.128
-528.048	-127.709	-0.116	-0.017
-527.033	-32.627	0.483	-0.270
-526.018	161.538	-0.088	0.124
-525.004	120.725	-0.093	-0.116
-523.989	800.000	-0.048	0.201
-522.975	-90.261	0.160	0.047
-521.960	-200.000	0.018	0.182
-520.945	-76.778	0.080	0.028
-519.931	63.529	-0.153	0.154
-518.916	582.536	0.073	-0.180
-517.902	-36.371	0.195	0.105
-516.887	52.323	-0.164	0.157
-515.872	-34.793	-0.076	0.042
-514.858	65.880	-0.099	0.101
-513.843	-140.132	0.432	-0.046
-512.829	-61.692	-0.125	-0.053
-511.814	-190.069	-0.255	0.003
-510.799	-189.539	-0.011	-0.000
-509.785	-118.807	0.271	-0.048
-508.770	-200.000	0.021	-0.155
-507.756	-20.527	-0.232	0.143
-506.741	116.350	-0.059	0.072
-505.726	-45.540	-0.234	0.116
-504.712	-86.342	-0.118	-0.036
-503.697	-69.751	-0.098	0.038
-502.683	176.120	-0.167	-0.244
-501.668	786.285	0.043	0.118
-500.653	19.415	-0.137	-0.111
-499.639	-200.000	0.015	-0.134
-498.624	660.106	0.143	-0.369
-497.610	86.509	0.111	-0.123
-496.595	255.778	0.116	0.200
-495.581	-146.482	-0.198	-0.017
-494.566	389.741	-0.198	-0.411
-493.551	15.160	-0.101	0.079
-492.537	-200.000	-0.005	0.445
-491.522	-6.618	0.073	-0.050
-490.508	-200.000	-0.007	0.106
-489.493	-92.225	0.186	-0.053
-488.478	-200.000	-0.014	0.200
-487.464	-168.177	0.255	-0.010
-486.449	-200.000	-0.014	-0.170
-485.435	-44.005	-0.238	-0.120
-484.420	-134.297	0.106	-0.013
-483.405	-109.071	-0.101	-0.022
-482.391	-100.290	0.168	0.042
-481.376	-200.000	-0.005	-0.280
-480.362	190.220	0.134	-0.202
-479.347	109.493	0.123	-0.148
-478.332	125.846	-0.114	-0.144
-477.318	495.918	-0.114	-0.263
-476.303	-200.000	-0.043	0.320
-475.289	43.707	-0.124	0.114
-474.274	800.000	-0.072	-0.287
-473.259	93.298	0.163	0.185
-472.245	-138.707	-0.084	0.009
-471.230	-46.121	0.190	0.094
-470.216	-126.145	0.225	-0.034
-469.201	-125.430	0.316	0.048
-468.186	181.196	-0.167	0.245
-467.172	104.263	-0.053	-0.062
-466.157	401.618	0.251	-0.529
-465.143	93.046	0.189	-0.214
-464.128	800.000	0.034	-0.130
-463.113	-173.159	0.110	-0.003
-462.099	-93.380	-0.419	0.116
-461.084	-36.653	-0.293	-0.158
-460.070	42.698	0.049	0.045
-459.055	-133.726	0.091	0.011
-458.040	176.513	0.051	-0.074
-457.026	218.672	0.115	0.183
-456.011	-116.709	-0.238	-0.044
-454.997	-75.371	-0.256	-0.091
-453.982	-49.684	-0.072	0.034
-452.968	110.191	-0.136	0.163
-451.953	-41.259	0.396	0.204
-450.938	-101.339	-0.292	-0.071
-449.924	543.213	0.058	0.139
-448.909	-145.586	0.094	-0.008
-447.895	-200.000	0.049	-0.217
-446.880	-200.000	0.009	-0.058
-445.865	-200.000	0.014	0.154
-444.851	-200.000	-0.001	0.030
-443.836	800.000	-0.071	0.198
-442.822	-200.000	-0.006	-0.040
-441.807	800.000	0.054	-0.194
-440.792	113.203	-0.400	-0.485
-439.778	-200.000	-0.008	0.137
-438.763	-16.447	0.118	-0.075
-437.749	-35.602	-0.239	-0.129
-436.734	72.153	0.102	0.106
-435.719	800.000	-0.070	-0.195
-434.705	-73.839	0.336	-0.122
-433.690	-30.912	-0.130	0.073
-432.676	-4.942	0.104	-0.071
-431.661	-64.207	-0.176	-0.072
-430.646	200.401	0.145	0.222
-429.632	121.945	-0.052	-0.065
-428.617	-158.225	-0.296	0.017
-427.603	114.043	-0.156	0.190
-426.588	69.668	0.241	-0.248
-425.573	-200.000	-0.001	0.163
-424.559	-109.466	-0.332	0.070
-423.544	-147.741	0.111	-0.009
-422.530	800.000	0.045	0.135
-421.515	-71.591	-0.107	0.040
-420.500	-200.000	0.018	0.088
-419.486	-200.000	-0.050	-0.239
-418.471	-38.373	0.186	-0.098
-417.457	110.867	0.168	-0.202
-416.442	-28.438	0.308	-0.177
-415.428	-200.000	0.024	0.318
-414.413	420.211	-0.083	-0.178
-413.398	-147.705	0.292	0.025
-412.384	-200.000	-0.020	-0.271
-411.369	-46.500	-0.354	0.173
-410.355	-113.699	0.134	-0.026
-409.340	105.327	0.166	-0.195
-408.325	-175.024	-0.177	0.005
-407.311	-5.285	0.187	-0.128
-406.296	-48.296	0.483	-0.233
-405.282	-123.099	-0.123	-0.020
-404.267	-147.513	0.369	-0.031
-403.252	-89.836	-0.275	0.080
-402.238	11.964	0.266	0.204
-401.223	51.523	0.071	-0.068
-400.209	-74.649	0.298	0.107
-399.194	-0.932	0.134	0.095
-398.179	164.432	-0.034	-0.047
-397.165	-82.848	0.105	0.034
-396.150	232.301	-0.113	0.185
-395.136	286.126	-0.175	0.316
-394.121	-200.000	-0.013	0.275
-393.106	-161.313	0.227	0.012
-392.092	21.896	0.277	0.226
-391.077	800.000	0.053	0.223
-390.063	-43.322	-0.097	0.049
-389.048	-40.477	0.170	0.088
-388.033	102.537	-0.091	0.107
-387.019	278.425	0.159	-0.283
-386.004	-200.000	-0.006	-0.042
-384.990	324.177	-0.213	0.405
-383.975	7.950	0.224	0.168
-382.960	198.283	-0.074	0.113
-381.946	281.762	-0.191	-0.341
-380.931	-27.514	0.161	-0.093
-379.917	286.368	-0.033	0.059
-378.902	-40.376	0.105	-0.054
-377.888	-121.701	-0.087	0.014
-376.873	-200.000	-0.017	0.214
-375.858	-17.360	0.015	0.010
-374.844	7.459	-0.112	0.083
-373.829	-110.322	-0.179	-0.037
-372.815	-200.000	0.055	-0.244
-371.800	44.447	-0.101	0.092
-370.785	81.980	-0.122	-0.131
-369.771	-90.690	-0.237	-0.068
-368.756	94.727	0.040	-0.046
-367.742	800.000	0.114	0.346
-366.727	104.425	-0.240	0.282
-365.712	79.512	0.161	-0.172
-364.698	-200.000	0.002	0.286
-363.683	-200.000	-0.011	0.157
-362.669	-66.860	-0.145	-0.057
-361.654	-105.232	0.046	-0.010
-360.639	-200.000	-0.050	0.400
-359.625	-127.116	0.399	0.058
-358.610	800.000	0.048	-0.160
-357.596	558.831	0.057	0.137
-356.581	800.000	-0.120	0.378
-355.566	-200.000	0.040	0.238
-354.552	-69.777	0.240	0.091
-353.537	56.555	0.212	-0.205
-352.523	-90.978	0.180	0.052
-351.508	-116.311	-0.371	-0.068
-350.493	-142.671	0.056	-0.005
-349.479	190.049	0.210	0.314
-348.464	-60.527	0.220	0.093
-347.450	-92.382	-0.227	0.064
-346.435	-200.000	-0.027	0.222
-345.420	161.518	0.170	0.237
-344.406	-80.277	-0.116	-0.039
-343.391	-162.825	-0.239	0.012
-342.377	-76.799	0.318	0.111
-341.362	69.342	0.249	0.255
-340.348	29.877	-0.050	0.042
-339.333	276.606	-0.044	-0.078
-338.318	-200.000	0.006	0.117
-337.304	72.631	-0.176	-0.183
-336.289	-200.000	-0.069	0.479
-335.275	435.511	0.078	0.169
-334.260	-200.000	0.051	-0.337
-333.245	-157.073	0.246	-0.015
-332.231	-200.000	-0.038	0.220
-331.216	182.788	-0.161	0.237
-330.202	600.750	0.145	0.358
-329.187	-200.000	0.009	-0.198
-328.172	89.705	-0.321	-0.357
-327.158	257.778	-0.175	-0.301
-326.143	-200.000	-0.005	-0.332
-325.129	-139.989	0.284	0.030
-324.114	546.815	0.159	-0.379
-323.099	-80.063	-0.174	-0.058
-322.085	800.000	0.055	-0.166
-321.070	66.570	0.076	0.077
-320.056	5.958	-0.196	0.144
-319.041	800.000	-0.091	-0.364
-318.026	15.057	0.074	-0.058
-317.012	-118.191	0.197	-0.035
-315.997	-31.913	0.173	-0.097
-314.983	34.884	-0.284	0.247
-313.968	-200.000	0.004	-0.022
-312.953	13.011	-0.242	-0.187
-311.939	-166.582	-0.291	0.012
-310.924	-39.560	-0.180	0.094
-309.910	163.673	-0.118	0.165
-308.895	-95.172	0.140	0.038
-307.880	-200.000	0.038	-0.193
-306.866	509.692	0.076	-0.175
-305.851	-64.421	0.196	0.079
-304.837	19.507	0.180	0.144
-303.822	230.745	-0.071	0.116
-302.807	417.022	0.095	0.202
-301.793	766.418	-0.082	-0.222
-300.778	-200.000	-0.014	0.089
-299.764	511.031	0.061	0.140
-298.749	105.834	0.098	-0.115
-297.735	-200.000	-0.158	-0.001
-296.720	-200.000	-0.035	-0.433
-295.705	319.114	-0.077	0.145
-294.691	-30.149	-0.302	0.171
-293.676	797.320	-0.136	0.373
-292.662	-22.273	-0.034	-0.021
-291.647	-114.821	-0.261	-0.050
-290.632	-68.691	-0.167	-0.064
-289.618	-200.000	-0.037	-0.392
-288.603	6.830	0.242	-0.179
-287.589	-200.000	-0.064	-0.346
-286.574	-200.000	-0.011	0.321
-285.559	285.703	-0.080	0.143
-284.545	-200.000	-0.010	0.277
-283.530	378.341	-0.118	0.239
-282.516	-146.847	0.095	-0.008
-281.501	219.101	-0.079	0.125
-280.486	800.000	-0.057	0.165
-279.472	-103.775	0.241	0.056
-278.457	800.000	-0.107	-0.411
-277.443	-105.278	-0.189	0.043
-276.428	-78.252	-0.146	0.050
-275.413	800.000	-0.011	0.040
-274.399	34.630	0.339	0.295
-273.384	-3.504	-0.137	-0.094
-272.370	86.651	0.093	0.102
-271.355	-200.000	-0.018	0.104
-270.340	-0.270	0.151	-0.107
-269.326	-184.024	0.168	-0.003
-268.311	-115.701	0.193	-0.036
-267.297	-95.468	-0.104	-0.028
-266.282	766.125	0.027	0.074
-265.267	-200.000	-0.062	0.389
-264.253	66.911	0.158	0.160
-263.238	-200.000	0.048	0.648
-262.224	35.333	-0.166	-0.145
-261.209	-43.822	0.232	0.116
-260.195	424.691	0.031	-0.067
-259.180	-22.699	0.169	-0.101
-258.165	800.000	-0.097	0.371
-257.151	-47.941	0.072	0.035
-256.136	40.855	-0.187	0.167
-255.122	800.000	0.066	0.217
-254.107	-97.805	0.384	-0.099
-253.092	800.000	-0.038	-0.112
-252.078	-200.000	-0.019	0.215
-251.063	800.000	0.049	-0.196
-250.049	310.806	-0.116	-0.216
-249.034	-200.000	0.009	-0.110
-248.019	800.000	0.092	-0.391
-247.005	800.000	0.088	-0.329
-245.990	-169.310	-0.326	0.012
-244.976	305.883	-0.035	-0.065
-243.961	-200.000	0.020	0.173
-242.946	-65.633	-0.452	-0.180
-241.932	-5.751	-0.161	-0.109
-240.917	138.398	0.076	-0.099
-239.903	64.902	0.256	0.256
-238.888	-50.896	0.280	0.131
-237.873	80.888	-0.118	0.127
-236.859	5.515	-0.296	-0.217
-235.844	-131.747	-0.150	0.019
-234.830	282.071	0.122	-0.217
-233.815	-99.173	0.163	-0.041
-232.800	-200.000	-0.030	0.166
-231.786	70.092	0.165	-0.169
-230.771	21.400	0.017	0.014
-229.757	800.000	0.068	0.186
-228.742	259.383	-0.042	-0.071
-227.727	103.598	-0.091	0.106
-226.713	-2.545	-0.067	0.047
-225.698	-111.274	0.383	0.078
-224.684	-54.829	-0.008	0.003
-223.669	-200.000	0.031	0.209
-222.655	59.680	0.277	0.271
-221.640	-60.032	0.377	-0.160
-220.625	-83.740	-0.237	-0.075
-219.611	-50.342	0.119	0.056
-218.596	-64.624	0.370	0.149
-217.582	-135.330	-0.261	-0.031
-216.567	165.243	0.226	0.316
-215.552	74.123	-0.081	0.084
-214.538	58.166	-0.118	0.114
-213.523	-200.000	0.005	0.042
-212.509	-35.397	-0.277	-0.149
-211.494	800.000	0.020	-0.061
-210.479	49.272	0.158	-0.148
-209.465	497.633	-0.168	0.384
-208.450	-175.088	0.561	0.015
-207.436	339.461	-0.181	0.350
-206.421	196.938	-0.050	-0.075
-205.406	-85.463	0.214	-0.066
-204.392	800.000	-0.046	0.194
-203.377	800.000	-0.095	0.341
-202.363	331.156	-0.124	0.238
-201.348	-200.000	0.038	0.171
-200.333	-200.000	0.005	0.223
-199.319	138.121	-0.071	-0.093
-198.304	-156.456	-0.224	0.014
-197.290	800.000	0.038	0.114
-196.275	-121.550	0.350	-0.058
-195.260	-200.000	-0.014	-0.132
-194.246	800.000	0.010	0.031
-193.231	142.128	-0.044	-0.058
-192.217	-200.000	0.047	-0.263
-191.202	60.533	0.056	-0.055
-190.187	202.345	0.148	-0.226
-189.173	-97.527	-0.321	-0.082
-188.158	46.028	-0.207	-0.190
-187.144	339.918	0.010	0.019
-186.129	342.538	0.062	-0.120
-185.114	-77.626	0.414	-0.142
-184.100	1.953	0.203	-0.145
-183.085	337.806	0.097	0.187
-182.071	11.306	-0.133	-0.101
-181.056	95.972	0.157	-0.178
-180.042	-102.590	0.362	0.086
-179.027	310.367	-0.090	0.167
-178.012	-200.000	0.006	0.083
-176.998	800.000	-0.046	-0.126
-175.983	-41.442	0.237	-0.121
-174.969	317.393	-0.155	-0.290
-173.954	316.274	0.189	-0.353
-172.939	-103.196	0.227	-0.053
-171.925	41.697	0.131	0.118
-170.910	-2.887	0.130	-0.090
-169.896	162.739	0.088	0.122
-168.881	-125.559	0.282	0.042
-167.866	-0.254	-0.124	-0.087
-166.852	-38.247	-0.284	0.149
-165.837	-23.314	0.113	0.067
-164.823	-58.359	0.153	0.066
-163.808	-50.371	-0.110	0.052
-162.793	168.903	-0.227	-0.320
-161.779	40.582	0.231	0.206
-160.764	-200.000	0.114	-0.693
-159.750	-200.000	-0.041	0.308
-158.735	-200.000	0.021	0.256
-157.720	-126.863	0.516	0.075
-156.706	-200.000	0.011	-0.194
-155.691	-54.642	-0.105	0.047
-154.677	-36.050	-0.100	-0.053
-153.662	800.000	-0.150	-0.474
-152.647	-120.723	0.094	0.016
-151.633	48.046	0.234	0.216
-150.618	-89.406	-0.074	0.022
-149.604	85.442	-0.092	-0.100
-148.589	-68.680	-0.329	0.126
-147.574	-118.099	0.189	0.033
-146.560	-128.652	-0.206	0.029
-145.545	-200.000	0.019	0.153
-144.531	-200.000	0.055	0.296
-143.516	-200.000	-0.027	-0.281
-142.502	-200.000	0.046	0.382
-141.487	403.162	-0.105	0.219
-140.472	-200.000	-0.019	0.000
-139.458	-200.000	0.041	-0.209
-138.443	-144.277	-0.142	0.013
-137.429	-100.213	0.067	0.016
-136.414	800.000	-0.074	-0.235
-135.399	-200.000	-0.013	-0.089
-134.385	-200.000	0.006	0.072
-133.370	-200.000	-0.005	-0.052
-132.356	-41.389	0.221	-0.112
-131.341	259.334	-0.112	-0.190
-130.326	-58.956	-0.122	0.052
-129.312	376.321	-0.172	-0.347
-128.297	503.560	0.034	0.077
-127.283	-200.000	-0.003	0.102
-126.268	800.000	-0.080	-0.264
-125.253	-200.000	0.016	0.169
-124.239	4.058	-0.210	0.152
-123.224	-200.000	0.014	0.242
-122.210	195.465	-0.069	0.103
-121.195	-81.317	-0.388	-0.126
-120.180	800.000	0.047	0.129
-119.166	-200.000	0.025	0.150
-118.151	92.199	0.311	0.346
-117.137	-200.000	0.013	0.096
-116.122	-81.048	0.470	0.154
-115.107	-200.000	-0.058	0.341
-114.093	-200.000	-0.019	0.441
-113.078	-155.995	0.256	-0.016
-112.064	-134.602	0.288	-0.035
-111.049	246.811	0.155	0.259
-110.034	-37.419	0.021	0.011
-109.020	-165.745	0.233	-0.010
-108.005	800.000	0.026	-0.081
-106.991	800.000	0.033	-0.095
-105.976	-51.388	0.030	-0.014
-104.962	289.743	0.115	-0.206
-103.947	33.348	0.240	-0.205
-102.932	39.202	0.092	-0.081
-101.918	124.941	0.094	-0.117
-100.903	409.580	0.051	-0.107
-99.889	568.449	0.107	0.257
-98.874	-113.685	0.237	0.046
-97.859	-104.982	0.149	-0.034
-96.845	67.323	-0.075	0.075
-95.830	-200.000	-0.007	0.111
-94.816	452.917	-0.066	-0.144
-93.801	662.707	-0.079	0.200
-92.786	-45.997	0.091	-0.045
-91.772	-200.000	0.015	0.072
-90.757	-199.715	-0.211	0.001
-89.743	-86.142	-0.299	-0.091
-88.728	604.834	-0.075	-0.184
-87.713	-200.000	0.039	0.209
-86.699	-83.761	-0.141	0.044
-85.684	-60.323	0.270	-0.113
-84.670	-135.467	0.381	-0.045
-83.655	-41.325	0.248	-0.126
-82.640	249.666	-0.087	-0.145
-81.626	800.000	-0.061	-0.259
-80.611	800.000	0.088	-0.374
-79.597	-82.332	-0.106	-0.034
-78.582	159.425	-0.142	0.195
-77.567	22.712	0.279	-0.225
-76.553	-32.045	-0.390	-0.215
-75.538	-155.081	-0.106	0.007
-74.524	152.272	-0.086	-0.116
-73.509	19.071	0.224	-0.177
-72.494	761.872	0.032	-0.087
-71.480	800.000	0.072	0.210
-70.465	-24.511	-0.030	-0.017
-69.451	800.000	0.038	0.112
-68.436	723.881	-0.145	0.380
-67.422	59.883	0.043	0.041
-66.407	-36.599	-0.062	-0.033
-65.392	800.000	-0.068	-0.212
-64.378	219.077	0.155	0.244
-63.363	-1.804	0.382	0.265
-62.349	337.202	0.177	-0.338
-61.334	87.664	-0.880	-0.961
-60.319	104.610	0.406	0.471
-59.305	800.000	-0.149	-0.499
-58.290	559.203	0.338	0.805
-57.276	-200.000	0.262	1.755
-56.261	-200.000	95.412	567.694
-55.246	639.561	1378.640	3455.719
-54.232	197.295	2553.426	3839.025
-53.217	119.130	2145.508	2614.162
-52.203	44.708	1608.655	1457.547
-51.188	36.546	1346.314	1170.628
-50.173	33.269	1304.127	1114.639
-49.159	55.348	1350.426	1286.880
-48.144	57.478	1367.893	1316.219
-47.130	36.784	1325.931	1154.145
-46.115	33.167	1309.434	1118.391
-45.100	33.034	1304.570	1113.412
-44.086	32.950	1302.026	1110.700
-43.071	32.852	1299.867	1108.241
-42.057	32.888	1297.723	1106.581
-41.042	32.992	1295.786	1105.492
-40.027	32.971	1294.561	1104.278
-39.013	32.951	1292.829	1102.643
-37.998	33.101	1290.230	1101.256
-36.984	33.125	1288.572	1099.937
-35.969	33.046	1287.410	1098.440
-34.954	33.078	1285.700	1097.124
-33.940	33.088	1284.649	1096.244
-32.925	33.128	1282.925	1094.960
-31.911	33.134	1281.324	1093.586
-30.896	33.174	1280.181	1092.799
-29.881	33.082	1279.179	1091.368
-28.867	33.272	1276.942	1090.512
-27.852	33.079	1276.496	1088.976
-26.838	33.350	1274.236	1088.561
-25.823	33.122	1273.392	1086.487
-24.809	33.218	1271.541	1085.415
-23.794	33.106	1270.742	1084.050
-22.779	33.070	1269.534	1082.767
-21.765	33.198	1267.921	1082.083
-20.750	33.103	1267.393	1081.044
-19.736	33.001	1265.844	1079.099
-18.721	32.926	1264.993	1077.903
-17.706	33.031	1263.083	1076.832
-16.692	33.063	1262.292	1076.293
-15.677	33.119	1261.521	1075.916
-14.663	33.009	1259.919	1073.881
-13.648	33.081	1258.882	1073.361
-12.633	33.005	1258.134	1072.253
-11.619	32.919	1257.790	1071.424
-10.604	32.979	1256.458	1070.593
-9.590	32.950	1255.367	1069.452
-8.575	32.970	1254.375	1068.678
-7.560	32.959	1253.734	1068.029
-6.546	32.957	1252.926	1067.289
-5.531	32.954	1252.250	1066.651
-4.517	32.949	1251.563	1065.999
-3.502	32.927	1250.868	1065.236
-2.487	33.039	1249.195	1064.401
-1.473	32.972	1245.416	1060.763
-0.458	31.550	1230.409	1040.043
0.556	27.045	1213.107	1001.349
1.571	23.325	1218.265	984.875
2.586	22.208	1233.626	990.915
3.600	21.671	1222.105	978.574
4.615	16.474	1151.246	894.329
5.629	8.359	1077.078	796.322
6.644	4.954	1057.208	764.874
7.659	4.656	1054.753	761.574
8.673	4.654	1053.848	760.843
9.688	4.676	1052.486	759.899
10.702	4.699	1050.891	758.793
11.717	9.237	1057.474	785.704
12.731	16.649	1067.273	829.365
13.746	19.383	1069.636	844.536
14.761	18.549	1067.822	838.951
15.775	17.386	1065.901	831.685
16.790	16.415	1064.257	825.587
17.804	15.688	1062.485	820.593
18.819	15.245	1061.670	817.729
19.834	15.047	1060.548	815.829
20.848	14.802	1060.152	814.259
21.863	14.676	1058.804	812.538
22.877	14.507	1058.320	811.272
23.892	14.453	1057.605	810.389
24.907	14.494	1056.727	809.843
25.921	14.584	1055.692	809.414
26.936	14.500	1054.380	807.933
27.950	14.510	1053.374	807.137
28.965	14.586	1051.755	806.191
29.980	14.889	1049.637	805.959
30.994	14.780	1049.156	804.991
32.009	14.818	1047.975	804.200
33.023	14.838	1047.159	803.596
34.038	14.757	1046.115	802.336
35.053	14.677	1045.105	801.104
36.067	14.701	1043.971	800.280
37.082	14.697	1043.139	799.555
38.096	14.746	1042.537	799.256
39.111	14.765	1041.617	798.569
40.126	14.631	1040.627	797.101
41.140	14.494	1038.882	795.042
42.155	14.330	1038.274	793.725
43.169	14.397	1036.933	792.948
44.184	14.487	1035.824	792.459
45.199	14.478	1034.700	791.486
46.213	14.524	1033.640	790.823
47.228	14.528	1032.928	790.225
48.242	14.619	1031.576	789.551
49.257	14.656	1030.601	788.910
50.271	14.666	1030.136	788.535
51.286	14.638	1029.139	787.569
52.301	14.576	1028.098	786.408
53.315	14.563	1026.862	785.335
54.330	14.379	1026.221	783.905
55.344	14.453	1025.266	783.456
56.359	14.503	1024.232	782.833
57.374	14.460	1023.851	782.270
58.388	14.370	1022.271	780.573
59.403	14.425	1021.812	780.409
60.417	14.342	1021.042	779.365
61.432	14.499	1020.176	779.365
62.447	14.322	1019.547	777.991
63.461	14.266	1018.312	776.716
64.476	14.224	1017.813	776.071
65.490	14.191	1017.012	775.242
66.505	14.323	1016.127	775.112
67.520	14.334	1015.624	774.710
68.534	14.400	1014.746	774.281
69.549	14.219	1014.265	773.005
70.563	14.245	1013.608	772.553
71.578	14.197	1012.737	771.597
72.593	14.179	1011.528	770.525
73.607	14.209	1010.799	770.043
74.622	14.236	1010.563	769.917
75.636	14.260	1009.451	769.114
76.651	14.220	1009.482	768.886
77.666	14.193	1008.756	768.141
78.680	14.276	1007.813	767.738
79.695	14.207	1007.021	766.749
80.709	14.415	1006.481	767.228
81.724	14.366	1006.117	766.655
82.739	14.535	1005.196	766.660
83.753	14.651	1004.017	766.230
84.768	14.618	1004.059	766.040
85.782	14.764	1002.911	765.767
86.797	14.749	1002.039	764.963
87.812	14.728	1000.712	763.787
88.826	14.644	1000.123	762.887
89.841	14.659	999.227	762.206
90.855	14.867	998.074	762.207
91.870	14.700	997.783	761.154
92.884	14.744	996.952	760.652
93.899	14.867	995.741	760.224
94.914	14.868	995.338	759.851
95.928	14.830	994.600	759.046
96.943	14.842	993.145	757.924
97.957	14.757	992.507	756.984
98.972	14.642	992.165	756.137
99.987	14.831	990.947	755.999
101.001	14.734	989.831	754.643
102.016	14.633	989.343	753.745
103.030	14.833	988.327	753.805
104.045	14.722	987.619	752.701
105.060	14.529	987.122	751.386
106.074	14.499	985.954	750.297
107.089	14.537	984.714	749.457
108.103	14.319	984.404	748.176
109.118	14.304	983.487	747.346
110.133	14.390	982.231	746.707
111.147	14.510	981.429	746.570
112.162	14.504	980.852	746.037
113.176	14.478	980.182	745.348
114.191	14.439	979.176	744.343
115.206	14.501	978.475	744.020
116.220	14.477	978.179	743.620
117.235	14.501	976.725	742.557
118.249	14.393	976.380	741.748
119.264	14.587	975.123	741.590
120.279	14.449	974.755	740.633
121.293	14.395	973.521	739.390
122.308	14.317	972.947	738.540
123.322	14.379	971.880	737.941
124.337	14.451	970.375	737.053
125.352	14.383	969.610	736.105
126.366	14.359	968.413	735.024
127.381	14.358	967.446	734.223
128.395	14.250	966.952	733.305
129.410	14.445	966.024	733.394
130.424	14.528	965.087	732.982
131.439	14.580	964.378	732.607
132.454	14.575	963.678	731.989
133.468	14.627	962.846	731.520
134.483	14.540	962.201	730.585
135.497	14.537	961.441	729.932
136.512	14.589	960.254	729.192
137.527	14.550	959.468	728.360
138.541	14.652	958.900	728.311
139.556	14.615	958.344	727.663
140.570	14.843	957.495	727.947
141.585	14.840	956.714	727.277
142.600	14.814	955.896	726.474
143.614	14.889	955.100	726.135
144.629	14.776	954.460	725.091
145.643	14.826	953.238	724.314
146.658	14.666	952.457	722.964
147.673	14.743	951.180	722.263
148.687	14.657	950.597	721.388
149.702	14.646	949.836	720.696
150.716	14.662	948.880	719.977
151.731	14.552	948.659	719.271
152.746	14.611	947.658	718.704
153.760	14.657	946.922	718.278
154.775	14.661	946.530	717.936
155.789	14.787	945.892	717.931
156.804	14.826	945.333	717.610
157.819	14.841	944.625	717.074
158.833	14.854	944.590	717.038
159.848	15.068	943.298	716.912
160.862	14.863	942.171	715.115
161.877	14.710	941.337	713.765
162.892	14.671	940.057	712.565
163.906	14.726	939.100	712.010
164.921	14.615	938.949	711.358
165.935	14.679	937.732	710.645
166.950	14.734	936.726	710.057
167.964	14.813	935.749	709.587
168.979	14.727	934.871	708.493
169.994	14.709	934.484	708.064
171.008	14.746	933.663	707.532
172.023	15.002	932.661	707.797
173.037	14.945	932.388	707.286
174.052	14.863	931.334	706.076
175.067	14.836	930.475	705.248
176.081	14.787	929.925	704.562
177.096	14.747	929.330	703.882
178.110	14.812	928.920	703.782
179.125	14.833	928.177	703.243
180.140	15.026	927.370	703.382
181.154	15.059	927.138	703.284
182.169	14.931	926.696	702.348
183.183	15.100	925.864	702.363
184.198	15.180	925.159	702.102
185.213	15.089	924.507	701.165
186.227	15.100	923.919	700.704
187.242	15.234	923.484	700.871
188.256	15.209	922.926	700.280
189.271	15.216	922.192	699.692
190.286	15.065	921.081	698.155
191.300	14.808	920.059	696.248
192.315	14.837	919.449	695.847
193.329	14.732	919.458	695.355
194.344	14.919	918.951	695.689
195.359	15.037	918.179	695.532
196.373	15.116	917.435	695.236
197.388	15.232	916.914	695.261
198.402	15.328	916.593	695.355
199.417	15.382	915.966	695.042
200.432	15.421	915.437	694.737
201.446	15.493	915.012	694.653
202.461	15.593	914.569	694.668
203.475	15.560	913.737	693.839
204.490	15.246	913.221	692.088
205.504	15.297	912.104	691.392
206.519	15.305	911.563	690.952
207.534	15.371	910.344	690.238
208.548	15.334	910.189	689.909
209.563	15.339	909.708	689.505
210.577	15.471	908.694	689.217
211.592	15.389	908.348	688.556
212.607	15.527	907.481	688.403
213.621	15.513	906.597	687.615
214.636	15.568	906.032	687.350
215.650	15.545	904.859	686.304
216.665	15.536	904.583	685.998
217.680	15.696	904.190	686.295
218.694	15.533	903.621	685.136
219.709	15.572	903.083	684.827
220.723	15.545	902.655	684.333
221.738	15.709	901.045	683.715
222.753	15.675	900.953	683.448
223.767	15.607	900.627	682.865
224.782	15.624	900.184	682.538
225.796	15.634	899.917	682.314
226.811	15.717	898.742	681.700
227.826	15.617	897.863	680.567
228.840	15.547	897.326	679.815
229.855	15.743	896.424	679.867
230.869	15.676	895.609	678.918
231.884	15.486	895.228	677.803
232.899	15.558	894.221	677.271
233.913	15.559	893.657	676.785
234.928	15.487	892.555	675.602
235.942	15.552	892.564	675.810
236.957	15.618	891.556	675.254
237.972	15.519	891.223	674.543
238.986	15.476	890.591	673.832
240.001	15.625	889.595	673.619
241.015	15.614	889.287	673.280
242.030	15.578	888.908	672.790
243.045	15.751	887.838	672.611
244.059	15.562	888.005	671.923
245.074	15.760	886.962	671.864
246.088	15.890	886.063	671.644
247.103	15.781	885.798	670.949
248.117	15.888	885.370	670.990
249.132	16.033	885.097	671.303
250.147	16.072	883.988	670.557
251.161	16.176	883.724	670.710
252.176	16.198	882.522	669.828
253.190	16.213	882.288	669.650
254.205	16.297	881.640	669.433
255.220	16.324	880.902	668.920
256.234	16.193	880.952	668.377
257.249	16.313	879.698	667.843
258.263	16.139	879.147	666.678
259.278	16.136	878.562	666.164
260.293	16.274	878.038	666.252
261.307	16.472	877.000	666.187
262.322	16.449	876.672	665.787
263.336	16.378	876.108	665.021
264.351	16.448	875.345	664.659
265.366	16.449	875.006	664.345
266.380	16.420	874.199	663.562
267.395	16.430	873.193	662.775
268.409	16.435	872.513	662.223
269.424	16.334	871.429	660.946
270.439	16.327	870.866	660.432
271.453	16.439	870.077	660.214
272.468	16.317	869.820	659.484
273.482	16.417	869.583	659.637
274.497	16.317	868.763	658.564
275.512	16.439	868.202	658.557
276.526	16.502	867.768	658.413
277.541	16.503	867.043	657.812
278.555	16.554	866.521	657.555
279.570	16.680	866.144	657.698
280.585	16.469	865.403	656.259
281.599	16.690	864.521	656.390
282.614	16.526	863.785	655.136
283.628	16.645	863.266	655.147
284.643	16.503	862.941	654.291
285.657	16.475	862.327	653.659
286.672	16.571	861.637	653.449
287.687	16.691	860.923	653.313
288.701	16.637	860.508	652.734
289.716	16.538	860.007	651.915
290.730	16.620	859.352	651.675
291.745	16.755	858.251	651.300
292.760	16.697	858.182	650.971
293.774	16.647	857.973	650.562
294.789	16.681	856.969	649.873
295.803	16.658	855.979	648.975
296.818	16.728	855.276	648.652
297.833	16.575	854.835	647.676
298.847	16.502	854.976	647.445
299.862	16.647	854.281	647.419
300.876	16.832	853.182	647.236
301.891	16.881	852.697	646.998
302.906	16.995	852.294	647.069
303.920	17.039	851.596	646.648
304.935	16.964	851.536	646.260
305.949	16.943	850.443	645.294
306.964	16.981	850.296	645.269
307.979	17.041	849.802	645.067
308.993	17.030	849.062	644.404
310.008	16.992	848.427	643.720
311.022	17.005	847.672	643.142
312.037	17.048	846.964	642.712
313.052	17.027	846.246	642.030
314.066	16.881	845.853	641.121
315.081	16.916	845.144	640.659
316.095	16.863	844.771	640.120
317.110	16.938	844.210	639.922
318.125	16.933	843.846	639.568
319.139	16.909	843.484	639.148
320.154	16.994	842.718	638.833
321.168	16.934	842.424	638.327
322.183	16.974	841.445	637.676
323.197	17.101	840.932	637.711
324.212	17.067	840.718	637.364
325.227	17.076	840.253	636.990
326.241	16.913	839.542	635.784
327.256	16.973	838.989	635.532
328.270	17.034	838.219	635.122
329.285	16.950	837.773	634.412
330.300	17.077	837.147	634.358
331.314	16.966	836.992	633.767
332.329	17.239	836.223	634.151
333.343	17.131	835.960	633.492
334.358	17.263	835.388	633.492
335.373	17.288	835.134	633.337
336.387	17.267	834.774	632.929
337.402	17.386	834.650	633.222
338.416	17.493	834.256	633.265
339.431	17.441	834.061	632.869
340.446	17.493	833.508	632.586
341.460	17.640	832.895	632.610
342.475	17.496	832.906	632.030
343.489	17.677	832.309	632.191
344.504	17.604	831.822	631.496
345.519	17.722	831.190	631.396
346.533	17.712	830.348	630.664
347.548	17.510	830.163	629.719
348.562	17.561	829.504	629.354
349.577	17.349	829.186	628.272
350.592	17.308	828.516	627.557
351.606	17.358	827.642	627.025
352.621	17.358	827.295	626.709
353.635	17.482	826.315	626.364
354.650	17.504	825.520	625.787
355.665	17.488	825.310	625.515
356.679	17.509	824.652	625.038
357.694	17.542	823.893	624.528
358.708	17.627	823.256	624.301
359.723	17.540	822.881	623.644
360.738	17.682	822.284	623.657
361.752	17.703	821.519	623.096
362.767	17.760	821.137	622.962
363.781	17.876	820.468	622.821
364.796	17.802	820.208	622.301
365.810	17.934	820.098	622.640
366.825	17.888	819.925	622.285
367.840	17.937	819.121	621.802
368.854	17.893	818.392	621.034
369.869	17.817	818.062	620.451
370.883	17.811	817.896	620.246
371.898	17.873	817.626	620.213
372.913	17.998	816.996	620.134
373.927	17.787	816.755	619.132
374.942	17.906	816.262	619.134
375.956	17.977	815.787	618.976
376.971	18.143	815.342	619.183
377.986	18.187	814.672	618.782
379.000	18.243	814.146	618.528
380.015	18.200	813.449	617.787
381.029	18.226	813.060	617.532
382.044	18.357	811.922	617.087
383.059	18.180	811.931	616.400
384.073	18.162	811.286	615.793
385.088	18.060	810.938	615.105
386.102	18.130	810.179	614.727
387.117	18.086	809.502	614.001
388.132	18.093	808.746	613.397
389.146	18.218	808.349	613.491
390.161	18.480	807.995	614.107
391.175	18.123	807.929	612.723
392.190	18.111	807.256	612.115
393.205	18.057	806.751	611.487
394.219	18.042	806.678	611.323
395.234	18.121	805.833	610.909
396.248	18.070	805.565	610.470
397.263	18.079	805.246	610.208
398.278	18.024	804.453	609.358
399.292	18.028	804.455	609.320
400.307	17.890	803.959	608.397
401.321	18.105	802.994	608.378
402.336	18.109	802.352	607.853
403.350	18.329	802.172	608.443
404.365	18.307	802.021	608.198
405.380	18.479	801.476	608.341
406.394	18.419	800.845	607.594
407.409	18.500	800.608	607.650
408.423	18.547	800.192	607.446
409.438	18.616	800.044	607.522
410.453	18.614	799.476	607.034
411.467	18.479	799.222	606.306
412.482	18.609	798.775	606.373
413.496	18.804	798.423	606.741
414.511	18.672	798.144	606.009
415.526	18.669	797.449	605.417
416.540	18.539	797.279	604.778
417.555	18.568	796.805	604.467
418.569	18.480	796.691	604.017
419.584	18.731	795.482	603.931
420.599	18.734	795.299	603.749
421.613	155.821	1371.492	1792.368
422.628	134.906	1455.444	1792.431
