DTS Sentinel unit serial number:	SN413079Multiplexer serial number:	ORYXHardware model number:	OX4-SRSoftware version number:	ORYX F/W v4.00 Oryx Data Collector v3.7.2.0data status	okinstallation	princeton_trtdifferential loss correction	single-endedforward channel	channel 1reverse channel	N/Adate	2019/09/12time	16:40:11forward acquisition time	60.00reverse acquisition time	0.00gamma	496.2192k internal	0.2307k external	0.2307temperature offset calibration	1.0100default loss term (dB/km)	0.3790temperature slope calibration	1.0000multiplexer offset coefficient	1.0000multiplexer slope coefficient	1.0000fibre end	0.00T internal ref (°C)	36.75T ext. ref 1 (°C)	2.73T ext. ref 2 (°C)	29.70length (m)	temperature (°C)	Stokes	anti-Stokes-747.200	-200.000	0.002	0.129
-746.185	-200.000	0.021	0.159
-745.171	-160.150	0.092	0.005
-744.156	543.968	-0.192	0.466
-743.142	76.664	0.193	0.209
-742.127	568.447	-0.175	0.432
-741.112	-115.138	0.341	0.066
-740.098	-58.231	-0.204	0.090
-739.083	-101.795	-0.279	0.069
-738.069	-76.876	0.241	0.086
-737.054	-54.416	0.098	0.045
-736.039	-49.872	-0.211	-0.102
-735.025	3.449	0.085	-0.063
-734.010	38.781	-0.186	-0.169
-732.996	107.655	-0.016	0.019
-731.981	311.175	-0.079	-0.150
-730.966	45.559	-0.204	-0.192
-729.952	800.000	-0.096	-0.287
-728.937	-200.000	0.025	0.251
-727.923	-122.521	0.172	-0.028
-726.908	-117.257	-0.075	-0.014
-725.894	345.422	-0.053	0.106
-724.879	-37.010	0.290	0.158
-723.864	146.605	0.046	-0.062
-722.850	800.000	-0.166	-0.494
-721.835	800.000	-0.071	0.214
-720.821	800.000	0.046	0.178
-719.806	-200.000	0.009	0.142
-718.791	-200.000	0.045	0.232
-717.777	-200.000	0.004	0.032
-716.762	-200.000	0.035	-0.169
-715.748	180.007	-0.082	0.123
-714.733	189.333	0.117	-0.178
-713.718	-200.000	0.053	-0.256
-712.704	-119.044	-0.251	-0.045
-711.689	161.014	-0.132	-0.188
-710.675	58.225	0.090	-0.089
-709.660	-8.278	0.113	0.077
-708.645	-200.000	0.068	-0.349
-707.631	412.281	0.192	-0.414
-706.616	26.690	-0.300	0.255
-705.602	800.000	0.080	0.224
-704.587	151.703	0.186	-0.258
-703.572	-101.826	0.374	0.092
-702.558	-200.000	0.096	-0.461
-701.543	0.635	0.240	-0.174
-700.529	-156.965	0.287	0.018
-699.514	244.639	-0.045	0.076
-698.499	179.710	-0.097	-0.144
-697.485	264.174	-0.140	-0.247
-696.470	81.764	-0.102	-0.112
-695.456	-128.468	0.317	-0.046
-694.441	-134.445	0.178	0.022
-693.426	19.962	0.054	0.044
-692.412	-54.452	-0.170	0.078
-691.397	114.293	-0.061	-0.075
-690.383	-141.141	0.014	-0.001
-689.368	89.881	-0.153	-0.173
-688.354	-200.000	-0.043	-0.363
-687.339	-165.375	-0.659	0.029
-686.324	146.486	0.124	0.169
-685.310	96.546	0.143	0.166
-684.295	-29.287	0.212	-0.123
-683.281	-134.408	-0.479	-0.060
-682.266	127.108	0.036	0.047
-681.251	71.499	-0.145	0.153
-680.237	-6.461	0.212	-0.147
-679.222	-96.081	-0.149	-0.040
-678.208	-200.000	-0.007	-0.126
-677.193	-200.000	0.022	-0.305
-676.178	-179.548	-0.241	-0.005
-675.164	96.965	-0.189	0.220
-674.149	-200.000	-0.050	-0.358
-673.135	-49.555	0.233	-0.112
-672.120	20.144	-0.114	-0.093
-671.105	-161.585	-0.267	0.014
-670.091	209.550	-0.105	-0.168
-669.076	55.323	0.171	0.167
-668.062	116.511	-0.145	0.180
-667.047	117.740	0.142	-0.177
-666.032	122.583	-0.115	0.145
-665.018	-149.101	-0.131	-0.011
-664.003	38.779	0.143	0.130
-662.989	78.758	0.153	0.166
-661.974	427.747	0.052	0.114
-660.959	288.523	-0.176	0.322
-659.945	548.947	-0.151	-0.368
-658.930	-44.703	-0.069	0.035
-657.916	34.863	0.302	0.268
-656.901	55.904	-0.086	0.085
-655.886	-200.000	0.027	0.123
-654.872	-200.000	-0.009	-0.078
-653.857	127.633	0.103	0.132
-652.843	-11.215	-0.260	-0.174
-651.828	-107.575	0.180	0.040
-650.814	-29.376	0.280	0.162
-649.799	378.549	0.127	0.264
-648.784	7.891	-0.042	0.032
-647.770	800.000	-0.092	-0.361
-646.755	800.000	0.070	-0.292
-645.741	-27.948	0.201	-0.118
-644.726	709.505	0.185	-0.495
-643.711	-42.203	0.027	0.014
-642.697	133.747	0.085	-0.112
-641.682	368.473	-0.076	0.155
-640.668	-178.201	0.339	-0.008
-639.653	-200.000	0.006	0.050
-638.638	452.949	0.110	0.247
-637.624	309.329	-0.019	-0.036
-636.609	14.614	-0.301	-0.238
-635.595	787.790	-0.104	-0.288
-634.580	-29.489	-0.258	-0.150
-633.565	573.253	-0.169	-0.417
-632.551	-200.000	-0.018	0.128
-631.536	78.063	-0.107	-0.115
-630.522	99.420	0.286	-0.334
-629.507	-15.059	0.143	0.092
-628.492	-28.938	0.174	-0.101
-627.478	61.758	0.193	0.195
-626.463	800.000	-0.032	-0.135
-625.449	-200.000	0.038	-0.174
-624.434	3.379	0.169	-0.125
-623.419	-96.586	0.418	-0.111
-622.405	95.508	-0.059	-0.068
-621.390	-200.000	0.028	0.176
-620.376	-97.341	0.162	-0.043
-619.361	-91.828	-0.202	-0.058
-618.346	32.578	0.186	0.163
-617.332	-72.951	0.587	0.218
-616.317	-101.829	-0.396	-0.097
-615.303	800.000	-0.033	0.100
-614.288	-57.898	0.107	0.047
-613.273	343.350	0.093	0.185
-612.259	195.644	0.143	-0.220
-611.244	-200.000	0.018	0.171
-610.230	-27.023	0.047	0.028
-609.215	180.214	0.135	-0.201
-608.201	-94.635	0.158	-0.043
-607.186	-200.000	0.001	-0.131
-606.171	233.863	-0.057	-0.095
-605.157	-200.000	0.010	-0.046
-604.142	4.148	-0.329	0.243
-603.128	-102.849	0.235	0.057
-602.113	-4.853	-0.102	0.071
-601.098	122.302	-0.211	-0.267
-600.084	-197.530	0.226	-0.001
-599.069	-200.000	-0.034	0.237
-598.055	-89.851	0.122	0.036
-597.040	-22.930	0.260	-0.159
-596.025	38.945	0.048	-0.043
-595.011	-53.919	0.105	-0.049
-593.996	-200.000	-0.002	-0.062
-592.982	61.792	0.053	0.053
-591.967	-200.000	0.063	0.384
-590.952	155.158	0.088	-0.122
-589.938	-45.505	-0.150	0.075
-588.923	673.185	-0.083	-0.218
-587.909	232.584	0.086	-0.143
-586.894	32.139	-0.088	-0.077
-585.879	-200.000	-0.051	-0.237
-584.865	73.336	0.138	-0.146
-583.850	189.306	-0.067	-0.101
-582.836	88.046	0.074	-0.083
-581.821	-200.000	-0.004	-0.177
-580.806	800.000	0.015	0.058
-579.792	800.000	-0.075	0.230
-578.777	-128.713	0.255	-0.036
-577.763	-200.000	-0.007	-0.134
-576.748	-200.000	-0.011	-0.318
-575.733	-13.912	-0.090	-0.059
-574.719	-144.476	0.223	-0.021
-573.704	800.000	0.051	0.171
-572.690	-49.642	0.065	-0.031
-571.675	-17.844	-0.207	-0.131
-570.661	-7.268	0.172	-0.118
-569.646	239.022	-0.083	-0.139
-568.631	32.229	0.195	-0.170
-567.617	-200.000	0.056	-0.339
-566.602	-96.029	0.255	-0.068
-565.588	326.170	0.070	-0.136
-564.573	8.033	-0.155	-0.117
-563.558	16.270	-0.098	0.078
-562.544	-132.386	0.161	-0.021
-561.529	559.173	-0.076	-0.184
-560.515	44.562	-0.254	-0.236
-559.500	-87.933	-0.298	0.090
-558.485	-200.000	-0.019	-0.116
-557.471	264.675	0.209	0.368
-556.456	-76.922	-0.175	0.062
-555.442	85.524	-0.017	-0.018
-554.427	-88.155	-0.292	0.088
-553.412	118.970	-0.092	-0.115
-552.398	-18.330	0.085	-0.054
-551.383	-117.286	0.296	0.054
-550.369	-146.811	-0.135	0.012
-549.354	-59.187	0.167	-0.073
-548.339	83.877	-0.222	0.244
-547.325	800.000	-0.025	-0.087
-546.310	58.783	-0.218	-0.216
-545.296	-117.445	-0.285	0.052
-544.281	133.571	0.055	0.072
-543.266	10.688	0.239	0.184
-542.252	510.068	-0.013	-0.031
-541.237	365.157	0.133	0.269
-540.223	-5.516	-0.187	0.130
-539.208	-102.026	-0.007	-0.002
-538.193	66.244	-0.108	0.111
-537.179	8.758	-0.176	0.134
-536.164	128.780	0.179	0.230
-535.150	-200.000	-0.021	-0.272
-534.135	800.000	-0.028	-0.119
-533.121	-200.000	0.030	-0.222
-532.106	-186.058	0.462	0.007
-531.091	10.894	0.168	-0.129
-530.077	130.384	-0.194	0.250
-529.062	-200.000	0.063	0.523
-528.048	-7.215	-0.093	-0.064
-527.033	152.446	0.132	-0.182
-526.018	19.841	0.213	0.173
-525.004	165.223	0.116	0.166
-523.989	-200.000	0.045	-0.256
-522.975	-136.415	-0.061	0.007
-521.960	37.098	-0.114	-0.101
-520.945	-117.821	-0.146	0.026
-519.931	-200.000	0.038	-0.323
-518.916	-200.000	-0.020	0.131
-517.902	-82.040	-0.108	0.035
-516.887	-123.566	0.292	0.047
-515.872	-100.346	0.094	-0.024
-514.858	-115.402	0.195	0.037
-513.843	-133.741	-0.067	0.008
-512.829	-200.000	-0.014	-0.067
-511.814	84.527	-0.102	-0.112
-510.799	235.165	-0.052	-0.086
-509.785	-35.396	-0.147	-0.081
-508.770	-57.275	0.198	-0.088
-507.756	800.000	-0.109	-0.320
-506.741	-157.589	-0.302	-0.018
-505.726	334.697	0.114	-0.223
-504.712	-200.000	0.020	0.139
-503.697	800.000	0.048	0.181
-502.683	-158.697	-0.140	0.008
-501.668	-93.570	-0.269	0.075
-500.653	800.000	-0.080	0.311
-499.639	-120.069	-0.093	-0.016
-498.624	-200.000	-0.049	-0.265
-497.610	375.611	-0.095	-0.194
-496.595	89.149	0.094	0.105
-495.581	-200.000	0.003	0.077
-494.566	761.527	0.101	0.277
-493.551	130.700	-0.177	0.228
-492.537	-102.706	-0.172	-0.041
-491.522	-141.587	0.257	-0.026
-490.508	-200.000	-0.009	-0.142
-489.493	69.563	0.042	0.043
-488.478	-44.066	-0.193	-0.097
-487.464	586.735	0.028	-0.068
-486.449	268.638	0.071	-0.126
-485.435	800.000	-0.035	0.111
-484.420	241.217	0.047	0.079
-483.405	-9.594	-0.373	0.250
-482.391	622.702	-0.090	-0.229
-481.376	-41.956	-0.194	0.100
-480.362	-200.000	0.009	-0.062
-479.347	-48.292	0.035	-0.017
-478.332	-63.311	0.160	-0.066
-477.318	800.000	-0.022	0.075
-476.303	-20.596	0.186	0.115
-475.289	-118.220	-0.339	-0.061
-474.274	-59.375	0.048	0.021
-473.259	-105.794	-0.250	0.057
-472.245	35.023	-0.173	-0.153
-471.230	-111.295	0.075	-0.015
-470.216	-200.000	0.076	0.376
-469.201	800.000	0.095	0.375
-468.186	-87.096	-0.234	-0.072
-467.172	-200.000	0.016	0.597
-466.157	290.375	0.055	0.100
-465.143	-80.150	0.220	-0.074
-464.128	-43.496	-0.118	0.060
-463.113	32.454	0.156	-0.135
-462.099	-200.000	0.004	0.079
-461.084	-40.122	-0.206	-0.108
-460.070	-200.000	0.005	-0.245
-459.055	-112.461	-0.307	0.062
-458.040	-200.000	0.057	-0.288
-457.026	-119.738	-0.207	0.036
-456.011	272.286	-0.173	0.307
-454.997	-18.152	0.141	-0.089
-453.982	-76.657	-0.057	0.020
-452.968	247.030	-0.092	0.157
-451.953	0.598	0.133	0.095
-450.938	-49.676	-0.211	0.101
-449.924	800.000	-0.078	0.292
-448.909	-39.952	-0.257	0.135
-447.895	-41.363	-0.362	0.187
-446.880	111.494	-0.294	0.357
-445.865	-200.000	-0.028	0.150
-444.851	-9.355	-0.104	0.069
-443.836	303.146	0.095	0.177
-442.822	-200.000	0.053	-0.291
-441.807	-200.000	0.021	-0.359
-440.792	155.177	-0.087	-0.121
-439.778	-109.096	0.180	-0.039
-438.763	260.603	0.187	-0.325
-437.749	-200.000	-0.002	-0.062
-436.734	800.000	0.065	-0.273
-435.719	-142.963	-0.228	0.022
-434.705	-62.257	-0.241	0.101
-433.690	203.002	-0.076	-0.118
-432.676	800.000	-0.106	-0.341
-431.661	-32.069	0.282	0.158
-430.646	-200.000	-0.004	-0.197
-429.632	51.540	-0.075	-0.071
-428.617	-53.817	0.048	-0.022
-427.603	800.000	0.029	-0.100
-426.588	800.000	-0.032	-0.094
-425.573	-23.512	-0.259	0.156
-424.559	243.543	0.112	0.189
-423.544	-79.911	0.320	0.108
-422.530	-12.197	-0.211	-0.139
-421.515	251.424	-0.081	-0.139
-420.500	-100.408	-0.393	-0.098
-419.486	555.946	-0.226	0.546
-418.471	208.240	-0.170	0.267
-417.457	-111.120	-0.120	-0.025
-416.442	-42.691	-0.047	0.024
-415.428	277.067	-0.110	0.196
-414.413	-108.507	-0.238	-0.051
-413.398	183.381	0.119	-0.177
-412.384	-109.646	0.222	-0.047
-411.369	298.040	0.147	-0.271
-410.355	-200.000	0.024	0.225
-409.340	4.880	0.149	-0.110
-408.325	-37.530	-0.077	-0.041
-407.311	348.110	-0.160	0.317
-406.296	152.861	0.199	0.272
-405.282	-122.517	-0.245	-0.040
-404.267	800.000	0.053	-0.180
-403.252	12.155	0.087	0.067
-402.238	783.511	0.090	-0.249
-401.223	-152.413	-0.254	-0.018
-400.209	-200.000	-0.009	-0.058
-399.194	49.187	-0.117	-0.110
-398.179	-107.053	0.174	0.039
-397.165	64.511	-0.215	0.217
-396.150	-200.000	-0.002	0.225
-395.136	-66.083	-0.284	0.114
-394.121	40.215	0.248	-0.224
-393.106	-48.251	0.178	0.086
-392.092	-155.803	-0.241	0.015
-391.077	-95.934	-0.243	-0.065
-390.063	-18.973	-0.077	0.048
-389.048	-25.871	0.103	-0.061
-388.033	-50.299	0.134	-0.064
-387.019	-26.036	0.033	-0.019
-386.004	-200.000	-0.000	0.267
-384.990	-141.853	-0.218	-0.022
-383.975	-139.739	0.081	-0.009
-382.960	800.000	-0.120	0.501
-381.946	-88.696	-0.432	0.129
-380.931	286.646	-0.120	-0.217
-379.917	-81.066	-0.049	-0.016
-378.902	-58.323	0.198	-0.086
-377.888	-71.073	-0.182	0.068
-376.873	61.065	-0.149	0.149
-375.858	94.394	0.283	0.323
-374.844	113.139	0.030	0.037
-373.829	-200.000	-0.020	-0.116
-372.815	-200.000	-0.014	-0.219
-371.800	181.107	-0.268	0.395
-370.785	-31.375	-0.200	-0.113
-369.771	-87.086	-0.316	0.096
-368.756	800.000	-0.004	0.014
-367.742	42.980	-0.066	-0.060
-366.727	-200.000	-0.002	0.205
-365.712	-1.889	-0.125	-0.088
-364.698	282.827	0.114	-0.205
-363.683	-156.220	-0.490	0.031
-362.669	149.156	-0.124	-0.169
-361.654	26.047	-0.116	0.097
-360.639	-119.678	-0.351	-0.061
-359.625	17.622	0.062	-0.049
-358.610	-200.000	0.006	-0.273
-357.596	-200.000	-0.014	-0.209
-356.581	497.853	0.017	-0.040
-355.566	-200.000	-0.019	-0.251
-354.552	-34.109	0.317	-0.174
-353.537	-116.735	0.374	-0.069
-352.523	-200.000	-0.001	0.133
-351.508	-143.157	-0.086	0.008
-350.493	800.000	0.023	-0.078
-349.479	389.930	-0.077	-0.159
-348.464	-106.248	0.375	0.084
-347.450	-122.885	0.270	0.044
-346.435	-200.000	0.025	-0.127
-345.420	161.525	0.111	0.155
-344.406	-67.521	0.228	0.090
-343.391	800.000	0.044	0.184
-342.377	-150.298	-0.128	0.010
-341.362	179.301	-0.080	-0.118
-340.348	-12.573	0.201	0.131
-339.333	-200.000	0.004	0.029
-338.318	171.053	0.111	-0.159
-337.304	-200.000	0.006	-0.153
-336.289	-121.746	-0.084	-0.014
-335.275	166.265	-0.136	0.192
-334.260	-200.000	-0.008	0.165
-333.245	197.076	-0.156	0.238
-332.231	150.878	-0.038	0.052
-331.216	-176.193	0.248	-0.007
-330.202	97.664	-0.058	-0.066
-329.187	-50.426	0.104	-0.049
-328.172	-137.752	-0.243	0.027
-327.158	-138.512	-0.215	-0.024
-326.143	86.887	-0.217	-0.240
-325.129	384.614	-0.156	0.321
-324.114	-191.225	-0.296	0.003
-323.099	-70.674	-0.230	-0.087
-322.085	-55.507	0.186	-0.083
-321.070	-42.950	0.131	0.067
-320.056	-200.000	0.016	-0.402
-319.041	85.365	0.285	-0.313
-318.026	54.393	-0.246	-0.237
-317.012	228.270	0.071	-0.116
-315.997	115.916	-0.133	-0.163
-314.983	-200.000	0.014	-0.358
-313.968	-200.000	0.024	0.233
-312.953	-31.468	0.118	0.066
-311.939	-200.000	0.018	0.201
-310.924	130.065	-0.169	0.216
-309.910	800.000	0.043	0.154
-308.895	-135.675	-0.065	0.008
-307.880	-131.210	0.210	0.028
-306.866	-78.233	0.223	0.077
-305.851	359.091	-0.021	-0.043
-304.837	37.661	-0.073	0.065
-303.822	-39.709	-0.221	-0.116
-302.807	408.313	0.092	0.194
-301.793	-97.591	0.176	0.046
-300.778	-200.000	0.052	0.229
-299.764	78.497	0.210	0.224
-298.749	-200.000	0.041	0.210
-297.735	800.000	-0.068	0.258
-296.720	-80.530	0.410	0.137
-295.705	3.597	0.309	-0.225
-294.691	800.000	0.141	-0.486
-293.676	5.860	-0.099	0.073
-292.662	110.482	0.053	-0.064
-291.647	291.372	-0.066	-0.120
-290.632	-118.599	0.240	-0.042
-289.618	-200.000	0.006	0.211
-288.603	-17.079	0.287	-0.181
-287.589	-95.793	0.112	0.030
-286.574	143.337	0.117	-0.155
-285.559	-96.092	0.327	0.087
-284.545	366.220	-0.045	-0.091
-283.530	-38.655	-0.132	0.070
-282.516	-200.000	0.010	0.117
-281.501	57.848	-0.149	0.146
-280.486	-142.993	-0.203	0.020
-279.472	-200.000	-0.030	0.134
-278.457	359.767	-0.097	0.193
-277.443	-148.853	-0.062	0.005
-276.428	-200.000	-0.011	0.100
-275.413	-12.672	-0.115	0.075
-274.399	36.903	0.176	0.155
-273.384	9.217	0.302	-0.228
-272.370	-5.273	0.122	0.084
-271.355	-12.736	-0.454	-0.295
-270.340	-156.398	-0.052	-0.003
-269.326	57.931	0.091	-0.089
-268.311	-150.383	-0.353	-0.027
-267.297	92.865	0.020	0.022
-266.282	-74.917	0.414	-0.148
-265.267	-88.705	0.183	0.054
-264.253	800.000	-0.040	0.153
-263.238	-92.009	-0.285	-0.081
-262.224	-78.186	-0.129	-0.044
-261.209	-22.667	-0.235	0.142
-260.195	80.722	-0.043	0.046
-259.180	144.787	-0.133	0.177
-258.165	305.389	0.196	0.363
-257.151	-200.000	-0.018	0.177
-256.136	506.289	0.060	-0.139
-255.122	651.909	0.111	-0.283
-254.107	800.000	-0.014	0.057
-253.092	10.981	0.149	0.113
-252.078	800.000	0.057	-0.186
-251.063	154.340	0.143	0.195
-250.049	122.317	-0.078	-0.097
-249.034	800.000	0.040	-0.150
-248.019	-117.589	-0.285	-0.051
-247.005	-18.626	0.139	-0.086
-245.990	-126.014	0.162	0.024
-244.976	800.000	0.018	-0.052
-243.961	-24.877	-0.276	-0.163
-242.946	123.968	0.050	-0.063
-241.932	66.938	0.185	0.188
-240.917	-200.000	0.078	0.351
-239.903	-5.778	0.070	0.048
-238.888	84.343	0.156	-0.170
-237.873	-186.895	0.440	0.006
-236.859	-200.000	-0.034	-0.280
-235.844	9.100	-0.034	-0.026
-234.830	-106.127	0.421	0.094
-233.815	-50.495	-0.315	0.148
-232.800	-28.629	0.266	0.153
-231.786	-200.000	-0.092	0.602
-230.771	-200.000	-0.134	0.000
-229.757	-103.316	-0.308	-0.072
-228.742	535.187	-0.039	0.091
-227.727	128.608	0.214	0.271
-226.713	-113.822	-0.117	0.023
-225.698	263.307	-0.181	0.313
-224.684	34.816	0.019	0.016
-223.669	-200.000	0.040	-0.211
-222.655	66.300	-0.248	0.251
-221.640	-76.812	-0.148	0.052
-220.625	-49.324	0.360	-0.171
-219.611	196.755	-0.177	-0.268
-218.596	-200.000	0.043	0.194
-217.582	-200.000	0.063	0.448
-216.567	5.878	0.115	-0.085
-215.552	7.037	-0.074	0.055
-214.538	48.677	0.162	-0.151
-213.523	-174.535	0.271	0.008
-212.509	800.000	0.080	-0.235
-211.494	-29.403	0.121	-0.069
-210.479	-200.000	-0.002	-0.243
-209.465	-31.042	-0.110	-0.062
-208.450	125.411	0.269	0.338
-207.436	104.213	-0.188	-0.221
-206.421	-85.310	-0.316	-0.098
-205.406	296.225	0.163	0.298
-204.392	218.325	0.168	0.266
-203.377	-200.000	-0.032	-0.338
-202.363	-136.519	0.336	0.039
-201.348	322.737	0.060	-0.113
-200.333	146.245	-0.032	0.043
-199.319	800.000	0.035	0.149
-198.304	28.387	-0.091	-0.076
-197.290	800.000	-0.067	-0.221
-196.275	27.875	-0.110	0.093
-195.260	-86.065	0.213	-0.066
-194.246	94.725	0.146	0.166
-193.231	-18.990	0.150	-0.093
-192.217	-110.807	-0.105	-0.022
-191.202	800.000	0.056	-0.206
-190.187	201.139	-0.117	0.179
-189.173	70.881	0.089	0.092
-188.158	399.936	0.008	-0.016
-187.144	-200.000	-0.002	0.136
-186.129	-65.924	0.186	0.074
-185.114	181.071	-0.041	0.060
-184.100	-5.030	-0.376	0.257
-183.085	169.164	0.173	-0.245
-182.071	13.841	-0.191	0.147
-181.056	416.429	-0.150	0.318
-180.042	134.491	-0.226	-0.292
-179.027	126.576	-0.093	0.117
-178.012	-200.000	-0.015	-0.131
-176.998	-72.244	0.198	-0.073
-175.983	28.574	-0.062	-0.052
-174.969	-64.205	0.178	0.072
-173.954	800.000	0.095	-0.320
-172.939	-126.842	0.297	0.044
-171.925	-104.222	-0.209	0.048
-170.910	-105.940	0.162	-0.036
-169.896	745.557	-0.095	-0.254
-168.881	800.000	-0.052	-0.144
-167.866	-63.707	0.280	0.114
-166.852	107.774	-0.347	0.410
-165.837	145.192	0.113	0.151
-164.823	-64.785	0.247	0.099
-163.808	130.469	0.126	-0.161
-162.793	37.125	-0.035	0.031
-161.779	-64.682	0.062	0.025
-160.764	55.300	0.356	-0.342
-159.750	368.873	0.088	0.177
-158.735	382.082	0.129	-0.264
-157.720	73.722	0.193	0.201
-156.706	-87.793	-0.466	0.139
-155.691	-200.000	-0.001	-0.195
-154.677	-64.479	0.237	-0.096
-153.662	-29.402	-0.141	0.080
-152.647	345.002	-0.032	0.062
-151.633	800.000	-0.110	0.365
-150.618	248.881	-0.036	0.060
-149.604	-186.804	-0.251	0.003
-148.589	800.000	-0.138	-0.417
-147.574	-200.000	0.014	-0.215
-146.560	-85.299	0.249	-0.077
-145.545	-48.698	-0.095	-0.045
-144.531	-120.588	0.519	-0.087
-143.516	-157.828	-0.397	-0.023
-142.502	-200.000	-0.005	0.114
-141.487	-65.417	-0.447	-0.179
-140.472	800.000	0.086	-0.238
-139.458	436.039	-0.025	-0.053
-138.443	-125.344	-0.398	0.060
-137.429	34.418	0.019	0.017
-136.414	-148.877	-0.082	0.007
-135.399	-144.048	0.192	-0.018
-134.385	338.693	0.083	0.161
-133.370	-112.079	0.281	-0.056
-132.356	-200.000	0.051	0.237
-131.341	800.000	-0.025	-0.108
-130.326	-200.000	0.007	-0.126
-129.312	-134.690	-0.267	0.032
-128.297	32.224	-0.150	0.129
-127.283	72.888	-0.126	0.130
-126.268	31.562	-0.099	0.085
-125.253	800.000	-0.021	-0.088
-124.239	-72.669	-0.352	0.129
-123.224	-22.536	-0.032	-0.019
-122.210	-57.783	0.190	0.083
-121.195	-100.072	0.061	-0.015
-120.180	-138.218	-0.107	0.012
-119.166	-121.867	-0.171	-0.028
-118.151	130.841	-0.113	-0.144
-117.137	-200.000	0.010	0.170
-116.122	-79.785	-0.180	-0.060
-115.107	-156.412	0.001	0.000
-114.093	109.405	-0.072	0.085
-113.078	-37.015	0.177	0.094
-112.064	251.194	-0.119	0.201
-111.049	-104.200	-0.229	0.053
-110.034	101.391	0.100	0.115
-109.020	-38.192	-0.159	0.084
-108.005	508.793	0.013	-0.031
-106.991	-146.919	0.171	0.015
-105.976	-200.000	-0.057	-0.333
-104.962	43.215	0.207	-0.188
-103.947	132.226	0.064	0.082
-102.932	581.653	0.097	0.235
-101.918	-200.000	-0.008	0.087
-100.903	-200.000	0.006	0.077
-99.889	-200.000	0.019	-0.100
-98.874	-200.000	0.022	0.123
-97.859	220.488	-0.194	-0.308
-96.845	800.000	0.174	-0.531
-95.830	507.953	-0.047	-0.109
-94.816	-158.183	0.270	0.016
-93.801	-11.698	0.231	0.151
-92.786	43.160	-0.234	0.211
-91.772	-108.805	0.149	0.032
-90.757	15.832	-0.260	0.203
-89.743	800.000	0.049	-0.191
-88.728	274.191	0.134	0.236
-87.713	-78.175	-0.335	-0.114
-86.699	403.850	0.116	-0.241
-85.684	-155.784	0.155	0.010
-84.670	800.000	0.109	0.325
-83.655	800.000	-0.019	0.066
-82.640	-117.482	0.159	0.028
-81.626	80.900	0.257	-0.274
-80.611	9.612	0.067	-0.050
-79.597	-76.356	0.694	0.242
-78.582	-166.441	-0.134	-0.006
-77.567	-124.282	0.176	0.027
-76.553	285.126	-0.155	-0.276
-75.538	800.000	-0.081	0.270
-74.524	51.361	-0.290	-0.273
-73.509	-44.369	-0.135	0.067
-72.494	-200.000	0.098	0.487
-71.480	-125.347	-0.169	-0.026
-70.465	-200.000	-0.024	-0.274
-69.451	-200.000	0.012	-0.175
-68.436	302.985	-0.143	0.263
-67.422	-32.342	0.309	0.171
-66.407	105.187	0.099	-0.116
-65.392	364.534	0.046	0.091
-64.378	-68.586	-0.044	0.017
-63.363	800.000	0.057	-0.196
-62.349	-200.000	-0.011	0.352
-61.334	28.028	-0.769	-0.643
-60.319	-50.348	0.230	0.107
-59.305	-200.000	-0.238	-1.143
-58.290	189.631	0.546	0.810
-57.276	641.040	0.676	1.704
-56.261	-200.000	91.990	548.020
-55.246	526.297	1375.269	3206.465
-54.232	152.018	2576.067	3477.571
-53.217	116.601	2176.295	2642.165
-52.203	48.399	1635.109	1515.277
-51.188	40.408	1370.573	1221.099
-50.173	36.934	1328.069	1162.390
-49.159	57.589	1375.632	1330.514
-48.144	61.919	1393.816	1374.440
-47.130	40.529	1349.257	1202.651
-46.115	36.780	1331.734	1164.486
-45.100	36.661	1326.627	1159.262
-44.086	36.614	1323.954	1156.598
-43.071	36.654	1321.672	1154.797
-42.057	36.573	1319.364	1152.250
-41.042	36.543	1318.294	1151.092
-40.027	36.589	1316.616	1149.857
-39.013	36.665	1314.690	1148.580
-37.998	36.711	1312.570	1146.955
-36.984	36.633	1310.779	1144.883
-35.969	36.729	1308.888	1143.753
-34.954	36.862	1307.161	1142.981
-33.940	36.783	1305.802	1141.284
-32.925	36.833	1304.280	1140.200
-31.911	36.909	1303.090	1139.567
-30.896	36.909	1301.473	1138.104
-29.881	36.919	1300.138	1136.948
-28.867	36.806	1298.755	1135.034
-27.852	36.961	1296.881	1134.258
-26.838	36.841	1295.629	1132.417
-25.823	36.844	1294.550	1131.448
-24.809	36.802	1292.988	1129.788
-23.794	36.806	1291.462	1128.437
-22.779	36.704	1290.584	1127.029
-21.765	36.783	1289.286	1126.312
-20.750	36.741	1288.095	1124.980
-19.736	36.559	1286.976	1122.902
-18.721	36.623	1285.554	1121.989
-17.706	36.685	1284.035	1120.979
-16.692	36.902	1282.452	1120.808
-15.677	36.810	1281.627	1119.511
-14.663	36.681	1280.900	1118.086
-13.648	36.714	1279.492	1117.004
-12.633	36.751	1278.376	1116.199
-11.619	36.723	1277.804	1115.489
-10.604	36.804	1276.976	1115.191
-9.590	36.577	1276.136	1113.107
-8.575	36.698	1275.012	1112.780
-7.560	36.702	1273.954	1111.836
-6.546	36.639	1273.424	1110.966
-5.531	36.636	1272.397	1110.008
-4.517	36.688	1271.670	1109.627
-3.502	36.713	1270.400	1108.617
-2.487	36.741	1269.568	1108.007
-1.473	36.616	1265.277	1103.504
-0.458	34.702	1248.846	1078.343
0.556	30.858	1228.671	1030.725
1.571	26.256	1231.792	1007.655
2.586	24.897	1246.689	1012.074
3.600	23.844	1235.208	996.763
4.615	17.483	1162.376	904.226
5.629	7.711	1083.726	794.352
6.644	3.180	1062.500	756.489
7.659	2.681	1059.950	752.160
8.673	2.592	1058.482	750.617
9.688	2.488	1057.210	749.138
10.702	2.892	1056.054	750.224
11.717	8.957	1064.488	785.947
12.731	19.004	1078.956	846.228
13.746	24.912	1085.954	880.799
14.761	26.149	1087.577	888.131
15.775	26.159	1087.848	888.322
16.790	26.039	1086.840	886.828
17.804	25.959	1086.151	885.796
18.819	26.125	1085.717	886.180
19.834	26.287	1084.817	886.161
20.848	26.371	1084.310	886.080
21.863	26.309	1084.363	885.738
22.877	26.268	1083.643	884.875
23.892	26.086	1082.880	883.279
24.907	26.207	1082.473	883.465
25.921	26.269	1080.907	882.407
26.936	26.199	1079.703	881.006
27.950	26.137	1078.127	879.338
28.965	25.953	1076.401	876.959
29.980	26.164	1074.258	876.160
30.994	26.286	1073.936	876.412
32.009	26.259	1073.337	875.714
33.023	26.129	1071.578	873.573
34.038	26.184	1070.795	873.122
35.053	26.284	1070.496	873.288
36.067	26.261	1069.445	872.239
37.082	26.334	1069.149	872.277
38.096	26.427	1068.532	872.144
39.111	26.548	1067.388	871.714
40.126	26.288	1066.406	869.584
41.140	25.991	1064.642	866.639
42.155	25.749	1063.168	864.206
43.169	25.840	1062.034	863.641
44.184	25.875	1061.156	863.017
45.199	25.814	1059.942	861.664
46.213	25.972	1058.944	861.530
47.228	26.115	1058.173	861.510
48.242	26.099	1058.007	861.222
49.257	26.020	1057.261	860.163
50.271	26.233	1056.857	860.775
51.286	26.274	1056.154	860.320
52.301	26.300	1054.700	859.183
53.315	26.162	1054.048	857.917
54.330	26.043	1053.012	856.437
55.344	26.152	1052.127	856.159
56.359	26.071	1051.468	855.159
57.374	26.022	1050.051	853.703
58.388	26.079	1049.026	853.064
59.403	25.807	1048.943	851.631
60.417	25.688	1047.927	850.169
61.432	25.938	1047.129	850.627
62.447	25.925	1046.731	850.168
63.461	26.032	1045.970	849.979
64.476	25.944	1044.588	848.367
65.490	25.825	1043.883	847.160
66.505	25.983	1043.269	847.327
67.520	25.917	1043.053	846.766
68.534	25.800	1041.545	844.921
69.549	25.473	1040.133	842.166
70.563	25.351	1039.558	841.056
71.578	25.302	1039.415	840.635
72.593	25.182	1038.137	838.968
73.607	25.404	1037.846	839.694
74.622	25.616	1037.331	840.197
75.636	25.754	1036.396	840.008
76.651	25.689	1035.537	838.934
77.666	25.596	1034.738	837.780
78.680	25.682	1033.846	837.384
79.695	25.645	1033.676	837.001
80.709	25.805	1032.836	836.988
81.724	25.820	1031.994	836.302
82.739	25.978	1031.121	836.252
83.753	26.136	1030.962	836.784
84.768	26.416	1030.031	837.250
85.782	26.768	1028.776	837.781
86.797	26.449	1028.397	835.927
87.812	26.307	1027.247	834.263
88.826	26.400	1026.282	833.834
89.841	26.511	1025.614	833.729
90.855	26.471	1024.784	832.795
91.870	26.490	1023.536	831.796
92.884	26.271	1022.425	829.813
93.899	26.307	1021.368	829.048
94.914	26.420	1020.592	828.862
95.928	26.303	1019.872	827.668
96.943	26.065	1018.457	825.358
97.957	25.802	1017.205	823.070
98.972	25.832	1016.024	822.175
99.987	25.967	1015.654	822.421
101.001	26.150	1014.580	822.309
102.016	26.214	1014.001	822.060
103.030	26.126	1012.996	820.775
104.045	25.870	1012.263	818.943
105.060	25.812	1010.914	817.518
106.074	25.969	1010.520	817.839
107.089	26.370	1009.746	818.955
108.103	26.174	1008.886	817.298
109.118	25.931	1007.807	815.255
110.133	25.882	1006.973	814.283
111.147	25.771	1004.963	812.086
112.162	25.669	1004.560	811.231
113.176	25.834	1004.447	811.812
114.191	25.718	1003.733	810.639
115.206	25.542	1002.248	808.578
116.220	25.496	1001.765	807.908
117.235	25.648	1001.124	808.003
118.249	25.605	1000.213	807.004
119.264	25.475	999.084	805.440
120.279	25.506	998.527	805.056
121.293	25.695	997.549	805.044
122.308	25.604	996.985	804.109
123.322	25.611	995.992	803.268
124.337	25.327	994.768	800.944
125.352	24.943	992.754	797.540
126.366	24.869	992.090	796.609
127.381	25.701	992.053	800.209
128.395	25.966	992.241	801.467
129.410	26.197	991.230	801.606
130.424	26.207	989.729	800.365
131.439	26.215	989.070	799.795
132.454	26.135	988.248	798.707
133.468	26.105	987.379	797.800
134.483	26.148	987.182	797.762
135.497	26.389	986.215	797.976
136.512	26.326	985.325	796.904
137.527	26.464	984.292	796.605
138.541	26.453	983.684	795.998
139.556	26.491	982.635	795.244
140.570	26.445	982.377	794.763
141.585	26.577	980.867	794.050
142.600	26.416	980.220	792.749
143.614	26.655	979.282	792.969
144.629	26.772	979.019	793.195
145.643	26.541	977.294	790.722
146.658	26.424	976.157	789.222
147.673	26.323	974.613	787.461
148.687	26.221	973.720	786.228
149.702	26.211	972.720	785.306
150.716	26.160	971.932	784.378
151.731	26.283	971.247	784.289
152.746	26.468	970.741	784.613
153.760	26.551	970.191	784.462
154.775	26.545	969.604	783.892
155.789	26.600	968.836	783.437
156.804	26.423	967.985	781.917
157.819	26.541	967.220	781.736
158.833	26.727	966.483	781.876
159.848	26.691	965.332	780.719
160.862	26.503	963.954	778.729
161.877	26.549	963.020	778.102
162.892	26.573	961.947	777.271
163.906	26.501	961.190	776.280
164.921	26.464	960.033	775.120
165.935	26.591	959.023	774.780
166.950	26.716	958.284	774.647
167.964	26.665	957.255	773.529
168.979	26.380	956.648	771.754
169.994	26.386	955.264	770.595
171.008	26.645	954.755	771.217
172.023	26.628	954.043	770.503
173.037	26.405	953.000	768.644
174.052	26.194	952.047	766.912
175.067	26.095	951.688	766.134
176.081	26.407	951.257	767.045
177.096	26.331	950.549	766.084
178.110	26.100	949.548	764.230
179.125	25.882	948.908	762.724
180.140	25.937	948.673	762.703
181.154	26.191	947.933	763.112
182.169	26.347	948.435	764.109
183.183	26.766	947.016	764.665
184.198	26.314	946.844	762.552
185.213	26.395	946.337	762.420
186.227	26.589	945.195	762.247
187.242	26.599	944.435	761.608
188.256	26.540	943.990	760.934
189.271	26.660	943.443	760.933
190.286	26.339	942.078	758.416
191.300	25.553	940.701	753.946
192.315	24.800	939.189	749.516
193.329	24.813	938.408	748.880
194.344	25.723	939.236	753.281
195.359	26.384	938.864	755.684
196.373	26.535	938.447	755.910
197.388	26.351	938.053	754.758
198.402	26.353	937.436	754.203
199.417	26.384	936.661	753.643
200.432	26.242	934.887	751.555
201.446	26.122	934.797	750.919
202.461	26.102	934.243	750.326
203.475	25.168	932.526	745.003
204.490	24.448	931.261	740.937
205.504	25.464	931.397	745.195
206.519	25.868	931.640	747.000
207.534	25.988	931.379	747.221
208.548	26.390	931.128	748.618
209.563	26.146	930.145	746.751
210.577	26.133	929.437	746.064
211.592	26.693	929.078	748.022
212.607	26.630	928.141	746.941
213.621	26.606	927.383	746.168
214.636	26.628	926.683	745.631
215.650	26.544	926.080	744.732
216.665	26.598	925.616	744.513
217.680	26.622	924.569	743.704
218.694	26.259	923.589	741.363
219.709	26.098	923.046	740.200
220.723	26.284	922.868	740.754
221.738	26.425	922.231	740.755
222.753	26.348	921.409	739.713
223.767	26.426	921.118	739.736
224.782	26.746	920.628	740.583
225.796	26.649	920.383	739.924
226.811	26.081	918.574	736.088
227.826	25.392	917.285	732.182
228.840	25.535	916.968	732.448
229.855	25.715	916.070	732.400
230.869	25.318	915.322	730.119
231.884	25.613	915.349	731.276
232.899	26.493	915.292	734.742
233.913	26.317	914.548	733.366
234.928	26.100	914.131	732.084
235.942	26.214	913.813	732.229
236.957	25.984	912.515	730.195
237.972	26.027	911.675	729.631
238.986	26.069	911.499	729.594
240.001	26.065	910.715	728.888
241.015	26.308	909.942	729.186
242.030	26.273	909.714	728.796
243.045	26.461	909.765	729.530
244.059	26.467	909.295	729.114
245.074	26.311	907.958	727.349
246.088	26.187	906.628	725.721
247.103	26.300	906.679	726.149
248.117	26.969	906.365	728.519
249.132	27.175	906.517	729.407
250.147	27.168	906.152	729.018
251.161	27.362	905.371	729.105
252.176	27.201	905.086	728.167
253.190	27.393	904.184	728.144
254.205	27.459	903.855	728.077
255.220	27.338	903.584	727.312
256.234	27.223	902.854	726.200
257.249	27.072	901.805	724.690
258.263	27.276	901.214	724.963
259.278	27.289	900.179	724.118
260.293	27.308	899.878	723.888
261.307	27.245	899.195	723.026
262.322	27.168	898.122	721.791
263.336	26.321	896.221	716.844
264.351	25.379	894.350	711.554
265.366	25.288	894.506	711.252
266.380	26.432	895.075	716.174
267.395	26.904	894.879	717.825
268.409	26.769	894.089	716.594
269.424	27.220	893.358	717.724
270.439	27.069	892.971	716.755
271.453	27.205	892.543	716.885
272.468	27.287	891.951	716.667
273.482	27.350	891.568	716.545
274.497	26.927	890.121	713.656
275.512	26.489	889.696	711.528
276.526	27.032	889.516	713.454
277.541	27.205	889.203	713.821
278.555	26.907	888.299	711.863
279.570	26.845	887.553	710.960
280.585	27.009	887.209	711.264
281.599	26.974	886.160	710.222
282.614	26.344	884.878	706.668
283.628	26.363	884.621	706.476
284.643	26.667	884.372	707.404
285.657	26.309	883.225	705.025
286.672	26.178	881.894	703.393
287.687	26.529	882.675	705.320
288.701	26.654	881.834	705.072
289.716	26.276	880.790	702.706
290.730	26.401	880.182	702.643
291.745	26.058	879.187	700.458
292.760	26.365	879.596	701.913
293.774	27.310	880.092	705.913
294.789	27.710	879.241	706.718
295.803	27.577	879.011	705.957
296.818	27.726	878.070	705.716
297.833	27.211	876.885	702.708
298.847	27.087	876.377	701.763
299.862	27.448	876.236	702.983
300.876	27.654	876.014	703.535
301.891	27.564	874.722	702.089
302.906	27.186	874.099	700.071
303.920	27.252	873.721	699.959
304.935	27.666	873.483	701.302
305.949	27.545	873.008	700.391
306.964	27.230	872.445	698.670
307.979	27.408	871.619	698.629
308.993	27.819	871.094	699.721
310.008	27.945	870.401	699.586
311.022	27.427	870.068	697.274
312.037	27.402	869.354	696.544
313.052	27.069	868.721	694.702
314.066	26.051	867.038	689.404
315.081	25.806	866.191	687.736
316.095	26.814	866.538	691.798
317.110	27.195	866.347	693.036
318.125	26.537	864.572	689.052
319.139	25.335	863.289	683.397
320.154	25.453	862.810	683.407
321.168	26.286	863.353	686.944
322.183	27.078	863.426	689.950
323.197	26.988	863.610	689.696
324.212	27.361	862.915	690.495
325.227	27.363	862.299	689.949
326.241	27.139	861.759	688.607
327.256	27.150	860.651	687.703
328.270	27.112	860.021	686.995
329.285	26.999	859.212	685.860
330.300	26.710	858.552	684.182
331.314	26.799	858.463	684.384
332.329	27.433	858.008	686.352
333.343	27.575	857.700	686.580
334.358	27.468	857.692	686.111
335.373	27.586	857.364	686.233
336.387	27.792	857.132	686.761
337.402	27.947	856.912	687.107
338.416	27.844	856.921	686.665
339.431	28.023	856.401	686.861
340.446	28.140	856.293	687.154
341.460	28.077	855.209	685.985
342.475	27.803	854.748	684.528
343.489	27.817	854.562	684.371
344.504	28.280	853.931	685.537
345.519	28.400	853.854	685.867
346.533	28.365	853.255	685.192
347.548	28.309	852.920	684.655
348.562	28.129	852.348	683.464
349.577	28.274	851.449	683.220
350.592	28.174	850.738	682.217
351.606	28.159	850.518	681.924
352.621	28.077	849.255	680.547
353.635	28.070	848.822	680.112
354.650	27.370	846.954	675.958
355.665	26.550	845.427	671.639
356.679	26.768	845.296	672.284
357.694	27.338	845.015	674.112
358.708	27.165	844.526	673.022
359.723	27.494	844.581	674.224
360.738	27.966	843.813	675.295
361.752	28.059	843.083	674.996
362.767	28.431	843.161	676.370
363.781	28.547	842.893	676.526
364.796	28.707	842.428	676.680
365.810	28.688	842.020	676.224
366.825	28.535	841.716	675.356
367.840	28.411	840.829	674.128
368.854	27.887	840.175	671.618
369.869	27.877	839.666	671.114
370.883	28.097	839.442	671.686
371.898	28.044	838.827	670.940
372.913	27.902	838.360	669.986
373.927	28.187	837.949	670.642
374.942	28.318	837.404	670.625
375.956	28.297	837.474	670.548
376.971	28.492	836.982	670.807
377.986	28.610	836.546	670.830
379.000	28.676	835.864	670.463
380.015	28.574	835.066	669.392
381.029	28.571	834.695	669.026
382.044	28.561	834.638	668.882
383.059	28.657	833.495	668.259
384.073	28.699	833.033	667.981
385.088	28.593	832.226	666.889
386.102	28.404	831.395	665.479
387.117	28.368	830.836	664.842
388.132	27.965	829.457	662.218
389.146	27.430	828.825	659.719
390.161	27.941	828.796	661.488
391.175	28.458	828.414	662.993
392.190	28.090	827.610	660.963
393.205	26.576	825.549	653.794
394.219	25.165	823.822	647.281
395.234	25.021	823.183	646.202
396.248	26.647	825.000	653.444
397.263	28.087	825.857	659.258
398.278	28.059	825.403	658.737
399.292	27.828	824.989	657.519
400.307	27.904	824.245	657.138
401.321	27.912	823.979	656.898
402.336	28.387	823.677	658.307
403.350	28.796	823.866	659.869
404.365	29.069	823.503	660.498
405.380	29.403	823.016	661.247
406.394	29.398	822.638	660.866
407.409	29.191	822.303	659.797
408.423	29.284	821.944	659.784
409.438	29.298	821.679	659.563
410.453	29.388	820.961	659.252
411.467	29.400	820.141	658.576
412.482	29.345	819.899	658.127
413.496	29.362	819.995	658.207
414.511	29.372	819.312	657.637
415.526	29.281	818.775	656.823
416.540	29.329	817.944	656.268
417.555	28.981	817.259	654.424
418.569	29.149	816.858	654.644
419.584	29.071	816.158	653.745
420.599	28.851	815.943	652.736
421.613	105.477	1281.536	1429.500
422.628	91.185	1349.372	1429.617
