DTS Sentinel unit serial number:	SN413079Multiplexer serial number:	ORYXHardware model number:	OX4-SRSoftware version number:	ORYX F/W v4.00 Oryx Data Collector v3.7.2.0data status	okinstallation	princeton_trtdifferential loss correction	single-endedforward channel	channel 1reverse channel	N/Adate	2019/09/18time	06:10:35forward acquisition time	60.00reverse acquisition time	0.00gamma	496.2192k internal	0.2339k external	0.2339temperature offset calibration	0.9980default loss term (dB/km)	0.3790temperature slope calibration	1.0000multiplexer offset coefficient	1.0000multiplexer slope coefficient	1.0000fibre end	0.00T internal ref (°C)	23.19T ext. ref 1 (°C)	0.19T ext. ref 2 (°C)	17.74length (m)	temperature (°C)	Stokes	anti-Stokes-747.200	288.550	-0.089	0.161
-746.185	800.000	-0.035	0.103
-745.171	-200.000	0.026	0.251
-744.156	-149.545	-0.514	0.041
-743.142	800.000	0.151	0.534
-742.127	217.770	-0.281	0.449
-741.112	-59.962	0.177	0.076
-740.098	42.698	-0.256	0.234
-739.083	377.989	0.071	0.145
-738.069	800.000	-0.085	0.292
-737.054	726.826	-0.031	-0.083
-736.039	-77.716	-0.185	-0.064
-735.025	69.900	-0.184	0.190
-734.010	53.753	-0.276	-0.266
-732.996	68.863	-0.238	-0.245
-731.981	-121.553	-0.381	-0.063
-730.966	287.912	0.104	0.190
-729.952	434.741	-0.053	0.116
-728.937	15.191	0.244	-0.192
-727.923	67.046	-0.110	-0.112
-726.908	-200.000	-0.014	-0.129
-725.894	396.476	-0.139	-0.292
-724.879	-162.361	0.385	-0.019
-723.864	-90.669	0.221	-0.064
-722.850	145.253	0.063	0.085
-721.835	-200.000	0.009	0.050
-720.821	141.498	-0.068	0.091
-719.806	-200.000	-0.067	0.302
-718.791	104.637	0.064	0.075
-717.777	166.228	-0.072	-0.103
-716.762	35.067	-0.276	0.243
-715.748	383.948	-0.077	-0.158
-714.733	44.097	-0.058	-0.053
-713.718	-1.062	-0.198	-0.141
-712.704	354.772	0.118	-0.235
-711.689	74.144	-0.195	-0.205
-710.675	-137.952	-0.057	0.006
-709.660	-200.000	-0.049	0.294
-708.645	-200.000	0.035	0.289
-707.631	-91.524	0.402	-0.115
-706.616	-155.344	0.249	-0.016
-705.602	42.532	-0.117	0.106
-704.587	177.300	0.016	-0.023
-703.572	800.000	0.082	0.270
-702.558	-89.645	0.096	-0.028
-701.543	192.328	-0.179	0.270
-700.529	-171.098	-0.100	0.003
-699.514	800.000	0.093	-0.296
-698.499	800.000	-0.127	-0.361
-697.485	-200.000	0.028	0.233
-696.470	36.759	-0.059	-0.052
-695.456	-200.000	0.075	0.345
-694.441	507.443	0.047	0.109
-693.426	388.851	0.069	-0.144
-692.412	-33.519	-0.132	-0.073
-691.397	397.693	-0.121	0.254
-690.383	-200.000	0.015	-0.225
-689.368	4.279	0.029	-0.021
-688.354	-14.593	-0.206	0.133
-687.339	-31.013	-0.092	0.052
-686.324	-87.498	-0.375	0.113
-685.310	243.331	-0.088	0.147
-684.295	-97.745	-0.304	-0.079
-683.281	-145.854	-0.167	-0.015
-682.266	306.987	-0.050	0.092
-681.251	800.000	0.062	0.269
-680.237	-68.027	-0.184	-0.072
-679.222	-200.000	0.041	0.226
-678.208	-109.968	0.135	0.028
-677.193	800.000	-0.059	0.209
-676.178	800.000	-0.041	-0.122
-675.164	379.560	-0.131	-0.268
-674.149	-29.713	0.166	-0.094
-673.135	800.000	-0.016	0.052
-672.120	205.220	0.221	-0.343
-671.105	-31.491	0.262	0.147
-670.091	-115.318	-0.041	0.008
-669.076	800.000	0.145	-0.481
-668.062	-29.910	-0.131	0.075
-667.047	189.155	0.232	-0.347
-666.032	7.871	0.119	-0.089
-665.018	800.000	-0.016	0.049
-664.003	182.607	-0.148	0.218
-662.989	-200.000	-0.055	-0.257
-661.974	-52.859	-0.109	0.050
-660.959	-1.645	0.251	-0.177
-659.945	-11.820	-0.327	0.214
-658.930	136.474	0.103	0.134
-657.916	3.769	0.265	0.194
-656.901	-43.880	-0.205	-0.103
-655.886	306.378	-0.158	0.294
-654.872	-24.298	-0.050	0.030
-653.857	313.772	-0.215	-0.404
-652.843	-49.093	0.096	0.046
-651.828	54.934	-0.176	-0.170
-650.814	-17.239	0.292	-0.184
-649.799	-74.263	-0.273	-0.099
-648.784	-200.000	-0.042	-0.228
-647.770	-200.000	-0.030	0.186
-646.755	-4.847	0.045	0.031
-645.741	403.004	-0.149	-0.313
-644.726	43.246	0.068	-0.062
-643.711	-111.285	-0.130	-0.026
-642.697	-109.839	0.542	0.114
-641.682	772.937	0.048	-0.130
-640.668	395.279	-0.062	0.130
-639.653	430.880	-0.154	0.332
-638.638	336.880	-0.071	-0.138
-637.624	-200.000	0.049	-0.249
-636.609	-200.000	-0.028	0.331
-635.595	-165.273	0.078	-0.003
-634.580	-175.693	0.115	0.003
-633.565	800.000	0.143	-0.473
-632.551	185.143	-0.278	-0.412
-631.536	-42.625	-0.324	-0.165
-630.522	-131.047	-0.151	-0.020
-629.507	0.909	-0.287	-0.205
-628.492	-126.480	0.196	-0.029
-627.478	-28.396	-0.382	0.220
-626.463	133.619	-0.145	0.188
-625.449	800.000	-0.031	0.099
-624.434	-200.000	-0.046	0.285
-623.419	329.237	0.042	-0.080
-622.405	12.225	-0.225	-0.173
-621.390	83.458	-0.139	0.151
-620.376	-20.615	0.162	0.099
-619.361	257.069	-0.263	-0.451
-618.346	-105.856	0.251	-0.057
-617.332	65.333	0.148	0.150
-616.317	669.678	0.022	-0.056
-615.303	70.719	-0.296	-0.305
-614.288	-60.549	0.077	0.033
-613.273	-200.000	-0.065	0.361
-612.259	-200.000	-0.005	0.422
-611.244	-137.405	-0.315	0.036
-610.230	-132.125	0.321	-0.042
-609.215	42.664	0.167	-0.152
-608.201	-141.183	-0.260	-0.026
-607.186	800.000	0.039	0.124
-606.171	-179.489	0.219	-0.005
-605.157	16.906	-0.187	0.148
-604.142	77.282	-0.138	0.146
-603.128	-200.000	-0.016	-0.299
-602.113	93.714	0.176	0.199
-601.098	-108.664	-0.321	0.069
-600.084	-69.709	-0.285	0.109
-599.069	49.205	-0.277	-0.260
-598.055	712.675	0.034	-0.091
-597.040	-200.000	-0.010	0.165
-596.025	-129.584	0.238	0.033
-595.011	-200.000	-0.000	0.029
-593.996	18.388	-0.183	-0.145
-592.982	363.853	0.159	0.318
-591.967	412.052	0.075	0.159
-590.952	800.000	-0.081	0.243
-589.938	-200.000	-0.006	0.081
-588.923	-116.524	-0.179	0.033
-587.909	107.694	-0.104	0.123
-586.894	-14.861	-0.346	-0.221
-585.879	97.952	0.168	-0.193
-584.865	-79.694	-0.227	0.076
-583.850	-79.926	0.430	0.144
-582.836	-23.386	0.214	0.128
-581.821	-139.198	-0.185	0.020
-580.806	-40.836	-0.232	-0.120
-579.792	36.226	-0.131	0.115
-578.777	-31.324	0.389	-0.218
-577.763	14.179	0.138	-0.107
-576.748	800.000	-0.019	0.066
-575.733	289.296	-0.180	-0.325
-574.719	-143.599	0.414	-0.039
-573.704	800.000	-0.038	0.165
-572.690	-32.452	-0.158	0.088
-571.675	203.418	-0.163	0.252
-570.661	497.798	-0.094	0.216
-569.646	67.491	0.114	0.116
-568.631	-200.000	-0.004	0.089
-567.617	193.532	-0.087	0.130
-566.602	-105.452	-0.205	0.046
-565.588	-62.759	-0.395	-0.163
-564.573	33.966	-0.227	0.197
-563.558	357.639	-0.093	0.184
-562.544	-200.000	-0.055	-0.243
-561.529	-200.000	-0.039	0.304
-560.515	-31.537	-0.206	-0.115
-559.500	-200.000	-0.012	0.246
-558.485	-5.017	0.196	0.134
-557.471	-145.845	-0.066	-0.006
-556.456	800.000	0.032	0.091
-555.442	-7.833	-0.157	0.106
-554.427	62.109	0.090	-0.089
-553.412	800.000	-0.032	-0.097
-552.398	64.438	0.133	-0.133
-551.383	-200.000	0.006	-0.225
-550.369	119.486	-0.093	0.114
-549.354	-184.406	-0.208	0.003
-548.339	25.476	0.060	-0.049
-547.325	102.916	0.143	-0.167
-546.310	-110.468	-0.127	0.026
-545.296	-200.000	0.058	-0.438
-544.281	67.679	-0.145	-0.148
-543.266	-200.000	0.020	0.274
-542.252	800.000	-0.089	-0.283
-541.237	-103.890	-0.172	-0.040
-540.223	-76.379	0.073	-0.026
-539.208	800.000	-0.075	-0.307
-538.193	13.091	-0.051	-0.039
-537.179	105.045	-0.055	-0.064
-536.164	144.945	-0.071	-0.094
-535.150	-137.584	0.170	-0.019
-534.135	545.055	-0.118	-0.281
-533.121	-200.000	0.004	0.294
-532.106	-200.000	0.003	0.048
-531.091	30.521	-0.089	0.076
-530.077	-200.000	0.012	0.074
-529.062	176.598	0.213	0.308
-528.048	-200.000	0.011	-0.114
-527.033	-24.747	0.110	-0.065
-526.018	280.878	0.145	-0.258
-525.004	-200.000	0.069	-0.362
-523.989	235.319	0.117	0.192
-522.975	-200.000	0.008	-0.083
-521.960	-8.743	0.233	-0.156
-520.945	72.168	0.154	-0.159
-519.931	800.000	0.106	-0.326
-518.916	13.267	0.253	-0.195
-517.902	800.000	-0.092	-0.262
-516.887	-119.927	-0.078	0.013
-515.872	800.000	-0.015	-0.061
-514.858	-200.000	0.022	0.187
-513.843	-134.288	0.223	-0.027
-512.829	-200.000	-0.091	-0.529
-511.814	-51.777	-0.170	0.079
-510.799	18.655	0.119	-0.095
-509.785	66.015	-0.274	0.276
-508.770	-88.389	-0.344	0.102
-507.756	-200.000	-0.001	-0.099
-506.741	800.000	-0.017	0.056
-505.726	24.251	-0.053	-0.043
-504.712	-200.000	-0.022	0.345
-503.697	-170.948	-0.198	-0.007
-502.683	-172.435	-0.347	0.011
-501.668	-200.000	0.039	-0.284
-500.653	-19.639	0.294	-0.181
-499.639	800.000	-0.049	0.175
-498.624	-97.960	0.086	0.022
-497.610	-66.207	-0.019	-0.007
-496.595	331.512	-0.078	-0.150
-495.581	-22.135	0.203	0.122
-494.566	-40.492	-0.119	0.061
-493.551	-81.895	0.185	-0.060
-492.537	197.337	-0.190	-0.288
-491.522	-128.558	0.259	-0.036
-490.508	-15.014	-0.205	-0.131
-489.493	22.411	0.083	0.067
-488.478	-200.000	0.069	0.000
-487.464	-172.183	0.144	0.005
-486.449	-50.487	-0.273	-0.128
-485.435	800.000	0.107	-0.297
-484.420	354.791	0.069	-0.136
-483.405	-200.000	-0.017	0.129
-482.391	-44.109	-0.135	0.067
-481.376	-6.494	-0.050	-0.034
-480.362	-108.238	0.139	-0.030
-479.347	-134.935	0.211	-0.025
-478.332	-200.000	-0.039	-0.322
-477.318	761.780	0.051	0.137
-476.303	-0.390	0.138	0.097
-475.289	781.983	0.069	-0.187
-474.274	604.505	0.151	0.374
-473.259	64.681	-0.214	-0.214
-472.245	-166.344	-0.264	-0.011
-471.230	-90.565	0.192	0.055
-470.216	393.508	-0.089	-0.185
-469.201	-149.525	0.150	-0.012
-468.186	97.123	-0.272	0.310
-467.172	282.169	-0.064	0.114
-466.157	375.194	-0.093	0.189
-465.143	-81.115	0.205	0.067
-464.128	-200.000	0.016	0.143
-463.113	-37.858	0.054	-0.028
-462.099	-200.000	0.060	-0.284
-461.084	284.748	0.166	-0.297
-460.070	-200.000	0.016	-0.424
-459.055	460.247	-0.128	0.283
-458.040	96.664	-0.073	0.082
-457.026	138.313	0.252	-0.328
-456.011	-200.000	-0.000	-0.338
-454.997	-36.144	0.159	-0.085
-453.982	44.577	0.158	0.144
-452.968	-122.562	0.119	0.019
-451.953	153.564	-0.126	-0.171
-450.938	-62.996	-0.049	0.020
-449.924	-200.000	-0.052	-0.397
-448.909	-63.364	-0.171	0.070
-447.895	-134.896	-0.124	0.015
-446.880	800.000	-0.028	0.117
-445.865	-82.888	-0.252	-0.081
-444.851	443.367	0.079	-0.172
-443.836	421.300	0.138	-0.294
-442.822	202.801	-0.186	-0.285
-441.807	800.000	-0.106	0.370
-440.792	247.062	0.080	-0.134
-439.778	-93.256	-0.243	-0.067
-438.763	236.468	0.174	0.286
-437.749	6.785	0.100	0.073
-436.734	70.592	0.103	0.106
-435.719	53.763	0.175	0.166
-434.705	-89.815	-0.244	0.071
-433.690	-129.643	0.174	-0.024
-432.676	71.170	-0.082	0.085
-431.661	-51.328	0.282	-0.131
-430.646	125.129	0.114	0.142
-429.632	-169.723	-0.393	0.014
-428.617	-31.670	0.245	-0.136
-427.603	-78.812	-0.221	0.075
-426.588	-66.811	0.176	-0.069
-425.573	315.201	-0.063	-0.118
-424.559	-4.854	-0.393	-0.268
-423.544	-200.000	-0.008	0.263
-422.530	43.530	-0.133	0.121
-421.515	-192.816	0.276	0.002
-420.500	-38.258	0.074	-0.039
-419.486	211.475	-0.083	0.129
-418.471	10.885	0.162	0.122
-417.457	112.692	-0.085	0.101
-416.442	322.327	0.011	-0.021
-415.428	-52.088	0.295	-0.136
-414.413	11.246	-0.248	-0.188
-413.398	-3.634	0.193	0.133
-412.384	33.774	-0.184	0.158
-411.369	5.016	0.096	0.070
-410.355	118.432	-0.197	0.241
-409.340	122.482	0.206	-0.255
-408.325	50.418	-0.154	-0.144
-407.311	88.889	-0.203	-0.224
-406.296	-200.000	0.008	-0.260
-405.282	90.348	0.051	-0.056
-404.267	-165.776	-0.090	0.004
-403.252	383.914	0.063	-0.128
-402.238	573.812	0.151	0.364
-401.223	-93.137	0.090	-0.025
-400.209	-116.220	-0.228	-0.042
-399.194	-147.834	0.199	0.016
-398.179	-200.000	-0.047	-0.330
-397.165	229.988	-0.133	0.216
-396.150	-200.000	0.000	-0.049
-395.136	800.000	-0.111	0.305
-394.121	-200.000	0.013	-0.080
-393.106	-109.512	0.183	0.038
-392.092	130.056	-0.090	-0.114
-391.077	8.091	-0.223	-0.166
-390.063	223.504	0.209	-0.334
-389.048	371.653	0.057	-0.115
-388.033	-200.000	-0.021	0.245
-387.019	-200.000	0.020	-0.355
-386.004	800.000	0.072	-0.197
-384.990	-87.097	0.115	0.035
-383.975	339.780	-0.155	0.298
-382.960	-200.000	0.003	0.045
-381.946	-21.914	0.037	-0.022
-380.931	100.867	0.035	0.040
-379.917	-128.130	0.205	0.029
-378.902	584.724	0.091	0.222
-377.888	-200.000	0.069	0.370
-376.873	800.000	0.086	0.269
-375.858	162.601	0.186	0.258
-374.844	-92.739	0.049	-0.014
-373.829	-98.069	-0.113	-0.029
-372.815	234.923	-0.119	0.194
-371.800	408.183	0.043	-0.090
-370.785	54.352	-0.107	0.102
-369.771	-43.209	-0.180	0.090
-368.756	113.840	0.029	-0.035
-367.742	800.000	-0.075	-0.264
-366.727	-63.819	-0.286	-0.116
-365.712	-52.578	-0.148	-0.067
-364.698	-96.369	-0.345	0.090
-363.683	800.000	-0.056	0.208
-362.669	236.285	-0.050	-0.081
-361.654	-167.438	-0.146	0.006
-360.639	800.000	0.089	0.352
-359.625	-41.273	-0.128	0.065
-358.610	50.504	0.165	0.154
-357.596	363.622	-0.078	0.154
-356.581	-200.000	0.017	-0.085
-355.566	-47.488	-0.067	0.032
-354.552	77.703	0.170	-0.178
-353.537	-94.044	0.125	0.034
-352.523	91.344	-0.125	-0.138
-351.508	9.063	0.122	-0.091
-350.493	-89.404	0.184	0.053
-349.479	161.717	0.044	0.061
-348.464	28.032	0.396	0.330
-347.450	119.536	-0.152	0.186
-346.435	800.000	0.021	0.076
-345.420	112.148	0.184	-0.220
-344.406	-200.000	-0.005	-0.055
-343.391	-106.432	-0.151	0.033
-342.377	-200.000	0.038	0.166
-341.362	-200.000	-0.053	0.264
-340.348	98.711	-0.047	-0.053
-339.333	-57.592	0.100	0.043
-338.318	235.215	0.103	-0.167
-337.304	800.000	0.118	0.373
-336.289	-125.895	0.235	0.035
-335.275	-200.000	0.037	-0.201
-334.260	-108.154	0.292	0.063
-333.245	800.000	0.160	-0.439
-332.231	152.951	-0.056	-0.075
-331.216	-103.838	-0.127	0.029
-330.202	602.621	-0.046	-0.112
-329.187	-200.000	0.041	-0.217
-328.172	-200.000	0.070	-0.352
-327.158	410.628	0.095	0.198
-326.143	-93.086	0.315	0.087
-325.129	-112.996	0.157	0.031
-324.114	31.181	0.120	0.102
-323.099	47.366	0.190	0.175
-322.085	-23.895	-0.112	-0.066
-321.070	-41.697	0.230	0.116
-320.056	552.797	-0.054	-0.127
-319.041	-200.000	0.036	-0.215
-318.026	66.286	-0.068	-0.068
-317.012	336.857	-0.114	-0.218
-315.997	-42.174	-0.124	-0.062
-314.983	157.382	-0.133	-0.181
-313.968	23.136	-0.169	-0.137
-312.953	-6.790	0.093	-0.062
-311.939	-27.107	0.193	-0.111
-310.924	545.077	0.129	-0.305
-309.910	-1.168	0.132	0.092
-308.895	800.000	0.044	-0.191
-307.880	800.000	0.101	0.280
-306.866	-45.872	-0.053	-0.026
-305.851	135.338	-0.042	0.054
-304.837	-200.000	-0.005	-0.041
-303.822	4.225	-0.109	0.079
-302.807	404.212	-0.137	0.285
-301.793	-200.000	-0.001	-0.103
-300.778	-69.644	-0.284	0.107
-299.764	94.403	-0.157	0.176
-298.749	-200.000	0.094	0.469
-297.735	295.481	0.085	0.153
-296.720	252.808	-0.097	0.163
-295.705	188.779	-0.058	0.086
-294.691	140.609	-0.064	-0.084
-293.676	800.000	0.088	-0.307
-292.662	148.360	0.072	-0.096
-291.647	706.163	-0.063	0.163
-290.632	-200.000	-0.007	-0.129
-289.618	-98.831	-0.415	-0.104
-288.603	-88.658	0.605	0.177
-287.589	-74.632	-0.138	0.049
-286.574	21.630	-0.330	0.264
-285.559	800.000	0.026	-0.095
-284.545	-90.226	0.452	0.129
-283.530	-63.003	0.139	-0.057
-282.516	-105.049	-0.236	0.053
-281.501	-191.242	-0.217	0.002
-280.486	-148.353	-0.116	-0.009
-279.472	262.632	-0.202	-0.345
-278.457	-200.000	-0.230	-0.001
-277.443	25.670	-0.183	-0.150
-276.428	-81.059	0.301	-0.098
-275.413	-155.241	-0.193	-0.012
-274.399	-200.000	0.046	0.508
-273.384	-83.196	0.181	0.057
-272.370	98.245	0.060	0.068
-271.355	-200.000	-0.021	-0.284
-270.340	-200.000	0.043	0.318
-269.326	800.000	0.010	-0.035
-268.311	36.056	0.089	-0.078
-267.297	-89.643	-0.131	0.038
-266.282	-200.000	-0.016	-0.148
-265.267	-117.092	0.112	0.020
-264.253	6.944	0.044	-0.032
-263.238	-160.989	-0.297	-0.015
-262.224	12.522	-0.215	0.163
-261.209	-106.513	-0.208	0.046
-260.195	-83.592	0.392	0.123
-259.180	781.458	0.051	0.139
-258.165	76.831	0.105	0.110
-257.151	28.103	0.084	-0.069
-256.136	713.205	-0.042	-0.110
-255.122	-35.994	0.255	-0.136
-254.107	136.542	0.149	0.191
-253.092	-200.000	-0.013	-0.090
-252.078	-200.000	-0.075	-0.362
-251.063	46.455	0.103	0.094
-250.049	311.139	-0.118	0.218
-249.034	261.305	-0.066	-0.112
-248.019	800.000	0.081	-0.242
-247.005	-11.764	-0.228	0.147
-245.990	-200.000	0.053	0.307
-244.976	800.000	-0.044	-0.149
-243.961	-110.119	0.051	-0.010
-242.946	-73.167	0.114	0.041
-241.932	-34.566	-0.080	-0.043
-240.917	-191.291	0.122	-0.001
-239.903	-7.573	-0.064	-0.042
-238.888	800.000	-0.133	0.386
-237.873	111.071	0.217	0.257
-236.859	212.954	0.141	0.219
-235.844	362.755	-0.188	0.370
-234.830	-113.727	0.340	-0.065
-233.815	-104.626	0.078	0.018
-232.800	800.000	-0.034	-0.095
-231.786	4.985	0.310	0.224
-230.771	800.000	0.080	-0.221
-229.757	46.491	-0.246	0.224
-228.742	370.168	-0.080	-0.159
-227.727	-200.000	0.075	-0.343
-226.713	-98.235	-0.026	0.007
-225.698	-1.012	0.173	-0.120
-224.684	106.115	-0.196	0.228
-223.669	-200.000	0.038	0.228
-222.655	-200.000	-0.016	-0.101
-221.640	94.939	-0.166	-0.186
-220.625	99.461	0.139	-0.158
-219.611	-154.845	0.266	-0.017
-218.596	-110.771	0.145	0.029
-217.582	312.911	-0.139	-0.257
-216.567	28.403	-0.090	0.075
-215.552	-83.501	0.265	0.083
-214.538	800.000	0.089	-0.382
-213.523	-84.649	-0.213	-0.066
-212.509	18.669	0.095	0.075
-211.494	4.706	-0.113	0.082
-210.479	412.913	0.075	0.157
-209.465	-11.092	0.236	-0.153
-208.450	381.444	-0.107	0.216
-207.436	-89.639	0.067	0.019
-206.421	220.578	0.053	0.083
-205.406	-50.027	0.405	-0.189
-204.392	-174.196	-0.079	-0.002
-203.377	-96.940	-0.307	0.079
-202.363	-140.069	0.462	-0.048
-201.348	-160.679	-0.176	0.009
-200.333	230.823	-0.123	-0.197
-199.319	-5.234	0.098	-0.066
-198.304	-38.500	0.198	0.103
-197.290	130.914	-0.077	0.097
-196.275	426.999	-0.106	0.225
-195.260	39.887	0.042	0.037
-194.246	39.392	0.170	-0.150
-193.231	-200.000	0.003	0.310
-192.217	-28.888	-0.259	0.146
-191.202	-200.000	0.011	-0.099
-190.187	123.748	0.070	0.086
-189.173	-25.614	0.080	0.046
-188.158	-200.000	-0.004	-0.176
-187.144	-200.000	0.012	0.281
-186.129	298.955	0.076	0.138
-185.114	800.000	0.092	-0.294
-184.100	107.142	-0.050	0.058
-183.085	-140.204	0.373	-0.038
-182.071	607.671	-0.093	0.227
-181.056	-114.022	0.585	0.111
-180.042	-1.961	-0.167	-0.115
-179.027	-121.117	-0.112	0.018
-178.012	800.000	-0.083	0.293
-176.998	152.670	0.077	-0.103
-175.983	165.396	-0.066	-0.092
-174.969	-64.364	-0.129	0.052
-173.954	-200.000	-0.015	-0.087
-172.939	-43.218	0.133	-0.066
-171.925	-107.147	-0.166	-0.036
-170.910	401.919	-0.141	0.291
-169.896	-77.591	0.300	-0.102
-168.881	-3.795	-0.213	0.145
-167.866	-6.585	0.161	0.108
-166.852	-23.143	-0.091	-0.054
-165.837	-37.235	-0.061	0.032
-164.823	-200.000	-0.008	0.265
-163.808	-56.718	0.215	-0.093
-162.793	-152.904	-0.101	-0.007
-161.779	800.000	-0.078	0.262
-160.764	800.000	-0.058	-0.179
-159.750	24.230	0.138	0.112
-158.735	72.389	0.161	0.164
-157.720	82.757	-0.120	-0.128
-156.706	-84.057	0.022	0.007
-155.691	-200.000	0.003	-0.129
-154.677	-163.084	-0.047	0.002
-153.662	-200.000	0.015	0.167
-152.647	-129.148	0.290	-0.040
-151.633	169.248	0.090	0.126
-150.618	-158.778	0.373	0.021
-149.604	-200.000	0.105	-0.464
-148.589	40.190	-0.109	-0.096
-147.574	-44.752	-0.255	0.124
-146.560	-126.316	0.408	-0.060
-145.545	-63.433	0.226	-0.091
-144.531	122.297	0.342	0.419
-143.516	440.900	0.095	0.204
-142.502	42.165	-0.113	-0.100
-141.487	-87.630	0.246	-0.073
-140.472	183.883	-0.438	0.635
-139.458	67.107	0.132	-0.132
-138.443	-93.581	0.334	0.090
-137.429	330.013	-0.247	0.466
-136.414	18.852	-0.207	-0.163
-135.399	-16.557	0.116	-0.072
-134.385	293.948	0.058	0.104
-133.370	-200.000	-0.002	0.222
-132.356	-37.317	0.033	0.017
-131.341	-200.000	-0.036	-0.202
-130.326	-91.602	-0.106	0.030
-129.312	800.000	0.025	0.076
-128.297	34.043	-0.091	0.077
-127.283	120.155	0.290	-0.352
-126.268	-98.663	0.093	0.023
-125.253	277.782	0.175	-0.305
-124.239	-200.000	-0.021	-0.297
-123.224	-200.000	0.002	-0.480
-122.210	800.000	-0.097	-0.284
-121.195	11.955	0.181	-0.137
-120.180	800.000	-0.065	-0.260
-119.166	-200.000	-0.027	-0.123
-118.151	-140.055	0.188	-0.019
-117.137	-78.728	-0.285	-0.095
-116.122	-45.232	0.322	-0.156
-115.107	-113.233	0.148	0.028
-114.093	97.722	-0.132	0.149
-113.078	-21.083	-0.171	-0.102
-112.064	345.802	0.095	0.182
-111.049	-200.000	-0.030	0.165
-110.034	219.889	-0.069	-0.108
-109.020	343.420	-0.101	-0.194
-108.005	800.000	-0.089	0.339
-106.991	89.208	-0.218	-0.237
-105.976	-200.000	0.013	0.146
-104.962	233.638	-0.099	0.160
-103.947	-35.675	0.348	0.185
-102.932	122.520	-0.182	0.223
-101.918	71.112	-0.109	0.110
-100.903	-16.899	0.188	-0.116
-99.889	-176.757	0.196	0.005
-98.874	104.106	0.075	-0.086
-97.859	-200.000	0.001	0.015
-96.845	-1.102	0.311	0.215
-95.830	-0.399	-0.055	0.038
-94.816	26.810	-0.149	0.122
-93.801	800.000	-0.072	0.284
-92.786	800.000	-0.058	0.167
-91.772	-110.271	0.207	0.042
-90.757	-89.834	0.204	0.058
-89.743	76.114	0.096	0.100
-88.728	-200.000	0.037	-0.223
-87.713	-108.894	0.273	-0.057
-86.699	2.547	-0.193	-0.137
-85.684	28.604	0.161	-0.133
-84.670	423.139	0.176	0.369
-83.655	25.144	-0.086	-0.069
-82.640	-11.908	-0.238	-0.153
-81.626	-103.350	-0.211	0.049
-80.611	-85.290	-0.079	0.024
-79.597	-64.631	-0.280	-0.111
-78.582	-200.000	-0.005	0.024
-77.567	-0.919	-0.077	0.054
-76.553	-46.667	-0.048	-0.023
-75.538	-69.498	-0.067	-0.025
-74.524	-200.000	-0.076	-0.436
-73.509	-200.000	-0.042	0.239
-72.494	-200.000	0.056	-0.248
-71.480	-125.821	0.214	0.032
-70.465	-56.179	-0.144	0.063
-69.451	-114.996	-0.254	0.047
-68.436	144.980	0.075	-0.098
-67.422	69.683	0.287	-0.289
-66.407	-162.307	-0.059	-0.003
-65.392	262.034	0.094	-0.159
-64.378	88.967	0.108	0.117
-63.363	241.334	-0.056	-0.091
-62.349	-200.000	0.047	-0.214
-61.334	54.428	-0.864	-0.813
-60.319	800.000	0.164	0.680
-59.305	164.630	-0.933	-1.285
-58.290	595.960	0.759	1.835
-57.276	444.450	0.581	1.245
-56.261	-200.000	125.240	647.605
-55.246	404.667	1576.567	3243.552
-54.232	141.387	2736.219	3536.001
-53.217	94.765	2166.192	2405.270
-52.203	34.779	1596.781	1363.290
-51.188	26.336	1339.592	1092.872
-50.173	23.906	1302.327	1048.124
-49.159	51.760	1371.769	1273.943
-48.144	48.397	1383.304	1264.245
-47.130	26.530	1331.065	1086.908
-46.115	23.337	1312.326	1052.622
-45.100	23.164	1306.991	1047.280
-44.086	23.085	1304.192	1044.528
-43.071	23.064	1301.936	1042.554
-42.057	23.135	1299.222	1040.761
-41.042	23.090	1298.611	1039.964
-40.027	23.030	1296.912	1038.209
-39.013	23.075	1295.214	1037.074
-37.998	23.103	1293.075	1035.482
-36.984	23.200	1291.637	1034.855
-35.969	23.296	1289.593	1033.740
-34.954	23.174	1288.517	1032.125
-33.940	23.201	1286.593	1030.701
-32.925	23.226	1285.949	1030.286
-31.911	23.255	1283.823	1028.713
-30.896	23.268	1282.707	1027.853
-29.881	23.195	1282.020	1026.836
-28.867	23.324	1280.230	1026.108
-27.852	23.368	1278.635	1025.045
-26.838	23.372	1277.117	1023.810
-25.823	23.408	1275.648	1022.803
-24.809	23.327	1274.199	1021.130
-23.794	23.351	1273.149	1020.386
-22.779	23.247	1271.868	1018.723
-21.765	23.240	1270.909	1017.876
-20.750	23.306	1268.874	1016.582
-19.736	23.174	1267.979	1015.070
-18.721	23.129	1267.171	1014.122
-17.706	23.182	1266.242	1013.640
-16.692	23.079	1264.874	1011.916
-15.677	23.119	1263.596	1011.081
-14.663	23.101	1262.330	1009.927
-13.648	23.041	1261.633	1008.985
-12.633	23.127	1260.469	1008.508
-11.619	23.049	1260.075	1007.705
-10.604	23.128	1258.862	1007.144
-9.590	23.062	1258.149	1006.161
-8.575	23.084	1256.991	1005.320
-7.560	23.194	1255.986	1005.100
-6.546	23.147	1255.634	1004.512
-5.531	23.029	1254.726	1003.075
-4.517	23.190	1253.462	1002.939
-3.502	23.086	1252.962	1001.909
-2.487	23.128	1252.142	1001.453
-1.473	23.153	1247.483	997.829
-0.458	21.699	1232.621	977.789
0.556	16.928	1217.407	942.657
1.571	13.613	1225.750	930.449
2.586	13.038	1241.416	938.988
3.600	13.135	1229.283	930.278
4.615	9.589	1157.008	856.675
5.629	3.318	1085.860	772.552
6.644	0.425	1069.557	746.580
7.659	0.047	1067.802	743.418
8.673	0.046	1066.820	742.664
9.688	0.223	1065.237	742.369
10.702	0.379	1062.834	741.394
11.717	4.121	1067.157	762.796
12.731	11.237	1076.055	804.312
13.746	15.602	1082.122	830.391
14.761	16.664	1082.825	836.103
15.775	16.006	1081.552	831.802
16.790	15.171	1078.826	825.517
17.804	14.525	1077.615	821.336
18.819	13.976	1077.236	818.272
19.834	13.963	1075.808	817.053
20.848	13.593	1075.206	814.706
21.863	13.366	1074.311	812.841
22.877	13.215	1073.340	811.290
23.892	13.175	1072.641	810.496
24.907	13.186	1072.090	810.059
25.921	13.211	1071.297	809.511
26.936	13.268	1070.183	808.875
27.950	13.330	1069.295	808.437
28.965	13.408	1068.051	807.808
29.980	13.348	1066.780	806.483
30.994	13.338	1066.160	805.893
32.009	13.410	1064.891	805.213
33.023	13.487	1063.776	804.674
34.038	13.423	1062.428	803.268
35.053	13.293	1062.154	802.363
36.067	13.400	1060.601	801.637
37.082	13.272	1060.348	800.755
38.096	13.407	1059.504	800.697
39.111	13.259	1058.793	799.377
40.126	13.147	1057.761	797.984
41.140	13.148	1056.296	796.814
42.155	13.164	1055.249	796.030
43.169	13.217	1053.906	795.203
44.184	13.127	1052.934	793.963
45.199	13.153	1052.239	793.498
46.213	13.122	1051.368	792.622
47.228	13.207	1050.389	792.217
48.242	13.265	1049.013	791.390
49.257	13.319	1047.546	790.472
50.271	13.294	1046.961	789.839
51.286	13.259	1046.052	788.915
52.301	13.217	1045.111	787.938
53.315	13.207	1044.168	787.107
54.330	13.178	1043.170	786.148
55.344	13.142	1042.423	785.344
56.359	13.177	1041.414	784.680
57.374	13.271	1040.481	784.356
58.388	13.253	1039.792	783.681
59.403	13.142	1038.992	782.482
60.417	13.251	1037.856	782.076
61.432	13.106	1037.691	781.193
62.447	13.157	1036.750	780.659
63.461	13.086	1035.996	779.684
64.476	13.109	1035.094	779.049
65.490	13.011	1034.190	777.836
66.505	13.050	1033.632	777.533
67.520	12.972	1033.463	776.967
68.534	13.125	1032.305	776.748
69.549	13.107	1031.160	775.735
70.563	13.138	1030.180	775.075
71.578	13.066	1029.684	774.295
72.593	13.135	1028.414	773.592
73.607	13.098	1028.257	773.233
74.622	13.113	1027.765	772.864
75.636	13.006	1027.196	771.868
76.651	13.045	1026.233	771.258
77.666	12.999	1025.803	770.652
78.680	13.053	1024.990	770.225
79.695	13.083	1024.231	769.728
80.709	13.186	1023.455	769.558
81.724	13.148	1022.634	768.692
82.739	13.265	1021.938	768.644
83.753	13.222	1021.451	768.013
84.768	13.378	1020.022	767.594
85.782	13.244	1019.787	766.727
86.797	13.218	1018.934	765.897
87.812	13.196	1017.747	764.838
88.826	13.173	1017.044	764.132
89.841	13.251	1016.114	763.729
90.855	13.423	1014.662	763.361
91.870	13.276	1014.783	762.707
92.884	13.247	1013.700	761.694
93.899	13.470	1012.494	761.743
94.914	13.462	1011.804	761.121
95.928	13.503	1011.079	760.697
96.943	13.363	1010.048	759.211
97.957	13.375	1009.172	758.540
98.972	13.361	1008.337	757.782
99.987	13.235	1008.145	756.993
101.001	13.388	1006.462	756.361
102.016	13.365	1005.866	755.744
103.030	13.356	1005.422	755.300
104.045	13.324	1004.236	754.199
105.060	13.360	1003.414	753.676
106.074	13.278	1002.662	752.670
107.089	13.208	1001.487	751.405
108.103	13.183	1000.696	750.630
109.118	13.263	999.434	749.982
110.133	13.204	998.757	749.142
111.147	13.250	997.648	748.452
112.162	13.275	996.800	747.861
113.176	13.320	995.990	747.391
114.191	13.468	995.121	747.342
115.206	13.272	994.964	746.273
116.220	13.242	994.286	745.561
117.235	13.210	993.003	744.390
118.249	13.423	992.092	744.599
119.264	13.337	991.215	743.489
120.279	13.260	990.598	742.615
121.293	13.311	989.879	742.239
122.308	13.274	989.120	741.438
123.322	13.255	988.063	740.494
124.337	13.338	986.844	739.887
125.352	13.195	985.995	738.546
126.366	13.199	984.714	737.540
127.381	13.364	983.274	737.132
128.395	13.257	982.914	736.319
129.410	13.140	982.091	735.117
130.424	13.350	980.927	735.112
131.439	13.277	980.465	734.376
132.454	13.315	979.075	733.438
133.468	13.351	978.418	733.045
134.483	13.329	977.800	732.419
135.497	13.292	977.197	731.739
136.512	13.246	976.099	730.647
137.527	13.405	974.844	730.343
138.541	13.438	974.611	730.252
139.556	13.348	973.923	729.274
140.570	13.363	973.305	728.812
141.585	13.519	972.117	728.544
142.600	13.578	971.212	728.063
143.614	13.514	970.484	727.170
144.629	13.567	969.654	726.719
145.643	13.495	968.961	725.818
146.658	13.487	967.659	724.742
147.673	13.486	967.053	724.220
148.687	13.384	966.334	723.173
149.702	13.432	965.295	722.541
150.716	13.403	964.501	721.756
151.731	13.566	963.872	721.934
152.746	13.528	963.026	721.066
153.760	13.426	962.669	720.291
154.775	13.642	961.769	720.497
155.789	13.691	961.466	720.420
156.804	13.677	960.628	719.665
157.819	13.595	960.047	718.813
158.833	13.584	959.165	718.037
159.848	13.618	958.589	717.692
160.862	13.629	957.538	716.888
161.877	13.620	956.563	716.058
162.892	13.667	955.731	715.573
163.906	13.497	954.770	714.057
164.921	13.665	954.201	714.291
165.935	13.541	953.180	712.931
166.950	13.641	952.347	712.677
167.964	13.660	951.225	711.856
168.979	13.716	950.413	711.422
169.994	13.686	949.306	710.405
171.008	13.759	948.862	710.323
172.023	13.607	948.253	709.151
173.037	13.786	947.848	709.551
174.052	13.703	946.719	708.288
175.067	13.620	946.093	707.406
176.081	13.604	945.926	707.150
177.096	13.662	945.245	706.825
178.110	13.692	944.389	706.248
179.125	13.766	943.728	706.010
180.140	13.632	943.275	705.037
181.154	13.910	942.211	705.360
182.169	13.899	941.839	704.973
183.183	13.762	941.390	703.992
184.198	13.852	940.644	703.753
185.213	13.941	939.947	703.548
186.227	13.888	939.338	702.803
187.242	14.004	938.511	702.613
188.256	14.109	937.452	702.203
189.271	13.945	936.894	701.030
190.286	13.876	936.191	700.152
191.300	13.711	935.632	698.975
192.315	13.862	934.655	698.821
193.329	13.945	934.102	698.694
194.344	13.874	933.724	698.051
195.359	13.768	933.448	697.337
196.373	13.893	932.983	697.453
197.388	14.145	931.922	697.655
198.402	14.073	931.495	696.972
199.417	14.070	930.778	696.362
200.432	14.144	930.387	696.315
201.446	14.234	929.705	696.121
202.461	14.277	929.322	695.952
203.475	14.206	928.732	695.151
204.490	14.148	928.494	694.670
205.504	14.157	927.262	693.725
206.519	14.189	926.518	693.240
207.534	14.131	925.621	692.268
208.548	14.252	925.310	692.477
209.563	14.203	924.685	691.742
210.577	14.026	924.003	690.438
211.592	14.246	923.280	690.747
212.607	14.323	922.340	690.302
213.621	14.404	921.389	689.864
214.636	14.390	920.652	689.194
215.650	14.251	920.339	688.327
216.665	14.356	919.507	688.076
217.680	14.361	918.878	687.566
218.694	14.306	918.369	686.897
219.709	14.362	917.526	686.436
220.723	14.457	916.585	686.062
221.738	14.472	916.082	685.686
222.753	14.391	915.389	684.773
223.767	14.416	915.041	684.558
224.782	14.451	914.581	684.295
225.796	14.625	913.490	684.129
226.811	14.629	913.299	683.945
227.826	14.495	912.117	682.450
228.840	14.544	911.352	682.016
229.855	14.464	911.085	681.429
230.869	14.542	909.894	680.799
231.884	14.535	909.502	680.414
232.899	14.561	908.482	679.699
233.913	14.548	907.680	678.983
234.928	14.482	906.966	678.122
235.942	14.440	906.863	677.814
236.957	14.558	905.833	677.463
237.972	14.406	905.992	676.904
238.986	14.440	904.855	676.135
240.001	14.655	903.736	676.110
241.015	14.595	903.739	675.809
242.030	14.684	903.015	675.566
243.045	14.556	902.746	674.790
244.059	14.625	901.733	674.251
245.074	14.761	900.997	674.191
246.088	14.644	900.445	673.245
247.103	14.556	900.122	672.590
248.117	14.754	899.386	672.775
249.132	14.787	898.734	672.362
250.147	14.909	898.124	672.337
251.161	14.880	897.599	671.769
252.176	14.928	896.901	671.381
253.190	14.926	895.766	670.462
254.205	15.029	895.402	670.545
255.220	15.117	894.562	670.207
256.234	14.959	894.325	669.336
257.249	15.030	893.599	669.019
258.263	15.096	892.854	668.667
259.278	15.052	891.637	667.519
260.293	15.116	891.657	667.731
261.307	15.175	890.662	667.161
262.322	15.065	890.367	666.445
263.336	15.114	889.585	665.995
264.351	15.116	888.751	665.318
265.366	15.160	888.023	664.889
266.380	15.249	887.356	664.686
267.395	15.286	886.521	664.149
268.409	15.201	885.956	663.328
269.424	15.322	884.856	662.926
270.439	15.195	884.514	662.110
271.453	15.288	883.966	662.006
272.468	15.263	883.646	661.609
273.482	15.282	882.788	660.982
274.497	15.068	882.650	659.976
275.512	15.205	881.490	659.592
276.526	15.244	881.420	659.634
277.541	15.295	880.659	659.207
278.555	15.350	879.924	658.815
279.570	15.404	879.444	658.608
280.585	15.502	878.668	658.352
281.599	15.521	877.564	657.542
282.614	15.373	877.377	656.766
283.628	15.426	876.682	656.394
284.643	15.327	876.195	655.585
285.657	15.499	875.703	655.830
286.672	15.375	874.885	654.674
287.687	15.527	874.096	654.621
288.701	15.536	873.691	654.293
289.716	15.534	873.302	653.937
290.730	15.600	872.593	653.603
291.745	15.468	872.166	652.714
292.760	15.513	870.994	651.956
293.774	15.471	870.669	651.488
294.789	15.589	870.014	651.400
295.803	15.644	869.029	650.817
296.818	15.514	868.860	650.129
297.833	15.574	867.936	649.612
298.847	15.643	867.207	649.276
299.862	15.717	866.633	649.075
300.876	15.737	866.675	649.125
301.891	15.739	865.658	648.316
302.906	15.578	865.168	647.269
303.920	15.853	864.552	647.812
304.935	15.897	863.908	647.438
305.949	15.732	863.638	646.546
306.964	15.763	862.890	646.049
307.979	15.966	862.097	646.174
308.993	15.981	861.682	645.864
310.008	15.729	861.316	644.566
311.022	15.817	860.332	644.112
312.037	15.677	860.472	643.622
313.052	15.753	859.565	643.176
314.066	15.739	858.908	642.576
315.081	15.826	858.338	642.426
316.095	15.806	857.574	641.721
317.110	15.738	857.419	641.288
318.125	15.849	856.633	641.066
319.139	15.747	856.521	640.537
320.154	15.785	855.600	639.935
321.168	15.986	855.079	640.253
322.183	15.884	854.742	639.558
323.197	15.958	854.011	639.234
324.212	15.892	853.760	638.740
325.227	15.940	852.769	638.126
326.241	15.856	852.584	637.612
327.256	15.932	851.690	637.174
328.270	15.921	851.451	636.896
329.285	15.917	850.448	636.076
330.300	16.167	849.901	636.552
331.314	15.969	849.153	635.190
332.329	15.970	849.060	635.066
333.343	16.122	848.748	635.351
334.358	16.247	847.669	634.957
335.373	16.105	847.666	634.363
336.387	16.134	847.645	634.404
337.402	16.181	846.900	633.965
338.416	16.268	846.522	633.954
339.431	16.304	845.969	633.619
340.446	16.275	845.734	633.276
341.460	16.308	845.443	633.127
342.475	16.258	845.004	632.555
343.489	16.325	844.445	632.330
344.504	16.493	843.848	632.455
345.519	16.440	843.389	631.858
346.533	16.572	842.757	631.822
347.548	16.334	842.467	630.661
348.562	16.375	842.118	630.497
349.577	16.299	841.412	629.626
350.592	16.388	840.545	629.254
351.606	16.382	839.885	628.682
352.621	16.406	839.381	628.339
353.635	16.308	838.759	627.455
354.650	16.498	838.117	627.625
355.665	16.576	837.218	627.183
356.679	16.318	837.058	626.051
357.694	16.563	836.177	626.245
358.708	16.567	835.504	625.702
359.723	16.463	835.275	625.090
360.738	16.630	834.601	625.146
361.752	16.601	833.858	624.428
362.767	16.762	833.174	624.456
363.781	16.599	833.034	623.692
364.796	16.731	832.094	623.421
365.810	16.675	832.240	623.267
366.825	16.770	831.484	622.995
367.840	16.722	831.247	622.585
368.854	16.671	830.455	621.750
369.869	16.921	830.021	622.290
370.883	16.849	829.752	621.768
371.898	16.857	829.532	621.576
372.913	16.744	829.297	620.930
373.927	16.887	828.524	620.822
374.942	16.840	828.039	620.231
375.956	16.841	827.591	619.845
376.971	17.006	826.862	619.847
377.986	17.032	826.921	619.930
379.000	17.009	826.461	619.448
380.015	17.052	825.421	618.770
381.029	17.025	825.149	618.413
382.044	16.967	824.635	617.762
383.059	16.982	823.922	617.226
384.073	17.075	823.418	617.132
385.088	17.015	822.802	616.399
386.102	17.010	822.396	616.023
387.117	17.073	821.722	615.690
388.132	17.079	821.370	615.396
389.146	17.029	820.647	614.617
390.161	17.018	820.472	614.392
391.175	17.169	819.772	614.359
392.190	17.089	819.332	613.687
393.205	16.891	819.045	612.702
394.219	17.038	818.837	613.024
395.234	16.928	818.598	612.395
396.248	16.940	818.134	612.035
397.263	16.952	817.366	611.451
398.278	17.106	816.901	611.600
399.292	17.031	816.390	610.894
400.307	17.223	815.782	611.077
401.321	17.069	815.650	610.370
402.336	17.281	814.883	610.505
403.350	17.150	814.432	609.643
404.365	17.215	813.917	609.437
405.380	17.381	813.155	609.405
406.394	17.316	813.123	609.097
407.409	17.209	813.171	608.693
408.423	17.389	812.122	608.498
409.438	17.356	812.037	608.264
410.453	17.441	811.308	607.969
411.467	17.472	810.871	607.696
412.482	17.513	810.626	607.606
413.496	17.580	810.185	607.459
414.511	17.543	809.841	607.016
415.526	17.554	809.392	606.667
416.540	17.571	808.861	606.275
417.555	17.579	808.284	605.817
418.569	17.694	807.624	605.675
419.584	17.599	807.422	605.135
420.599	17.572	806.937	604.623
421.613	114.009	1299.142	1489.038
422.628	98.471	1370.830	1489.091
