DTS Sentinel unit serial number:	SN413079Multiplexer serial number:	ORYXHardware model number:	OX4-SRSoftware version number:	ORYX F/W v4.00 Oryx Data Collector v3.7.2.0data status	okinstallation	princeton_trtdifferential loss correction	single-endedforward channel	channel 1reverse channel	N/Adate	2019/09/13time	00:46:35forward acquisition time	60.00reverse acquisition time	0.00gamma	496.2192k internal	0.2329k external	0.2329temperature offset calibration	1.0140default loss term (dB/km)	0.3790temperature slope calibration	1.0000multiplexer offset coefficient	1.0000multiplexer slope coefficient	1.0000fibre end	0.00T internal ref (°C)	28.19T ext. ref 1 (°C)	3.65T ext. ref 2 (°C)	22.73length (m)	temperature (°C)	Stokes	anti-Stokes-747.200	15.382	0.062	-0.049
-746.185	-33.841	0.202	0.112
-745.171	52.517	-0.100	-0.096
-744.156	110.477	-0.275	0.333
-743.142	0.152	0.272	0.195
-742.127	800.000	0.017	0.064
-741.112	338.377	0.139	-0.272
-740.098	324.903	0.146	-0.281
-739.083	-200.000	0.032	0.382
-738.069	-130.776	-0.101	0.014
-737.054	800.000	0.086	-0.238
-736.039	-119.195	-0.264	-0.046
-735.025	-200.000	-0.004	0.158
-734.010	-55.104	-0.335	-0.152
-732.996	-200.000	-0.061	-0.342
-731.981	-34.994	-0.198	-0.109
-730.966	-4.479	-0.207	-0.144
-729.952	-18.072	-0.117	-0.074
-728.937	310.943	-0.118	0.222
-727.923	-200.000	-0.052	-0.347
-726.908	799.501	0.197	-0.548
-725.894	-85.212	-0.313	-0.099
-724.879	-200.000	0.002	-0.146
-723.864	180.770	0.254	-0.375
-722.850	-45.069	-0.237	0.119
-721.835	64.836	-0.261	0.265
-720.821	-32.171	-0.397	-0.223
-719.806	800.000	0.063	-0.252
-718.791	-24.380	-0.154	-0.093
-717.777	-121.891	-0.087	-0.014
-716.762	-157.052	0.073	-0.005
-715.748	-16.216	0.175	0.112
-714.733	231.046	0.019	0.032
-713.718	76.999	0.311	-0.333
-712.704	800.000	-0.035	-0.127
-711.689	45.571	0.067	-0.062
-710.675	-200.000	-0.256	-0.000
-709.660	131.773	0.155	0.200
-708.645	-200.000	0.021	-0.165
-707.631	258.987	0.070	-0.122
-706.616	800.000	0.061	-0.169
-705.602	-200.000	0.025	0.211
-704.587	-62.405	0.170	-0.071
-703.572	797.801	0.022	-0.060
-702.558	-113.497	-0.218	0.043
-701.543	555.988	-0.068	0.164
-700.529	-79.455	-0.237	0.081
-699.514	-118.447	-0.291	0.052
-698.499	-116.370	-0.118	0.022
-697.485	-16.326	0.264	-0.169
-696.470	800.000	0.045	-0.190
-695.456	800.000	-0.008	0.033
-694.441	7.774	0.208	0.156
-693.426	351.918	0.065	-0.129
-692.412	-200.000	-0.009	0.357
-691.397	1.958	-0.180	-0.130
-690.383	-200.000	0.088	-0.442
-689.368	0.280	-0.106	-0.076
-688.354	-82.514	-0.062	0.020
-687.339	285.423	0.180	0.326
-686.324	-8.158	0.167	0.113
-685.310	-200.000	0.012	0.314
-684.295	540.259	0.062	0.149
-683.281	707.095	0.122	-0.323
-682.266	12.059	0.136	0.105
-681.251	46.360	0.035	-0.032
-680.237	84.674	0.185	0.203
-679.222	-200.000	-0.066	-0.421
-678.208	-90.926	-0.067	0.019
-677.193	-200.000	0.012	0.101
-676.178	-22.882	-0.224	0.136
-675.164	1.704	-0.144	-0.104
-674.149	-110.433	-0.252	-0.053
-673.135	291.602	0.133	-0.243
-672.120	83.186	-0.128	0.140
-671.105	246.275	0.019	0.033
-670.091	-134.273	-0.338	0.042
-669.076	800.000	-0.151	-0.439
-668.062	800.000	-0.133	0.403
-667.047	800.000	0.022	-0.091
-666.032	-83.867	0.177	0.057
-665.018	376.660	0.025	-0.050
-664.003	188.783	-0.113	0.169
-662.989	-83.472	0.209	-0.067
-661.974	-200.000	-0.009	-0.276
-660.959	711.574	0.021	0.056
-659.945	-90.855	-0.156	0.045
-658.930	-85.494	-0.166	0.052
-657.916	10.837	0.169	-0.130
-656.901	-100.844	0.071	-0.017
-655.886	-200.000	-0.027	-0.187
-654.872	591.450	0.047	-0.116
-653.857	800.000	0.087	-0.330
-652.843	297.265	-0.073	-0.134
-651.828	11.851	0.132	-0.102
-650.814	-28.443	-0.196	-0.113
-649.799	-50.053	0.045	0.021
-648.784	-15.557	0.159	0.102
-647.770	-56.307	0.184	0.082
-646.755	4.871	-0.284	-0.210
-645.741	425.808	0.035	0.076
-644.726	-200.000	0.039	0.332
-643.711	-118.868	-0.385	0.068
-642.697	-120.607	-0.030	-0.005
-641.682	-28.451	-0.102	-0.059
-640.668	78.165	0.368	-0.394
-639.653	-20.385	-0.387	-0.239
-638.638	106.462	0.117	-0.139
-637.624	-53.999	0.076	-0.035
-636.609	800.000	-0.072	-0.208
-635.595	33.729	-0.461	-0.402
-634.580	76.564	0.034	0.036
-633.565	-147.070	0.039	0.003
-632.551	-200.000	-0.028	-0.160
-631.536	800.000	0.050	0.187
-630.522	800.000	-0.043	0.183
-629.507	20.071	-0.129	-0.104
-628.492	2.984	-0.223	0.162
-627.478	187.704	-0.130	-0.195
-626.463	-200.000	0.049	-0.255
-625.449	269.818	-0.139	-0.245
-624.434	-11.131	0.267	0.177
-623.419	125.728	0.225	0.285
-622.405	116.981	-0.087	-0.107
-621.390	-200.000	0.021	0.095
-620.376	-81.622	-0.237	0.078
-619.361	21.711	0.228	-0.187
-618.346	179.744	0.143	-0.209
-617.332	113.906	0.097	-0.119
-616.317	-52.914	-0.244	0.113
-615.303	-122.277	-0.188	0.031
-614.288	-9.531	-0.196	-0.131
-613.273	-125.971	0.058	0.009
-612.259	-61.368	0.170	-0.072
-611.244	481.791	0.143	0.325
-610.230	-177.988	0.210	-0.005
-609.215	-69.637	-0.322	0.124
-608.201	-200.000	-0.017	0.183
-607.186	177.451	-0.149	-0.218
-606.171	214.502	-0.048	0.077
-605.157	-171.967	-0.076	0.002
-604.142	-46.769	-0.367	0.180
-603.128	-92.627	0.069	0.019
-602.113	-59.533	-0.167	-0.072
-601.098	211.116	0.158	-0.249
-600.084	136.577	0.051	-0.066
-599.069	27.650	-0.018	0.015
-598.055	23.290	0.096	-0.079
-597.040	-200.000	-0.024	-0.281
-596.025	-200.000	-0.013	0.305
-595.011	-160.521	-0.087	-0.005
-593.996	-200.000	-0.036	-0.252
-592.982	29.136	0.212	0.180
-591.967	66.281	-0.117	-0.119
-590.952	575.243	-0.089	-0.217
-589.938	-57.195	0.356	-0.157
-588.923	206.886	-0.099	-0.155
-587.909	-94.340	-0.140	-0.038
-586.894	-162.930	-0.063	0.003
-585.879	-70.366	-0.171	0.065
-584.865	-200.000	-0.039	-0.188
-583.850	800.000	-0.117	0.349
-582.836	-48.752	-0.048	0.023
-581.821	800.000	-0.070	-0.213
-580.806	-149.044	-0.125	0.010
-579.792	-100.986	0.083	-0.020
-578.777	800.000	0.066	0.263
-577.763	57.862	-0.026	-0.025
-576.748	22.061	-0.258	-0.211
-575.733	-200.000	-0.006	0.077
-574.719	-0.135	-0.041	0.029
-573.704	24.534	0.077	0.064
-572.690	104.653	0.082	-0.096
-571.675	-32.089	-0.237	0.132
-570.661	432.778	-0.041	0.088
-569.646	-118.491	0.188	0.033
-568.631	-72.279	-0.220	-0.082
-567.617	-200.000	0.010	0.085
-566.602	-115.022	-0.200	0.038
-565.588	-125.835	-0.566	-0.085
-564.573	152.201	0.201	0.275
-563.558	417.489	0.114	0.244
-562.544	-1.294	-0.284	0.201
-561.529	603.384	0.037	0.091
-560.515	-67.247	0.502	0.198
-559.500	44.049	-0.208	-0.191
-558.485	-200.000	-0.023	0.295
-557.471	-200.000	-0.002	-0.092
-556.456	91.697	-0.130	0.146
-555.442	-53.023	0.263	0.121
-554.427	157.288	-0.395	-0.547
-553.412	30.449	0.184	-0.157
-552.398	422.779	0.100	-0.215
-551.383	785.164	-0.095	-0.260
-550.369	-98.973	0.259	0.066
-549.354	-136.641	0.088	-0.010
-548.339	-140.345	-0.441	-0.046
-547.325	-127.948	-0.442	0.063
-546.310	-89.250	0.423	0.125
-545.296	-21.671	-0.035	0.021
-544.281	-77.789	0.246	0.085
-543.266	-92.807	0.283	-0.079
-542.252	800.000	-0.071	-0.204
-541.237	-79.063	-0.171	-0.058
-540.223	-133.329	0.310	0.039
-539.208	800.000	0.069	0.234
-538.193	800.000	-0.072	-0.312
-537.179	187.241	-0.072	-0.107
-536.164	-114.296	0.215	-0.041
-535.150	385.186	0.112	-0.230
-534.135	19.707	0.056	0.045
-533.121	-109.459	-0.525	0.111
-532.106	165.053	-0.025	-0.035
-531.091	-200.000	0.065	-0.368
-530.077	22.166	-0.097	-0.079
-529.062	72.110	-0.193	0.201
-528.048	-7.515	0.246	-0.166
-527.033	108.104	-0.012	0.014
-526.018	540.012	0.072	-0.172
-525.004	-169.254	-0.208	-0.008
-523.989	-60.985	-0.325	0.137
-522.975	-200.000	0.047	-0.347
-521.960	-200.000	-0.013	-0.114
-520.945	-118.057	-0.456	-0.081
-519.931	-48.709	0.234	-0.112
-518.916	-141.338	-0.469	0.048
-517.902	-117.024	0.195	0.036
-516.887	-200.000	0.038	0.245
-515.872	-200.000	0.012	-0.110
-514.858	393.631	0.074	-0.155
-513.843	800.000	0.114	0.378
-512.829	-34.356	-0.109	-0.060
-511.814	-69.171	-0.182	0.070
-510.799	-200.000	-0.009	-0.190
-509.785	-42.732	0.103	-0.052
-508.770	601.175	0.069	-0.170
-507.756	451.972	0.083	-0.183
-506.741	-200.000	-0.011	-0.240
-505.726	-60.106	-0.303	0.129
-504.712	-0.453	0.143	-0.102
-503.697	-200.000	0.001	-0.104
-502.683	800.000	-0.132	0.420
-501.668	-158.549	-0.184	-0.011
-500.653	-14.603	-0.108	0.069
-499.639	800.000	-0.022	-0.065
-498.624	206.320	-0.013	0.021
-497.610	9.100	-0.130	-0.098
-496.595	143.284	0.294	0.391
-495.581	-38.704	-0.009	0.005
-494.566	-13.051	0.117	0.076
-493.551	-28.061	-0.081	0.047
-492.537	329.893	-0.073	0.139
-491.522	-124.625	-0.186	-0.029
-490.508	113.770	0.141	-0.171
-489.493	-72.255	0.172	-0.063
-488.478	277.390	0.066	0.117
-487.464	-141.821	0.229	-0.023
-486.449	-85.314	0.273	-0.085
-485.435	-192.509	-0.133	-0.001
-484.420	-67.549	0.269	0.105
-483.405	84.548	-0.039	0.042
-482.391	26.037	0.333	0.277
-481.376	-200.000	0.016	0.220
-480.362	-142.199	0.085	0.008
-479.347	70.893	0.148	0.153
-478.332	-62.283	0.288	-0.120
-477.318	115.595	0.135	-0.164
-476.303	-43.516	-0.186	0.094
-475.289	-200.000	-0.064	0.409
-474.274	-133.196	0.174	0.022
-473.259	-178.955	-0.253	-0.006
-472.245	-47.977	-0.348	0.168
-471.230	278.215	0.166	0.294
-470.216	-53.630	-0.308	-0.140
-469.201	-56.406	0.185	0.082
-468.186	25.567	-0.245	0.203
-467.172	-6.017	0.258	0.176
-466.157	-38.375	-0.181	-0.096
-465.143	-200.000	0.011	-0.110
-464.128	800.000	0.075	-0.285
-463.113	-24.175	0.218	0.129
-462.099	134.629	0.017	0.022
-461.084	-66.192	0.250	0.099
-460.070	396.662	-0.120	0.250
-459.055	800.000	0.027	0.095
-458.040	140.527	-0.158	0.207
-457.026	182.800	0.110	-0.162
-456.011	-153.553	0.236	0.016
-454.997	800.000	-0.041	0.157
-453.982	-200.000	0.034	0.298
-452.968	-200.000	0.017	0.152
-451.953	-200.000	-0.036	-0.256
-450.938	-63.948	-0.162	-0.066
-449.924	-70.728	0.258	0.097
-448.909	93.133	-0.164	-0.185
-447.895	-20.908	0.170	0.104
-446.880	-200.000	0.003	-0.045
-445.865	-20.866	-0.099	0.060
-444.851	-91.996	0.194	-0.055
-443.836	-200.000	-0.055	-0.497
-442.822	800.000	-0.015	-0.053
-441.807	-107.947	0.259	-0.056
-440.792	800.000	0.083	-0.317
-439.778	123.859	-0.134	-0.167
-438.763	-95.870	0.202	-0.054
-437.749	497.405	0.031	-0.071
-436.734	63.566	-0.203	0.203
-435.719	111.629	-0.046	0.055
-434.705	9.041	0.133	-0.100
-433.690	-200.000	-0.024	0.369
-432.676	-159.775	-0.368	0.020
-431.661	9.570	-0.224	0.169
-430.646	-44.044	-0.429	0.214
-429.632	49.877	-0.108	0.102
-428.617	-200.000	-0.015	0.099
-427.603	-55.901	-0.236	0.105
-426.588	140.094	0.159	-0.208
-425.573	-133.069	-0.604	-0.076
-424.559	4.808	-0.041	-0.030
-423.544	-200.000	0.023	0.111
-422.530	800.000	-0.102	0.304
-421.515	-147.931	0.192	0.016
-420.500	-200.000	-0.008	0.223
-419.486	-176.199	0.337	0.009
-418.471	800.000	0.062	0.230
-417.457	-174.965	0.324	-0.009
-416.442	-90.320	-0.204	-0.059
-415.428	-114.256	0.398	-0.076
-414.413	-117.955	0.295	-0.052
-413.398	-72.240	0.177	0.065
-412.384	-132.186	0.359	0.046
-411.369	-36.246	-0.155	0.083
-410.355	-145.341	-0.205	0.018
-409.340	-83.928	0.102	0.032
-408.325	-200.000	-0.075	-0.352
-407.311	-8.062	-0.160	0.107
-406.296	-59.264	-0.094	0.040
-405.282	38.918	0.216	0.192
-404.267	-200.000	-0.002	-0.246
-403.252	-6.396	0.052	-0.035
-402.238	120.635	-0.059	-0.073
-401.223	-109.760	-0.139	0.029
-400.209	758.805	-0.064	-0.172
-399.194	-11.137	0.523	0.343
-398.179	800.000	-0.125	-0.392
-397.165	213.215	-0.097	-0.153
-396.150	52.750	0.043	0.040
-395.136	124.996	-0.219	-0.274
-394.121	-43.058	0.160	0.081
-393.106	508.589	-0.093	-0.215
-392.092	-141.901	-0.068	0.007
-391.077	87.469	-0.146	0.161
-390.063	800.000	-0.096	-0.377
-389.048	-79.412	-0.243	0.082
-388.033	371.107	0.101	-0.203
-387.019	580.624	0.088	0.214
-386.004	-39.033	0.080	-0.042
-384.990	-117.575	0.310	-0.055
-383.975	-200.000	0.001	0.060
-382.960	-27.951	0.132	-0.076
-381.946	-200.000	0.017	0.114
-380.931	102.254	-0.181	-0.210
-379.917	16.440	-0.082	0.064
-378.902	1.749	-0.163	0.117
-377.888	98.344	-0.173	0.198
-376.873	-24.564	-0.356	0.211
-375.858	227.691	-0.146	0.235
-374.844	800.000	-0.088	0.290
-373.829	75.445	-0.072	-0.076
-372.815	-103.524	-0.108	0.025
-371.800	-123.363	0.156	-0.025
-370.785	-143.197	0.080	0.008
-369.771	-200.000	-0.004	0.155
-368.756	-200.000	0.027	0.336
-367.742	800.000	-0.067	-0.201
-366.727	51.329	0.220	0.208
-365.712	-78.556	0.190	0.064
-364.698	-134.569	0.462	-0.056
-363.683	-200.000	0.077	0.432
-362.669	508.300	0.058	-0.133
-361.654	239.590	0.079	0.131
-360.639	-61.386	-0.100	0.042
-359.625	-20.825	0.145	0.088
-358.610	407.422	0.074	-0.155
-357.596	263.228	-0.045	0.078
-356.581	-154.593	0.241	0.016
-355.566	36.483	-0.084	-0.074
-354.552	207.331	-0.139	0.216
-353.537	78.318	0.286	-0.303
-352.523	-25.471	-0.303	-0.178
-351.508	-200.000	0.004	-0.094
-350.493	472.730	0.129	-0.289
-349.479	-20.552	-0.192	0.117
-348.464	-35.979	-0.200	0.108
-347.450	17.288	-0.154	0.122
-346.435	57.739	0.213	-0.206
-345.420	800.000	-0.076	-0.228
-344.406	47.841	0.125	-0.115
-343.391	-48.292	0.183	0.088
-342.377	-200.000	0.059	0.363
-341.362	-30.064	-0.130	0.073
-340.348	-87.129	-0.194	-0.058
-339.333	104.455	-0.074	0.087
-338.318	-85.427	0.183	0.056
-337.304	-38.184	-0.144	-0.075
-336.289	-179.208	0.365	0.008
-335.275	187.426	0.215	-0.317
-334.260	733.442	0.039	0.104
-333.245	57.423	0.125	-0.121
-332.231	176.776	-0.039	-0.056
-331.216	-64.353	0.196	0.079
-330.202	-200.000	0.033	-0.388
-329.187	73.001	-0.128	0.133
-328.172	-38.100	-0.264	-0.139
-327.158	12.616	-0.082	0.062
-326.143	-131.193	-0.168	0.022
-325.129	54.387	-0.129	-0.123
-324.114	36.969	0.083	-0.073
-323.099	-200.000	-0.007	0.131
-322.085	-200.000	-0.007	-0.045
-321.070	14.092	0.028	-0.021
-320.056	-200.000	0.003	0.110
-319.041	-94.688	0.247	0.066
-318.026	45.783	0.178	-0.163
-317.012	-135.615	-0.297	-0.035
-315.997	-200.000	-0.016	-0.203
-314.983	-196.837	-0.487	-0.003
-313.968	-89.194	-0.043	-0.012
-312.953	410.118	0.180	0.378
-311.939	-200.000	-0.085	-0.381
-310.924	800.000	0.059	-0.167
-309.910	-50.145	-0.131	-0.061
-308.895	-8.007	0.168	-0.112
-307.880	122.097	0.039	0.049
-306.866	155.761	0.128	-0.175
-305.851	94.910	-0.198	-0.223
-304.837	-99.407	0.258	-0.064
-303.822	-200.000	-0.016	0.315
-302.807	148.044	0.189	-0.252
-301.793	-107.943	0.357	-0.077
-300.778	257.737	0.036	0.061
-299.764	452.806	0.079	-0.174
-298.749	-63.767	0.087	0.035
-297.735	306.960	0.116	0.214
-296.720	-15.209	-0.228	0.145
-295.705	-67.341	0.265	0.103
-294.691	177.137	-0.042	0.061
-293.676	-101.309	0.246	-0.059
-292.662	-118.871	-0.092	-0.016
-291.647	170.979	-0.063	0.090
-290.632	-200.000	0.010	0.185
-289.618	-68.989	-0.056	-0.021
-288.603	-200.000	-0.036	-0.230
-287.589	312.628	-0.131	-0.244
-286.574	284.567	0.109	-0.194
-285.559	-44.499	-0.086	-0.042
-284.545	28.594	0.324	-0.272
-283.530	145.840	-0.181	0.240
-282.516	-107.720	0.092	0.020
-281.501	27.777	-0.032	0.027
-280.486	-33.742	-0.265	-0.145
-279.472	-17.821	-0.038	-0.024
-278.457	-47.955	0.096	0.046
-277.443	202.787	0.145	-0.221
-276.428	167.652	-0.148	-0.208
-275.413	72.161	-0.154	0.158
-274.399	209.491	0.101	0.157
-273.384	167.627	0.178	0.250
-272.370	-68.394	-0.166	0.064
-271.355	-98.962	-0.107	0.027
-270.340	-200.000	0.021	0.236
-269.326	-200.000	0.018	-0.302
-268.311	232.854	-0.134	0.218
-267.297	277.797	-0.104	0.184
-266.282	-27.175	-0.184	-0.106
-265.267	-11.672	0.220	0.143
-264.253	-131.795	-0.041	-0.005
-263.238	83.083	0.107	0.115
-262.224	-94.260	-0.083	0.023
-261.209	-186.226	-0.431	-0.006
-260.195	-168.811	-0.280	-0.010
-259.180	-200.000	0.007	-0.206
-258.165	-81.775	0.159	-0.051
-257.151	20.960	-0.024	0.019
-256.136	249.255	0.158	0.265
-255.122	800.000	-0.038	-0.122
-254.107	278.666	0.201	0.354
-253.092	107.939	-0.109	-0.128
-252.078	38.208	-0.162	-0.143
-251.063	-200.000	-0.002	0.121
-250.049	16.270	0.081	0.063
-249.034	-178.129	-0.100	-0.002
-248.019	74.048	-0.038	-0.039
-247.005	51.566	0.210	-0.197
-245.990	305.586	-0.097	0.179
-244.976	-125.399	-0.312	-0.047
-243.961	-200.000	0.013	0.326
-242.946	333.983	-0.099	-0.189
-241.932	43.750	0.176	-0.159
-240.917	181.292	-0.062	-0.089
-239.903	247.599	0.038	0.063
-238.888	269.259	0.099	0.171
-237.873	-37.701	-0.400	-0.210
-236.859	596.253	0.046	-0.113
-235.844	-116.580	-0.171	-0.031
-234.830	58.397	0.142	-0.138
-233.815	216.512	-0.075	-0.117
-232.800	-89.363	-0.236	0.068
-231.786	-200.000	0.001	-0.386
-230.771	-200.000	0.001	-0.020
-229.757	119.679	-0.111	-0.136
-228.742	419.930	-0.078	-0.165
-227.727	-117.389	-0.226	0.040
-226.713	17.608	0.098	0.077
-225.698	338.183	0.057	0.110
-224.684	-50.394	0.286	-0.133
-223.669	-112.149	0.176	0.035
-222.655	-200.000	0.040	0.344
-221.640	-178.599	0.109	0.002
-220.625	-63.001	-0.026	0.010
-219.611	-181.907	0.448	0.008
-218.596	174.175	0.159	-0.227
-217.582	34.121	0.111	0.095
-216.567	-200.000	0.034	-0.482
-215.552	581.744	-0.103	-0.249
-214.538	-200.000	0.042	0.284
-213.523	60.464	0.163	0.159
-212.509	375.622	0.029	-0.059
-211.494	133.382	0.378	0.482
-210.479	-46.720	-0.183	0.089
-209.465	-44.525	0.175	0.086
-208.450	-200.000	0.022	-0.214
-207.436	152.404	0.153	-0.207
-206.421	7.095	-0.127	0.093
-205.406	-67.323	0.185	0.072
-204.392	-10.798	-0.130	-0.084
-203.377	-200.000	-0.033	-0.281
-202.363	-76.797	-0.183	-0.063
-201.348	21.495	0.232	0.186
-200.333	354.136	0.160	0.313
-199.319	22.512	0.121	0.097
-198.304	-200.000	0.028	-0.132
-197.290	57.979	0.083	0.080
-196.275	421.673	0.038	-0.080
-195.260	-22.979	0.040	-0.024
-194.246	-168.281	0.095	0.004
-193.231	-200.000	-0.017	0.202
-192.217	-39.828	0.384	-0.198
-191.202	-88.232	-0.150	0.044
-190.187	-144.916	0.220	0.020
-189.173	800.000	-0.105	-0.381
-188.158	-200.000	0.037	0.165
-187.144	582.504	-0.005	0.012
-186.129	800.000	-0.079	-0.224
-185.114	-49.052	0.342	-0.161
-184.100	-200.000	0.028	0.289
-183.085	-200.000	-0.009	0.210
-182.071	-19.936	0.220	0.134
-181.056	-31.556	0.073	-0.040
-180.042	460.242	0.070	0.154
-179.027	-200.000	-0.013	0.227
-178.012	-200.000	0.021	0.172
-176.998	532.599	0.094	-0.218
-175.983	289.382	-0.188	0.336
-174.969	114.820	-0.160	0.192
-173.954	-100.583	0.352	0.086
-172.939	215.703	0.176	0.275
-171.925	800.000	-0.102	0.432
-170.910	10.422	0.153	0.115
-169.896	358.563	0.099	-0.195
-168.881	-48.035	-0.091	-0.043
-167.866	-23.412	0.257	0.152
-166.852	506.757	-0.010	-0.022
-165.837	253.090	0.038	-0.064
-164.823	-200.000	0.004	0.195
-163.808	193.912	0.159	-0.237
-162.793	122.144	-0.181	-0.223
-161.779	22.021	-0.093	0.075
-160.764	-200.000	-0.021	0.240
-159.750	619.567	0.070	0.173
-158.735	-38.715	-0.147	-0.076
-157.720	800.000	0.057	-0.162
-156.706	153.767	-0.176	0.237
-155.691	-60.867	0.166	-0.069
-154.677	190.989	0.037	-0.055
-153.662	-69.310	-0.349	-0.132
-152.647	-46.833	-0.325	-0.157
-151.633	183.715	-0.095	-0.138
-150.618	286.274	-0.035	0.063
-149.604	-43.685	0.042	-0.021
-148.589	-200.000	0.007	-0.040
-147.574	800.000	0.039	-0.121
-146.560	-200.000	-0.050	-0.397
-145.545	4.591	-0.136	-0.098
-144.531	322.923	0.020	0.037
-143.516	-24.680	-0.123	-0.072
-142.502	-200.000	-0.240	0.001
-141.487	250.102	-0.255	-0.425
-140.472	-200.000	-0.076	0.403
-139.458	-200.000	0.012	-0.076
-138.443	-110.089	-0.426	-0.088
-137.429	-200.000	-0.059	0.521
-136.414	-4.400	0.197	-0.134
-135.399	139.377	-0.136	-0.176
-134.385	-200.000	0.014	-0.221
-133.370	-9.696	-0.334	-0.219
-132.356	185.708	0.196	0.287
-131.341	168.525	0.214	0.301
-130.326	-200.000	0.008	0.190
-129.312	800.000	-0.039	0.130
-128.297	508.330	0.129	0.294
-127.283	120.109	-0.267	0.325
-126.268	-104.289	0.284	0.065
-125.253	-200.000	-0.013	0.342
-124.239	-200.000	-0.055	-0.255
-123.224	-119.705	-0.128	-0.022
-122.210	219.317	-0.047	-0.074
-121.195	-43.685	-0.131	-0.065
-120.180	-200.000	0.018	0.201
-119.166	228.812	-0.137	-0.219
-118.151	-200.000	0.063	0.302
-117.137	45.354	0.154	0.139
-116.122	93.779	0.139	0.155
-115.107	5.629	0.104	-0.075
-114.093	20.419	-0.255	-0.203
-113.078	406.008	-0.105	-0.217
-112.064	32.265	0.080	0.068
-111.049	-138.249	-0.211	-0.023
-110.034	147.267	0.127	0.168
-109.020	-33.355	0.205	-0.112
-108.005	162.112	0.122	0.168
-106.991	800.000	-0.115	0.323
-105.976	-200.000	0.019	0.163
-104.962	217.870	0.221	0.346
-103.947	-200.000	0.054	0.354
-102.932	183.710	0.097	-0.141
-101.918	160.584	0.123	-0.169
-100.903	-11.782	-0.098	-0.063
-99.889	800.000	-0.033	0.108
-98.874	800.000	0.095	-0.320
-97.859	800.000	-0.071	-0.300
-96.845	24.313	-0.080	-0.065
-95.830	-13.872	-0.124	0.079
-94.816	-200.000	0.018	-0.084
-93.801	-46.171	0.378	-0.183
-92.786	-88.852	0.172	-0.050
-91.772	-80.289	-0.377	0.124
-90.757	-200.000	0.010	0.241
-89.743	76.657	0.045	0.047
-88.728	-149.079	-0.383	0.030
-87.713	139.037	-0.146	-0.189
-86.699	433.778	0.091	-0.195
-85.684	371.066	0.081	-0.161
-84.670	-61.356	0.169	0.070
-83.655	-153.890	0.142	-0.010
-82.640	192.661	0.091	-0.135
-81.626	85.078	-0.069	-0.074
-80.611	-200.000	-0.007	0.178
-79.597	-65.932	-0.040	0.016
-78.582	800.000	0.034	0.106
-77.567	-2.306	0.260	-0.179
-76.553	16.988	-0.189	-0.147
-75.538	-88.177	0.192	-0.056
-74.524	800.000	0.057	-0.200
-73.509	-119.866	0.327	0.055
-72.494	-200.000	-0.010	-0.115
-71.480	-200.000	-0.030	0.247
-70.465	800.000	-0.007	0.030
-69.451	-200.000	0.044	0.266
-68.436	-89.708	-0.249	-0.072
-67.422	364.018	0.057	0.113
-66.407	-156.562	-0.289	-0.018
-65.392	-11.082	-0.053	-0.034
-64.378	363.941	0.060	0.118
-63.363	-146.985	0.103	-0.009
-62.349	340.268	0.068	-0.131
-61.334	75.234	-0.997	-1.031
-60.319	125.212	0.500	0.619
-59.305	-200.000	-0.267	-1.227
-58.290	554.005	0.614	1.449
-57.276	335.028	0.757	1.439
-56.261	-200.000	112.586	639.819
-55.246	532.346	1514.293	3513.961
-54.232	178.412	2684.292	3843.250
-53.217	111.385	2149.428	2540.900
-52.203	39.830	1597.750	1406.140
-51.188	31.717	1342.972	1133.041
-50.173	28.675	1304.729	1082.822
-49.159	55.464	1361.155	1291.618
-48.144	54.637	1375.493	1300.207
-47.130	31.876	1330.276	1123.101
-46.115	28.357	1313.137	1087.739
-45.100	28.148	1308.180	1082.355
-44.086	28.071	1305.693	1079.796
-43.071	27.964	1303.918	1077.656
-42.057	27.992	1301.638	1075.898
-41.042	28.029	1300.004	1074.719
-40.027	28.019	1298.440	1073.323
-39.013	28.101	1295.959	1071.714
-37.998	28.141	1294.944	1071.061
-36.984	28.173	1292.700	1069.354
-35.969	28.189	1290.762	1067.802
-34.954	28.132	1289.415	1066.312
-33.940	28.222	1287.642	1065.324
-32.925	28.170	1286.612	1064.131
-31.911	28.238	1285.394	1063.478
-30.896	28.339	1283.586	1062.522
-29.881	28.287	1282.392	1061.191
-28.867	28.354	1280.838	1060.251
-27.852	28.262	1279.940	1058.936
-26.838	28.272	1278.649	1057.881
-25.823	28.296	1277.017	1056.626
-24.809	28.191	1276.243	1055.341
-23.794	28.285	1274.614	1054.493
-22.779	28.281	1273.049	1053.136
-21.765	28.314	1271.701	1052.167
-20.750	28.263	1270.249	1050.629
-19.736	28.241	1269.278	1049.659
-18.721	28.121	1268.082	1047.941
-17.706	28.247	1266.705	1047.484
-16.692	28.191	1265.902	1046.456
-15.677	28.165	1264.676	1045.255
-14.663	28.150	1264.169	1044.707
-13.648	28.157	1262.366	1043.213
-12.633	28.142	1261.850	1042.659
-11.619	28.083	1261.031	1041.606
-10.604	28.071	1260.569	1041.113
-9.590	28.192	1258.576	1040.119
-8.575	28.082	1257.726	1038.745
-7.560	27.970	1257.533	1037.911
-6.546	28.153	1256.672	1038.200
-5.531	28.115	1255.570	1037.029
-4.517	28.143	1254.498	1036.264
-3.502	28.190	1253.544	1035.702
-2.487	28.180	1252.625	1034.844
-1.473	28.157	1247.969	1030.827
-0.458	26.594	1233.088	1009.785
0.556	24.274	1215.909	970.867
1.571	20.421	1221.144	953.846
2.586	19.382	1235.456	959.165
3.600	19.186	1223.704	948.873
4.615	14.621	1153.174	870.353
5.629	7.228	1080.128	778.917
6.644	3.912	1062.175	749.850
7.659	3.695	1059.626	746.934
8.673	3.495	1058.613	745.188
9.688	3.489	1056.699	743.745
10.702	3.833	1055.114	744.222
11.717	8.611	1061.655	771.866
12.731	16.871	1073.245	820.356
13.746	21.758	1079.588	848.859
14.761	22.810	1080.149	854.318
15.775	21.892	1078.594	848.578
16.790	21.143	1076.894	843.547
17.804	20.713	1075.826	840.560
18.819	20.405	1075.127	838.450
19.834	20.492	1074.442	838.261
20.848	20.543	1073.600	837.777
21.863	20.259	1073.039	835.894
22.877	20.221	1071.930	834.777
23.892	20.164	1070.980	833.687
24.907	19.996	1070.816	832.677
25.921	20.029	1069.249	831.543
26.936	19.896	1068.243	830.050
27.950	19.942	1066.610	828.931
28.965	20.115	1065.460	828.791
29.980	20.245	1064.065	828.253
30.994	20.402	1063.006	828.104
32.009	20.335	1062.501	827.316
33.023	20.421	1061.373	826.776
34.038	20.181	1060.480	824.865
35.053	20.091	1059.273	823.425
36.067	20.042	1058.476	822.502
37.082	20.017	1057.695	821.701
38.096	20.301	1056.845	822.313
39.111	20.366	1056.012	821.904
40.126	20.016	1055.094	819.459
41.140	19.710	1053.299	816.546
42.155	19.567	1051.790	814.630
43.169	19.481	1050.422	813.095
44.184	19.532	1049.977	812.918
45.199	19.618	1048.554	812.148
46.213	19.717	1048.426	812.444
47.228	19.964	1048.017	813.215
48.242	20.142	1046.882	813.094
49.257	20.085	1046.173	812.208
50.271	20.175	1045.116	811.737
51.286	20.318	1044.302	811.698
52.301	20.316	1043.026	810.625
53.315	20.190	1042.203	809.329
54.330	19.930	1040.922	807.049
55.344	19.771	1040.279	805.740
56.359	19.693	1039.499	804.699
57.374	19.739	1038.600	804.147
58.388	19.714	1037.542	803.141
59.403	19.460	1036.860	801.360
60.417	19.391	1036.178	800.443
61.432	19.442	1035.551	800.124
62.447	19.368	1034.363	798.795
63.461	19.349	1033.559	798.012
64.476	19.335	1032.468	797.037
65.490	19.263	1031.641	795.996
66.505	19.351	1031.068	795.888
67.520	19.368	1030.607	795.540
68.534	19.201	1029.766	794.051
69.549	19.048	1029.425	793.012
70.563	19.173	1027.824	792.286
71.578	19.062	1026.600	790.762
72.593	18.937	1025.859	789.548
73.607	18.809	1025.765	788.815
74.622	19.037	1024.831	789.073
75.636	19.007	1024.264	788.430
76.651	19.047	1023.697	788.106
77.666	19.192	1023.028	788.185
78.680	19.238	1021.942	787.488
79.695	19.146	1021.884	786.956
80.709	19.482	1021.258	787.940
81.724	19.512	1020.856	787.694
82.739	19.675	1019.758	787.520
83.753	20.041	1019.281	788.748
84.768	20.502	1018.786	790.393
85.782	20.538	1018.423	790.204
86.797	20.479	1017.546	789.190
87.812	20.282	1016.029	787.047
88.826	20.309	1015.219	786.473
89.841	20.446	1014.715	786.632
90.855	20.449	1013.928	785.968
91.870	20.469	1012.800	785.112
92.884	20.460	1011.701	784.150
93.899	20.452	1010.879	783.409
94.914	20.610	1009.775	783.194
95.928	20.447	1009.148	781.907
96.943	20.211	1007.913	779.818
97.957	20.200	1007.378	779.286
98.972	20.355	1006.355	779.121
99.987	20.405	1005.559	778.662
101.001	20.258	1004.757	777.316
102.016	20.332	1003.150	776.334
103.030	20.530	1002.552	776.686
104.045	20.286	1002.255	775.298
105.060	20.227	1000.760	773.810
106.074	19.797	1000.280	771.450
107.089	19.609	998.664	769.298
108.103	19.548	997.594	768.136
109.118	19.424	996.605	766.755
110.133	19.305	995.166	765.053
111.147	19.174	994.618	763.983
112.162	19.433	993.919	764.526
113.176	19.537	993.741	764.780
114.191	19.571	993.130	764.394
115.206	19.588	992.231	763.708
116.220	19.409	991.583	762.351
117.235	19.538	990.183	761.780
118.249	19.286	989.748	760.264
119.264	19.139	988.695	758.739
120.279	19.186	987.813	758.204
121.293	19.022	986.575	756.464
122.308	18.965	985.759	755.523
123.322	18.945	984.564	754.450
124.337	18.922	983.544	753.502
125.352	18.961	982.516	752.817
126.366	18.972	981.504	752.025
127.381	18.927	981.047	751.411
128.395	18.976	980.342	751.021
129.410	19.152	979.166	750.820
130.424	19.140	979.038	750.605
131.439	19.446	978.075	751.130
132.454	19.448	977.302	750.477
133.468	19.665	976.038	750.385
134.483	19.525	975.374	749.198
135.497	19.591	974.505	748.752
136.512	19.480	974.152	747.932
137.527	19.610	972.771	747.369
138.541	19.561	972.043	746.531
139.556	19.875	971.168	747.151
140.570	19.833	971.279	746.987
141.585	20.066	970.752	747.522
142.600	20.245	969.268	747.086
143.614	20.361	969.041	747.344
144.629	20.525	967.916	747.114
145.643	20.276	966.825	745.136
146.658	20.065	965.408	743.072
147.673	19.840	964.494	741.339
148.687	19.652	963.589	739.773
149.702	19.580	962.702	738.720
150.716	19.603	961.612	737.918
151.731	19.665	961.484	738.018
152.746	19.895	960.487	738.169
153.760	19.794	959.622	737.008
154.775	19.765	959.924	737.050
155.789	20.035	958.617	737.134
156.804	19.990	957.748	736.205
157.819	19.993	957.393	735.881
158.833	20.198	957.031	736.408
159.848	20.402	956.312	736.657
160.862	20.154	955.138	734.637
161.877	19.813	953.810	732.108
162.892	19.466	952.670	729.700
163.906	19.349	951.881	728.536
164.921	19.655	950.421	728.645
165.935	19.730	949.876	728.478
166.950	19.850	949.160	728.371
167.964	19.638	948.558	726.950
168.979	19.793	947.122	726.440
169.994	19.617	946.191	724.920
171.008	19.955	945.460	725.715
172.023	20.178	945.342	726.496
173.037	20.330	944.280	726.250
174.052	19.957	944.057	724.452
175.067	19.638	942.662	721.986
176.081	19.470	941.752	720.524
177.096	19.553	941.236	720.412
178.110	19.430	940.751	719.465
179.125	19.728	939.875	719.969
180.140	19.812	939.882	720.263
181.154	19.943	939.690	720.598
182.169	20.071	939.552	720.961
183.183	20.117	939.091	720.735
184.198	20.184	937.665	719.855
185.213	20.190	936.712	719.085
186.227	20.241	936.210	718.847
187.242	20.246	935.926	718.586
188.256	20.563	935.174	719.257
189.271	20.434	934.614	718.228
190.286	19.986	933.679	715.596
191.300	19.461	931.921	712.020
192.315	19.356	931.635	711.305
193.329	19.404	931.168	711.083
194.344	19.555	930.945	711.470
195.359	19.838	929.744	711.656
196.373	19.832	929.603	711.460
197.388	20.153	929.846	712.904
198.402	20.485	929.194	713.703
199.417	20.630	928.692	713.848
200.432	20.733	928.285	713.898
201.446	20.753	927.932	713.643
202.461	21.018	927.305	714.185
203.475	20.808	926.167	712.386
204.490	20.445	925.206	710.100
205.504	20.121	925.375	708.843
206.519	20.090	923.828	707.469
207.534	20.234	922.958	707.324
208.548	20.296	922.346	707.046
209.563	20.481	921.336	706.964
210.577	20.282	921.003	705.836
211.592	20.609	920.926	707.044
212.607	20.672	919.978	706.507
213.621	20.519	919.680	705.598
214.636	20.433	918.450	704.239
215.650	20.498	918.039	704.128
216.665	20.651	917.522	704.289
217.680	20.765	917.132	704.387
218.694	20.792	916.170	703.697
219.709	20.736	915.189	702.655
220.723	20.590	914.927	701.803
221.738	20.446	914.069	700.500
222.753	20.580	913.377	700.449
223.767	20.621	913.334	700.517
224.782	20.915	912.731	701.178
225.796	20.893	911.880	700.371
226.811	20.671	911.326	698.994
227.826	20.455	910.489	697.423
228.840	20.463	909.446	696.595
229.855	20.451	908.797	695.986
230.869	20.330	908.158	694.953
231.884	20.113	907.709	693.676
232.899	20.131	906.787	692.983
233.913	20.049	906.074	692.053
234.928	20.096	904.900	691.281
235.942	19.946	904.308	690.169
236.957	20.029	904.288	690.424
237.972	19.975	903.685	689.687
238.986	19.995	902.755	688.995
240.001	19.863	902.733	688.391
241.015	20.164	901.683	688.726
242.030	20.421	901.157	689.283
243.045	20.445	900.907	689.127
244.059	20.273	900.569	688.127
245.074	20.368	900.231	688.183
246.088	20.688	899.501	688.830
247.103	20.817	898.786	688.733
248.117	20.929	898.698	689.047
249.132	21.402	898.284	690.537
250.147	21.647	898.265	691.427
251.161	21.741	897.309	691.004
252.176	21.739	896.600	690.386
253.190	21.728	896.518	690.218
254.205	21.726	895.673	689.502
255.220	21.807	894.865	689.136
256.234	21.600	894.222	687.765
257.249	21.559	893.326	686.856
258.263	21.516	892.665	686.118
259.278	21.536	892.021	685.640
260.293	21.450	892.273	685.438
261.307	21.709	891.315	685.655
262.322	21.786	890.739	685.452
263.336	21.792	889.952	684.810
264.351	21.581	889.416	683.512
265.366	21.793	888.648	683.688
266.380	21.701	888.117	682.860
267.395	21.606	887.067	681.622
268.409	21.566	886.271	680.794
269.424	21.353	885.731	679.492
270.439	21.369	884.915	678.870
271.453	21.353	883.989	678.035
272.468	21.105	883.833	676.894
273.482	21.285	882.825	676.761
274.497	21.215	882.275	676.008
275.512	21.224	881.789	675.611
276.526	21.388	881.245	675.768
277.541	21.391	881.009	675.539
278.555	21.593	880.691	676.016
279.570	21.898	879.914	676.536
280.585	21.766	879.202	675.419
281.599	21.504	878.282	673.643
282.614	21.342	877.317	672.222
283.628	21.313	877.179	671.944
284.643	21.258	876.389	671.069
285.657	21.397	875.871	671.144
286.672	21.364	875.544	670.710
287.687	21.530	874.643	670.598
288.701	21.504	874.116	670.031
289.716	21.487	873.570	669.488
290.730	21.440	873.097	668.888
291.745	21.554	872.338	668.684
292.760	21.836	871.912	669.376
293.774	21.897	871.622	669.324
294.789	21.820	870.415	668.046
295.803	21.475	869.855	666.243
296.818	21.512	869.000	665.671
297.833	21.508	868.144	664.940
298.847	21.533	867.580	664.544
299.862	21.537	867.270	664.262
300.876	21.617	867.244	664.488
301.891	21.987	866.474	665.243
302.906	22.082	866.225	665.352
303.920	22.251	865.943	665.715
304.935	22.167	865.984	665.371
305.949	22.113	864.816	664.209
306.964	21.780	863.834	662.138
307.979	21.786	863.584	661.912
308.993	21.972	862.828	661.975
310.008	22.095	862.399	662.051
311.022	21.788	861.626	660.243
312.037	21.644	861.132	659.265
313.052	21.454	860.032	657.650
314.066	21.264	859.522	656.487
315.081	21.456	858.676	656.505
316.095	21.420	857.688	655.555
317.110	21.288	857.455	654.824
318.125	21.443	856.866	654.897
319.139	21.245	856.767	654.022
320.154	21.304	856.085	653.664
321.168	21.388	855.558	653.518
322.183	21.557	855.272	653.873
323.197	21.486	854.442	652.917
324.212	21.589	854.196	653.055
325.227	21.538	853.412	652.209
326.241	21.312	853.081	651.056
327.256	21.356	852.112	650.424
328.270	21.369	851.426	649.889
329.285	21.457	851.146	649.944
330.300	21.274	850.389	648.629
331.314	21.445	850.142	649.017
332.329	21.631	849.789	649.383
333.343	21.827	849.320	649.693
334.358	21.677	849.326	649.084
335.373	21.953	848.701	649.570
336.387	21.884	848.400	649.025
337.402	22.102	848.156	649.589
338.416	22.305	847.934	650.111
339.431	22.468	847.968	650.684
340.446	22.509	847.358	650.308
341.460	22.719	847.026	650.770
342.475	22.643	846.782	650.247
343.489	22.681	846.309	649.966
344.504	22.734	846.073	649.922
345.519	22.822	845.552	649.786
346.533	22.546	845.129	648.388
347.548	22.383	843.938	646.818
348.562	21.995	843.316	644.859
349.577	22.060	842.723	644.590
350.592	21.774	841.726	642.719
351.606	21.775	841.237	642.292
352.621	21.979	840.321	642.284
353.635	21.777	839.814	641.102
354.650	22.145	839.044	641.802
355.665	22.132	838.472	641.257
356.679	22.129	838.373	641.116
357.694	22.165	837.722	640.692
358.708	22.222	836.505	639.913
359.723	22.195	836.421	639.693
360.738	22.188	835.824	639.152
361.752	22.259	835.320	638.970
362.767	22.376	835.284	639.313
363.781	22.758	834.598	640.117
364.796	22.807	834.547	640.197
365.810	22.875	834.124	640.064
366.825	22.930	833.774	639.937
367.840	22.873	832.981	639.064
368.854	22.740	832.201	637.930
369.869	22.526	832.230	637.123
370.883	22.604	831.423	636.728
371.898	22.911	831.210	637.620
372.913	22.844	830.851	637.045
373.927	22.704	830.105	635.913
374.942	22.746	829.423	635.486
375.956	22.880	829.082	635.650
376.971	23.082	828.847	636.139
377.986	23.218	828.636	636.410
379.000	23.238	827.997	635.934
380.015	23.082	827.488	634.927
381.029	23.007	826.778	634.058
382.044	23.128	826.224	634.011
383.059	23.109	825.709	633.490
384.073	23.092	824.366	632.345
385.088	22.747	823.479	630.375
386.102	22.630	822.967	629.510
387.117	22.528	822.813	628.972
388.132	22.496	822.158	628.300
389.146	22.544	821.698	628.066
390.161	22.964	821.449	629.314
391.175	22.919	821.371	629.040
392.190	22.751	820.769	627.924
393.205	22.538	819.475	626.124
394.219	22.607	818.719	625.734
395.234	22.579	818.577	625.472
396.248	22.326	817.922	624.020
397.263	22.297	817.355	623.428
398.278	22.319	817.200	623.334
399.292	22.246	816.371	622.388
400.307	22.365	816.198	622.623
401.321	22.310	816.053	622.259
402.336	22.424	815.600	622.263
403.350	22.667	815.265	622.813
404.365	22.980	814.680	623.413
405.380	22.966	815.265	623.756
406.394	23.190	814.177	623.657
407.409	23.278	814.055	623.819
408.423	23.414	813.642	623.926
409.438	23.569	812.852	623.811
410.453	23.429	812.640	623.099
411.467	23.553	812.342	623.255
412.482	23.636	811.887	623.141
413.496	23.662	811.645	622.989
414.511	23.394	811.738	622.065
415.526	23.445	810.803	621.472
416.540	23.382	810.058	620.627
417.555	23.214	810.084	620.002
418.569	23.617	809.225	620.699
419.584	23.495	808.749	619.855
420.599	23.368	808.374	619.067
421.613	163.381	1371.853	1796.823
422.628	142.198	1453.931	1796.905
