DTS Sentinel unit serial number:	SN413079Multiplexer serial number:	ORYXHardware model number:	OX4-SRSoftware version number:	ORYX F/W v4.00 Oryx Data Collector v3.7.2.0data status	okinstallation	princeton_trtdifferential loss correction	single-endedforward channel	channel 1reverse channel	N/Adate	2019/09/19time	03:54:35forward acquisition time	60.00reverse acquisition time	0.00gamma	496.2192k internal	0.2343k external	0.2343temperature offset calibration	1.0019default loss term (dB/km)	0.3790temperature slope calibration	1.0000multiplexer offset coefficient	1.0000multiplexer slope coefficient	1.0000fibre end	0.00T internal ref (°C)	20.44T ext. ref 1 (°C)	0.63T ext. ref 2 (°C)	14.31length (m)	temperature (°C)	Stokes	anti-Stokes-747.200	-32.395	0.313	-0.175
-746.185	-97.809	-0.257	0.067
-745.171	284.356	0.097	0.174
-744.156	800.000	-0.056	-0.160
-743.142	-200.000	-0.011	-0.196
-742.127	800.000	0.116	0.353
-741.112	185.400	-0.067	-0.099
-740.098	-67.596	0.221	0.087
-739.083	159.364	-0.215	0.299
-738.069	-16.668	0.274	0.173
-737.054	18.059	-0.301	-0.240
-736.039	4.480	-0.360	-0.264
-735.025	-200.000	0.030	0.447
-734.010	-200.000	-0.005	-0.216
-732.996	73.865	-0.363	-0.381
-731.981	80.417	-0.214	0.231
-730.966	-200.000	0.067	0.301
-729.952	-119.327	-0.101	0.018
-728.937	-124.879	0.257	-0.040
-727.923	206.480	0.087	0.135
-726.908	698.310	-0.176	-0.462
-725.894	-33.723	-0.145	0.080
-724.879	-75.371	-0.183	-0.065
-723.864	32.539	0.167	-0.145
-722.850	87.098	-0.153	-0.170
-721.835	-122.288	0.131	0.021
-720.821	800.000	-0.072	-0.202
-719.806	124.544	0.233	-0.294
-718.791	-200.000	0.002	-0.081
-717.777	-55.742	-0.091	-0.041
-716.762	-184.835	-0.311	0.005
-715.748	260.205	-0.105	0.181
-714.733	-58.815	-0.105	0.045
-713.718	49.652	-0.199	-0.188
-712.704	514.509	0.053	-0.123
-711.689	-200.000	0.042	0.186
-710.675	130.313	-0.149	-0.191
-709.660	-49.559	-0.199	-0.095
-708.645	90.968	-0.135	-0.151
-707.631	241.495	-0.028	-0.047
-706.616	-49.974	0.148	-0.070
-705.602	-9.196	-0.148	-0.099
-704.587	238.589	-0.104	0.173
-703.572	206.469	0.155	-0.242
-702.558	-33.617	0.249	-0.137
-701.543	652.495	0.083	-0.212
-700.529	800.000	-0.047	-0.199
-699.514	-61.183	0.101	0.042
-698.499	-154.183	-0.553	-0.037
-697.485	-109.294	0.434	-0.092
-696.470	-45.669	0.039	0.020
-695.456	-89.931	-0.250	0.073
-694.441	-98.244	-0.114	-0.029
-693.426	-200.000	0.011	0.109
-692.412	-97.156	-0.144	-0.038
-691.397	307.187	0.092	-0.171
-690.383	-83.361	-0.214	-0.069
-689.368	491.476	0.142	0.324
-688.354	-169.737	-0.250	-0.009
-687.339	-30.931	0.079	0.045
-686.324	-28.376	-0.064	0.037
-685.310	-200.000	0.033	0.262
-684.295	351.269	-0.100	-0.198
-683.281	15.374	0.139	-0.109
-682.266	15.306	0.129	0.101
-681.251	800.000	0.024	-0.070
-680.237	-200.000	0.069	0.424
-679.222	-200.000	-0.042	0.484
-678.208	-122.645	0.217	0.035
-677.193	-125.950	-0.158	-0.024
-676.178	-142.544	0.122	-0.012
-675.164	495.520	-0.126	0.289
-674.149	-54.154	-0.289	-0.131
-673.135	71.026	0.095	0.099
-672.120	256.074	0.041	0.071
-671.105	800.000	0.107	0.392
-670.091	800.000	-0.078	0.291
-669.076	800.000	-0.047	0.161
-668.062	76.560	-0.203	0.214
-667.047	-105.303	0.276	-0.063
-666.032	13.802	0.139	-0.108
-665.018	444.184	0.018	0.039
-664.003	-68.067	0.076	-0.030
-662.989	209.203	-0.107	0.167
-661.974	70.269	-0.054	-0.055
-660.959	216.642	-0.136	0.216
-659.945	7.986	-0.264	-0.198
-658.930	-97.082	0.025	0.006
-657.916	-145.914	-0.469	-0.042
-656.901	2.822	0.315	0.228
-655.886	800.000	0.162	0.477
-654.872	-200.000	-0.010	-0.340
-653.857	737.313	0.083	-0.221
-652.843	-83.127	-0.380	-0.122
-651.828	230.503	0.156	-0.254
-650.814	-61.195	0.112	-0.047
-649.799	27.512	-0.342	0.287
-648.784	800.000	-0.043	0.119
-647.770	800.000	-0.103	-0.369
-646.755	-59.968	-0.153	0.065
-645.741	-29.033	-0.165	0.095
-644.726	800.000	0.093	0.256
-643.711	-200.000	-0.010	0.063
-642.697	-136.811	-0.185	-0.021
-641.682	159.853	0.055	-0.077
-640.668	-200.000	-0.007	0.194
-639.653	-92.667	0.055	0.015
-638.638	-158.592	-0.502	0.029
-637.624	-200.000	-0.039	-0.565
-636.609	-200.000	-0.012	-0.294
-635.595	800.000	-0.063	-0.185
-634.580	510.635	-0.074	0.171
-633.565	520.881	0.081	-0.190
-632.551	-95.631	-0.069	-0.019
-631.536	800.000	0.060	-0.226
-630.522	-101.357	-0.586	0.142
-629.507	73.860	0.092	-0.096
-628.492	238.992	0.178	-0.295
-627.478	413.242	0.167	-0.353
-626.463	-98.983	0.134	0.034
-625.449	-200.000	-0.010	0.187
-624.434	-11.104	-0.205	0.135
-623.419	-28.522	0.345	-0.198
-622.405	182.837	-0.266	-0.391
-621.390	126.005	0.085	0.107
-620.376	-200.000	0.029	-0.302
-619.361	-37.825	-0.062	-0.033
-618.346	370.270	0.100	-0.202
-617.332	-31.861	0.362	-0.202
-616.317	233.457	-0.069	-0.113
-615.303	-130.448	-0.145	-0.020
-614.288	-164.977	0.048	0.002
-613.273	-160.358	-0.326	-0.017
-612.259	-100.785	-0.249	-0.061
-611.244	-177.057	0.242	-0.006
-610.230	101.933	0.403	-0.468
-609.215	-110.847	-0.321	0.066
-608.201	-93.584	0.383	-0.105
-607.186	198.991	-0.119	0.182
-606.171	40.228	-0.127	0.114
-605.157	-72.157	-0.150	-0.055
-604.142	95.787	0.089	0.102
-603.128	-117.128	-0.041	-0.008
-602.113	-59.947	-0.041	-0.017
-601.098	-92.388	0.096	-0.027
-600.084	800.000	-0.030	-0.087
-599.069	29.354	-0.183	-0.155
-598.055	-200.000	0.005	-0.128
-597.040	-25.044	0.109	0.065
-596.025	-178.476	0.210	-0.005
-595.011	-200.000	0.006	-0.206
-593.996	800.000	-0.045	0.197
-592.982	-71.107	-0.241	-0.090
-591.967	-200.000	0.003	0.329
-590.952	-100.917	-0.433	0.106
-589.938	-89.187	-0.140	0.041
-588.923	-200.000	0.049	0.343
-587.909	403.540	-0.184	-0.385
-586.894	-174.567	-0.260	-0.007
-585.879	118.405	-0.179	-0.220
-584.865	-23.603	-0.175	0.104
-583.850	273.192	0.080	-0.140
-582.836	12.379	-0.106	-0.081
-581.821	-84.198	-0.209	0.066
-580.806	95.894	0.155	-0.176
-579.792	453.115	0.076	-0.167
-578.777	427.998	-0.098	0.210
-577.763	160.895	0.204	0.284
-576.748	-108.902	-0.307	-0.065
-575.733	800.000	0.095	-0.277
-574.719	349.311	0.060	-0.118
-573.704	-51.113	-0.070	-0.033
-572.690	800.000	0.107	0.327
-571.675	126.791	-0.159	0.201
-570.661	-11.413	0.230	0.151
-569.646	430.112	-0.141	-0.303
-568.631	317.604	-0.099	-0.187
-567.617	-115.246	-0.285	-0.054
-566.602	-107.076	0.328	0.072
-565.588	159.762	0.026	0.037
-564.573	240.261	-0.130	-0.216
-563.558	-157.871	-0.191	-0.011
-562.544	-62.153	0.248	-0.103
-561.529	-92.774	0.331	0.092
-560.515	452.614	-0.057	-0.126
-559.500	366.266	0.019	0.037
-558.485	-113.492	-0.257	-0.050
-557.471	187.168	-0.062	0.092
-556.456	28.669	0.085	-0.072
-555.442	93.144	-0.014	-0.016
-554.427	800.000	-0.062	0.226
-553.412	219.420	-0.058	-0.093
-552.398	-163.806	-0.275	0.013
-551.383	800.000	-0.023	-0.079
-550.369	158.992	0.171	-0.236
-549.354	-13.971	-0.350	-0.225
-548.339	800.000	-0.104	-0.293
-547.325	-154.157	-0.119	-0.008
-546.310	8.898	-0.140	-0.105
-545.296	-119.714	-0.451	0.077
-544.281	490.289	0.101	-0.229
-543.266	-59.751	-0.137	0.058
-542.252	-24.194	0.172	-0.102
-541.237	-200.000	-0.014	0.127
-540.223	-200.000	-0.034	0.190
-539.208	121.843	0.115	0.143
-538.193	585.209	-0.068	0.166
-537.179	78.134	-0.160	-0.170
-536.164	104.626	-0.078	-0.091
-535.150	-200.000	0.031	0.202
-534.135	-49.422	-0.133	-0.063
-533.121	-34.384	-0.202	-0.110
-532.106	-116.782	0.282	0.051
-531.091	92.734	-0.080	-0.090
-530.077	-116.244	-0.056	-0.010
-529.062	213.633	-0.142	0.223
-528.048	-200.000	0.008	-0.105
-527.033	-82.125	-0.205	-0.066
-526.018	-44.493	0.095	-0.047
-525.004	-10.651	-0.462	-0.304
-523.989	-49.639	0.310	0.146
-522.975	-200.000	0.007	0.395
-521.960	-25.663	-0.214	0.125
-520.945	-77.815	0.181	0.062
-519.931	-123.006	-0.273	0.044
-518.916	-160.670	0.224	-0.012
-517.902	-200.000	0.027	-0.145
-516.887	-50.001	0.177	0.084
-515.872	800.000	0.036	0.130
-514.858	142.558	0.063	-0.083
-513.843	-128.556	0.325	-0.046
-512.829	28.490	0.067	-0.056
-511.814	-120.860	-0.117	0.020
-510.799	-113.689	0.094	-0.018
-509.785	-37.250	-0.007	-0.004
-508.770	-134.416	0.389	0.047
-507.756	1.955	-0.186	-0.133
-506.741	-132.526	0.323	-0.041
-505.726	194.920	-0.152	-0.229
-504.712	104.440	0.112	-0.131
-503.697	800.000	-0.095	-0.276
-502.683	-200.000	0.029	-0.137
-501.668	-147.428	-0.258	-0.022
-500.653	131.350	0.144	0.183
-499.639	401.368	0.085	-0.178
-498.624	-122.090	-0.132	-0.021
-497.610	-200.000	0.021	0.208
-496.595	800.000	0.046	0.135
-495.581	800.000	-0.035	-0.133
-494.566	652.366	-0.093	-0.236
-493.551	134.765	-0.401	-0.517
-492.537	-174.614	0.196	0.006
-491.522	52.153	-0.174	0.164
-490.508	-32.465	0.171	0.095
-489.493	230.362	0.028	-0.046
-488.478	17.561	-0.093	0.073
-487.464	326.998	-0.023	0.044
-486.449	-1.265	0.295	-0.207
-485.435	40.183	0.256	-0.228
-484.420	-167.998	0.193	0.007
-483.405	-193.778	-0.154	-0.001
-482.391	-172.136	0.113	0.004
-481.376	346.209	0.215	-0.419
-480.362	408.639	0.187	0.392
-479.347	-79.908	0.131	0.044
-478.332	-62.009	-0.163	0.067
-477.318	-93.640	0.588	0.161
-476.303	140.042	0.047	-0.061
-475.289	86.851	-0.186	0.204
-474.274	-68.343	-0.192	-0.074
-473.259	47.712	-0.077	0.071
-472.245	344.602	0.086	-0.166
-471.230	800.000	0.056	-0.197
-470.216	-12.728	0.120	-0.077
-469.201	-65.652	0.178	-0.071
-468.186	-41.875	-0.238	-0.121
-467.172	-29.776	-0.035	0.020
-466.157	3.770	-0.156	0.113
-465.143	800.000	-0.064	0.178
-464.128	800.000	-0.016	0.066
-463.113	-189.997	-0.165	0.002
-462.099	-68.425	0.079	0.030
-461.084	800.000	0.048	-0.174
-460.070	-148.270	0.317	0.026
-459.055	-31.907	-0.213	0.118
-458.040	10.554	0.272	0.205
-457.026	-105.469	0.047	-0.011
-456.011	-125.785	-0.085	0.013
-454.997	-8.650	-0.215	-0.143
-453.982	-156.008	0.520	-0.033
-452.968	-200.000	0.002	0.181
-451.953	-200.000	0.001	0.059
-450.938	55.873	-0.029	-0.028
-449.924	-45.541	-0.159	-0.078
-448.909	-72.870	-0.168	-0.061
-447.895	92.968	0.142	-0.158
-446.880	-200.000	-0.095	-0.420
-445.865	397.712	0.064	-0.132
-444.851	-3.640	0.274	0.188
-443.836	-200.000	-0.005	-0.173
-442.822	62.276	-0.111	0.109
-441.807	-56.383	-0.083	0.036
-440.792	-46.670	0.109	-0.053
-439.778	79.967	-0.154	0.164
-438.763	800.000	-0.042	0.120
-437.749	28.206	-0.287	0.240
-436.734	-158.436	-0.317	0.018
-435.719	-49.450	0.127	-0.060
-434.705	49.875	0.159	-0.149
-433.690	-200.000	0.027	0.129
-432.676	62.151	-0.200	-0.198
-431.661	26.744	-0.110	0.091
-430.646	-41.130	-0.064	0.033
-429.632	800.000	0.077	0.321
-428.617	121.559	-0.181	-0.223
-427.603	-101.318	0.091	-0.022
-426.588	800.000	-0.009	-0.030
-425.573	-116.818	0.283	0.051
-424.559	-62.933	-0.298	0.122
-423.544	-43.107	0.232	0.116
-422.530	-14.320	-0.373	0.238
-421.515	-137.598	-0.168	-0.019
-420.500	-148.249	0.251	-0.020
-419.486	-200.000	-0.023	-0.223
-418.471	-59.688	-0.184	-0.078
-417.457	13.381	-0.228	-0.175
-416.442	300.795	-0.039	0.072
-415.428	800.000	-0.115	0.488
-414.413	-200.000	0.015	-0.210
-413.398	-200.000	0.048	-0.216
-412.384	-54.195	-0.324	0.145
-411.369	-109.222	0.092	0.019
-410.355	436.824	0.094	0.203
-409.340	-122.241	-0.247	0.040
-408.325	800.000	-0.020	0.066
-407.311	248.184	-0.110	-0.184
-406.296	-21.618	0.051	0.031
-405.282	78.334	-0.216	-0.228
-404.267	-22.983	0.113	0.067
-403.252	707.175	-0.135	0.352
-402.238	17.842	-0.068	0.053
-401.223	-73.665	-0.211	-0.076
-400.209	-69.854	0.283	0.107
-399.194	800.000	-0.071	-0.271
-398.179	-200.000	-0.001	-0.220
-397.165	-24.791	-0.135	-0.079
-396.150	-200.000	0.005	-0.283
-395.136	31.754	-0.258	-0.220
-394.121	-157.717	0.084	0.005
-393.106	313.342	0.080	0.149
-392.092	143.628	-0.197	0.260
-391.077	800.000	-0.075	-0.219
-390.063	151.854	0.124	-0.166
-389.048	-200.000	0.054	-0.263
-388.033	-7.205	0.145	-0.097
-387.019	-20.205	0.169	0.103
-386.004	-177.334	0.197	0.005
-384.990	-93.010	0.436	0.120
-383.975	-33.321	0.238	0.130
-382.960	-15.840	-0.505	-0.318
-381.946	-200.000	-0.005	-0.234
-380.931	-200.000	-0.016	0.182
-379.917	-29.022	-0.273	0.155
-378.902	155.831	0.096	0.130
-377.888	-90.126	0.311	-0.090
-376.873	-169.561	0.245	0.009
-375.858	105.894	-0.163	0.190
-374.844	-5.941	-0.170	0.115
-373.829	14.644	0.276	0.213
-372.815	800.000	0.026	0.104
-371.800	-18.521	-0.212	-0.131
-370.785	67.888	0.199	0.201
-369.771	497.421	-0.022	0.050
-368.756	-172.959	-0.240	0.007
-367.742	47.341	0.072	0.066
-366.727	-163.794	0.386	0.018
-365.712	4.455	0.132	0.095
-364.698	-108.307	0.286	0.061
-363.683	800.000	0.099	-0.285
-362.669	-74.752	-0.227	0.080
-361.654	-36.080	0.137	-0.073
-360.639	-184.995	-0.280	0.004
-359.625	-200.000	-0.040	0.189
-358.610	-200.000	0.040	-0.206
-357.596	67.315	0.214	-0.216
-356.581	-87.864	-0.188	0.056
-355.566	-200.000	-0.029	0.346
-354.552	800.000	0.082	0.280
-353.537	51.146	-0.113	0.106
-352.523	46.779	0.057	-0.052
-351.508	472.064	0.051	0.114
-350.493	800.000	-0.063	0.190
-349.479	-200.000	-0.034	0.154
-348.464	-108.017	-0.274	0.059
-347.450	-138.219	0.092	-0.010
-346.435	-96.145	0.169	-0.044
-345.420	1.429	0.137	-0.097
-344.406	800.000	-0.094	0.261
-343.391	800.000	0.142	0.566
-342.377	274.553	-0.111	0.194
-341.362	-81.857	-0.095	-0.031
-340.348	78.825	0.171	-0.180
-339.333	-148.118	0.388	0.032
-338.318	55.061	-0.176	-0.167
-337.304	-46.731	-0.128	-0.062
-336.289	-58.676	-0.167	-0.071
-335.275	17.388	-0.048	-0.038
-334.260	-200.000	0.038	-0.197
-333.245	800.000	0.047	-0.163
-332.231	8.898	0.071	-0.053
-331.216	800.000	0.098	-0.421
-330.202	-200.000	-0.004	-0.329
-329.187	275.267	-0.167	-0.291
-328.172	66.104	0.275	-0.275
-327.158	106.203	-0.066	0.077
-326.143	-123.768	0.403	0.063
-325.129	133.458	0.070	0.090
-324.114	-95.854	0.366	-0.096
-323.099	800.000	0.008	-0.026
-322.085	-54.154	-0.255	0.114
-321.070	-180.535	0.283	-0.006
-320.056	-200.000	0.022	0.137
-319.041	-36.613	-0.334	0.177
-318.026	-200.000	0.006	0.096
-317.012	800.000	-0.061	0.190
-315.997	315.770	-0.212	0.395
-314.983	30.984	-0.053	-0.045
-313.968	-192.932	0.363	-0.003
-312.953	-142.876	-0.322	0.031
-311.939	800.000	0.060	0.244
-310.924	21.522	-0.066	0.053
-309.910	-200.000	0.000	0.126
-308.895	41.530	0.089	0.080
-307.880	62.193	-0.171	-0.168
-306.866	124.296	0.209	-0.258
-305.851	-148.661	0.366	0.029
-304.837	-45.207	-0.270	0.132
-303.822	-115.154	0.063	-0.012
-302.807	-70.614	0.094	-0.035
-301.793	800.000	0.045	0.170
-300.778	83.133	0.231	0.247
-299.764	35.202	-0.055	0.047
-298.749	-200.000	0.017	0.077
-297.735	73.537	-0.254	0.261
-296.720	-47.414	-0.059	-0.028
-295.705	-200.000	0.020	-0.088
-294.691	23.076	0.223	-0.180
-293.676	462.372	-0.103	0.226
-292.662	800.000	-0.060	0.191
-291.647	-200.000	-0.038	0.459
-290.632	800.000	0.004	0.013
-289.618	347.002	-0.079	-0.152
-288.603	-96.164	0.330	-0.086
-287.589	800.000	0.046	-0.180
-286.574	274.110	0.105	-0.182
-285.559	-171.370	-0.229	-0.008
-284.545	107.330	-0.252	-0.294
-283.530	383.872	-0.020	-0.041
-282.516	-149.361	0.219	0.017
-281.501	459.903	0.102	0.224
-280.486	-200.000	0.052	-0.225
-279.472	-168.811	-0.234	0.009
-278.457	-102.630	-0.242	-0.057
-277.443	-4.664	-0.213	-0.145
-276.428	-200.000	0.079	-0.351
-275.413	-14.945	-0.033	-0.021
-274.399	98.642	0.035	0.040
-273.384	800.000	0.048	-0.166
-272.370	-200.000	0.046	-0.300
-271.355	-200.000	0.020	-0.186
-270.340	-200.000	-0.009	0.131
-269.326	107.381	0.069	0.081
-268.311	-139.175	-0.155	-0.016
-267.297	-50.258	0.148	0.069
-266.282	-10.810	0.105	-0.068
-265.267	800.000	0.135	0.471
-264.253	130.761	-0.159	0.200
-263.238	167.317	0.067	-0.094
-262.224	-115.314	-0.393	0.073
-261.209	-200.000	0.037	0.234
-260.195	381.108	0.004	-0.009
-259.180	581.561	0.017	-0.041
-258.165	-200.000	0.057	0.617
-257.151	-151.760	-0.115	-0.008
-256.136	-47.396	0.286	0.137
-255.122	130.774	-0.197	-0.249
-254.107	800.000	0.092	0.270
-253.092	800.000	0.117	-0.329
-252.078	294.372	0.123	0.220
-251.063	269.974	-0.043	-0.074
-250.049	292.109	0.274	-0.489
-249.034	85.492	0.049	-0.053
-248.019	-200.000	0.011	0.203
-247.005	23.270	-0.116	-0.094
-245.990	42.744	-0.073	-0.065
-244.976	-200.000	0.003	-0.281
-243.961	-110.307	-0.219	-0.045
-242.946	-197.595	0.312	-0.002
-241.932	38.186	-0.222	0.194
-240.917	71.655	-0.353	0.360
-239.903	533.883	0.078	-0.182
-238.888	-86.509	0.354	-0.107
-237.873	131.584	0.034	0.043
-236.859	216.196	-0.031	-0.048
-235.844	581.649	0.031	0.074
-234.830	-122.200	-0.158	0.025
-233.815	-116.174	0.359	-0.065
-232.800	201.291	-0.060	0.091
-231.786	120.678	0.057	0.069
-230.771	-200.000	-0.004	-0.093
-229.757	800.000	0.018	-0.060
-228.742	-166.420	-0.089	-0.004
-227.727	-52.271	-0.024	0.011
-226.713	219.410	0.145	-0.227
-225.698	-200.000	0.042	-0.222
-224.684	-97.801	0.325	-0.082
-223.669	3.437	0.126	-0.090
-222.655	-88.842	-0.194	0.056
-221.640	23.145	-0.076	0.061
-220.625	328.073	-0.056	0.106
-219.611	800.000	0.042	-0.144
-218.596	32.277	-0.261	-0.221
-217.582	-81.709	0.291	0.094
-216.567	-63.128	0.080	-0.032
-215.552	-0.611	0.106	-0.074
-214.538	800.000	-0.081	0.225
-213.523	-200.000	0.006	0.172
-212.509	-158.712	0.415	0.023
-211.494	272.764	0.143	0.248
-210.479	-39.754	-0.090	0.046
-209.465	-154.361	0.216	-0.014
-208.450	-200.000	-0.016	0.080
-207.436	180.113	0.114	0.163
-206.421	148.586	0.088	-0.117
-205.406	248.678	-0.076	0.126
-204.392	145.096	0.216	-0.283
-203.377	-92.946	-0.344	-0.094
-202.363	-200.000	0.001	0.150
-201.348	-57.324	0.098	0.042
-200.333	143.675	0.034	0.044
-199.319	676.818	-0.060	0.153
-198.304	-200.000	0.002	-0.094
-197.290	800.000	0.017	0.063
-196.275	-115.892	0.095	0.017
-195.260	424.382	0.184	0.387
-194.246	-21.981	-0.220	0.131
-193.231	188.754	0.039	-0.057
-192.217	0.053	0.099	-0.069
-191.202	-200.000	-0.032	-0.201
-190.187	-16.813	0.124	0.077
-189.173	8.885	-0.297	0.220
-188.158	800.000	-0.044	0.179
-187.144	23.235	-0.260	0.209
-186.129	-50.009	-0.261	0.121
-185.114	-156.429	0.190	0.012
-184.100	-59.626	0.270	0.114
-183.085	201.047	-0.063	0.095
-182.071	10.956	0.202	0.151
-181.056	-1.326	0.091	0.063
-180.042	65.261	0.331	-0.328
-179.027	-200.000	-0.017	0.442
-178.012	132.704	0.116	0.147
-176.998	800.000	0.050	0.138
-175.983	135.536	-0.168	-0.214
-174.969	22.716	-0.187	0.150
-173.954	-61.952	0.113	-0.046
-172.939	229.875	-0.064	-0.102
-171.925	-200.000	-0.011	0.262
-170.910	-200.000	0.023	0.183
-169.896	-159.022	0.176	-0.010
-168.881	-200.000	0.014	0.234
-167.866	179.721	0.175	-0.251
-166.852	-192.984	0.248	-0.002
-165.837	-3.050	0.177	0.121
-164.823	-39.647	0.176	0.090
-163.808	2.054	-0.210	0.149
-162.793	-200.000	0.023	0.365
-161.779	-97.287	0.226	-0.058
-160.764	487.337	0.081	0.181
-159.750	104.422	-0.091	-0.105
-158.735	800.000	0.068	-0.269
-157.720	-57.244	-0.084	-0.036
-156.706	-104.047	0.252	0.057
-155.691	800.000	0.038	0.132
-154.677	-35.062	-0.198	0.106
-153.662	-108.922	-0.134	-0.028
-152.647	399.701	0.199	0.408
-151.633	-78.352	0.300	0.101
-150.618	-145.370	0.122	0.011
-149.604	-200.000	-0.016	-0.158
-148.589	96.782	0.045	0.051
-147.574	-156.933	-0.256	0.015
-146.560	667.391	-0.075	-0.189
-145.545	322.733	-0.186	-0.347
-144.531	800.000	-0.040	0.160
-143.516	115.221	0.233	0.278
-142.502	-4.504	-0.071	-0.048
-141.487	800.000	0.056	0.163
-140.472	-68.466	-0.014	-0.005
-139.458	187.949	0.125	0.183
-138.443	-22.675	0.093	0.055
-137.429	-28.223	0.290	0.164
-136.414	-111.392	-0.134	0.027
-135.399	29.217	0.258	0.214
-134.385	396.032	-0.089	0.181
-133.370	800.000	-0.087	0.250
-132.356	-153.221	0.088	0.006
-131.341	189.718	0.135	0.198
-130.326	254.995	0.093	-0.156
-129.312	-10.513	0.194	0.125
-128.297	37.352	0.138	0.120
-127.283	180.644	0.080	0.115
-126.268	-158.098	-0.155	-0.009
-125.253	22.611	0.129	-0.103
-124.239	-137.783	0.382	-0.042
-123.224	-200.000	0.021	0.222
-122.210	-102.069	-0.339	0.080
-121.195	-142.095	-0.197	-0.019
-120.180	-200.000	0.006	0.219
-119.166	800.000	0.088	0.325
-118.151	12.651	0.140	0.106
-117.137	175.089	-0.190	0.269
-116.122	273.448	-0.021	-0.037
-115.107	-200.000	-0.008	-0.368
-114.093	-167.443	-0.407	0.016
-113.078	-84.931	0.307	0.094
-112.064	621.655	0.015	0.037
-111.049	-114.788	0.355	-0.066
-110.034	-29.308	-0.468	-0.262
-109.020	-130.259	-0.096	-0.013
-108.005	-66.637	0.062	-0.024
-106.991	-200.000	0.028	0.194
-105.976	-61.314	-0.192	0.079
-104.962	19.040	-0.166	-0.130
-103.947	20.902	-0.283	0.224
-102.932	-170.632	-0.080	0.003
-101.918	-200.000	0.057	-0.275
-100.903	800.000	-0.049	0.171
-99.889	35.717	-0.147	-0.126
-98.874	800.000	0.028	0.100
-97.859	-161.512	-0.277	-0.014
-96.845	-77.237	0.054	0.018
-95.830	380.418	-0.101	0.201
-94.816	267.645	0.104	0.177
-93.801	-148.817	0.371	-0.029
-92.786	-79.601	0.341	0.112
-91.772	-61.682	0.258	-0.106
-90.757	-84.566	-0.240	0.074
-89.743	800.000	-0.094	-0.271
-88.728	-48.511	0.388	-0.182
-87.713	-19.575	0.414	0.250
-86.699	-134.803	0.063	0.007
-85.684	-200.000	-0.049	0.223
-84.670	-18.506	-0.217	0.132
-83.655	-200.000	-0.078	-0.443
-82.640	116.653	0.293	-0.351
-81.626	130.548	-0.081	-0.102
-80.611	-18.944	0.059	-0.036
-79.597	-163.573	-0.063	-0.003
-78.582	-200.000	0.025	0.276
-77.567	-138.977	-0.196	-0.021
-76.553	-92.519	0.595	0.163
-75.538	-110.181	-0.222	-0.045
-74.524	48.022	0.301	0.274
-73.509	800.000	0.070	0.258
-72.494	-132.086	0.357	-0.045
-71.480	105.388	-0.140	-0.161
-70.465	137.212	-0.131	0.167
-69.451	86.235	0.121	0.130
-68.436	148.896	0.192	0.253
-67.422	-61.194	-0.154	0.063
-66.407	-200.000	-0.038	-0.189
-65.392	81.075	0.100	0.106
-64.378	-200.000	-0.004	-0.071
-63.363	153.912	-0.063	-0.084
-62.349	-176.718	-0.106	-0.003
-61.334	28.645	-1.236	-1.020
-60.319	450.911	0.460	0.991
-59.305	314.124	-0.694	-1.273
-58.290	291.379	0.734	1.302
-57.276	420.612	0.712	1.487
-56.261	-200.000	136.974	661.280
-55.246	334.358	1672.674	3156.701
-54.232	134.286	2799.535	3537.502
-53.217	84.981	2170.761	2319.462
-52.203	31.294	1601.675	1340.344
-51.188	23.475	1352.446	1084.142
-50.173	21.431	1316.267	1042.919
-49.159	48.748	1390.529	1271.022
-48.144	44.741	1399.103	1254.198
-47.130	23.682	1346.930	1080.805
-46.115	20.596	1328.150	1047.144
-45.100	20.420	1322.604	1041.670
-44.086	20.354	1320.045	1039.221
-43.071	20.286	1318.050	1037.202
-42.057	20.331	1315.691	1035.570
-41.042	20.306	1314.399	1034.367
-40.027	20.375	1312.607	1033.326
-39.013	20.340	1310.591	1031.490
-37.998	20.304	1309.023	1030.004
-36.984	20.431	1307.438	1029.464
-35.969	20.450	1305.614	1028.104
-34.954	20.394	1304.297	1026.691
-33.940	20.495	1302.650	1025.951
-32.925	20.492	1301.390	1024.903
-31.911	20.413	1300.393	1023.610
-30.896	20.519	1298.337	1022.574
-29.881	20.514	1297.573	1021.904
-28.867	20.610	1295.797	1021.025
-27.852	20.546	1294.810	1019.831
-26.838	20.556	1293.209	1018.591
-25.823	20.487	1291.505	1016.803
-24.809	20.591	1290.446	1016.540
-23.794	20.538	1289.377	1015.345
-22.779	20.521	1287.870	1014.018
-21.765	20.608	1286.483	1013.395
-20.750	20.464	1285.349	1011.625
-19.736	20.447	1284.282	1010.646
-18.721	20.385	1283.032	1009.257
-17.706	20.489	1281.702	1008.777
-16.692	20.408	1280.644	1007.434
-15.677	20.396	1279.880	1006.722
-14.663	20.502	1277.626	1005.525
-13.648	20.333	1277.303	1004.253
-12.633	20.308	1276.788	1003.665
-11.619	20.388	1275.940	1003.422
-10.604	20.317	1274.983	1002.217
-9.590	20.399	1273.722	1001.656
-8.575	20.330	1272.992	1000.645
-7.560	20.334	1271.897	999.768
-6.546	20.363	1271.268	999.406
-5.531	20.409	1270.575	999.082
-4.517	20.408	1269.401	998.117
-3.502	20.303	1269.067	997.209
-2.487	20.348	1268.147	996.706
-1.473	20.455	1262.903	993.153
-0.458	18.674	1247.973	971.305
0.556	14.301	1233.005	934.742
1.571	10.759	1241.256	920.866
2.586	10.107	1256.600	928.425
3.600	10.324	1244.110	920.346
4.615	7.801	1172.487	853.759
5.629	2.983	1103.138	778.818
6.644	0.793	1087.648	756.864
7.659	0.530	1085.450	753.951
8.673	0.562	1084.755	753.561
9.688	0.656	1083.173	752.864
10.702	0.760	1080.893	751.730
11.717	3.765	1083.923	768.736
12.731	9.964	1092.869	806.025
13.746	15.330	1099.154	837.454
14.761	17.077	1101.680	848.038
15.775	16.544	1099.582	843.690
16.790	15.537	1098.058	837.427
17.804	14.909	1096.289	832.878
18.819	14.618	1094.968	830.351
19.834	14.218	1094.765	828.133
20.848	14.010	1093.768	826.274
21.863	13.743	1092.882	824.205
22.877	13.619	1092.018	822.863
23.892	13.632	1091.145	822.196
24.907	13.593	1090.069	821.121
25.921	13.538	1089.746	820.534
26.936	13.728	1088.763	820.659
27.950	13.804	1087.309	819.866
28.965	13.759	1086.510	818.971
29.980	13.837	1084.580	817.829
30.994	13.888	1083.762	817.391
32.009	13.908	1083.067	816.892
33.023	13.819	1081.818	815.441
34.038	13.757	1080.981	814.430
35.053	13.761	1080.190	813.782
36.067	13.685	1079.134	812.542
37.082	13.707	1078.422	812.044
38.096	13.828	1077.457	811.835
39.111	13.852	1076.804	811.390
40.126	13.681	1075.780	809.714
41.140	13.654	1074.617	808.631
42.155	13.618	1073.488	807.537
43.169	13.628	1072.327	806.642
44.184	13.543	1071.903	805.838
45.199	13.652	1070.293	805.086
46.213	13.648	1069.439	804.353
47.228	13.724	1067.889	803.484
48.242	13.690	1067.033	802.603
49.257	13.713	1065.892	801.787
50.271	13.661	1065.498	801.168
51.286	13.653	1064.636	800.408
52.301	13.796	1063.289	800.013
53.315	13.717	1062.107	798.673
54.330	13.735	1061.097	797.928
55.344	13.692	1060.343	797.086
56.359	13.724	1059.375	796.440
57.374	13.749	1058.705	795.987
58.388	13.647	1057.915	794.834
59.403	13.596	1057.103	793.908
60.417	13.652	1056.235	793.453
61.432	13.519	1055.601	792.270
62.447	13.549	1054.930	791.842
63.461	13.493	1054.081	790.870
64.476	13.513	1052.885	789.995
65.490	13.494	1052.439	789.502
66.505	13.591	1051.380	789.097
67.520	13.665	1050.463	788.690
68.534	13.567	1049.928	787.754
69.549	13.548	1049.446	787.231
70.563	13.573	1048.251	786.383
71.578	13.576	1047.518	785.778
72.593	13.426	1046.916	784.549
73.607	13.540	1045.943	784.290
74.622	13.490	1045.606	783.733
75.636	13.473	1044.918	783.064
76.651	13.383	1043.960	781.853
77.666	13.482	1043.297	781.756
78.680	13.474	1042.721	781.216
79.695	13.496	1041.924	780.656
80.709	13.575	1041.223	780.430
81.724	13.625	1040.609	780.136
82.739	13.732	1039.813	779.977
83.753	13.715	1038.816	779.080
84.768	13.804	1038.062	778.860
85.782	13.892	1036.616	778.120
86.797	13.841	1036.095	777.423
87.812	13.658	1035.429	775.998
88.826	13.888	1033.831	775.807
89.841	13.790	1032.929	774.602
90.855	13.811	1032.625	774.404
91.870	13.707	1031.567	773.054
92.884	13.785	1030.561	772.600
93.899	13.770	1029.788	771.880
94.914	13.946	1028.867	771.940
95.928	13.921	1027.825	770.971
96.943	13.689	1027.823	769.828
97.957	13.757	1026.484	769.069
98.972	13.960	1025.079	768.890
99.987	13.788	1024.542	767.626
101.001	13.758	1023.729	766.806
102.016	13.857	1022.536	766.302
103.030	13.828	1022.109	765.781
104.045	13.775	1021.190	764.780
105.060	13.845	1020.143	764.253
106.074	13.792	1019.404	763.388
107.089	13.760	1018.241	762.303
108.103	13.722	1017.457	761.474
109.118	13.778	1016.146	760.681
110.133	13.752	1015.833	760.261
111.147	13.650	1014.662	758.848
112.162	13.751	1014.036	758.777
113.176	13.789	1013.133	758.208
114.191	13.764	1012.582	757.614
115.206	13.735	1012.060	757.023
116.220	13.660	1011.442	756.150
117.235	13.800	1009.885	755.557
118.249	13.786	1009.209	754.921
119.264	13.762	1008.558	754.260
120.279	13.717	1007.889	753.486
121.293	13.628	1007.098	752.424
122.308	13.682	1006.099	751.856
123.322	13.760	1004.775	751.155
124.337	13.714	1003.591	749.994
125.352	13.653	1002.755	749.027
126.366	13.622	1001.741	748.064
127.381	13.715	1000.415	747.428
128.395	13.716	999.667	746.809
129.410	13.752	998.491	746.026
130.424	13.721	997.905	745.379
131.439	13.824	997.015	745.111
132.454	13.730	996.133	743.968
133.468	13.807	995.568	743.825
134.483	13.777	994.712	742.987
135.497	13.891	993.481	742.508
136.512	13.798	993.305	741.894
137.527	13.812	992.029	740.940
138.541	13.823	991.232	740.328
139.556	13.907	990.746	740.272
140.570	13.936	989.897	739.703
141.585	14.000	989.070	739.304
142.600	14.055	988.083	738.745
143.614	13.994	987.355	737.866
144.629	13.997	986.514	737.185
145.643	13.948	985.348	736.030
146.658	13.949	984.942	735.665
147.673	13.938	983.718	734.639
148.687	13.810	983.105	733.553
149.702	13.892	981.974	733.005
150.716	13.972	981.265	732.764
151.731	13.744	981.135	731.596
152.746	13.896	980.075	731.409
153.760	13.905	979.487	730.945
154.775	14.041	978.514	730.751
155.789	14.033	978.077	730.325
156.804	14.096	977.376	730.017
157.819	14.254	976.197	729.764
158.833	14.182	975.628	728.959
159.848	14.117	975.214	728.297
160.862	14.044	974.208	727.163
161.877	14.065	973.032	726.314
162.892	14.166	971.950	725.882
163.906	14.151	971.143	725.152
164.921	14.022	970.506	724.050
165.935	14.062	969.500	723.408
166.950	14.129	968.285	722.728
167.964	14.157	967.629	722.297
168.979	14.127	966.693	721.405
169.994	14.107	965.806	720.593
171.008	14.173	965.477	720.568
172.023	14.244	964.211	719.868
173.037	14.163	964.141	719.400
174.052	14.281	962.679	718.756
175.067	14.229	961.944	717.920
176.081	14.148	961.994	717.545
177.096	14.052	961.203	716.476
178.110	14.267	960.364	716.714
179.125	14.125	959.820	715.633
180.140	14.220	959.425	715.684
181.154	14.294	958.983	715.610
182.169	14.439	958.256	715.627
183.183	14.280	957.792	714.534
184.198	14.319	957.169	714.170
185.213	14.409	956.205	713.775
186.227	14.412	955.118	712.914
187.242	14.389	954.831	712.537
188.256	14.431	953.936	711.985
189.271	14.440	953.035	711.288
190.286	14.312	952.413	710.217
191.300	14.240	951.943	709.498
192.315	14.316	951.312	709.286
193.329	14.326	950.944	708.991
194.344	14.511	949.780	708.847
195.359	14.411	949.285	707.989
196.373	14.532	948.450	707.821
197.388	14.492	948.626	707.718
198.402	14.536	947.478	706.986
199.417	14.424	947.034	706.117
200.432	14.727	946.308	706.794
201.446	14.708	945.429	705.996
202.461	14.716	945.459	705.990
203.475	14.666	944.714	705.161
204.490	14.649	943.550	704.156
205.504	14.575	943.069	703.424
206.519	14.733	942.302	703.454
207.534	14.748	941.782	703.067
208.548	14.678	941.244	702.308
209.563	14.578	940.491	701.265
210.577	14.606	939.729	700.753
211.592	14.843	938.318	700.630
212.607	14.849	937.791	700.202
213.621	14.827	937.393	699.750
214.636	14.903	936.518	699.352
215.650	14.744	936.211	698.396
216.665	14.823	935.613	698.219
217.680	14.728	934.778	697.137
218.694	14.745	934.115	696.652
219.709	14.840	933.533	696.553
220.723	14.833	932.644	695.800
221.738	14.882	931.508	695.093
222.753	14.877	931.411	694.940
223.767	14.943	930.536	694.498
224.782	14.947	930.159	694.171
225.796	15.043	929.552	694.055
226.811	14.976	928.493	692.928
227.826	14.898	928.166	692.300
228.840	14.894	927.232	691.521
229.855	14.931	926.540	691.098
230.869	15.051	925.540	690.788
231.884	15.055	925.166	690.464
232.899	15.038	923.931	689.410
233.913	14.820	924.395	688.796
234.928	15.129	923.100	689.044
235.942	14.924	922.607	687.770
236.957	14.973	921.762	687.282
237.972	15.053	921.128	687.076
238.986	15.044	920.869	686.787
240.001	15.029	920.234	686.190
241.015	14.967	919.434	685.277
242.030	15.025	918.713	684.918
243.045	15.095	918.293	684.829
244.059	15.186	917.505	684.553
245.074	15.074	917.111	683.743
246.088	15.193	916.347	683.597
247.103	15.293	915.701	683.463
248.117	15.256	915.272	682.931
249.132	15.299	914.761	682.665
250.147	15.409	913.662	682.233
251.161	15.441	913.145	681.915
252.176	15.461	912.305	681.308
253.190	15.323	912.009	680.467
254.205	15.319	911.460	679.982
255.220	15.495	910.396	679.841
256.234	15.507	909.714	679.319
257.249	15.474	909.132	678.691
258.263	15.526	908.082	678.058
259.278	15.478	907.390	677.287
260.293	15.581	906.964	677.326
261.307	15.651	906.282	677.038
262.322	15.477	905.856	675.956
263.336	15.608	905.090	675.853
264.351	15.683	904.168	675.409
265.366	15.581	903.747	674.624
266.380	15.654	903.320	674.539
267.395	15.701	902.424	673.998
268.409	15.674	901.688	673.281
269.424	15.627	900.649	672.255
270.439	15.749	899.969	672.179
271.453	15.623	899.687	671.403
272.468	15.684	899.009	671.081
273.482	15.599	898.603	670.381
274.497	15.684	898.085	670.275
275.512	15.779	896.789	669.624
276.526	15.668	896.714	669.066
277.541	15.766	895.920	668.806
278.555	15.820	895.480	668.634
279.570	15.842	894.819	668.168
280.585	15.979	893.593	667.735
281.599	15.989	892.840	667.155
282.614	15.844	892.581	666.329
283.628	15.992	891.745	666.231
284.643	16.062	890.864	665.791
285.657	15.923	890.685	665.047
286.672	15.953	889.962	664.567
287.687	15.918	889.415	663.960
288.701	15.971	889.056	663.842
289.716	16.016	888.491	663.540
290.730	16.021	887.866	663.034
291.745	15.928	886.955	661.931
292.760	15.916	886.580	661.544
293.774	16.125	885.685	661.638
294.789	16.074	885.178	661.001
295.803	16.076	884.268	660.272
296.818	16.052	883.535	659.572
297.833	16.142	883.027	659.487
298.847	16.238	882.208	659.189
299.862	16.145	882.044	658.648
300.876	16.151	881.239	658.011
301.891	16.219	880.441	657.622
302.906	16.208	880.189	657.334
303.920	16.259	879.713	657.116
304.935	16.291	878.980	656.634
305.949	16.318	878.481	656.311
306.964	16.285	877.998	655.763
307.979	16.516	877.140	655.959
308.993	16.334	876.830	654.965
310.008	16.359	876.004	654.387
311.022	16.350	875.499	653.916
312.037	16.369	874.875	653.468
313.052	16.242	874.422	652.579
314.066	16.231	873.741	651.972
315.081	16.321	873.159	651.827
316.095	16.308	872.687	651.367
317.110	16.473	872.195	651.576
318.125	16.442	871.400	650.808
319.139	16.355	871.183	650.251
320.154	16.509	870.561	650.323
321.168	16.420	869.993	649.499
322.183	16.394	869.504	648.975
323.197	16.461	869.036	648.827
324.212	16.506	868.432	648.491
325.227	16.443	867.416	647.432
326.241	16.546	867.002	647.460
327.256	16.508	866.398	646.806
328.270	16.639	865.579	646.639
329.285	16.443	865.544	645.807
330.300	16.584	864.438	645.465
331.314	16.528	864.082	644.928
332.329	16.551	863.627	644.616
333.343	16.615	863.353	644.599
334.358	16.474	863.228	643.914
335.373	16.567	862.556	643.707
336.387	16.699	861.841	643.619
337.402	16.726	862.056	643.825
338.416	16.805	861.676	643.784
339.431	16.755	860.811	642.890
340.446	16.762	860.572	642.683
341.460	16.799	860.121	642.428
342.475	16.889	859.394	642.169
343.489	16.848	859.423	641.979
344.504	16.912	859.056	641.890
345.519	16.899	858.183	641.132
346.533	16.789	857.940	640.480
347.548	16.858	857.236	640.156
348.562	16.984	856.742	640.208
349.577	16.767	856.020	638.793
350.592	16.961	855.364	638.977
351.606	16.890	854.951	638.347
352.621	16.830	854.229	637.523
353.635	16.977	853.510	637.483
354.650	16.961	852.741	636.793
355.665	16.951	852.249	636.331
356.679	16.988	851.544	635.886
357.694	17.115	850.746	635.712
358.708	17.070	850.227	635.100
359.723	17.152	849.740	634.984
360.738	16.972	849.422	634.020
361.752	17.057	848.656	633.708
362.767	17.045	848.128	633.215
363.781	17.105	847.701	633.063
364.796	17.153	847.163	632.783
365.810	17.220	846.293	632.328
366.825	16.988	846.971	631.914
367.840	17.253	845.935	632.071
368.854	17.238	845.181	631.393
369.869	17.429	844.587	631.604
370.883	17.354	844.039	630.859
371.898	17.371	843.791	630.683
372.913	17.402	843.683	630.661
373.927	17.177	843.165	629.384
374.942	17.283	842.554	629.265
375.956	17.329	842.447	629.301
376.971	17.421	841.569	628.927
377.986	17.531	840.937	628.805
379.000	17.503	840.428	628.266
380.015	17.446	840.366	627.954
381.029	17.536	839.448	627.545
382.044	17.626	838.596	627.181
383.059	17.668	838.003	626.837
384.073	17.576	837.758	626.262
385.088	17.512	837.306	625.634
386.102	17.475	836.777	625.048
387.117	17.413	836.317	624.422
388.132	17.586	835.479	624.373
389.146	17.661	834.822	624.103
390.161	17.653	834.526	623.797
391.175	17.529	834.653	623.384
392.190	17.593	834.319	623.311
393.205	17.557	833.017	622.153
394.219	17.623	832.596	622.024
395.234	17.597	832.482	621.789
396.248	17.538	832.134	621.257
397.263	17.414	832.202	620.800
398.278	17.521	831.338	620.492
399.292	17.572	830.661	620.117
400.307	17.567	830.232	619.723
401.321	17.571	829.661	619.258
402.336	17.635	829.207	619.095
403.350	17.643	828.820	618.780
404.365	17.730	828.131	618.529
405.380	17.871	827.873	618.794
406.394	17.897	826.942	618.135
407.409	17.889	826.666	617.845
408.423	17.722	826.745	617.248
409.438	17.960	826.127	617.591
410.453	17.945	825.732	617.185
411.467	18.059	824.867	616.897
412.482	17.995	824.786	616.552
413.496	17.939	824.660	616.200
414.511	17.943	824.163	615.786
415.526	17.914	823.691	615.275
416.540	18.157	822.851	615.469
417.555	18.108	822.210	614.760
418.569	18.030	821.986	614.258
419.584	18.028	821.909	614.138
420.599	18.037	821.468	613.787
421.613	115.927	1301.282	1492.667
422.628	100.631	1371.169	1492.719
