DTS Sentinel unit serial number:	SN413079Multiplexer serial number:	ORYXHardware model number:	OX4-SRSoftware version number:	ORYX F/W v4.00 Oryx Data Collector v3.7.2.0data status	okinstallation	princeton_trtdifferential loss correction	single-endedforward channel	channel 1reverse channel	N/Adate	2019/09/14time	13:10:35forward acquisition time	60.00reverse acquisition time	0.00gamma	496.2192k internal	0.2294k external	0.2294temperature offset calibration	1.0087default loss term (dB/km)	0.3790temperature slope calibration	1.0000multiplexer offset coefficient	1.0000multiplexer slope coefficient	1.0000fibre end	0.00T internal ref (°C)	37.95T ext. ref 1 (°C)	4.87T ext. ref 2 (°C)	34.06length (m)	temperature (°C)	Stokes	anti-Stokes-747.200	-21.891	0.058	0.036
-746.185	-200.000	-0.035	0.169
-745.171	-76.827	-0.368	-0.132
-744.156	330.235	-0.083	0.163
-743.142	-138.343	0.424	-0.048
-742.127	-84.746	0.257	-0.083
-741.112	31.727	0.107	-0.094
-740.098	-103.565	0.235	0.057
-739.083	-60.073	-0.290	0.127
-738.069	-200.000	0.019	0.251
-737.054	-200.000	0.009	0.248
-736.039	8.464	-0.314	0.242
-735.025	88.507	-0.064	-0.073
-734.010	70.477	0.150	-0.159
-732.996	242.151	0.045	0.077
-731.981	-11.921	0.214	0.144
-730.966	-53.985	-0.091	-0.042
-729.952	-82.906	-0.110	-0.036
-728.937	-200.000	0.001	-0.050
-727.923	-200.000	0.041	-0.232
-726.908	12.902	-0.291	-0.230
-725.894	153.717	-0.118	-0.165
-724.879	109.504	0.147	-0.180
-723.864	155.164	-0.100	-0.140
-722.850	800.000	-0.127	-0.365
-721.835	310.761	0.153	0.293
-720.821	800.000	0.029	0.094
-719.806	-200.000	-0.029	-0.314
-718.791	3.018	-0.066	-0.049
-717.777	-200.000	-0.010	-0.080
-716.762	-200.000	-0.037	0.317
-715.748	-21.473	0.078	0.049
-714.733	-135.580	0.096	0.012
-713.718	330.337	0.119	-0.234
-712.704	-56.036	-0.478	-0.218
-711.689	0.404	0.165	-0.120
-710.675	-2.188	-0.025	0.018
-709.660	257.965	0.137	-0.240
-708.645	-186.040	-0.144	-0.002
-707.631	118.531	0.226	-0.285
-706.616	165.366	0.098	0.142
-705.602	112.135	-0.255	-0.315
-704.587	740.690	0.084	0.232
-703.572	-78.355	-0.153	0.054
-702.558	591.312	0.053	0.133
-701.543	800.000	0.082	0.289
-700.529	49.798	-0.135	0.130
-699.514	800.000	0.035	0.154
-698.499	0.010	0.235	-0.171
-697.485	-110.291	0.059	0.012
-696.470	23.181	-0.260	0.218
-695.456	-81.464	0.257	0.086
-694.441	-200.000	-0.016	-0.082
-693.426	-177.127	-0.064	-0.002
-692.412	-113.777	-0.297	-0.059
-691.397	800.000	0.058	0.188
-690.383	800.000	0.042	-0.120
-689.368	-145.250	-0.392	0.036
-688.354	-200.000	-0.044	-0.245
-687.339	27.497	0.154	0.132
-686.324	445.110	-0.078	0.174
-685.310	616.047	0.035	0.089
-684.295	62.459	-0.085	-0.086
-683.281	287.812	0.176	-0.324
-682.266	-0.431	-0.377	0.273
-681.251	800.000	-0.070	0.304
-680.237	-87.217	-0.192	-0.059
-679.222	-170.782	0.262	0.009
-678.208	-158.344	-0.244	0.014
-677.193	-200.000	-0.027	-0.153
-676.178	800.000	0.041	-0.126
-675.164	-75.261	0.144	-0.053
-674.149	438.671	-0.103	-0.229
-673.135	-34.850	-0.425	0.237
-672.120	-46.906	-0.094	0.047
-671.105	-65.554	0.288	0.118
-670.091	-171.408	0.272	0.009
-669.076	121.166	-0.070	0.089
-668.062	-44.061	0.116	-0.059
-667.047	-119.489	-0.299	0.053
-666.032	1.012	0.276	0.202
-665.018	-126.819	-0.245	-0.037
-664.003	-26.157	-0.174	0.104
-662.989	108.577	-0.178	-0.217
-661.974	376.601	0.038	0.079
-660.959	800.000	0.134	0.425
-659.945	-200.000	0.023	-0.292
-658.930	-43.943	-0.061	-0.031
-657.916	-96.895	-0.327	-0.087
-656.901	-56.886	-0.247	-0.111
-655.886	1.804	0.175	-0.129
-654.872	-169.227	0.091	-0.003
-653.857	-125.246	-0.070	0.011
-652.843	-194.965	-0.398	0.003
-651.828	-83.126	0.322	-0.105
-650.814	82.096	-0.167	0.184
-649.799	-200.000	0.019	-0.503
-648.784	-53.467	-0.156	0.073
-647.770	-103.080	0.397	0.096
-646.755	497.602	0.080	-0.188
-645.741	-200.000	-0.012	-0.136
-644.726	117.284	-0.291	0.364
-643.711	24.101	-0.325	0.273
-642.697	-135.938	0.174	0.021
-641.682	218.002	-0.023	0.037
-640.668	-200.000	-0.004	-0.232
-639.653	-41.369	0.051	-0.027
-638.638	-109.913	0.457	-0.097
-637.624	64.401	0.122	-0.125
-636.609	-97.536	-0.203	0.054
-635.595	-44.689	0.197	0.100
-634.580	427.019	-0.149	0.328
-633.565	-35.586	0.152	-0.084
-632.551	-181.864	0.023	-0.000
-631.536	74.477	-0.065	-0.070
-630.522	-200.000	-0.001	-0.135
-629.507	-3.192	-0.190	-0.135
-628.492	273.376	-0.006	-0.011
-627.478	800.000	-0.077	0.254
-626.463	-33.647	0.051	0.029
-625.449	-37.889	0.344	-0.186
-624.434	-147.384	-0.225	0.019
-623.419	-54.363	-0.060	0.028
-622.405	-120.227	0.144	-0.025
-621.390	-85.086	-0.239	0.076
-620.376	-87.465	0.442	0.136
-619.361	-200.000	-0.034	-0.220
-618.346	191.919	-0.126	-0.193
-617.332	-138.740	0.006	0.001
-616.317	-38.159	-0.143	-0.077
-615.303	-134.568	0.217	0.027
-614.288	205.679	-0.192	0.303
-613.273	-3.826	-0.011	-0.008
-612.259	-127.823	-0.243	-0.036
-611.244	8.440	-0.247	-0.189
-610.230	74.407	0.212	0.226
-609.215	99.162	-0.243	-0.286
-608.201	-59.179	-0.548	0.240
-607.186	-89.303	-0.227	-0.068
-606.171	294.545	0.110	0.204
-605.157	231.172	-0.139	-0.232
-604.142	-200.000	0.067	-0.316
-603.128	800.000	0.086	-0.332
-602.113	60.669	0.088	0.089
-601.098	-200.000	0.003	-0.016
-600.084	-37.986	-0.228	-0.123
-599.069	800.000	-0.068	-0.195
-598.055	-94.778	-0.119	0.033
-597.040	612.555	0.118	-0.301
-596.025	-200.000	0.025	0.156
-595.011	-184.698	-0.149	0.002
-593.996	-200.000	0.045	-0.288
-592.982	55.486	-0.263	-0.258
-591.967	-164.207	0.304	-0.014
-590.952	-51.210	-0.093	0.044
-589.938	-95.505	0.232	0.063
-588.923	458.762	0.039	-0.089
-587.909	-200.000	-0.080	-0.405
-586.894	-135.669	0.201	-0.024
-585.879	-18.616	-0.153	-0.097
-584.865	-200.000	-0.023	0.117
-583.850	-34.003	0.287	0.160
-582.836	100.734	0.118	-0.140
-581.821	176.528	0.139	-0.205
-580.806	-129.285	-0.308	-0.044
-579.792	-200.000	-0.024	-0.167
-578.777	-109.669	0.104	-0.022
-577.763	-200.000	-0.022	0.332
-576.748	-107.092	0.258	-0.058
-575.733	-200.000	0.011	0.077
-574.719	62.647	0.038	0.039
-573.704	94.923	0.143	0.166
-572.690	-86.778	-0.280	-0.087
-571.675	-36.340	-0.225	-0.123
-570.661	44.617	0.110	0.102
-569.646	23.016	-0.114	0.095
-568.631	800.000	-0.092	-0.286
-567.617	-9.891	0.187	-0.127
-566.602	35.140	-0.168	-0.150
-565.588	-33.905	-0.268	-0.150
-564.573	-98.260	0.081	-0.021
-563.558	-200.000	-0.003	-0.324
-562.544	260.806	0.256	-0.450
-561.529	-0.694	0.117	-0.084
-560.515	-200.000	0.072	0.339
-559.500	-200.000	0.060	0.279
-558.485	435.498	0.063	0.139
-557.471	-79.380	-0.310	0.107
-556.456	42.507	0.112	0.104
-555.442	-21.430	-0.201	0.124
-554.427	426.181	-0.101	0.221
-553.412	37.491	-0.174	-0.156
-552.398	-126.381	-0.083	0.013
-551.383	-119.067	0.092	0.016
-550.369	-87.243	0.103	-0.032
-549.354	452.573	0.087	-0.195
-548.339	-90.112	0.042	-0.013
-547.325	-27.416	-0.073	-0.043
-546.310	-80.080	-0.066	-0.022
-545.296	-200.000	0.000	-0.034
-544.281	-113.038	-0.225	-0.045
-543.266	-200.000	0.002	-0.024
-542.252	800.000	0.089	0.378
-541.237	-200.000	-0.018	0.367
-540.223	77.481	0.063	0.068
-539.208	-149.872	-0.140	0.011
-538.193	-122.484	0.173	-0.029
-537.179	13.780	-0.193	-0.152
-536.164	158.350	0.195	0.274
-535.150	1.151	0.057	0.042
-534.135	303.892	0.303	-0.569
-533.121	-20.122	0.382	-0.239
-532.106	-57.417	-0.246	0.110
-531.091	-200.000	0.014	-0.083
-530.077	-200.000	-0.018	-0.106
-529.062	-200.000	-0.009	-0.079
-528.048	204.452	-0.057	-0.089
-527.033	-96.602	-0.200	0.053
-526.018	-200.000	0.040	-0.240
-525.004	676.173	-0.011	0.030
-523.989	275.153	-0.014	0.025
-522.975	-55.689	0.143	0.065
-521.960	-23.315	-0.111	0.068
-520.945	800.000	0.061	-0.214
-519.931	800.000	-0.048	-0.141
-518.916	-57.952	0.204	0.090
-517.902	-200.000	0.023	-0.259
-516.887	-183.770	0.129	0.002
-515.872	-187.954	-0.414	-0.005
-514.858	-166.310	0.226	0.010
-513.843	-13.211	-0.243	0.160
-512.829	800.000	-0.066	-0.229
-511.814	-75.967	0.219	0.079
-510.799	146.887	-0.016	0.021
-509.785	-200.000	0.066	0.354
-508.770	28.675	0.168	-0.144
-507.756	-114.279	0.324	0.063
-506.741	-132.469	0.264	-0.034
-505.726	-200.000	-0.014	0.084
-504.712	194.116	-0.155	0.237
-503.697	800.000	-0.059	0.176
-502.683	-200.000	0.055	-0.258
-501.668	59.043	-0.189	0.189
-500.653	67.658	-0.120	0.124
-499.639	-164.894	0.073	0.003
-498.624	-13.119	-0.133	-0.087
-497.610	380.127	-0.028	-0.058
-496.595	-200.000	-0.019	-0.377
-495.581	67.254	0.122	0.126
-494.566	216.686	-0.041	-0.065
-493.551	-84.916	0.196	0.062
-492.537	-80.820	-0.109	0.036
-491.522	-118.670	0.269	-0.048
-490.508	116.158	0.158	-0.197
-489.493	-25.077	-0.236	-0.141
-488.478	-164.201	0.188	0.009
-487.464	510.679	0.138	0.325
-486.449	212.843	-0.125	-0.200
-485.435	-36.439	0.225	0.123
-484.420	-36.944	0.310	-0.168
-483.405	67.270	-0.159	-0.165
-482.391	-16.155	-0.372	0.240
-481.376	134.669	0.114	-0.150
-480.362	-200.000	0.003	-0.141
-479.347	211.739	-0.127	-0.202
-478.332	-200.000	-0.007	0.076
-477.318	60.819	-0.080	-0.080
-476.303	-123.322	0.256	0.041
-475.289	-50.231	-0.244	0.117
-474.274	-112.027	0.114	-0.023
-473.259	25.357	0.039	-0.033
-472.245	62.411	-0.146	-0.147
-471.230	-200.000	-0.000	0.023
-470.216	-200.000	-0.059	0.363
-469.201	-96.051	0.088	0.024
-468.186	75.797	-0.026	0.028
-467.172	-109.141	0.351	-0.075
-466.157	65.922	-0.134	0.137
-465.143	800.000	-0.137	0.456
-464.128	92.059	-0.352	-0.401
-463.113	15.199	0.290	-0.230
-462.099	-200.000	-0.072	0.320
-461.084	440.335	0.030	-0.065
-460.070	-133.255	-0.329	0.042
-459.055	85.515	-0.384	-0.426
-458.040	-105.613	-0.051	-0.012
-457.026	-200.000	-0.026	0.282
-456.011	-91.812	0.081	0.023
-454.997	800.000	-0.052	0.176
-453.982	417.934	0.144	-0.312
-452.968	209.905	-0.099	0.157
-451.953	53.798	-0.230	-0.223
-450.938	422.360	-0.195	-0.424
-449.924	138.166	0.086	-0.114
-448.909	-186.538	0.148	0.002
-447.895	-28.656	-0.265	-0.154
-446.880	-200.000	-0.002	0.048
-445.865	-76.197	-0.133	-0.047
-444.851	286.135	0.061	-0.112
-443.836	207.029	-0.071	-0.113
-442.822	457.269	0.100	0.224
-441.807	-200.000	0.054	-0.287
-440.792	106.839	-0.155	0.186
-439.778	-53.338	0.315	0.146
-438.763	-165.502	-0.308	-0.014
-437.749	427.140	-0.095	-0.208
-436.734	-200.000	-0.011	-0.159
-435.719	-65.459	-0.142	-0.058
-434.705	-72.071	-0.363	0.136
-433.690	-43.212	0.037	-0.019
-432.676	-157.323	0.215	-0.013
-431.661	-116.687	0.237	0.044
-430.646	191.145	-0.082	-0.124
-429.632	-200.000	0.032	0.213
-428.617	-131.763	-0.174	-0.023
-427.603	89.869	-0.106	0.119
-426.588	43.982	-0.100	0.093
-425.573	-200.000	0.032	0.316
-424.559	-41.765	-0.393	0.204
-423.544	-125.089	0.071	-0.011
-422.530	800.000	-0.015	-0.042
-421.515	-200.000	0.006	0.097
-420.500	-41.021	0.204	-0.106
-419.486	39.881	-0.054	-0.049
-418.471	-57.502	-0.298	-0.132
-417.457	-200.000	0.004	0.225
-416.442	-17.065	0.222	0.142
-415.428	221.700	0.109	0.177
-414.413	-122.701	-0.318	0.052
-413.398	-124.440	-0.257	0.040
-412.384	-104.085	-0.188	0.044
-411.369	-200.000	0.012	-0.054
-410.355	-120.314	0.176	-0.030
-409.340	-200.000	0.004	0.129
-408.325	89.864	0.215	0.242
-407.311	-200.000	-0.031	-0.156
-406.296	-69.540	-0.221	-0.086
-405.282	-109.281	-0.231	0.049
-404.267	-20.836	-0.122	-0.076
-403.252	-200.000	0.007	0.283
-402.238	-122.260	0.303	0.050
-401.223	-47.324	0.281	-0.138
-400.209	117.736	-0.211	-0.262
-399.194	-200.000	0.043	0.336
-398.179	-200.000	-0.011	0.183
-397.165	89.588	0.160	-0.180
-396.150	-9.114	-0.099	-0.067
-395.136	-76.429	-0.137	-0.049
-394.121	-200.000	-0.041	0.316
-393.106	-89.353	0.153	0.046
-392.092	13.863	0.345	0.271
-391.077	-77.105	-0.287	0.101
-390.063	36.355	0.098	0.087
-389.048	-200.000	0.008	0.166
-388.033	-170.003	-0.195	0.007
-387.019	-200.000	0.021	0.101
-386.004	179.787	-0.067	0.099
-384.990	800.000	0.036	0.141
-383.975	800.000	-0.195	0.593
-382.960	-200.000	-0.027	0.219
-381.946	-31.552	-0.066	-0.038
-380.931	-75.445	-0.058	-0.021
-379.917	-16.992	-0.061	0.039
-378.902	-142.382	0.282	0.028
-377.888	-49.254	-0.191	-0.092
-376.873	79.796	-0.259	-0.280
-375.858	210.127	0.050	-0.079
-374.844	-200.000	0.023	0.151
-373.829	-24.162	-0.229	-0.138
-372.815	-76.115	-0.132	0.047
-371.800	-200.000	0.044	-0.242
-370.785	-182.451	0.359	0.007
-369.771	-32.305	0.195	0.110
-368.756	644.955	0.080	0.205
-367.742	-124.873	-0.077	-0.012
-366.727	-152.948	-0.025	0.002
-365.712	-200.000	0.029	-0.154
-364.698	-157.749	-0.260	-0.016
-363.683	8.621	-0.214	-0.162
-362.669	-161.993	-0.190	0.010
-361.654	305.761	0.191	-0.358
-360.639	134.605	0.182	0.238
-359.625	-23.888	0.160	0.097
-358.610	685.434	0.070	-0.185
-357.596	-200.000	-0.036	0.230
-356.581	-200.000	0.019	0.128
-355.566	176.242	-0.111	0.162
-354.552	800.000	-0.117	0.350
-353.537	83.112	-0.135	0.148
-352.523	48.131	0.179	0.169
-351.508	91.341	-0.145	-0.164
-350.493	-10.619	0.234	0.156
-349.479	128.379	-0.199	-0.255
-348.464	-40.591	0.141	0.074
-347.450	-69.295	-0.207	-0.080
-346.435	-78.520	-0.106	0.037
-345.420	163.209	0.128	0.182
-344.406	800.000	-0.025	-0.099
-343.391	335.119	0.140	0.274
-342.377	14.406	0.262	-0.205
-341.362	-9.079	-0.125	0.084
-340.348	-29.171	0.281	0.162
-339.333	800.000	-0.137	0.504
-338.318	-69.623	-0.055	0.021
-337.304	-200.000	-0.001	0.100
-336.289	-85.297	-0.041	0.013
-335.275	-33.748	-0.221	0.123
-334.260	-116.283	0.207	-0.039
-333.245	800.000	0.107	0.344
-332.231	-73.462	0.152	0.056
-331.216	-14.374	0.177	-0.115
-330.202	221.255	-0.093	0.151
-329.187	-200.000	-0.032	0.199
-328.172	21.456	-0.225	0.184
-327.158	307.227	-0.040	-0.075
-326.143	-28.967	-0.253	-0.146
-325.129	-29.357	0.289	-0.167
-324.114	1.290	-0.157	0.113
-323.099	-5.495	0.103	-0.071
-322.085	144.536	0.284	0.381
-321.070	-97.248	0.272	0.071
-320.056	39.678	-0.185	0.166
-319.041	-200.000	-0.004	0.141
-318.026	153.866	-0.093	0.128
-317.012	-45.412	0.232	-0.116
-315.997	509.169	0.136	-0.317
-314.983	16.981	-0.258	-0.206
-313.968	-40.151	-0.169	-0.089
-312.953	100.942	-0.137	0.160
-311.939	-99.610	-0.155	0.039
-310.924	800.000	-0.036	0.134
-309.910	239.672	-0.031	-0.051
-308.895	-111.453	0.291	0.060
-307.880	-0.686	-0.249	-0.177
-306.866	-42.844	0.244	0.125
-305.851	359.222	-0.055	-0.111
-304.837	-86.404	-0.206	0.064
-303.822	59.889	0.169	0.168
-302.807	139.741	-0.095	0.126
-301.793	-122.315	0.225	0.037
-300.778	-57.913	-0.312	0.137
-299.764	800.000	0.070	0.235
-298.749	-69.944	0.092	-0.035
-297.735	-88.473	0.166	0.050
-296.720	188.088	-0.104	-0.156
-295.705	-70.858	-0.145	-0.055
-294.691	47.033	0.165	-0.154
-293.676	-200.000	0.038	-0.169
-292.662	-48.726	0.102	-0.049
-291.647	173.923	-0.200	-0.290
-290.632	-30.452	-0.264	-0.151
-289.618	-171.052	0.087	0.003
-288.603	116.041	0.138	-0.169
-287.589	682.986	0.085	-0.222
-286.574	-14.267	-0.163	-0.105
-285.559	45.652	-0.045	-0.042
-284.545	-21.704	-0.241	0.148
-283.530	24.087	0.009	0.007
-282.516	666.435	-0.029	-0.076
-281.501	-117.972	0.111	-0.020
-280.486	-4.616	0.256	-0.177
-279.472	-128.752	-0.028	0.004
-278.457	800.000	-0.012	-0.037
-277.443	-200.000	0.008	-0.162
-276.428	-80.010	0.169	-0.057
-275.413	-200.000	0.056	-0.317
-274.399	800.000	0.125	-0.437
-273.384	-200.000	-0.035	0.166
-272.370	-177.485	-0.195	0.005
-271.355	11.736	0.091	-0.070
-270.340	-179.105	-0.101	0.002
-269.326	800.000	-0.042	0.159
-268.311	-195.798	-0.198	-0.001
-267.297	-200.000	-0.060	-0.349
-266.282	-93.893	-0.165	0.045
-265.267	-200.000	0.009	-0.183
-264.253	-200.000	0.046	-0.240
-263.238	311.118	-0.131	0.247
-262.224	-96.571	0.170	-0.045
-261.209	-140.130	0.094	0.010
-260.195	800.000	0.060	-0.249
-259.180	-200.000	0.036	-0.242
-258.165	-15.381	0.290	0.186
-257.151	-35.346	-0.264	0.144
-256.136	800.000	0.041	0.113
-255.122	11.556	0.238	-0.183
-254.107	800.000	0.106	0.297
-253.092	-200.000	-0.012	0.056
-252.078	45.907	0.124	0.115
-251.063	-129.897	0.288	-0.040
-250.049	97.658	0.262	-0.302
-249.034	800.000	0.066	0.217
-248.019	-67.289	-0.281	0.111
-247.005	-72.216	-0.156	-0.058
-245.990	23.147	0.162	0.133
-244.976	-85.913	0.441	-0.137
-243.961	132.014	0.266	-0.343
-242.946	347.858	0.098	0.193
-241.932	-17.331	0.139	0.088
-240.917	193.430	-0.154	-0.233
-239.903	95.594	-0.163	-0.186
-238.888	332.187	0.087	0.167
-237.873	-87.729	0.318	0.096
-236.859	127.259	0.086	0.109
-235.844	-100.038	-0.124	-0.031
-234.830	-166.323	-0.049	0.002
-233.815	-200.000	-0.019	-0.367
-232.800	-35.605	0.158	-0.086
-231.786	-99.422	0.138	0.035
-230.771	-131.645	0.233	-0.031
-229.757	33.089	0.016	0.014
-228.742	4.352	0.315	-0.231
-227.727	234.267	-0.080	-0.133
-226.713	191.688	0.067	0.101
-225.698	32.067	0.362	0.313
-224.684	307.145	0.061	0.114
-223.669	-61.380	0.092	0.039
-222.655	-52.448	-0.103	0.048
-221.640	-149.596	0.252	0.020
-220.625	-158.702	-0.173	-0.010
-219.611	-200.000	-0.016	0.207
-218.596	800.000	-0.041	0.130
-217.582	-59.978	0.305	-0.131
-216.567	33.845	-0.069	0.060
-215.552	-99.440	-0.147	-0.037
-214.538	-60.304	-0.313	0.134
-213.523	800.000	-0.113	0.370
-212.509	28.503	-0.078	-0.066
-211.494	-122.842	0.198	0.032
-210.479	-94.402	-0.134	0.037
-209.465	-200.000	-0.004	0.444
-208.450	-77.670	-0.061	-0.021
-207.436	-87.737	-0.088	0.026
-206.421	7.540	-0.185	-0.139
-205.406	-17.575	-0.187	-0.118
-204.392	-128.311	0.364	0.052
-203.377	-200.000	0.045	0.222
-202.363	-80.407	-0.178	0.059
-201.348	346.729	0.050	-0.098
-200.333	-200.000	-0.079	-0.379
-199.319	361.856	0.149	-0.300
-198.304	68.357	-0.128	-0.132
-197.290	-105.103	-0.190	-0.044
-196.275	-7.558	-0.297	0.201
-195.260	357.370	0.138	0.275
-194.246	80.797	0.304	0.328
-193.231	-33.680	0.168	0.093
-192.217	-125.864	0.266	-0.040
-191.202	-200.000	0.019	0.139
-190.187	-49.427	-0.162	0.077
-189.173	745.040	0.029	0.078
-188.158	110.947	-0.197	0.237
-187.144	29.527	0.236	-0.201
-186.129	-200.000	-0.003	-0.051
-185.114	-115.935	-0.104	0.019
-184.100	529.786	0.028	-0.066
-183.085	-140.853	-0.293	-0.030
-182.071	-94.485	-0.243	-0.066
-181.056	207.402	-0.074	0.115
-180.042	800.000	-0.032	-0.114
-179.027	-200.000	0.014	-0.210
-178.012	80.717	0.132	0.142
-176.998	19.267	0.092	0.074
-175.983	17.788	0.180	0.143
-174.969	-112.008	-0.415	-0.084
-173.954	-54.237	0.350	-0.159
-172.939	-120.344	0.264	-0.045
-171.925	18.888	-0.336	0.269
-170.910	-168.397	0.264	0.010
-169.896	800.000	0.067	-0.221
-168.881	-143.977	0.253	-0.024
-167.866	-148.571	-0.298	-0.024
-166.852	-62.300	0.138	0.057
-165.837	-200.000	-0.001	-0.262
-164.823	-200.000	-0.023	0.199
-163.808	-70.208	-0.344	-0.131
-162.793	683.806	-0.041	0.106
-161.779	-200.000	-0.022	-0.136
-160.764	117.320	0.184	0.226
-159.750	-36.223	0.062	0.033
-158.735	94.002	0.172	0.195
-157.720	-116.810	0.253	0.046
-156.706	213.783	-0.120	-0.189
-155.691	-52.638	0.358	0.165
-154.677	69.165	-0.203	0.208
-153.662	-200.000	-0.112	-0.500
-152.647	399.304	-0.093	-0.194
-151.633	176.130	0.198	0.287
-150.618	60.748	0.313	0.310
-149.604	-81.716	0.348	-0.114
-148.589	-200.000	0.006	-0.071
-147.574	800.000	-0.058	0.225
-146.560	-26.856	0.236	0.138
-145.545	356.147	0.108	-0.216
-144.531	206.383	0.146	0.227
-143.516	-60.264	0.177	0.076
-142.502	-62.109	-0.302	-0.126
-141.487	69.062	0.272	-0.279
-140.472	-59.604	0.104	0.045
-139.458	177.852	-0.163	-0.238
-138.443	158.919	0.100	-0.138
-137.429	-124.570	-0.132	0.020
-136.414	800.000	-0.052	0.208
-135.399	442.723	-0.074	-0.162
-134.385	-136.576	-0.382	0.044
-133.370	-52.419	-0.158	0.073
-132.356	30.946	0.236	0.202
-131.341	-21.554	0.153	-0.093
-130.326	-142.040	-0.399	0.040
-129.312	800.000	0.182	0.529
-128.297	176.208	-0.026	0.037
-127.283	159.210	-0.189	-0.262
-126.268	800.000	-0.105	0.380
-125.253	-98.425	-0.122	-0.031
-124.239	-139.808	-0.116	-0.012
-123.224	10.772	0.127	0.096
-122.210	-24.295	-0.332	0.198
-121.195	-131.306	0.081	0.011
-120.180	-200.000	0.086	-0.464
-119.166	49.140	0.149	0.139
-118.151	-101.312	-0.174	-0.042
-117.137	-178.532	0.231	-0.005
-116.122	-94.531	0.266	0.072
-115.107	800.000	-0.025	0.087
-114.093	-200.000	-0.006	0.066
-113.078	-110.274	0.217	0.045
-112.064	261.814	0.153	-0.265
-111.049	-147.638	-0.352	0.030
-110.034	109.826	-0.220	0.263
-109.020	-200.000	0.032	0.202
-108.005	45.187	-0.059	-0.054
-106.991	8.405	0.273	-0.205
-105.976	-200.000	-0.040	0.257
-104.962	-200.000	0.008	-0.069
-103.947	-200.000	-0.012	0.205
-102.932	36.052	-0.264	0.231
-101.918	-200.000	-0.008	-0.047
-100.903	-27.050	0.243	0.141
-99.889	-190.026	0.244	0.003
-98.874	-200.000	-0.005	-0.164
-97.859	250.674	0.081	-0.137
-96.845	-200.000	-0.067	-0.528
-95.830	800.000	-0.035	-0.134
-94.816	-120.875	-0.085	0.014
-93.801	-142.465	0.408	0.040
-92.786	1.471	-0.223	0.160
-91.772	-51.528	0.188	0.088
-90.757	800.000	0.063	0.231
-89.743	239.462	0.120	0.199
-88.728	-8.226	-0.197	-0.132
-87.713	-112.079	0.182	0.037
-86.699	-80.422	0.251	0.083
-85.684	-85.153	-0.020	0.006
-84.670	26.753	-0.193	-0.161
-83.655	489.581	-0.055	0.126
-82.640	800.000	0.098	-0.282
-81.626	69.595	0.095	0.098
-80.611	800.000	-0.054	-0.222
-79.597	-73.414	-0.215	0.078
-78.582	-95.984	0.262	0.069
-77.567	88.378	0.138	-0.153
-76.553	-13.395	-0.207	-0.134
-75.538	-200.000	-0.001	-0.047
-74.524	-200.000	0.031	-0.215
-73.509	-200.000	-0.018	0.296
-72.494	-24.633	0.335	-0.199
-71.480	142.018	-0.139	-0.183
-70.465	-135.720	0.450	-0.053
-69.451	-200.000	0.009	0.046
-68.436	-200.000	0.015	0.303
-67.422	800.000	-0.067	0.233
-66.407	-31.796	0.175	-0.098
-65.392	-200.000	-0.011	0.121
-64.378	444.196	0.138	-0.301
-63.363	-99.825	-0.226	0.056
-62.349	-200.000	0.019	0.142
-61.334	53.693	-0.788	-0.753
-60.319	29.171	0.319	0.270
-59.305	-200.000	-0.182	-1.058
-58.290	125.457	0.435	0.546
-57.276	326.088	0.778	1.484
-56.261	-200.000	86.421	499.556
-55.246	516.423	1398.964	3254.946
-54.232	180.118	2620.386	3824.513
-53.217	118.253	2241.930	2752.116
-52.203	48.742	1685.145	1573.139
-51.188	41.241	1414.859	1273.069
-50.173	37.985	1370.375	1212.794
-49.159	56.661	1412.120	1367.804
-48.144	61.243	1431.116	1415.023
-47.130	41.713	1390.000	1253.462
-46.115	38.049	1372.637	1215.003
-45.100	37.811	1367.470	1208.903
-44.086	37.883	1364.615	1206.774
-43.071	37.807	1362.500	1204.387
-42.057	37.673	1360.733	1201.953
-41.042	37.795	1358.800	1200.948
-40.027	37.806	1357.592	1199.903
-39.013	37.904	1355.106	1198.258
-37.998	37.929	1353.166	1196.649
-36.984	37.938	1351.745	1195.399
-35.969	38.005	1349.395	1193.686
-34.954	37.923	1348.439	1192.292
-33.940	38.009	1346.551	1191.101
-32.925	38.032	1344.908	1189.738
-31.911	38.006	1343.346	1188.149
-30.896	38.022	1342.242	1187.224
-29.881	37.959	1340.992	1185.690
-28.867	38.033	1339.586	1184.846
-27.852	38.005	1338.152	1183.365
-26.838	38.000	1336.943	1182.215
-25.823	38.049	1335.440	1181.137
-24.809	38.227	1333.136	1180.127
-23.794	38.038	1332.143	1178.060
-22.779	38.050	1330.821	1176.921
-21.765	38.083	1329.543	1175.939
-20.750	37.993	1328.153	1174.121
-19.736	37.894	1326.653	1172.156
-18.721	37.950	1325.454	1171.384
-17.706	37.977	1324.432	1170.596
-16.692	37.957	1323.031	1169.194
-15.677	38.002	1322.100	1168.594
-14.663	37.865	1320.966	1166.726
-13.648	37.871	1319.807	1165.693
-12.633	37.836	1319.107	1164.817
-11.619	37.861	1317.818	1163.781
-10.604	37.877	1316.908	1163.025
-9.590	37.879	1316.132	1162.309
-8.575	37.849	1315.067	1161.142
-7.560	37.897	1313.800	1160.264
-6.546	37.905	1313.083	1159.630
-5.531	37.818	1312.402	1158.468
-4.517	37.820	1311.490	1157.627
-3.502	37.845	1310.724	1157.053
-2.487	37.988	1309.402	1156.689
-1.473	37.971	1305.553	1153.140
-0.458	36.876	1289.567	1132.579
0.556	33.683	1269.927	1089.118
1.571	29.437	1273.067	1067.222
2.586	27.958	1287.208	1070.322
3.600	26.238	1274.619	1049.772
4.615	19.698	1197.769	950.551
5.629	9.667	1117.355	834.936
6.644	5.020	1094.440	794.119
7.659	4.621	1091.721	790.050
8.673	4.974	1090.262	790.717
9.688	4.886	1089.362	789.548
10.702	5.109	1087.846	789.506
11.717	10.604	1095.619	823.013
12.731	19.283	1107.710	876.348
13.746	21.496	1110.040	889.373
14.761	20.059	1107.098	879.649
15.775	18.909	1105.756	872.669
16.790	17.850	1103.237	865.239
17.804	17.140	1101.385	860.115
18.819	16.792	1100.177	857.336
19.834	16.439	1099.895	855.254
20.848	16.213	1098.890	853.253
21.863	16.082	1097.587	851.506
22.877	15.826	1097.523	850.086
23.892	15.952	1096.220	849.639
24.907	15.965	1095.615	849.158
25.921	15.941	1094.784	848.321
26.936	15.929	1092.939	846.752
27.950	16.109	1091.596	846.540
28.965	16.153	1090.237	845.634
29.980	16.260	1088.344	844.628
30.994	16.311	1087.244	843.954
32.009	16.345	1086.236	843.265
33.023	16.328	1085.239	842.334
34.038	16.140	1084.476	840.731
35.053	16.248	1082.990	840.042
36.067	16.128	1082.665	839.115
37.082	16.192	1081.723	838.631
38.096	16.186	1081.167	838.097
39.111	16.145	1080.851	837.572
40.126	16.118	1078.840	835.808
41.140	15.906	1077.478	833.627
42.155	15.868	1076.231	832.399
43.169	15.911	1074.693	831.350
44.184	15.753	1073.713	829.742
45.199	15.739	1073.388	829.345
46.213	15.809	1072.086	828.612
47.228	16.008	1070.534	828.317
48.242	16.034	1069.740	827.757
49.257	15.979	1068.765	826.660
50.271	16.131	1068.133	826.844
51.286	16.163	1067.071	826.103
52.301	16.098	1066.032	824.909
53.315	15.890	1065.304	823.256
54.330	15.897	1063.760	822.025
55.344	15.947	1063.372	821.897
56.359	15.936	1062.457	821.060
57.374	15.930	1061.263	820.036
58.388	15.833	1060.282	818.736
59.403	15.706	1059.756	817.638
60.417	15.789	1058.878	817.289
61.432	15.745	1057.820	816.191
62.447	15.793	1056.926	815.662
63.461	15.753	1056.209	814.841
64.476	15.652	1055.376	813.637
65.490	15.612	1054.324	812.562
66.505	15.663	1053.985	812.474
67.520	15.652	1052.820	811.454
68.534	15.773	1052.517	811.730
69.549	15.707	1051.707	810.717
70.563	15.738	1050.696	810.014
71.578	15.515	1049.893	808.250
72.593	15.675	1048.459	807.845
73.607	15.596	1048.505	807.428
74.622	15.516	1047.933	806.531
75.636	15.548	1047.171	806.026
76.651	15.671	1045.912	805.575
77.666	15.697	1045.494	805.308
78.680	15.501	1045.335	804.175
79.695	15.686	1044.201	804.116
80.709	15.819	1043.344	804.020
81.724	15.770	1043.033	803.478
82.739	15.916	1042.288	803.527
83.753	16.110	1040.997	803.386
84.768	16.273	1040.306	803.557
85.782	16.269	1039.760	803.045
86.797	16.245	1039.028	802.293
87.812	16.106	1037.721	800.553
88.826	15.988	1036.922	799.307
89.841	16.198	1036.125	799.619
90.855	16.173	1035.417	798.880
91.870	16.262	1034.116	798.230
92.884	16.202	1033.642	797.507
93.899	16.199	1032.899	796.850
94.914	16.421	1031.453	796.712
95.928	16.284	1031.036	795.673
96.943	16.083	1030.098	793.930
97.957	16.137	1028.885	793.180
98.972	16.106	1028.437	792.622
99.987	16.164	1027.049	791.753
101.001	16.187	1026.177	791.118
102.016	16.163	1025.518	790.429
103.030	16.304	1024.519	790.247
104.045	16.240	1023.589	789.161
105.060	16.121	1022.712	787.861
106.074	15.979	1021.526	786.215
107.089	15.789	1020.954	784.816
108.103	15.720	1019.725	783.480
109.118	15.745	1018.801	782.818
110.133	15.764	1017.952	782.183
111.147	15.755	1017.153	781.463
112.162	15.876	1015.875	780.971
113.176	15.814	1015.782	780.542
114.191	16.007	1014.478	780.365
115.206	16.088	1013.512	779.928
116.220	15.840	1012.776	778.147
117.235	15.837	1012.180	777.606
118.249	15.900	1011.287	777.143
119.264	15.877	1010.641	776.472
120.279	15.708	1009.697	774.898
121.293	15.752	1008.995	774.491
122.308	15.772	1007.866	773.649
123.322	15.779	1006.689	772.709
124.337	15.751	1005.831	771.853
125.352	15.722	1004.719	770.802
126.366	15.638	1003.755	769.608
127.381	15.849	1002.549	769.581
128.395	15.797	1001.642	768.577
129.410	15.862	1000.761	768.132
130.424	15.935	1000.190	767.955
131.439	15.953	999.432	767.389
132.454	15.926	998.928	766.812
133.468	16.060	997.684	766.399
134.483	16.124	996.735	765.893
135.497	15.947	996.366	764.735
136.512	15.944	995.729	764.169
137.527	16.073	994.213	763.521
138.541	15.991	993.909	762.849
139.556	16.024	993.337	762.490
140.570	16.136	992.843	762.549
141.585	16.210	992.084	762.234
142.600	16.253	990.669	761.272
143.614	16.390	990.049	761.347
144.629	16.414	988.961	760.552
145.643	16.340	987.785	759.248
146.658	16.148	987.486	758.088
147.673	16.070	986.281	756.746
148.687	16.135	984.933	755.935
149.702	16.060	983.926	754.760
150.716	16.023	983.308	754.053
151.731	16.065	982.941	753.895
152.746	16.040	981.834	752.867
153.760	16.135	980.926	752.528
154.775	16.187	980.731	752.543
155.789	16.236	979.852	752.017
156.804	16.362	978.919	751.796
157.819	16.462	978.354	751.742
158.833	16.329	978.341	751.073
159.848	16.507	977.234	750.949
160.862	16.469	976.075	749.824
161.877	16.319	975.225	748.440
162.892	16.153	973.682	746.452
163.906	16.114	973.117	745.783
164.921	16.074	972.334	744.939
165.935	16.281	971.414	745.084
166.950	16.272	970.549	744.315
167.964	16.216	969.669	743.327
168.979	16.195	968.610	742.355
169.994	16.266	967.853	742.021
171.008	16.343	967.250	741.832
172.023	16.364	966.360	741.178
173.037	16.431	966.114	741.214
174.052	16.342	965.359	740.180
175.067	16.236	964.243	738.797
176.081	16.256	963.731	738.426
177.096	16.179	963.470	737.826
178.110	16.269	962.628	737.508
179.125	16.242	962.528	737.249
180.140	16.257	961.698	736.613
181.154	16.423	961.475	737.100
182.169	16.282	961.271	736.265
183.183	16.524	960.085	736.343
184.198	16.432	959.442	735.383
185.213	16.383	958.655	734.502
186.227	16.506	958.264	734.674
187.242	16.625	957.173	734.288
188.256	16.623	956.406	733.625
189.271	16.650	955.788	733.205
190.286	16.321	955.551	731.533
191.300	16.191	953.867	729.616
192.315	16.156	953.176	728.872
193.329	16.217	952.576	728.613
194.344	16.311	952.282	728.727
195.359	16.437	951.663	728.736
196.373	16.411	951.332	728.304
197.388	16.607	950.727	728.620
198.402	16.816	950.304	729.132
199.417	16.851	949.698	728.753
200.432	16.866	949.176	728.351
201.446	16.901	948.304	727.768
202.461	17.012	947.973	727.925
203.475	16.839	947.381	726.666
204.490	16.823	946.060	725.519
205.504	16.712	945.425	724.496
206.519	16.753	944.137	723.619
207.534	16.725	943.861	723.224
208.548	16.792	943.158	722.905
209.563	16.785	942.623	722.403
210.577	16.717	942.073	721.626
211.592	16.891	941.564	721.914
212.607	16.972	940.591	721.447
213.621	16.890	939.873	720.485
214.636	16.904	939.158	719.933
215.650	16.900	938.499	719.347
216.665	17.014	937.579	719.061
217.680	17.005	937.325	718.766
218.694	16.972	936.722	718.099
219.709	16.905	936.147	717.310
220.723	16.965	934.945	716.580
221.738	16.974	934.093	715.901
222.753	16.915	933.759	715.336
223.767	17.150	933.078	715.739
224.782	17.161	932.326	715.145
225.796	17.187	931.950	714.905
226.811	17.317	931.042	714.689
227.826	17.031	930.287	712.847
228.840	17.146	929.580	712.725
229.855	17.142	928.749	712.005
230.869	17.093	928.203	711.320
231.884	16.970	927.578	710.264
232.899	17.149	926.556	710.169
233.913	16.986	925.956	708.960
234.928	16.970	924.842	707.979
235.942	16.950	924.665	707.698
236.957	16.909	923.883	706.868
237.972	16.982	923.520	706.831
238.986	17.025	922.898	706.470
240.001	17.077	922.049	705.974
241.015	17.102	921.769	705.802
242.030	17.089	921.123	705.190
243.045	17.039	920.830	704.695
244.059	17.035	920.039	704.013
245.074	17.209	918.949	703.838
246.088	17.158	918.642	703.330
247.103	17.272	917.699	703.015
248.117	17.450	917.363	703.432
249.132	17.540	917.121	703.554
250.147	17.599	916.426	703.205
251.161	17.617	916.040	702.921
252.176	17.734	915.170	702.673
253.190	17.749	914.278	701.987
254.205	17.721	914.020	701.612
255.220	17.647	913.683	700.984
256.234	17.680	912.528	700.174
257.249	17.768	911.652	699.801
258.263	17.547	911.265	698.534
259.278	17.772	910.085	698.491
260.293	17.889	909.447	698.416
261.307	17.785	909.352	697.858
262.322	17.927	908.543	697.757
263.336	17.829	907.913	696.810
264.351	17.901	906.936	696.293
265.366	18.069	906.268	696.401
266.380	17.935	905.773	695.416
267.395	17.805	905.075	694.290
268.409	17.744	904.404	693.464
269.424	17.943	903.400	693.439
270.439	17.761	902.901	692.256
271.453	17.842	901.790	691.673
272.468	17.696	901.614	690.886
273.482	17.739	900.952	690.493
274.497	17.809	900.510	690.372
275.512	17.691	900.032	689.468
276.526	17.862	899.459	689.660
277.541	17.776	899.309	689.138
278.555	17.939	898.321	688.977
279.570	18.183	897.436	689.219
280.585	18.208	896.430	688.487
281.599	18.018	896.051	687.370
282.614	17.796	895.543	686.027
283.628	17.927	895.300	686.307
284.643	18.020	893.837	685.498
285.657	17.915	893.378	684.666
286.672	17.909	893.160	684.411
287.687	17.994	892.399	684.109
288.701	17.907	891.905	683.321
289.716	18.017	891.315	683.249
290.730	18.157	890.780	683.339
291.745	18.231	889.809	682.828
292.760	18.165	889.384	682.178
293.774	18.313	888.690	682.175
294.789	18.136	888.494	681.258
295.803	18.091	887.324	680.123
296.818	18.147	886.360	679.546
297.833	18.015	886.198	678.838
298.847	18.068	885.524	678.471
299.862	18.180	884.929	678.399
300.876	18.246	884.626	678.369
301.891	18.388	883.559	678.055
302.906	18.387	883.093	677.631
303.920	18.497	882.919	677.874
304.935	18.389	882.241	676.868
305.949	18.211	881.581	675.595
306.964	18.249	881.223	675.412
307.979	18.467	880.190	675.422
308.993	18.588	879.353	675.194
310.008	18.563	879.027	674.787
311.022	18.551	878.306	674.124
312.037	18.363	877.791	672.932
313.052	18.389	877.148	672.481
314.066	18.117	876.867	671.138
315.081	18.155	876.288	670.785
316.095	18.201	875.415	670.241
317.110	18.304	874.878	670.171
318.125	18.249	874.841	669.869
319.139	18.310	873.841	669.283
320.154	18.395	873.217	669.076
321.168	18.347	872.618	668.373
322.183	18.308	872.333	667.941
323.197	18.342	871.639	667.484
324.212	18.511	870.987	667.583
325.227	18.212	870.338	665.863
326.241	18.350	870.039	666.113
327.256	18.263	869.377	665.208
328.270	18.367	868.994	665.262
329.285	18.413	868.292	664.843
330.300	18.403	867.717	664.305
331.314	18.386	867.207	663.789
332.329	18.545	866.329	663.674
333.343	18.579	866.177	663.632
334.358	18.631	865.844	663.518
335.373	18.614	865.655	663.251
336.387	18.702	865.104	663.109
337.402	18.551	865.529	662.792
338.416	18.667	864.919	662.713
339.431	18.691	864.681	662.566
340.446	18.909	863.637	662.549
341.460	19.039	863.479	662.869
342.475	18.806	863.290	661.768
343.489	18.912	862.596	661.585
344.504	19.038	861.862	661.447
345.519	19.095	861.619	661.424
346.533	19.019	860.978	660.581
347.548	18.836	860.547	659.489
348.562	18.763	859.882	658.640
349.577	18.774	859.183	658.088
350.592	18.754	858.483	657.417
351.606	18.763	857.580	656.703
352.621	18.714	857.449	656.356
353.635	18.784	856.209	655.618
354.650	18.921	855.412	655.470
355.665	18.940	854.863	655.066
356.679	19.022	854.516	655.052
357.694	18.990	853.754	654.288
358.708	18.975	853.470	653.956
359.723	18.950	852.342	652.939
360.738	18.988	852.079	652.826
361.752	19.029	851.471	652.458
362.767	19.098	850.743	652.102
363.781	19.204	850.313	652.115
364.796	19.312	850.291	652.449
365.810	19.336	849.586	651.943
366.825	19.343	849.248	651.650
367.840	19.285	848.812	651.042
368.854	19.272	848.167	650.441
369.869	19.198	847.867	649.873
370.883	19.209	847.275	649.401
371.898	19.269	847.565	649.795
372.913	19.367	846.816	649.530
373.927	19.331	845.956	648.678
374.942	19.340	845.558	648.350
375.956	19.519	844.965	648.509
376.971	19.639	844.438	648.498
377.986	19.627	844.044	648.095
379.000	19.826	843.428	648.309
380.015	19.515	843.659	647.264
381.029	19.615	842.521	646.708
382.044	19.730	841.416	646.231
383.059	19.587	841.530	645.728
384.073	19.530	840.852	644.940
385.088	19.657	839.662	644.440
386.102	19.357	839.575	643.199
387.117	19.420	838.832	642.808
388.132	19.490	838.201	642.527
389.146	19.611	837.590	642.454
390.161	19.629	837.120	642.102
391.175	19.577	836.942	641.714
392.190	19.487	836.425	640.929
393.205	19.521	835.782	640.506
394.219	19.640	835.129	640.388
395.234	19.414	834.917	639.333
396.248	19.357	834.505	638.751
397.263	19.393	834.327	638.690
398.278	19.363	834.022	638.289
399.292	19.404	833.217	637.767
400.307	19.391	832.742	637.300
401.321	19.531	832.137	637.295
402.336	19.632	831.453	637.089
403.350	19.442	831.684	636.508
404.365	19.605	831.256	636.724
405.380	19.754	830.567	636.689
406.394	19.852	829.819	636.422
407.409	19.840	829.600	636.155
408.423	19.873	829.764	636.342
409.438	20.044	828.732	636.124
410.453	19.948	828.548	635.572
411.467	20.110	828.031	635.714
412.482	20.114	827.435	635.216
413.496	20.148	827.233	635.130
414.511	20.171	826.932	634.926
415.526	20.038	826.324	633.916
416.540	20.106	825.672	633.607
417.555	19.983	825.556	633.014
418.569	20.110	825.005	633.001
419.584	20.093	824.581	632.557
420.599	20.055	824.163	632.041
421.613	152.567	1368.603	1777.266
422.628	132.983	1447.950	1777.377
