DTS Sentinel unit serial number:	SN413079Multiplexer serial number:	ORYXHardware model number:	OX4-SRSoftware version number:	ORYX F/W v4.00 Oryx Data Collector v3.7.2.0data status	okinstallation	princeton_trtdifferential loss correction	single-endedforward channel	channel 1reverse channel	N/Adate	2019/09/18time	01:10:35forward acquisition time	60.00reverse acquisition time	0.00gamma	496.2192k internal	0.2341k external	0.2341temperature offset calibration	0.9978default loss term (dB/km)	0.3790temperature slope calibration	1.0000multiplexer offset coefficient	1.0000multiplexer slope coefficient	1.0000fibre end	0.00T internal ref (°C)	23.23T ext. ref 1 (°C)	0.17T ext. ref 2 (°C)	16.87length (m)	temperature (°C)	Stokes	anti-Stokes-747.200	24.982	0.172	-0.143
-746.185	-200.000	-0.006	0.118
-745.171	17.859	0.203	0.162
-744.156	289.139	-0.119	0.215
-743.142	-84.651	-0.208	-0.066
-742.127	-105.994	-0.179	-0.040
-741.112	31.419	0.138	-0.118
-740.098	-200.000	-0.013	0.297
-739.083	-79.761	0.256	0.086
-738.069	74.946	0.179	-0.189
-737.054	-187.867	0.095	-0.001
-736.039	-126.129	0.235	-0.035
-735.025	-163.766	0.255	0.012
-734.010	107.855	0.132	-0.157
-732.996	-200.000	-0.226	0.000
-731.981	-81.762	-0.145	0.048
-730.966	6.977	0.279	-0.208
-729.952	-200.000	0.007	-0.111
-728.937	-200.000	0.004	-0.119
-727.923	33.576	-0.313	-0.272
-726.908	-115.783	-0.194	-0.036
-725.894	346.563	0.107	0.211
-724.879	-131.754	-0.183	0.024
-723.864	-102.339	-0.136	-0.033
-722.850	-200.000	-0.005	0.222
-721.835	-139.452	-0.243	-0.026
-720.821	-69.702	0.408	-0.156
-719.806	-52.176	-0.073	0.034
-718.791	800.000	-0.053	0.187
-717.777	341.771	-0.058	-0.113
-716.762	-134.859	-0.365	-0.044
-715.748	102.233	0.021	-0.024
-714.733	-126.291	0.390	-0.058
-713.718	74.981	0.109	-0.115
-712.704	182.056	-0.125	0.185
-711.689	-118.062	-0.303	-0.054
-710.675	555.817	0.032	-0.076
-709.660	-60.118	-0.195	0.083
-708.645	-99.678	0.246	0.062
-707.631	-167.251	0.075	-0.003
-706.616	28.926	-0.277	0.235
-705.602	800.000	-0.038	0.133
-704.587	176.219	-0.101	-0.147
-703.572	1.167	-0.312	-0.224
-702.558	423.285	-0.118	-0.255
-701.543	-115.586	-0.265	0.050
-700.529	-200.000	-0.037	-0.468
-699.514	156.952	-0.012	0.017
-698.499	-99.041	-0.151	-0.038
-697.485	-200.000	0.032	-0.201
-696.470	-59.551	-0.324	0.139
-695.456	-200.000	0.008	-0.150
-694.441	-106.519	-0.069	0.015
-693.426	-22.917	-0.252	-0.152
-692.412	326.330	-0.084	0.161
-691.397	54.723	-0.244	-0.236
-690.383	295.392	-0.132	0.241
-689.368	-200.000	0.029	0.196
-688.354	-71.620	-0.074	0.028
-687.339	800.000	0.035	-0.101
-686.324	256.200	-0.124	-0.212
-685.310	736.597	0.117	-0.314
-684.295	-65.231	-0.095	-0.038
-683.281	338.323	-0.174	-0.339
-682.266	-168.060	0.338	0.013
-681.251	-164.108	0.284	-0.013
-680.237	394.110	-0.105	0.218
-679.222	310.342	-0.073	-0.137
-678.208	57.636	-0.183	0.179
-677.193	-200.000	0.024	0.241
-676.178	-20.563	0.169	0.104
-675.164	32.945	0.205	-0.177
-674.149	-200.000	0.014	0.094
-673.135	-141.641	-0.272	-0.027
-672.120	-160.247	0.224	-0.012
-671.105	800.000	0.030	0.108
-670.091	798.012	0.082	0.225
-669.076	650.349	0.103	-0.264
-668.062	41.012	-0.163	0.147
-667.047	54.275	-0.279	0.268
-666.032	-35.125	0.482	-0.262
-665.018	355.571	0.059	-0.118
-664.003	800.000	0.052	0.164
-662.989	800.000	0.088	0.344
-661.974	-200.000	0.038	0.380
-660.959	-30.673	-0.268	0.151
-659.945	-200.000	-0.016	-0.134
-658.930	-186.673	-0.341	-0.005
-657.916	93.150	0.128	0.145
-656.901	590.238	-0.126	-0.310
-655.886	368.021	-0.090	0.181
-654.872	-200.000	-0.002	0.020
-653.857	135.475	-0.152	0.198
-652.843	158.133	0.158	0.219
-651.828	800.000	0.118	0.363
-650.814	-200.000	-0.015	0.272
-649.799	-200.000	0.012	-0.395
-648.784	-115.372	0.459	0.087
-647.770	-142.453	-0.016	0.002
-646.755	-200.000	-0.018	0.229
-645.741	-77.789	0.054	-0.019
-644.726	-188.253	0.195	0.002
-643.711	15.667	-0.248	-0.195
-642.697	312.713	-0.220	-0.413
-641.682	1.889	-0.256	-0.184
-640.668	-200.000	0.019	-0.225
-639.653	-200.000	-0.037	-0.171
-638.638	-100.045	-0.215	-0.053
-637.624	-22.444	-0.092	0.055
-636.609	82.587	0.280	-0.303
-635.595	-65.105	0.335	-0.135
-634.580	686.335	0.069	-0.179
-633.565	5.938	0.181	0.134
-632.551	105.337	-0.161	-0.189
-631.536	-55.742	-0.126	-0.056
-630.522	95.010	-0.192	0.218
-629.507	588.693	0.136	-0.335
-628.492	-40.673	0.079	-0.041
-627.478	-200.000	0.027	0.138
-626.463	-71.367	0.156	0.058
-625.449	-48.656	-0.066	0.032
-624.434	96.341	-0.106	0.120
-623.419	127.033	-0.033	-0.041
-622.405	363.596	-0.140	-0.281
-621.390	-146.136	-0.245	0.021
-620.376	-166.617	0.195	-0.008
-619.361	321.954	0.048	0.090
-618.346	-24.318	-0.117	-0.070
-617.332	-188.533	0.100	-0.001
-616.317	-97.704	0.426	-0.110
-615.303	-74.322	-0.151	-0.055
-614.288	-200.000	0.027	-0.180
-613.273	-200.000	0.014	0.093
-612.259	83.679	0.102	-0.111
-611.244	-3.938	0.065	0.045
-610.230	77.870	-0.060	0.064
-609.215	448.562	0.057	0.125
-608.201	-86.693	0.156	0.047
-607.186	346.524	-0.084	0.164
-606.171	-200.000	-0.040	-0.354
-605.157	-63.879	-0.408	0.166
-604.142	-200.000	-0.031	-0.226
-603.128	-47.581	-0.488	0.236
-602.113	673.162	-0.131	-0.338
-601.098	-93.490	-0.101	0.028
-600.084	-194.211	-0.139	0.001
-599.069	-200.000	0.037	-0.261
-598.055	133.788	-0.091	0.117
-597.040	-137.453	-0.269	-0.030
-596.025	76.968	0.051	0.054
-595.011	-95.677	-0.215	0.057
-593.996	-130.893	-0.116	-0.015
-592.982	800.000	-0.063	0.197
-591.967	-200.000	-0.051	0.247
-590.952	800.000	-0.025	-0.076
-589.938	-200.000	0.049	-0.214
-588.923	687.945	-0.106	-0.275
-587.909	-41.945	-0.157	0.080
-586.894	-60.632	0.202	0.085
-585.879	800.000	-0.101	0.277
-584.865	-153.748	0.135	-0.009
-583.850	-200.000	0.015	-0.183
-582.836	-33.696	-0.210	0.115
-581.821	-200.000	0.046	0.235
-580.806	800.000	-0.055	0.183
-579.792	-95.422	0.170	0.046
-578.777	113.560	0.105	0.128
-577.763	29.041	-0.296	0.250
-576.748	-151.826	-0.225	0.016
-575.733	-173.697	-0.137	-0.004
-574.719	369.239	0.135	0.272
-573.704	-200.000	0.030	0.373
-572.690	-175.473	-0.237	-0.006
-571.675	374.527	-0.188	-0.381
-570.661	-136.715	-0.035	-0.004
-569.646	-43.156	-0.058	-0.029
-568.631	-157.588	-0.331	0.020
-567.617	24.404	-0.261	0.214
-566.602	87.183	0.028	-0.031
-565.588	-200.000	0.013	0.148
-564.573	-200.000	0.023	0.145
-563.558	149.836	-0.057	0.077
-562.544	-8.896	-0.150	-0.100
-561.529	-18.845	0.340	-0.211
-560.515	207.177	0.155	0.241
-559.500	180.734	-0.014	-0.021
-558.485	-67.893	0.067	-0.026
-557.471	62.558	-0.250	0.248
-556.456	141.991	-0.248	0.327
-555.442	800.000	-0.045	-0.142
-554.427	661.433	-0.090	0.230
-553.412	201.680	-0.185	-0.283
-552.398	-18.562	-0.173	0.107
-551.383	59.016	-0.207	-0.202
-550.369	-96.483	0.196	-0.052
-549.354	800.000	-0.076	0.263
-548.339	-84.922	0.290	-0.090
-547.325	800.000	0.127	-0.369
-546.310	336.897	-0.092	-0.178
-545.296	-25.261	0.344	-0.202
-544.281	-73.735	-0.037	-0.013
-543.266	231.782	-0.116	-0.189
-542.252	-92.590	0.067	-0.019
-541.237	-108.841	-0.228	0.049
-540.223	22.026	-0.092	0.075
-539.208	4.710	-0.051	0.037
-538.193	800.000	-0.066	-0.269
-537.179	-200.000	-0.018	-0.362
-536.164	103.212	0.040	-0.046
-535.150	78.829	-0.300	0.319
-534.135	111.052	0.054	0.065
-533.121	-200.000	0.065	-0.360
-532.106	800.000	-0.047	-0.189
-531.091	204.159	-0.167	-0.257
-530.077	-46.488	-0.219	-0.107
-529.062	192.398	-0.024	0.037
-528.048	-200.000	-0.012	-0.138
-527.033	-45.728	0.168	-0.082
-526.018	57.663	-0.190	-0.185
-525.004	-200.000	-0.021	-0.341
-523.989	-200.000	-0.022	-0.240
-522.975	-200.000	0.046	-0.295
-521.960	-56.100	-0.078	0.035
-520.945	224.446	0.194	0.312
-519.931	-200.000	0.007	0.121
-518.916	-21.447	-0.150	0.091
-517.902	716.107	0.090	-0.236
-516.887	-200.000	-0.042	0.288
-515.872	-49.438	0.084	0.040
-514.858	800.000	-0.014	0.049
-513.843	800.000	-0.005	-0.017
-512.829	-200.000	-0.055	-0.267
-511.814	-51.784	-0.046	0.021
-510.799	11.774	0.181	0.138
-509.785	800.000	-0.093	0.327
-508.770	-116.448	0.286	0.053
-507.756	509.557	-0.080	0.184
-506.741	-16.656	0.221	-0.139
-505.726	-200.000	0.022	0.322
-504.712	-46.033	-0.396	-0.194
-503.697	57.721	0.099	0.096
-502.683	-200.000	0.015	-0.073
-501.668	-13.793	-0.342	0.220
-500.653	800.000	-0.012	-0.036
-499.639	-200.000	-0.036	0.223
-498.624	195.498	-0.095	0.143
-497.610	-100.442	0.269	0.066
-496.595	-37.297	-0.257	-0.136
-495.581	800.000	0.083	-0.332
-494.566	-200.000	-0.048	-0.360
-493.551	-149.713	-0.233	-0.018
-492.537	-200.000	-0.032	0.363
-491.522	71.812	-0.194	-0.200
-490.508	-200.000	0.061	-0.361
-489.493	337.155	0.041	-0.080
-488.478	78.901	-0.257	0.273
-487.464	-149.698	-0.327	0.025
-486.449	-148.567	0.131	0.011
-485.435	-200.000	-0.023	-0.620
-484.420	-12.343	-0.073	-0.047
-483.405	-50.734	-0.171	-0.080
-482.391	-156.377	-0.265	0.016
-481.376	-157.835	-0.117	-0.007
-480.362	-74.179	-0.174	-0.062
-479.347	800.000	0.032	-0.115
-478.332	-200.000	0.023	0.348
-477.318	108.767	0.211	0.250
-476.303	-68.099	0.186	-0.072
-475.289	-200.000	0.011	0.051
-474.274	-125.793	0.458	-0.069
-473.259	-89.745	0.145	-0.042
-472.245	-109.946	-0.186	-0.039
-471.230	-100.434	0.100	-0.025
-470.216	487.594	-0.118	0.267
-469.201	-73.687	0.238	0.086
-468.186	156.119	0.178	0.243
-467.172	-200.000	-0.024	0.171
-466.157	800.000	0.085	-0.291
-465.143	68.197	-0.074	-0.075
-464.128	-164.112	0.242	0.011
-463.113	-200.000	-0.039	0.177
-462.099	202.839	-0.183	0.280
-461.084	-200.000	0.009	-0.239
-460.070	167.830	0.036	0.050
-459.055	-51.431	0.293	-0.136
-458.040	-67.789	-0.121	0.047
-457.026	33.439	-0.160	0.138
-456.011	-134.938	-0.162	0.019
-454.997	-26.803	-0.159	0.092
-453.982	-160.053	0.324	0.017
-452.968	-121.642	0.098	0.016
-451.953	16.643	-0.153	0.120
-450.938	96.249	0.169	0.192
-449.924	-26.966	-0.207	0.120
-448.909	-119.755	-0.143	0.024
-447.895	-117.969	-0.114	0.020
-446.880	-200.000	0.015	-0.076
-445.865	116.622	-0.142	-0.173
-444.851	-121.898	0.171	0.028
-443.836	169.948	-0.050	0.070
-442.822	23.871	0.134	0.109
-441.807	-5.573	-0.221	-0.150
-440.792	-23.295	-0.483	-0.288
-439.778	-200.000	0.012	0.078
-438.763	-104.357	-0.056	0.013
-437.749	412.443	-0.193	0.405
-436.734	12.602	-0.192	0.147
-435.719	-200.000	0.016	0.138
-434.705	320.802	-0.116	-0.218
-433.690	800.000	0.179	0.510
-432.676	-88.289	-0.299	0.089
-431.661	-121.770	-0.077	0.013
-430.646	-75.351	0.635	-0.224
-429.632	-200.000	0.055	0.000
-428.617	90.094	0.091	-0.101
-427.603	100.549	-0.175	0.201
-426.588	-135.249	-0.080	-0.010
-425.573	800.000	0.020	0.059
-424.559	-132.324	-0.357	0.046
-423.544	-111.918	0.173	0.035
-422.530	-200.000	-0.022	0.140
-421.515	800.000	-0.083	-0.307
-420.500	35.869	0.149	0.130
-419.486	-113.689	0.151	0.029
-418.471	-127.388	-0.350	0.050
-417.457	-200.000	0.113	-0.000
-416.442	800.000	-0.095	-0.298
-415.428	-149.591	-0.319	0.025
-414.413	-200.000	0.048	0.301
-413.398	-27.697	0.245	-0.141
-412.384	266.583	0.100	-0.172
-411.369	34.328	-0.280	-0.242
-410.355	169.406	-0.240	-0.338
-409.340	-200.000	-0.010	-0.212
-408.325	26.590	0.048	-0.040
-407.311	800.000	0.118	0.332
-406.296	-12.389	0.272	0.176
-405.282	-200.000	0.034	0.414
-404.267	91.309	0.180	0.199
-403.252	26.714	0.066	0.055
-402.238	-200.000	-0.002	0.232
-401.223	-29.118	0.213	0.121
-400.209	395.649	0.111	-0.229
-399.194	-181.706	0.299	-0.006
-398.179	-200.000	0.026	-0.165
-397.165	-163.153	0.492	0.023
-396.150	800.000	0.020	-0.075
-395.136	800.000	0.046	-0.198
-394.121	568.352	0.098	-0.234
-393.106	-88.009	0.283	0.084
-392.092	800.000	-0.039	0.154
-391.077	-109.549	-0.186	0.039
-390.063	549.352	-0.192	0.456
-389.048	800.000	0.109	0.420
-388.033	-94.091	0.054	0.015
-387.019	-76.561	-0.239	-0.083
-386.004	-100.597	-0.230	-0.056
-384.990	800.000	0.020	0.084
-383.975	-159.839	0.414	-0.022
-382.960	50.731	0.104	-0.097
-381.946	-20.807	0.021	-0.013
-380.931	87.157	-0.147	0.160
-379.917	486.066	-0.138	-0.310
-378.902	-62.812	-0.056	0.023
-377.888	-200.000	0.007	0.292
-376.873	-51.331	0.348	0.161
-375.858	-200.000	-0.009	0.130
-374.844	724.304	-0.024	0.062
-373.829	-200.000	0.002	-0.035
-372.815	112.070	-0.150	-0.179
-371.800	-200.000	-0.006	-0.098
-370.785	-91.809	-0.339	0.095
-369.771	-182.308	0.175	0.003
-368.756	800.000	-0.019	-0.053
-367.742	129.306	0.105	0.132
-366.727	800.000	-0.030	0.116
-365.712	425.965	0.078	0.167
-364.698	-122.908	-0.112	-0.018
-363.683	-59.691	-0.225	-0.095
-362.669	800.000	-0.065	0.233
-361.654	-16.425	-0.434	0.272
-360.639	-140.832	-0.259	0.026
-359.625	83.899	-0.087	-0.094
-358.610	-200.000	0.001	0.099
-357.596	-126.484	0.464	0.068
-356.581	267.604	-0.089	-0.154
-355.566	374.374	0.136	-0.274
-354.552	99.234	0.053	0.060
-353.537	800.000	-0.019	-0.066
-352.523	-21.414	-0.099	0.060
-351.508	468.334	-0.126	0.279
-350.493	800.000	0.078	0.223
-349.479	-26.577	0.246	0.142
-348.464	-200.000	0.012	-0.395
-347.450	-200.000	0.011	0.124
-346.435	-3.307	-0.246	0.169
-345.420	296.410	0.207	-0.374
-344.406	-174.589	0.151	0.004
-343.391	-200.000	-0.046	0.260
-342.377	10.100	-0.120	0.090
-341.362	39.271	0.108	0.096
-340.348	-120.594	0.117	0.020
-339.333	-200.000	-0.051	0.310
-338.318	436.172	0.031	0.066
-337.304	101.486	0.073	-0.084
-336.289	-107.317	0.048	-0.010
-335.275	-200.000	0.047	0.301
-334.260	-35.523	-0.184	0.099
-333.245	-99.231	0.261	-0.065
-332.231	-200.000	0.030	0.190
-331.216	171.712	0.228	-0.323
-330.202	-200.000	-0.012	-0.107
-329.187	-126.169	0.302	0.045
-328.172	800.000	0.051	0.186
-327.158	26.955	0.135	-0.112
-326.143	-200.000	0.000	-0.061
-325.129	-200.000	0.067	-0.588
-324.114	2.433	-0.315	-0.225
-323.099	-85.004	-0.295	0.091
-322.085	-53.600	0.206	-0.093
-321.070	-180.380	-0.121	0.002
-320.056	705.957	-0.104	-0.271
-319.041	111.247	0.088	0.105
-318.026	54.938	0.108	-0.103
-317.012	485.351	0.034	0.075
-315.997	506.582	0.013	0.030
-314.983	-63.107	-0.292	-0.119
-313.968	-47.366	-0.160	0.077
-312.953	-125.343	-0.052	-0.008
-311.939	-118.234	-0.351	0.062
-310.924	-124.879	0.039	0.006
-309.910	67.282	0.152	0.152
-308.895	-116.340	-0.125	-0.023
-307.880	9.626	-0.148	0.111
-306.866	800.000	0.050	0.177
-305.851	-39.261	-0.143	-0.074
-304.837	-200.000	-0.040	-0.248
-303.822	-79.094	-0.209	0.070
-302.807	-161.563	0.260	0.013
-301.793	-180.500	0.374	-0.008
-300.778	97.523	0.261	-0.295
-299.764	-95.289	-0.158	0.042
-298.749	800.000	0.013	-0.053
-297.735	70.535	-0.074	0.075
-296.720	-54.207	-0.510	-0.228
-295.705	-200.000	0.042	-0.199
-294.691	35.542	0.094	0.081
-293.676	-104.101	0.153	-0.035
-292.662	-200.000	0.020	-0.468
-291.647	-96.320	0.159	-0.041
-290.632	-200.000	-0.004	0.085
-289.618	-200.000	-0.026	-0.128
-288.603	800.000	0.032	0.128
-287.589	770.441	-0.112	-0.300
-286.574	49.986	-0.201	-0.187
-285.559	-154.112	0.137	-0.009
-284.545	-200.000	-0.050	0.228
-283.530	-109.964	-0.152	-0.031
-282.516	-200.000	0.002	-0.056
-281.501	800.000	-0.123	0.444
-280.486	344.189	0.040	-0.078
-279.472	-86.446	-0.143	0.043
-278.457	37.264	0.303	0.264
-277.443	-60.503	0.235	-0.098
-276.428	800.000	0.044	-0.127
-275.413	73.726	0.110	0.113
-274.399	2.103	0.064	0.045
-273.384	-200.000	0.015	-0.113
-272.370	139.600	0.121	-0.157
-271.355	-1.675	0.175	-0.121
-270.340	50.104	0.113	0.105
-269.326	417.126	0.123	-0.259
-268.311	2.290	0.199	-0.142
-267.297	-53.249	0.181	-0.082
-266.282	-105.826	-0.169	0.038
-265.267	-23.640	0.093	-0.055
-264.253	-54.027	0.313	0.140
-263.238	1.815	0.270	0.191
-262.224	318.219	-0.026	0.048
-261.209	563.329	0.097	-0.231
-260.195	-78.050	-0.140	-0.048
-259.180	-68.806	0.223	0.085
-258.165	-200.000	-0.022	0.174
-257.151	800.000	-0.039	0.158
-256.136	115.712	0.018	0.022
-255.122	-156.035	-0.200	0.012
-254.107	-200.000	-0.009	-0.108
-253.092	622.473	-0.094	-0.233
-252.078	-27.409	-0.103	-0.059
-251.063	254.669	0.127	0.214
-250.049	303.361	-0.074	0.135
-249.034	526.449	0.124	-0.287
-248.019	-115.158	0.071	0.013
-247.005	435.023	0.021	0.045
-245.990	-70.015	0.129	-0.048
-244.976	37.264	-0.311	0.271
-243.961	800.000	-0.011	0.032
-242.946	-200.000	0.016	0.221
-241.932	800.000	0.021	0.073
-240.917	-200.000	-0.007	0.249
-239.903	73.370	0.224	0.230
-238.888	-123.993	0.467	0.072
-237.873	83.070	-0.165	-0.176
-236.859	51.678	-0.170	-0.159
-235.844	-69.241	0.142	-0.054
-234.830	199.193	0.233	-0.351
-233.815	800.000	0.022	-0.067
-232.800	-200.000	0.006	0.415
-231.786	202.811	-0.089	0.135
-230.771	531.423	-0.037	-0.087
-229.757	-54.947	-0.125	-0.055
-228.742	-134.632	-0.242	-0.029
-227.727	336.485	0.125	0.239
-226.713	-114.154	-0.329	-0.062
-225.698	-163.946	0.274	-0.013
-224.684	1.816	-0.349	-0.247
-223.669	-104.446	0.102	-0.023
-222.655	-137.416	-0.230	-0.026
-221.640	-200.000	-0.004	0.416
-220.625	-148.003	0.178	0.014
-219.611	-200.000	-0.007	0.130
-218.596	66.361	-0.179	-0.178
-217.582	-148.691	0.197	0.016
-216.567	-48.033	0.071	0.034
-215.552	313.951	-0.082	0.151
-214.538	507.203	0.121	0.275
-213.523	800.000	0.017	-0.053
-212.509	-99.197	0.159	-0.040
-211.494	1.858	0.044	-0.031
-210.479	-61.166	0.135	0.056
-209.465	476.912	0.064	-0.141
-208.450	-200.000	-0.029	-0.225
-207.436	94.400	-0.271	-0.303
-206.421	-200.000	0.055	0.266
-205.406	800.000	-0.082	0.270
-204.392	44.536	0.088	-0.079
-203.377	-200.000	-0.006	0.296
-202.363	-151.448	-0.152	-0.011
-201.348	410.128	-0.065	-0.135
-200.333	-73.171	0.375	0.135
-199.319	220.937	0.149	-0.234
-198.304	-25.001	-0.117	0.068
-197.290	520.868	-0.173	0.398
-196.275	-148.794	0.212	0.017
-195.260	-200.000	0.012	0.337
-194.246	-129.099	0.271	-0.037
-193.231	9.905	0.280	0.209
-192.217	-119.504	-0.276	-0.047
-191.202	-200.000	0.003	-0.229
-190.187	-122.441	0.249	-0.040
-189.173	107.338	-0.037	0.043
-188.158	164.623	-0.143	-0.197
-187.144	-27.069	0.214	0.122
-186.129	800.000	-0.020	0.061
-185.114	327.306	-0.014	-0.026
-184.100	800.000	0.051	-0.177
-183.085	103.297	0.109	-0.126
-182.071	-47.367	0.352	-0.168
-181.056	-54.512	0.147	0.065
-180.042	-65.721	0.208	-0.082
-179.027	23.062	-0.201	-0.161
-178.012	-16.031	-0.087	-0.054
-176.998	332.473	0.194	-0.367
-175.983	-200.000	-0.093	-0.424
-174.969	203.376	0.076	-0.115
-173.954	159.579	0.096	0.131
-172.939	-32.344	-0.400	0.219
-171.925	800.000	-0.119	0.468
-170.910	1.518	0.323	-0.228
-169.896	-141.929	0.613	0.060
-168.881	-160.051	-0.202	0.011
-167.866	60.490	-0.124	0.120
-166.852	-53.958	0.240	-0.107
-165.837	394.853	0.047	0.097
-164.823	-102.814	0.223	0.052
-163.808	2.894	-0.103	0.073
-162.793	13.332	0.202	-0.153
-161.779	800.000	-0.087	0.278
-160.764	443.756	-0.124	-0.266
-159.750	243.445	0.032	-0.052
-158.735	-200.000	0.010	-0.171
-157.720	-152.493	0.400	-0.028
-156.706	-200.000	0.171	-0.000
-155.691	28.909	-0.122	-0.101
-154.677	68.213	0.183	0.183
-153.662	-2.671	0.217	-0.149
-152.647	-82.374	0.202	-0.064
-151.633	-200.000	-0.013	0.244
-150.618	800.000	0.076	-0.237
-149.604	63.297	0.072	0.071
-148.589	-95.313	0.071	0.019
-147.574	57.541	0.131	-0.125
-146.560	-200.000	-0.073	-0.542
-145.545	-66.270	0.299	0.117
-144.531	-80.232	-0.231	-0.076
-143.516	-84.017	-0.170	-0.053
-142.502	-47.131	0.226	0.108
-141.487	-200.000	0.020	0.164
-140.472	-200.000	0.037	0.199
-139.458	69.835	0.195	0.197
-138.443	-200.000	0.038	-0.256
-137.429	319.427	-0.103	0.192
-136.414	149.561	0.049	0.064
-135.399	149.518	0.158	0.210
-134.385	-3.238	-0.243	-0.166
-133.370	338.846	0.014	-0.026
-132.356	-122.166	0.421	0.068
-131.341	602.773	0.055	-0.135
-130.326	-114.003	0.284	0.054
-129.312	-200.000	0.039	-0.189
-128.297	800.000	-0.118	0.337
-127.283	197.854	0.214	0.320
-126.268	-60.627	0.339	-0.141
-125.253	-71.914	0.098	-0.036
-124.239	-153.550	-0.244	-0.017
-123.224	-139.480	-0.389	-0.041
-122.210	-105.279	0.144	-0.032
-121.195	575.854	-0.066	0.158
-120.180	-169.215	-0.067	-0.002
-119.166	231.316	0.121	-0.193
-118.151	460.344	0.125	-0.272
-117.137	429.520	0.136	0.287
-116.122	-200.000	-0.028	0.177
-115.107	-47.064	0.099	0.047
-114.093	-141.705	0.139	0.014
-113.078	248.815	0.120	-0.198
-112.064	132.207	0.033	-0.042
-111.049	-157.730	-0.316	0.018
-110.034	-200.000	0.078	-0.371
-109.020	-11.962	-0.444	-0.285
-108.005	800.000	-0.099	-0.295
-106.991	102.011	0.257	-0.293
-105.976	-200.000	-0.004	0.194
-104.962	-143.992	-0.176	0.016
-103.947	165.969	0.006	-0.009
-102.932	-200.000	-0.001	0.029
-101.918	81.617	0.144	0.152
-100.903	-126.070	-0.166	0.024
-99.889	800.000	0.059	0.198
-98.874	188.687	-0.218	0.318
-97.859	86.517	0.165	-0.178
-96.845	-85.253	0.172	0.053
-95.830	-200.000	-0.024	0.329
-94.816	-58.752	-0.291	0.123
-93.801	250.432	-0.102	0.169
-92.786	-115.644	-0.186	0.034
-91.772	172.456	-0.078	-0.109
-90.757	33.701	0.185	-0.157
-89.743	-24.628	0.216	0.126
-88.728	800.000	0.031	0.127
-87.713	-109.750	-0.070	-0.014
-86.699	322.184	-0.138	0.256
-85.684	-84.362	-0.227	0.070
-84.670	-173.946	-0.137	0.004
-83.655	550.257	-0.140	-0.328
-82.640	669.395	0.087	-0.219
-81.626	-24.758	0.160	-0.093
-80.611	39.758	-0.096	0.084
-79.597	-87.792	0.226	0.067
-78.582	-151.726	0.367	-0.026
-77.567	-97.057	-0.198	-0.051
-76.553	-200.000	-0.013	-0.386
-75.538	-91.171	-0.189	0.053
-74.524	594.731	-0.082	0.198
-73.509	-97.165	0.108	0.027
-72.494	230.027	0.068	-0.108
-71.480	125.655	-0.059	-0.073
-70.465	-77.113	0.253	0.086
-69.451	-46.567	0.314	-0.150
-68.436	111.061	-0.325	0.382
-67.422	-34.676	0.427	-0.228
-66.407	46.455	0.138	-0.125
-65.392	-200.000	-0.050	-0.238
-64.378	104.608	0.285	0.328
-63.363	239.432	0.061	0.099
-62.349	159.536	0.039	0.054
-61.334	7.920	-1.257	-0.920
-60.319	59.755	0.541	0.521
-59.305	800.000	-0.325	-1.239
-58.290	174.935	0.947	1.338
-57.276	800.000	0.466	1.460
-56.261	-200.000	126.190	673.511
-55.246	426.755	1575.964	3315.131
-54.232	142.551	2727.256	3533.094
-53.217	96.707	2148.093	2399.982
-52.203	34.746	1583.388	1350.414
-51.188	26.431	1328.562	1083.475
-50.173	24.086	1290.901	1039.054
-49.159	52.398	1361.351	1266.924
-48.144	49.009	1372.245	1256.697
-47.130	26.778	1319.540	1078.009
-46.115	23.385	1301.305	1043.131
-45.100	23.186	1296.123	1037.772
-44.086	23.059	1293.639	1034.997
-43.071	23.014	1291.156	1032.707
-42.057	22.952	1289.415	1030.915
-41.042	23.035	1287.788	1030.056
-40.027	23.168	1286.150	1029.474
-39.013	23.090	1284.232	1027.451
-37.998	23.090	1282.897	1026.340
-36.984	23.176	1280.899	1025.196
-35.969	23.325	1278.648	1024.218
-34.954	23.193	1277.806	1022.738
-33.940	23.174	1276.537	1021.576
-32.925	23.256	1274.847	1020.652
-31.911	23.333	1273.455	1019.944
-30.896	23.302	1272.388	1018.866
-29.881	23.344	1271.263	1018.170
-28.867	23.354	1269.505	1016.779
-27.852	23.326	1268.216	1015.546
-26.838	23.439	1266.793	1015.014
-25.823	23.393	1265.787	1013.905
-24.809	23.360	1263.900	1012.160
-23.794	23.332	1262.769	1011.054
-22.779	23.347	1261.429	1010.031
-21.765	23.329	1260.392	1009.056
-20.750	23.273	1258.958	1007.549
-19.736	23.198	1257.569	1005.973
-18.721	23.206	1256.494	1005.115
-17.706	23.139	1256.014	1004.315
-16.692	23.185	1254.342	1003.198
-15.677	23.139	1253.465	1002.194
-14.663	23.123	1251.977	1000.877
-13.648	23.227	1250.744	1000.435
-12.633	23.203	1250.097	999.743
-11.619	23.257	1249.261	999.341
-10.604	23.247	1248.077	998.298
-9.590	23.221	1247.284	997.476
-8.575	23.095	1246.580	996.166
-7.560	23.253	1245.280	995.973
-6.546	23.167	1245.104	995.313
-5.531	23.096	1244.120	994.089
-4.517	23.133	1243.652	993.878
-3.502	23.188	1242.588	993.299
-2.487	23.212	1241.803	992.769
-1.473	23.164	1237.225	988.799
-0.458	21.537	1222.352	967.885
0.556	16.548	1207.235	932.082
1.571	13.038	1214.475	918.098
2.586	12.364	1230.270	926.158
3.600	12.507	1217.700	917.412
4.615	9.063	1147.423	846.254
5.629	2.996	1077.317	764.373
6.644	0.337	1060.748	739.518
7.659	0.041	1058.961	736.755
8.673	0.153	1057.960	736.542
9.688	0.130	1056.657	735.461
10.702	0.341	1053.841	734.463
11.717	3.911	1058.195	754.875
12.731	10.834	1067.546	795.460
13.746	15.742	1073.500	823.926
14.761	16.752	1074.546	829.608
15.775	16.090	1072.811	824.957
16.790	15.034	1070.750	818.139
17.804	14.332	1069.509	813.687
18.819	14.065	1068.206	811.323
19.834	13.757	1067.368	809.115
20.848	13.619	1066.159	807.451
21.863	13.290	1066.173	805.789
22.877	13.183	1065.123	804.401
23.892	13.213	1064.069	803.682
24.907	13.160	1063.526	802.943
25.921	13.241	1062.622	802.585
26.936	13.201	1061.609	801.553
27.950	13.286	1061.098	801.509
28.965	13.370	1059.585	800.698
29.980	13.361	1058.210	799.548
30.994	13.330	1057.287	798.631
32.009	13.420	1056.050	798.058
33.023	13.530	1055.439	798.059
34.038	13.465	1054.325	796.829
35.053	13.268	1053.561	795.236
36.067	13.294	1052.877	794.775
37.082	13.311	1051.813	793.982
38.096	13.258	1051.225	793.213
39.111	13.232	1050.562	792.518
40.126	13.301	1049.333	791.849
41.140	13.396	1047.707	791.010
42.155	13.212	1047.034	789.550
43.169	13.166	1045.854	788.372
44.184	13.261	1044.612	787.818
45.199	13.065	1044.008	786.362
46.213	13.091	1043.400	785.955
47.228	13.262	1041.877	785.552
48.242	13.201	1041.351	784.796
49.257	13.122	1040.253	783.525
50.271	13.290	1039.169	783.434
51.286	13.323	1038.056	782.682
52.301	13.246	1037.424	781.773
53.315	13.250	1036.274	780.855
54.330	13.254	1034.961	779.818
55.344	13.112	1034.499	778.729
56.359	13.251	1033.743	778.745
57.374	13.177	1032.653	777.508
58.388	13.034	1031.835	776.151
59.403	13.084	1031.210	775.845
60.417	13.224	1029.953	775.491
61.432	13.238	1029.258	774.962
62.447	13.005	1028.632	773.333
63.461	13.077	1027.894	773.045
64.476	12.889	1027.520	771.818
65.490	13.043	1025.957	771.294
66.505	13.162	1025.351	771.325
67.520	13.237	1024.737	771.147
68.534	13.258	1023.710	770.401
69.549	13.146	1023.351	769.542
70.563	13.145	1022.718	768.994
71.578	12.992	1021.665	767.422
72.593	12.997	1021.062	766.924
73.607	13.055	1020.464	766.679
74.622	12.943	1019.796	765.589
75.636	13.075	1018.912	765.469
76.651	13.016	1018.197	764.591
77.666	12.871	1018.187	763.844
78.680	12.903	1017.588	763.473
79.695	13.034	1016.642	763.303
80.709	13.006	1016.149	762.737
81.724	13.111	1015.364	762.562
82.739	13.115	1014.718	762.029
83.753	13.234	1013.918	761.911
84.768	13.378	1012.540	761.468
85.782	13.252	1011.833	760.292
86.797	13.146	1011.563	759.533
87.812	13.206	1010.265	758.766
88.826	13.309	1008.876	758.131
89.841	13.321	1007.985	757.447
90.855	13.209	1007.115	756.216
91.870	13.340	1006.297	756.130
92.884	13.359	1005.052	755.219
93.899	13.288	1005.166	754.910
94.914	13.428	1003.412	754.167
95.928	13.284	1003.303	753.360
96.943	13.353	1002.405	752.934
97.957	13.440	1001.043	752.240
98.972	13.442	1000.340	751.655
99.987	13.352	999.620	750.636
101.001	13.498	998.201	750.166
102.016	13.239	997.684	748.540
103.030	13.274	997.348	748.380
104.045	13.410	996.463	748.264
105.060	13.286	995.574	746.971
106.074	13.299	994.695	746.305
107.089	13.183	993.757	745.010
108.103	13.231	992.299	744.070
109.118	13.168	991.676	743.251
110.133	13.161	990.747	742.460
111.147	13.208	989.712	741.829
112.162	13.263	988.991	741.467
113.176	13.317	988.035	740.927
114.191	13.250	987.617	740.250
115.206	13.219	987.049	739.618
116.220	13.354	985.934	739.322
117.235	13.291	985.116	738.360
118.249	13.271	984.367	737.646
119.264	13.383	983.587	737.493
120.279	13.258	982.872	736.336
121.293	13.290	981.972	735.738
122.308	13.216	980.958	734.585
123.322	13.186	979.949	733.632
124.337	13.251	978.851	733.035
125.352	13.163	977.906	731.871
126.366	13.303	976.706	731.530
127.381	13.214	975.870	730.443
128.395	13.238	974.724	729.627
129.410	13.281	973.905	729.139
130.424	13.355	973.045	728.755
131.439	13.327	972.371	728.065
132.454	13.262	971.508	727.067
133.468	13.366	970.408	726.637
134.483	13.317	969.666	725.802
135.497	13.261	969.089	725.061
136.512	13.219	967.982	723.985
137.527	13.344	967.203	723.886
138.541	13.370	966.796	723.628
139.556	13.308	965.733	722.497
140.570	13.495	965.168	722.829
141.585	13.451	964.427	722.019
142.600	13.453	963.645	721.377
143.614	13.335	962.896	720.237
144.629	13.457	962.171	720.163
145.643	13.423	961.248	719.259
146.658	13.395	959.926	718.088
147.673	13.525	958.929	717.840
148.687	13.426	958.549	717.065
149.702	13.351	957.488	715.885
150.716	13.452	956.479	715.503
151.731	13.468	955.815	715.010
152.746	13.437	955.525	714.597
153.760	13.541	954.367	714.116
154.775	13.615	954.043	714.127
155.789	13.635	953.107	713.452
156.804	13.642	952.260	712.785
157.819	13.533	952.404	712.360
158.833	13.699	951.381	712.247
159.848	13.638	951.010	711.644
160.862	13.585	949.773	710.425
161.877	13.707	948.905	710.236
162.892	13.602	947.924	708.993
163.906	13.568	946.976	708.072
164.921	13.563	946.448	707.596
165.935	13.572	945.529	706.886
166.950	13.660	944.548	706.461
167.964	13.609	943.708	705.553
168.979	13.611	942.957	704.939
169.994	13.735	941.854	704.579
171.008	13.649	941.467	703.864
172.023	13.731	940.771	703.628
173.037	13.694	939.881	702.745
174.052	13.662	939.464	702.234
175.067	13.647	938.716	701.550
176.081	13.663	938.273	701.225
177.096	13.675	937.579	700.695
178.110	13.646	937.210	700.234
179.125	13.758	936.139	699.843
180.140	13.617	935.684	698.847
181.154	13.696	935.669	699.106
182.169	13.752	934.915	698.718
183.183	13.813	934.588	698.670
184.198	13.881	933.407	698.010
185.213	13.890	932.778	697.516
186.227	13.824	932.052	696.632
187.242	13.963	931.479	696.728
188.256	14.007	930.725	696.285
189.271	13.867	929.753	694.913
190.286	13.833	929.022	694.162
191.300	13.710	928.622	693.284
192.315	13.778	928.007	693.051
193.329	13.750	927.788	692.706
194.344	13.748	926.636	691.779
195.359	13.949	926.176	692.211
196.373	13.971	925.545	691.768
197.388	14.071	925.055	691.758
198.402	14.032	924.672	691.250
199.417	14.066	924.022	690.842
200.432	14.208	923.065	690.656
201.446	14.060	923.084	689.995
202.461	14.223	922.155	689.914
203.475	14.207	921.837	689.549
204.490	14.133	920.745	688.364
205.504	14.238	919.706	687.962
206.519	14.122	919.399	687.191
207.534	14.284	918.285	686.969
208.548	14.168	917.880	686.126
209.563	14.283	916.872	685.785
210.577	14.286	916.551	685.497
211.592	14.207	916.005	684.702
212.607	14.286	915.431	684.539
213.621	14.291	914.555	683.844
214.636	14.367	913.993	683.671
215.650	14.419	913.052	683.122
216.665	14.331	912.553	682.327
217.680	14.443	911.468	681.913
218.694	14.374	911.047	681.255
219.709	14.316	910.920	680.863
220.723	14.313	910.506	680.484
221.738	14.449	909.121	679.941
222.753	14.478	908.700	679.684
223.767	14.467	908.119	679.145
224.782	14.421	907.663	678.559
225.796	14.446	907.028	678.123
226.811	14.541	906.071	677.734
227.826	14.529	905.462	677.172
228.840	14.548	904.588	676.532
229.855	14.426	904.123	675.630
230.869	14.507	903.380	675.344
231.884	14.521	902.516	674.694
232.899	14.481	901.806	673.945
233.913	14.553	900.873	673.476
234.928	14.442	900.607	672.771
235.942	14.467	899.883	672.270
236.957	14.479	899.389	671.890
237.972	14.532	899.017	671.766
238.986	14.533	898.291	671.168
240.001	14.657	897.421	670.959
241.015	14.494	896.932	669.878
242.030	14.658	896.425	670.099
243.045	14.579	895.947	669.367
244.059	14.754	895.221	669.467
245.074	14.625	894.495	668.348
246.088	14.654	894.178	668.169
247.103	14.767	893.222	667.844
248.117	14.740	892.807	667.368
249.132	14.827	892.115	667.138
250.147	14.957	891.320	667.004
251.161	14.863	890.725	666.125
252.176	14.905	890.275	665.897
253.190	15.018	889.353	665.600
254.205	15.126	888.560	665.373
255.220	14.940	888.232	664.332
256.234	14.979	887.719	664.044
257.249	15.037	886.857	663.570
258.263	15.054	886.094	663.007
259.278	15.164	885.180	662.700
260.293	15.094	884.742	662.039
261.307	15.089	884.420	661.717
262.322	15.124	883.717	661.271
263.336	15.160	883.251	661.009
264.351	15.110	882.245	660.000
265.366	15.113	881.904	659.696
266.380	15.228	881.087	659.478
267.395	15.217	880.355	658.832
268.409	15.076	879.892	657.871
269.424	15.228	878.781	657.578
270.439	15.360	877.621	657.171
271.453	15.196	877.474	656.358
272.468	15.230	877.051	656.118
273.482	15.230	876.358	655.541
274.497	15.218	875.710	654.951
275.512	15.187	875.518	654.628
276.526	15.124	875.244	654.122
277.541	15.351	874.590	654.458
278.555	15.455	873.529	654.011
279.570	15.367	873.282	653.425
280.585	15.442	872.316	652.937
281.599	15.488	871.106	652.154
282.614	15.554	870.741	652.080
283.628	15.328	870.593	651.031
284.643	15.377	869.661	650.468
285.657	15.389	869.164	650.087
286.672	15.357	868.760	649.601
287.687	15.476	867.796	649.285
288.701	15.387	867.359	648.555
289.716	15.390	866.802	648.095
290.730	15.588	865.858	648.095
291.745	15.556	865.744	647.829
292.760	15.705	864.862	647.683
293.774	15.604	864.067	646.642
294.789	15.678	863.616	646.532
295.803	15.528	862.827	645.309
296.818	15.735	861.947	645.389
297.833	15.696	861.470	644.823
298.847	15.793	860.711	644.571
299.862	15.564	860.894	643.773
300.876	15.738	859.991	643.706
301.891	15.755	859.202	643.127
302.906	15.850	858.576	642.963
303.920	15.859	858.241	642.688
304.935	15.938	857.251	642.193
305.949	16.001	856.753	642.001
306.964	15.873	856.215	641.053
307.979	15.756	855.992	640.384
308.993	15.859	855.246	640.161
310.008	15.901	854.434	639.658
311.022	15.893	854.126	639.341
312.037	15.991	853.414	639.123
313.052	15.863	852.882	638.181
314.066	15.894	852.178	637.716
315.081	15.855	851.827	637.251
316.095	15.874	851.314	636.883
317.110	15.999	850.668	636.813
318.125	15.783	850.116	635.528
319.139	15.775	849.902	635.281
320.154	15.940	849.449	635.509
321.168	16.043	848.483	635.117
322.183	15.976	847.789	634.292
323.197	15.919	847.924	634.121
324.212	15.881	847.417	633.542
325.227	15.846	846.364	632.568
326.241	16.086	845.990	633.134
327.256	15.918	845.535	632.107
328.270	16.016	844.813	631.879
329.285	15.912	844.645	631.309
330.300	16.099	843.566	631.144
331.314	16.108	843.143	630.806
332.329	16.030	842.778	630.184
333.343	16.055	842.460	629.987
334.358	16.098	841.994	629.741
335.373	16.194	841.133	629.402
336.387	16.198	841.054	629.302
337.402	16.084	841.195	628.923
338.416	16.060	840.613	628.344
339.431	16.219	839.946	628.385
340.446	16.160	839.377	627.682
341.460	16.336	838.989	627.993
342.475	16.361	838.723	627.830
343.489	16.251	838.665	627.321
344.504	16.368	837.773	627.035
345.519	16.459	837.462	627.082
346.533	16.365	836.772	626.161
347.548	16.361	836.127	625.608
348.562	16.287	835.747	624.996
349.577	16.367	834.988	624.667
350.592	16.350	834.479	624.169
351.606	16.483	833.479	623.857
352.621	16.338	833.326	623.152
353.635	16.457	832.432	622.869
354.650	16.446	831.792	622.291
355.665	16.506	831.109	621.947
356.679	16.518	830.725	621.650
357.694	16.451	830.086	620.869
358.708	16.555	829.474	620.740
359.723	16.571	829.114	620.473
360.738	16.510	828.392	619.654
361.752	16.589	827.580	619.283
362.767	16.663	826.954	619.027
363.781	16.652	826.406	618.524
364.796	16.719	825.987	618.401
365.810	16.891	825.646	618.716
366.825	16.828	825.037	617.978
367.840	16.756	825.035	617.660
368.854	16.690	824.900	617.261
369.869	16.715	824.350	616.888
370.883	16.756	823.616	616.432
371.898	16.743	823.110	615.950
372.913	16.827	822.982	616.107
373.927	16.893	822.159	615.676
374.942	16.897	821.464	615.116
375.956	16.891	821.253	614.882
376.971	16.847	821.302	614.705
377.986	17.015	820.462	614.629
379.000	16.922	820.062	613.939
380.015	16.951	819.526	613.590
381.029	16.946	818.970	613.099
382.044	17.094	818.376	613.135
383.059	16.979	817.822	612.251
384.073	17.111	817.132	612.156
385.088	16.858	816.925	611.033
386.102	17.009	816.006	610.837
387.117	17.058	815.163	610.329
388.132	17.056	815.219	610.309
389.146	17.113	814.400	609.845
390.161	17.070	814.067	609.388
391.175	17.087	813.869	609.248
392.190	17.107	813.242	608.794
393.205	17.077	812.896	608.374
394.219	17.095	812.584	608.155
395.234	17.153	811.766	607.693
396.248	17.089	811.406	607.141
397.263	17.012	810.734	606.312
398.278	17.043	810.660	606.311
399.292	17.204	810.283	606.553
400.307	17.009	810.052	605.630
401.321	17.157	809.196	605.465
402.336	17.167	808.742	605.106
403.350	17.101	808.338	604.516
404.365	17.238	808.284	604.908
405.380	17.445	807.197	604.776
406.394	17.345	806.873	604.127
407.409	17.408	806.229	603.815
408.423	17.334	806.440	603.655
409.438	17.415	806.000	603.560
410.453	17.473	805.539	603.368
411.467	17.491	804.557	602.640
412.482	17.564	804.196	602.578
413.496	17.556	804.338	602.601
414.511	17.446	803.797	601.754
415.526	17.379	803.453	601.206
416.540	17.486	802.540	600.849
417.555	17.469	802.163	600.453
418.569	17.545	802.086	600.608
419.584	17.570	801.453	600.171
420.599	17.603	800.979	599.879
421.613	113.816	1298.099	1485.927
422.628	98.152	1370.463	1486.021
