DTS Sentinel unit serial number:	SN413079Multiplexer serial number:	ORYXHardware model number:	OX4-SRSoftware version number:	ORYX F/W v4.00 Oryx Data Collector v3.7.2.0data status	okinstallation	princeton_trtdifferential loss correction	single-endedforward channel	channel 1reverse channel	N/Adate	2019/09/13time	09:30:35forward acquisition time	60.00reverse acquisition time	0.00gamma	496.2192k internal	0.2325k external	0.2325temperature offset calibration	1.0159default loss term (dB/km)	0.3790temperature slope calibration	1.0000multiplexer offset coefficient	1.0000multiplexer slope coefficient	1.0000fibre end	0.00T internal ref (°C)	29.48T ext. ref 1 (°C)	4.41T ext. ref 2 (°C)	26.02length (m)	temperature (°C)	Stokes	anti-Stokes-747.200	-200.000	0.000	0.101
-746.185	-99.572	0.099	-0.025
-745.171	146.790	0.086	-0.117
-744.156	-163.622	0.128	0.006
-743.142	-200.000	-0.046	0.288
-742.127	74.298	-0.206	0.219
-741.112	294.758	0.131	-0.241
-740.098	-60.301	0.294	0.126
-739.083	388.423	0.059	-0.123
-738.069	-200.000	0.046	0.366
-737.054	135.131	0.106	0.139
-736.039	-200.000	-0.003	0.135
-735.025	-117.459	0.202	0.037
-734.010	281.393	-0.116	-0.210
-732.996	-200.000	0.039	-0.373
-731.981	-165.200	-0.390	0.017
-730.966	373.367	-0.174	-0.356
-729.952	-200.000	-0.029	-0.213
-728.937	-95.423	0.175	0.047
-727.923	403.972	0.228	-0.485
-726.908	104.630	-0.185	-0.220
-725.894	738.386	-0.068	0.185
-724.879	94.585	-0.098	0.112
-723.864	11.804	-0.026	-0.020
-722.850	680.260	0.173	-0.454
-721.835	579.312	0.062	-0.154
-720.821	-131.768	-0.300	0.040
-719.806	-88.672	-0.193	0.058
-718.791	17.368	0.229	0.183
-717.777	284.090	-0.072	-0.131
-716.762	-142.178	-0.090	-0.009
-715.748	83.256	0.066	0.072
-714.733	-166.447	-0.311	-0.013
-713.718	643.154	-0.070	0.180
-712.704	-46.452	-0.261	0.129
-711.689	151.062	-0.210	-0.288
-710.675	-156.296	0.295	0.019
-709.660	249.603	-0.153	-0.261
-708.645	-148.095	-0.323	0.027
-707.631	-191.847	0.243	0.002
-706.616	17.261	0.087	-0.069
-705.602	-51.583	-0.110	-0.052
-704.587	-200.000	-0.010	-0.255
-703.572	252.060	-0.074	-0.127
-702.558	6.868	-0.364	-0.273
-701.543	-3.425	-0.104	-0.073
-700.529	-200.000	0.021	-0.118
-699.514	800.000	0.118	-0.373
-698.499	-200.000	0.002	0.060
-697.485	218.544	0.102	0.164
-696.470	800.000	0.032	0.093
-695.456	416.969	0.102	-0.218
-694.441	346.512	0.080	-0.159
-693.426	235.707	-0.134	-0.222
-692.412	-110.044	-0.323	-0.068
-691.397	-200.000	0.039	0.225
-690.383	-147.189	0.146	0.013
-689.368	-79.014	-0.035	0.012
-688.354	237.153	-0.120	0.199
-687.339	699.176	-0.050	-0.132
-686.324	800.000	-0.030	0.102
-685.310	-171.901	0.254	0.008
-684.295	-89.380	0.209	0.062
-683.281	-134.231	-0.421	0.052
-682.266	-123.727	0.149	0.024
-681.251	-60.569	-0.259	-0.110
-680.237	800.000	-0.089	0.332
-679.222	-200.000	0.134	0.000
-678.208	-0.809	-0.089	0.064
-677.193	-168.782	-0.379	-0.014
-676.178	-89.817	-0.156	-0.046
-675.164	-51.194	-0.158	0.074
-674.149	-19.667	-0.200	-0.125
-673.135	-147.811	-0.302	0.025
-672.120	-18.494	0.154	0.096
-671.105	-150.588	-0.369	-0.028
-670.091	-59.300	0.154	-0.067
-669.076	6.571	0.156	-0.117
-668.062	71.306	-0.267	0.279
-667.047	800.000	-0.066	-0.236
-666.032	79.505	0.254	0.274
-665.018	-153.898	-0.397	-0.027
-664.003	-200.000	0.071	0.492
-662.989	610.892	-0.072	0.180
-661.974	2.518	-0.314	-0.228
-660.959	494.240	-0.103	-0.237
-659.945	-12.000	0.217	-0.143
-658.930	-114.303	0.080	-0.016
-657.916	-65.535	0.485	0.196
-656.901	800.000	-0.120	-0.383
-655.886	-200.000	-0.037	0.492
-654.872	22.626	0.081	0.067
-653.857	-108.223	-0.202	-0.044
-652.843	-21.272	-0.117	-0.072
-651.828	-66.928	-0.177	-0.070
-650.814	166.873	0.064	-0.091
-649.799	800.000	-0.052	0.154
-648.784	800.000	0.024	-0.090
-647.770	-200.000	0.006	-0.146
-646.755	-117.651	0.235	0.043
-645.741	51.431	-0.171	0.164
-644.726	-36.719	0.074	-0.040
-643.711	-200.000	-0.032	-0.143
-642.697	154.557	-0.060	0.083
-641.682	36.258	-0.111	0.098
-640.668	98.270	-0.213	0.247
-639.653	51.673	-0.218	0.209
-638.638	14.698	-0.270	0.212
-637.624	-5.223	0.295	-0.204
-636.609	-90.975	-0.206	0.059
-635.595	800.000	-0.019	0.069
-634.580	115.250	-0.163	-0.200
-633.565	-200.000	-0.056	-0.271
-632.551	-42.434	0.100	-0.051
-631.536	-200.000	-0.001	0.090
-630.522	722.997	-0.113	-0.302
-629.507	-56.092	-0.098	-0.044
-628.492	800.000	0.072	0.237
-627.478	-200.000	-0.024	-0.424
-626.463	109.431	0.276	-0.332
-625.449	92.020	0.125	0.142
-624.434	-31.912	-0.184	0.104
-623.419	-200.000	-0.009	-0.095
-622.405	-200.000	0.015	-0.308
-621.390	50.970	0.080	-0.076
-620.376	48.961	0.132	0.125
-619.361	-81.735	0.187	-0.062
-618.346	-156.492	0.301	-0.019
-617.332	-108.674	-0.289	0.062
-616.317	-200.000	-0.028	0.164
-615.303	800.000	0.048	0.153
-614.288	3.599	-0.140	-0.103
-613.273	361.549	-0.130	0.261
-612.259	-200.000	-0.047	0.308
-611.244	-200.000	0.004	-0.187
-610.230	-200.000	-0.049	-0.590
-609.215	276.047	0.099	-0.176
-608.201	-116.328	-0.129	-0.024
-607.186	-5.488	-0.482	0.332
-606.171	256.140	0.116	0.200
-605.157	-3.802	0.177	-0.123
-604.142	99.850	-0.151	-0.175
-603.128	62.520	0.118	-0.118
-602.113	-75.207	0.271	0.097
-601.098	-19.654	-0.144	-0.090
-600.084	-33.023	-0.232	-0.129
-599.069	75.511	-0.162	-0.171
-598.055	-200.000	0.023	0.331
-597.040	7.063	-0.179	-0.134
-596.025	-192.930	0.133	0.001
-595.011	12.874	0.077	-0.059
-593.996	224.571	-0.052	0.085
-592.982	-50.920	0.206	0.097
-591.967	-142.435	0.170	0.017
-590.952	113.465	-0.260	-0.317
-589.938	90.150	-0.282	0.316
-588.923	-108.759	0.252	0.054
-587.909	382.961	-0.209	0.431
-586.894	239.515	0.226	-0.378
-585.879	291.943	-0.092	0.168
-584.865	220.862	0.095	0.153
-583.850	3.982	0.116	-0.085
-582.836	800.000	-0.115	-0.452
-581.821	-22.366	0.202	0.123
-580.806	-128.487	0.160	0.023
-579.792	800.000	0.048	0.173
-578.777	-200.000	0.020	-0.347
-577.763	46.115	-0.183	-0.169
-576.748	184.732	0.230	-0.342
-575.733	-200.000	0.006	0.115
-574.719	800.000	0.121	0.393
-573.704	-90.621	0.158	-0.046
-572.690	-200.000	0.030	-0.274
-571.675	189.878	-0.030	0.045
-570.661	45.625	-0.237	0.219
-569.646	136.089	-0.197	0.257
-568.631	800.000	-0.088	-0.374
-567.617	-200.000	0.059	-0.274
-566.602	114.798	0.191	-0.234
-565.588	800.000	-0.046	0.187
-564.573	800.000	0.103	0.332
-563.558	-90.214	-0.088	-0.026
-562.544	-56.609	-0.400	0.178
-561.529	-7.940	0.180	-0.121
-560.515	282.764	0.195	-0.350
-559.500	12.300	0.094	-0.073
-558.485	21.409	0.203	-0.165
-557.471	12.809	-0.151	0.117
-556.456	-96.325	-0.070	-0.018
-555.442	112.806	-0.111	-0.135
-554.427	419.709	0.097	-0.207
-553.412	-200.000	0.041	-0.217
-552.398	-178.763	-0.119	-0.003
-551.383	71.589	0.129	0.134
-550.369	238.908	0.120	0.201
-549.354	80.934	-0.083	-0.090
-548.339	-65.071	0.200	0.081
-547.325	90.631	0.181	-0.203
-546.310	-72.805	-0.458	-0.169
-545.296	22.966	-0.252	-0.207
-544.281	-200.000	-0.017	-0.201
-543.266	-53.028	0.277	0.128
-542.252	-85.617	0.047	-0.015
-541.237	-200.000	-0.014	0.098
-540.223	274.201	-0.027	-0.049
-539.208	-128.417	-0.253	0.036
-538.193	-200.000	0.029	0.407
-537.179	-61.158	-0.203	-0.086
-536.164	495.311	0.081	-0.186
-535.150	-126.967	0.324	0.048
-534.135	-78.885	-0.348	0.118
-533.121	800.000	-0.081	-0.234
-532.106	800.000	0.058	0.194
-531.091	-53.736	-0.060	-0.028
-530.077	163.665	-0.141	-0.198
-529.062	-155.995	0.206	-0.013
-528.048	-200.000	0.022	0.198
-527.033	587.771	0.037	0.092
-526.018	800.000	0.079	-0.222
-525.004	237.754	-0.048	-0.080
-523.989	-54.794	0.243	0.110
-522.975	-200.000	0.010	0.136
-521.960	-106.239	0.113	0.025
-520.945	-71.124	0.080	-0.030
-519.931	-94.398	-0.177	-0.048
-518.916	-113.585	0.182	0.036
-517.902	-34.550	0.044	-0.024
-516.887	-200.000	-0.187	0.000
-515.872	241.510	0.175	0.292
-514.858	-100.984	0.151	0.037
-513.843	-77.415	-0.175	0.061
-512.829	-200.000	0.028	-0.326
-511.814	42.070	0.240	-0.218
-510.799	714.521	-0.087	0.232
-509.785	-109.941	0.226	0.047
-508.770	13.510	-0.258	0.200
-507.756	-130.467	0.420	0.057
-506.741	-82.416	-0.135	-0.044
-505.726	49.390	-0.148	-0.140
-504.712	60.214	0.196	0.193
-503.697	-200.000	0.005	-0.084
-502.683	-136.991	-0.231	-0.026
-501.668	-38.506	0.194	-0.103
-500.653	-117.231	-0.128	0.023
-499.639	-116.216	0.285	-0.053
-498.624	-200.000	0.078	-0.589
-497.610	51.571	0.011	0.010
-496.595	-200.000	0.017	0.370
-495.581	253.873	0.060	-0.103
-494.566	237.833	0.194	0.321
-493.551	-99.583	-0.109	0.027
-492.537	-25.051	-0.178	-0.106
-491.522	-9.038	-0.104	0.069
-490.508	-148.487	-0.122	0.010
-489.493	-51.202	-0.145	0.068
-488.478	-17.958	0.098	0.061
-487.464	-64.352	0.151	-0.062
-486.449	-77.002	-0.314	-0.110
-485.435	800.000	0.015	-0.061
-484.420	25.299	-0.170	-0.141
-483.405	-123.680	0.247	0.039
-482.391	196.263	0.052	-0.079
-481.376	273.796	0.082	0.145
-480.362	732.253	0.250	0.669
-479.347	800.000	-0.069	0.243
-478.332	-24.643	-0.211	0.125
-477.318	44.227	-0.153	-0.140
-476.303	800.000	-0.071	-0.301
-475.289	117.248	0.181	0.222
-474.274	-121.953	-0.306	0.050
-473.259	-10.139	0.090	-0.060
-472.245	-84.829	-0.190	-0.060
-471.230	203.345	0.145	0.223
-470.216	-200.000	0.055	-0.509
-469.201	80.361	0.069	0.074
-468.186	436.586	-0.090	0.196
-467.172	324.712	0.081	0.155
-466.157	46.458	0.295	-0.273
-465.143	-141.894	-0.248	0.025
-464.128	-200.000	0.229	0.000
-463.113	-200.000	-0.092	0.488
-462.099	-118.119	0.105	0.019
-461.084	23.310	-0.107	0.088
-460.070	-15.907	-0.152	0.097
-459.055	-24.828	-0.143	0.085
-458.040	-105.289	-0.241	-0.055
-457.026	692.187	-0.097	0.255
-456.011	681.078	-0.104	-0.269
-454.997	-200.000	-0.002	0.457
-453.982	-94.432	0.128	-0.035
-452.968	-126.138	-0.260	-0.039
-451.953	-200.000	0.001	0.024
-450.938	-138.060	0.323	-0.036
-449.924	-200.000	-0.036	-0.232
-448.909	800.000	-0.064	-0.276
-447.895	-120.479	0.065	-0.011
-446.880	-125.426	0.103	-0.016
-445.865	743.346	0.009	-0.024
-444.851	-81.655	-0.224	0.073
-443.836	65.572	-0.231	0.234
-442.822	5.083	-0.116	-0.085
-441.807	109.552	-0.034	-0.041
-440.792	-200.000	-0.026	-0.150
-439.778	-200.000	0.064	-0.302
-438.763	800.000	0.028	0.085
-437.749	418.276	0.062	-0.132
-436.734	0.597	-0.101	0.072
-435.719	31.202	-0.121	-0.104
-434.705	-36.362	-0.195	0.105
-433.690	-87.182	0.351	0.106
-432.676	-97.475	-0.105	0.027
-431.661	-182.530	-0.300	-0.005
-430.646	113.515	-0.197	-0.238
-429.632	-200.000	-0.010	0.080
-428.617	86.814	-0.117	0.129
-427.603	-129.166	-0.204	-0.028
-426.588	-97.076	-0.202	-0.053
-425.573	289.989	0.083	-0.151
-424.559	-200.000	0.012	0.307
-423.544	-166.401	0.131	-0.005
-422.530	67.595	0.154	0.157
-421.515	9.705	-0.129	-0.098
-420.500	-165.710	0.187	-0.008
-419.486	99.807	-0.207	-0.239
-418.471	-114.717	-0.297	0.057
-417.457	38.588	0.096	0.085
-416.442	474.262	-0.138	0.309
-415.428	800.000	0.091	-0.307
-414.413	800.000	-0.062	-0.231
-413.398	-109.460	-0.434	-0.091
-412.384	-52.553	0.117	-0.054
-411.369	-32.093	0.138	0.077
-410.355	533.178	0.084	-0.197
-409.340	-200.000	-0.014	0.155
-408.325	-42.330	-0.129	0.066
-407.311	22.605	0.212	0.173
-406.296	-87.466	-0.133	-0.040
-405.282	-110.679	0.178	0.037
-404.267	246.713	-0.061	-0.103
-403.252	-50.110	0.527	0.249
-402.238	-200.000	0.035	0.212
-401.223	186.376	-0.225	0.333
-400.209	-117.723	-0.608	-0.109
-399.194	87.677	-0.170	0.187
-398.179	-5.174	-0.312	-0.214
-397.165	469.540	-0.151	0.338
-396.150	120.651	-0.174	-0.215
-395.136	800.000	0.061	0.182
-394.121	-200.000	-0.020	-0.347
-393.106	-200.000	0.007	0.131
-392.092	-4.498	-0.107	0.074
-391.077	-92.245	-0.079	-0.022
-390.063	160.991	0.044	0.062
-389.048	-66.995	0.332	0.131
-388.033	20.793	-0.215	-0.173
-387.019	-59.609	0.213	-0.091
-386.004	11.724	-0.168	0.128
-384.990	800.000	0.034	0.128
-383.975	-83.458	0.443	-0.141
-382.960	-200.000	0.024	0.135
-381.946	-59.819	0.161	0.069
-380.931	83.697	-0.082	0.089
-379.917	-54.146	0.196	0.088
-378.902	-48.260	0.507	0.243
-377.888	-142.537	0.246	-0.024
-376.873	1.037	-0.104	-0.074
-375.858	6.767	0.097	-0.072
-374.844	774.884	0.085	0.230
-373.829	-81.435	-0.344	0.113
-372.815	104.769	-0.170	-0.199
-371.800	179.645	-0.095	0.139
-370.785	-105.040	0.124	0.028
-369.771	-200.000	-0.008	-0.299
-368.756	98.385	-0.155	-0.177
-367.742	-72.021	0.355	-0.131
-366.727	-64.716	-0.140	0.057
-365.712	196.648	0.117	0.178
-364.698	-200.000	0.026	-0.180
-363.683	504.058	0.135	-0.310
-362.669	800.000	-0.092	-0.331
-361.654	300.136	0.093	0.171
-360.639	90.629	0.104	0.115
-359.625	-200.000	0.032	0.368
-358.610	-200.000	-0.041	-0.232
-357.596	-200.000	0.031	-0.272
-356.581	339.851	0.046	0.089
-355.566	87.472	0.051	-0.056
-354.552	800.000	0.013	-0.056
-353.537	800.000	-0.143	-0.473
-352.523	-86.535	0.213	-0.065
-351.508	-56.368	0.398	-0.176
-350.493	65.948	0.015	-0.015
-349.479	-200.000	0.060	-0.275
-348.464	45.320	-0.025	-0.023
-347.450	440.410	0.103	0.224
-346.435	2.987	0.315	0.227
-345.420	-16.948	0.119	0.075
-344.406	447.712	0.137	-0.299
-343.391	790.784	-0.064	-0.174
-342.377	800.000	-0.045	-0.124
-341.362	-97.988	-0.183	0.047
-340.348	18.697	-0.109	0.087
-339.333	37.214	-0.140	0.123
-338.318	-200.000	-0.285	0.000
-337.304	80.677	-0.064	-0.069
-336.289	49.018	-0.115	-0.107
-335.275	-200.000	-0.036	-0.177
-334.260	126.594	-0.130	0.163
-333.245	-200.000	0.033	-0.151
-332.231	70.377	-0.160	0.164
-331.216	-200.000	0.026	0.366
-330.202	-66.772	-0.077	-0.030
-329.187	-39.777	-0.219	0.113
-328.172	-66.990	0.149	-0.059
-327.158	401.270	-0.090	-0.187
-326.143	70.087	-0.289	-0.296
-325.129	-37.618	-0.179	-0.095
-324.114	-66.278	-0.321	0.127
-323.099	-91.516	0.324	-0.092
-322.085	-108.597	-0.080	-0.017
-321.070	-103.903	0.236	-0.055
-320.056	-38.284	-0.232	0.122
-319.041	335.292	0.098	-0.188
-318.026	-200.000	0.011	0.220
-317.012	800.000	-0.045	-0.161
-315.997	-66.388	-0.178	0.070
-314.983	199.238	-0.112	-0.171
-313.968	800.000	0.068	-0.290
-312.953	102.646	-0.124	-0.144
-311.939	116.434	0.036	0.044
-310.924	-86.536	-0.193	0.059
-309.910	673.708	0.170	0.437
-308.895	214.921	0.167	0.263
-307.880	-200.000	-0.015	0.245
-306.866	800.000	0.123	0.444
-305.851	-88.388	-0.220	-0.065
-304.837	296.438	-0.076	-0.139
-303.822	129.828	0.191	-0.242
-302.807	-124.020	0.224	0.035
-301.793	-72.228	0.446	-0.164
-300.778	26.075	0.147	0.122
-299.764	-104.101	0.376	0.087
-298.749	282.316	0.156	0.277
-297.735	-200.000	-0.017	0.093
-296.720	-157.769	-0.291	-0.017
-295.705	-23.385	0.035	-0.021
-294.691	159.987	0.116	-0.160
-293.676	-200.000	-0.011	-0.113
-292.662	-144.658	-0.057	-0.005
-291.647	121.039	0.081	-0.100
-290.632	-73.749	0.364	0.131
-289.618	135.559	-0.218	0.281
-288.603	-200.000	-0.024	0.192
-287.589	-61.627	0.096	0.040
-286.574	97.330	0.022	0.025
-285.559	-62.907	0.153	-0.063
-284.545	-95.131	0.282	-0.075
-283.530	253.765	0.095	-0.161
-282.516	-200.000	0.007	0.241
-281.501	-200.000	0.075	-0.420
-280.486	-200.000	0.028	0.326
-279.472	800.000	-0.055	-0.186
-278.457	214.644	-0.158	-0.248
-277.443	-200.000	-0.076	-0.419
-276.428	-49.193	-0.129	-0.061
-275.413	-103.753	0.040	-0.009
-274.399	-89.890	-0.061	-0.018
-273.384	151.813	-0.116	0.156
-272.370	-129.978	-0.249	0.034
-271.355	-108.152	0.224	0.048
-270.340	-54.337	0.287	0.129
-269.326	800.000	-0.100	0.330
-268.311	-56.461	-0.216	-0.095
-267.297	-26.521	-0.133	-0.077
-266.282	31.044	0.109	-0.093
-265.267	-10.513	0.234	-0.153
-264.253	-78.618	0.093	0.032
-263.238	305.996	0.059	0.109
-262.224	711.992	0.073	-0.191
-261.209	-81.417	0.325	-0.106
-260.195	-13.243	0.205	-0.132
-259.180	294.261	-0.049	-0.089
-258.165	-88.516	-0.219	-0.065
-257.151	-200.000	0.010	-0.284
-256.136	44.699	-0.408	0.372
-255.122	273.210	-0.070	-0.122
-254.107	-144.242	-0.398	0.037
-253.092	34.813	-0.112	-0.097
-252.078	-200.000	-0.011	-0.149
-251.063	100.996	-0.098	-0.113
-250.049	800.000	-0.050	0.171
-249.034	1.355	0.319	-0.227
-248.019	-81.685	0.406	0.132
-247.005	181.777	0.253	0.368
-245.990	-200.000	-0.049	0.258
-244.976	-200.000	-0.017	-0.116
-243.961	-7.332	-0.113	0.076
-242.946	-200.000	0.021	0.201
-241.932	-18.385	0.034	-0.021
-240.917	173.472	0.074	-0.106
-239.903	227.366	-0.215	-0.346
-238.888	-152.987	0.225	-0.016
-237.873	24.481	-0.169	-0.138
-236.859	-33.437	0.223	-0.122
-235.844	694.460	-0.055	0.143
-234.830	-40.585	0.060	-0.031
-233.815	71.200	0.227	0.233
-232.800	-46.270	-0.077	-0.038
-231.786	-60.146	-0.174	0.073
-230.771	187.275	-0.098	-0.144
-229.757	800.000	0.069	0.228
-228.742	-12.477	0.101	0.066
-227.727	-200.000	-0.007	0.282
-226.713	314.748	-0.207	0.385
-225.698	-200.000	0.020	0.118
-224.684	-52.521	0.059	0.027
-223.669	800.000	0.066	-0.188
-222.655	-112.201	0.209	-0.042
-221.640	-84.129	0.140	0.044
-220.625	-38.057	-0.143	-0.075
-219.611	-200.000	0.044	-0.379
-218.596	-151.604	-0.305	-0.022
-217.582	290.549	-0.098	-0.175
-216.567	-146.272	0.258	-0.022
-215.552	161.055	0.096	-0.133
-214.538	-44.218	0.333	-0.165
-213.523	240.730	-0.085	0.141
-212.509	-163.999	-0.035	-0.002
-211.494	-13.200	-0.205	-0.132
-210.479	-69.579	-0.292	0.111
-209.465	-200.000	0.052	0.371
-208.450	800.000	0.088	0.275
-207.436	-68.883	0.077	0.029
-206.421	-37.204	-0.396	-0.209
-205.406	575.031	0.007	-0.017
-204.392	213.038	0.069	-0.107
-203.377	800.000	-0.049	0.193
-202.363	91.435	-0.063	0.069
-201.348	-69.030	0.278	-0.106
-200.333	-135.426	0.027	0.003
-199.319	-200.000	-0.052	0.308
-198.304	96.463	0.100	0.113
-197.290	-45.487	0.270	-0.132
-196.275	-147.045	0.279	0.024
-195.260	160.976	-0.147	0.203
-194.246	-37.371	0.049	0.026
-193.231	606.469	-0.027	-0.067
-192.217	-68.740	-0.128	-0.049
-191.202	332.403	-0.164	-0.313
-190.187	-146.039	-0.236	-0.021
-189.173	-49.183	0.233	0.110
-188.158	-103.278	0.350	-0.082
-187.144	-200.000	0.010	-0.145
-186.129	-50.607	0.264	-0.123
-185.114	-29.121	0.323	0.183
-184.100	800.000	0.042	-0.158
-183.085	25.809	0.177	-0.146
-182.071	800.000	-0.077	0.259
-181.056	-139.449	0.074	0.008
-180.042	-11.189	-0.151	-0.098
-179.027	59.579	-0.131	-0.127
-178.012	800.000	-0.071	0.278
-176.998	56.381	-0.102	0.098
-175.983	-135.419	0.192	0.023
-174.969	24.618	0.151	0.123
-173.954	-156.298	-0.300	-0.019
-172.939	-87.547	0.099	0.030
-171.925	-113.621	0.362	0.070
-170.910	17.886	-0.161	0.127
-169.896	-12.544	-0.315	0.203
-168.881	18.725	-0.084	-0.067
-167.866	-76.033	-0.102	-0.036
-166.852	-155.222	-0.008	-0.000
-165.837	447.934	0.104	0.225
-164.823	800.000	-0.068	-0.229
-163.808	-13.576	-0.216	-0.138
-162.793	-91.005	-0.188	0.053
-161.779	558.120	-0.009	-0.022
-160.764	800.000	0.089	0.294
-159.750	96.544	-0.269	0.303
-158.735	-161.230	-0.091	-0.005
-157.720	261.819	-0.047	-0.080
-156.706	97.760	0.156	0.177
-155.691	-70.588	-0.207	0.077
-154.677	800.000	0.012	0.044
-153.662	-95.630	0.323	-0.085
-152.647	-200.000	0.067	0.363
-151.633	36.593	0.153	-0.133
-150.618	-165.468	0.215	-0.009
-149.604	385.701	0.130	-0.263
-148.589	184.227	-0.121	0.177
-147.574	-168.703	0.315	0.012
-146.560	-43.845	-0.142	0.070
-145.545	173.159	-0.000	0.001
-144.531	-157.158	0.400	-0.024
-143.516	800.000	0.091	0.311
-142.502	-121.225	-0.643	0.106
-141.487	-200.000	0.003	-0.236
-140.472	281.826	-0.060	-0.107
-139.458	432.049	-0.065	0.138
-138.443	-26.862	-0.301	0.174
-137.429	-91.741	0.226	-0.063
-136.414	353.659	0.043	0.085
-135.399	319.343	0.143	0.268
-134.385	-123.469	0.146	0.023
-133.370	89.396	0.232	-0.255
-132.356	-200.000	0.004	0.125
-131.341	-80.548	0.301	0.099
-130.326	-200.000	-0.007	-0.108
-129.312	118.913	0.203	-0.247
-128.297	-200.000	0.021	-0.379
-127.283	-200.000	0.066	-0.286
-126.268	-85.386	-0.075	-0.023
-125.253	-145.853	0.246	0.022
-124.239	800.000	0.043	0.184
-123.224	-126.887	0.173	-0.025
-122.210	-5.342	-0.017	0.012
-121.195	800.000	0.131	-0.413
-120.180	274.914	-0.171	-0.298
-119.166	-63.467	0.084	0.034
-118.151	-200.000	0.232	0.000
-117.137	459.269	-0.048	-0.106
-116.122	-200.000	-0.009	-0.191
-115.107	155.150	0.144	0.195
-114.093	329.703	-0.179	0.339
-113.078	59.313	-0.121	0.118
-112.064	289.345	-0.073	-0.130
-111.049	-200.000	0.035	-0.177
-110.034	166.851	0.141	0.196
-109.020	87.727	0.214	0.233
-108.005	126.659	0.103	0.129
-106.991	-16.710	-0.182	0.113
-105.976	-200.000	-0.003	-0.257
-104.962	-83.748	0.068	-0.021
-103.947	-200.000	0.044	0.218
-102.932	800.000	-0.103	-0.319
-101.918	-25.252	-0.323	0.188
-100.903	800.000	0.095	-0.306
-99.889	-123.704	-0.118	0.018
-98.874	207.925	0.038	0.059
-97.859	632.494	0.044	-0.110
-96.845	35.929	0.173	-0.149
-95.830	67.705	-0.241	-0.242
-94.816	-96.474	0.096	0.025
-93.801	-200.000	-0.107	0.495
-92.786	-200.000	0.010	-0.073
-91.772	614.139	0.126	-0.310
-90.757	-111.853	0.402	0.080
-89.743	-107.482	-0.116	0.025
-88.728	795.571	-0.072	-0.196
-87.713	-112.321	-0.211	0.042
-86.699	-83.393	-0.276	0.087
-85.684	591.933	-0.122	0.297
-84.670	35.814	0.352	-0.305
-83.655	-200.000	0.006	0.147
-82.640	-200.000	0.026	-0.251
-81.626	189.035	-0.148	0.218
-80.611	8.608	0.337	0.249
-79.597	-200.000	0.034	0.462
-78.582	275.853	0.050	0.087
-77.567	44.803	0.116	0.105
-76.553	800.000	-0.033	-0.101
-75.538	-103.291	0.282	0.065
-74.524	-78.688	-0.468	0.157
-73.509	-93.436	-0.322	0.088
-72.494	-60.817	0.261	-0.108
-71.480	-71.258	0.214	0.079
-70.465	-53.505	0.173	-0.078
-69.451	-108.986	-0.418	-0.088
-68.436	428.767	-0.112	-0.238
-67.422	652.504	-0.120	-0.303
-66.407	426.941	-0.103	-0.219
-65.392	-86.833	-0.271	-0.081
-64.378	125.056	-0.092	0.114
-63.363	414.535	0.186	0.388
-62.349	-49.024	-0.276	-0.130
-61.334	96.821	-0.675	-0.760
-60.319	621.955	0.189	0.466
-59.305	186.143	-0.554	-0.810
-58.290	358.746	0.701	1.376
-57.276	330.548	0.852	1.612
-56.261	-200.000	103.920	577.203
-55.246	505.594	1474.278	3354.992
-54.232	178.335	2678.990	3841.265
-53.217	111.405	2172.559	2572.653
-52.203	41.299	1609.011	1428.930
-51.188	32.897	1343.453	1142.462
-50.173	29.825	1302.120	1089.216
-49.159	54.088	1354.420	1279.201
-48.144	54.292	1370.581	1295.636
-47.130	33.146	1326.191	1129.094
-46.115	29.666	1308.404	1093.357
-45.100	29.474	1303.545	1088.121
-44.086	29.418	1300.898	1085.540
-43.071	29.328	1298.788	1083.207
-42.057	29.297	1296.230	1080.851
-41.042	29.414	1294.433	1079.992
-40.027	29.425	1293.258	1079.033
-39.013	29.288	1291.779	1076.958
-37.998	29.502	1289.628	1076.370
-36.984	29.374	1288.193	1074.385
-35.969	29.451	1285.805	1072.797
-34.954	29.443	1284.534	1071.647
-33.940	29.540	1283.136	1071.001
-32.925	29.548	1281.514	1069.651
-31.911	29.547	1280.228	1068.528
-30.896	29.573	1278.748	1067.399
-29.881	29.626	1277.485	1066.612
-28.867	29.751	1275.582	1065.699
-27.852	29.584	1274.021	1063.394
-26.838	29.651	1273.208	1063.059
-25.823	29.663	1271.496	1061.657
-24.809	29.588	1270.493	1060.345
-23.794	29.553	1269.159	1058.989
-22.779	29.620	1268.211	1058.539
-21.765	29.629	1267.094	1057.618
-20.750	29.691	1265.290	1056.426
-19.736	29.469	1264.122	1054.137
-18.721	29.422	1263.190	1053.051
-17.706	29.468	1261.910	1052.205
-16.692	29.480	1260.763	1051.277
-15.677	29.386	1260.048	1050.103
-14.663	29.378	1258.455	1048.685
-13.648	29.459	1257.293	1048.138
-12.633	29.378	1256.444	1046.928
-11.619	29.368	1255.873	1046.354
-10.604	29.396	1254.965	1045.716
-9.590	29.441	1253.526	1044.731
-8.575	29.346	1252.959	1043.676
-7.560	29.288	1252.262	1042.724
-6.546	29.411	1251.106	1042.420
-5.531	29.384	1250.230	1041.497
-4.517	29.460	1249.457	1041.239
-3.502	29.579	1247.884	1040.557
-2.487	29.516	1247.573	1039.898
-1.473	29.443	1243.571	1036.112
-0.458	28.307	1228.467	1017.182
0.556	26.602	1210.723	979.033
1.571	22.820	1215.853	962.514
2.586	21.716	1229.991	967.527
3.600	20.818	1217.731	952.890
4.615	15.875	1146.209	871.322
5.629	8.294	1073.532	779.127
6.644	4.851	1054.787	748.920
7.659	4.322	1052.521	744.705
8.673	4.280	1050.757	743.192
9.688	4.189	1049.945	742.117
10.702	4.699	1048.312	743.331
11.717	9.679	1054.910	771.839
12.731	17.477	1065.848	817.361
13.746	21.503	1070.238	840.026
14.761	22.000	1070.774	842.758
15.775	21.139	1069.198	837.311
16.790	20.272	1066.800	831.209
17.804	19.620	1065.409	826.933
18.819	19.432	1064.307	825.104
19.834	19.372	1063.845	824.387
20.848	19.201	1063.203	822.997
21.863	18.960	1062.574	821.287
22.877	18.816	1061.901	820.010
23.892	18.759	1061.197	819.118
24.907	18.690	1060.164	817.919
25.921	18.815	1058.838	817.419
26.936	18.761	1057.840	816.323
27.950	18.849	1056.639	815.740
28.965	18.997	1054.960	815.071
29.980	19.032	1053.825	814.292
30.994	19.090	1053.048	813.890
32.009	19.267	1051.843	813.722
33.023	19.058	1050.598	811.702
34.038	19.028	1049.557	810.686
35.053	18.903	1048.613	809.297
36.067	18.840	1048.178	808.593
37.082	18.880	1047.142	807.912
38.096	19.162	1045.888	808.193
39.111	19.110	1045.709	807.739
40.126	18.830	1044.532	805.448
41.140	18.554	1042.955	802.870
42.155	18.478	1042.244	801.897
43.169	18.290	1040.907	799.916
44.184	18.280	1039.851	798.987
45.199	18.367	1039.294	798.896
46.213	18.581	1038.108	798.909
47.228	18.830	1037.524	799.548
48.242	19.124	1036.073	799.725
49.257	18.836	1035.624	797.969
50.271	18.908	1034.698	797.520
51.286	19.041	1033.832	797.399
52.301	19.076	1032.580	796.527
53.315	18.741	1031.890	794.374
54.330	18.594	1031.058	792.980
55.344	18.609	1029.988	792.160
56.359	18.673	1029.052	791.663
57.374	18.570	1027.916	790.243
58.388	18.449	1026.825	788.780
59.403	18.409	1026.184	788.033
60.417	18.420	1025.415	787.423
61.432	18.394	1024.615	786.618
62.447	18.259	1023.846	785.343
63.461	18.164	1022.878	784.092
64.476	18.184	1022.160	783.565
65.490	18.148	1021.006	782.449
66.505	18.283	1020.381	782.515
67.520	18.307	1019.695	782.032
68.534	18.158	1019.645	781.244
69.549	18.223	1018.804	780.823
70.563	18.135	1017.757	779.550
71.578	18.025	1016.736	778.202
72.593	18.009	1016.199	777.649
73.607	17.984	1015.315	776.786
74.622	18.028	1015.228	776.854
75.636	18.086	1014.288	776.330
76.651	18.056	1013.788	775.742
77.666	18.021	1013.051	774.950
78.680	18.276	1012.024	775.250
79.695	18.173	1012.007	774.702
80.709	18.324	1011.299	774.777
81.724	18.591	1010.250	775.112
82.739	18.593	1009.827	774.724
83.753	18.873	1008.954	775.249
84.768	19.125	1008.599	776.044
85.782	19.235	1007.842	775.889
86.797	19.304	1006.557	775.142
87.812	18.949	1006.236	773.229
88.826	18.959	1005.076	772.318
89.841	19.179	1004.151	772.525
90.855	19.103	1003.679	771.753
91.870	19.158	1002.605	771.103
92.884	19.170	1002.094	770.697
93.899	19.166	1000.707	769.543
94.914	19.201	1000.166	769.214
95.928	19.193	999.576	768.656
96.943	19.054	998.010	766.768
97.957	19.016	997.248	765.945
98.972	19.110	996.190	765.484
99.987	19.037	995.507	764.564
101.001	19.137	994.351	764.051
102.016	18.989	993.811	762.912
103.030	19.151	992.874	762.845
104.045	19.113	992.121	762.029
105.060	18.894	991.245	760.320
106.074	18.548	990.531	758.176
107.089	18.445	989.053	756.524
108.103	18.324	988.107	755.199
109.118	18.267	987.038	754.064
110.133	18.209	986.472	753.309
111.147	18.281	985.296	752.661
112.162	18.420	984.345	752.481
113.176	18.479	984.223	752.577
114.191	18.542	983.582	752.299
115.206	18.512	982.550	751.313
116.220	18.445	981.656	750.267
117.235	18.344	980.921	749.199
118.249	18.451	979.763	748.716
119.264	18.408	978.857	747.767
120.279	18.210	978.961	746.916
121.293	18.140	977.653	745.550
122.308	18.120	976.590	744.585
123.322	18.017	975.772	743.448
124.337	18.065	974.212	742.400
125.352	18.061	973.662	741.900
126.366	18.114	972.102	740.876
127.381	18.065	971.537	740.166
128.395	18.133	970.444	739.563
129.410	18.101	969.626	738.733
130.424	18.301	969.240	739.239
131.439	18.300	968.682	738.743
132.454	18.371	967.535	738.110
133.468	18.558	966.573	738.114
134.483	18.547	966.250	737.755
135.497	18.501	965.213	736.702
136.512	18.520	964.352	736.061
137.527	18.628	963.486	735.798
138.541	18.474	963.091	734.772
139.556	18.631	962.547	734.963
140.570	18.798	962.177	735.332
141.585	18.941	961.062	735.025
142.600	19.125	960.162	735.057
143.614	19.021	959.967	734.399
144.629	19.120	958.961	733.987
145.643	18.996	957.991	732.652
146.658	18.870	956.740	731.095
147.673	18.802	955.226	729.582
148.687	18.635	954.794	728.481
149.702	18.617	953.682	727.491
150.716	18.468	953.256	726.469
151.731	18.615	952.103	726.150
152.746	18.463	951.825	725.230
153.760	18.573	951.573	725.439
154.775	18.820	950.482	725.588
155.789	18.799	949.833	724.939
156.804	18.845	949.525	724.831
157.819	18.959	948.639	724.574
158.833	19.143	948.013	724.806
159.848	19.186	947.186	724.291
160.862	19.005	945.646	722.290
161.877	18.791	944.673	720.584
162.892	18.721	943.584	719.396
163.906	18.778	942.564	718.792
164.921	18.581	942.003	717.475
165.935	18.653	941.057	716.994
166.950	18.788	940.498	717.070
167.964	18.678	939.730	715.959
168.979	18.606	938.497	714.660
169.994	18.637	938.172	714.476
171.008	18.862	937.324	714.703
172.023	18.975	936.389	714.398
173.037	19.035	936.167	714.413
174.052	19.081	935.017	713.662
175.067	18.675	934.385	711.434
176.081	18.523	933.753	710.262
177.096	18.551	933.038	709.771
178.110	18.570	933.078	709.816
179.125	18.732	931.944	709.560
180.140	18.848	931.620	709.730
181.154	18.724	931.520	709.080
182.169	19.129	930.923	710.234
183.183	19.117	930.250	709.609
184.198	19.113	929.380	708.864
185.213	19.063	929.013	708.315
186.227	19.057	928.634	707.941
187.242	19.197	927.658	707.709
188.256	19.418	926.995	708.046
189.271	19.382	926.535	707.487
190.286	18.944	924.992	704.450
191.300	18.451	923.942	701.571
192.315	18.452	923.282	701.013
193.329	18.482	923.169	700.988
194.344	18.617	922.649	701.082
195.359	18.859	922.003	701.517
196.373	18.996	921.794	701.853
197.388	19.154	921.327	702.080
198.402	19.273	920.978	702.239
199.417	19.294	920.612	701.982
200.432	19.487	920.213	702.402
201.446	19.629	919.564	702.420
202.461	19.640	919.084	702.037
203.475	19.523	918.398	700.976
204.490	19.389	917.308	699.539
205.504	19.250	916.415	698.233
206.519	19.112	915.673	697.046
207.534	19.229	914.702	696.720
208.548	19.086	914.335	695.801
209.563	19.266	913.690	695.973
210.577	19.392	912.790	695.737
211.592	19.454	912.816	695.944
212.607	19.721	911.798	696.180
213.621	19.582	910.912	694.884
214.636	19.484	910.358	694.006
215.650	19.484	909.699	693.441
216.665	19.600	909.109	693.398
217.680	19.696	908.581	693.318
218.694	19.768	907.863	692.999
219.709	19.690	907.132	692.065
220.723	19.689	906.432	691.467
221.738	19.583	905.762	690.470
222.753	19.561	904.880	689.650
223.767	19.626	904.961	689.911
224.782	19.739	904.448	689.907
225.796	19.791	903.976	689.695
226.811	19.894	902.765	689.122
227.826	19.649	902.251	687.691
228.840	19.524	901.540	686.591
229.855	19.469	900.862	685.797
230.869	19.456	900.231	685.203
231.884	19.410	899.013	684.033
232.899	19.223	898.731	683.017
233.913	19.267	897.859	682.468
234.928	19.247	897.093	681.747
235.942	19.279	896.623	681.453
236.957	19.224	896.022	680.722
237.972	19.350	895.464	680.733
238.986	19.336	894.857	680.157
240.001	19.280	894.171	679.353
241.015	19.342	893.806	679.260
242.030	19.536	892.959	679.323
243.045	19.426	892.925	678.803
244.059	19.372	892.364	678.104
245.074	19.549	891.836	678.336
246.088	19.798	891.058	678.663
247.103	19.985	890.475	678.893
248.117	20.002	890.046	678.572
249.132	20.358	889.904	679.797
250.147	20.469	889.588	679.932
251.161	20.489	888.963	679.472
252.176	20.530	888.363	679.113
253.190	20.599	887.509	678.668
254.205	20.657	887.114	678.531
255.220	20.406	886.331	676.897
256.234	20.461	885.743	676.600
257.249	20.464	884.969	675.963
258.263	20.401	884.193	675.063
259.278	20.452	883.623	674.769
260.293	20.447	883.544	674.629
261.307	20.654	882.456	674.542
262.322	20.723	881.532	674.042
263.336	20.669	881.233	673.544
264.351	20.595	880.126	672.354
265.366	20.690	880.082	672.628
266.380	20.705	879.079	671.860
267.395	20.387	878.745	670.317
268.409	20.296	877.797	669.184
269.424	20.392	876.977	668.868
270.439	20.384	876.255	668.228
271.453	20.334	875.132	667.121
272.468	20.286	874.803	666.627
273.482	20.373	874.399	666.593
274.497	20.298	873.788	665.780
275.512	20.353	873.059	665.378
276.526	20.260	873.269	665.122
277.541	20.365	872.538	664.907
278.555	20.639	871.988	665.480
279.570	20.820	871.374	665.643
280.585	20.754	870.516	664.675
281.599	20.573	869.822	663.399
282.614	20.545	869.117	662.696
283.628	20.401	868.457	661.587
284.643	20.485	867.457	661.083
285.657	20.517	867.143	660.908
286.672	20.535	866.701	660.579
287.687	20.394	866.140	659.557
288.701	20.520	865.494	659.488
289.716	20.484	865.230	659.090
290.730	20.398	864.779	658.364
291.745	20.614	863.667	658.278
292.760	20.766	862.962	658.254
293.774	20.867	862.868	658.507
294.789	20.802	861.853	657.429
295.803	20.579	861.107	655.961
296.818	20.437	860.484	654.891
297.833	20.589	859.537	654.686
298.847	20.549	859.259	654.265
299.862	20.653	858.765	654.223
300.876	20.700	858.613	654.227
301.891	20.934	857.733	654.374
302.906	21.052	857.495	654.578
303.920	21.109	857.382	654.649
304.935	21.221	856.529	654.360
305.949	20.992	855.373	652.560
306.964	21.037	854.844	652.269
307.979	20.858	854.483	651.268
308.993	21.005	854.157	651.510
310.008	21.058	853.350	651.035
311.022	21.019	852.678	650.319
312.037	20.881	851.860	649.122
313.052	20.564	851.538	647.639
314.066	20.504	850.977	646.931
315.081	20.502	850.315	646.364
316.095	20.582	849.607	646.065
317.110	20.680	849.045	645.943
318.125	20.503	848.893	645.116
319.139	20.534	848.311	644.730
320.154	20.631	847.685	644.558
321.168	20.594	847.178	643.980
322.183	20.625	846.783	643.736
323.197	20.636	846.468	643.479
324.212	20.804	845.439	643.262
325.227	20.881	845.033	643.178
326.241	20.773	844.423	642.259
327.256	20.689	844.010	641.581
328.270	20.670	843.225	640.857
329.285	20.766	842.447	640.561
330.300	20.644	842.216	639.881
331.314	20.828	841.756	640.150
332.329	20.959	841.222	640.168
333.343	20.981	841.074	640.079
334.358	21.018	840.639	639.827
335.373	21.109	840.044	639.651
336.387	21.043	839.851	639.206
337.402	21.151	839.446	639.237
338.416	21.362	839.241	639.798
339.431	21.488	838.859	639.911
340.446	21.563	838.552	639.894
341.460	21.446	838.610	639.453
342.475	21.683	837.795	639.642
343.489	21.644	837.761	639.417
344.504	21.766	837.168	639.353
345.519	21.796	836.612	638.980
346.533	21.724	835.849	638.080
347.548	21.498	835.047	636.589
348.562	21.246	834.669	635.328
349.577	21.147	834.183	634.542
350.592	20.909	833.409	633.032
351.606	21.060	832.216	632.616
352.621	21.141	831.789	632.531
353.635	21.082	831.315	631.900
354.650	21.247	830.679	631.960
355.665	21.266	830.210	631.613
356.679	21.425	829.676	631.725
357.694	21.325	828.961	630.765
358.708	21.372	828.278	630.360
359.723	21.331	827.541	629.596
360.738	21.474	827.076	629.700
361.752	21.466	826.436	629.128
362.767	21.646	826.374	629.674
363.781	21.764	825.817	629.617
364.796	21.861	825.807	629.900
365.810	21.911	825.349	629.675
366.825	21.922	824.792	629.234
367.840	21.890	824.256	628.654
368.854	21.737	823.587	627.542
369.869	21.683	822.958	626.813
370.883	21.697	822.544	626.492
371.898	21.951	822.482	627.296
372.913	21.986	822.119	627.089
373.927	21.773	821.527	625.824
374.942	21.791	821.355	625.702
375.956	21.934	820.925	625.828
376.971	22.045	820.451	625.808
377.986	22.252	819.946	626.102
379.000	22.234	819.265	625.465
380.015	22.235	818.679	624.964
381.029	22.211	818.230	624.483
382.044	22.191	817.521	623.814
383.059	22.228	816.775	623.322
384.073	22.099	816.103	622.296
385.088	21.722	815.906	620.756
386.102	21.775	815.052	620.238
387.117	21.761	814.478	619.699
388.132	21.762	813.845	619.163
389.146	21.944	813.613	619.576
390.161	22.015	813.397	619.608
391.175	21.981	812.678	618.884
392.190	21.896	812.258	618.211
393.205	21.800	811.535	617.267
394.219	21.795	811.067	616.838
395.234	21.681	810.604	616.031
396.248	21.535	810.038	615.035
397.263	21.477	809.824	614.612
398.278	21.533	809.403	614.437
399.292	21.465	808.603	613.536
400.307	21.592	808.351	613.735
401.321	21.621	807.916	613.453
402.336	21.755	807.478	613.534
403.350	22.083	807.140	614.371
404.365	22.012	806.742	613.766
405.380	22.380	805.972	614.411
406.394	22.361	805.747	614.117
407.409	22.395	805.432	613.943
408.423	22.470	805.278	614.033
409.438	22.568	804.867	614.007
410.453	22.547	804.434	613.549
411.467	22.415	804.406	613.012
412.482	22.624	803.860	613.270
413.496	22.679	803.541	613.164
414.511	22.702	803.122	612.869
415.526	22.631	802.324	611.959
416.540	22.501	801.857	611.098
417.555	22.559	801.491	610.964
418.569	22.406	801.351	610.274
419.584	22.571	800.082	609.827
420.599	22.631	799.929	609.863
421.613	163.697	1369.688	1794.904
422.628	142.230	1452.694	1794.983
