DTS Sentinel unit serial number:	SN413079Multiplexer serial number:	ORYXHardware model number:	OX4-SRSoftware version number:	ORYX F/W v4.00 Oryx Data Collector v3.7.2.0data status	okinstallation	princeton_trtdifferential loss correction	single-endedforward channel	channel 1reverse channel	N/Adate	2019/09/16time	21:30:35forward acquisition time	60.00reverse acquisition time	0.00gamma	496.2192k internal	0.2325k external	0.2325temperature offset calibration	0.9954default loss term (dB/km)	0.3790temperature slope calibration	1.0000multiplexer offset coefficient	1.0000multiplexer slope coefficient	1.0000fibre end	0.00T internal ref (°C)	31.48T ext. ref 1 (°C)	0.05T ext. ref 2 (°C)	25.54length (m)	temperature (°C)	Stokes	anti-Stokes-747.200	800.000	-0.019	-0.078
-746.185	32.905	-0.289	0.252
-745.171	-116.753	0.164	0.030
-744.156	55.129	0.081	0.079
-743.142	220.289	0.021	-0.034
-742.127	-150.614	-0.061	0.005
-741.112	-200.000	0.043	-0.475
-740.098	109.596	-0.066	-0.079
-739.083	208.169	-0.187	-0.295
-738.069	41.206	0.247	-0.225
-737.054	-127.933	-0.228	-0.033
-736.039	-45.407	-0.342	-0.171
-735.025	-66.556	-0.131	0.052
-734.010	-200.000	-0.085	-0.438
-732.996	538.094	0.054	0.128
-731.981	106.571	-0.284	-0.340
-730.966	-128.505	-0.618	-0.088
-729.952	-200.000	0.071	0.460
-728.937	-200.000	-0.011	0.132
-727.923	292.936	0.134	-0.246
-726.908	31.884	-0.294	-0.256
-725.894	-200.000	-0.014	0.084
-724.879	-200.000	-0.019	-0.153
-723.864	-200.000	0.041	-0.258
-722.850	256.680	0.105	-0.182
-721.835	-143.557	-0.169	-0.016
-720.821	-200.000	0.063	-0.345
-719.806	-200.000	-0.018	-0.216
-718.791	-200.000	-0.032	0.248
-717.777	-14.760	-0.121	-0.078
-716.762	-69.713	-0.168	0.065
-715.748	-55.637	0.163	-0.074
-714.733	-200.000	-0.007	-0.121
-713.718	-200.000	0.012	-0.426
-712.704	221.882	0.050	0.082
-711.689	-200.000	0.003	-0.101
-710.675	-79.285	-0.073	-0.025
-709.660	31.349	0.199	-0.173
-708.645	-200.000	0.034	-0.377
-707.631	-178.142	-0.303	0.007
-706.616	24.818	0.191	0.159
-705.602	-20.928	0.448	-0.276
-704.587	49.189	0.113	0.107
-703.572	-140.775	0.242	0.025
-702.558	-41.110	-0.126	-0.065
-701.543	800.000	-0.072	0.212
-700.529	626.165	-0.078	-0.198
-699.514	20.616	0.117	-0.095
-698.499	-137.194	-0.369	-0.042
-697.485	-110.538	0.092	-0.019
-696.470	800.000	-0.050	-0.141
-695.456	137.760	0.102	-0.135
-694.441	800.000	0.122	0.456
-693.426	-200.000	-0.070	0.357
-692.412	-66.965	0.401	0.159
-691.397	-200.000	0.014	-0.081
-690.383	-68.013	0.143	0.056
-689.368	243.014	0.140	-0.236
-688.354	-73.467	0.150	-0.055
-687.339	-74.938	0.185	-0.067
-686.324	289.881	-0.151	0.276
-685.310	-8.963	-0.254	0.172
-684.295	181.428	0.195	-0.289
-683.281	271.641	0.060	-0.106
-682.266	-200.000	-0.023	-0.107
-681.251	800.000	-0.007	-0.024
-680.237	5.917	-0.071	-0.053
-679.222	-52.729	0.322	0.149
-678.208	-27.223	0.155	-0.091
-677.193	701.888	-0.068	-0.179
-676.178	-105.607	0.248	-0.057
-675.164	386.170	-0.036	-0.075
-674.149	-82.036	0.233	-0.077
-673.135	10.643	0.090	-0.069
-672.120	-200.000	-0.050	-0.237
-671.105	800.000	-0.034	-0.142
-670.091	-6.786	-0.066	0.045
-669.076	-200.000	0.034	-0.163
-668.062	-124.057	-0.134	0.021
-667.047	75.981	-0.178	0.189
-666.032	-126.111	0.085	-0.013
-665.018	-200.000	0.002	0.056
-664.003	127.717	-0.063	0.081
-662.989	169.597	0.085	0.122
-661.974	-68.779	-0.283	0.110
-660.959	245.556	0.162	-0.274
-659.945	-72.135	0.129	-0.048
-658.930	-46.451	-0.201	-0.099
-657.916	20.705	0.059	0.048
-656.901	46.637	-0.081	-0.076
-655.886	-40.285	-0.203	-0.106
-654.872	-100.672	0.304	0.076
-653.857	705.726	0.113	-0.300
-652.843	-200.000	0.022	0.107
-651.828	617.340	0.044	0.112
-650.814	88.083	0.227	0.253
-649.799	4.300	0.153	-0.112
-648.784	-87.130	0.278	-0.085
-647.770	62.581	0.213	0.214
-646.755	800.000	0.104	-0.438
-645.741	-137.658	0.210	-0.024
-644.726	-175.552	0.280	-0.008
-643.711	-2.892	-0.206	0.144
-642.697	-0.598	-0.147	-0.105
-641.682	104.964	-0.155	-0.183
-640.668	-58.260	-0.140	0.061
-639.653	-128.541	-0.107	0.015
-638.638	141.065	0.160	-0.213
-637.624	-200.000	-0.016	-0.315
-636.609	83.434	0.179	-0.196
-635.595	-42.202	-0.202	0.104
-634.580	300.807	0.137	-0.253
-633.565	270.141	-0.028	0.049
-632.551	72.583	-0.138	-0.145
-631.536	-42.653	0.145	-0.074
-630.522	-37.516	0.143	0.077
-629.507	239.520	0.175	-0.292
-628.492	126.662	-0.124	-0.158
-627.478	-159.517	0.349	0.019
-626.463	24.885	-0.177	0.147
-625.449	-76.581	-0.221	-0.078
-624.434	-28.076	0.165	0.096
-623.419	82.051	-0.261	-0.284
-622.405	97.447	0.126	-0.145
-621.390	-200.000	0.004	0.106
-620.376	4.536	-0.125	0.092
-619.361	-79.903	0.108	0.036
-618.346	357.172	0.007	-0.014
-617.332	-129.377	-0.177	0.025
-616.317	-70.274	-0.216	-0.082
-615.303	516.062	0.076	0.177
-614.288	-200.000	0.007	-0.184
-613.273	-200.000	-0.080	-0.414
-612.259	103.865	-0.226	-0.267
-611.244	800.000	-0.098	-0.332
-610.230	-77.130	0.313	0.110
-609.215	-200.000	-0.003	0.195
-608.201	40.848	0.069	-0.062
-607.186	321.438	-0.075	0.143
-606.171	-200.000	-0.023	0.116
-605.157	20.692	-0.103	-0.083
-604.142	800.000	0.067	-0.231
-603.128	-27.678	-0.143	0.083
-602.113	-200.000	0.021	0.157
-601.098	-58.425	0.165	0.072
-600.084	-133.215	0.262	-0.033
-599.069	441.284	0.063	0.137
-598.055	108.022	-0.125	0.149
-597.040	-200.000	-0.022	-0.113
-596.025	-71.828	-0.078	-0.029
-595.011	90.738	-0.163	-0.183
-593.996	800.000	-0.048	-0.178
-592.982	-35.564	0.413	-0.225
-591.967	294.077	-0.084	0.154
-590.952	-93.901	0.317	-0.087
-589.938	-43.037	-0.249	-0.127
-588.923	-0.115	0.192	-0.137
-587.909	-54.660	0.094	0.043
-586.894	-200.000	0.046	-0.273
-585.879	-125.073	-0.065	0.010
-584.865	-86.911	0.210	-0.064
-583.850	-200.000	-0.015	0.098
-582.836	-24.865	-0.042	-0.025
-581.821	-68.737	-0.261	-0.101
-580.806	233.404	-0.113	-0.186
-579.792	800.000	-0.030	-0.085
-578.777	800.000	-0.063	-0.190
-577.763	-88.016	0.216	-0.065
-576.748	-200.000	0.028	-0.174
-575.733	231.901	0.143	-0.235
-574.719	800.000	-0.078	-0.225
-573.704	-46.565	-0.299	-0.147
-572.690	800.000	-0.125	0.356
-571.675	229.144	0.102	0.168
-570.661	790.314	-0.098	-0.269
-569.646	734.708	-0.110	-0.296
-568.631	-26.550	0.159	0.094
-567.617	82.850	0.243	-0.264
-566.602	132.220	0.173	0.224
-565.588	171.370	-0.131	-0.188
-564.573	800.000	0.013	-0.052
-563.558	256.247	-0.064	-0.109
-562.544	-58.968	0.147	-0.064
-561.529	91.065	-0.180	0.203
-560.515	117.563	-0.256	0.315
-559.500	-200.000	0.002	0.051
-558.485	-69.296	-0.234	-0.090
-557.471	-118.848	0.129	0.023
-556.456	-49.775	-0.176	-0.084
-555.442	319.231	0.134	-0.254
-554.427	-200.000	0.008	0.343
-553.412	-200.000	-0.007	-0.070
-552.398	285.195	0.038	0.068
-551.383	788.971	-0.044	-0.121
-550.369	-81.794	-0.276	0.091
-549.354	-200.000	-0.001	0.268
-548.339	-144.786	0.330	0.030
-547.325	-200.000	-0.023	0.283
-546.310	-169.619	0.209	0.008
-545.296	-89.793	-0.202	-0.059
-544.281	-184.044	-0.152	0.003
-543.266	-181.797	0.173	-0.003
-542.252	-200.000	0.029	0.262
-541.237	-134.637	0.169	0.021
-540.223	21.785	-0.332	0.271
-539.208	-200.000	0.006	-0.177
-538.193	-182.220	-0.229	-0.004
-537.179	800.000	-0.049	0.192
-536.164	536.129	0.116	0.275
-535.150	90.226	-0.068	0.076
-534.135	-34.862	-0.139	0.076
-533.121	-200.000	-0.002	0.099
-532.106	-200.000	0.003	-0.058
-531.091	-34.363	-0.309	0.170
-530.077	101.552	-0.210	-0.245
-529.062	-14.351	0.189	-0.122
-528.048	-200.000	0.020	-0.098
-527.033	79.384	0.156	0.167
-526.018	-52.942	0.174	-0.080
-525.004	734.485	-0.062	-0.167
-523.989	800.000	-0.047	-0.182
-522.975	259.079	0.191	0.330
-521.960	102.834	0.165	0.193
-520.945	-200.000	-0.011	0.367
-519.931	9.263	-0.230	-0.174
-518.916	-127.107	-0.172	0.025
-517.902	800.000	0.045	0.148
-516.887	-75.687	0.025	-0.009
-515.872	-15.542	-0.132	0.084
-514.858	-157.231	-0.109	-0.007
-513.843	4.848	0.144	-0.106
-512.829	-40.317	0.059	0.031
-511.814	-151.207	-0.357	-0.027
-510.799	-200.000	-0.012	0.164
-509.785	-68.516	-0.207	-0.080
-508.770	604.409	0.099	-0.246
-507.756	-200.000	-0.053	-0.280
-506.741	36.527	-0.169	0.149
-505.726	221.453	-0.052	0.083
-504.712	-6.124	-0.217	-0.148
-503.697	97.270	-0.129	0.148
-502.683	-12.359	-0.249	-0.163
-501.668	-83.931	-0.091	-0.029
-500.653	-200.000	0.009	0.069
-499.639	777.651	-0.096	-0.263
-498.624	326.069	-0.096	0.183
-497.610	800.000	-0.010	-0.030
-496.595	40.498	-0.082	0.074
-495.581	-9.531	0.257	-0.171
-494.566	101.576	0.172	0.200
-493.551	32.035	-0.187	-0.161
-492.537	-200.000	-0.036	-0.214
-491.522	-200.000	-0.003	-0.034
-490.508	-200.000	-0.027	0.160
-489.493	-90.708	-0.210	-0.061
-488.478	276.761	-0.049	-0.087
-487.464	-63.253	-0.361	-0.149
-486.449	-94.364	0.359	-0.098
-485.435	79.266	0.135	-0.145
-484.420	-147.037	-0.200	-0.017
-483.405	-200.000	0.018	-0.391
-482.391	-6.994	-0.364	-0.247
-481.376	-5.272	-0.154	-0.106
-480.362	-14.172	-0.048	0.031
-479.347	-200.000	-0.092	-0.552
-478.332	178.827	-0.134	-0.195
-477.318	-200.000	-0.023	-0.159
-476.303	-87.495	-0.156	-0.047
-475.289	-184.367	0.343	-0.006
-474.274	-6.335	-0.317	0.216
-473.259	800.000	0.007	-0.025
-472.245	61.234	0.123	-0.122
-471.230	-104.302	-0.285	0.066
-470.216	-60.603	-0.268	0.114
-469.201	438.038	-0.058	-0.126
-468.186	-44.220	0.201	-0.101
-467.172	69.285	0.239	-0.246
-466.157	268.284	0.070	0.123
-465.143	800.000	0.095	0.282
-464.128	3.763	0.161	0.117
-463.113	-143.531	-0.372	0.035
-462.099	-103.303	-0.024	0.006
-461.084	800.000	0.032	-0.111
-460.070	509.929	0.124	-0.287
-459.055	-197.622	-0.222	0.001
-458.040	130.938	-0.145	0.186
-457.026	-40.551	0.325	0.168
-456.011	280.099	-0.053	0.095
-454.997	-200.000	-0.076	0.396
-453.982	-200.000	-0.030	0.237
-452.968	800.000	0.051	-0.168
-451.953	14.303	-0.089	0.069
-450.938	-59.998	-0.146	-0.062
-449.924	167.100	0.240	0.339
-448.909	370.874	0.097	-0.197
-447.895	-127.525	-0.546	-0.079
-446.880	40.296	0.271	-0.244
-445.865	-72.532	0.313	0.115
-444.851	139.865	-0.095	-0.125
-443.836	-8.978	-0.191	-0.128
-442.822	-90.701	0.119	0.034
-441.807	800.000	0.046	-0.127
-440.792	-69.898	0.172	0.065
-439.778	149.455	-0.173	0.233
-438.763	-4.809	0.168	-0.115
-437.749	-80.338	0.261	-0.087
-436.734	-200.000	-0.032	0.152
-435.719	-200.000	-0.046	-0.206
-434.705	-20.061	0.167	-0.103
-433.690	-200.000	-0.013	0.191
-432.676	329.458	-0.025	-0.049
-431.661	-72.924	-0.222	-0.081
-430.646	19.822	0.268	0.215
-429.632	-49.935	0.501	0.237
-428.617	453.749	0.103	-0.227
-427.603	254.811	0.080	-0.136
-426.588	-54.706	-0.352	-0.158
-425.573	221.637	0.032	-0.051
-424.559	23.149	-0.269	0.220
-423.544	68.674	0.127	-0.130
-422.530	-200.000	-0.057	0.373
-421.515	267.280	-0.062	0.108
-420.500	-200.000	0.004	-0.116
-419.486	205.772	0.093	0.145
-418.471	660.696	0.075	0.193
-417.457	670.307	-0.015	0.038
-416.442	93.398	0.151	0.170
-415.428	-88.258	0.290	0.086
-414.413	566.054	0.115	-0.278
-413.398	-127.032	0.438	0.064
-412.384	396.184	0.071	-0.147
-411.369	-26.512	-0.220	-0.128
-410.355	-65.613	0.275	-0.110
-409.340	148.321	-0.142	-0.190
-408.325	-83.308	0.275	0.088
-407.311	-158.736	0.139	0.008
-406.296	338.114	-0.083	0.161
-405.282	-200.000	0.022	0.124
-404.267	-6.110	-0.319	-0.217
-403.252	-151.684	0.047	-0.003
-402.238	286.233	0.057	-0.103
-401.223	46.445	0.222	0.205
-400.209	289.089	0.110	0.199
-399.194	144.563	-0.009	0.012
-398.179	115.125	-0.043	0.052
-397.165	451.989	-0.075	0.165
-396.150	177.404	0.155	-0.225
-395.136	-200.000	0.068	0.378
-394.121	679.251	-0.103	0.266
-393.106	-50.647	-0.040	0.019
-392.092	6.132	0.203	0.150
-391.077	-29.661	0.454	0.258
-390.063	-200.000	-0.067	0.349
-389.048	-200.000	-0.005	-0.226
-388.033	105.727	0.087	-0.102
-387.019	-152.548	-0.185	0.013
-386.004	-200.000	0.053	-0.471
-384.990	-109.037	0.029	0.006
-383.975	800.000	0.026	0.081
-382.960	177.266	-0.050	-0.073
-381.946	-13.729	0.040	-0.026
-380.931	-100.151	-0.403	0.100
-379.917	-70.419	0.074	0.028
-378.902	-200.000	-0.055	0.275
-377.888	-200.000	0.006	0.221
-376.873	246.814	-0.145	-0.244
-375.858	147.993	-0.215	-0.288
-374.844	200.496	0.115	-0.176
-373.829	-200.000	0.104	-0.485
-372.815	64.170	-0.099	-0.099
-371.800	-140.707	-0.223	0.023
-370.785	800.000	-0.015	-0.053
-369.771	59.578	0.135	-0.133
-368.756	-164.420	-0.159	0.007
-367.742	-116.429	0.398	0.073
-366.727	-200.000	-0.023	0.322
-365.712	-58.563	0.291	-0.125
-364.698	-57.932	0.080	0.035
-363.683	-13.614	-0.237	0.152
-362.669	268.031	0.101	0.176
-361.654	315.138	0.058	-0.108
-360.639	-17.804	0.198	-0.123
-359.625	-54.255	0.145	0.065
-358.610	262.722	-0.077	0.133
-357.596	53.530	-0.113	0.108
-356.581	135.556	-0.088	0.114
-355.566	-146.546	0.383	-0.033
-354.552	-100.171	0.461	-0.114
-353.537	800.000	0.079	-0.254
-352.523	-200.000	-0.036	-0.294
-351.508	30.085	0.136	-0.115
-350.493	-137.690	-0.056	-0.006
-349.479	4.095	-0.113	0.082
-348.464	-61.077	-0.075	0.032
-347.450	-7.427	-0.251	0.169
-346.435	-91.385	0.110	-0.031
-345.420	800.000	-0.027	0.079
-344.406	-200.000	0.003	-0.288
-343.391	-200.000	0.012	0.366
-342.377	-105.089	0.061	-0.014
-341.362	-200.000	0.003	-0.329
-340.348	800.000	0.125	0.386
-339.333	78.392	0.041	0.043
-338.318	-80.409	-0.086	0.029
-337.304	-57.014	0.229	0.100
-336.289	425.322	-0.027	0.057
-335.275	-200.000	-0.020	0.187
-334.260	46.619	0.159	0.146
-333.245	87.797	0.181	-0.199
-332.231	587.496	-0.049	0.121
-331.216	204.290	0.239	0.368
-330.202	25.893	0.243	-0.201
-329.187	56.222	-0.284	0.274
-328.172	800.000	-0.079	-0.217
-327.158	-200.000	0.001	0.325
-326.143	-68.113	-0.294	-0.114
-325.129	394.828	0.036	-0.075
-324.114	519.317	0.101	0.234
-323.099	-31.423	-0.239	0.133
-322.085	507.882	-0.045	-0.103
-321.070	177.904	-0.087	-0.126
-320.056	800.000	0.068	-0.287
-319.041	125.090	0.087	-0.109
-318.026	-200.000	-0.016	-0.144
-317.012	207.343	0.097	0.150
-315.997	-200.000	-0.035	0.185
-314.983	18.763	0.094	-0.074
-313.968	-21.027	-0.162	-0.099
-312.953	-200.000	0.006	0.150
-311.939	98.131	-0.328	-0.375
-310.924	126.699	-0.115	-0.144
-309.910	-103.837	0.256	-0.059
-308.895	283.447	0.051	0.091
-307.880	2.304	-0.274	-0.197
-306.866	-147.584	-0.145	-0.012
-305.851	-200.000	-0.063	-0.366
-304.837	-83.940	-0.337	0.106
-303.822	-150.554	0.252	0.019
-302.807	-200.000	-0.027	-0.139
-301.793	800.000	-0.058	-0.167
-300.778	-81.654	0.147	-0.048
-299.764	-149.020	-0.031	0.002
-298.749	-79.959	-0.173	-0.058
-297.735	-200.000	-0.053	0.325
-296.720	104.426	-0.277	0.324
-295.705	704.204	0.130	0.340
-294.691	149.182	0.199	-0.267
-293.676	-97.930	-0.062	-0.016
-292.662	174.266	-0.152	0.218
-291.647	-200.000	-0.008	-0.181
-290.632	391.550	0.134	0.276
-289.618	373.187	0.030	-0.060
-288.603	-200.000	-0.027	-0.292
-287.589	800.000	-0.067	-0.253
-286.574	-88.684	-0.122	0.036
-285.559	117.399	-0.193	0.235
-284.545	-4.565	-0.076	-0.052
-283.530	-46.328	0.115	0.056
-282.516	224.596	-0.112	0.179
-281.501	-45.104	-0.110	0.054
-280.486	168.168	-0.189	-0.266
-279.472	354.623	-0.074	0.145
-278.457	-200.000	0.032	-0.154
-277.443	-117.598	-0.067	0.012
-276.428	800.000	-0.151	0.603
-275.413	-52.857	-0.112	0.051
-274.399	800.000	-0.036	0.144
-273.384	221.081	0.094	0.150
-272.370	-42.980	0.033	-0.016
-271.355	-200.000	0.003	0.100
-270.340	189.697	-0.108	-0.160
-269.326	-120.078	-0.079	0.013
-268.311	33.092	-0.184	0.158
-267.297	123.726	0.100	-0.125
-266.282	399.193	0.082	0.170
-265.267	-200.000	-0.004	0.189
-264.253	610.514	-0.009	-0.021
-263.238	-200.000	-0.038	-0.244
-262.224	-57.792	0.105	0.045
-261.209	-91.912	0.201	0.056
-260.195	-10.967	0.208	-0.136
-259.180	-121.653	0.043	0.007
-258.165	-121.543	0.123	0.020
-257.151	75.447	-0.032	0.034
-256.136	97.974	0.092	-0.105
-255.122	453.135	-0.066	0.145
-254.107	-18.941	-0.229	-0.141
-253.092	-97.743	0.164	-0.042
-252.078	-67.457	0.210	-0.082
-251.063	-200.000	-0.022	-0.127
-250.049	-36.260	-0.140	0.075
-249.034	-97.592	0.221	-0.057
-248.019	470.826	-0.078	0.173
-247.005	32.713	-0.307	0.263
-245.990	-200.000	-0.014	0.140
-244.976	107.783	0.059	-0.070
-243.961	198.993	0.104	0.157
-242.946	800.000	-0.045	0.175
-241.932	27.978	0.111	0.092
-240.917	77.096	0.233	0.245
-239.903	68.281	-0.191	-0.193
-238.888	725.095	-0.139	-0.366
-237.873	-200.000	0.226	0.001
-236.859	-38.343	-0.185	0.097
-235.844	422.529	-0.147	0.313
-234.830	-75.946	0.098	-0.034
-233.815	360.505	-0.121	0.240
-232.800	800.000	0.087	0.372
-231.786	-200.000	0.184	-0.001
-230.771	256.051	-0.119	0.203
-229.757	-85.661	-0.238	0.073
-228.742	402.789	0.049	0.102
-227.727	-110.636	0.312	0.064
-226.713	257.132	-0.100	-0.171
-225.698	32.833	-0.138	0.118
-224.684	-186.916	-0.113	-0.002
-223.669	-14.075	0.075	-0.048
-222.655	-116.879	-0.082	-0.015
-221.640	800.000	-0.019	0.075
-220.625	-200.000	0.045	-0.208
-219.611	-200.000	0.031	0.204
-218.596	309.282	-0.078	-0.145
-217.582	-15.284	-0.356	0.225
-216.567	-178.733	-0.357	-0.008
-215.552	46.300	0.167	0.153
-214.538	-8.043	-0.250	0.166
-213.523	108.701	-0.180	0.212
-212.509	800.000	0.033	-0.102
-211.494	-124.303	-0.215	-0.033
-210.479	98.201	0.045	-0.052
-209.465	-200.000	-0.022	-0.139
-208.450	-64.166	0.076	0.031
-207.436	417.286	-0.041	-0.088
-206.421	151.793	0.167	0.225
-205.406	73.074	0.158	0.163
-204.392	785.880	-0.089	-0.242
-203.377	80.990	0.125	0.133
-202.363	184.819	0.145	-0.212
-201.348	-90.165	0.033	-0.010
-200.333	-128.110	-0.187	0.027
-199.319	-42.578	0.148	-0.074
-198.304	-103.476	-0.186	0.043
-197.290	65.666	-0.092	-0.092
-196.275	-20.646	0.234	-0.142
-195.260	256.702	0.132	-0.224
-194.246	216.998	0.054	-0.085
-193.231	282.189	0.093	-0.165
-192.217	146.975	-0.213	0.283
-191.202	-18.421	0.247	0.152
-190.187	-89.713	0.426	0.123
-189.173	-200.000	0.094	-0.520
-188.158	102.609	0.235	-0.271
-187.144	-23.048	-0.101	-0.060
-186.129	-200.000	-0.026	0.256
-185.114	-70.092	0.324	0.122
-184.100	-113.166	0.093	-0.018
-183.085	24.493	0.185	0.151
-182.071	287.661	0.127	-0.226
-181.056	141.063	-0.132	0.172
-180.042	2.083	-0.031	0.022
-179.027	-10.783	0.340	0.222
-178.012	22.941	-0.344	-0.279
-176.998	49.654	0.271	0.252
-175.983	-85.301	0.168	-0.052
-174.969	271.699	-0.106	0.185
-173.954	-51.984	0.068	0.031
-172.939	114.107	0.074	-0.089
-171.925	76.669	-0.034	-0.035
-170.910	82.295	0.191	-0.204
-169.896	-200.000	-0.001	-0.079
-168.881	116.345	-0.187	0.226
-167.866	-184.142	-0.241	0.004
-166.852	-34.581	-0.087	-0.047
-165.837	251.143	0.104	0.174
-164.823	378.969	-0.115	0.233
-163.808	-10.854	0.214	0.140
-162.793	-8.124	-0.248	-0.165
-161.779	-200.000	0.029	0.350
-160.764	236.897	-0.243	0.398
-159.750	149.010	-0.186	0.248
-158.735	-200.000	0.028	0.180
-157.720	-66.649	0.218	0.085
-156.706	-200.000	0.023	-0.177
-155.691	5.395	0.325	0.236
-154.677	-200.000	-0.003	0.239
-153.662	64.083	0.179	-0.178
-152.647	800.000	-0.020	-0.067
-151.633	-116.184	-0.063	0.012
-150.618	-200.000	0.013	-0.106
-149.604	203.107	-0.060	-0.091
-148.589	114.075	0.067	-0.081
-147.574	-200.000	0.036	0.401
-146.560	10.041	-0.307	-0.230
-145.545	87.822	0.134	0.146
-144.531	108.097	0.321	-0.378
-143.516	60.349	0.124	0.121
-142.502	-110.433	-0.234	0.048
-141.487	-34.155	-0.153	0.083
-140.472	-2.212	0.247	0.171
-139.458	533.975	-0.072	-0.167
-138.443	261.024	-0.110	0.187
-137.429	-73.722	-0.172	0.062
-136.414	-29.747	0.108	-0.061
-135.399	-131.866	0.130	0.017
-134.385	-200.000	0.024	0.224
-133.370	-101.525	-0.115	-0.028
-132.356	8.084	0.097	0.072
-131.341	-83.055	0.109	0.035
-130.326	-44.124	-0.501	0.248
-129.312	256.305	0.115	0.195
-128.297	-44.916	0.121	0.060
-127.283	-114.412	0.188	-0.036
-126.268	138.110	0.160	-0.206
-125.253	-200.000	0.003	-0.042
-124.239	116.692	0.222	0.268
-123.224	448.231	0.089	0.193
-122.210	-157.078	0.192	-0.012
-121.195	-200.000	0.087	-0.432
-120.180	-106.261	0.263	-0.058
-119.166	800.000	-0.036	-0.111
-118.151	39.617	0.187	-0.165
-117.137	-99.950	0.102	-0.025
-116.122	63.867	0.066	-0.065
-115.107	-96.977	0.474	0.122
-114.093	83.564	0.094	-0.101
-113.078	-193.486	-0.115	0.001
-112.064	109.249	0.016	-0.019
-111.049	432.900	0.125	0.267
-110.034	-2.208	0.181	0.125
-109.020	-115.529	-0.145	-0.027
-108.005	52.055	-0.220	0.206
-106.991	-200.000	-0.055	0.299
-105.976	29.959	0.233	0.195
-104.962	800.000	0.046	0.128
-103.947	37.479	0.007	-0.006
-102.932	421.046	-0.132	-0.279
-101.918	1.757	-0.137	0.097
-100.903	-200.000	-0.014	0.450
-99.889	800.000	0.080	-0.255
-98.874	-123.092	0.135	-0.021
-97.859	-131.592	-0.166	-0.021
-96.845	-200.000	-0.065	0.436
-95.830	-200.000	-0.018	0.116
-94.816	147.977	0.247	0.328
-93.801	-60.038	-0.134	-0.056
-92.786	-145.573	0.361	-0.032
-91.772	225.901	-0.116	0.185
-90.757	-200.000	0.038	0.302
-89.743	194.038	-0.090	0.133
-88.728	-85.092	0.227	0.070
-87.713	-112.878	-0.213	0.041
-86.699	475.533	0.056	-0.124
-85.684	21.378	0.383	0.306
-84.670	-200.000	-0.003	0.067
-83.655	-200.000	-0.035	0.279
-82.640	-59.653	0.391	-0.165
-81.626	-191.268	0.254	0.003
-80.611	-34.108	-0.171	-0.092
-79.597	135.754	-0.082	-0.105
-78.582	-103.604	0.122	-0.028
-77.567	-38.622	0.252	-0.131
-76.553	800.000	0.062	0.217
-75.538	-200.000	0.024	0.332
-74.524	331.344	0.139	0.263
-73.509	7.212	-0.234	-0.172
-72.494	800.000	-0.042	0.138
-71.480	-200.000	0.008	0.051
-70.465	88.251	0.208	0.227
-69.451	34.661	0.256	-0.220
-68.436	800.000	0.047	0.198
-67.422	-60.505	-0.182	0.076
-66.407	52.473	0.308	-0.289
-65.392	800.000	0.077	-0.324
-64.378	40.581	0.295	0.261
-63.363	-200.000	-0.026	0.351
-62.349	-86.187	0.232	0.070
-61.334	33.825	-1.003	-0.858
-60.319	-34.112	0.872	0.471
-59.305	-200.000	-0.207	-1.026
-58.290	174.365	0.683	0.970
-57.276	800.000	0.507	1.480
-56.261	-200.000	98.393	591.067
-55.246	524.916	1395.837	3225.889
-54.232	160.294	2563.281	3511.034
-53.217	112.130	2134.465	2533.709
-52.203	43.305	1592.348	1428.358
-51.188	34.981	1329.985	1143.486
-50.173	31.820	1288.248	1089.228
-49.159	54.994	1336.792	1267.857
-48.144	56.675	1353.627	1293.703
-47.130	35.288	1311.688	1129.387
-46.115	31.763	1294.189	1093.743
-45.100	31.598	1288.845	1088.224
-44.086	31.423	1287.326	1085.882
-43.071	31.352	1285.282	1083.702
-42.057	31.411	1282.770	1081.884
-41.042	31.228	1281.494	1079.704
-40.027	31.470	1279.641	1079.498
-39.013	31.415	1277.562	1077.388
-37.998	31.391	1276.397	1076.223
-36.984	31.465	1274.140	1074.702
-35.969	31.489	1272.537	1073.446
-34.954	31.584	1270.393	1072.139
-33.940	31.529	1269.809	1071.286
-32.925	31.501	1268.272	1069.790
-31.911	31.612	1266.740	1069.086
-30.896	31.561	1265.539	1067.743
-29.881	31.577	1264.016	1066.504
-28.867	31.621	1262.537	1065.468
-27.852	31.584	1260.973	1063.893
-26.838	31.593	1259.787	1062.903
-25.823	31.626	1258.306	1061.798
-24.809	31.465	1257.356	1060.042
-23.794	31.472	1255.773	1058.703
-22.779	31.624	1254.072	1058.088
-21.765	31.669	1252.830	1057.253
-20.750	31.564	1251.549	1055.533
-19.736	31.447	1250.344	1053.820
-18.721	31.553	1249.510	1053.670
-17.706	31.484	1247.972	1051.941
-16.692	31.378	1247.552	1050.950
-15.677	31.494	1245.948	1050.209
-14.663	31.390	1244.867	1048.676
-13.648	31.357	1244.177	1047.866
-12.633	31.365	1242.872	1046.769
-11.619	31.345	1242.339	1046.167
-10.604	31.390	1241.025	1045.269
-9.590	31.474	1240.165	1044.975
-8.575	31.465	1239.136	1044.018
-7.560	31.428	1238.177	1042.961
-6.546	31.392	1237.472	1042.124
-5.531	31.394	1236.832	1041.554
-4.517	31.411	1235.803	1040.740
-3.502	31.448	1234.909	1040.152
-2.487	31.312	1234.129	1038.696
-1.473	31.349	1229.854	1035.264
-0.458	29.842	1215.306	1014.717
0.556	24.460	1197.810	976.922
1.571	20.643	1203.270	960.260
2.586	19.676	1218.418	966.855
3.600	19.382	1206.975	956.058
4.615	14.188	1135.143	871.932
5.629	4.970	1059.324	768.357
6.644	0.298	1039.483	731.265
7.659	0.021	1036.654	727.868
8.673	-0.020	1036.017	727.157
9.688	-0.078	1034.666	725.866
10.702	0.114	1032.558	725.251
11.717	5.621	1039.725	756.887
12.731	14.221	1051.284	807.105
13.746	17.721	1054.685	826.640
14.761	16.893	1053.303	821.476
15.775	15.952	1050.749	814.858
16.790	14.971	1048.571	808.359
17.804	14.313	1047.094	803.976
18.819	13.961	1045.980	801.350
19.834	13.677	1045.037	799.190
20.848	13.350	1044.397	797.053
21.863	13.191	1043.354	795.424
22.877	13.049	1042.778	794.227
23.892	12.972	1042.067	793.249
24.907	12.993	1041.405	792.773
25.921	13.004	1040.686	792.210
26.936	13.005	1039.944	791.581
27.950	13.016	1039.073	790.900
28.965	13.194	1037.866	790.760
29.980	13.216	1036.228	789.551
30.994	13.196	1035.627	788.927
32.009	13.302	1034.561	788.551
33.023	13.242	1033.760	787.582
34.038	13.150	1032.538	786.144
35.053	13.250	1031.392	785.676
36.067	13.216	1030.636	784.873
37.082	13.268	1029.598	784.259
38.096	13.235	1029.388	783.871
39.111	13.121	1028.925	782.908
40.126	13.223	1027.230	782.033
41.140	13.057	1026.039	780.273
42.155	12.995	1025.126	779.215
43.169	12.921	1024.352	778.212
44.184	12.931	1023.407	777.473
45.199	13.036	1022.101	776.905
46.213	13.069	1021.126	776.252
47.228	13.089	1020.084	775.483
48.242	13.089	1019.263	774.788
49.257	13.021	1018.386	773.736
50.271	13.175	1017.051	773.376
51.286	13.032	1016.546	772.253
52.301	13.190	1015.383	772.037
53.315	13.110	1014.414	770.862
54.330	13.101	1013.661	770.178
55.344	13.108	1012.767	769.463
56.359	13.096	1011.858	768.648
57.374	13.028	1010.597	767.309
58.388	13.005	1009.813	766.539
59.403	12.891	1009.215	765.486
60.417	13.068	1008.674	765.828
61.432	13.029	1007.503	764.693
62.447	12.836	1007.033	763.375
63.461	12.809	1006.422	762.718
64.476	12.784	1005.350	761.721
65.490	12.856	1004.907	761.651
66.505	12.965	1003.750	761.213
67.520	13.012	1002.842	760.671
68.534	12.895	1002.261	759.626
69.549	13.016	1001.298	759.385
70.563	12.862	1000.721	758.171
71.578	12.873	999.722	757.396
72.593	12.823	998.915	756.489
73.607	12.811	998.587	756.119
74.622	12.757	997.706	755.139
75.636	12.861	997.308	755.247
76.651	12.924	996.220	754.643
77.666	12.856	995.792	753.943
78.680	12.908	995.257	753.706
79.695	12.933	994.575	753.241
80.709	12.857	993.911	752.325
81.724	12.875	993.497	752.023
82.739	13.030	992.312	751.767
83.753	13.085	991.988	751.706
84.768	13.196	990.845	751.279
85.782	13.137	989.991	750.297
86.797	13.165	989.453	749.951
87.812	12.982	988.480	748.317
88.826	13.071	987.427	747.856
89.841	13.141	986.281	747.240
90.855	13.257	985.701	747.255
91.870	13.292	984.638	746.543
92.884	13.138	984.469	745.651
93.899	13.340	983.323	745.630
94.914	13.368	981.953	744.650
95.928	13.241	981.534	743.696
96.943	13.191	980.712	742.782
97.957	13.172	979.769	741.919
98.972	13.198	979.007	741.391
99.987	13.315	977.528	740.729
101.001	13.228	977.319	740.118
102.016	13.313	976.173	739.564
103.030	13.132	975.815	738.416
104.045	13.279	974.740	738.195
105.060	13.291	974.199	737.775
106.074	13.188	972.972	736.320
107.089	13.055	972.351	735.193
108.103	12.991	971.385	734.112
109.118	13.019	970.303	733.355
110.133	13.067	969.774	733.102
111.147	12.957	968.648	731.698
112.162	12.914	968.454	731.297
113.176	13.026	967.446	730.967
114.191	13.132	966.498	730.653
115.206	13.037	965.771	729.623
116.220	13.092	964.413	728.774
117.235	13.164	963.446	728.296
118.249	13.060	963.247	727.621
119.264	13.129	962.147	727.030
120.279	12.998	961.383	725.815
121.293	13.236	960.428	726.074
122.308	13.077	960.093	725.057
123.322	13.052	959.003	724.059
124.337	13.129	957.974	723.558
125.352	13.094	957.049	722.643
126.366	13.097	956.247	721.986
127.381	13.070	955.275	721.071
128.395	13.047	954.325	720.187
129.410	13.171	953.265	719.865
130.424	13.162	952.653	719.301
131.439	13.124	952.009	718.584
132.454	13.164	951.148	718.043
133.468	13.169	950.253	717.330
134.483	13.191	949.593	716.860
135.497	13.230	949.007	716.524
136.512	13.198	947.948	715.522
137.527	13.151	947.251	714.730
138.541	13.194	946.262	714.106
139.556	13.248	945.540	713.732
140.570	13.277	945.433	713.712
141.585	13.281	944.403	712.890
142.600	13.301	943.386	712.143
143.614	13.357	942.190	711.418
144.629	13.261	941.851	710.687
145.643	13.345	940.615	710.051
146.658	13.265	939.490	708.798
147.673	13.258	938.855	708.226
148.687	13.319	938.044	707.813
149.702	13.241	936.883	706.542
150.716	13.283	936.244	706.175
151.731	13.303	936.041	706.047
152.746	13.174	935.445	704.983
153.760	13.297	934.658	704.850
154.775	13.292	933.833	704.146
155.789	13.354	933.213	703.879
156.804	13.269	932.632	703.017
157.819	13.374	932.323	703.169
158.833	13.483	931.284	702.786
159.848	13.529	930.534	702.353
160.862	13.381	929.667	701.010
161.877	13.314	928.820	700.026
162.892	13.392	927.819	699.538
163.906	13.269	926.943	698.299
164.921	13.293	925.964	697.598
165.935	13.349	925.179	697.181
166.950	13.458	924.180	696.827
167.964	13.366	923.482	695.851
168.979	13.373	922.357	694.970
169.994	13.451	921.677	694.727
171.008	13.542	920.928	694.481
172.023	13.454	920.408	693.658
173.037	13.546	919.458	693.265
174.052	13.392	919.189	692.360
175.067	13.486	918.454	692.136
176.081	13.371	917.880	691.163
177.096	13.382	917.546	690.896
178.110	13.537	916.673	690.822
179.125	13.459	915.955	689.894
180.140	13.588	915.775	690.236
181.154	13.573	915.168	689.656
182.169	13.576	914.487	689.096
183.183	13.565	914.175	688.754
184.198	13.589	913.240	688.086
185.213	13.786	912.063	687.957
186.227	13.876	911.715	688.006
187.242	13.761	911.547	687.340
188.256	13.766	910.826	686.758
189.271	13.783	910.114	686.228
190.286	13.622	908.790	684.507
191.300	13.451	908.682	683.660
192.315	13.419	907.814	682.814
193.329	13.614	907.326	683.188
194.344	13.529	906.906	682.462
195.359	13.706	906.209	682.605
196.373	13.740	905.658	682.271
197.388	13.878	904.800	682.130
198.402	13.862	905.007	682.159
199.417	13.934	904.041	681.668
200.432	13.888	903.731	681.186
201.446	13.951	903.155	680.947
202.461	14.002	902.597	680.676
203.475	14.051	901.964	680.340
204.490	13.910	901.228	679.149
205.504	13.769	900.637	678.064
206.519	13.837	900.142	677.911
207.534	13.873	899.427	677.459
208.548	13.988	898.325	677.039
209.563	13.813	898.087	676.088
210.577	14.000	897.440	676.299
211.592	14.147	896.397	676.050
212.607	14.168	895.453	675.365
213.621	14.104	895.053	674.745
214.636	13.944	894.795	673.841
215.650	14.078	894.242	673.909
216.665	14.026	893.244	672.884
217.680	14.170	892.569	672.901
218.694	14.162	892.027	672.399
219.709	14.167	891.254	671.780
220.723	14.176	890.691	671.329
221.738	14.124	890.264	670.740
222.753	14.241	889.359	670.469
223.767	14.265	888.653	669.975
224.782	14.303	888.415	669.888
225.796	14.202	888.141	669.217
226.811	14.100	887.368	668.165
227.826	14.224	886.636	668.054
228.840	14.295	885.561	667.469
229.855	14.238	885.014	666.769
230.869	14.225	884.122	665.983
231.884	14.352	883.090	665.657
232.899	14.082	883.053	664.492
233.913	14.175	882.373	664.293
234.928	14.118	881.768	663.551
235.942	14.254	880.840	663.335
236.957	14.235	880.520	662.958
237.972	14.169	879.999	662.247
238.986	14.272	878.940	661.800
240.001	14.307	878.272	661.377
241.015	14.296	878.027	661.089
242.030	14.323	877.379	660.652
243.045	14.362	877.158	660.581
244.059	14.356	876.898	660.303
245.074	14.302	875.840	659.234
246.088	14.393	875.087	658.969
247.103	14.449	874.670	658.820
248.117	14.678	874.032	659.184
249.132	14.660	873.374	658.559
250.147	14.802	872.453	658.364
251.161	14.683	872.228	657.666
252.176	14.814	871.748	657.762
253.190	14.706	871.185	656.855
254.205	14.660	870.520	656.115
255.220	14.685	869.640	655.494
256.234	14.743	869.345	655.440
257.249	14.760	868.689	654.952
258.263	14.793	867.562	654.175
259.278	14.823	866.938	653.763
260.293	14.858	866.525	653.531
261.307	14.912	865.997	653.287
262.322	14.786	865.720	652.526
263.336	14.973	864.544	652.313
264.351	14.998	863.729	651.736
265.366	14.980	863.421	651.379
266.380	14.876	863.003	650.599
267.395	14.951	861.925	650.022
268.409	15.136	861.290	650.202
269.424	15.017	860.236	648.888
270.439	14.952	860.083	648.465
271.453	14.894	859.185	647.504
272.468	14.949	858.523	647.162
273.482	14.895	858.573	646.933
274.497	14.891	857.447	646.013
275.512	15.041	856.664	645.945
276.526	15.049	856.359	645.686
277.541	15.047	855.825	645.218
278.555	15.101	855.341	645.006
279.570	15.270	854.630	645.062
280.585	15.263	854.018	644.518
281.599	15.103	853.000	643.077
282.614	15.161	852.543	642.898
283.628	15.278	852.163	643.003
284.643	15.191	851.471	642.092
285.657	15.233	850.988	641.829
286.672	15.243	850.336	641.319
287.687	15.177	849.341	640.260
288.701	15.352	848.797	640.464
289.716	15.291	848.982	640.311
290.730	15.258	847.634	639.116
291.745	15.354	847.390	639.240
292.760	15.410	846.962	639.074
293.774	15.326	846.032	637.995
294.789	15.435	845.546	637.987
295.803	15.344	844.776	637.001
296.818	15.353	844.206	636.550
297.833	15.329	843.795	636.096
298.847	15.322	843.550	635.825
299.862	15.331	842.467	634.987
300.876	15.484	842.027	635.181
301.891	15.393	841.878	634.666
302.906	15.486	841.015	634.311
303.920	15.686	840.175	634.377
304.935	15.533	839.644	633.341
305.949	15.536	839.300	633.038
306.964	15.566	838.765	632.693
307.979	15.534	838.237	632.116
308.993	15.613	837.477	631.783
310.008	15.602	837.150	631.440
311.022	15.594	836.798	631.090
312.037	15.604	835.810	630.326
313.052	15.602	835.252	629.842
314.066	15.616	834.666	629.396
315.081	15.649	834.205	629.116
316.095	15.602	833.383	628.265
317.110	15.593	833.005	627.891
318.125	15.491	832.836	627.326
319.139	15.683	832.240	627.538
320.154	15.648	831.766	626.996
321.168	15.658	831.239	626.581
322.183	15.688	830.469	626.056
323.197	15.812	829.996	626.105
324.212	15.682	829.706	625.350
325.227	15.671	828.771	624.547
326.241	15.667	828.284	624.109
327.256	15.809	827.566	624.040
328.270	15.659	827.345	623.263
329.285	15.857	826.285	623.140
330.300	15.764	826.044	622.562
331.314	15.806	825.519	622.264
332.329	15.800	825.172	621.925
333.343	15.833	824.835	621.739
334.358	15.875	824.517	621.599
335.373	15.915	823.905	621.233
336.387	15.886	823.871	621.044
337.402	15.796	823.586	620.443
338.416	15.910	823.079	620.424
339.431	16.014	822.635	620.418
340.446	16.003	822.230	620.019
341.460	16.057	821.757	619.804
342.475	16.054	821.637	619.648
343.489	16.228	820.804	619.605
344.504	16.214	820.281	619.105
345.519	16.279	819.932	619.025
346.533	16.213	819.398	618.324
347.548	16.059	818.973	617.383
348.562	16.075	818.487	617.021
349.577	16.147	817.708	616.643
350.592	16.137	817.059	616.061
351.606	16.114	816.511	615.511
352.621	16.225	815.860	615.369
353.635	16.107	815.571	614.668
354.650	16.114	815.062	614.257
355.665	16.138	813.950	613.449
356.679	16.149	813.786	613.314
357.694	16.175	812.957	612.729
358.708	16.318	812.252	612.661
359.723	16.279	811.632	611.996
360.738	16.269	811.195	611.578
361.752	16.280	810.712	611.201
362.767	16.310	810.248	610.904
363.781	16.426	809.617	610.794
364.796	16.479	809.120	610.557
365.810	16.746	808.682	611.135
366.825	16.578	808.596	610.410
367.840	16.461	808.069	609.535
368.854	16.547	807.235	609.164
369.869	16.403	807.267	608.614
370.883	16.526	806.949	608.763
371.898	16.492	806.454	608.213
372.913	16.437	806.046	607.655
373.927	16.548	805.485	607.577
374.942	16.532	805.018	607.113
375.956	16.686	804.471	607.202
376.971	16.687	804.038	606.824
377.986	16.857	803.447	606.931
379.000	16.745	803.230	606.312
380.015	16.612	802.945	605.567
381.029	16.845	802.070	605.689
382.044	16.880	801.422	605.269
383.059	16.783	800.769	604.377
384.073	16.854	800.342	604.255
385.088	16.676	799.674	603.062
386.102	16.874	799.083	603.269
387.117	16.742	798.623	602.399
388.132	16.854	798.135	602.376
389.146	16.801	797.824	601.899
390.161	16.889	797.587	601.978
391.175	16.950	796.795	601.544
392.190	16.765	796.536	600.641
393.205	16.623	796.406	599.986
394.219	16.863	795.931	600.423
395.234	16.853	795.240	599.815
396.248	16.759	794.819	599.110
397.263	16.885	794.388	599.178
398.278	16.803	793.953	598.507
399.292	16.812	793.482	598.130
400.307	16.860	792.775	597.716
401.321	16.750	792.826	597.311
402.336	16.869	792.025	597.074
403.350	16.979	791.321	596.881
404.365	16.824	791.692	596.562
405.380	17.134	790.488	596.690
406.394	17.044	790.251	596.142
407.409	17.033	789.845	595.746
408.423	17.125	790.089	596.200
409.438	17.147	789.298	595.627
410.453	17.297	788.480	595.483
411.467	17.306	788.214	595.261
412.482	17.270	787.919	594.858
413.496	17.180	787.619	594.265
414.511	17.218	787.445	594.213
415.526	17.170	786.575	593.337
416.540	17.206	786.218	593.140
417.555	17.386	785.751	593.366
418.569	17.290	785.330	592.658
419.584	17.354	784.995	592.577
420.599	17.340	784.470	592.079
421.613	108.612	1288.668	1463.094
422.628	93.037	1362.121	1463.185
