DTS Sentinel unit serial number:	SN413079Multiplexer serial number:	ORYXHardware model number:	OX4-SRSoftware version number:	ORYX F/W v4.00 Oryx Data Collector v3.7.2.0data status	okinstallation	princeton_trtdifferential loss correction	single-endedforward channel	channel 1reverse channel	N/Adate	2019/09/18time	04:14:35forward acquisition time	60.00reverse acquisition time	0.00gamma	496.2192k internal	0.2339k external	0.2339temperature offset calibration	0.9977default loss term (dB/km)	0.3790temperature slope calibration	1.0000multiplexer offset coefficient	1.0000multiplexer slope coefficient	1.0000fibre end	0.00T internal ref (°C)	23.31T ext. ref 1 (°C)	0.18T ext. ref 2 (°C)	17.71length (m)	temperature (°C)	Stokes	anti-Stokes-747.200	-56.361	0.283	-0.126
-746.185	-9.504	0.314	0.210
-745.171	-33.311	-0.248	-0.138
-744.156	-99.152	-0.150	0.038
-743.142	-67.934	0.480	0.188
-742.127	239.017	-0.096	0.160
-741.112	334.378	0.060	-0.117
-740.098	-144.772	-0.302	0.028
-739.083	152.429	0.289	-0.396
-738.069	-78.602	-0.274	0.094
-737.054	115.493	-0.082	0.101
-736.039	-111.201	-0.484	-0.099
-735.025	188.679	0.165	0.248
-734.010	563.866	-0.033	0.081
-732.996	81.060	-0.132	0.143
-731.981	689.757	-0.105	0.277
-730.966	-127.165	-0.275	-0.040
-729.952	-200.000	0.041	-0.236
-728.937	611.197	-0.210	-0.526
-727.923	221.483	0.123	0.198
-726.908	-200.000	-0.002	0.181
-725.894	-119.885	0.238	-0.041
-724.879	30.589	0.061	-0.052
-723.864	-200.000	0.010	0.191
-722.850	95.629	0.129	-0.148
-721.835	-200.000	0.002	-0.271
-720.821	800.000	-0.052	-0.159
-719.806	-108.262	-0.300	-0.065
-718.791	-58.338	0.185	0.080
-717.777	47.819	-0.281	0.263
-716.762	-137.287	-0.154	-0.018
-715.748	-200.000	0.020	-0.458
-714.733	-200.000	-0.068	-0.384
-713.718	-56.427	-0.295	0.131
-712.704	-200.000	-0.046	-0.348
-711.689	800.000	-0.025	0.104
-710.675	800.000	0.057	-0.212
-709.660	684.155	-0.081	-0.213
-708.645	86.085	0.215	-0.237
-707.631	84.489	-0.338	0.370
-706.616	81.234	0.157	0.170
-705.602	38.058	-0.064	0.057
-704.587	2.089	0.037	-0.027
-703.572	18.030	-0.034	0.028
-702.558	194.480	-0.119	-0.180
-701.543	104.331	0.220	-0.260
-700.529	565.886	0.062	0.150
-699.514	-150.684	0.211	0.016
-698.499	-92.683	-0.330	-0.093
-697.485	349.693	0.140	-0.276
-696.470	-23.333	-0.062	-0.037
-695.456	-200.000	-0.052	0.329
-694.441	-9.510	-0.342	-0.228
-693.426	-64.967	0.104	-0.042
-692.412	-141.154	-0.354	0.036
-691.397	-56.228	-0.053	-0.023
-690.383	41.519	-0.209	-0.190
-689.368	168.232	0.149	0.212
-688.354	10.104	-0.055	0.042
-687.339	800.000	0.064	-0.218
-686.324	-124.667	-0.333	-0.052
-685.310	800.000	0.087	-0.310
-684.295	-7.784	0.030	-0.020
-683.281	74.147	0.208	-0.219
-682.266	5.681	-0.076	-0.056
-681.251	-187.314	-0.234	0.003
-680.237	74.191	0.275	-0.289
-679.222	174.390	0.082	-0.119
-678.208	-67.978	-0.236	-0.092
-677.193	-52.273	-0.197	0.091
-676.178	-173.370	0.319	-0.010
-675.164	800.000	-0.080	-0.244
-674.149	-193.920	-0.087	0.001
-673.135	605.236	0.108	-0.269
-672.120	26.496	0.289	0.241
-671.105	800.000	-0.075	-0.225
-670.091	316.729	-0.055	-0.104
-669.076	48.946	0.260	-0.244
-668.062	208.317	0.204	-0.319
-667.047	-200.000	-0.029	-0.215
-666.032	-38.940	-0.415	-0.218
-665.018	-83.031	0.256	-0.083
-664.003	800.000	-0.038	-0.105
-662.989	-162.056	0.040	-0.002
-661.974	-137.309	0.434	-0.049
-660.959	65.054	0.175	-0.177
-659.945	-200.000	0.024	0.310
-658.930	-200.000	0.010	-0.236
-657.916	104.913	-0.122	0.144
-656.901	800.000	-0.090	-0.340
-655.886	53.170	-0.332	-0.318
-654.872	162.699	0.145	-0.204
-653.857	170.144	-0.164	0.234
-652.843	800.000	-0.081	-0.323
-651.828	-97.886	-0.160	-0.041
-650.814	471.922	-0.079	-0.177
-649.799	-5.233	0.107	0.073
-648.784	-62.606	0.134	-0.056
-647.770	-145.612	0.204	-0.018
-646.755	57.816	-0.255	-0.249
-645.741	800.000	0.032	0.110
-644.726	-43.800	-0.005	-0.002
-643.711	90.190	0.089	0.100
-642.697	-12.480	0.203	-0.132
-641.682	65.300	0.183	-0.184
-640.668	120.041	-0.031	-0.038
-639.653	548.583	0.056	0.135
-638.638	-200.000	-0.011	0.135
-637.624	-148.004	0.188	-0.016
-636.609	-15.761	0.106	0.068
-635.595	-106.557	-0.085	-0.019
-634.580	-80.886	0.044	-0.015
-633.565	37.423	-0.245	0.217
-632.551	119.675	0.103	-0.128
-631.536	800.000	-0.151	-0.480
-630.522	-200.000	-0.008	-0.118
-629.507	-137.608	-0.405	-0.046
-628.492	445.433	0.105	-0.229
-627.478	87.686	0.118	0.131
-626.463	-134.734	0.285	0.035
-625.449	26.799	0.167	0.139
-624.434	-200.000	-0.007	0.096
-623.419	-196.256	-0.127	0.001
-622.405	307.690	0.080	0.148
-621.390	-200.000	-0.076	0.443
-620.376	-147.402	-0.533	-0.045
-619.361	800.000	0.119	-0.400
-618.346	-200.000	-0.006	-0.151
-617.332	374.684	0.027	0.055
-616.317	496.513	-0.046	-0.107
-615.303	-113.506	-0.077	-0.015
-614.288	130.076	0.188	-0.241
-613.273	-60.482	-0.046	-0.020
-612.259	-24.901	0.059	-0.035
-611.244	800.000	0.081	-0.237
-610.230	261.823	0.117	0.202
-609.215	-40.701	0.082	-0.042
-608.201	579.516	0.118	-0.288
-607.186	-37.900	-0.224	-0.119
-606.171	-200.000	0.056	0.372
-605.157	-89.920	-0.295	-0.086
-604.142	800.000	-0.055	0.193
-603.128	-26.623	-0.065	-0.038
-602.113	-121.462	-0.422	0.070
-601.098	-200.000	-0.006	0.094
-600.084	-200.000	0.015	0.069
-599.069	242.603	0.255	0.426
-598.055	-109.992	-0.439	-0.092
-597.040	-163.027	-0.425	-0.021
-596.025	800.000	0.073	-0.214
-595.011	-200.000	0.043	-0.199
-593.996	199.015	0.111	0.170
-592.982	146.317	0.191	0.256
-591.967	800.000	-0.090	-0.275
-590.952	384.120	-0.149	0.307
-589.938	-13.616	-0.116	-0.075
-588.923	-73.141	-0.114	0.042
-587.909	124.103	0.223	-0.280
-586.894	-78.697	0.342	-0.116
-585.879	-122.428	0.199	-0.032
-584.865	649.171	-0.070	-0.178
-583.850	-59.342	0.222	0.095
-582.836	31.939	-0.118	0.102
-581.821	-93.544	0.107	-0.029
-580.806	800.000	-0.074	-0.242
-579.792	453.883	0.130	0.288
-578.777	66.580	0.395	-0.400
-577.763	-150.025	-0.324	0.025
-576.748	-56.312	0.316	0.140
-575.733	74.883	0.198	-0.208
-574.719	800.000	0.037	-0.109
-573.704	89.727	0.287	0.319
-572.690	-200.000	-0.016	-0.171
-571.675	800.000	-0.027	0.106
-570.661	246.329	-0.083	-0.140
-569.646	-3.971	-0.270	-0.186
-568.631	86.798	0.115	0.127
-567.617	208.849	-0.105	0.163
-566.602	800.000	-0.063	-0.248
-565.588	-75.273	0.050	-0.018
-564.573	633.362	0.084	0.212
-563.558	127.599	-0.139	0.176
-562.544	-8.739	0.134	0.090
-561.529	437.307	0.194	-0.420
-560.515	181.263	-0.108	0.158
-559.500	61.823	-0.107	0.106
-558.485	83.121	-0.249	0.270
-557.471	-200.000	0.163	-0.000
-556.456	-200.000	-0.009	-0.116
-555.442	146.735	-0.160	-0.214
-554.427	33.604	0.121	0.105
-553.412	-63.377	-0.226	0.093
-552.398	-136.910	0.113	0.013
-551.383	-87.253	0.344	0.104
-550.369	-200.000	-0.052	0.273
-549.354	164.176	-0.158	0.222
-548.339	-119.328	0.305	0.053
-547.325	-200.000	0.004	-0.055
-546.310	21.910	0.222	-0.180
-545.296	-147.389	-0.333	0.028
-544.281	-17.249	0.143	0.090
-543.266	43.629	-0.217	0.197
-542.252	800.000	-0.077	0.228
-541.237	3.251	-0.291	-0.211
-540.223	-170.793	-0.256	0.009
-539.208	67.459	-0.172	0.175
-538.193	66.582	-0.333	-0.337
-537.179	755.076	0.096	-0.258
-536.164	237.660	0.230	-0.379
-535.150	-200.000	0.208	0.001
-534.135	125.574	-0.095	0.119
-533.121	-200.000	-0.012	0.160
-532.106	-173.243	-0.122	0.004
-531.091	43.094	0.167	-0.152
-530.077	56.594	0.085	0.083
-529.062	-76.444	-0.443	0.155
-528.048	112.163	-0.177	-0.212
-527.033	281.577	-0.038	0.068
-526.018	11.810	-0.120	-0.092
-525.004	-117.531	-0.110	-0.020
-523.989	-94.300	0.198	0.054
-522.975	80.721	-0.281	0.301
-521.960	5.146	0.120	0.088
-520.945	-91.602	0.063	0.018
-519.931	-78.535	-0.227	-0.077
-518.916	-3.478	-0.230	0.159
-517.902	800.000	-0.061	-0.186
-516.887	-200.000	0.019	-0.431
-515.872	148.051	-0.241	0.324
-514.858	-12.731	0.094	-0.061
-513.843	137.888	0.111	-0.144
-512.829	-200.000	-0.002	0.220
-511.814	165.090	0.088	-0.123
-510.799	66.252	-0.327	-0.330
-509.785	27.145	0.171	-0.142
-508.770	-184.314	-0.185	0.003
-507.756	558.173	0.069	0.165
-506.741	-63.322	0.088	0.036
-505.726	-165.582	0.062	-0.003
-504.712	606.484	0.028	-0.070
-503.697	-179.345	-0.420	-0.009
-502.683	-200.000	-0.019	-0.084
-501.668	19.834	0.170	-0.136
-500.653	237.726	-0.037	-0.060
-499.639	-56.771	-0.258	0.113
-498.624	113.167	-0.089	-0.107
-497.610	-200.000	-0.028	-0.147
-496.595	38.176	0.131	-0.116
-495.581	-200.000	-0.007	0.209
-494.566	-103.065	0.053	-0.013
-493.551	-108.649	-0.314	0.067
-492.537	-200.000	0.017	-0.210
-491.522	-104.987	0.318	0.072
-490.508	-16.535	0.031	-0.020
-489.493	-107.937	-0.099	-0.021
-488.478	-70.795	0.205	0.077
-487.464	48.129	0.088	0.082
-486.449	800.000	-0.097	0.273
-485.435	-77.160	0.044	0.015
-484.420	-12.255	-0.067	-0.043
-483.405	239.286	0.292	0.482
-482.391	-31.324	-0.050	0.028
-481.376	-63.293	0.174	-0.071
-480.362	-200.000	0.002	-0.052
-479.347	-86.173	0.260	-0.080
-478.332	-102.091	0.234	0.056
-477.318	68.792	-0.112	0.114
-476.303	-200.000	0.009	-0.111
-475.289	-13.959	-0.295	0.189
-474.274	65.841	0.158	0.159
-473.259	41.253	-0.214	-0.192
-472.245	-106.945	0.214	-0.047
-471.230	-200.000	-0.007	0.136
-470.216	-90.319	-0.132	0.038
-469.201	-13.454	-0.163	-0.105
-468.186	143.666	0.128	0.170
-467.172	-145.893	-0.144	-0.013
-466.157	-200.000	0.268	-0.000
-465.143	-132.375	-0.149	-0.019
-464.128	109.069	-0.176	-0.209
-463.113	352.103	-0.091	-0.179
-462.099	-136.462	0.181	0.021
-461.084	470.608	-0.142	-0.316
-460.070	-183.717	-0.108	0.002
-459.055	-16.032	0.243	-0.153
-458.040	800.000	-0.113	-0.404
-457.026	-167.514	0.277	0.011
-456.011	190.088	-0.105	0.156
-454.997	-73.094	-0.156	0.057
-453.982	800.000	-0.096	0.357
-452.968	-13.710	0.171	0.110
-451.953	44.244	0.132	-0.120
-450.938	-32.224	-0.174	-0.097
-449.924	-99.043	-0.205	0.052
-448.909	128.675	-0.168	0.212
-447.895	20.747	-0.101	-0.081
-446.880	-200.000	-0.044	-0.251
-445.865	-200.000	-0.042	-0.206
-444.851	-192.472	-0.082	-0.001
-443.836	-90.795	-0.115	-0.033
-442.822	-200.000	-0.025	0.273
-441.807	800.000	-0.034	0.142
-440.792	800.000	-0.147	0.404
-439.778	156.151	0.090	0.124
-438.763	-47.763	-0.420	0.202
-437.749	800.000	-0.044	0.120
-436.734	-74.709	0.179	-0.064
-435.719	279.152	0.146	0.259
-434.705	74.409	0.170	0.177
-433.690	41.081	0.284	0.254
-432.676	-200.000	0.086	0.612
-431.661	-27.891	0.076	-0.043
-430.646	244.347	-0.160	0.266
-429.632	-200.000	-0.033	-0.264
-428.617	732.415	0.111	-0.294
-427.603	-14.207	-0.236	0.151
-426.588	87.150	-0.130	0.143
-425.573	162.588	0.267	-0.371
-424.559	453.913	-0.134	-0.293
-423.544	172.997	-0.144	-0.205
-422.530	-36.124	-0.297	-0.159
-421.515	-142.243	0.186	-0.018
-420.500	51.897	0.235	-0.221
-419.486	-200.000	-0.001	-0.069
-418.471	672.465	-0.072	0.186
-417.457	-56.106	-0.047	0.021
-416.442	-46.197	0.226	0.110
-415.428	46.500	-0.215	0.198
-414.413	-142.914	-0.147	0.014
-413.398	-122.721	-0.169	-0.027
-412.384	-30.272	0.053	-0.030
-411.369	90.184	0.288	-0.319
-410.355	50.056	0.188	-0.176
-409.340	34.226	0.002	-0.002
-408.325	-200.000	0.187	0.001
-407.311	-200.000	-0.013	0.125
-406.296	306.370	-0.106	0.195
-405.282	-200.000	0.009	0.176
-404.267	33.052	0.125	0.107
-403.252	-154.611	-0.113	0.007
-402.238	-164.845	-0.057	-0.003
-401.223	-200.000	0.046	-0.207
-400.209	-200.000	0.015	-0.433
-399.194	15.099	-0.105	-0.081
-398.179	-87.954	0.378	-0.112
-397.165	26.905	0.243	0.201
-396.150	-139.155	-0.226	0.024
-395.136	-178.527	-0.151	0.003
-394.121	202.614	0.105	-0.160
-393.106	-164.419	-0.251	0.011
-392.092	-116.418	-0.118	0.022
-391.077	279.727	-0.185	0.327
-390.063	800.000	0.061	-0.239
-389.048	-200.000	0.002	0.192
-388.033	-32.469	-0.032	0.018
-387.019	-138.524	-0.380	0.041
-386.004	590.222	-0.066	0.161
-384.990	-200.000	0.030	0.186
-383.975	225.041	-0.107	0.171
-382.960	-200.000	0.016	0.247
-381.946	-176.242	-0.108	0.003
-380.931	-120.493	0.104	-0.017
-379.917	52.496	-0.270	0.255
-378.902	-120.488	-0.117	-0.020
-377.888	272.580	-0.073	0.127
-376.873	156.954	0.040	-0.054
-375.858	700.736	-0.046	-0.119
-374.844	403.232	-0.010	-0.021
-373.829	-48.613	0.397	0.189
-372.815	800.000	0.037	0.143
-371.800	-93.611	0.383	-0.105
-370.785	-47.205	-0.364	0.175
-369.771	781.541	-0.049	-0.133
-368.756	-200.000	0.055	-0.290
-367.742	282.577	-0.193	-0.341
-366.727	323.255	-0.039	-0.074
-365.712	-95.331	0.277	-0.074
-364.698	-200.000	-0.026	0.139
-363.683	-136.776	-0.222	-0.025
-362.669	-200.000	0.043	-0.356
-361.654	-84.340	-0.182	-0.057
-360.639	402.532	0.088	0.182
-359.625	283.338	-0.135	-0.240
-358.610	29.088	0.009	-0.008
-357.596	-143.419	-0.159	-0.015
-356.581	-15.199	0.289	0.183
-355.566	270.782	-0.155	0.270
-354.552	-79.462	0.328	0.110
-353.537	114.125	-0.180	-0.216
-352.523	-104.511	-0.233	-0.053
-351.508	27.004	-0.177	0.147
-350.493	157.675	0.057	-0.078
-349.479	-152.675	0.162	0.011
-348.464	65.129	-0.294	0.293
-347.450	2.156	0.169	0.120
-346.435	-152.819	0.290	-0.020
-345.420	440.006	-0.078	0.168
-344.406	-148.856	0.235	0.019
-343.391	25.121	-0.097	0.079
-342.377	800.000	-0.090	0.333
-341.362	88.124	0.071	0.077
-340.348	170.506	0.156	-0.220
-339.333	124.184	0.079	-0.098
-338.318	-53.743	0.359	-0.162
-337.304	-117.547	0.203	-0.036
-336.289	-63.277	0.211	0.086
-335.275	343.248	0.101	0.194
-334.260	204.015	0.062	0.095
-333.245	-187.105	0.133	-0.002
-332.231	-58.708	0.224	-0.096
-331.216	-17.890	0.176	-0.109
-330.202	-200.000	-0.039	0.195
-329.187	282.973	-0.047	0.083
-328.172	-8.611	-0.281	-0.186
-327.158	-166.105	-0.096	-0.004
-326.143	-173.694	0.143	0.004
-325.129	123.266	0.112	-0.138
-324.114	-200.000	0.045	-0.271
-323.099	-95.399	-0.054	-0.014
-322.085	10.897	-0.247	-0.186
-321.070	87.593	-0.199	-0.217
-320.056	-200.000	-0.074	-0.353
-319.041	-75.560	-0.124	-0.044
-318.026	165.924	-0.094	-0.132
-317.012	-56.753	-0.309	-0.135
-315.997	-93.708	0.167	0.045
-314.983	104.303	0.134	0.156
-313.968	-42.589	-0.170	-0.085
-312.953	28.242	0.098	0.082
-311.939	22.974	-0.232	-0.187
-310.924	148.257	-0.150	-0.200
-309.910	170.095	-0.152	0.214
-308.895	-21.224	0.233	-0.140
-307.880	748.785	0.060	0.160
-306.866	-29.732	-0.191	-0.107
-305.851	146.597	-0.190	-0.252
-304.837	-8.197	-0.081	0.054
-303.822	371.299	-0.013	0.025
-302.807	326.534	-0.057	-0.108
-301.793	229.633	0.233	0.375
-300.778	-79.154	-0.340	-0.114
-299.764	-200.000	0.008	-0.101
-298.749	617.186	-0.062	0.154
-297.735	-106.899	-0.171	0.037
-296.720	-167.934	-0.165	0.006
-295.705	154.481	-0.085	0.116
-294.691	800.000	-0.100	-0.340
-293.676	37.200	0.219	0.191
-292.662	17.034	-0.192	0.150
-291.647	-133.714	-0.231	0.028
-290.632	407.338	0.255	-0.531
-289.618	-62.647	-0.225	0.092
-288.603	-82.084	0.325	-0.104
-287.589	-114.340	0.143	0.027
-286.574	257.892	0.011	0.019
-285.559	-85.164	0.359	-0.111
-284.545	800.000	0.069	-0.211
-283.530	800.000	-0.080	-0.226
-282.516	-200.000	0.001	-0.109
-281.501	0.016	-0.221	-0.155
-280.486	777.906	0.077	-0.208
-279.472	-200.000	-0.001	0.149
-278.457	-79.020	0.187	-0.063
-277.443	59.183	-0.228	0.221
-276.428	142.061	0.060	-0.079
-275.413	-200.000	-0.034	-0.230
-274.399	551.711	0.081	0.192
-273.384	6.888	-0.233	-0.171
-272.370	-200.000	0.048	0.344
-271.355	-200.000	-0.026	-0.116
-270.340	449.640	0.152	0.329
-269.326	-31.483	0.205	0.113
-268.311	-147.288	0.142	-0.012
-267.297	-22.300	0.035	0.021
-266.282	-60.076	-0.310	-0.130
-265.267	201.884	0.122	-0.185
-264.253	-111.350	0.105	0.021
-263.238	800.000	0.058	0.223
-262.224	159.091	0.123	0.168
-261.209	275.039	-0.022	-0.038
-260.195	219.901	-0.217	0.342
-259.180	-129.721	0.108	-0.015
-258.165	256.786	0.210	-0.355
-257.151	800.000	-0.019	0.064
-256.136	-200.000	-0.043	0.249
-255.122	44.099	0.232	0.209
-254.107	-79.446	-0.337	-0.112
-253.092	-200.000	-0.002	0.067
-252.078	-62.934	0.172	0.070
-251.063	-16.105	-0.168	0.105
-250.049	-200.000	-0.001	0.056
-249.034	-29.073	-0.077	0.043
-248.019	-96.212	0.163	0.043
-247.005	-200.000	-0.006	0.142
-245.990	-200.000	0.020	-0.215
-244.976	682.960	-0.120	-0.307
-243.961	-200.000	0.016	-0.259
-242.946	323.963	0.181	-0.341
-241.932	74.846	0.287	0.297
-240.917	249.135	0.033	-0.055
-239.903	414.628	0.074	-0.156
-238.888	-200.000	-0.063	-0.291
-237.873	-200.000	0.038	-0.222
-236.859	62.736	-0.267	0.262
-235.844	-87.791	-0.074	-0.022
-234.830	37.702	-0.155	-0.135
-233.815	-160.017	0.387	0.021
-232.800	71.487	-0.165	0.169
-231.786	0.693	0.107	-0.075
-230.771	42.040	0.090	-0.080
-229.757	-121.645	-0.118	0.019
-228.742	-200.000	0.004	0.261
-227.727	-15.351	0.258	0.162
-226.713	-200.000	0.001	0.061
-225.698	390.012	0.028	0.056
-224.684	-200.000	0.010	0.056
-223.669	175.432	-0.062	0.088
-222.655	-200.000	0.016	0.138
-221.640	-29.285	0.164	0.092
-220.625	-151.399	0.174	-0.013
-219.611	-64.438	0.126	-0.050
-218.596	-23.523	-0.128	0.075
-217.582	84.795	-0.143	0.154
-216.567	-145.572	-0.088	0.008
-215.552	71.231	0.199	0.202
-214.538	18.923	-0.223	0.176
-213.523	800.000	0.077	-0.282
-212.509	-130.245	0.380	0.051
-211.494	72.690	-0.080	-0.082
-210.479	800.000	-0.091	-0.262
-209.465	-100.036	0.349	-0.085
-208.450	-200.000	0.036	-0.202
-207.436	-64.320	-0.281	0.113
-206.421	328.572	0.106	-0.200
-205.406	-80.361	-0.265	-0.087
-204.392	66.096	0.154	0.154
-203.377	248.634	0.098	0.163
-202.363	-200.000	0.056	0.269
-201.348	135.216	0.356	-0.454
-200.333	-168.644	-0.252	0.009
-199.319	800.000	-0.032	-0.110
-198.304	-149.547	0.335	0.026
-197.290	-18.105	-0.282	0.173
-196.275	-44.379	0.338	0.166
-195.260	-200.000	-0.016	0.115
-194.246	-63.061	0.177	0.072
-193.231	68.754	0.245	0.246
-192.217	-155.496	0.107	-0.007
-191.202	46.890	-0.153	-0.140
-190.187	283.949	0.193	-0.340
-189.173	99.532	-0.102	0.116
-188.158	800.000	-0.088	-0.266
-187.144	-7.951	0.363	0.240
-186.129	-200.000	0.009	0.146
-185.114	218.639	-0.152	0.238
-184.100	-200.000	-0.009	0.339
-183.085	566.061	0.164	0.391
-182.071	49.143	-0.156	0.144
-181.056	71.357	0.085	0.087
-180.042	-177.604	-0.195	0.005
-179.027	-42.969	0.092	0.046
-178.012	800.000	-0.010	0.030
-176.998	19.283	-0.144	-0.114
-175.983	-57.897	0.159	0.068
-174.969	387.211	-0.210	0.426
-173.954	-33.318	0.279	0.151
-172.939	-104.636	0.296	-0.067
-171.925	-104.012	0.192	0.044
-170.910	-53.987	-0.277	-0.124
-169.896	100.304	0.134	-0.153
-168.881	-200.000	0.004	-0.223
-167.866	-100.697	-0.208	0.050
-166.852	91.122	-0.161	-0.177
-165.837	-181.608	0.302	-0.006
-164.823	-12.655	-0.112	0.072
-163.808	800.000	-0.071	-0.271
-162.793	19.644	0.092	0.072
-161.779	-74.872	0.095	-0.033
-160.764	-116.254	0.221	0.040
-159.750	800.000	-0.045	-0.193
-158.735	-200.000	-0.020	-0.156
-157.720	-173.033	0.203	0.006
-156.706	48.397	-0.339	-0.311
-155.691	800.000	-0.057	0.200
-154.677	-200.000	0.027	0.188
-153.662	-166.144	0.199	-0.008
-152.647	800.000	-0.061	-0.198
-151.633	79.545	-0.085	-0.089
-150.618	800.000	0.024	0.095
-149.604	800.000	0.116	0.423
-148.589	-28.980	0.102	0.058
-147.574	-69.096	0.089	0.034
-146.560	-122.428	-0.202	-0.032
-145.545	800.000	0.077	0.306
-144.531	-200.000	0.085	0.472
-143.516	-35.861	-0.192	0.102
-142.502	160.132	0.154	-0.211
-141.487	51.243	-0.210	-0.195
-140.472	-167.687	-0.249	-0.010
-139.458	-200.000	0.029	0.130
-138.443	-12.080	-0.059	-0.038
-137.429	-67.247	-0.177	0.068
-136.414	-60.440	0.357	-0.149
-135.399	-46.634	0.194	-0.093
-134.385	-200.000	0.030	-0.370
-133.370	-105.931	0.104	-0.023
-132.356	-41.178	0.264	-0.134
-131.341	-123.420	-0.254	0.040
-130.326	800.000	-0.045	0.152
-129.312	800.000	-0.046	-0.127
-128.297	7.626	0.128	-0.094
-127.283	285.650	-0.127	0.224
-126.268	37.149	-0.184	-0.160
-125.253	-74.105	0.398	-0.141
-124.239	-55.538	0.175	0.077
-123.224	-200.000	0.101	0.435
-122.210	-32.573	-0.078	-0.043
-121.195	385.045	0.063	0.126
-120.180	-51.013	-0.332	-0.152
-119.166	17.886	0.306	0.239
-118.151	800.000	-0.055	0.233
-117.137	63.702	0.092	0.090
-116.122	75.124	0.154	-0.159
-115.107	800.000	-0.042	-0.130
-114.093	-78.930	0.213	0.071
-113.078	-66.748	-0.258	-0.100
-112.064	252.987	0.266	0.443
-111.049	238.219	-0.231	0.375
-110.034	-132.813	0.238	0.030
-109.020	-26.759	0.100	-0.057
-108.005	300.225	-0.237	-0.427
-106.991	-200.000	0.004	-0.121
-105.976	189.408	-0.059	0.087
-104.962	-110.382	-0.320	-0.065
-103.947	-76.064	0.245	-0.085
-102.932	-200.000	0.019	-0.295
-101.918	-64.620	-0.182	-0.072
-100.903	-200.000	-0.016	-0.183
-99.889	-200.000	0.001	-0.057
-98.874	-97.929	0.147	0.037
-97.859	-113.247	-0.114	-0.022
-96.845	-86.835	-0.015	0.004
-95.830	-91.699	0.089	0.025
-94.816	-13.426	0.104	-0.066
-93.801	-92.781	0.386	0.106
-92.786	482.244	0.077	-0.171
-91.772	-131.701	-0.382	-0.049
-90.757	-122.906	-0.371	0.058
-89.743	132.134	0.208	0.262
-88.728	-111.408	0.257	-0.051
-87.713	-171.551	-0.407	0.013
-86.699	800.000	-0.041	0.115
-85.684	-133.610	0.262	-0.032
-84.670	411.567	-0.046	0.095
-83.655	45.021	-0.073	0.065
-82.640	39.533	0.010	-0.009
-81.626	392.111	0.063	-0.129
-80.611	394.249	-0.121	-0.247
-79.597	-200.000	0.025	0.165
-78.582	159.187	-0.047	0.064
-77.567	-200.000	-0.021	0.175
-76.553	198.651	-0.116	0.174
-75.538	-45.795	-0.107	0.052
-74.524	-64.439	0.322	-0.128
-73.509	-38.443	-0.069	-0.036
-72.494	-66.334	-0.174	-0.068
-71.480	-200.000	0.011	-0.086
-70.465	-140.023	0.190	-0.020
-69.451	244.196	0.082	-0.135
-68.436	-89.901	0.356	0.102
-67.422	328.655	-0.014	-0.027
-66.407	-200.000	-0.050	-0.235
-65.392	352.539	0.070	0.135
-64.378	167.651	-0.147	-0.204
-63.363	401.865	-0.132	-0.271
-62.349	-200.000	0.026	-0.209
-61.334	68.297	-1.206	-1.207
-60.319	106.940	0.741	0.859
-59.305	532.914	-0.572	-1.322
-58.290	284.358	0.792	1.391
-57.276	800.000	0.585	1.585
-56.261	-200.000	123.818	641.061
-55.246	408.782	1562.464	3228.688
-54.232	143.190	2720.427	3533.771
-53.217	94.917	2162.025	2401.915
-52.203	34.731	1594.879	1361.286
-51.188	26.508	1338.190	1092.735
-50.173	23.994	1300.961	1047.512
-49.159	51.139	1370.304	1268.828
-48.144	48.734	1381.141	1264.279
-47.130	26.707	1329.611	1086.753
-46.115	23.411	1310.922	1051.907
-45.100	23.198	1305.969	1046.634
-44.086	23.239	1303.497	1044.851
-43.071	23.153	1300.660	1042.029
-42.057	23.020	1299.043	1039.908
-41.042	23.150	1297.024	1039.016
-40.027	23.194	1295.847	1038.293
-39.013	23.300	1293.553	1037.033
-37.998	23.316	1291.523	1035.458
-36.984	23.338	1290.009	1034.333
-35.969	23.222	1288.799	1032.644
-34.954	23.241	1287.177	1031.413
-33.940	23.335	1285.609	1030.665
-32.925	23.312	1284.519	1029.614
-31.911	23.356	1282.884	1028.516
-30.896	23.415	1281.667	1027.846
-29.881	23.319	1280.634	1026.417
-28.867	23.387	1278.799	1025.300
-27.852	23.406	1277.748	1024.526
-26.838	23.473	1276.110	1023.561
-25.823	23.359	1274.714	1021.743
-24.809	23.446	1273.308	1021.078
-23.794	23.438	1271.631	1019.647
-22.779	23.429	1270.390	1018.557
-21.765	23.577	1269.011	1018.259
-20.750	23.422	1267.940	1016.472
-19.736	23.359	1266.960	1015.287
-18.721	23.352	1265.945	1014.393
-17.706	23.294	1265.080	1013.326
-16.692	23.186	1263.551	1011.447
-15.677	23.262	1262.426	1010.939
-14.663	23.210	1261.259	1009.664
-13.648	23.273	1260.168	1009.113
-12.633	23.332	1259.408	1008.798
-11.619	23.206	1258.710	1007.481
-10.604	23.152	1258.120	1006.662
-9.590	23.253	1256.942	1006.254
-8.575	23.150	1256.096	1004.956
-7.560	23.198	1255.170	1004.442
-6.546	23.305	1254.222	1004.251
-5.531	23.210	1253.649	1003.218
-4.517	23.244	1252.717	1002.622
-3.502	23.303	1251.696	1002.101
-2.487	23.264	1251.159	1001.409
-1.473	23.188	1246.749	997.413
-0.458	21.839	1231.567	977.711
0.556	16.884	1217.221	942.566
1.571	13.636	1224.483	929.908
2.586	13.012	1240.316	938.304
3.600	13.097	1228.381	929.671
4.615	9.669	1155.859	856.516
5.629	3.234	1085.090	771.824
6.644	0.395	1068.002	745.581
7.659	0.108	1066.401	742.978
8.673	0.134	1065.412	742.353
9.688	0.073	1064.053	741.037
10.702	0.200	1061.771	740.009
11.717	4.095	1066.306	762.297
12.731	11.203	1075.676	804.113
13.746	15.725	1081.087	830.463
14.761	16.733	1081.647	835.800
15.775	15.984	1080.262	830.961
16.790	14.930	1078.596	824.411
17.804	14.245	1076.743	819.552
18.819	13.862	1076.148	817.144
19.834	13.825	1074.834	815.889
20.848	13.547	1073.841	813.700
21.863	13.323	1072.881	811.798
22.877	13.239	1072.255	810.841
23.892	13.066	1071.411	809.284
24.907	13.101	1070.974	809.056
25.921	13.254	1069.384	808.528
26.936	13.132	1068.799	807.420
27.950	13.159	1068.086	806.942
28.965	13.221	1066.570	806.030
29.980	13.322	1065.528	805.660
30.994	13.314	1064.749	804.962
32.009	13.358	1063.674	804.292
33.023	13.308	1062.691	803.235
34.038	13.247	1062.030	802.367
35.053	13.301	1060.679	801.539
36.067	13.286	1059.706	800.660
37.082	13.288	1058.877	799.969
38.096	13.256	1058.428	799.406
39.111	13.272	1057.575	798.766
40.126	13.344	1056.042	797.888
41.140	13.133	1055.067	796.064
42.155	13.108	1054.128	795.162
43.169	13.132	1052.851	794.245
44.184	13.010	1052.180	793.083
45.199	13.142	1050.728	792.553
46.213	13.126	1049.301	791.329
47.228	13.161	1048.992	791.196
48.242	13.227	1047.760	790.512
49.257	13.233	1046.830	789.767
50.271	13.353	1045.422	789.205
51.286	13.186	1044.951	787.984
52.301	13.242	1043.681	787.223
53.315	13.128	1043.057	786.141
54.330	13.177	1041.629	785.228
55.344	13.247	1041.130	785.117
56.359	13.190	1040.274	784.128
57.374	13.150	1039.259	783.105
58.388	13.034	1038.568	781.968
59.403	13.059	1037.562	781.260
60.417	13.085	1036.698	780.663
61.432	13.003	1036.102	779.758
62.447	13.021	1035.403	779.248
63.461	13.003	1034.370	778.317
64.476	12.961	1033.677	777.530
65.490	12.949	1032.800	776.742
66.505	13.089	1031.917	776.669
67.520	13.186	1031.294	776.588
68.534	13.176	1030.130	775.595
69.549	13.142	1030.196	775.415
70.563	13.119	1028.715	774.124
71.578	13.040	1027.719	772.939
72.593	12.943	1027.264	772.071
73.607	12.947	1026.621	771.538
74.622	12.933	1026.319	771.178
75.636	13.013	1025.356	770.760
76.651	13.030	1024.529	770.152
77.666	12.962	1024.446	769.702
78.680	12.983	1023.599	769.094
79.695	12.992	1022.892	768.539
80.709	13.175	1021.932	768.599
81.724	13.047	1021.511	767.618
82.739	13.174	1020.900	767.684
83.753	13.191	1019.970	766.994
84.768	13.366	1018.707	766.789
85.782	13.379	1017.712	766.033
86.797	13.361	1017.027	765.366
87.812	13.171	1016.160	763.768
88.826	13.258	1014.939	763.184
89.841	13.283	1014.484	762.889
90.855	13.348	1013.372	762.286
91.870	13.262	1013.117	761.630
92.884	13.229	1012.112	760.656
93.899	13.306	1011.405	760.411
94.914	13.342	1010.139	759.556
95.928	13.460	1009.031	759.199
96.943	13.382	1008.465	758.349
97.957	13.276	1008.045	757.478
98.972	13.267	1007.075	756.640
99.987	13.278	1006.028	755.839
101.001	13.337	1004.748	755.080
102.016	13.284	1004.277	754.414
103.030	13.385	1003.102	753.928
104.045	13.333	1003.103	753.624
105.060	13.279	1001.888	752.401
106.074	13.117	1001.313	751.162
107.089	13.149	1000.107	750.340
108.103	13.251	998.461	749.497
109.118	13.278	998.017	749.219
110.133	13.100	997.350	747.849
111.147	13.203	996.499	747.612
112.162	13.223	995.240	746.688
113.176	13.164	995.103	746.256
114.191	13.157	994.528	745.725
115.206	13.201	993.286	744.925
116.220	13.301	992.008	744.354
117.235	13.180	991.751	743.548
118.249	13.268	990.832	743.189
119.264	13.205	990.032	742.240
120.279	13.209	989.446	741.754
121.293	13.293	988.364	741.253
122.308	13.146	987.965	740.232
123.322	13.160	986.494	739.125
124.337	13.245	985.130	738.419
125.352	13.160	984.538	737.532
126.366	13.286	983.172	737.001
127.381	13.187	982.301	735.843
128.395	13.055	981.544	734.623
129.410	13.284	979.949	734.383
130.424	13.269	979.486	733.906
131.439	13.174	979.098	733.127
132.454	13.356	978.002	733.048
133.468	13.358	976.828	732.113
134.483	13.228	976.484	731.214
135.497	13.370	975.411	730.975
136.512	13.385	974.661	730.413
137.527	13.359	973.805	729.594
138.541	13.258	973.210	728.637
139.556	13.297	972.416	728.150
140.570	13.447	971.689	728.202
141.585	13.322	971.150	727.181
142.600	13.439	969.944	726.729
143.614	13.491	969.242	726.369
144.629	13.510	968.392	725.750
145.643	13.451	967.313	724.618
146.658	13.542	966.243	724.150
147.673	13.355	965.615	722.800
148.687	13.389	964.703	722.202
149.702	13.296	963.611	720.915
150.716	13.385	963.059	720.824
151.731	13.324	962.279	719.914
152.746	13.452	961.941	720.152
153.760	13.459	961.451	719.750
154.775	13.556	960.271	719.225
155.789	13.551	959.837	718.817
156.804	13.559	959.135	718.260
157.819	13.392	958.835	717.249
158.833	13.541	957.818	717.070
159.848	13.590	957.074	716.661
160.862	13.586	956.213	715.937
161.877	13.497	955.298	714.801
162.892	13.515	954.297	714.068
163.906	13.572	953.541	713.686
164.921	13.736	952.163	713.298
165.935	13.554	952.003	712.331
166.950	13.592	950.762	711.501
167.964	13.621	950.024	711.010
168.979	13.630	948.863	710.119
169.994	13.574	948.255	709.362
171.008	13.577	948.037	709.147
172.023	13.714	947.029	708.918
173.037	13.788	946.330	708.648
174.052	13.684	945.444	707.476
175.067	13.686	944.855	706.983
176.081	13.670	944.280	706.423
177.096	13.777	943.459	706.201
178.110	13.662	943.039	705.335
179.125	13.606	942.689	704.772
180.140	13.786	941.582	704.644
181.154	13.771	941.285	704.297
182.169	13.912	940.662	704.369
183.183	13.651	940.627	703.171
184.198	13.787	939.258	702.661
185.213	13.835	938.808	702.468
186.227	13.857	938.082	701.953
187.242	13.968	937.248	701.737
188.256	13.909	936.658	700.985
189.271	13.845	936.128	700.257
190.286	13.705	934.882	698.672
191.300	13.687	934.385	698.162
192.315	13.613	934.201	697.650
193.329	13.807	933.460	697.851
194.344	13.832	932.820	697.419
195.359	13.831	932.070	696.792
196.373	13.946	930.819	696.277
197.388	13.852	931.223	696.122
198.402	14.032	930.728	696.447
199.417	13.968	929.820	695.436
200.432	14.119	929.359	695.663
201.446	14.159	928.969	695.475
202.461	14.098	928.482	694.793
203.475	14.192	927.987	694.755
204.490	14.150	926.828	693.650
205.504	14.235	926.005	693.329
206.519	14.106	925.313	692.210
207.534	14.114	924.748	691.760
208.548	14.098	924.069	691.123
209.563	14.191	923.348	690.911
210.577	14.153	922.638	690.161
211.592	14.151	922.336	689.865
212.607	14.270	921.213	689.455
213.621	14.412	920.380	689.358
214.636	14.222	920.106	688.307
215.650	14.136	919.539	687.466
216.665	14.391	918.605	687.762
217.680	14.227	918.148	686.681
218.694	14.342	917.244	686.417
219.709	14.349	916.408	685.759
220.723	14.354	915.546	685.077
221.738	14.315	915.354	684.709
222.753	14.309	914.267	683.814
223.767	14.469	914.141	684.314
224.782	14.450	913.406	683.628
225.796	14.490	912.903	683.353
226.811	14.429	912.043	682.399
227.826	14.416	911.462	681.851
228.840	14.369	910.909	681.183
229.855	14.426	909.891	680.596
230.869	14.400	909.034	679.790
231.884	14.310	908.765	679.160
232.899	14.545	907.652	679.228
233.913	14.333	907.155	677.930
234.928	14.453	906.347	677.753
235.942	14.546	905.706	677.594
236.957	14.524	905.132	677.013
237.972	14.441	904.880	676.429
238.986	14.488	904.168	676.027
240.001	14.461	903.606	675.436
241.015	14.509	902.910	675.052
242.030	14.497	902.407	674.569
243.045	14.637	901.387	674.313
244.059	14.664	900.848	673.959
245.074	14.693	900.149	673.494
246.088	14.648	899.457	672.735
247.103	14.601	899.204	672.295
248.117	14.719	898.654	672.302
249.132	14.882	897.732	672.205
250.147	14.791	897.109	671.315
251.161	14.807	896.554	670.906
252.176	14.839	895.462	670.154
253.190	14.932	894.997	670.123
254.205	14.931	894.260	669.505
255.220	14.867	893.931	668.944
256.234	15.012	893.254	668.960
257.249	14.905	892.309	667.765
258.263	15.012	891.682	667.663
259.278	15.011	890.952	667.054
260.293	15.060	890.354	666.742
261.307	15.059	890.005	666.419
262.322	15.091	889.485	666.096
263.336	14.968	888.890	665.103
264.351	15.162	887.487	664.766
265.366	15.137	887.087	664.305
266.380	15.124	886.480	663.742
267.395	15.153	885.927	663.385
268.409	15.089	885.164	662.499
269.424	15.182	884.102	662.016
270.439	15.247	883.272	661.590
271.453	15.174	883.157	661.158
272.468	15.051	882.574	660.177
273.482	15.182	881.874	660.114
274.497	15.110	881.557	659.534
275.512	15.205	880.639	659.163
276.526	15.288	880.613	659.411
277.541	15.243	879.849	658.603
278.555	15.291	879.181	658.235
279.570	15.318	878.296	657.620
280.585	15.171	877.852	656.653
281.599	15.384	876.704	656.568
282.614	15.467	876.132	656.405
283.628	15.302	875.951	655.569
284.643	15.363	875.126	655.129
285.657	15.417	874.529	654.837
286.672	15.492	873.776	654.505
287.687	15.460	873.061	653.790
288.701	15.581	872.674	653.912
289.716	15.353	872.173	652.591
290.730	15.569	871.497	652.869
291.745	15.608	870.867	652.491
292.760	15.608	870.152	651.899
293.774	15.671	869.414	651.529
294.789	15.566	869.228	650.925
295.803	15.547	868.432	650.201
296.818	15.579	867.669	649.694
297.833	15.626	866.827	649.189
298.847	15.770	866.445	649.402
299.862	15.506	866.026	648.009
300.876	15.694	865.246	648.093
301.891	15.644	864.848	647.544
302.906	15.637	864.481	647.188
303.920	15.713	863.583	646.749
304.935	15.802	863.033	646.622
305.949	15.798	862.863	646.424
306.964	15.732	862.133	645.564
307.979	15.861	861.370	645.432
308.993	15.851	860.593	644.754
310.008	15.841	860.174	644.345
311.022	15.760	859.485	643.462
312.037	15.881	859.024	643.524
313.052	15.634	858.751	642.318
314.066	15.794	857.673	642.063
315.081	15.782	857.188	641.600
316.095	15.722	856.737	640.973
317.110	15.721	856.136	640.466
318.125	15.834	855.476	640.344
319.139	15.890	854.976	640.126
320.154	15.846	854.697	639.694
321.168	16.035	854.249	640.018
322.183	15.925	853.426	638.931
323.197	15.969	853.179	638.856
324.212	15.903	852.791	638.259
325.227	15.989	852.201	638.084
326.241	15.923	851.341	637.133
327.256	15.977	850.821	636.893
328.270	16.057	850.193	636.669
329.285	15.896	849.755	635.676
330.300	15.998	848.896	635.362
331.314	15.941	848.413	634.728
332.329	16.245	847.575	635.190
333.343	16.011	847.573	634.252
334.358	15.901	847.236	633.532
335.373	15.973	846.909	633.499
336.387	15.990	846.466	633.177
337.402	16.175	846.225	633.635
338.416	16.202	845.782	633.349
339.431	16.025	845.615	632.503
340.446	16.245	844.703	632.590
341.460	16.421	844.534	633.067
342.475	16.413	843.961	632.551
343.489	16.333	843.748	632.037
344.504	16.401	843.045	631.707
345.519	16.440	842.548	631.428
346.533	16.249	842.439	630.575
347.548	16.368	841.637	630.362
348.562	16.333	841.097	629.774
349.577	16.382	840.498	629.452
350.592	16.389	839.590	628.743
351.606	16.311	839.254	628.144
352.621	16.222	838.633	627.294
353.635	16.328	838.086	627.223
354.650	16.327	837.456	626.693
355.665	16.494	836.386	626.452
356.679	16.355	835.997	625.593
357.694	16.379	835.771	625.456
358.708	16.529	834.885	625.293
359.723	16.543	834.350	624.888
360.738	16.474	833.791	624.159
361.752	16.575	832.983	623.872
362.767	16.532	832.784	623.511
363.781	16.542	832.066	622.954
364.796	16.582	831.634	622.724
365.810	16.743	831.010	622.793
366.825	16.723	830.522	622.299
367.840	16.737	830.145	622.013
368.854	16.684	829.247	621.090
369.869	16.770	829.258	621.358
370.883	16.708	828.755	620.698
371.898	16.874	828.570	621.115
372.913	16.802	828.258	620.561
373.927	16.721	828.035	620.043
374.942	16.937	827.079	620.063
375.956	16.850	827.123	619.723
376.971	16.895	826.416	619.303
377.986	16.860	826.255	618.997
379.000	16.932	825.628	618.735
380.015	16.817	825.309	618.022
381.029	16.935	824.299	617.642
382.044	16.905	823.983	617.242
383.059	17.096	823.093	617.213
384.073	16.951	822.411	616.121
385.088	17.026	822.122	616.124
386.102	17.075	821.277	615.612
387.117	16.918	820.907	614.711
388.132	16.966	820.742	614.706
389.146	16.880	820.145	613.895
390.161	17.150	819.332	614.210
391.175	17.132	818.995	613.836
392.190	17.125	818.154	613.126
393.205	17.144	817.846	612.911
394.219	16.989	817.846	612.297
395.234	16.950	817.551	611.880
396.248	17.091	816.603	611.624
397.263	17.169	816.359	611.668
398.278	17.023	816.070	610.874
399.292	17.100	815.410	610.601
400.307	17.151	815.221	610.591
401.321	16.963	814.819	609.559
402.336	17.221	814.149	609.929
403.350	17.218	813.431	609.327
404.365	17.197	813.094	608.945
405.380	17.190	812.770	608.624
406.394	17.169	812.041	607.948
407.409	17.375	811.687	608.367
408.423	17.342	811.562	608.101
409.438	17.408	811.174	607.993
410.453	17.327	810.706	607.300
411.467	17.436	810.334	607.358
412.482	17.467	809.773	606.992
413.496	17.466	809.404	606.657
414.511	17.454	809.141	606.366
415.526	17.489	808.718	606.120
416.540	17.658	807.828	606.000
417.555	17.474	807.520	605.059
418.569	17.571	807.055	605.004
419.584	17.511	806.560	604.366
420.599	17.519	806.550	604.333
421.613	113.397	1299.409	1486.793
422.628	97.894	1371.205	1486.870
