DTS Sentinel unit serial number:	SN413079Multiplexer serial number:	ORYXHardware model number:	OX4-SRSoftware version number:	ORYX F/W v4.00 Oryx Data Collector v3.7.2.0data status	okinstallation	princeton_trtdifferential loss correction	single-endedforward channel	channel 1reverse channel	N/Adate	2019/09/18time	00:14:35forward acquisition time	60.00reverse acquisition time	0.00gamma	496.2192k internal	0.2340k external	0.2340temperature offset calibration	0.9978default loss term (dB/km)	0.3790temperature slope calibration	1.0000multiplexer offset coefficient	1.0000multiplexer slope coefficient	1.0000fibre end	0.00T internal ref (°C)	23.69T ext. ref 1 (°C)	0.17T ext. ref 2 (°C)	17.27length (m)	temperature (°C)	Stokes	anti-Stokes-747.200	-185.121	0.182	0.003
-746.185	92.049	-0.177	-0.199
-745.171	-200.000	0.020	-0.311
-744.156	-17.535	-0.352	0.222
-743.142	-21.809	0.063	-0.038
-742.127	416.979	-0.037	0.080
-741.112	-40.979	0.266	0.138
-740.098	800.000	0.139	0.418
-739.083	800.000	-0.028	-0.081
-738.069	-200.000	0.017	0.143
-737.054	-64.906	0.193	0.078
-736.039	-107.592	-0.448	-0.098
-735.025	-85.052	0.441	0.138
-734.010	-58.816	-0.506	-0.219
-732.996	-1.158	0.121	0.086
-731.981	-121.166	0.406	-0.068
-730.966	-176.790	0.069	-0.002
-729.952	800.000	0.087	0.244
-728.937	480.577	0.084	-0.191
-727.923	-200.000	-0.007	-0.230
-726.908	62.840	-0.030	0.030
-725.894	-11.748	0.215	0.141
-724.879	-86.439	-0.139	0.043
-723.864	-200.000	-0.015	0.255
-722.850	120.600	0.110	0.137
-721.835	-117.255	-0.391	0.071
-720.821	241.254	-0.114	-0.191
-719.806	800.000	0.154	-0.463
-718.791	-200.000	-0.016	0.096
-717.777	-125.463	0.088	0.013
-716.762	-55.629	0.252	0.113
-715.748	-200.000	0.010	0.220
-714.733	-200.000	0.025	0.285
-713.718	-126.811	-0.309	0.046
-712.704	-200.000	-0.004	0.093
-711.689	800.000	-0.073	-0.207
-710.675	-54.644	0.335	0.151
-709.660	473.480	-0.068	-0.154
-708.645	800.000	0.076	-0.283
-707.631	500.793	-0.168	-0.389
-706.616	-200.000	0.016	0.277
-705.602	-2.567	-0.162	-0.113
-704.587	-56.982	0.183	0.081
-703.572	-120.483	-0.250	0.042
-702.558	800.000	-0.054	-0.201
-701.543	528.460	-0.054	0.128
-700.529	-113.270	-0.241	0.047
-699.514	130.497	-0.036	-0.046
-698.499	12.178	-0.118	0.091
-697.485	19.726	0.242	-0.195
-696.470	-127.983	-0.126	-0.018
-695.456	800.000	-0.086	-0.246
-694.441	-36.285	0.164	-0.088
-693.426	242.452	0.189	0.316
-692.412	-188.494	-0.252	0.003
-691.397	439.466	-0.138	-0.302
-690.383	66.614	0.140	-0.142
-689.368	538.894	-0.090	0.215
-688.354	18.159	0.152	0.121
-687.339	-56.663	-0.007	0.003
-686.324	35.033	0.089	0.078
-685.310	243.611	0.226	0.378
-684.295	800.000	0.021	0.075
-683.281	800.000	-0.045	0.166
-682.266	15.275	0.156	-0.122
-681.251	-200.000	-0.006	0.150
-680.237	11.739	0.049	-0.038
-679.222	-33.959	-0.068	-0.038
-678.208	-191.292	0.070	-0.001
-677.193	-47.705	-0.322	0.156
-676.178	-27.019	0.127	0.074
-675.164	-111.789	-0.380	0.077
-674.149	213.364	-0.105	0.166
-673.135	667.316	-0.088	0.228
-672.120	-1.209	0.438	0.309
-671.105	-82.245	-0.136	0.044
-670.091	-103.047	0.245	0.058
-669.076	-61.876	-0.311	0.130
-668.062	-72.733	-0.272	0.100
-667.047	-167.206	0.147	-0.006
-666.032	335.032	-0.050	0.096
-665.018	-8.587	0.185	-0.124
-664.003	-148.474	0.275	-0.023
-662.989	-40.516	-0.140	-0.073
-661.974	-6.277	-0.097	0.066
-660.959	-200.000	-0.022	0.151
-659.945	38.038	0.010	-0.009
-658.930	-200.000	0.002	0.181
-657.916	13.654	-0.281	-0.218
-656.901	-200.000	-0.017	-0.255
-655.886	-81.774	-0.129	-0.042
-654.872	800.000	0.067	-0.237
-653.857	-66.863	-0.313	-0.124
-652.843	-66.204	0.032	-0.013
-651.828	44.997	0.089	0.082
-650.814	-200.000	0.040	0.241
-649.799	12.706	0.240	-0.185
-648.784	-60.036	0.239	0.102
-647.770	208.565	-0.127	-0.198
-646.755	599.073	-0.083	0.206
-645.741	-200.000	0.025	0.319
-644.726	274.430	0.099	0.175
-643.711	-200.000	-0.124	0.000
-642.697	-127.911	0.064	-0.009
-641.682	-108.275	0.467	0.101
-640.668	273.040	-0.135	0.238
-639.653	239.481	0.191	0.318
-638.638	-200.000	0.006	-0.236
-637.624	293.621	0.200	-0.364
-636.609	1.110	0.173	-0.124
-635.595	-200.000	0.010	0.202
-634.580	-144.522	-0.119	0.011
-633.565	-117.737	0.279	-0.050
-632.551	67.622	-0.110	0.112
-631.536	153.773	-0.261	-0.357
-630.522	-200.000	-0.093	0.545
-629.507	52.448	0.261	-0.249
-628.492	26.339	0.148	0.123
-627.478	-200.000	0.034	0.165
-626.463	22.336	0.166	-0.135
-625.449	-200.000	-0.020	-0.214
-624.434	19.746	0.450	-0.362
-623.419	-114.446	-0.100	0.019
-622.405	74.542	0.203	-0.213
-621.390	-200.000	0.003	-0.039
-620.376	-68.487	-0.102	0.039
-619.361	67.634	-0.233	-0.237
-618.346	-200.000	0.023	-0.198
-617.332	32.053	0.141	-0.122
-616.317	-6.350	0.250	-0.170
-615.303	23.405	-0.367	0.301
-614.288	-148.462	0.194	-0.016
-613.273	528.183	0.054	-0.128
-612.259	-122.157	-0.231	-0.038
-611.244	-52.813	-0.191	-0.088
-610.230	31.332	0.101	-0.086
-609.215	-149.508	-0.372	0.029
-608.201	-128.421	0.439	-0.062
-607.186	-157.126	0.269	0.016
-606.171	-52.965	-0.167	0.076
-605.157	171.565	0.114	-0.163
-604.142	369.224	0.083	0.167
-603.128	508.015	-0.043	0.100
-602.113	-116.467	-0.248	-0.046
-601.098	800.000	0.005	-0.017
-600.084	-85.441	-0.180	-0.056
-599.069	710.407	-0.046	0.121
-598.055	-2.188	0.087	0.061
-597.040	800.000	-0.059	0.185
-596.025	-200.000	-0.063	-0.370
-595.011	633.592	0.078	0.197
-593.996	-200.000	0.009	-0.087
-592.982	-27.601	0.073	0.042
-591.967	500.195	-0.076	0.175
-590.952	-200.000	-0.052	0.252
-589.938	194.563	-0.174	-0.263
-588.923	195.026	0.125	-0.190
-587.909	-13.446	-0.154	-0.099
-586.894	131.824	0.118	-0.151
-585.879	426.706	-0.049	-0.105
-584.865	-200.000	0.031	-0.205
-583.850	-200.000	-0.001	0.068
-582.836	-11.714	-0.316	0.207
-581.821	-73.647	0.180	0.065
-580.806	-60.525	0.137	0.058
-579.792	244.294	-0.068	-0.115
-578.777	-34.760	-0.227	-0.124
-577.763	-41.314	-0.087	0.045
-576.748	-200.000	-0.048	-0.365
-575.733	-105.375	0.169	-0.038
-574.719	-138.733	-0.566	-0.062
-573.704	557.870	0.131	0.315
-572.690	-145.901	0.220	-0.019
-571.675	771.223	-0.123	-0.333
-570.661	284.748	-0.153	-0.274
-569.646	-200.000	-0.063	0.303
-568.631	-24.121	-0.144	-0.086
-567.617	66.231	0.235	-0.238
-566.602	-13.676	0.289	0.186
-565.588	-122.171	0.005	-0.001
-564.573	76.580	0.069	0.073
-563.558	-200.000	0.044	-0.221
-562.544	800.000	0.124	-0.345
-561.529	-162.073	-0.379	-0.019
-560.515	-157.114	0.323	-0.020
-559.500	800.000	0.024	-0.067
-558.485	-200.000	0.007	0.106
-557.471	230.359	0.029	0.047
-556.456	-200.000	0.011	0.141
-555.442	409.334	0.079	0.166
-554.427	-120.880	0.203	-0.034
-553.412	800.000	0.051	-0.200
-552.398	-70.302	-0.184	-0.069
-551.383	800.000	-0.028	-0.090
-550.369	-200.000	-0.007	0.047
-549.354	37.013	0.244	0.214
-548.339	-50.286	-0.201	-0.094
-547.325	800.000	-0.103	-0.429
-546.310	-165.451	-0.415	-0.018
-545.296	-95.944	0.147	0.039
-544.281	-200.000	0.030	0.266
-543.266	74.217	0.068	0.071
-542.252	182.928	-0.083	0.123
-541.237	-101.749	-0.187	0.045
-540.223	354.629	0.086	0.170
-539.208	286.525	-0.182	0.327
-538.193	-200.000	-0.036	0.395
-537.179	136.868	0.083	-0.107
-536.164	-149.198	-0.199	-0.016
-535.150	-101.187	-0.182	0.044
-534.135	111.815	0.073	-0.087
-533.121	-54.183	-0.119	0.054
-532.106	334.152	0.154	-0.297
-531.091	-114.128	-0.159	0.031
-530.077	800.000	0.054	0.208
-529.062	265.615	0.098	0.169
-528.048	210.414	-0.023	0.037
-527.033	-41.016	0.219	-0.113
-526.018	452.573	0.037	0.082
-525.004	270.453	0.098	-0.172
-523.989	-141.811	-0.131	0.013
-522.975	-141.608	-0.221	-0.022
-521.960	-72.152	0.159	0.059
-520.945	-101.786	0.161	-0.039
-519.931	164.481	-0.074	0.104
-518.916	11.735	0.333	0.254
-517.902	261.051	-0.263	0.453
-516.887	-200.000	-0.029	-0.172
-515.872	93.907	-0.217	0.245
-514.858	-200.000	0.009	-0.398
-513.843	325.133	0.037	0.071
-512.829	-146.470	0.437	-0.038
-511.814	-200.000	-0.006	0.469
-510.799	800.000	-0.038	-0.136
-509.785	31.651	-0.241	-0.206
-508.770	-122.381	-0.103	-0.017
-507.756	-101.159	0.142	0.034
-506.741	34.454	0.180	-0.157
-505.726	800.000	-0.089	-0.319
-504.712	800.000	-0.051	0.191
-503.697	-118.672	0.179	0.031
-502.683	-105.310	0.198	-0.045
-501.668	800.000	-0.063	0.206
-500.653	36.079	-0.129	-0.113
-499.639	5.417	-0.281	0.206
-498.624	-156.747	-0.276	-0.017
-497.610	-135.681	-0.230	-0.027
-496.595	800.000	0.089	0.297
-495.581	-180.268	-0.023	0.000
-494.566	-61.300	-0.184	0.077
-493.551	162.516	-0.092	0.129
-492.537	800.000	0.135	0.371
-491.522	-139.106	0.299	0.032
-490.508	258.326	-0.144	0.246
-489.493	-94.124	-0.059	0.016
-488.478	-15.866	0.195	0.123
-487.464	-11.817	-0.195	0.127
-486.449	93.306	0.179	0.201
-485.435	-6.198	0.129	-0.087
-484.420	800.000	-0.076	-0.210
-483.405	-200.000	0.011	0.050
-482.391	343.487	-0.032	0.062
-481.376	115.320	0.143	0.174
-480.362	-200.000	-0.010	-0.184
-479.347	-16.210	-0.049	-0.031
-478.332	582.889	-0.041	0.101
-477.318	170.335	0.074	-0.106
-476.303	47.581	-0.120	-0.111
-475.289	-6.784	-0.198	0.133
-474.274	24.227	0.314	0.257
-473.259	-147.945	0.081	0.007
-472.245	150.257	-0.199	0.268
-471.230	133.192	-0.123	-0.157
-470.216	-64.460	-0.219	-0.088
-469.201	-19.683	-0.287	-0.176
-468.186	-200.000	0.006	-0.062
-467.172	-1.131	0.066	0.046
-466.157	-200.000	-0.025	-0.334
-465.143	346.013	0.185	-0.360
-464.128	-24.536	0.157	-0.093
-463.113	-50.920	-0.107	0.050
-462.099	800.000	-0.044	0.173
-461.084	620.402	0.031	-0.077
-460.070	-96.289	-0.543	-0.143
-459.055	-110.838	-0.113	0.023
-458.040	69.922	-0.063	0.064
-457.026	21.063	0.069	0.056
-456.011	-143.327	-0.186	0.018
-454.997	101.442	-0.169	0.195
-453.982	-63.054	0.220	0.090
-452.968	-84.968	-0.146	0.045
-451.953	-3.245	-0.214	0.148
-450.938	-200.000	-0.015	-0.176
-449.924	-78.852	-0.330	-0.111
-448.909	8.934	0.208	-0.155
-447.895	-200.000	-0.004	0.025
-446.880	-200.000	-0.020	-0.143
-445.865	468.962	0.059	-0.131
-444.851	-21.562	-0.328	-0.198
-443.836	800.000	0.013	-0.044
-442.822	30.115	-0.178	-0.151
-441.807	167.864	-0.067	-0.095
-440.792	782.287	0.054	0.147
-439.778	92.821	0.144	-0.161
-438.763	800.000	0.027	0.088
-437.749	-172.089	-0.144	0.005
-436.734	40.682	0.233	0.208
-435.719	155.089	0.193	-0.262
-434.705	-16.748	-0.105	0.066
-433.690	-200.000	-0.005	0.290
-432.676	-27.971	0.037	-0.021
-431.661	254.209	0.071	0.120
-430.646	-9.454	0.268	0.177
-429.632	767.092	0.031	-0.084
-428.617	94.699	-0.113	-0.127
-427.603	15.854	-0.229	-0.178
-426.588	34.485	0.110	0.095
-425.573	-136.769	-0.147	-0.017
-424.559	197.003	-0.154	-0.232
-423.544	91.963	0.181	-0.201
-422.530	414.607	0.089	-0.188
-421.515	-103.392	-0.174	-0.040
-420.500	-200.000	0.034	-0.163
-419.486	157.367	0.072	-0.098
-418.471	320.980	-0.052	0.097
-417.457	-0.023	0.124	0.087
-416.442	800.000	-0.058	-0.235
-415.428	-39.615	0.105	-0.054
-414.413	104.230	-0.158	0.184
-413.398	-4.194	-0.144	0.099
-412.384	13.613	0.216	-0.166
-411.369	-200.000	-0.008	0.120
-410.355	154.968	-0.094	-0.128
-409.340	-43.211	-0.113	-0.056
-408.325	185.474	-0.189	0.277
-407.311	45.239	0.109	-0.100
-406.296	233.669	0.014	-0.023
-405.282	-107.121	0.300	0.065
-404.267	-126.391	-0.138	0.020
-403.252	-63.776	-0.138	0.056
-402.238	-91.496	0.139	-0.039
-401.223	53.638	-0.251	-0.238
-400.209	-71.113	0.128	-0.047
-399.194	-50.499	0.026	-0.012
-398.179	588.888	-0.091	-0.221
-397.165	-200.000	0.027	0.140
-396.150	-76.513	0.179	-0.062
-395.136	65.714	0.112	0.112
-394.121	227.272	-0.049	-0.078
-393.106	206.885	-0.124	0.191
-392.092	-122.524	0.193	-0.031
-391.077	-35.181	0.034	-0.018
-390.063	-87.915	0.373	-0.111
-389.048	375.573	-0.111	-0.224
-388.033	23.394	-0.119	-0.097
-387.019	232.896	0.152	-0.247
-386.004	314.433	-0.010	0.018
-384.990	152.755	-0.183	0.247
-383.975	170.477	0.136	-0.192
-382.960	800.000	-0.064	-0.220
-381.946	-45.364	-0.155	-0.076
-380.931	5.748	-0.329	-0.241
-379.917	87.809	-0.097	-0.106
-378.902	-83.390	0.206	0.065
-377.888	800.000	0.029	-0.113
-376.873	-14.122	0.269	-0.171
-375.858	-5.833	-0.235	-0.159
-374.844	221.782	0.185	-0.294
-373.829	-111.045	0.135	0.027
-372.815	87.956	0.063	0.069
-371.800	125.592	-0.199	0.249
-370.785	348.607	-0.017	0.033
-369.771	-200.000	0.038	-0.329
-368.756	-155.162	-0.246	-0.016
-367.742	-142.523	-0.018	-0.002
-366.727	800.000	0.088	0.286
-365.712	-200.000	0.003	0.149
-364.698	0.525	-0.318	0.224
-363.683	-54.907	-0.133	-0.059
-362.669	-97.726	-0.172	0.044
-361.654	730.652	0.135	-0.358
-360.639	-71.877	-0.129	-0.047
-359.625	-125.221	0.241	0.036
-358.610	130.342	-0.116	0.146
-357.596	-185.150	0.262	0.004
-356.581	-200.000	-0.040	-0.184
-355.566	122.864	-0.206	0.255
-354.552	-200.000	-0.038	-0.188
-353.537	-25.835	-0.127	-0.074
-352.523	-200.000	0.028	-0.202
-351.508	-86.552	-0.089	0.027
-350.493	181.602	-0.079	0.115
-349.479	174.905	-0.060	-0.086
-348.464	-200.000	0.017	-0.144
-347.450	800.000	0.093	0.272
-346.435	-107.007	0.226	0.049
-345.420	-200.000	0.033	0.145
-344.406	-56.375	0.087	-0.038
-343.391	-200.000	0.004	-0.218
-342.377	-200.000	-0.020	-0.188
-341.362	15.209	-0.233	0.180
-340.348	-23.570	-0.231	-0.137
-339.333	231.253	0.105	0.169
-338.318	423.117	0.053	-0.112
-337.304	-200.000	0.004	0.320
-336.289	800.000	0.096	0.349
-335.275	-136.184	-0.099	0.011
-334.260	800.000	0.054	-0.154
-333.245	-32.367	-0.141	-0.078
-332.231	-200.000	-0.020	0.151
-331.216	-0.561	0.216	-0.151
-330.202	800.000	-0.072	0.204
-329.187	-187.090	-0.331	0.004
-328.172	-82.945	0.162	-0.051
-327.158	133.264	-0.061	-0.078
-326.143	800.000	-0.149	-0.480
-325.129	-69.467	0.300	0.113
-324.114	-200.000	0.049	-0.460
-323.099	-36.262	0.122	-0.065
-322.085	-200.000	0.031	0.288
-321.070	-200.000	-0.009	0.212
-320.056	-200.000	0.027	0.192
-319.041	-86.784	-0.177	0.053
-318.026	-24.301	-0.214	-0.126
-317.012	527.584	-0.043	-0.100
-315.997	-200.000	0.053	0.256
-314.983	-146.340	0.196	0.017
-313.968	197.132	-0.111	0.167
-312.953	-157.175	0.134	0.008
-311.939	441.087	0.122	0.262
-310.924	-185.136	0.066	-0.001
-309.910	800.000	0.092	0.252
-308.895	290.359	0.163	0.292
-307.880	-20.103	0.137	0.083
-306.866	657.860	-0.126	-0.319
-305.851	-9.426	0.152	-0.100
-304.837	362.689	-0.129	-0.255
-303.822	-115.620	0.144	0.027
-302.807	-104.311	0.480	0.110
-301.793	-84.988	-0.411	-0.127
-300.778	-80.887	0.068	-0.022
-299.764	223.273	-0.251	0.399
-298.749	-106.226	0.382	-0.084
-297.735	800.000	-0.078	-0.302
-296.720	-3.520	-0.244	-0.167
-295.705	-200.000	-0.096	0.451
-294.691	82.400	0.203	-0.217
-293.676	558.430	0.036	0.085
-292.662	291.086	-0.112	-0.201
-291.647	-165.613	0.441	-0.019
-290.632	-200.000	-0.011	0.236
-289.618	-200.000	-0.024	-0.304
-288.603	27.666	0.155	-0.128
-287.589	-72.283	0.129	-0.047
-286.574	-77.129	-0.194	-0.066
-285.559	-200.000	0.003	0.174
-284.545	544.666	-0.118	-0.278
-283.530	54.174	-0.103	-0.097
-282.516	-102.893	-0.080	-0.019
-281.501	-200.000	0.008	-0.426
-280.486	-63.269	0.226	-0.092
-279.472	-200.000	0.054	0.253
-278.457	53.781	-0.081	-0.077
-277.443	294.246	-0.053	0.095
-276.428	186.370	0.280	0.410
-275.413	5.018	-0.283	-0.205
-274.399	359.457	0.095	0.188
-273.384	206.224	0.057	0.087
-272.370	30.701	-0.153	0.129
-271.355	29.897	-0.124	-0.104
-270.340	-185.054	0.079	0.001
-269.326	-9.219	-0.237	-0.156
-268.311	445.295	0.131	-0.283
-267.297	136.410	0.259	-0.333
-266.282	100.784	-0.126	-0.144
-265.267	-180.398	-0.218	0.004
-264.253	-44.302	-0.087	-0.043
-263.238	109.584	0.155	0.183
-262.224	46.119	-0.163	0.148
-261.209	60.315	0.237	0.231
-260.195	-90.862	-0.150	-0.042
-259.180	-125.870	-0.188	0.028
-258.165	18.899	0.088	0.069
-257.151	247.176	0.155	0.257
-256.136	-200.000	-0.006	0.161
-255.122	85.760	-0.220	-0.238
-254.107	306.108	0.029	-0.054
-253.092	800.000	0.026	0.076
-252.078	335.029	0.081	0.154
-251.063	193.147	0.147	0.219
-250.049	270.732	0.033	-0.058
-249.034	63.583	0.109	0.108
-248.019	44.108	0.049	-0.044
-247.005	-32.079	0.170	0.093
-245.990	-119.906	0.037	-0.006
-244.976	670.585	0.108	-0.274
-243.961	-43.927	-0.174	-0.086
-242.946	800.000	0.078	0.216
-241.932	800.000	-0.081	0.304
-240.917	24.810	-0.057	-0.047
-239.903	-184.401	-0.168	0.003
-238.888	800.000	-0.075	-0.252
-237.873	-188.797	0.195	-0.002
-236.859	-87.318	0.039	-0.012
-235.844	242.760	-0.033	0.055
-234.830	-89.465	-0.208	-0.060
-233.815	24.103	0.077	0.062
-232.800	800.000	0.031	-0.111
-231.786	7.062	-0.168	0.123
-230.771	-4.177	0.157	-0.107
-229.757	-49.443	-0.311	-0.146
-228.742	43.491	0.126	-0.113
-227.727	800.000	-0.062	-0.186
-226.713	-3.443	-0.209	0.143
-225.698	800.000	0.057	-0.212
-224.684	5.090	-0.127	0.092
-223.669	32.163	0.210	0.178
-222.655	79.128	0.208	-0.219
-221.640	-149.126	0.145	0.011
-220.625	800.000	0.040	0.146
-219.611	-200.000	-0.025	0.175
-218.596	-87.788	0.149	-0.044
-217.582	131.132	0.108	0.137
-216.567	-200.000	-0.022	-0.103
-215.552	-57.339	0.032	-0.014
-214.538	-79.583	-0.167	0.055
-213.523	-100.701	-0.278	0.067
-212.509	-75.730	-0.205	0.072
-211.494	34.976	0.241	0.207
-210.479	-93.874	0.218	-0.059
-209.465	104.491	0.189	0.219
-208.450	-1.195	0.168	0.116
-207.436	-142.969	-0.032	-0.003
-206.421	-72.833	0.235	0.085
-205.406	134.263	0.077	0.098
-204.392	-51.825	-0.078	0.036
-203.377	-200.000	0.081	-0.432
-202.363	800.000	0.094	0.361
-201.348	51.074	0.065	-0.061
-200.333	26.856	0.128	0.105
-199.319	800.000	-0.055	0.172
-198.304	175.866	0.250	-0.355
-197.290	-64.889	0.177	0.070
-196.275	800.000	-0.107	-0.313
-195.260	-160.629	0.304	0.016
-194.246	-85.545	0.237	-0.072
-193.231	-13.698	0.184	0.117
-192.217	98.810	-0.179	0.203
-191.202	180.763	0.218	-0.314
-190.187	-138.863	0.182	-0.019
-189.173	145.779	-0.159	0.209
-188.158	11.836	-0.184	-0.139
-187.144	800.000	-0.030	0.127
-186.129	800.000	-0.115	0.358
-185.114	-164.190	-0.188	0.008
-184.100	41.893	-0.185	0.164
-183.085	-49.516	-0.150	0.070
-182.071	7.320	-0.361	0.265
-181.056	-0.278	-0.317	-0.221
-180.042	219.942	-0.280	0.439
-179.027	109.943	0.126	0.148
-178.012	-200.000	0.048	-0.441
-176.998	125.834	0.188	-0.233
-175.983	-164.870	0.294	0.013
-174.969	103.339	0.202	-0.233
-173.954	-119.626	0.395	-0.067
-172.939	69.042	-0.069	0.069
-171.925	334.337	0.134	0.254
-170.910	-39.635	0.120	0.062
-169.896	-200.000	-0.014	-0.410
-168.881	-154.358	-0.238	-0.016
-167.866	-26.615	0.156	0.090
-166.852	-200.000	0.026	-0.128
-165.837	311.555	-0.191	0.352
-164.823	-62.091	-0.122	-0.050
-163.808	285.556	-0.073	0.129
-162.793	130.265	0.157	0.197
-161.779	70.020	-0.297	-0.300
-160.764	302.816	0.131	0.238
-159.750	-91.773	-0.153	-0.043
-158.735	114.025	-0.185	0.220
-157.720	111.208	0.266	0.314
-156.706	-200.000	0.038	-0.194
-155.691	392.208	-0.123	0.250
-154.677	-27.749	-0.182	-0.104
-153.662	-200.000	-0.003	0.083
-152.647	231.679	0.218	0.351
-151.633	8.362	-0.223	0.164
-150.618	-50.355	0.155	0.072
-149.604	207.969	0.174	0.266
-148.589	182.715	0.014	-0.020
-147.574	-77.313	-0.148	0.050
-146.560	-74.817	0.351	0.123
-145.545	90.263	-0.285	0.313
-144.531	56.073	0.036	0.034
-143.516	-200.000	-0.027	-0.150
-142.502	-200.000	0.002	-0.014
-141.487	-69.092	0.411	0.155
-140.472	-116.079	-0.171	-0.031
-139.458	240.675	0.232	0.379
-138.443	452.909	0.173	0.375
-137.429	64.318	0.132	-0.130
-136.414	-5.710	-0.250	-0.167
-135.399	705.163	0.096	-0.248
-134.385	-200.000	-0.041	0.280
-133.370	-200.000	0.011	-0.065
-132.356	-200.000	-0.039	0.166
-131.341	-41.821	-0.164	-0.082
-130.326	800.000	-0.046	-0.184
-129.312	7.209	-0.130	-0.095
-128.297	-128.642	0.370	-0.051
-127.283	800.000	-0.045	-0.144
-126.268	442.663	-0.066	-0.142
-125.253	259.444	-0.095	0.161
-124.239	488.187	-0.050	-0.112
-123.224	800.000	-0.033	-0.136
-122.210	99.306	-0.131	0.148
-121.195	-134.434	-0.318	-0.038
-120.180	188.070	0.043	-0.063
-119.166	487.494	0.119	0.265
-118.151	-200.000	-0.013	-0.192
-117.137	56.891	0.090	-0.086
-116.122	-163.858	0.080	-0.004
-115.107	798.380	0.158	0.425
-114.093	-200.000	-0.012	0.091
-113.078	14.802	-0.101	0.077
-112.064	-59.126	0.460	0.194
-111.049	800.000	0.084	-0.321
-110.034	7.365	0.338	0.247
-109.020	-120.459	-0.269	0.045
-108.005	42.307	-0.231	0.206
-106.991	-137.301	0.115	0.013
-105.976	-200.000	-0.031	0.169
-104.962	18.316	0.069	0.054
-103.947	66.904	-0.190	0.189
-102.932	800.000	0.121	-0.333
-101.918	-200.000	-0.006	-0.336
-100.903	800.000	-0.021	-0.087
-99.889	65.440	0.236	0.234
-98.874	646.609	0.130	-0.325
-97.859	155.699	0.239	-0.322
-96.845	12.084	-0.032	0.024
-95.830	-0.688	0.135	-0.093
-94.816	270.355	0.085	0.146
-93.801	244.632	-0.053	-0.088
-92.786	-118.427	0.221	-0.038
-91.772	-147.540	0.183	-0.015
-90.757	-200.000	0.023	-0.136
-89.743	800.000	-0.012	0.044
-88.728	-200.000	0.013	0.174
-87.713	-200.000	-0.024	0.345
-86.699	8.592	0.084	-0.062
-85.684	-70.592	-0.205	0.076
-84.670	800.000	-0.086	0.270
-83.655	61.371	0.177	-0.172
-82.640	-200.000	0.018	0.224
-81.626	-0.200	-0.126	-0.087
-80.611	-200.000	-0.054	0.304
-79.597	50.088	0.171	0.158
-78.582	55.989	-0.143	-0.136
-77.567	-111.347	0.267	0.053
-76.553	-34.052	0.489	0.262
-75.538	77.381	0.162	-0.168
-74.524	45.514	-0.153	0.138
-73.509	-0.244	0.068	0.047
-72.494	-200.000	0.017	-0.107
-71.480	468.291	0.183	0.401
-70.465	0.743	0.419	0.293
-69.451	195.744	-0.072	0.107
-68.436	74.885	-0.171	-0.176
-67.422	162.521	-0.098	-0.134
-66.407	-75.902	0.206	-0.071
-65.392	71.230	0.199	0.202
-64.378	159.751	0.091	0.123
-63.363	29.654	0.079	0.066
-62.349	-200.000	0.017	0.200
-61.334	107.943	-1.007	-1.172
-60.319	375.440	0.402	0.799
-59.305	790.976	-0.429	-1.150
-58.290	120.538	0.901	1.092
-57.276	-200.000	0.362	1.775
-56.261	-200.000	123.065	662.032
-55.246	441.592	1542.530	3294.234
-54.232	147.450	2689.223	3534.025
-53.217	97.998	2136.274	2398.905
-52.203	35.162	1578.548	1349.761
-51.188	26.912	1324.617	1083.560
-50.173	24.274	1287.574	1037.883
-49.159	52.374	1356.138	1262.439
-48.144	49.106	1368.324	1254.195
-47.130	27.075	1316.296	1077.553
-46.115	23.821	1297.008	1042.667
-45.100	23.674	1292.128	1037.844
-44.086	23.698	1289.300	1035.670
-43.071	23.541	1287.263	1033.075
-42.057	23.428	1285.101	1030.642
-41.042	23.533	1283.680	1030.073
-40.027	23.666	1282.303	1029.699
-39.013	23.511	1281.028	1027.735
-37.998	23.535	1279.063	1026.256
-36.984	23.742	1277.175	1025.901
-35.969	23.795	1275.338	1024.688
-34.954	23.819	1273.414	1023.241
-33.940	23.647	1272.813	1021.728
-32.925	23.680	1271.532	1020.845
-31.911	23.788	1269.653	1019.920
-30.896	23.809	1268.413	1018.999
-29.881	23.714	1267.971	1018.063
-28.867	23.750	1266.268	1016.860
-27.852	23.835	1264.240	1015.675
-26.838	23.891	1263.066	1015.011
-25.823	23.720	1262.201	1013.302
-24.809	23.727	1260.772	1012.153
-23.794	23.710	1259.390	1010.907
-22.779	23.842	1257.855	1010.385
-21.765	23.776	1256.755	1009.090
-20.750	23.821	1255.541	1008.328
-19.736	23.761	1253.994	1006.705
-18.721	23.595	1253.440	1005.282
-17.706	23.617	1251.955	1004.173
-16.692	23.680	1250.971	1003.700
-15.677	23.713	1249.313	1002.515
-14.663	23.565	1248.628	1001.096
-13.648	23.683	1247.329	1000.679
-12.633	23.634	1246.806	999.940
-11.619	23.671	1245.906	999.390
-10.604	23.603	1245.629	998.743
-9.590	23.598	1244.470	997.749
-8.575	23.606	1243.531	996.998
-7.560	23.562	1242.517	995.899
-6.546	23.573	1241.941	995.462
-5.531	23.613	1240.585	994.557
-4.517	23.524	1240.116	993.642
-3.502	23.582	1239.252	993.239
-2.487	23.684	1238.304	993.006
-1.473	23.613	1233.687	988.871
-0.458	21.875	1219.045	967.516
0.556	16.895	1203.640	931.565
1.571	13.309	1211.084	917.385
2.586	12.680	1225.807	924.922
3.600	12.726	1213.150	915.545
4.615	9.237	1143.116	844.314
5.629	3.075	1073.158	762.100
6.644	0.319	1055.891	736.323
7.659	0.171	1054.510	734.574
8.673	0.094	1053.146	733.180
9.688	0.086	1052.102	732.349
10.702	0.125	1050.385	731.282
11.717	3.937	1054.089	752.355
12.731	10.993	1063.286	793.362
13.746	15.678	1069.230	820.644
14.761	16.733	1070.417	826.636
15.775	16.111	1067.958	821.636
16.790	15.112	1066.323	815.443
17.804	14.510	1064.752	811.243
18.819	13.910	1064.210	807.840
19.834	13.759	1062.982	806.103
20.848	13.665	1061.547	804.486
21.863	13.187	1061.575	802.116
22.877	13.315	1059.842	801.356
23.892	13.254	1059.785	800.945
24.907	13.136	1059.303	799.938
25.921	13.206	1058.279	799.434
26.936	13.147	1057.448	798.450
27.950	13.219	1056.682	798.147
28.965	13.364	1055.160	797.630
29.980	13.396	1053.858	796.725
30.994	13.420	1052.491	795.739
32.009	13.413	1051.945	795.221
33.023	13.421	1050.920	794.416
34.038	13.270	1049.897	792.846
35.053	13.240	1049.544	792.369
36.067	13.420	1048.383	792.281
37.082	13.356	1047.674	791.370
38.096	13.448	1046.558	790.898
39.111	13.330	1045.907	789.773
40.126	13.277	1044.781	788.598
41.140	13.219	1043.572	787.340
42.155	13.227	1042.609	786.582
43.169	13.077	1041.773	785.170
44.184	13.170	1040.716	784.742
45.199	13.101	1039.718	783.596
46.213	13.134	1038.856	783.033
47.228	13.274	1037.415	782.538
48.242	13.211	1036.562	781.528
49.257	13.258	1035.630	780.978
50.271	13.208	1034.925	780.143
51.286	13.184	1034.334	779.513
52.301	13.140	1033.405	778.540
53.315	13.184	1032.137	777.721
54.330	13.177	1031.258	776.958
55.344	13.137	1030.168	775.881
56.359	13.209	1029.316	775.508
57.374	13.220	1027.949	774.459
58.388	13.114	1027.830	773.803
59.403	13.094	1026.822	772.885
60.417	13.081	1026.276	772.343
61.432	13.118	1025.141	771.594
62.447	13.029	1024.437	770.579
63.461	13.129	1023.552	770.311
64.476	13.174	1022.476	769.646
65.490	13.090	1021.799	768.675
66.505	13.123	1021.031	768.185
67.520	13.154	1020.552	767.900
68.534	13.205	1019.812	767.513
69.549	13.041	1019.438	766.403
70.563	13.055	1018.724	765.861
71.578	13.022	1017.852	764.983
72.593	12.984	1016.852	763.991
73.607	12.979	1016.282	763.472
74.622	13.020	1015.493	762.998
75.636	13.099	1014.658	762.672
76.651	13.172	1013.568	762.120
77.666	13.093	1013.360	761.534
78.680	13.059	1012.545	760.695
79.695	13.035	1011.687	759.873
80.709	13.187	1011.145	760.096
81.724	13.144	1010.956	759.691
82.739	13.178	1010.108	759.142
83.753	13.205	1009.329	758.613
84.768	13.288	1007.976	757.909
85.782	13.286	1007.205	757.252
86.797	13.305	1006.581	756.805
87.812	13.251	1005.521	755.695
88.826	13.194	1004.364	754.497
89.841	13.275	1003.603	754.228
90.855	13.237	1003.132	753.634
91.870	13.393	1001.531	753.077
92.884	13.205	1001.333	752.005
93.899	13.243	1000.467	751.461
94.914	13.323	999.672	751.162
95.928	13.254	998.829	750.149
96.943	13.536	997.563	750.410
97.957	13.313	996.865	748.808
98.972	13.313	996.094	748.161
99.987	13.276	995.294	747.325
101.001	13.219	994.494	746.400
102.016	13.302	993.461	745.936
103.030	13.403	992.410	745.535
104.045	13.378	992.118	745.139
105.060	13.346	991.498	744.461
106.074	13.344	990.216	743.426
107.089	13.159	989.530	742.012
108.103	13.373	987.615	741.470
109.118	13.153	987.294	740.177
110.133	13.237	986.811	740.128
111.147	13.212	986.028	739.363
112.162	13.227	985.045	738.627
113.176	13.223	984.092	737.828
114.191	13.174	983.679	737.237
115.206	13.312	982.817	737.141
116.220	13.223	981.954	736.030
117.235	13.287	980.872	735.439
118.249	13.225	980.313	734.680
119.264	13.229	979.660	734.143
120.279	13.212	978.895	733.429
121.293	13.116	977.882	732.181
122.308	13.208	976.793	731.708
123.322	13.160	976.229	731.009
124.337	13.061	975.070	729.638
125.352	13.054	974.027	728.763
126.366	13.180	973.038	728.511
127.381	13.191	971.800	727.569
128.395	13.181	970.888	726.778
129.410	13.361	969.853	726.729
130.424	13.310	969.211	725.963
131.439	13.413	968.180	725.578
132.454	13.367	967.830	725.048
133.468	13.365	966.850	724.242
134.483	13.251	966.025	723.060
135.497	13.316	965.326	722.760
136.512	13.330	964.433	722.086
137.527	13.273	963.565	721.122
138.541	13.246	963.352	720.784
139.556	13.337	962.129	720.202
140.570	13.317	961.798	719.800
141.585	13.450	960.638	719.447
142.600	13.502	959.899	719.055
143.614	13.417	959.074	718.008
144.629	13.425	958.360	717.444
145.643	13.586	956.891	716.976
146.658	13.384	956.334	715.622
147.673	13.413	955.457	715.027
148.687	13.452	954.962	714.763
149.702	13.426	953.651	713.604
150.716	13.202	953.511	712.473
151.731	13.389	952.382	712.371
152.746	13.385	951.836	711.882
153.760	13.528	950.892	711.728
154.775	13.434	950.374	710.872
155.789	13.507	949.734	710.644
156.804	13.485	949.024	709.958
157.819	13.565	948.244	709.652
158.833	13.485	948.339	709.319
159.848	13.777	946.660	709.246
160.862	13.621	945.968	708.002
161.877	13.561	944.641	706.688
162.892	13.546	944.279	706.293
163.906	13.504	943.199	705.243
164.921	13.570	942.509	704.944
165.935	13.551	941.432	703.999
166.950	13.487	940.765	703.163
167.964	13.602	940.176	703.149
168.979	13.508	939.616	702.271
169.994	13.668	937.996	701.674
171.008	13.686	937.252	701.132
172.023	13.622	936.895	700.532
173.037	13.796	935.855	700.425
174.052	13.810	935.356	700.049
175.067	13.724	935.032	699.384
176.081	13.542	934.840	698.412
177.096	13.592	934.063	697.980
178.110	13.649	933.264	697.559
179.125	13.567	932.825	696.827
180.140	13.749	932.472	697.267
181.154	13.681	932.034	696.591
182.169	13.638	931.502	695.949
183.183	13.704	930.713	695.577
184.198	13.844	929.440	695.151
185.213	13.771	929.136	694.554
186.227	13.955	928.202	694.565
187.242	13.875	927.638	693.747
188.256	13.925	926.995	693.415
189.271	13.844	926.232	692.442
190.286	13.735	925.668	691.505
191.300	13.768	924.773	690.914
192.315	13.660	924.353	690.091
193.329	13.855	923.807	690.433
194.344	13.843	923.078	689.777
195.359	13.868	922.150	689.127
196.373	13.960	921.595	689.032
197.388	13.899	921.424	688.590
198.402	13.925	921.115	688.405
199.417	14.069	920.040	688.137
200.432	14.028	919.771	687.704
201.446	14.161	919.130	687.716
202.461	14.092	918.614	686.985
203.475	14.101	918.289	686.717
204.490	14.076	917.579	686.022
205.504	14.037	916.584	685.057
206.519	14.137	915.835	684.848
207.534	14.025	915.343	683.960
208.548	14.022	914.166	683.008
209.563	14.134	913.539	682.935
210.577	14.186	913.238	682.866
211.592	14.345	912.234	682.707
212.607	14.318	911.549	682.022
213.621	14.241	910.803	681.089
214.636	14.244	909.953	680.406
215.650	14.292	909.801	680.427
216.665	14.314	908.712	679.642
217.680	14.318	908.144	679.172
218.694	14.434	907.287	678.945
219.709	14.434	906.770	678.499
220.723	14.328	906.437	677.757
221.738	14.243	905.571	676.706
222.753	14.407	905.228	677.055
223.767	14.442	904.308	676.447
224.782	14.472	903.961	676.252
225.796	14.522	903.454	676.014
226.811	14.496	902.323	675.003
227.826	14.487	901.820	674.532
228.840	14.477	901.188	673.959
229.855	14.465	900.412	673.270
230.869	14.481	899.461	672.562
231.884	14.596	898.678	672.381
232.899	14.437	898.130	671.274
233.913	14.427	897.579	670.759
234.928	14.418	896.856	670.124
235.942	14.422	896.498	669.815
236.957	14.548	895.772	669.719
237.972	14.529	895.163	669.128
238.986	14.213	895.238	667.858
240.001	14.491	894.110	668.069
241.015	14.503	893.238	667.409
242.030	14.473	892.946	667.009
243.045	14.529	892.352	666.732
244.059	14.562	891.740	666.347
245.074	14.663	890.984	666.126
246.088	14.530	890.211	664.957
247.103	14.685	889.678	665.120
248.117	14.611	889.301	664.485
249.132	14.876	888.427	664.825
250.147	14.790	887.859	664.001
251.161	14.811	886.845	663.268
252.176	14.842	886.729	663.243
253.190	14.867	885.910	662.672
254.205	14.860	885.209	662.062
255.220	14.954	884.164	661.592
256.234	15.008	884.132	661.725
257.249	14.883	883.682	660.833
258.263	14.934	882.520	660.107
259.278	15.003	881.699	659.708
260.293	15.019	881.343	659.447
261.307	15.226	880.480	659.556
262.322	15.102	880.081	658.712
263.336	15.038	879.845	658.227
264.351	15.157	878.795	657.849
265.366	15.166	877.987	657.222
266.380	15.305	877.132	657.068
267.395	15.096	877.197	656.238
268.409	15.228	875.975	655.783
269.424	15.204	875.513	655.286
270.439	15.159	874.951	654.631
271.453	15.133	874.202	653.913
272.468	15.150	873.589	653.461
273.482	15.124	873.334	653.110
274.497	15.276	872.555	653.062
275.512	15.225	871.841	652.273
276.526	15.167	871.381	651.645
277.541	15.163	871.175	651.417
278.555	15.324	870.306	651.334
279.570	15.410	869.537	651.035
280.585	15.382	868.691	650.236
281.599	15.384	867.875	649.576
282.614	15.382	867.134	648.956
283.628	15.394	866.860	648.742
284.643	15.374	866.385	648.248
285.657	15.306	865.385	647.183
286.672	15.469	864.723	647.260
287.687	15.390	864.252	646.544
288.701	15.429	863.638	646.176
289.716	15.451	863.213	645.888
290.730	15.503	862.264	645.321
291.745	15.386	861.921	644.556
292.760	15.531	861.149	644.478
293.774	15.520	860.610	643.975
294.789	15.695	859.530	643.780
295.803	15.541	859.212	642.897
296.818	15.474	858.764	642.250
297.833	15.558	857.857	641.834
298.847	15.612	857.408	641.648
299.862	15.677	856.402	641.087
300.876	15.561	856.520	640.674
301.891	15.775	855.548	640.706
302.906	15.693	854.848	639.815
303.920	15.762	854.370	639.661
304.935	15.837	854.018	639.629
305.949	15.799	853.466	639.013
306.964	15.741	852.923	638.329
307.979	15.765	852.272	637.878
308.993	15.686	851.895	637.238
310.008	15.815	850.947	636.963
311.022	15.980	850.428	637.141
312.037	15.787	850.220	636.200
313.052	15.843	849.080	635.499
314.066	15.697	849.350	635.095
315.081	15.727	848.924	634.833
316.095	15.720	847.997	634.058
317.110	15.790	847.173	633.647
318.125	15.908	846.583	633.596
319.139	15.847	846.408	633.179
320.154	15.763	846.058	632.546
321.168	15.854	845.208	632.198
322.183	15.863	844.800	631.867
323.197	16.007	844.173	631.884
324.212	15.922	843.529	631.027
325.227	15.974	842.941	630.726
326.241	15.953	842.341	630.141
327.256	16.078	841.784	630.138
328.270	16.026	841.347	629.561
329.285	15.837	840.594	628.235
330.300	15.951	840.044	628.194
331.314	15.988	839.217	627.659
332.329	16.080	839.098	627.856
333.343	16.118	838.413	627.429
334.358	15.989	838.143	626.690
335.373	16.086	837.965	626.866
336.387	16.052	838.016	626.723
337.402	16.187	837.511	626.788
338.416	16.082	837.281	626.171
339.431	16.192	836.879	626.225
340.446	16.139	835.919	625.254
341.460	16.454	835.675	626.183
342.475	16.221	835.284	624.970
343.489	16.388	834.649	625.060
344.504	16.404	833.989	624.569
345.519	16.267	833.459	623.610
346.533	16.263	833.254	623.387
347.548	16.295	833.013	623.270
348.562	16.273	832.081	622.437
349.577	16.264	832.047	622.324
350.592	16.196	830.848	621.119
351.606	16.328	830.386	621.206
352.621	16.406	829.552	620.814
353.635	16.350	828.914	620.077
354.650	16.436	828.486	620.017
355.665	16.440	827.820	619.476
356.679	16.489	827.650	619.476
357.694	16.510	826.608	618.716
358.708	16.493	826.071	618.199
359.723	16.543	825.302	617.752
360.738	16.577	824.979	617.579
361.752	16.510	824.223	616.714
362.767	16.466	823.700	616.106
363.781	16.785	823.089	616.759
364.796	16.694	822.570	615.984
365.810	16.737	822.690	616.176
366.825	16.692	821.727	615.235
367.840	16.718	821.509	615.114
368.854	16.621	821.313	614.557
369.869	16.513	821.035	613.904
370.883	16.766	820.370	614.270
371.898	16.707	819.947	613.685
372.913	16.798	819.530	613.648
373.927	16.690	819.323	613.047
374.942	16.835	818.594	612.973
375.956	16.759	818.337	612.450
376.971	16.803	817.771	612.132
377.986	16.965	816.977	612.068
379.000	17.071	817.015	612.427
380.015	16.836	816.383	611.051
381.029	16.888	815.700	610.671
382.044	16.976	815.246	610.595
383.059	17.050	814.415	610.186
384.073	16.960	814.056	609.537
385.088	16.982	813.476	609.128
386.102	16.905	813.064	608.490
387.117	17.009	812.146	608.122
388.132	16.889	812.045	607.562
389.146	17.102	811.508	607.872
390.161	17.104	810.616	607.156
391.175	16.990	810.692	606.750
392.190	17.052	809.941	606.356
393.205	17.156	809.415	606.280
394.219	17.046	809.095	605.595
395.234	17.104	808.766	605.503
396.248	16.963	808.515	604.759
397.263	17.076	807.666	604.471
398.278	17.052	807.421	604.150
399.292	17.100	806.868	603.853
400.307	17.007	806.419	603.133
401.321	17.070	806.354	603.254
402.336	17.039	805.607	602.532
403.350	17.084	805.471	602.537
404.365	17.288	804.651	602.591
405.380	17.174	804.275	601.853
406.394	17.313	803.498	601.712
407.409	17.378	803.292	601.732
408.423	17.411	802.989	601.569
409.438	17.294	802.582	600.799
410.453	17.320	802.030	600.424
411.467	17.516	801.618	600.754
412.482	17.495	801.449	600.500
413.496	17.496	801.084	600.177
414.511	17.505	800.637	599.823
415.526	17.610	799.593	599.355
416.540	17.457	799.447	598.656
417.555	17.636	799.051	598.936
418.569	17.671	798.481	598.577
419.584	17.521	798.485	598.001
420.599	17.617	797.667	597.672
421.613	113.835	1298.351	1486.871
422.628	98.061	1371.248	1486.946
