DTS Sentinel unit serial number:	SN413079Multiplexer serial number:	ORYXHardware model number:	OX4-SRSoftware version number:	ORYX F/W v4.00 Oryx Data Collector v3.7.2.0data status	okinstallation	princeton_trtdifferential loss correction	single-endedforward channel	channel 1reverse channel	N/Adate	2019/09/15time	16:42:35forward acquisition time	60.00reverse acquisition time	0.00gamma	496.2192k internal	0.2293k external	0.2293temperature offset calibration	0.9931default loss term (dB/km)	0.3790temperature slope calibration	1.0000multiplexer offset coefficient	1.0000multiplexer slope coefficient	1.0000fibre end	0.00T internal ref (°C)	44.19T ext. ref 1 (°C)	5.69T ext. ref 2 (°C)	40.41length (m)	temperature (°C)	Stokes	anti-Stokes-747.200	-14.829	0.446	0.293
-746.185	117.578	-0.061	-0.077
-745.171	-57.571	-0.274	0.123
-744.156	-178.238	-0.424	-0.010
-743.142	-78.938	-0.177	0.062
-742.127	-175.714	-0.198	-0.005
-741.112	221.656	-0.159	-0.261
-740.098	106.427	-0.212	0.257
-739.083	800.000	0.064	-0.190
-738.069	41.805	0.084	-0.078
-737.054	75.115	-0.042	-0.045
-736.039	-200.000	-0.012	-0.064
-735.025	96.599	-0.148	0.173
-734.010	-90.050	0.326	0.097
-732.996	207.324	0.028	-0.045
-731.981	-8.187	0.117	0.081
-730.966	-55.083	-0.231	-0.106
-729.952	-118.361	-0.340	0.062
-728.937	-89.864	-0.509	-0.152
-727.923	386.619	-0.148	-0.313
-726.908	116.878	-0.118	0.148
-725.894	61.822	-0.244	-0.248
-724.879	24.820	0.159	-0.135
-723.864	-200.000	-0.045	0.220
-722.850	250.432	-0.045	-0.077
-721.835	13.878	-0.162	0.129
-720.821	76.617	-0.223	-0.241
-719.806	-62.520	0.196	0.083
-718.791	800.000	-0.034	-0.098
-717.777	-39.623	0.184	0.099
-716.762	4.396	0.138	0.103
-715.748	106.741	0.154	-0.187
-714.733	624.819	0.024	-0.061
-713.718	-200.000	-0.044	-0.379
-712.704	800.000	0.092	-0.273
-711.689	-152.026	0.198	0.015
-710.675	142.655	-0.127	-0.172
-709.660	-14.983	-0.199	0.130
-708.645	-164.648	-0.310	-0.014
-707.631	257.913	-0.136	0.239
-706.616	-14.746	0.034	-0.022
-705.602	507.895	0.120	0.285
-704.587	800.000	0.130	-0.405
-703.572	707.774	0.034	0.092
-702.558	280.492	-0.010	0.018
-701.543	-20.275	-0.169	0.106
-700.529	800.000	-0.071	0.256
-699.514	-133.374	-0.310	-0.040
-698.499	-200.000	-0.037	0.322
-697.485	497.724	0.084	0.197
-696.470	43.387	-0.088	-0.082
-695.456	-108.907	0.096	-0.021
-694.441	-122.918	-0.262	0.043
-693.426	124.662	-0.239	-0.308
-692.412	-7.383	-0.090	0.062
-691.397	86.435	-0.167	-0.188
-690.383	7.709	-0.266	-0.204
-689.368	-200.000	0.047	-0.369
-688.354	-35.359	-0.234	0.130
-687.339	800.000	-0.102	-0.452
-686.324	-200.000	0.032	0.181
-685.310	167.184	-0.120	-0.173
-684.295	181.322	0.040	-0.060
-683.281	232.344	-0.094	-0.157
-682.266	-200.000	0.051	-0.241
-681.251	178.630	-0.173	-0.258
-680.237	-2.626	-0.177	-0.127
-679.222	-25.707	-0.173	0.104
-678.208	51.513	0.113	-0.109
-677.193	-200.000	0.017	0.115
-676.178	162.994	0.100	0.144
-675.164	-200.000	-0.058	-0.278
-674.149	91.478	0.206	-0.236
-673.135	44.562	0.101	0.095
-672.120	268.607	-0.122	-0.219
-671.105	-105.997	-0.261	0.060
-670.091	-193.153	-0.093	-0.001
-669.076	-88.907	-0.224	-0.068
-668.062	-200.000	-0.010	-0.210
-667.047	66.363	-0.224	0.232
-666.032	-6.243	0.134	-0.094
-665.018	16.177	0.191	-0.154
-664.003	-200.000	-0.013	-0.287
-662.989	-132.096	0.269	0.036
-661.974	-135.651	0.331	0.040
-660.959	32.514	-0.123	0.108
-659.945	-98.192	-0.206	-0.054
-658.930	800.000	-0.072	-0.217
-657.916	33.078	0.098	-0.087
-656.901	434.150	-0.062	-0.137
-655.886	197.460	-0.181	0.282
-654.872	-126.873	0.147	-0.022
-653.857	-99.818	0.301	0.077
-652.843	-200.000	-0.057	-0.257
-651.828	56.530	-0.210	-0.208
-650.814	-109.364	-0.263	0.057
-649.799	74.410	0.022	0.024
-648.784	-200.000	0.018	0.137
-647.770	134.311	-0.175	-0.231
-646.755	180.773	0.060	0.091
-645.741	800.000	-0.046	-0.188
-644.726	-4.641	-0.110	0.077
-643.711	-200.000	0.019	-0.268
-642.697	-200.000	0.020	0.099
-641.682	-94.042	-0.173	-0.048
-640.668	-74.338	0.378	0.139
-639.653	98.401	-0.185	-0.217
-638.638	-52.853	0.156	-0.073
-637.624	15.243	-0.208	0.166
-636.609	-2.475	-0.278	-0.199
-635.595	-200.000	0.063	0.385
-634.580	-117.730	0.304	-0.056
-633.565	-182.122	-0.292	-0.006
-632.551	-63.063	0.263	-0.111
-631.536	5.319	-0.297	-0.223
-630.522	-91.596	-0.210	-0.061
-629.507	198.138	-0.241	0.375
-628.492	236.796	-0.073	-0.123
-627.478	255.170	0.132	0.230
-626.463	-200.000	-0.001	-0.377
-625.449	800.000	0.033	-0.112
-624.434	76.199	0.159	0.171
-623.419	15.544	-0.065	0.052
-622.405	-200.000	-0.034	-0.301
-621.390	800.000	0.083	-0.339
-620.376	177.530	0.143	0.212
-619.361	-200.000	-0.004	-0.030
-618.346	-149.064	0.267	0.022
-617.332	19.194	-0.242	-0.197
-616.317	-136.537	-0.218	0.026
-615.303	-200.000	-0.003	0.147
-614.288	-15.773	-0.084	-0.055
-613.273	-107.556	0.290	0.065
-612.259	13.831	0.106	0.084
-611.244	-200.000	0.029	-0.350
-610.230	157.545	0.156	0.220
-609.215	-151.004	0.138	0.011
-608.201	194.464	0.031	-0.048
-607.186	-176.547	0.451	-0.012
-606.171	-88.538	-0.284	0.086
-605.157	56.338	-0.199	-0.197
-604.142	-178.619	0.407	0.010
-603.128	442.693	0.066	0.147
-602.113	60.204	-0.151	-0.152
-601.098	-200.000	-0.013	0.085
-600.084	180.523	0.194	0.289
-599.069	616.151	0.031	-0.079
-598.055	-187.567	-0.080	0.001
-597.040	215.124	-0.045	0.072
-596.025	-200.000	0.041	-0.228
-595.011	14.000	-0.224	-0.178
-593.996	494.329	-0.125	-0.291
-592.982	-200.000	0.124	-0.000
-591.967	-105.019	0.419	-0.098
-590.952	45.547	-0.169	0.159
-589.938	800.000	-0.109	0.375
-588.923	12.185	-0.190	-0.149
-587.909	-134.108	-0.242	0.030
-586.894	65.090	-0.091	0.094
-585.879	165.409	-0.129	0.186
-584.865	103.373	-0.239	-0.285
-583.850	33.813	-0.216	0.191
-582.836	-200.000	-0.005	-0.058
-581.821	-105.044	-0.080	0.019
-580.806	-50.926	-0.183	-0.087
-579.792	241.617	0.137	-0.233
-578.777	800.000	0.083	0.234
-577.763	-200.000	0.004	0.219
-576.748	-30.806	0.260	-0.149
-575.733	-123.379	-0.117	0.019
-574.719	206.871	-0.108	-0.172
-573.704	-200.000	-0.083	-0.386
-572.690	195.322	-0.108	0.167
-571.675	619.516	0.008	-0.021
-570.661	-46.327	-0.175	-0.087
-569.646	280.904	0.134	0.244
-568.631	-200.000	0.013	-0.263
-567.617	-200.000	-0.037	-0.270
-566.602	-200.000	-0.022	-0.133
-565.588	350.415	0.186	-0.374
-564.573	-178.627	0.205	0.005
-563.558	-77.802	-0.128	-0.045
-562.544	-94.125	-0.083	0.023
-561.529	-200.000	-0.014	-0.279
-560.515	-71.687	0.139	0.053
-559.500	200.586	-0.256	-0.399
-558.485	30.255	-0.054	0.047
-557.471	223.387	0.096	0.157
-556.456	-17.053	-0.067	0.043
-555.442	-155.651	0.253	0.017
-554.427	800.000	0.060	-0.206
-553.412	394.688	0.150	-0.318
-552.398	-176.071	-0.286	-0.008
-551.383	112.411	-0.073	0.090
-550.369	800.000	-0.117	-0.341
-549.354	443.058	-0.085	0.190
-548.339	69.536	-0.087	0.091
-547.325	-51.201	-0.149	0.071
-546.310	-113.277	-0.439	-0.088
-545.296	119.129	0.136	0.170
-544.281	-22.055	-0.072	-0.044
-543.266	-200.000	-0.002	-0.087
-542.252	800.000	0.042	-0.147
-541.237	-200.000	-0.008	-0.194
-540.223	7.861	0.316	-0.241
-539.208	-200.000	0.027	0.269
-538.193	-157.633	-0.167	0.010
-537.179	517.335	-0.057	-0.136
-536.164	-53.121	0.333	-0.155
-535.150	-200.000	0.081	0.401
-534.135	-74.133	0.167	0.061
-533.121	800.000	0.060	-0.248
-532.106	-179.396	-0.261	0.006
-531.091	-200.000	-0.022	-0.328
-530.077	-82.732	-0.180	0.059
-529.062	800.000	0.094	-0.322
-528.048	556.499	0.076	0.187
-527.033	140.525	-0.297	0.398
-526.018	-146.480	-0.098	-0.009
-525.004	11.142	-0.090	-0.070
-523.989	-200.000	-0.016	0.096
-522.975	657.717	-0.088	-0.230
-521.960	218.324	0.027	-0.044
-520.945	325.618	-0.089	-0.174
-519.931	-107.618	0.116	0.026
-518.916	-103.072	0.467	0.112
-517.902	116.780	0.222	-0.277
-516.887	800.000	0.097	-0.301
-515.872	-38.266	0.105	-0.056
-514.858	122.120	-0.100	0.126
-513.843	2.984	0.293	0.216
-512.829	312.119	0.065	-0.124
-511.814	-200.000	-0.004	0.075
-510.799	-75.058	0.158	-0.057
-509.785	681.810	0.147	-0.388
-508.770	-35.282	-0.200	0.110
-507.756	37.797	-0.109	0.098
-506.741	694.615	-0.102	0.272
-505.726	128.263	0.212	0.273
-504.712	-144.124	-0.187	-0.018
-503.697	-45.355	-0.236	0.119
-502.683	78.170	-0.258	0.279
-501.668	-19.655	-0.161	0.101
-500.653	800.000	0.047	0.185
-499.639	-200.000	0.032	0.325
-498.624	-134.355	0.221	0.027
-497.610	651.680	0.054	-0.140
-496.595	800.000	0.036	0.145
-495.581	7.359	0.213	0.161
-494.566	127.575	-0.134	0.172
-493.551	252.138	-0.160	0.276
-492.537	204.212	-0.194	0.304
-491.522	412.303	0.159	0.342
-490.508	-200.000	-0.092	-0.452
-489.493	-171.136	-0.345	-0.012
-488.478	-113.885	0.285	-0.056
-487.464	641.724	0.051	0.133
-486.449	253.575	0.141	-0.243
-485.435	33.950	0.157	0.139
-484.420	23.523	0.137	-0.114
-483.405	202.217	0.103	0.161
-482.391	-105.870	0.105	-0.024
-481.376	-155.127	-0.201	-0.013
-480.362	-30.353	-0.148	-0.085
-479.347	-54.429	0.198	-0.091
-478.332	-200.000	-0.009	-0.343
-477.318	-14.778	0.296	-0.193
-476.303	-51.179	0.143	-0.068
-475.289	467.179	0.188	-0.426
-474.274	-200.000	-0.032	-0.401
-473.259	-10.074	-0.230	-0.155
-472.245	298.571	0.155	0.289
-471.230	30.882	-0.155	-0.134
-470.216	-200.000	0.008	-0.101
-469.201	137.397	0.323	-0.428
-468.186	800.000	0.027	-0.078
-467.172	-83.283	-0.109	0.036
-466.157	377.761	0.160	0.332
-465.143	42.289	0.126	-0.116
-464.128	-67.523	-0.091	0.036
-463.113	206.843	0.056	0.088
-462.099	126.259	-0.034	-0.043
-461.084	-200.000	-0.369	0.002
-460.070	-152.935	-0.153	-0.011
-459.055	120.392	0.162	0.203
-458.040	28.330	0.059	0.050
-457.026	88.830	-0.270	0.304
-456.011	-200.000	0.043	-0.479
-454.997	-200.000	-0.012	0.099
-453.982	128.315	-0.070	0.090
-452.968	-177.500	0.328	-0.008
-451.953	-40.668	0.072	-0.038
-450.938	120.249	0.045	-0.057
-449.924	-1.611	-0.209	-0.149
-448.909	-200.000	-0.028	-0.251
-447.895	464.876	-0.040	0.090
-446.880	-200.000	-0.057	-0.254
-445.865	257.961	-0.046	-0.081
-444.851	98.353	0.074	-0.086
-443.836	800.000	0.055	0.163
-442.822	-91.426	-0.257	0.074
-441.807	-134.208	0.177	-0.022
-440.792	-169.648	-0.127	0.005
-439.778	36.143	-0.118	0.105
-438.763	123.930	-0.257	-0.326
-437.749	-126.998	0.083	0.012
-436.734	-38.009	0.145	0.078
-435.719	-50.429	0.246	-0.117
-434.705	3.402	0.265	0.195
-433.690	-200.000	-0.023	-0.175
-432.676	-200.000	0.033	-0.220
-431.661	-66.796	0.301	0.120
-430.646	-38.194	0.090	-0.048
-429.632	773.858	-0.029	-0.079
-428.617	-45.729	0.049	-0.025
-427.603	-200.000	0.085	-0.386
-426.588	-10.654	-0.270	0.181
-425.573	-92.818	-0.079	-0.022
-424.559	-68.838	0.268	0.104
-423.544	-200.000	-0.000	-0.083
-422.530	608.377	-0.132	0.333
-421.515	-97.188	0.086	-0.023
-420.500	-91.599	0.147	-0.042
-419.486	-200.000	-0.092	0.414
-418.471	-66.147	0.071	0.029
-417.457	-32.604	0.169	-0.095
-416.442	-140.698	-0.351	0.037
-415.428	9.711	-0.098	-0.075
-414.413	160.388	-0.169	0.239
-413.398	309.465	-0.020	0.038
-412.384	107.059	0.166	-0.199
-411.369	14.606	0.248	0.195
-410.355	-152.170	0.277	-0.020
-409.340	-73.475	-0.318	0.117
-408.325	-56.628	-0.117	-0.052
-407.311	-123.571	0.086	0.014
-406.296	-193.063	-0.324	-0.003
-405.282	53.961	0.350	0.340
-404.267	-200.000	0.037	-0.166
-403.252	800.000	0.073	-0.273
-402.238	60.902	0.103	-0.103
-401.223	243.796	-0.116	0.197
-400.209	-162.085	-0.277	-0.014
-399.194	800.000	0.072	-0.205
-398.179	-75.479	0.244	0.088
-397.165	800.000	-0.062	-0.210
-396.150	8.273	0.033	0.025
-395.136	-87.592	-0.125	0.038
-394.121	-157.265	-0.093	0.006
-393.106	274.194	-0.099	-0.177
-392.092	218.524	0.069	-0.112
-391.077	107.577	-0.073	-0.087
-390.063	78.811	-0.151	-0.163
-389.048	-1.106	0.268	-0.191
-388.033	-200.000	-0.004	0.052
-387.019	-77.855	-0.216	-0.075
-386.004	-200.000	0.023	0.251
-384.990	-140.559	-0.264	-0.028
-383.975	-200.000	-0.043	0.316
-382.960	800.000	-0.061	-0.202
-381.946	-81.822	-0.110	-0.036
-380.931	-12.889	0.126	-0.083
-379.917	77.278	0.132	0.142
-378.902	-36.445	0.255	-0.139
-377.888	-200.000	0.038	0.366
-376.873	800.000	-0.066	0.208
-375.858	4.030	0.143	0.105
-374.844	148.650	-0.162	0.221
-373.829	-63.432	-0.302	-0.125
-372.815	-200.000	0.012	0.116
-371.800	29.860	-0.187	0.160
-370.785	8.470	-0.163	-0.123
-369.771	-147.739	-0.377	-0.032
-368.756	800.000	0.099	-0.279
-367.742	325.215	-0.085	-0.163
-366.727	-151.168	0.240	0.018
-365.712	-200.000	-0.018	0.183
-364.698	115.581	0.077	0.095
-363.683	-92.988	0.153	0.043
-362.669	-101.498	-0.284	0.070
-361.654	249.518	0.099	0.169
-360.639	18.728	0.038	0.031
-359.625	-8.540	0.364	0.246
-358.610	319.099	-0.243	0.464
-357.596	216.876	0.232	0.372
-356.581	262.639	0.231	0.404
-355.566	800.000	-0.009	0.029
-354.552	-200.000	0.009	-0.468
-353.537	-37.727	0.262	0.141
-352.523	251.169	0.130	-0.223
-351.508	208.967	-0.184	-0.290
-350.493	-117.812	-0.045	-0.008
-349.479	334.394	0.224	-0.437
-348.464	-135.523	0.255	0.031
-347.450	-200.000	-0.003	0.342
-346.435	114.878	-0.023	0.029
-345.420	21.514	0.118	0.097
-344.406	800.000	-0.126	-0.394
-343.391	152.708	0.180	-0.247
-342.377	16.049	0.266	-0.211
-341.362	-200.000	-0.020	-0.319
-340.348	552.922	-0.083	-0.201
-339.333	-0.423	0.053	-0.038
-338.318	15.594	0.063	-0.050
-337.304	-67.493	0.326	-0.129
-336.289	19.916	0.281	0.228
-335.275	-52.040	0.172	0.081
-334.260	39.295	0.147	-0.133
-333.245	-182.257	0.184	0.003
-332.231	-50.279	0.158	0.075
-331.216	40.794	-0.179	0.163
-330.202	6.844	-0.103	0.077
-329.187	446.826	-0.051	-0.113
-328.172	219.790	0.020	0.031
-327.158	0.875	-0.098	0.071
-326.143	-130.280	-0.085	-0.012
-325.129	-65.826	-0.307	-0.124
-324.114	1.867	-0.114	-0.083
-323.099	-13.829	0.252	0.164
-322.085	-200.000	-0.082	0.578
-321.070	-138.680	-0.285	-0.031
-320.056	-75.857	-0.338	0.120
-319.041	-91.815	0.261	0.075
-318.026	-200.000	-0.041	-0.261
-317.012	405.125	0.123	-0.260
-315.997	75.857	-0.115	-0.122
-314.983	-55.294	0.061	-0.027
-313.968	653.515	-0.115	0.296
-312.953	201.404	0.083	-0.129
-311.939	-153.265	-0.337	-0.024
-310.924	-11.053	-0.066	0.044
-309.910	800.000	-0.083	0.325
-308.895	-19.405	0.124	0.077
-307.880	141.210	0.193	0.257
-306.866	275.771	0.093	-0.167
-305.851	-59.286	0.110	0.048
-304.837	-185.532	-0.433	-0.007
-303.822	576.755	0.093	0.229
-302.807	-178.730	-0.189	0.004
-301.793	56.532	-0.195	-0.190
-300.778	800.000	0.060	0.231
-299.764	-10.324	-0.042	0.028
-298.749	-153.533	0.233	0.016
-297.735	-70.721	-0.362	-0.138
-296.720	-84.424	0.161	0.051
-295.705	226.048	-0.125	0.204
-294.691	-200.000	0.002	-0.055
-293.676	-109.267	-0.125	0.027
-292.662	170.193	0.095	-0.137
-291.647	1.046	0.223	-0.161
-290.632	-63.914	0.364	-0.150
-289.618	-60.851	-0.133	-0.057
-288.603	-124.421	0.125	-0.020
-287.589	-20.741	-0.152	0.094
-286.574	-200.000	-0.029	-0.197
-285.559	-200.000	-0.041	0.283
-284.545	19.372	0.076	-0.062
-283.530	134.863	-0.166	0.217
-282.516	17.506	0.161	0.129
-281.501	98.004	0.127	-0.147
-280.486	121.268	0.130	0.163
-279.472	100.096	-0.203	0.237
-278.457	-89.908	-0.297	0.087
-277.443	-79.531	-0.155	-0.052
-276.428	-58.503	-0.249	-0.109
-275.413	-169.779	0.186	0.007
-274.399	117.097	0.217	-0.268
-273.384	-45.102	0.203	0.101
-272.370	406.789	-0.182	-0.385
-271.355	-66.743	-0.204	0.081
-270.340	-26.800	0.225	0.132
-269.326	396.417	0.056	0.118
-268.311	-200.000	0.006	-0.213
-267.297	357.472	-0.072	0.145
-266.282	-2.451	-0.087	-0.061
-265.267	0.237	-0.121	0.087
-264.253	-161.246	-0.362	0.019
-263.238	-106.937	-0.244	-0.054
-262.224	-55.946	-0.053	-0.024
-261.209	258.144	0.072	0.124
-260.195	-200.000	-0.027	0.138
-259.180	179.210	0.037	0.054
-258.165	208.998	0.143	-0.225
-257.151	-86.506	0.256	-0.079
-256.136	-51.112	0.135	-0.063
-255.122	20.726	0.162	-0.131
-254.107	389.901	-0.050	0.105
-253.092	-200.000	-0.012	0.230
-252.078	-200.000	0.046	0.299
-251.063	-149.795	0.264	0.021
-250.049	-99.411	-0.196	0.049
-249.034	-64.750	0.241	0.098
-248.019	-112.615	0.224	0.045
-247.005	-200.000	-0.007	-0.174
-245.990	441.458	-0.063	0.137
-244.976	-127.710	-0.086	0.013
-243.961	-200.000	0.008	-0.303
-242.946	-38.793	0.119	-0.063
-241.932	-63.517	0.167	0.069
-240.917	-2.901	-0.220	0.154
-239.903	206.494	0.247	0.385
-238.888	-129.780	-0.229	-0.032
-237.873	197.686	-0.065	0.100
-236.859	-200.000	0.009	-0.215
-235.844	-200.000	-0.058	0.309
-234.830	14.277	-0.309	0.242
-233.815	75.587	-0.223	0.236
-232.800	90.371	0.190	0.213
-231.786	97.355	-0.153	-0.176
-230.771	-127.544	0.349	0.051
-229.757	-158.710	-0.340	-0.020
-228.742	-13.051	0.131	0.085
-227.727	738.122	0.033	0.088
-226.713	480.251	0.087	0.197
-225.698	-78.686	0.279	0.095
-224.684	417.861	-0.089	0.191
-223.669	-5.179	0.086	0.059
-222.655	-132.062	-0.274	0.036
-221.640	-134.044	0.272	-0.034
-220.625	150.927	0.186	-0.254
-219.611	-103.655	0.087	-0.020
-218.596	-1.731	-0.344	-0.243
-217.582	-200.000	0.057	-0.294
-216.567	-72.914	0.285	-0.105
-215.552	-94.098	0.161	0.044
-214.538	-200.000	-0.028	0.203
-213.523	-113.956	0.112	0.022
-212.509	800.000	-0.009	0.030
-211.494	230.227	0.138	-0.227
-210.479	147.812	0.055	-0.074
-209.465	-107.246	0.222	-0.049
-208.450	-172.879	-0.449	0.014
-207.436	-103.374	-0.115	0.027
-206.421	-200.000	-0.022	0.148
-205.406	-200.000	0.070	-0.463
-204.392	85.376	-0.214	-0.236
-203.377	800.000	0.098	0.384
-202.363	48.294	-0.048	0.045
-201.348	-200.000	0.045	0.256
-200.333	330.433	0.157	0.303
-199.319	-70.898	0.221	0.084
-198.304	-200.000	0.021	-0.257
-197.290	-200.000	-0.009	0.193
-196.275	53.769	-0.107	-0.103
-195.260	-140.308	0.208	-0.022
-194.246	-200.000	-0.033	-0.369
-193.231	342.783	0.073	-0.144
-192.217	590.828	-0.076	0.187
-191.202	-200.000	-0.015	-0.226
-190.187	-200.000	0.048	-0.215
-189.173	157.471	0.070	0.097
-188.158	-86.143	-0.258	0.080
-187.144	91.856	-0.105	-0.118
-186.129	-125.503	-0.345	-0.052
-185.114	302.306	0.094	0.174
-184.100	174.781	-0.076	0.110
-183.085	122.519	-0.106	0.133
-182.071	82.857	0.240	-0.262
-181.056	-6.456	-0.149	0.102
-180.042	-29.438	0.283	-0.162
-179.027	800.000	-0.086	0.330
-178.012	800.000	-0.134	0.454
-176.998	131.011	0.110	0.141
-175.983	265.907	0.050	0.088
-174.969	289.910	0.133	0.242
-173.954	800.000	-0.065	0.236
-172.939	-200.000	0.001	0.127
-171.925	65.717	0.140	-0.142
-170.910	46.191	-0.087	0.081
-169.896	-14.479	0.172	0.111
-168.881	-58.005	0.117	-0.051
-167.866	-100.669	-0.223	0.055
-166.852	-50.640	-0.327	0.154
-165.837	-200.000	0.001	-0.013
-164.823	-130.679	-0.138	-0.019
-163.808	23.663	0.129	-0.107
-162.793	-41.986	-0.266	-0.136
-161.779	285.629	0.103	0.186
-160.764	304.360	0.062	-0.116
-159.750	-55.302	-0.247	-0.111
-158.735	98.027	0.101	0.116
-157.720	-77.817	0.079	-0.027
-156.706	-127.272	-0.540	0.079
-155.691	-200.000	-0.021	0.350
-154.677	227.075	-0.082	-0.132
-153.662	-70.280	0.131	0.050
-152.647	-141.694	-0.232	0.023
-151.633	800.000	-0.024	0.093
-150.618	-51.659	0.103	0.048
-149.604	-200.000	-0.045	-0.209
-148.589	800.000	-0.022	0.070
-147.574	102.157	-0.061	-0.071
-146.560	-200.000	-0.017	-0.117
-145.545	15.664	0.264	-0.208
-144.531	-27.390	-0.193	0.112
-143.516	362.314	0.152	0.305
-142.502	-200.000	-0.006	-0.089
-141.487	97.749	0.101	-0.116
-140.472	142.739	-0.107	0.142
-139.458	-200.000	-0.022	-0.171
-138.443	-70.097	-0.234	0.089
-137.429	-4.696	-0.273	0.188
-136.414	-200.000	0.055	0.300
-135.399	508.656	0.125	0.291
-134.385	78.552	-0.248	-0.264
-133.370	-200.000	0.024	-0.564
-132.356	100.919	-0.311	0.361
-131.341	78.240	-0.185	0.198
-130.326	-200.000	0.000	0.308
-129.312	-40.393	-0.078	-0.040
-128.297	14.109	0.107	-0.084
-127.283	-51.361	0.210	0.098
-126.268	-102.880	0.177	0.042
-125.253	140.244	-0.076	-0.100
-124.239	-74.615	0.365	-0.131
-123.224	-133.231	0.173	0.022
-122.210	-200.000	0.007	0.248
-121.195	554.372	-0.052	0.124
-120.180	800.000	0.026	0.073
-119.166	-76.619	-0.281	0.099
-118.151	-29.825	0.107	0.061
-117.137	111.958	0.065	0.079
-116.122	92.973	-0.090	0.102
-115.107	-125.038	-0.132	0.020
-114.093	386.675	0.111	-0.229
-113.078	800.000	-0.100	-0.380
-112.064	-22.535	0.164	-0.099
-111.049	48.074	-0.115	-0.107
-110.034	26.285	-0.159	-0.132
-109.020	-32.896	0.189	-0.105
-108.005	-61.919	0.183	-0.076
-106.991	512.260	-0.160	0.371
-105.976	800.000	0.024	-0.075
-104.962	-14.164	0.063	-0.040
-103.947	686.733	-0.139	0.363
-102.932	-86.308	0.539	0.166
-101.918	42.297	0.092	-0.084
-100.903	406.095	0.040	-0.084
-99.889	-200.000	-0.008	0.183
-98.874	58.227	0.060	-0.059
-97.859	315.116	0.083	0.156
-96.845	-147.540	0.510	0.043
-95.830	29.912	0.125	0.106
-94.816	-5.730	-0.057	-0.039
-93.801	184.668	0.078	-0.115
-92.786	-200.000	-0.036	-0.174
-91.772	-41.455	-0.305	-0.157
-90.757	-200.000	0.016	-0.302
-89.743	169.188	0.131	0.186
-88.728	-200.000	-0.041	-0.299
-87.713	148.295	0.049	0.066
-86.699	-1.987	-0.198	-0.139
-85.684	397.038	-0.153	0.319
-84.670	461.466	0.030	-0.067
-83.655	87.082	-0.162	-0.178
-82.640	-126.695	-0.315	-0.047
-81.626	-99.212	-0.322	-0.081
-80.611	-200.000	-0.019	0.251
-79.597	800.000	-0.090	-0.304
-78.582	-51.061	-0.277	-0.130
-77.567	-28.896	-0.219	-0.125
-76.553	321.694	-0.179	-0.340
-75.538	-1.181	0.057	0.040
-74.524	800.000	0.041	0.178
-73.509	-93.313	0.149	0.041
-72.494	-131.234	0.215	-0.028
-71.480	-157.879	-0.055	-0.003
-70.465	-28.346	0.135	0.078
-69.451	14.958	-0.057	-0.045
-68.436	-200.000	-0.016	0.384
-67.422	-200.000	-0.000	0.122
-66.407	203.614	-0.148	0.228
-65.392	115.211	-0.144	0.176
-64.378	112.213	-0.160	-0.193
-63.363	800.000	0.087	0.261
-62.349	-1.195	0.286	0.202
-61.334	60.699	-0.657	-0.648
-60.319	564.235	-0.090	0.217
-59.305	-200.000	-0.158	-0.696
-58.290	-62.587	0.419	0.173
-57.276	466.131	0.556	1.241
-56.261	-200.000	70.409	530.584
-55.246	593.908	1269.151	3125.175
-54.232	139.997	2530.300	3322.350
-53.217	121.599	2250.618	2794.127
-52.203	57.360	1691.224	1644.450
-51.188	48.555	1404.008	1310.164
-50.173	44.472	1355.601	1240.106
-49.159	61.985	1386.066	1375.782
-48.144	70.984	1405.423	1450.007
-47.130	48.719	1369.852	1279.091
-46.115	44.392	1353.561	1237.554
-45.100	44.306	1348.510	1232.366
-44.086	44.165	1346.239	1229.390
-43.071	43.959	1344.591	1226.587
-42.057	43.875	1342.093	1223.755
-41.042	44.026	1339.760	1222.489
-40.027	44.081	1338.508	1221.627
-39.013	44.163	1336.568	1220.304
-37.998	44.021	1334.631	1217.633
-36.984	44.208	1332.321	1216.598
-35.969	44.260	1331.341	1215.964
-34.954	44.280	1329.281	1214.153
-33.940	44.307	1328.094	1213.186
-32.925	44.260	1326.667	1211.554
-31.911	44.328	1325.100	1210.479
-30.896	44.227	1323.366	1208.247
-29.881	44.277	1321.846	1207.105
-28.867	44.316	1320.233	1205.815
-27.852	44.267	1318.905	1204.267
-26.838	44.430	1316.802	1203.266
-25.823	44.292	1316.405	1202.035
-24.809	44.254	1314.867	1200.362
-23.794	44.238	1313.669	1199.125
-22.779	44.332	1312.022	1198.129
-21.765	44.316	1310.516	1196.609
-20.750	44.221	1309.461	1195.042
-19.736	44.215	1308.163	1193.773
-18.721	44.088	1306.990	1191.907
-17.706	44.047	1305.783	1190.521
-16.692	44.089	1304.770	1189.794
-15.677	44.118	1303.242	1188.524
-14.663	44.063	1302.186	1187.193
-13.648	44.126	1300.903	1186.347
-12.633	44.127	1300.065	1185.538
-11.619	44.136	1299.624	1185.142
-10.604	43.992	1298.630	1183.345
-9.590	44.071	1297.576	1182.800
-8.575	44.133	1296.546	1182.176
-7.560	44.167	1295.519	1181.390
-6.546	44.170	1294.377	1180.321
-5.531	44.074	1293.580	1178.988
-4.517	44.080	1292.939	1178.393
-3.502	44.136	1292.036	1177.850
-2.487	44.255	1290.606	1177.189
-1.473	44.289	1286.918	1173.972
-0.458	43.464	1272.375	1155.944
0.556	37.393	1251.919	1112.414
1.571	32.541	1253.420	1085.764
2.586	30.395	1267.003	1084.909
3.600	28.335	1255.974	1063.426
4.615	21.882	1180.154	963.812
5.629	11.430	1098.489	843.299
6.644	6.100	1073.639	797.171
7.659	5.587	1071.049	792.581
8.673	5.560	1069.826	791.470
9.688	5.516	1067.774	789.660
10.702	5.799	1067.532	790.839
11.717	11.617	1076.174	826.676
12.731	19.188	1085.872	872.557
13.746	19.589	1085.505	874.212
14.761	17.461	1082.358	860.851
15.775	16.340	1079.711	853.007
16.790	15.277	1077.426	845.766
17.804	14.444	1075.642	840.095
18.819	14.110	1074.534	837.474
19.834	13.687	1073.520	834.483
20.848	13.382	1072.760	832.282
21.863	13.271	1071.656	830.794
22.877	13.185	1071.373	830.070
23.892	12.998	1070.522	828.402
24.907	13.078	1069.964	828.296
25.921	13.187	1068.460	827.604
26.936	13.220	1067.216	826.733
27.950	13.372	1065.847	826.357
28.965	13.256	1064.178	824.412
29.980	13.363	1062.534	823.597
30.994	13.384	1062.083	823.283
32.009	13.415	1060.732	822.317
33.023	13.275	1059.919	820.915
34.038	13.293	1058.491	819.830
35.053	13.189	1057.852	818.743
36.067	13.353	1056.555	818.482
37.082	13.241	1055.957	817.391
38.096	13.342	1055.107	817.159
39.111	13.331	1054.554	816.606
40.126	13.176	1053.196	814.716
41.140	13.069	1052.079	813.253
42.155	13.048	1050.507	811.864
43.169	13.076	1049.614	811.239
44.184	13.115	1048.156	810.229
45.199	12.981	1047.730	809.175
46.213	13.066	1046.796	808.795
47.228	13.235	1045.217	808.333
48.242	13.242	1044.204	807.513
49.257	13.260	1043.134	806.698
50.271	13.211	1042.450	805.860
51.286	13.186	1041.918	805.256
52.301	13.196	1040.823	804.388
53.315	13.062	1039.939	802.981
54.330	13.262	1038.496	802.767
55.344	13.106	1037.748	801.362
56.359	13.126	1036.928	800.753
57.374	13.085	1035.712	799.546
58.388	12.995	1035.032	798.515
59.403	12.904	1034.364	797.490
60.417	13.104	1033.386	797.629
61.432	12.986	1032.652	796.421
62.447	12.964	1031.725	795.530
63.461	13.048	1030.597	794.994
64.476	12.925	1029.973	793.854
65.490	12.904	1029.155	793.051
66.505	12.898	1028.630	792.546
67.520	12.988	1027.865	792.318
68.534	13.061	1027.083	791.999
69.549	12.997	1026.278	791.001
70.563	12.927	1025.510	790.003
71.578	12.949	1024.497	789.257
72.593	12.929	1024.072	788.764
73.607	12.926	1023.626	788.338
74.622	12.932	1022.544	787.463
75.636	12.906	1021.744	786.651
76.651	12.955	1021.240	786.427
77.666	12.898	1020.875	785.806
78.680	12.960	1019.776	785.184
79.695	12.965	1019.545	784.963
80.709	13.019	1018.693	784.493
81.724	13.138	1017.864	784.350
82.739	13.092	1017.555	783.823
83.753	13.256	1016.360	783.613
84.768	13.335	1015.394	783.175
85.782	13.370	1015.230	783.140
86.797	13.276	1013.838	781.554
87.812	13.136	1012.899	780.101
88.826	13.334	1011.862	780.166
89.841	13.250	1010.805	778.886
90.855	13.246	1010.398	778.484
91.870	13.422	1009.189	778.312
92.884	13.449	1008.203	777.612
93.899	13.331	1007.973	776.813
94.914	13.509	1006.209	776.218
95.928	13.455	1005.664	775.473
96.943	13.361	1004.727	774.245
97.957	13.239	1004.288	773.265
98.972	13.304	1003.157	772.630
99.987	13.311	1002.362	771.982
101.001	13.329	1001.421	771.272
102.016	13.472	1000.036	770.806
103.030	13.379	999.795	770.120
104.045	13.359	999.020	769.359
105.060	13.324	998.330	768.599
106.074	13.374	996.812	767.591
107.089	13.152	996.047	765.908
108.103	13.060	995.360	764.882
109.118	13.145	993.910	764.094
110.133	13.121	993.703	763.759
111.147	13.076	992.864	762.837
112.162	13.220	991.495	762.382
113.176	13.262	990.883	762.037
114.191	13.266	990.450	761.658
115.206	13.322	989.361	761.012
116.220	13.151	988.762	759.695
117.235	13.232	987.512	759.042
118.249	13.171	986.959	758.268
119.264	13.171	986.226	757.635
120.279	13.114	985.148	756.479
121.293	13.200	984.045	755.959
122.308	13.088	983.556	755.005
123.322	13.155	982.681	754.575
124.337	13.077	981.522	753.259
125.352	13.112	980.615	752.656
126.366	13.173	978.912	751.560
127.381	13.189	978.142	750.978
128.395	13.183	977.353	750.279
129.410	13.159	976.528	749.468
130.424	13.293	975.437	749.174
131.439	13.266	975.012	748.655
132.454	13.309	974.369	748.289
133.468	13.264	973.331	747.225
134.483	13.371	972.477	746.988
135.497	13.319	972.087	746.384
136.512	13.382	970.814	745.625
137.527	13.366	969.920	744.801
138.541	13.318	969.416	744.131
139.556	13.332	968.956	743.778
140.570	13.587	967.787	743.958
141.585	13.630	967.235	743.663
142.600	13.642	966.333	742.955
143.614	13.467	965.759	741.665
144.629	13.726	964.495	741.787
145.643	13.415	964.110	740.034
146.658	13.512	962.682	739.307
147.673	13.501	961.896	738.588
148.687	13.362	960.977	737.201
149.702	13.339	960.169	736.409
150.716	13.405	959.488	736.117
151.731	13.294	958.985	735.172
152.746	13.432	958.134	735.068
153.760	13.314	957.520	734.006
154.775	13.460	956.630	733.909
155.789	13.457	956.060	733.391
156.804	13.481	955.141	732.727
157.819	13.595	954.292	732.519
158.833	13.534	954.056	732.003
159.848	13.599	953.290	731.636
160.862	13.599	952.325	730.829
161.877	13.401	951.379	729.167
162.892	13.451	950.124	728.363
163.906	13.362	949.254	727.238
164.921	13.512	948.374	727.159
165.935	13.453	947.744	726.352
166.950	13.504	946.827	725.807
167.964	13.451	946.000	724.878
168.979	13.438	944.741	723.793
169.994	13.526	943.807	723.399
171.008	13.526	943.436	723.051
172.023	13.650	942.732	722.987
173.037	13.639	941.926	722.257
174.052	13.697	941.075	721.793
175.067	13.542	940.805	720.849
176.081	13.568	940.523	720.680
177.096	13.585	939.457	719.875
178.110	13.596	939.149	719.621
179.125	13.510	938.840	718.949
180.140	13.517	937.984	718.258
181.154	13.615	937.726	718.423
182.169	13.664	937.119	718.107
183.183	13.812	936.176	717.960
184.198	13.744	935.351	716.973
185.213	13.696	934.688	716.192
186.227	13.779	934.134	716.060
187.242	13.768	933.547	715.500
188.256	14.045	932.659	715.950
189.271	13.936	931.959	714.883
190.286	13.677	931.513	713.359
191.300	13.488	930.709	711.870
192.315	13.552	930.070	711.594
193.329	13.481	929.774	711.001
194.344	13.686	928.654	710.958
195.359	13.719	928.195	710.688
196.373	13.832	927.525	710.592
197.388	13.911	927.165	710.595
198.402	13.887	926.901	710.225
199.417	14.053	926.029	710.203
200.432	13.988	925.287	709.295
201.446	14.049	924.886	709.186
202.461	14.078	924.307	708.803
203.475	14.104	923.761	708.431
204.490	14.146	923.032	707.987
205.504	14.029	922.187	706.780
206.519	14.114	921.254	706.362
207.534	14.036	920.502	705.392
208.548	14.046	920.190	705.136
209.563	14.120	919.540	704.887
210.577	13.993	918.699	703.643
211.592	14.182	918.114	703.930
212.607	14.229	917.470	703.574
213.621	14.055	916.859	702.309
214.636	14.149	916.055	702.026
215.650	14.237	915.292	701.750
216.665	14.230	914.747	701.240
217.680	14.360	913.928	701.100
218.694	14.322	913.301	700.397
219.709	14.295	912.683	699.746
220.723	14.333	911.999	699.320
221.738	14.278	911.283	698.477
222.753	14.335	910.573	698.111
223.767	14.375	910.058	697.821
224.782	14.421	909.468	697.498
225.796	14.447	908.995	697.184
226.811	14.422	908.054	696.298
227.826	14.283	907.376	695.136
228.840	14.279	907.001	694.769
229.855	14.401	905.666	694.192
230.869	14.323	905.049	693.334
231.884	14.206	904.891	692.666
232.899	14.331	903.782	692.277
233.913	14.235	903.101	691.294
234.928	14.236	902.731	690.954
235.942	14.339	901.859	690.651
236.957	14.289	901.422	690.047
237.972	14.262	901.233	689.731
238.986	14.289	900.142	688.948
240.001	14.358	899.586	688.745
241.015	14.379	898.742	688.127
242.030	14.562	897.946	688.211
243.045	14.491	897.512	687.524
244.059	14.380	897.122	686.705
245.074	14.537	896.477	686.798
246.088	14.566	895.664	686.236
247.103	14.702	894.915	686.158
248.117	14.654	894.928	685.912
249.132	14.693	894.159	685.419
250.147	14.907	893.316	685.592
251.161	14.882	892.796	685.031
252.176	14.824	892.298	684.349
253.190	14.898	891.678	684.117
254.205	15.049	890.864	684.046
255.220	14.947	890.041	682.940
256.234	14.900	889.669	682.399
257.249	15.011	888.936	682.229
258.263	15.023	888.267	681.706
259.278	15.031	887.556	681.131
260.293	15.095	886.949	680.868
261.307	15.103	886.351	680.381
262.322	14.996	886.161	679.741
263.336	14.934	885.400	678.843
264.351	15.126	884.643	678.981
265.366	15.079	884.061	678.285
266.380	15.229	883.147	678.130
267.395	15.139	882.601	677.289
268.409	15.098	882.084	676.664
269.424	14.971	881.337	675.519
270.439	15.145	880.417	675.458
271.453	15.061	879.567	674.404
272.468	15.122	879.254	674.351
273.482	15.116	878.466	673.664
274.497	15.034	878.280	673.131
275.512	15.080	877.686	672.802
276.526	15.164	877.063	672.600
277.541	15.089	876.685	671.952
278.555	15.312	875.871	672.161
279.570	15.226	875.657	671.592
280.585	15.434	874.402	671.405
281.599	15.222	873.908	670.118
282.614	15.218	872.889	669.263
283.628	15.099	872.644	668.539
284.643	15.315	871.946	668.808
285.657	15.462	871.203	668.762
286.672	15.266	870.548	667.421
287.687	15.323	870.311	667.406
288.701	15.252	870.130	666.928
289.716	15.391	868.636	666.275
290.730	15.476	867.983	666.053
291.745	15.402	867.897	665.634
292.760	15.360	867.464	665.076
293.774	15.447	866.379	664.530
294.789	15.622	865.851	664.759
295.803	15.424	865.182	663.403
296.818	15.479	864.111	662.742
297.833	15.410	863.563	661.989
298.847	15.504	863.462	662.223
299.862	15.552	862.817	661.861
300.876	15.545	862.474	661.512
301.891	15.614	861.706	661.135
302.906	15.739	861.184	661.167
303.920	15.804	860.574	660.896
304.935	15.739	860.173	660.273
305.949	15.801	859.385	659.853
306.964	15.710	858.916	659.079
307.979	15.723	858.316	658.610
308.993	15.784	857.890	658.464
310.008	15.845	856.908	657.891
311.022	15.773	856.436	657.189
312.037	15.770	855.837	656.661
313.052	15.701	855.353	655.960
314.066	15.638	854.805	655.236
315.081	15.736	853.975	654.924
316.095	15.785	853.339	654.569
317.110	15.819	852.821	654.245
318.125	15.800	852.508	653.875
319.139	15.770	852.050	653.348
320.154	15.951	851.502	653.573
321.168	15.725	851.357	652.528
322.183	15.806	850.449	652.087
323.197	15.940	849.826	652.071
324.212	15.815	849.360	651.171
325.227	15.718	848.615	650.169
326.241	15.859	848.308	650.422
327.256	15.855	847.645	649.840
328.270	15.828	847.286	649.404
329.285	15.828	846.517	648.757
330.300	15.849	845.521	648.017
331.314	15.921	845.380	648.127
332.329	15.849	845.157	647.620
333.343	15.860	844.561	647.151
334.358	15.957	844.116	647.126
335.373	15.988	843.607	646.796
336.387	15.942	843.527	646.499
337.402	16.077	843.329	646.811
338.416	16.076	842.726	646.287
339.431	16.026	842.627	645.962
340.446	16.209	842.200	646.280
341.460	16.179	841.501	645.568
342.475	16.171	841.272	645.307
343.489	16.191	840.926	645.061
344.504	16.337	839.961	644.820
345.519	16.403	839.338	644.536
346.533	16.535	838.927	644.669
347.548	16.236	838.589	643.212
348.562	16.240	837.997	642.715
349.577	16.196	837.294	641.954
350.592	16.107	836.868	641.229
351.606	16.243	836.080	641.087
352.621	16.088	835.522	640.013
353.635	16.229	834.830	639.961
354.650	16.353	834.194	639.888
355.665	16.360	833.423	639.266
356.679	16.408	833.223	639.238
357.694	16.339	832.355	638.255
358.708	16.438	831.585	637.981
359.723	16.421	831.052	637.451
360.738	16.395	830.573	636.929
361.752	16.342	829.958	636.201
362.767	16.406	829.647	636.150
363.781	16.538	828.952	636.056
364.796	16.642	828.387	635.956
365.810	16.501	828.250	635.263
366.825	16.687	827.743	635.517
367.840	16.686	827.220	635.058
368.854	16.606	826.660	634.271
369.869	16.652	826.209	634.043
370.883	16.663	825.978	633.848
371.898	16.734	825.440	633.644
372.913	16.726	825.052	633.262
373.927	16.684	824.540	632.655
374.942	16.674	823.717	631.930
375.956	16.788	823.524	632.153
376.971	16.861	823.046	632.003
377.986	16.798	822.782	631.507
379.000	16.886	822.432	631.512
380.015	16.900	821.960	631.144
381.029	16.866	821.370	630.508
382.044	16.927	820.660	630.135
383.059	17.009	820.004	629.882
384.073	16.955	819.839	629.499
385.088	16.856	818.972	628.409
386.102	16.882	818.280	627.918
387.117	16.898	817.419	627.261
388.132	16.798	817.230	626.692
389.146	17.008	816.706	627.011
390.161	17.062	816.191	626.759
391.175	17.063	815.726	626.352
392.190	16.946	815.956	626.038
393.205	17.011	814.864	625.385
394.219	17.047	814.315	625.042
395.234	16.931	814.310	624.555
396.248	16.926	813.607	623.943
397.263	16.895	813.217	623.476
398.278	16.784	812.979	622.828
399.292	16.824	812.366	622.453
400.307	16.885	811.753	622.149
401.321	16.985	811.376	622.172
402.336	16.945	811.157	621.805
403.350	17.072	810.567	621.762
404.365	17.063	810.029	621.261
405.380	17.216	809.465	621.333
406.394	17.221	808.971	620.916
407.409	17.159	808.620	620.364
408.423	17.297	808.343	620.604
409.438	17.300	807.838	620.172
410.453	17.258	807.786	619.922
411.467	17.410	807.107	619.902
412.482	17.424	806.917	619.751
413.496	17.404	806.405	619.229
414.511	17.456	805.687	618.814
415.526	17.449	805.269	618.411
416.540	17.342	804.990	617.752
417.555	17.392	804.692	617.651
418.569	17.512	804.098	617.578
419.584	17.492	803.761	617.192
420.599	17.611	802.867	616.879
421.613	77.789	1237.767	1274.246
422.628	65.858	1301.169	1274.373
