DTS Sentinel unit serial number:	SN413079Multiplexer serial number:	ORYXHardware model number:	OX4-SRSoftware version number:	ORYX F/W v4.00 Oryx Data Collector v3.7.2.0data status	okinstallation	princeton_trtdifferential loss correction	single-endedforward channel	channel 1reverse channel	N/Adate	2019/09/10time	18:28:11forward acquisition time	60.00reverse acquisition time	0.00gamma	496.2192k internal	0.2306k external	0.2306temperature offset calibration	0.9925default loss term (dB/km)	0.3790temperature slope calibration	1.0000multiplexer offset coefficient	1.0000multiplexer slope coefficient	1.0000fibre end	0.00T internal ref (°C)	35.97T ext. ref 1 (°C)	-0.39T ext. ref 2 (°C)	28.04length (m)	temperature (°C)	Stokes	anti-Stokes-747.200	800.000	0.093	0.307
-746.185	-63.286	0.076	-0.032
-745.171	-200.000	-0.004	-0.268
-744.156	-52.561	0.168	0.079
-743.142	-35.856	-0.159	-0.087
-742.127	-200.000	-0.013	0.083
-741.112	800.000	-0.074	-0.255
-740.098	-200.000	-0.013	0.209
-739.083	-200.000	-0.006	-0.190
-738.069	261.276	0.089	0.157
-737.054	120.311	-0.093	-0.117
-736.039	-108.846	-0.235	0.051
-735.025	405.604	0.100	0.214
-734.010	175.814	0.052	0.076
-732.996	-200.000	0.007	0.225
-731.981	-82.809	0.104	0.034
-730.966	-5.782	-0.249	0.173
-729.952	-65.426	-0.143	0.059
-728.937	800.000	-0.019	-0.061
-727.923	431.757	-0.073	-0.160
-726.908	32.203	-0.310	-0.272
-725.894	-61.460	-0.623	-0.266
-724.879	-200.000	-0.003	0.260
-723.864	103.286	-0.169	-0.201
-722.850	19.231	-0.228	-0.186
-721.835	-10.289	-0.160	-0.108
-720.821	154.885	0.237	-0.332
-719.806	800.000	-0.093	-0.329
-718.791	250.804	-0.181	-0.312
-717.777	-200.000	-0.042	-0.240
-716.762	-200.000	0.005	-0.166
-715.748	484.083	0.158	-0.365
-714.733	25.164	-0.184	0.155
-713.718	-26.668	-0.149	0.089
-712.704	18.498	-0.082	0.067
-711.689	-200.000	-0.012	-0.118
-710.675	42.231	-0.228	-0.211
-709.660	-0.686	-0.145	0.104
-708.645	-200.000	0.015	-0.073
-707.631	-136.242	-0.177	-0.021
-706.616	133.216	-0.149	-0.196
-705.602	1.745	0.026	0.019
-704.587	-200.000	0.100	-0.528
-703.572	458.215	0.099	-0.223
-702.558	199.336	-0.095	-0.148
-701.543	-72.613	0.061	-0.023
-700.529	-28.722	-0.182	-0.106
-699.514	438.348	0.230	-0.509
-698.499	-200.000	-0.034	0.214
-697.485	193.293	-0.046	-0.070
-696.470	97.577	-0.157	-0.184
-695.456	-200.000	0.041	0.267
-694.441	211.468	0.146	-0.234
-693.426	800.000	0.041	-0.147
-692.412	-200.000	0.024	-0.256
-691.397	-77.079	-0.106	0.038
-690.383	800.000	0.148	-0.529
-689.368	583.068	-0.060	0.150
-688.354	-64.900	-0.477	0.196
-687.339	-200.000	0.026	-0.410
-686.324	-127.762	-0.220	0.032
-685.310	-18.341	0.104	-0.066
-684.295	-200.000	-0.020	-0.144
-683.281	-200.000	0.007	-0.154
-682.266	75.203	0.210	-0.225
-681.251	-110.309	0.259	0.055
-680.237	-200.000	-0.025	0.119
-679.222	100.680	0.171	-0.201
-678.208	510.693	-0.114	-0.269
-677.193	-200.000	-0.002	0.115
-676.178	-114.326	-0.130	-0.025
-675.164	-94.751	-0.070	0.019
-674.149	10.844	0.130	-0.101
-673.135	314.152	-0.020	-0.039
-672.120	-129.173	0.112	0.016
-671.105	-27.105	0.055	0.033
-670.091	800.000	-0.075	0.299
-669.076	308.549	-0.168	0.318
-668.062	426.840	-0.055	-0.121
-667.047	-200.000	0.023	-0.485
-666.032	187.967	-0.066	0.101
-665.018	-21.738	0.264	-0.163
-664.003	-60.783	-0.448	0.192
-662.989	15.048	0.061	-0.048
-661.974	-113.251	-0.044	-0.009
-660.959	-38.638	-0.463	0.248
-659.945	41.834	0.096	0.088
-658.930	-97.072	-0.168	0.044
-657.916	-86.817	-0.151	0.047
-656.901	72.446	0.021	-0.022
-655.886	6.714	0.199	0.150
-654.872	365.285	-0.164	-0.335
-653.857	800.000	0.060	0.245
-652.843	-65.552	-0.135	-0.055
-651.828	-3.269	-0.261	0.184
-650.814	-200.000	0.004	0.186
-649.799	-200.000	-0.023	0.195
-648.784	55.166	-0.416	-0.407
-647.770	-200.000	-0.031	-0.333
-646.755	-148.762	0.116	-0.010
-645.741	-200.000	-0.004	-0.199
-644.726	-200.000	-0.002	-0.096
-643.711	482.224	0.239	-0.550
-642.697	-200.000	0.079	-0.380
-641.682	194.540	-0.205	0.315
-640.668	-196.529	0.104	0.001
-639.653	32.006	0.041	0.036
-638.638	-115.575	0.196	0.037
-637.624	-52.495	-0.219	0.102
-636.609	-200.000	0.018	-0.396
-635.595	-66.212	-0.255	-0.103
-634.580	-200.000	-0.031	0.142
-633.565	-200.000	0.023	0.196
-632.551	126.202	-0.202	0.259
-631.536	-142.615	-0.171	0.017
-630.522	-65.850	-0.271	0.110
-629.507	162.591	0.131	0.186
-628.492	800.000	0.048	0.211
-627.478	190.265	0.129	-0.196
-626.463	-111.266	0.302	-0.063
-625.449	63.113	0.073	0.074
-624.434	-170.666	0.052	-0.002
-623.419	13.285	0.060	-0.047
-622.405	284.401	0.108	0.197
-621.390	68.198	0.069	0.071
-620.376	-100.953	0.196	-0.049
-619.361	28.660	0.063	-0.054
-618.346	160.531	0.201	-0.284
-617.332	73.267	0.117	-0.123
-616.317	0.680	0.337	0.244
-615.303	373.741	-0.084	0.174
-614.288	-75.636	0.260	0.093
-613.273	800.000	0.018	0.064
-612.259	6.923	0.221	0.166
-611.244	-115.530	-0.098	-0.019
-610.230	-119.890	-0.343	0.060
-609.215	-200.000	-0.026	0.246
-608.201	-200.000	-0.045	0.338
-607.186	271.878	0.094	0.168
-606.171	63.419	-0.191	-0.194
-605.157	-99.769	-0.290	-0.074
-604.142	-148.997	-0.116	0.009
-603.128	-200.000	-0.073	0.496
-602.113	-7.916	-0.059	-0.040
-601.098	-87.591	0.234	-0.071
-600.084	-104.183	0.364	0.086
-599.069	362.895	-0.121	0.247
-598.055	800.000	0.093	0.347
-597.040	481.524	0.159	-0.366
-596.025	491.612	0.069	-0.161
-595.011	-80.944	0.295	-0.099
-593.996	-200.000	0.038	0.262
-592.982	-101.398	-0.289	0.071
-591.967	-119.315	0.187	-0.033
-590.952	-131.776	-0.370	0.049
-589.938	-99.015	0.121	0.031
-588.923	-45.418	-0.108	0.054
-587.909	-200.000	-0.028	-0.243
-586.894	-44.353	-0.024	0.012
-585.879	9.106	-0.142	0.108
-584.865	-200.000	0.004	0.081
-583.850	388.273	-0.119	0.250
-582.836	43.837	-0.205	-0.189
-581.821	553.847	0.055	-0.135
-580.806	800.000	0.101	-0.306
-579.792	800.000	0.125	-0.393
-578.777	-200.000	0.035	-0.296
-577.763	-115.843	-0.344	0.065
-576.748	-9.336	-0.333	-0.225
-575.733	-49.959	0.215	0.103
-574.719	800.000	0.107	0.424
-573.704	209.435	-0.147	-0.233
-572.690	-200.000	0.002	0.050
-571.675	-70.538	-0.170	-0.065
-570.661	721.901	0.090	0.242
-569.646	-23.965	0.036	0.022
-568.631	-126.937	0.229	-0.034
-567.617	-200.000	0.022	-0.127
-566.602	76.182	-0.078	0.084
-565.588	-182.782	-0.136	0.002
-564.573	257.465	0.025	0.043
-563.558	-200.000	-0.042	-0.244
-562.544	144.111	-0.255	-0.343
-561.529	298.044	0.162	0.301
-560.515	42.731	-0.182	-0.168
-559.500	-67.391	-0.043	-0.017
-558.485	260.056	-0.164	0.286
-557.471	-32.595	0.138	0.078
-556.456	0.793	-0.362	-0.261
-555.442	800.000	-0.009	0.034
-554.427	-200.000	-0.021	-0.195
-553.412	-72.526	0.359	0.134
-552.398	800.000	-0.043	-0.183
-551.383	-66.052	0.118	-0.047
-550.369	445.169	0.038	-0.083
-549.354	800.000	-0.047	-0.164
-548.339	16.336	0.096	0.076
-547.325	-110.399	-0.364	-0.076
-546.310	42.278	0.134	-0.123
-545.296	800.000	-0.076	-0.313
-544.281	-200.000	0.012	0.096
-543.266	-54.740	-0.171	0.078
-542.252	193.819	0.126	0.192
-541.237	-7.328	-0.256	-0.175
-540.223	75.466	0.228	-0.243
-539.208	-169.925	0.094	0.003
-538.193	-182.838	-0.305	0.006
-537.179	-12.858	0.298	0.196
-536.164	-200.000	0.013	0.121
-535.150	379.831	0.058	0.119
-534.135	-59.962	0.250	-0.108
-533.121	-147.203	0.216	-0.019
-532.106	230.897	-0.045	0.075
-531.091	-93.433	0.215	0.060
-530.077	335.307	-0.034	0.066
-529.062	-89.692	-0.330	-0.098
-528.048	800.000	0.021	-0.091
-527.033	182.654	-0.038	-0.056
-526.018	188.400	0.100	-0.151
-525.004	283.795	0.092	-0.167
-523.989	-45.808	0.132	-0.066
-522.975	78.190	0.170	0.183
-521.960	155.685	-0.059	0.082
-520.945	-200.000	-0.037	0.405
-519.931	-138.201	-0.311	0.035
-518.916	58.339	-0.190	0.188
-517.902	407.615	0.196	0.417
-516.887	284.005	0.107	0.194
-515.872	108.958	0.109	0.131
-514.858	452.461	-0.100	-0.223
-513.843	-138.620	0.205	0.023
-512.829	-200.000	0.095	0.459
-511.814	-200.000	0.018	0.141
-510.799	132.940	-0.116	0.150
-509.785	800.000	0.024	0.098
-508.770	-136.383	-0.355	0.042
-507.756	-93.273	0.269	-0.075
-506.741	-200.000	0.046	0.000
-505.726	251.920	-0.074	0.127
-504.712	-200.000	-0.023	0.231
-503.697	185.291	0.136	0.204
-502.683	24.704	0.156	-0.130
-501.668	375.057	0.097	-0.199
-500.653	800.000	-0.020	-0.077
-499.639	-49.300	-0.148	-0.071
-498.624	-21.858	0.254	0.156
-497.610	255.703	-0.082	0.142
-496.595	-200.000	0.031	0.146
-495.581	-114.267	0.216	0.042
-494.566	-200.000	0.024	-0.332
-493.551	107.426	0.109	-0.131
-492.537	277.118	0.150	-0.268
-491.522	69.948	0.163	0.169
-490.508	246.077	0.177	-0.300
-489.493	-68.584	0.212	-0.083
-488.478	-62.044	-0.290	-0.122
-487.464	-7.490	-0.225	-0.154
-486.449	343.096	0.096	0.189
-485.435	155.493	0.201	0.279
-484.420	-200.000	-0.066	-0.409
-483.405	715.763	0.126	0.338
-482.391	800.000	0.091	0.259
-481.376	800.000	-0.066	0.204
-480.362	-200.000	-0.026	-0.295
-479.347	453.992	-0.140	-0.313
-478.332	51.264	0.109	0.104
-477.318	-104.943	0.372	0.086
-476.303	22.851	-0.284	-0.234
-475.289	-94.264	-0.161	0.044
-474.274	-200.000	0.024	0.111
-473.259	-94.223	-0.256	-0.070
-472.245	585.038	0.070	0.172
-471.230	-200.000	-0.076	0.405
-470.216	709.280	0.094	-0.250
-469.201	-59.636	-0.363	-0.157
-468.186	-200.000	0.023	-0.158
-467.172	-200.000	-0.033	0.189
-466.157	-200.000	0.003	0.118
-465.143	-47.009	0.160	0.078
-464.128	-47.406	-0.335	-0.164
-463.113	-124.917	0.114	-0.018
-462.099	800.000	0.078	0.259
-461.084	26.303	-0.159	0.134
-460.070	-79.391	0.091	0.031
-459.055	-39.471	0.154	0.081
-458.040	-43.926	-0.119	-0.060
-457.026	-200.000	0.018	-0.186
-456.011	-200.000	0.005	0.059
-454.997	-200.000	-0.010	-0.162
-453.982	-88.466	-0.126	0.038
-452.968	176.880	-0.138	0.202
-451.953	-200.000	0.014	0.288
-450.938	-71.498	-0.144	-0.054
-449.924	432.170	0.186	-0.406
-448.909	33.215	-0.455	-0.397
-447.895	490.452	0.089	-0.205
-446.880	129.358	0.185	0.237
-445.865	233.509	0.247	0.410
-444.851	74.557	-0.172	0.182
-443.836	-50.692	-0.194	-0.092
-442.822	68.088	-0.166	0.171
-441.807	236.014	-0.218	-0.363
-440.792	492.005	-0.088	-0.202
-439.778	-160.884	0.146	-0.008
-438.763	195.594	-0.096	0.147
-437.749	800.000	0.074	0.260
-436.734	-109.622	-0.276	-0.058
-435.719	445.850	-0.103	-0.228
-434.705	-200.000	0.007	0.102
-433.690	800.000	-0.018	-0.067
-432.676	-200.000	0.042	-0.267
-431.661	-111.135	-0.357	0.073
-430.646	-200.000	-0.064	-0.295
-429.632	121.510	0.108	-0.135
-428.617	800.000	0.025	-0.088
-427.603	187.170	-0.089	-0.134
-426.588	-200.000	-0.004	0.036
-425.573	800.000	-0.018	0.064
-424.559	395.505	0.080	0.168
-423.544	-113.120	-0.341	0.068
-422.530	-114.619	-0.027	0.005
-421.515	800.000	0.044	-0.127
-420.500	309.805	0.079	-0.148
-419.486	-113.046	-0.334	-0.066
-418.471	-121.838	0.199	-0.033
-417.457	-29.471	0.119	0.068
-416.442	-200.000	-0.003	-0.051
-415.428	-17.602	0.369	-0.233
-414.413	308.047	0.067	0.126
-413.398	-136.920	0.378	0.044
-412.384	341.284	-0.087	0.171
-411.369	390.570	0.116	0.242
-410.355	-200.000	0.009	0.380
-409.340	-65.892	-0.230	-0.092
-408.325	84.806	0.073	-0.081
-407.311	780.330	-0.087	0.238
-406.296	-200.000	-0.008	0.039
-405.282	-200.000	-0.007	-0.083
-404.267	800.000	-0.049	-0.216
-403.252	-148.015	0.460	-0.038
-402.238	-189.310	0.309	-0.004
-401.223	-200.000	0.034	0.206
-400.209	-122.724	-0.242	0.039
-399.194	94.009	-0.209	-0.238
-398.179	-200.000	0.004	-0.289
-397.165	-127.237	-0.473	-0.069
-396.150	-53.642	-0.233	0.107
-395.136	-6.462	0.057	0.039
-394.121	800.000	0.090	-0.326
-393.106	130.990	-0.081	0.104
-392.092	800.000	0.025	-0.083
-391.077	5.052	-0.223	0.165
-390.063	-200.000	0.055	0.000
-389.048	-143.659	-0.347	0.033
-388.033	-171.444	0.175	0.006
-387.019	-34.885	0.165	0.091
-386.004	-200.000	-0.048	-0.336
-384.990	-62.653	-0.335	0.139
-383.975	-10.121	-0.205	0.136
-382.960	-87.051	-0.079	0.024
-381.946	684.894	-0.092	-0.242
-380.931	-200.000	0.016	-0.205
-379.917	228.295	-0.025	0.040
-378.902	-200.000	0.041	-0.312
-377.888	178.085	-0.183	0.268
-376.873	170.545	-0.087	0.125
-375.858	-145.484	0.412	0.037
-374.844	739.422	-0.019	0.051
-373.829	86.226	0.192	0.212
-372.815	58.863	0.129	0.127
-371.800	-32.150	-0.108	-0.061
-370.785	-108.566	0.148	-0.032
-369.771	800.000	-0.101	0.392
-368.756	172.242	0.078	0.112
-367.742	509.108	0.035	0.082
-366.727	112.522	0.179	0.217
-365.712	394.209	-0.110	-0.229
-364.698	800.000	-0.074	-0.261
-363.683	-105.185	0.220	-0.050
-362.669	-4.457	-0.080	-0.055
-361.654	-200.000	0.068	-0.415
-360.639	-200.000	-0.020	-0.201
-359.625	-200.000	0.030	0.204
-358.610	800.000	0.134	0.389
-357.596	14.823	-0.252	0.197
-356.581	-72.340	-0.238	0.088
-355.566	-141.334	0.157	-0.016
-354.552	640.778	-0.118	-0.301
-353.537	24.576	0.221	-0.184
-352.523	-200.000	-0.079	-0.412
-351.508	800.000	0.020	0.058
-350.493	347.255	-0.139	-0.274
-349.479	-75.471	0.332	-0.118
-348.464	369.835	0.071	-0.145
-347.450	4.992	0.114	-0.084
-346.435	388.151	-0.148	0.306
-345.420	65.298	-0.258	0.261
-344.406	-200.000	-0.045	0.221
-343.391	28.157	-0.321	0.272
-342.377	800.000	-0.150	0.541
-341.362	-39.226	0.196	-0.103
-340.348	-200.000	0.050	-0.298
-339.333	75.131	-0.187	-0.197
-338.318	800.000	-0.096	-0.306
-337.304	-200.000	-0.002	0.196
-336.289	21.515	-0.133	-0.109
-335.275	576.811	-0.040	-0.098
-334.260	-124.866	0.375	-0.058
-333.245	-76.119	-0.143	0.051
-332.231	45.990	-0.053	0.049
-331.216	30.008	0.126	0.107
-330.202	-126.494	-0.270	-0.040
-329.187	-54.701	0.063	-0.028
-328.172	800.000	0.073	0.242
-327.158	15.297	0.118	-0.093
-326.143	80.306	-0.133	-0.144
-325.129	-26.922	0.201	-0.118
-324.114	-40.443	0.203	0.105
-323.099	145.397	-0.262	0.351
-322.085	-200.000	0.095	0.438
-321.070	-200.000	-0.008	-0.051
-320.056	631.147	0.087	-0.220
-319.041	-4.022	0.203	0.140
-318.026	-200.000	-0.007	0.260
-317.012	-200.000	-0.324	-0.001
-315.997	-200.000	0.007	-0.125
-314.983	161.645	0.129	-0.181
-313.968	286.859	-0.073	-0.131
-312.953	-105.557	-0.091	-0.021
-311.939	-200.000	0.043	0.486
-310.924	-48.841	0.030	-0.014
-309.910	88.018	0.121	-0.134
-308.895	771.882	0.116	-0.315
-307.880	-14.510	-0.080	0.051
-306.866	-200.000	0.032	-0.230
-305.851	-66.112	-0.302	0.121
-304.837	-200.000	0.011	-0.112
-303.822	89.558	0.049	-0.055
-302.807	554.706	0.052	-0.124
-301.793	-50.073	-0.160	-0.076
-300.778	-42.947	-0.217	0.110
-299.764	-127.088	0.262	-0.038
-298.749	-200.000	0.049	0.254
-297.735	-108.044	0.284	-0.062
-296.720	-37.364	0.326	0.174
-295.705	-200.000	-0.016	-0.161
-294.691	359.687	-0.034	0.068
-293.676	72.144	-0.116	0.121
-292.662	112.243	-0.133	0.161
-291.647	519.403	-0.081	-0.191
-290.632	33.264	-0.117	0.101
-289.618	-200.000	-0.014	-0.200
-288.603	-153.411	-0.183	0.013
-287.589	139.636	-0.202	0.266
-286.574	-200.000	-0.006	0.105
-285.559	-14.749	-0.263	0.169
-284.545	-120.535	0.245	-0.042
-283.530	-24.348	-0.067	-0.040
-282.516	800.000	-0.035	0.111
-281.501	-189.822	0.160	-0.002
-280.486	-180.138	-0.256	0.005
-279.472	269.269	0.150	0.264
-278.457	-4.087	0.216	0.149
-277.443	3.102	-0.043	0.031
-276.428	800.000	0.106	-0.405
-275.413	61.038	0.165	0.164
-274.399	145.065	0.036	0.048
-273.384	-108.891	0.161	0.034
-272.370	63.541	-0.283	0.283
-271.355	3.347	0.154	0.112
-270.340	394.728	0.047	0.098
-269.326	294.937	-0.083	0.152
-268.311	361.855	-0.155	-0.310
-267.297	265.948	-0.121	-0.211
-266.282	116.995	-0.204	-0.250
-265.267	683.514	-0.054	-0.141
-264.253	291.902	0.073	-0.133
-263.238	502.467	-0.112	0.258
-262.224	82.101	-0.100	0.109
-261.209	-146.287	0.159	0.014
-260.195	-50.837	-0.173	-0.081
-259.180	800.000	0.062	-0.251
-258.165	147.822	0.242	-0.325
-257.151	60.552	0.039	-0.038
-256.136	-200.000	0.015	0.102
-255.122	800.000	0.145	-0.451
-254.107	-31.764	0.295	-0.165
-253.092	-73.896	0.127	-0.046
-252.078	-200.000	0.012	0.107
-251.063	-74.407	0.394	0.142
-250.049	-200.000	-0.000	0.485
-249.034	800.000	0.030	0.102
-248.019	531.558	-0.158	0.373
-247.005	339.847	-0.097	-0.189
-245.990	287.511	0.024	0.044
-244.976	-123.550	-0.210	0.033
-243.961	-200.000	0.067	-0.351
-242.946	-99.431	-0.247	0.062
-241.932	800.000	-0.047	0.174
-240.917	-124.979	0.049	-0.007
-239.903	800.000	0.074	-0.233
-238.888	298.839	0.131	-0.241
-237.873	388.933	0.041	-0.084
-236.859	382.101	0.117	-0.239
-235.844	800.000	-0.175	-0.487
-234.830	203.765	-0.022	-0.034
-233.815	9.176	0.100	0.075
-232.800	-200.000	0.024	0.177
-231.786	800.000	0.056	-0.222
-230.771	651.850	0.068	-0.173
-229.757	-153.350	-0.234	-0.016
-228.742	-159.835	0.213	0.012
-227.727	72.802	-0.184	0.191
-226.713	-200.000	0.036	-0.189
-225.698	-78.825	0.095	-0.032
-224.684	120.181	-0.087	-0.108
-223.669	221.270	-0.032	-0.051
-222.655	800.000	-0.006	-0.018
-221.640	331.816	0.004	-0.007
-220.625	164.432	-0.130	0.183
-219.611	-61.926	0.248	0.103
-218.596	-153.604	0.202	0.014
-217.582	-41.071	0.254	0.131
-216.567	32.882	-0.177	0.152
-215.552	-38.767	-0.117	-0.062
-214.538	-106.942	-0.116	-0.026
-213.523	102.990	0.065	-0.076
-212.509	-17.476	0.272	0.170
-211.494	358.227	0.159	0.317
-210.479	-83.202	-0.271	0.087
-209.465	118.093	-0.144	0.177
-208.450	-170.085	0.095	0.003
-207.436	307.323	0.116	0.216
-206.421	-200.000	-0.018	0.211
-205.406	800.000	0.048	-0.185
-204.392	-31.875	-0.093	0.052
-203.377	800.000	0.080	0.309
-202.363	800.000	-0.012	-0.040
-201.348	26.046	0.285	0.237
-200.333	773.112	0.112	0.305
-199.319	800.000	0.046	0.133
-198.304	-56.121	0.203	-0.090
-197.290	200.991	0.086	-0.132
-196.275	112.898	0.098	-0.118
-195.260	-24.613	0.258	-0.153
-194.246	568.739	0.026	0.064
-193.231	800.000	0.077	-0.241
-192.217	-121.114	-0.255	0.043
-191.202	-95.138	0.279	-0.075
-190.187	-200.000	-0.081	0.368
-189.173	-6.080	-0.037	-0.025
-188.158	-39.863	0.367	0.191
-187.144	800.000	0.055	0.217
-186.129	1.724	0.172	-0.123
-185.114	559.961	0.090	-0.216
-184.100	80.880	0.107	-0.115
-183.085	709.466	0.014	0.038
-182.071	4.240	-0.080	0.058
-181.056	-69.032	-0.194	0.074
-180.042	-107.443	0.321	0.070
-179.027	-200.000	0.022	0.117
-178.012	800.000	-0.034	-0.094
-176.998	37.286	0.331	-0.292
-175.983	-200.000	0.010	-0.128
-174.969	85.049	-0.098	-0.107
-173.954	-200.000	0.014	0.120
-172.939	-51.054	-0.326	0.152
-171.925	-72.025	0.171	0.063
-170.910	169.712	-0.052	-0.074
-169.896	10.894	-0.143	0.108
-168.881	544.879	-0.090	-0.215
-167.866	-200.000	-0.021	-0.207
-166.852	-17.783	-0.139	-0.087
-165.837	-200.000	0.000	-0.187
-164.823	-200.000	-0.031	-0.328
-163.808	-150.301	-0.245	0.019
-162.793	35.436	0.117	-0.103
-161.779	264.917	-0.034	-0.059
-160.764	-92.709	-0.239	0.067
-159.750	597.511	0.047	-0.115
-158.735	257.119	0.096	-0.164
-157.720	-148.649	-0.497	0.040
-156.706	-24.486	-0.254	-0.150
-155.691	-200.000	-0.016	0.195
-154.677	34.672	0.220	0.191
-153.662	138.762	-0.106	-0.138
-152.647	580.291	0.082	-0.199
-151.633	-52.864	-0.214	-0.098
-150.618	-200.000	-0.015	-0.081
-149.604	800.000	-0.068	0.187
-148.589	-68.617	-0.235	0.091
-147.574	-200.000	-0.019	0.391
-146.560	5.445	-0.162	-0.119
-145.545	-105.173	0.147	0.033
-144.531	-130.976	0.173	-0.023
-143.516	-65.374	-0.382	0.153
-142.502	-200.000	-0.017	0.227
-141.487	-87.049	0.522	0.158
-140.472	-200.000	-0.006	-0.192
-139.458	535.016	-0.027	0.064
-138.443	-200.000	0.016	0.090
-137.429	-93.604	0.136	0.037
-136.414	-46.509	0.083	-0.041
-135.399	-200.000	0.004	-0.110
-134.385	30.429	-0.210	0.178
-133.370	-53.500	-0.285	-0.130
-132.356	468.473	0.021	0.047
-131.341	92.885	0.096	-0.108
-130.326	-119.025	0.356	0.062
-129.312	-30.859	-0.034	0.019
-128.297	127.697	-0.281	0.355
-127.283	-200.000	-0.036	0.264
-126.268	-154.051	-0.296	-0.020
-125.253	-31.887	-0.211	-0.118
-124.239	-60.030	-0.312	0.132
-123.224	-72.499	0.246	0.090
-122.210	332.734	0.049	-0.094
-121.195	800.000	0.041	-0.159
-120.180	-200.000	0.047	0.299
-119.166	-62.846	-0.096	-0.040
-118.151	-200.000	-0.040	0.205
-117.137	248.995	-0.155	0.260
-116.122	42.246	0.171	-0.154
-115.107	-200.000	0.001	-0.239
-114.093	-103.628	-0.261	0.061
-113.078	800.000	0.173	-0.492
-112.064	250.808	0.170	0.287
-111.049	84.023	-0.038	-0.041
-110.034	-15.348	0.278	-0.176
-109.020	800.000	0.035	0.119
-108.005	-137.886	0.376	0.042
-106.991	-200.000	-0.065	-0.334
-105.976	43.329	-0.113	0.103
-104.962	-71.460	0.353	0.131
-103.947	-14.112	0.292	0.187
-102.932	800.000	-0.054	0.198
-101.918	50.433	-0.104	0.097
-100.903	-50.537	-0.572	-0.268
-99.889	800.000	-0.074	-0.258
-98.874	44.290	0.054	0.049
-97.859	-89.674	-0.082	-0.024
-96.845	800.000	0.056	-0.195
-95.830	-117.457	-0.307	-0.055
-94.816	-50.181	-0.273	-0.128
-93.801	-69.639	-0.450	0.171
-92.786	-108.436	0.332	0.071
-91.772	-200.000	-0.003	0.068
-90.757	324.939	0.115	-0.218
-89.743	-182.553	0.185	-0.003
-88.728	-200.000	0.032	0.267
-87.713	-149.497	0.048	0.004
-86.699	-128.112	0.437	0.062
-85.684	84.491	0.105	0.114
-84.670	565.610	0.120	0.288
-83.655	-24.469	0.345	-0.204
-82.640	45.123	0.202	0.184
-81.626	-200.000	0.019	0.085
-80.611	-200.000	0.006	0.137
-79.597	-101.759	-0.189	0.045
-78.582	-50.280	-0.077	-0.036
-77.567	-200.000	-0.025	0.111
-76.553	73.923	-0.067	0.070
-75.538	800.000	0.023	-0.065
-74.524	702.449	-0.126	-0.329
-73.509	800.000	0.044	0.134
-72.494	-72.404	-0.214	-0.078
-71.480	138.758	-0.064	-0.084
-70.465	43.155	0.314	-0.284
-69.451	-53.203	0.129	0.059
-68.436	-200.000	0.031	0.192
-67.422	-44.057	-0.255	0.127
-66.407	-200.000	0.000	-0.119
-65.392	-46.732	-0.343	0.166
-64.378	-144.844	0.172	-0.016
-63.363	-62.025	0.243	0.101
-62.349	70.301	-0.259	0.265
-61.334	93.454	-0.760	-0.852
-60.319	-109.251	0.476	0.100
-59.305	669.315	-0.427	-1.094
-58.290	133.605	0.836	1.072
-57.276	294.280	0.775	1.403
-56.261	-200.000	94.846	533.243
-55.246	573.994	1379.966	3333.635
-54.232	182.964	2623.745	3835.866
-53.217	118.412	2206.471	2696.068
-52.203	47.165	1655.152	1525.580
-51.188	39.346	1386.424	1229.251
-50.173	36.206	1342.859	1171.545
-49.159	55.824	1391.777	1336.051
-48.144	60.421	1409.369	1381.304
-47.130	39.591	1364.201	1210.862
-46.115	36.093	1345.897	1173.320
-45.100	35.873	1341.405	1168.021
-44.086	35.847	1338.917	1165.652
-43.071	35.744	1336.451	1162.839
-42.057	35.738	1334.505	1161.064
-41.042	35.805	1332.722	1159.869
-40.027	35.970	1331.077	1159.383
-39.013	35.850	1329.315	1157.084
-37.998	36.002	1326.845	1155.796
-36.984	35.916	1325.088	1153.708
-35.969	35.950	1323.326	1152.327
-34.954	35.984	1321.562	1150.953
-33.940	36.065	1320.103	1150.117
-32.925	36.020	1318.960	1148.809
-31.911	36.160	1317.483	1148.309
-30.896	36.120	1315.611	1146.397
-29.881	36.094	1314.247	1145.007
-28.867	36.129	1313.423	1144.448
-27.852	36.093	1311.490	1142.509
-26.838	35.963	1310.172	1140.546
-25.823	36.073	1308.398	1139.606
-24.809	36.014	1307.081	1138.063
-23.794	36.146	1305.233	1137.188
-22.779	36.026	1304.248	1135.577
-21.765	35.984	1303.236	1134.404
-20.750	36.022	1301.814	1133.344
-19.736	35.952	1300.132	1131.428
-18.721	35.902	1298.853	1129.971
-17.706	35.960	1297.930	1129.465
-16.692	35.994	1296.462	1128.343
-15.677	35.895	1295.532	1126.910
-14.663	35.894	1294.086	1125.603
-13.648	35.909	1293.194	1124.868
-12.633	35.834	1292.054	1123.391
-11.619	35.932	1291.293	1123.262
-10.604	35.902	1290.605	1122.441
-9.590	35.849	1289.264	1120.923
-8.575	35.908	1288.493	1120.552
-7.560	35.886	1287.742	1119.723
-6.546	35.876	1286.524	1118.563
-5.531	35.867	1285.730	1117.777
-4.517	35.860	1284.946	1117.009
-3.502	35.956	1283.742	1116.474
-2.487	36.023	1282.852	1116.045
-1.473	35.919	1278.794	1111.867
-0.458	33.993	1262.510	1086.670
0.556	27.115	1242.924	1040.293
1.571	22.740	1246.733	1018.207
2.586	21.651	1261.869	1024.111
3.600	21.203	1250.696	1012.357
4.615	15.242	1177.142	920.109
5.629	4.887	1097.440	804.492
6.644	-0.094	1075.113	762.813
7.659	-0.340	1072.239	759.460
8.673	-0.532	1070.894	757.472
9.688	-0.583	1069.561	756.201
10.702	-0.269	1068.277	756.809
11.717	5.774	1076.743	793.389
12.731	14.913	1089.955	849.684
13.746	17.750	1093.078	866.480
14.761	17.167	1092.100	862.669
15.775	17.038	1090.894	860.985
16.790	16.643	1090.109	858.285
17.804	16.606	1089.365	857.435
18.819	16.684	1088.865	857.360
19.834	16.677	1087.922	856.505
20.848	16.635	1087.395	855.805
21.863	16.683	1086.611	855.352
22.877	16.534	1086.184	854.188
23.892	16.568	1085.784	853.971
24.907	16.543	1085.170	853.289
25.921	16.600	1084.086	852.644
26.936	16.734	1082.307	851.847
27.950	16.605	1080.430	849.647
28.965	16.444	1078.707	847.410
29.980	16.628	1076.952	846.877
30.994	16.749	1075.646	846.377
32.009	16.695	1074.486	845.123
33.023	16.539	1072.644	842.823
34.038	16.425	1072.186	841.816
35.053	16.729	1071.424	842.658
36.067	16.774	1070.444	842.036
37.082	16.734	1070.170	841.547
38.096	16.850	1069.134	841.235
39.111	16.980	1068.163	841.041
40.126	16.759	1066.789	838.787
41.140	16.523	1064.838	836.014
42.155	16.561	1062.727	834.471
43.169	16.471	1062.100	833.461
44.184	16.503	1061.090	832.752
45.199	16.269	1060.555	831.107
46.213	16.494	1058.999	830.921
47.228	16.349	1058.107	829.437
48.242	16.458	1056.580	828.698
49.257	16.589	1055.617	828.510
50.271	16.636	1054.463	827.764
51.286	16.603	1053.801	827.011
52.301	16.615	1052.315	825.826
53.315	16.561	1051.498	824.852
54.330	16.655	1050.566	824.502
55.344	16.670	1049.475	823.649
56.359	16.596	1048.697	822.607
57.374	16.520	1047.289	821.058
58.388	16.548	1046.630	820.607
59.403	16.428	1045.960	819.426
60.417	16.380	1045.220	818.541
61.432	16.554	1044.050	818.393
62.447	16.643	1043.004	817.929
63.461	16.673	1042.440	817.559
64.476	16.616	1041.319	816.334
65.490	16.514	1040.374	815.032
66.505	16.476	1039.606	814.173
67.520	16.580	1038.758	813.940
68.534	16.521	1037.863	812.883
69.549	16.205	1036.858	810.504
70.563	16.373	1035.886	810.477
71.578	16.405	1035.143	809.980
72.593	16.186	1034.089	808.034
73.607	16.386	1033.341	808.337
74.622	16.573	1033.067	808.943
75.636	16.546	1032.132	808.010
76.651	16.377	1031.359	806.528
77.666	16.337	1030.937	805.936
78.680	16.532	1029.475	805.651
79.695	16.412	1029.340	804.901
80.709	16.514	1028.389	804.574
81.724	16.440	1027.817	803.702
82.739	16.542	1026.659	803.210
83.753	16.691	1025.896	803.249
84.768	16.802	1024.908	802.933
85.782	16.818	1023.858	802.111
86.797	16.531	1023.246	800.204
87.812	16.672	1021.965	799.797
88.826	16.847	1020.634	799.510
89.841	16.769	1020.001	798.576
90.855	16.821	1018.243	797.373
91.870	16.721	1018.175	796.782
92.884	16.659	1016.565	795.160
93.899	16.665	1015.848	794.554
94.914	16.755	1015.283	794.465
95.928	16.563	1014.068	792.543
96.943	16.545	1012.844	791.434
97.957	16.369	1011.541	789.522
98.972	16.272	1010.063	787.845
99.987	16.436	1009.368	787.999
101.001	16.433	1009.087	787.696
102.016	16.561	1008.173	787.511
103.030	16.380	1007.184	785.827
104.045	16.167	1006.113	783.932
105.060	16.234	1004.593	782.989
106.074	16.357	1003.936	782.978
107.089	16.714	1003.511	784.230
108.103	16.777	1002.166	783.402
109.118	16.598	1001.136	781.701
110.133	16.717	1000.096	781.367
111.147	16.559	998.806	779.564
112.162	16.526	997.518	778.335
113.176	16.491	997.204	777.864
114.191	16.469	995.766	776.572
115.206	16.282	994.834	774.914
116.220	16.419	993.568	774.488
117.235	16.371	992.934	773.706
118.249	16.499	992.167	773.625
119.264	16.372	991.443	772.414
120.279	16.400	990.914	772.060
121.293	16.406	990.326	771.561
122.308	16.537	988.924	770.996
123.322	16.522	987.660	769.877
124.337	16.400	986.025	767.978
125.352	15.931	984.196	764.358
126.366	15.896	983.254	763.399
127.381	16.392	982.687	765.139
128.395	16.849	981.753	766.411
129.410	16.851	981.205	765.924
130.424	16.754	979.873	764.378
131.439	16.744	978.911	763.515
132.454	16.747	977.904	762.679
133.468	16.832	976.955	762.254
134.483	16.878	976.318	761.894
135.497	16.987	975.524	761.698
136.512	16.994	974.667	760.990
137.527	16.906	973.731	759.800
138.541	16.974	972.702	759.232
139.556	17.010	971.639	758.497
140.570	16.926	971.008	757.562
141.585	16.796	970.011	756.138
142.600	16.898	968.453	755.311
143.614	17.008	967.937	755.329
144.629	17.061	966.921	754.706
145.643	17.020	965.885	753.648
146.658	16.794	964.913	751.823
147.673	16.851	963.923	751.238
148.687	16.793	962.828	750.059
149.702	16.712	961.308	748.451
150.716	16.812	960.897	748.507
151.731	16.912	960.276	748.401
152.746	17.059	959.185	748.129
153.760	17.040	959.115	747.924
154.775	17.221	957.822	747.649
155.789	17.017	957.215	746.211
156.804	17.130	956.394	746.003
157.819	16.940	955.839	744.667
158.833	17.123	954.744	744.552
159.848	17.042	953.769	743.372
160.862	17.046	952.034	741.970
161.877	17.117	951.287	741.633
162.892	17.160	950.580	741.202
163.906	17.125	949.832	740.402
164.921	17.110	948.589	739.302
165.935	17.122	947.767	738.650
166.950	17.071	946.366	737.271
167.964	17.129	945.696	736.935
168.979	16.996	944.949	735.712
169.994	16.875	943.819	734.239
171.008	17.111	943.247	734.750
172.023	17.098	942.061	733.708
173.037	16.828	941.011	731.658
174.052	16.659	940.664	730.595
175.067	16.798	939.805	730.463
176.081	17.028	939.376	731.053
177.096	16.977	938.444	730.047
178.110	16.894	936.968	728.476
179.125	16.759	936.445	727.426
180.140	16.864	935.581	727.141
181.154	16.759	935.464	726.536
182.169	16.929	935.399	727.148
183.183	17.196	934.823	727.780
184.198	17.129	933.510	726.409
185.213	16.968	933.204	725.418
186.227	17.086	932.257	725.122
187.242	17.148	931.496	724.730
188.256	17.021	930.877	723.640
189.271	17.188	929.805	723.458
190.286	17.016	928.554	721.689
191.300	16.600	928.003	719.428
192.315	15.985	926.629	715.687
193.329	15.970	925.977	715.055
194.344	16.638	926.087	717.911
195.359	16.961	925.811	719.006
196.373	17.026	924.986	718.576
197.388	16.701	924.393	716.677
198.402	16.806	923.520	716.379
199.417	16.924	922.290	715.860
200.432	16.510	921.524	713.453
201.446	16.354	920.813	712.183
202.461	16.369	920.289	711.778
203.475	15.640	918.641	707.373
204.490	15.279	917.371	704.815
205.504	16.015	917.777	708.159
206.519	16.763	917.525	711.044
207.534	16.813	916.677	710.532
208.548	17.035	916.855	711.541
209.563	16.816	915.710	709.672
210.577	16.896	915.000	709.391
211.592	17.117	914.178	709.618
212.607	16.981	913.465	708.433
213.621	17.054	912.573	707.981
214.636	17.173	912.207	708.133
215.650	17.105	911.443	707.194
216.665	17.183	910.961	707.081
217.680	17.100	910.068	705.979
218.694	16.726	908.630	703.247
219.709	16.734	907.858	702.623
220.723	17.064	907.470	703.627
221.738	17.122	906.733	703.235
222.753	17.173	905.969	702.790
223.767	17.190	905.438	702.387
224.782	17.367	905.022	702.735
225.796	17.203	904.748	701.780
226.811	16.678	902.954	698.161
227.826	16.335	901.995	695.947
228.840	16.462	901.272	695.851
229.855	16.413	900.470	694.968
230.869	16.189	899.379	693.145
231.884	16.487	899.374	694.303
232.899	17.200	898.930	696.825
233.913	17.175	898.838	696.590
234.928	17.241	897.550	695.797
235.942	17.306	897.023	695.596
236.957	16.916	896.169	693.279
237.972	16.974	895.400	692.859
238.986	16.998	895.016	692.597
240.001	16.953	894.193	691.715
241.015	17.114	893.417	691.711
242.030	17.189	892.763	691.449
243.045	17.311	892.039	691.324
244.059	17.301	891.883	691.098
245.074	17.106	890.673	689.310
246.088	16.672	890.232	687.146
247.103	16.959	889.332	687.553
248.117	17.336	888.967	688.737
249.132	17.451	888.198	688.547
250.147	17.505	887.301	688.008
251.161	17.469	887.049	687.606
252.176	17.643	886.184	687.576
253.190	17.555	885.856	686.905
254.205	17.702	885.490	687.156
255.220	17.872	884.489	687.004
256.234	17.702	883.620	685.584
257.249	17.742	882.502	684.817
258.263	17.655	882.213	684.179
259.278	17.666	881.730	683.789
260.293	17.685	880.617	682.942
261.307	17.618	880.314	682.378
262.322	17.471	879.059	680.759
263.336	16.718	876.793	675.939
264.351	15.881	875.270	671.367
265.366	15.937	875.233	671.501
266.380	16.971	875.309	675.622
267.395	17.494	874.969	677.381
268.409	17.313	874.355	676.127
269.424	17.657	873.746	676.962
270.439	17.568	873.142	676.082
271.453	17.795	872.659	676.550
272.468	17.846	871.747	675.982
273.482	18.040	871.447	676.460
274.497	17.592	870.067	673.556
275.512	17.350	869.032	671.741
276.526	17.554	869.426	672.791
277.541	17.665	868.825	672.704
278.555	17.422	867.673	670.798
279.570	17.330	866.445	669.424
280.585	17.403	866.259	669.511
281.599	17.412	865.625	668.997
282.614	17.181	864.144	666.885
283.628	17.114	863.667	666.195
284.643	17.500	863.186	667.276
285.657	17.025	861.959	664.412
286.672	16.778	861.427	662.974
287.687	17.303	861.325	664.891
288.701	17.305	861.063	664.639
289.716	16.980	859.597	662.180
290.730	16.953	858.947	661.516
291.745	16.756	858.047	659.995
292.760	17.082	857.494	660.782
293.774	17.798	857.750	663.708
294.789	18.064	857.432	664.436
295.803	18.187	856.737	664.318
296.818	18.271	856.338	664.276
297.833	17.865	855.190	661.753
298.847	17.827	853.938	660.580
299.862	18.083	853.828	661.426
300.876	18.243	853.096	661.419
301.891	17.964	852.700	659.974
302.906	17.445	851.901	657.292
303.920	17.527	851.406	657.170
304.935	17.912	850.959	658.252
305.949	18.066	850.015	658.057
306.964	17.873	850.190	657.391
307.979	17.937	849.366	656.942
308.993	18.212	848.858	657.549
310.008	18.130	848.236	656.692
311.022	18.099	847.322	655.806
312.037	17.995	846.670	654.847
313.052	17.869	845.699	653.555
314.066	17.194	844.926	650.316
315.081	16.957	843.904	648.567
316.095	17.638	844.216	651.353
317.110	18.001	843.805	652.365
318.125	17.353	842.632	648.929
319.139	16.796	840.758	645.307
320.154	16.725	840.781	644.996
321.168	17.262	841.147	647.265
322.183	17.835	840.794	649.118
323.197	17.990	840.466	649.396
324.212	18.229	839.763	649.702
325.227	18.219	839.240	649.203
326.241	18.080	839.128	648.531
327.256	17.923	838.453	647.356
328.270	17.953	837.587	646.744
329.285	17.790	837.016	645.631
330.300	17.734	835.972	644.556
331.314	17.892	835.323	644.594
332.329	18.159	835.278	645.513
333.343	18.241	834.391	645.079
334.358	18.218	834.193	644.780
335.373	18.219	833.930	644.523
336.387	18.409	833.889	645.151
337.402	18.409	833.470	644.771
338.416	18.333	832.863	643.959
339.431	18.415	832.532	643.954
340.446	18.507	832.410	644.148
341.460	18.325	831.654	642.820
342.475	18.119	831.416	641.806
343.489	18.236	830.952	641.833
344.504	18.448	830.458	642.188
345.519	18.596	829.850	642.215
346.533	18.523	830.015	642.013
347.548	18.853	828.932	642.353
348.562	18.787	828.830	641.968
349.577	18.811	828.175	641.496
350.592	18.915	827.322	641.164
351.606	18.747	826.528	639.869
352.621	18.796	825.665	639.327
353.635	18.605	824.853	637.929
354.650	18.156	823.534	635.187
355.665	17.383	822.253	631.274
356.679	17.726	821.592	631.982
357.694	17.907	821.674	632.659
358.708	17.962	820.886	632.202
359.723	18.456	820.729	633.853
360.738	18.636	820.526	634.304
361.752	18.777	819.664	634.103
362.767	18.882	819.105	634.001
363.781	19.095	818.898	634.571
364.796	19.055	818.613	634.146
365.810	19.020	818.304	633.722
366.825	19.081	817.779	633.482
367.840	18.798	817.001	631.783
368.854	18.499	816.522	630.258
369.869	18.476	815.975	629.695
370.883	18.677	815.342	629.889
371.898	18.281	815.245	628.307
372.913	18.395	814.870	628.378
373.927	18.703	814.207	628.941
374.942	18.826	813.821	629.036
375.956	18.932	813.104	628.814
376.971	18.921	812.678	628.388
377.986	19.161	812.503	629.076
379.000	19.115	811.690	628.225
380.015	18.997	811.150	627.319
381.029	19.109	810.895	627.476
382.044	19.019	809.960	626.369
383.059	18.968	809.431	625.718
384.073	19.135	809.236	626.120
385.088	19.283	808.648	626.147
386.102	19.022	808.055	624.684
387.117	19.064	807.206	624.125
388.132	18.770	806.390	622.372
389.146	18.576	805.258	620.744
390.161	18.454	805.313	620.288
391.175	18.705	804.952	620.864
392.190	18.523	803.991	619.409
393.205	17.747	802.370	615.308
394.219	16.597	801.232	610.236
395.234	16.665	800.895	610.170
396.248	17.883	802.084	615.415
397.263	19.100	802.699	620.220
398.278	19.077	801.711	619.319
399.292	18.948	801.245	618.442
400.307	18.909	801.160	618.181
401.321	18.962	800.594	617.880
402.336	19.157	800.631	618.554
403.350	19.434	799.930	618.953
404.365	19.581	799.556	619.135
405.380	19.707	799.277	619.315
406.394	19.476	799.119	618.309
407.409	19.503	798.334	617.744
408.423	19.605	797.455	617.376
409.438	19.651	797.298	617.364
410.453	19.659	797.259	617.308
411.467	19.694	796.483	616.775
412.482	19.709	796.070	616.455
413.496	19.746	795.519	616.107
414.511	19.628	795.468	615.590
415.526	19.614	795.272	615.336
416.540	19.480	794.409	614.136
417.555	19.270	793.513	612.641
418.569	19.329	792.698	612.167
419.584	19.242	792.865	611.936
420.599	19.107	792.042	610.767
421.613	153.429	1359.153	1788.732
422.628	132.877	1441.796	1788.837
