DTS Sentinel unit serial number:	SN413079Multiplexer serial number:	ORYXHardware model number:	OX4-SRSoftware version number:	ORYX F/W v4.00 Oryx Data Collector v3.7.2.0data status	okinstallation	princeton_trtdifferential loss correction	single-endedforward channel	channel 1reverse channel	N/Adate	2019/09/18time	17:18:35forward acquisition time	60.00reverse acquisition time	0.00gamma	496.2192k internal	0.2292k external	0.2292temperature offset calibration	0.9998default loss term (dB/km)	0.3790temperature slope calibration	1.0000multiplexer offset coefficient	1.0000multiplexer slope coefficient	1.0000fibre end	0.00T internal ref (°C)	39.87T ext. ref 1 (°C)	0.89T ext. ref 2 (°C)	36.28length (m)	temperature (°C)	Stokes	anti-Stokes-747.200	-62.204	-0.159	-0.068
-746.185	-181.388	-0.134	-0.003
-745.171	-67.887	0.132	-0.053
-744.156	-68.876	0.113	-0.045
-743.142	800.000	-0.065	0.243
-742.127	800.000	-0.013	0.044
-741.112	-200.000	-0.016	0.246
-740.098	-86.029	0.147	0.046
-739.083	685.667	0.069	0.185
-738.069	800.000	0.096	0.343
-737.054	-26.029	-0.282	-0.170
-736.039	6.743	0.008	0.006
-735.025	-200.000	0.069	0.557
-734.010	800.000	-0.087	-0.338
-732.996	403.773	0.136	-0.294
-731.981	609.514	-0.167	0.426
-730.966	-13.822	-0.303	0.201
-729.952	800.000	-0.076	-0.236
-728.937	-18.514	-0.137	-0.088
-727.923	-200.000	0.004	-0.019
-726.908	371.231	-0.009	-0.019
-725.894	800.000	-0.012	0.043
-724.879	-21.493	-0.556	-0.347
-723.864	-138.413	-0.206	-0.023
-722.850	-143.481	0.318	0.031
-721.835	102.265	-0.160	0.191
-720.821	120.544	0.102	-0.129
-719.806	278.023	-0.122	-0.223
-718.791	800.000	0.063	-0.265
-717.777	800.000	-0.075	-0.217
-716.762	-13.247	0.523	-0.347
-715.748	-200.000	0.043	0.488
-714.733	-200.000	-0.040	0.227
-713.718	-107.982	-0.416	0.092
-712.704	37.992	0.182	-0.165
-711.689	-42.718	0.031	0.016
-710.675	-200.000	-0.083	0.553
-709.660	-200.000	0.003	-0.056
-708.645	37.397	-0.305	-0.276
-707.631	-137.316	-0.241	-0.028
-706.616	217.717	0.032	-0.053
-705.602	-200.000	0.042	-0.217
-704.587	-200.000	-0.021	-0.324
-703.572	42.438	0.194	-0.181
-702.558	-166.587	-0.367	0.016
-701.543	28.060	-0.130	0.112
-700.529	-19.074	-0.228	-0.145
-699.514	800.000	0.116	0.463
-698.499	-200.000	0.003	-0.237
-697.485	-95.858	0.094	0.026
-696.470	800.000	-0.053	-0.190
-695.456	-200.000	0.001	0.393
-694.441	-12.671	-0.135	0.090
-693.426	115.802	0.092	0.115
-692.412	510.451	-0.096	0.229
-691.397	-56.560	-0.255	0.115
-690.383	121.876	-0.175	-0.223
-689.368	800.000	0.071	0.283
-688.354	100.708	-0.092	0.110
-687.339	-18.107	-0.402	-0.257
-686.324	-88.162	0.258	-0.079
-685.310	21.894	-0.153	0.127
-684.295	-95.184	-0.505	-0.139
-683.281	-157.761	-0.139	0.008
-682.266	-133.600	0.155	0.020
-681.251	216.906	-0.203	-0.331
-680.237	-65.767	-0.330	-0.135
-679.222	800.000	0.069	0.302
-678.208	21.171	-0.113	0.093
-677.193	42.527	0.057	0.053
-676.178	-80.522	-0.220	-0.075
-675.164	-90.353	0.280	0.083
-674.149	-60.784	0.256	-0.111
-673.135	-200.000	0.001	0.046
-672.120	-76.967	0.232	0.083
-671.105	-103.421	0.035	-0.008
-670.091	-170.382	-0.181	-0.006
-669.076	54.027	-0.237	-0.232
-668.062	303.567	-0.085	-0.161
-667.047	119.630	-0.047	-0.059
-666.032	-58.371	0.362	-0.161
-665.018	20.824	0.183	-0.151
-664.003	110.588	-0.308	-0.378
-662.989	-165.412	0.345	0.015
-661.974	54.996	0.137	-0.135
-660.959	-142.297	-0.340	0.034
-659.945	-5.002	-0.098	-0.069
-658.930	-185.815	-0.225	-0.003
-657.916	148.425	0.132	-0.181
-656.901	800.000	-0.017	-0.073
-655.886	-150.882	-0.315	-0.024
-654.872	-200.000	0.011	-0.174
-653.857	760.638	0.068	0.187
-652.843	240.937	-0.052	-0.089
-651.828	-200.000	-0.024	0.170
-650.814	6.819	-0.057	-0.043
-649.799	800.000	0.065	0.205
-648.784	-200.000	-0.001	-0.103
-647.770	-9.111	0.366	-0.250
-646.755	-119.726	-0.386	-0.068
-645.741	2.129	0.037	-0.027
-644.726	777.007	-0.072	-0.200
-643.711	33.875	0.285	0.253
-642.697	-137.996	0.243	-0.028
-641.682	-82.961	-0.155	0.051
-640.668	246.584	0.129	0.222
-639.653	-130.042	0.243	0.034
-638.638	600.049	-0.098	0.248
-637.624	-45.872	-0.171	0.086
-636.609	-111.192	-0.137	0.029
-635.595	-200.000	0.005	-0.364
-634.580	70.494	-0.161	-0.169
-633.565	98.975	0.228	0.269
-632.551	235.028	-0.081	0.137
-631.536	-60.574	0.301	-0.130
-630.522	-200.000	-0.009	0.090
-629.507	-200.000	0.000	-0.102
-628.492	43.172	0.096	-0.090
-627.478	800.000	0.035	-0.100
-626.463	154.129	0.081	0.113
-625.449	169.545	0.209	-0.305
-624.434	-59.370	0.163	0.071
-623.419	-46.723	0.097	0.049
-622.405	-71.367	-0.199	0.076
-621.390	-200.000	0.029	0.154
-620.376	388.545	0.182	0.383
-619.361	-91.998	0.093	0.027
-618.346	800.000	-0.064	-0.187
-617.332	-123.928	-0.272	-0.044
-616.317	800.000	0.075	-0.306
-615.303	-200.000	0.019	-0.101
-614.288	-200.000	-0.034	0.202
-613.273	187.750	0.048	-0.073
-612.259	3.239	-0.257	-0.190
-611.244	-200.000	0.016	0.234
-610.230	93.380	0.116	-0.133
-609.215	8.550	-0.227	0.174
-608.201	275.011	-0.017	0.031
-607.186	800.000	-0.042	0.136
-606.171	-200.000	-0.023	-0.258
-605.157	-51.089	0.431	-0.206
-604.142	258.506	0.086	-0.151
-603.128	-186.413	0.058	-0.001
-602.113	70.556	-0.133	-0.140
-601.098	800.000	-0.044	-0.143
-600.084	693.737	0.031	0.082
-599.069	201.985	-0.116	-0.181
-598.055	84.410	-0.173	0.193
-597.040	644.031	-0.101	0.261
-596.025	44.267	0.093	0.087
-595.011	43.564	0.204	-0.190
-593.996	-200.000	0.045	-0.227
-592.982	757.943	0.062	-0.170
-591.967	621.996	-0.050	0.128
-590.952	184.996	-0.168	0.254
-589.938	-200.000	0.037	-0.221
-588.923	-118.230	-0.124	0.022
-587.909	654.180	-0.101	-0.264
-586.894	-18.582	0.151	0.096
-585.879	-31.238	-0.265	-0.152
-584.865	265.871	-0.187	0.332
-583.850	53.094	-0.090	0.087
-582.836	142.478	0.099	0.133
-581.821	181.158	-0.168	-0.252
-580.806	178.304	0.066	0.098
-579.792	-108.564	-0.078	0.017
-578.777	-200.000	-0.016	-0.128
-577.763	-34.118	-0.236	-0.132
-576.748	-114.891	0.131	0.025
-575.733	-107.881	0.215	-0.048
-574.719	-200.000	-0.066	-0.317
-573.704	25.646	0.126	0.107
-572.690	-59.246	-0.032	-0.014
-571.675	22.734	-0.037	-0.031
-570.661	33.168	0.161	-0.142
-569.646	25.591	0.067	-0.057
-568.631	70.770	0.136	0.144
-567.617	63.139	-0.266	0.271
-566.602	-200.000	-0.004	-0.112
-565.588	428.902	-0.056	0.123
-564.573	800.000	-0.140	-0.395
-563.558	-115.333	0.240	-0.046
-562.544	-200.000	-0.053	-0.312
-561.529	-100.806	-0.183	0.046
-560.515	175.671	-0.065	-0.095
-559.500	-200.000	-0.001	-0.120
-558.485	-14.743	-0.114	0.074
-557.471	52.123	0.078	0.075
-556.456	-200.000	-0.019	0.383
-555.442	85.384	-0.076	-0.085
-554.427	800.000	-0.066	0.195
-553.412	-107.001	-0.419	0.094
-552.398	330.744	-0.039	-0.077
-551.383	119.798	-0.065	0.082
-550.369	288.430	0.119	0.220
-549.354	125.224	0.083	-0.107
-548.339	-200.000	0.026	-0.225
-547.325	775.678	-0.130	-0.361
-546.310	-48.710	-0.077	-0.037
-545.296	102.628	0.022	0.026
-544.281	-100.821	-0.148	-0.037
-543.266	-200.000	-0.001	-0.020
-542.252	-69.060	-0.059	-0.023
-541.237	396.716	0.047	0.099
-540.223	-144.578	-0.256	-0.024
-539.208	800.000	-0.015	0.062
-538.193	800.000	-0.087	0.332
-537.179	-70.734	0.363	0.139
-536.164	-21.072	-0.156	-0.097
-535.150	353.094	-0.049	-0.099
-534.135	-126.102	-0.402	0.061
-533.121	276.343	0.123	-0.221
-532.106	118.701	0.199	-0.249
-531.091	800.000	0.041	-0.148
-530.077	-3.981	-0.214	-0.150
-529.062	-73.735	-0.332	-0.122
-528.048	-53.394	0.290	-0.135
-527.033	375.188	-0.010	0.020
-526.018	-93.189	0.329	0.093
-525.004	569.615	0.056	0.138
-523.989	-52.761	0.219	-0.103
-522.975	-100.719	0.201	-0.050
-521.960	-200.000	0.029	-0.259
-520.945	-200.000	-0.021	0.425
-519.931	17.723	-0.344	0.277
-518.916	6.784	0.376	-0.284
-517.902	174.995	0.030	0.044
-516.887	280.283	0.126	-0.229
-515.872	800.000	0.060	-0.187
-514.858	-27.902	-0.132	-0.078
-513.843	-116.646	0.369	-0.069
-512.829	-48.517	-0.222	-0.108
-511.814	-162.846	-0.143	-0.007
-510.799	-164.988	-0.351	-0.016
-509.785	800.000	-0.084	0.369
-508.770	338.258	0.067	0.133
-507.756	-200.000	0.113	0.567
-506.741	-109.842	-0.135	-0.029
-505.726	73.392	0.105	0.111
-504.712	555.741	0.165	0.404
-503.697	34.085	-0.259	0.229
-502.683	103.378	0.288	0.342
-501.668	-66.988	-0.144	0.058
-500.653	-142.338	0.144	-0.014
-499.639	381.554	0.111	-0.232
-498.624	800.000	0.072	-0.274
-497.610	124.575	0.142	-0.181
-496.595	-100.971	0.297	-0.074
-495.581	-200.000	0.003	-0.148
-494.566	9.015	0.401	-0.307
-493.551	800.000	0.044	0.157
-492.537	-6.007	-0.116	0.081
-491.522	-138.585	-0.133	0.015
-490.508	-29.473	-0.264	0.153
-489.493	-58.630	0.431	0.189
-488.478	438.380	0.087	-0.193
-487.464	-200.000	-0.003	-0.262
-486.449	-140.214	0.092	0.010
-485.435	39.559	0.200	-0.181
-484.420	19.143	0.219	0.178
-483.405	116.947	0.125	0.156
-482.391	-36.455	-0.227	-0.124
-481.376	-26.696	-0.035	-0.021
-480.362	-107.716	0.228	-0.050
-479.347	74.937	0.141	-0.150
-478.332	-67.518	-0.184	0.073
-477.318	-200.000	-0.032	-0.218
-476.303	800.000	0.079	-0.325
-475.289	-99.702	-0.263	0.067
-474.274	-164.860	0.206	0.009
-473.259	-35.283	-0.339	-0.187
-472.245	-55.098	0.160	-0.073
-471.230	800.000	0.041	0.161
-470.216	-52.076	0.238	-0.112
-469.201	-38.554	0.281	-0.150
-468.186	296.268	0.109	-0.203
-467.172	23.896	0.153	0.128
-466.157	-52.509	0.069	0.032
-465.143	157.550	-0.072	-0.101
-464.128	325.282	-0.150	0.290
-463.113	800.000	-0.069	-0.197
-462.099	-200.000	0.029	-0.149
-461.084	-58.983	0.117	-0.051
-460.070	-200.000	-0.001	-0.138
-459.055	-200.000	-0.008	-0.074
-458.040	-82.664	-0.326	-0.107
-457.026	-200.000	-0.008	0.086
-456.011	-86.375	-0.140	-0.044
-454.997	137.547	-0.169	-0.224
-453.982	-200.000	-0.038	-0.268
-452.968	641.200	-0.050	0.130
-451.953	-160.912	-0.301	-0.016
-450.938	-200.000	0.016	-0.100
-449.924	-65.700	-0.260	-0.105
-448.909	239.820	0.013	0.021
-447.895	80.915	-0.017	-0.018
-446.880	54.068	-0.258	0.251
-445.865	-58.137	0.184	0.081
-444.851	800.000	0.118	0.383
-443.836	-200.000	-0.005	-0.178
-442.822	32.633	-0.085	0.074
-441.807	-53.617	0.412	0.190
-440.792	50.032	-0.094	0.090
-439.778	-82.097	-0.314	-0.104
-438.763	68.835	0.168	-0.174
-437.749	37.723	0.101	0.091
-436.734	-20.453	-0.053	0.033
-435.719	-69.489	-0.245	-0.095
-434.705	-77.813	-0.212	0.074
-433.690	-80.194	0.060	0.020
-432.676	32.955	0.139	-0.122
-431.661	-0.104	0.246	0.177
-430.646	-187.087	0.163	0.002
-429.632	-21.785	-0.153	-0.094
-428.617	-200.000	0.001	-0.070
-427.603	-73.880	0.315	-0.116
-426.588	-49.279	0.171	-0.083
-425.573	-200.000	-0.017	0.271
-424.559	-200.000	-0.024	0.322
-423.544	75.580	-0.086	0.092
-422.530	-185.279	-0.402	0.006
-421.515	18.770	0.179	0.145
-420.500	-84.074	-0.226	0.072
-419.486	209.714	0.099	-0.157
-418.471	27.846	-0.362	0.308
-417.457	-64.624	-0.371	-0.152
-416.442	77.231	-0.105	-0.113
-415.428	-16.153	0.291	0.187
-414.413	-78.398	0.060	0.021
-413.398	76.055	-0.093	0.099
-412.384	771.679	-0.062	0.170
-411.369	-74.172	-0.167	0.061
-410.355	26.734	-0.037	-0.031
-409.340	-151.765	-0.122	-0.009
-408.325	342.297	-0.132	0.261
-407.311	-36.641	0.146	-0.079
-406.296	-2.335	-0.051	0.036
-405.282	-31.555	-0.068	0.039
-404.267	-19.018	0.061	0.038
-403.252	7.934	0.231	-0.175
-402.238	-119.901	0.189	0.033
-401.223	-19.280	-0.181	-0.114
-400.209	385.315	0.205	-0.427
-399.194	37.571	0.035	0.031
-398.179	-105.971	-0.535	-0.122
-397.165	30.223	0.220	-0.190
-396.150	-64.588	0.264	-0.108
-395.136	150.395	-0.200	-0.274
-394.121	-162.896	-0.174	-0.009
-393.106	40.225	0.212	0.193
-392.092	-50.531	0.289	-0.138
-391.077	-200.000	0.007	0.057
-390.063	-99.806	0.043	0.011
-389.048	53.625	0.198	0.192
-388.033	-55.758	0.228	0.103
-387.019	-76.769	0.119	0.042
-386.004	-49.576	0.152	-0.073
-384.990	-129.433	0.015	0.002
-383.975	-105.478	-0.143	0.033
-382.960	756.030	-0.092	0.252
-381.946	7.427	-0.239	0.180
-380.931	-163.370	0.117	0.006
-379.917	-140.284	-0.130	-0.014
-378.902	-103.214	-0.087	0.021
-377.888	29.068	-0.039	0.033
-376.873	-129.595	0.116	-0.016
-375.858	602.612	-0.062	-0.156
-374.844	747.881	-0.102	0.276
-373.829	-200.000	0.048	0.278
-372.815	800.000	-0.055	-0.212
-371.800	-200.000	0.017	-0.110
-370.785	-61.263	0.163	-0.069
-369.771	-61.949	0.219	0.092
-368.756	-17.972	-0.118	-0.075
-367.742	-199.004	-0.333	0.002
-366.727	10.218	-0.194	0.149
-365.712	-178.594	0.187	0.004
-364.698	56.209	0.155	-0.152
-363.683	-200.000	0.041	-0.219
-362.669	99.819	-0.076	0.089
-361.654	-69.612	-0.067	0.026
-360.639	-6.091	0.395	0.272
-359.625	-200.000	-0.012	-0.154
-358.610	-200.000	-0.043	0.261
-357.596	800.000	-0.069	0.259
-356.581	-126.543	0.371	0.056
-355.566	-200.000	0.051	0.281
-354.552	-54.033	-0.214	0.098
-353.537	-16.551	0.068	0.043
-352.523	800.000	-0.037	-0.106
-351.508	112.444	-0.041	0.051
-350.493	-200.000	-0.012	0.095
-349.479	154.421	0.062	-0.085
-348.464	87.173	-0.019	0.021
-347.450	126.324	-0.116	-0.148
-346.435	117.550	-0.187	0.232
-345.420	-200.000	-0.011	-0.097
-344.406	41.315	-0.204	0.186
-343.391	127.628	0.148	0.190
-342.377	-200.000	0.017	-0.158
-341.362	23.060	-0.129	-0.107
-340.348	-123.868	-0.242	-0.038
-339.333	124.515	-0.252	0.319
-338.318	-52.323	-0.436	0.204
-337.304	113.504	-0.156	0.190
-336.289	-187.831	0.193	-0.003
-335.275	121.173	-0.106	-0.133
-334.260	-148.325	-0.283	-0.023
-333.245	-24.560	-0.053	0.032
-332.231	42.364	0.293	-0.268
-331.216	-200.000	-0.026	-0.120
-330.202	87.383	0.138	0.154
-329.187	-8.299	0.116	-0.079
-328.172	-0.559	0.124	-0.089
-327.158	22.463	-0.221	-0.182
-326.143	306.499	0.057	0.106
-325.129	22.095	-0.070	-0.058
-324.114	800.000	0.071	-0.286
-323.099	-32.759	-0.132	-0.074
-322.085	-66.438	-0.140	0.056
-321.070	13.984	0.222	0.174
-320.056	731.024	-0.127	-0.342
-319.041	-8.861	0.159	-0.107
-318.026	-116.508	0.147	-0.027
-317.012	-147.098	-0.174	-0.015
-315.997	-65.625	0.229	0.093
-314.983	-200.000	0.041	-0.369
-313.968	89.527	-0.176	0.197
-312.953	-129.324	-0.141	-0.020
-311.939	-100.429	0.276	-0.069
-310.924	-96.382	-0.080	-0.021
-309.910	9.712	-0.027	0.021
-308.895	602.030	0.122	-0.304
-307.880	-113.951	-0.103	-0.020
-306.866	800.000	-0.058	0.226
-305.851	39.508	-0.049	-0.044
-304.837	154.041	0.135	-0.186
-303.822	607.531	-0.065	0.162
-302.807	192.511	-0.089	0.135
-301.793	331.616	0.034	-0.066
-300.778	-2.757	0.117	0.082
-299.764	-84.497	-0.183	0.058
-298.749	-97.135	-0.227	0.060
-297.735	-63.491	-0.069	0.029
-296.720	-14.740	-0.187	0.121
-295.705	259.978	0.094	-0.163
-294.691	-49.549	0.051	0.025
-293.676	24.666	-0.089	0.074
-292.662	-160.593	-0.151	-0.008
-291.647	-142.407	-0.381	0.038
-290.632	56.997	0.269	0.264
-289.618	301.144	-0.075	-0.139
-288.603	629.158	0.149	-0.380
-287.589	344.900	0.072	-0.143
-286.574	800.000	0.074	-0.258
-285.559	90.383	0.258	-0.291
-284.545	800.000	0.099	0.325
-283.530	-33.254	0.206	-0.115
-282.516	121.620	0.089	0.111
-281.501	639.009	-0.140	0.359
-280.486	52.072	0.154	0.148
-279.472	-200.000	0.005	-0.130
-278.457	417.609	-0.130	-0.278
-277.443	-200.000	0.032	-0.304
-276.428	281.350	-0.217	-0.390
-275.413	82.349	-0.158	-0.172
-274.399	-200.000	-0.068	-0.339
-273.384	631.052	-0.062	0.157
-272.370	-140.934	0.207	-0.021
-271.355	190.174	0.051	-0.077
-270.340	126.017	0.187	-0.237
-269.326	800.000	-0.071	-0.287
-268.311	-129.180	0.146	-0.020
-267.297	534.326	0.031	0.074
-266.282	-22.467	0.249	-0.151
-265.267	218.797	-0.034	0.054
-264.253	304.846	0.077	0.144
-263.238	-200.000	-0.035	0.396
-262.224	800.000	-0.035	0.136
-261.209	-200.000	0.008	0.149
-260.195	-167.763	0.235	-0.009
-259.180	-200.000	-0.058	0.349
-258.165	-16.532	-0.161	0.102
-257.151	3.909	0.120	-0.088
-256.136	-88.307	-0.281	0.084
-255.122	800.000	-0.089	0.379
-254.107	198.813	0.254	-0.391
-253.092	-6.936	0.144	-0.099
-252.078	-84.572	0.080	-0.025
-251.063	117.094	-0.168	0.207
-250.049	-104.583	-0.475	0.110
-249.034	21.291	-0.292	-0.238
-248.019	800.000	0.009	0.037
-247.005	464.285	0.127	0.285
-245.990	18.063	0.494	-0.396
-244.976	44.320	0.127	-0.117
-243.961	-200.000	0.107	-0.562
-242.946	111.113	0.060	0.073
-241.932	77.279	-0.182	-0.195
-240.917	800.000	0.068	-0.214
-239.903	19.810	-0.030	-0.025
-238.888	602.576	0.080	0.200
-237.873	-95.848	-0.247	0.066
-236.859	-25.169	0.203	0.121
-235.844	-200.000	0.005	-0.041
-234.830	17.751	0.216	-0.173
-233.815	28.155	0.158	0.134
-232.800	120.791	-0.136	0.169
-231.786	-74.248	0.256	-0.093
-230.771	-35.089	0.157	-0.086
-229.757	-64.726	-0.080	-0.032
-228.742	169.466	-0.115	0.165
-227.727	7.263	0.087	-0.065
-226.713	800.000	-0.056	0.191
-225.698	-200.000	-0.029	0.301
-224.684	800.000	-0.067	0.209
-223.669	800.000	0.114	0.419
-222.655	-200.000	-0.018	0.195
-221.640	-200.000	0.005	-0.174
-220.625	115.491	-0.146	-0.178
-219.611	135.250	-0.067	-0.087
-218.596	6.505	-0.034	0.025
-217.582	287.775	0.083	-0.150
-216.567	170.662	0.133	-0.191
-215.552	141.941	-0.141	0.187
-214.538	800.000	0.041	0.168
-213.523	-129.732	0.338	-0.047
-212.509	800.000	-0.107	0.389
-211.494	-169.058	0.174	-0.006
-210.479	107.369	0.099	0.118
-209.465	47.048	-0.268	0.250
-208.450	100.541	-0.142	0.165
-207.436	665.424	0.129	0.334
-206.421	-24.011	0.119	-0.072
-205.406	108.473	-0.127	-0.152
-204.392	57.788	-0.103	-0.101
-203.377	-3.774	-0.280	0.195
-202.363	-156.789	-0.248	-0.015
-201.348	-200.000	-0.006	0.458
-200.333	-138.228	-0.128	-0.014
-199.319	-33.674	-0.096	0.053
-198.304	-100.002	-0.052	0.013
-197.290	-8.408	0.054	0.037
-196.275	-200.000	-0.006	-0.252
-195.260	71.417	-0.235	0.244
-194.246	26.975	0.216	0.182
-193.231	-27.144	-0.200	0.117
-192.217	-200.000	0.002	-0.638
-191.202	-200.000	-0.111	0.514
-190.187	800.000	-0.073	0.247
-189.173	800.000	0.118	0.382
-188.158	93.067	0.104	0.118
-187.144	392.864	0.017	-0.036
-186.129	-88.740	0.204	-0.061
-185.114	-9.324	0.058	0.039
-184.100	720.252	0.060	-0.161
-183.085	-173.161	-0.332	-0.010
-182.071	-200.000	0.008	0.457
-181.056	-200.000	0.042	-0.230
-180.042	29.961	-0.116	-0.099
-179.027	-49.198	0.241	-0.115
-178.012	-22.781	-0.165	-0.100
-176.998	-77.576	0.123	0.043
-175.983	-117.874	-0.069	-0.012
-174.969	-125.441	0.143	0.022
-173.954	-200.000	0.018	-0.122
-172.939	-200.000	-0.006	-0.088
-171.925	800.000	0.074	0.293
-170.910	12.333	-0.016	0.012
-169.896	134.568	-0.086	-0.112
-168.881	3.042	-0.302	-0.220
-167.866	436.568	-0.092	-0.200
-166.852	-54.640	-0.314	-0.142
-165.837	-200.000	-0.010	-0.084
-164.823	800.000	-0.056	-0.156
-163.808	-96.820	0.317	0.083
-162.793	381.177	0.076	-0.156
-161.779	-15.923	0.277	0.176
-160.764	-98.567	0.119	-0.030
-159.750	800.000	0.104	0.290
-158.735	-200.000	0.004	0.203
-157.720	-73.790	-0.027	-0.010
-156.706	-22.130	-0.254	0.154
-155.691	-168.964	0.166	0.006
-154.677	-100.688	0.124	0.030
-153.662	71.776	-0.076	-0.079
-152.647	-66.695	0.162	0.064
-151.633	5.779	-0.016	0.012
-150.618	-15.748	-0.117	0.075
-149.604	-91.103	0.124	0.035
-148.589	-200.000	-0.037	0.224
-147.574	309.014	0.230	0.430
-146.560	-200.000	-0.000	-0.302
-145.545	-72.809	0.217	0.080
-144.531	24.192	0.332	0.274
-143.516	800.000	0.067	0.205
-142.502	-16.694	-0.350	0.221
-141.487	400.918	0.126	0.264
-140.472	20.687	0.153	0.124
-139.458	800.000	-0.054	0.166
-138.443	113.597	0.082	0.099
-137.429	-200.000	-0.013	0.105
-136.414	-84.815	0.202	-0.063
-135.399	-123.916	-0.342	-0.054
-134.385	255.423	-0.143	0.245
-133.370	87.035	-0.083	-0.092
-132.356	11.797	-0.101	-0.078
-131.341	373.753	0.028	-0.057
-130.326	-8.842	-0.199	-0.133
-129.312	53.876	-0.032	-0.031
-128.297	-135.566	0.165	0.020
-127.283	-200.000	0.009	0.047
-126.268	687.926	0.064	0.166
-125.253	90.062	0.249	0.278
-124.239	-200.000	0.028	-0.123
-123.224	712.030	0.108	0.286
-122.210	-200.000	-0.040	0.241
-121.195	61.495	-0.179	-0.177
-120.180	-156.982	0.104	-0.006
-119.166	-133.712	0.317	0.039
-118.151	-143.608	-0.319	0.030
-117.137	-165.188	0.195	0.009
-116.122	-145.740	0.124	0.011
-115.107	-200.000	0.009	0.127
-114.093	222.456	0.057	-0.092
-113.078	-200.000	-0.008	0.096
-112.064	-200.000	0.055	-0.338
-111.049	-124.313	-0.098	0.015
-110.034	36.747	0.209	-0.184
-109.020	-74.102	0.177	0.064
-108.005	-200.000	0.001	-0.019
-106.991	0.679	-0.145	-0.103
-105.976	-102.618	0.405	0.097
-104.962	8.607	0.255	-0.192
-103.947	-200.000	-0.010	-0.052
-102.932	28.395	-0.283	0.239
-101.918	-57.073	0.040	-0.018
-100.903	-22.306	-0.393	-0.238
-99.889	463.847	0.041	0.091
-98.874	146.232	-0.173	0.231
-97.859	-73.213	0.221	-0.081
-96.845	285.920	-0.046	-0.082
-95.830	47.982	-0.120	-0.112
-94.816	604.156	-0.051	-0.128
-93.801	331.025	0.028	-0.053
-92.786	-179.026	0.318	-0.007
-91.772	-200.000	-0.004	-0.212
-90.757	-103.676	-0.356	0.083
-89.743	386.638	0.061	0.127
-88.728	-76.450	0.134	0.047
-87.713	301.658	0.063	-0.116
-86.699	-158.558	0.327	0.019
-85.684	265.445	-0.083	0.145
-84.670	117.159	0.084	-0.103
-83.655	778.156	-0.063	0.171
-82.640	-200.000	-0.016	-0.205
-81.626	800.000	-0.026	-0.071
-80.611	-200.000	-0.009	0.184
-79.597	308.483	0.152	0.282
-78.582	208.914	-0.087	0.136
-77.567	-200.000	0.017	-0.094
-76.553	-120.703	0.182	-0.031
-75.538	514.228	0.106	-0.247
-74.524	740.827	-0.012	-0.033
-73.509	-37.661	-0.239	0.127
-72.494	-22.706	0.066	-0.040
-71.480	800.000	-0.083	0.277
-70.465	642.977	-0.090	-0.230
-69.451	800.000	0.028	-0.093
-68.436	-200.000	0.055	0.310
-67.422	-107.644	0.227	-0.049
-66.407	-24.858	-0.293	0.173
-65.392	800.000	0.120	0.514
-64.378	285.268	0.129	0.231
-63.363	800.000	-0.060	0.198
-62.349	-63.731	0.101	0.041
-61.334	25.319	-1.000	-0.829
-60.319	767.144	0.218	0.591
-59.305	-200.000	-0.106	-0.696
-58.290	323.309	0.364	0.691
-57.276	800.000	0.468	1.434
-56.261	-200.000	78.664	520.404
-55.246	497.981	1348.749	3094.443
-54.232	143.643	2591.321	3440.063
-53.217	113.599	2256.286	2730.583
-52.203	51.344	1701.700	1609.987
-51.188	43.403	1427.486	1299.671
-50.173	40.029	1381.600	1236.780
-49.159	58.495	1418.502	1386.874
-48.144	64.176	1437.628	1441.387
-47.130	43.934	1399.112	1276.983
-46.115	39.936	1382.410	1236.728
-45.100	39.730	1377.881	1231.338
-44.086	39.665	1375.333	1228.611
-43.071	39.753	1372.731	1226.785
-42.057	39.647	1370.815	1224.365
-41.042	39.692	1369.033	1223.000
-40.027	39.833	1367.664	1222.603
-39.013	39.744	1365.601	1220.164
-37.998	39.838	1363.818	1219.099
-36.984	39.882	1361.699	1217.433
-35.969	39.921	1359.663	1215.803
-34.954	39.858	1358.005	1213.881
-33.940	39.974	1356.518	1213.215
-32.925	39.961	1355.644	1212.308
-31.911	39.862	1354.400	1210.539
-30.896	40.109	1352.210	1210.048
-29.881	39.992	1351.029	1208.230
-28.867	39.986	1349.485	1206.762
-27.852	40.019	1347.876	1205.477
-26.838	39.982	1346.328	1203.820
-25.823	39.955	1345.088	1202.499
-24.809	39.893	1343.699	1200.832
-23.794	39.889	1342.362	1199.566
-22.779	39.978	1340.646	1198.523
-21.765	40.027	1338.971	1197.277
-20.750	39.947	1337.905	1195.792
-19.736	39.815	1336.825	1193.981
-18.721	39.750	1335.590	1192.438
-17.706	39.795	1334.686	1191.855
-16.692	39.868	1332.818	1190.579
-15.677	39.880	1332.038	1189.904
-14.663	39.796	1330.943	1188.375
-13.648	39.707	1330.325	1187.240
-12.633	39.809	1328.712	1186.367
-11.619	39.826	1328.048	1185.829
-10.604	39.919	1326.765	1185.196
-9.590	39.785	1326.158	1183.801
-8.575	39.798	1324.981	1182.782
-7.560	39.908	1323.935	1182.461
-6.546	39.696	1323.686	1180.923
-5.531	39.828	1322.311	1180.439
-4.517	39.814	1321.158	1179.275
-3.502	39.851	1320.635	1178.984
-2.487	39.792	1319.654	1177.710
-1.473	39.817	1315.895	1174.455
-0.458	39.065	1300.787	1156.499
0.556	34.227	1281.101	1112.779
1.571	29.080	1283.368	1084.420
2.586	26.429	1296.506	1079.622
3.600	23.928	1283.452	1053.859
4.615	17.065	1204.818	950.896
5.629	6.480	1121.393	829.507
6.644	1.408	1096.866	785.131
7.659	0.851	1094.709	780.641
8.673	0.732	1093.496	779.095
9.688	0.562	1092.494	777.439
10.702	0.942	1090.393	777.825
11.717	6.209	1098.027	810.397
12.731	14.665	1109.468	862.630
13.746	17.943	1112.878	882.166
14.761	17.437	1111.649	878.504
15.775	16.626	1109.642	872.662
16.790	15.668	1107.335	865.839
17.804	14.996	1105.364	860.762
18.819	14.590	1104.297	857.769
19.834	14.170	1104.015	855.318
20.848	13.937	1102.614	852.959
21.863	13.708	1101.577	850.906
22.877	13.593	1101.011	849.802
23.892	13.602	1100.256	849.194
24.907	13.547	1099.724	848.425
25.921	13.554	1099.262	848.031
26.936	13.618	1097.755	847.120
27.950	13.648	1096.977	846.596
28.965	13.594	1095.801	845.336
29.980	13.772	1094.506	845.174
30.994	13.878	1093.310	844.711
32.009	13.870	1092.367	843.869
33.023	13.788	1091.424	842.649
34.038	13.849	1090.113	841.873
35.053	13.802	1089.569	841.141
36.067	13.738	1088.723	840.087
37.082	13.708	1088.087	839.370
38.096	13.646	1087.515	838.543
39.111	13.807	1086.072	838.165
40.126	13.609	1085.509	836.661
41.140	13.673	1083.892	835.660
42.155	13.526	1083.046	834.195
43.169	13.510	1081.694	833.001
44.184	13.530	1080.968	832.468
45.199	13.595	1079.496	831.586
46.213	13.657	1078.317	830.917
47.228	13.661	1077.463	830.202
48.242	13.671	1076.257	829.250
49.257	13.618	1075.267	828.150
50.271	13.646	1074.583	827.691
51.286	13.708	1073.901	827.400
52.301	13.724	1072.496	826.325
53.315	13.697	1071.352	825.237
54.330	13.717	1070.599	824.683
55.344	13.620	1070.007	823.670
56.359	13.729	1068.571	823.037
57.374	13.617	1068.188	822.111
58.388	13.630	1066.935	821.137
59.403	13.411	1066.932	819.978
60.417	13.519	1065.897	819.645
61.432	13.547	1065.153	819.138
62.447	13.409	1064.137	817.603
63.461	13.549	1063.102	817.424
64.476	13.566	1062.273	816.801
65.490	13.484	1061.557	815.771
66.505	13.684	1060.691	816.019
67.520	13.649	1060.264	815.446
68.534	13.645	1059.525	814.789
69.549	13.509	1058.723	813.430
70.563	13.600	1057.469	812.840
71.578	13.489	1056.914	811.800
72.593	13.360	1056.456	810.744
73.607	13.385	1055.844	810.324
74.622	13.439	1055.025	809.890
75.636	13.473	1053.974	809.177
76.651	13.465	1053.216	808.483
77.666	13.401	1053.181	808.071
78.680	13.483	1052.089	807.563
79.695	13.384	1051.530	806.581
80.709	13.535	1050.730	806.628
81.724	13.523	1050.322	806.186
82.739	13.541	1049.465	805.545
83.753	13.643	1048.559	805.276
84.768	13.694	1047.837	804.895
85.782	13.709	1046.865	804.152
86.797	13.674	1046.085	803.313
87.812	13.680	1044.890	802.352
88.826	13.630	1043.915	801.290
89.841	13.703	1042.805	800.722
90.855	13.700	1041.868	799.913
91.870	13.687	1041.357	799.389
92.884	13.751	1039.964	798.559
93.899	13.736	1039.421	797.997
94.914	13.848	1038.215	797.540
95.928	13.807	1037.422	796.661
96.943	13.763	1036.774	795.883
97.957	13.662	1036.431	795.064
98.972	13.728	1035.057	794.259
99.987	13.774	1034.014	793.605
101.001	13.841	1033.020	793.095
102.016	13.655	1032.583	791.800
103.030	13.715	1031.778	791.399
104.045	13.707	1030.746	790.501
105.060	13.757	1029.933	790.044
106.074	13.754	1028.678	788.999
107.089	13.642	1028.005	787.877
108.103	13.740	1026.800	787.350
109.118	13.544	1026.234	785.918
110.133	13.694	1025.268	785.818
111.147	13.582	1024.355	784.518
112.162	13.626	1023.659	784.125
113.176	13.754	1022.648	783.884
114.191	13.829	1021.803	783.523
115.206	13.716	1021.249	782.496
116.220	13.734	1020.480	781.921
117.235	13.723	1019.449	781.011
118.249	13.712	1018.222	779.949
119.264	13.746	1017.487	779.479
120.279	13.736	1016.796	778.832
121.293	13.754	1015.883	778.148
122.308	13.640	1015.258	777.067
123.322	13.613	1014.242	776.092
124.337	13.701	1013.123	775.580
125.352	13.717	1011.722	774.513
126.366	13.794	1010.619	773.959
127.381	13.720	1009.670	772.819
128.395	13.709	1009.120	772.278
129.410	13.585	1008.342	771.039
130.424	13.733	1007.328	770.883
131.439	13.795	1006.418	770.408
132.454	13.797	1005.720	769.812
133.468	13.829	1004.975	769.322
134.483	13.772	1003.841	768.125
135.497	13.809	1003.047	767.619
136.512	13.862	1002.492	767.372
137.527	13.804	1001.400	766.199
138.541	13.821	1000.831	765.777
139.556	13.925	1000.186	765.693
140.570	13.907	999.448	764.977
141.585	13.958	998.331	764.291
142.600	13.877	997.649	763.327
143.614	13.894	996.834	762.713
144.629	14.073	995.428	762.394
145.643	13.984	994.899	761.510
146.658	13.904	994.089	760.459
147.673	13.885	993.181	759.612
148.687	13.988	991.918	759.048
149.702	13.852	991.173	757.791
150.716	13.912	990.248	757.287
151.731	13.864	989.919	756.749
152.746	13.815	989.197	755.908
153.760	13.871	988.563	755.612
154.775	13.858	988.032	755.081
155.789	13.955	987.240	754.848
156.804	13.985	986.129	754.069
157.819	14.049	985.604	753.892
158.833	14.126	984.691	753.476
159.848	14.103	983.795	752.618
160.862	14.042	983.101	751.744
161.877	13.991	982.101	750.684
162.892	14.011	981.140	749.971
163.906	14.044	980.432	749.512
164.921	13.847	979.910	748.160
165.935	13.892	978.888	747.516
166.950	13.983	977.859	747.076
167.964	14.058	976.829	746.557
168.979	14.144	975.796	746.091
169.994	14.050	974.938	744.947
171.008	13.988	974.576	744.323
172.023	14.070	973.555	743.846
173.037	14.080	972.974	743.381
174.052	14.067	972.374	742.799
175.067	14.070	971.494	742.075
176.081	14.082	971.300	741.913
177.096	13.995	970.410	740.782
178.110	14.085	969.742	740.607
179.125	13.998	969.194	739.735
180.140	14.146	968.509	739.804
181.154	14.225	968.051	739.743
182.169	14.117	968.057	739.198
183.183	14.239	966.974	738.847
184.198	14.348	965.948	738.482
185.213	14.268	965.488	737.710
186.227	14.406	964.303	737.353
187.242	14.361	963.761	736.673
188.256	14.388	963.005	736.148
189.271	14.289	962.508	735.266
190.286	14.269	961.494	734.340
191.300	14.233	961.087	733.805
192.315	14.135	960.289	732.697
193.329	14.275	959.724	732.817
194.344	14.209	959.241	732.093
195.359	14.330	958.604	732.077
196.373	14.337	957.862	731.474
197.388	14.432	957.273	731.377
198.402	14.440	956.946	731.098
199.417	14.494	956.144	730.657
200.432	14.620	955.305	730.503
201.446	14.597	955.063	730.151
202.461	14.598	954.542	729.692
203.475	14.681	953.829	729.447
204.490	14.607	952.991	728.418
205.504	14.488	952.253	727.270
206.519	14.538	951.688	726.995
207.534	14.564	950.976	726.497
208.548	14.621	950.067	725.988
209.563	14.498	949.765	725.158
210.577	14.487	948.989	724.452
211.592	14.675	948.236	724.632
212.607	14.779	947.089	724.139
213.621	14.731	946.276	723.249
214.636	14.687	945.984	722.770
215.650	14.703	945.039	722.051
216.665	14.649	944.370	721.245
217.680	14.825	943.366	721.173
218.694	14.633	943.513	720.394
219.709	14.799	942.332	720.142
220.723	14.923	941.605	720.057
221.738	14.772	940.960	718.851
222.753	14.879	940.216	718.681
223.767	14.905	939.678	718.315
224.782	14.960	939.120	718.064
225.796	14.963	938.320	717.400
226.811	14.839	937.483	716.167
227.826	14.993	936.788	716.232
228.840	14.822	936.312	715.069
229.855	14.908	935.160	714.496
230.869	14.871	934.679	713.906
231.884	14.975	933.657	713.508
232.899	14.972	933.178	713.066
233.913	14.832	932.505	711.892
234.928	14.874	931.954	711.586
235.942	14.829	931.225	710.775
236.957	15.032	930.358	710.912
237.972	14.874	929.858	709.796
238.986	15.080	929.035	709.979
240.001	14.978	928.931	709.405
241.015	14.946	928.092	708.564
242.030	15.046	927.201	708.246
243.045	14.996	926.934	707.768
244.059	15.179	925.753	707.575
245.074	15.104	925.357	706.894
246.088	15.159	924.515	706.422
247.103	15.058	923.930	705.486
248.117	15.091	923.573	705.290
249.132	15.223	922.895	705.264
250.147	15.320	921.934	704.877
251.161	15.191	921.891	704.239
252.176	15.228	921.130	703.750
253.190	15.311	920.203	703.328
254.205	15.436	919.323	703.116
255.220	15.412	918.945	702.666
256.234	15.316	918.155	701.597
257.249	15.364	917.578	701.297
258.263	15.413	916.781	700.827
259.278	15.354	916.203	700.078
260.293	15.451	915.799	700.111
261.307	15.545	914.741	699.632
262.322	15.489	914.074	698.826
263.336	15.574	913.419	698.619
264.351	15.533	913.149	698.178
265.366	15.490	912.099	697.139
266.380	15.730	911.514	697.625
267.395	15.633	910.559	696.429
268.409	15.493	910.002	695.360
269.424	15.686	908.969	695.310
270.439	15.490	908.367	693.976
271.453	15.485	907.757	693.428
272.468	15.613	907.059	693.363
273.482	15.655	906.607	693.129
274.497	15.757	905.915	692.961
275.512	15.594	905.683	692.051
276.526	15.537	905.348	691.496
277.541	15.730	904.528	691.604
278.555	15.747	903.814	691.068
279.570	15.735	903.105	690.412
280.585	15.904	902.189	690.347
281.599	15.689	901.816	689.118
282.614	15.824	900.962	688.959
283.628	15.856	900.244	688.477
284.643	15.822	899.593	687.780
285.657	15.852	898.688	687.149
286.672	15.835	898.307	686.728
287.687	15.907	898.016	686.739
288.701	15.855	897.425	686.015
289.716	15.906	896.363	685.350
290.730	15.901	896.130	685.090
291.745	15.933	895.282	684.511
292.760	15.971	894.514	684.019
293.774	15.908	894.162	683.433
294.789	15.902	893.767	683.044
295.803	15.973	892.402	682.231
296.818	15.853	892.021	681.392
297.833	15.907	891.050	680.808
298.847	16.042	890.058	680.534
299.862	16.059	890.055	680.543
300.876	15.995	889.882	680.090
301.891	16.085	888.926	679.664
302.906	16.075	888.168	678.983
303.920	16.122	887.859	678.877
304.935	16.268	887.107	678.828
305.949	16.236	886.655	678.293
306.964	16.135	886.209	677.488
307.979	16.160	885.313	676.843
308.993	16.342	884.623	676.985
310.008	16.287	884.176	676.361
311.022	16.352	883.351	675.930
312.037	16.163	883.066	674.898
313.052	16.210	882.494	674.588
314.066	16.285	881.756	674.263
315.081	16.266	881.217	673.716
316.095	16.272	880.261	672.950
317.110	16.188	880.232	672.531
318.125	16.195	879.827	672.190
319.139	16.331	879.011	672.049
320.154	16.272	878.518	671.380
321.168	16.433	877.686	671.325
322.183	16.199	877.443	670.150
323.197	16.331	876.960	670.244
324.212	16.313	875.843	669.260
325.227	16.360	875.402	669.051
326.241	16.358	874.993	668.670
327.256	16.379	873.991	667.930
328.270	16.412	873.667	667.754
329.285	16.313	873.476	667.157
330.300	16.380	872.496	666.612
331.314	16.541	871.927	666.755
332.329	16.349	871.808	665.847
333.343	16.394	871.359	665.623
334.358	16.392	870.893	665.198
335.373	16.617	870.295	665.567
336.387	16.476	870.045	664.765
337.402	16.443	870.046	664.576
338.416	16.431	869.573	664.111
339.431	16.601	869.127	664.377
340.446	16.656	868.510	664.064
341.460	16.816	867.603	663.939
342.475	16.663	867.798	663.428
343.489	16.643	867.118	662.772
344.504	16.859	866.713	663.249
345.519	16.671	866.346	662.176
346.533	16.851	865.668	662.299
347.548	16.829	865.034	661.670
348.562	16.719	864.581	660.835
349.577	16.811	863.843	660.574
350.592	16.697	863.371	659.709
351.606	16.692	862.830	659.217
352.621	16.804	861.987	658.954
353.635	16.905	861.057	658.574
354.650	16.878	860.205	657.759
355.665	16.893	859.530	657.243
356.679	16.863	859.091	656.734
357.694	16.859	858.544	656.243
358.708	16.961	857.876	656.069
359.723	16.867	856.986	654.965
360.738	16.991	856.823	655.262
361.752	16.933	856.122	654.443
362.767	16.931	855.667	654.029
363.781	17.238	854.836	654.520
364.796	17.065	854.634	653.644
365.810	16.996	854.377	653.122
366.825	17.023	853.849	652.765
367.840	17.172	853.399	652.936
368.854	17.096	852.737	652.079
369.869	17.138	852.352	651.889
370.883	17.184	851.777	651.569
371.898	17.116	851.419	650.977
372.913	17.096	851.148	650.632
373.927	17.171	850.431	650.314
374.942	17.366	849.787	650.512
375.956	17.335	849.430	650.062
376.971	17.359	848.952	649.729
377.986	17.560	848.367	649.991
379.000	17.386	848.146	649.101
380.015	17.444	847.552	648.811
381.029	17.439	847.227	648.486
382.044	17.343	846.524	647.526
383.059	17.358	846.299	647.350
384.073	17.371	845.558	646.777
385.088	17.412	844.959	646.417
386.102	17.483	844.163	646.021
387.117	17.326	843.639	644.969
388.132	17.472	843.133	645.078
389.146	17.382	842.635	644.298
390.161	17.450	842.106	644.095
391.175	17.503	841.370	643.673
392.190	17.455	841.110	643.236
393.205	17.473	840.641	642.888
394.219	17.478	840.158	642.483
395.234	17.423	839.692	641.861
396.248	17.554	839.543	642.184
397.263	17.540	838.792	641.499
398.278	17.459	838.537	640.943
399.292	17.473	838.047	640.566
400.307	17.560	837.433	640.365
401.321	17.512	837.006	639.803
402.336	17.514	836.699	639.519
403.350	17.591	836.125	639.311
404.365	17.554	835.714	638.801
405.380	17.556	835.498	638.590
406.394	17.665	834.550	638.215
407.409	17.640	834.027	637.666
408.423	17.770	833.696	637.843
409.438	17.863	833.622	638.079
410.453	17.899	832.878	637.584
411.467	17.806	832.482	636.878
412.482	17.891	832.221	636.941
413.496	17.870	831.790	636.476
414.511	17.959	831.264	636.350
415.526	17.925	830.805	635.812
416.540	17.991	829.979	635.370
417.555	17.956	829.844	635.081
418.569	18.060	829.362	635.043
419.584	17.810	829.440	634.118
420.599	18.045	828.352	634.100
421.613	95.112	1273.067	1391.980
422.628	82.071	1337.879	1392.118
