DTS Sentinel unit serial number:	SN413079Multiplexer serial number:	ORYXHardware model number:	OX4-SRSoftware version number:	ORYX F/W v4.00 Oryx Data Collector v3.7.2.0data status	okinstallation	princeton_trtdifferential loss correction	single-endedforward channel	channel 1reverse channel	N/Adate	2019/09/11time	02:08:11forward acquisition time	60.00reverse acquisition time	0.00gamma	496.2192k internal	0.2332k external	0.2332temperature offset calibration	0.9932default loss term (dB/km)	0.3790temperature slope calibration	1.0000multiplexer offset coefficient	1.0000multiplexer slope coefficient	1.0000fibre end	0.00T internal ref (°C)	29.19T ext. ref 1 (°C)	-0.31T ext. ref 2 (°C)	23.14length (m)	temperature (°C)	Stokes	anti-Stokes-747.200	214.921	-0.130	-0.207
-746.185	177.173	-0.138	-0.203
-745.171	-200.000	-0.018	0.174
-744.156	138.746	-0.130	0.172
-743.142	-94.837	0.337	0.092
-742.127	800.000	-0.061	0.178
-741.112	93.366	-0.159	0.182
-740.098	-10.778	0.373	0.248
-739.083	78.707	0.151	-0.163
-738.069	282.035	0.113	0.204
-737.054	-200.000	0.009	0.228
-736.039	510.492	0.084	0.196
-735.025	133.058	0.167	-0.217
-734.010	-151.547	0.134	-0.010
-732.996	-11.273	0.136	0.090
-731.981	157.882	0.051	-0.072
-730.966	9.847	-0.119	-0.091
-729.952	798.264	0.157	-0.437
-728.937	-200.000	0.036	-0.552
-727.923	-33.061	-0.219	-0.122
-726.908	59.614	-0.222	0.220
-725.894	127.949	-0.264	0.337
-724.879	800.000	0.050	-0.144
-723.864	-122.459	-0.216	0.035
-722.850	33.939	0.101	-0.088
-721.835	29.164	-0.229	0.195
-720.821	236.627	-0.227	0.378
-719.806	-170.874	-0.074	-0.003
-718.791	-9.586	-0.169	-0.114
-717.777	-129.189	-0.075	-0.011
-716.762	49.972	0.094	-0.089
-715.748	-67.124	-0.216	0.086
-714.733	800.000	-0.098	-0.307
-713.718	800.000	-0.076	0.318
-712.704	800.000	0.108	-0.351
-711.689	489.306	-0.112	0.257
-710.675	113.046	0.268	0.327
-709.660	346.950	-0.079	-0.156
-708.645	27.063	0.153	-0.129
-707.631	128.659	0.148	-0.190
-706.616	800.000	0.019	0.073
-705.602	-200.000	0.002	-0.060
-704.587	537.806	-0.014	0.032
-703.572	-200.000	0.023	0.187
-702.558	676.831	-0.063	-0.163
-701.543	-22.241	-0.296	0.180
-700.529	246.080	0.223	-0.377
-699.514	-52.706	-0.263	-0.122
-698.499	99.981	-0.042	-0.049
-697.485	-200.000	-0.001	-0.109
-696.470	411.182	0.123	0.262
-695.456	-13.157	0.255	0.166
-694.441	800.000	-0.087	0.329
-693.426	-17.562	-0.213	0.134
-692.412	63.566	0.119	0.119
-691.397	-43.864	-0.302	0.153
-690.383	-119.832	0.148	-0.026
-689.368	-46.105	0.157	0.078
-688.354	38.253	-0.114	-0.102
-687.339	-80.436	0.078	-0.026
-686.324	-55.520	-0.112	0.050
-685.310	-120.699	0.450	0.076
-684.295	687.512	0.173	0.453
-683.281	-60.773	0.258	-0.110
-682.266	-200.000	-0.016	0.220
-681.251	67.434	-0.320	0.328
-680.237	41.224	0.275	-0.249
-679.222	-87.376	-0.069	0.021
-678.208	800.000	0.063	-0.198
-677.193	-200.000	0.323	0.001
-676.178	800.000	-0.091	-0.254
-675.164	408.174	-0.048	0.102
-674.149	-200.000	0.043	-0.224
-673.135	800.000	-0.040	-0.169
-672.120	-47.559	0.039	-0.019
-671.105	-74.607	-0.065	-0.024
-670.091	-200.000	0.020	-0.455
-669.076	234.243	-0.100	-0.165
-668.062	-200.000	-0.023	-0.181
-667.047	-200.000	0.016	-0.084
-666.032	-197.579	-0.024	0.000
-665.018	498.489	-0.073	0.168
-664.003	800.000	0.058	-0.163
-662.989	-163.006	0.140	0.007
-661.974	-63.815	0.426	-0.175
-660.959	41.141	0.099	0.089
-659.945	800.000	0.058	-0.175
-658.930	-200.000	-0.020	-0.311
-657.916	38.067	-0.251	0.224
-656.901	-30.523	0.176	-0.100
-655.886	-117.688	-0.026	0.005
-654.872	-56.397	-0.234	0.104
-653.857	132.022	0.101	0.131
-652.843	303.750	-0.107	-0.199
-651.828	-83.841	-0.275	0.088
-650.814	800.000	0.106	-0.302
-649.799	68.235	-0.137	-0.141
-648.784	109.270	-0.418	0.502
-647.770	-189.687	-0.103	-0.001
-646.755	-104.585	-0.228	0.053
-645.741	49.086	-0.359	-0.338
-644.726	-125.425	0.339	0.052
-643.711	272.526	0.146	-0.258
-642.697	65.833	0.123	-0.125
-641.682	-137.102	-0.153	0.018
-640.668	-68.803	0.114	-0.044
-639.653	-119.684	-0.260	-0.045
-638.638	-200.000	-0.024	-0.108
-637.624	-86.502	0.437	0.134
-636.609	-77.294	-0.195	-0.068
-635.595	-14.253	0.084	0.054
-634.580	-13.181	-0.070	-0.045
-633.565	-46.086	-0.339	-0.167
-632.551	-176.211	-0.236	0.006
-631.536	-90.189	-0.312	-0.091
-630.522	-91.529	0.118	-0.034
-629.507	-135.579	0.238	-0.028
-628.492	-200.000	0.001	0.068
-627.478	234.596	0.136	0.225
-626.463	134.806	-0.150	0.195
-625.449	-200.000	-0.036	0.322
-624.434	1.435	-0.279	-0.201
-623.419	-200.000	-0.041	0.466
-622.405	-143.062	0.304	-0.029
-621.390	-111.308	0.511	-0.104
-620.376	-3.132	-0.217	0.152
-619.361	-53.016	0.065	0.030
-618.346	780.655	-0.138	-0.379
-617.332	-38.689	-0.239	0.126
-616.317	-50.550	-0.105	0.050
-615.303	-0.827	0.089	0.063
-614.288	31.042	0.148	-0.127
-613.273	-36.181	0.225	0.122
-612.259	-119.347	-0.104	-0.018
-611.244	117.002	-0.167	-0.206
-610.230	-200.000	0.018	-0.409
-609.215	101.123	0.257	0.299
-608.201	-86.912	0.070	-0.021
-607.186	340.435	-0.120	-0.234
-606.171	-132.422	0.361	0.047
-605.157	-80.211	0.192	0.064
-604.142	-130.717	0.295	-0.040
-603.128	298.035	0.070	0.128
-602.113	276.407	0.106	0.188
-601.098	509.792	0.117	-0.272
-600.084	130.187	0.142	0.182
-599.069	-151.354	-0.113	-0.008
-598.055	-128.330	-0.322	0.046
-597.040	0.661	0.464	-0.332
-596.025	-200.000	0.022	-0.211
-595.011	-200.000	0.011	0.283
-593.996	65.295	0.105	-0.106
-592.982	212.423	0.136	-0.215
-591.967	624.573	-0.064	0.161
-590.952	182.129	-0.312	-0.460
-589.938	800.000	0.074	-0.235
-588.923	200.997	0.055	0.085
-587.909	-1.782	-0.214	0.151
-586.894	681.287	-0.083	0.216
-585.879	-200.000	-0.007	-0.044
-584.865	557.163	-0.058	-0.139
-583.850	-89.076	-0.105	0.031
-582.836	77.401	-0.200	-0.212
-581.821	-200.000	-0.002	0.063
-580.806	-139.375	-0.288	-0.031
-579.792	-200.000	0.030	-0.173
-578.777	800.000	0.038	0.116
-577.763	-23.521	0.053	-0.032
-576.748	525.266	0.057	-0.133
-575.733	-46.342	-0.216	-0.106
-574.719	-33.181	0.342	0.190
-573.704	285.115	-0.110	0.197
-572.690	187.596	0.135	-0.201
-571.675	-200.000	0.010	-0.177
-570.661	219.429	-0.022	-0.035
-569.646	-200.000	-0.051	0.320
-568.631	-35.583	-0.177	0.096
-567.617	22.169	-0.105	0.086
-566.602	-200.000	-0.025	-0.422
-565.588	-122.280	0.142	0.023
-564.573	-200.000	-0.158	0.000
-563.558	-200.000	-0.016	-0.233
-562.544	-200.000	0.006	0.092
-561.529	-121.544	0.079	-0.013
-560.515	-177.817	-0.148	-0.004
-559.500	44.360	0.181	-0.166
-558.485	-200.000	0.014	0.261
-557.471	-200.000	-0.041	0.235
-556.456	-166.185	-0.126	0.005
-555.442	-200.000	0.006	-0.142
-554.427	92.178	0.125	0.141
-553.412	-200.000	0.030	0.136
-552.398	-153.363	-0.303	0.021
-551.383	-79.351	-0.226	-0.076
-550.369	-83.293	0.212	0.068
-549.354	-200.000	0.080	0.360
-548.339	24.765	0.326	-0.270
-547.325	-31.833	-0.161	-0.090
-546.310	462.808	-0.066	0.146
-545.296	-91.144	-0.179	0.051
-544.281	-200.000	-0.050	0.370
-543.266	-87.453	-0.259	0.078
-542.252	-18.863	0.075	0.046
-541.237	-40.006	0.469	-0.244
-540.223	-200.000	-0.003	-0.225
-539.208	-200.000	0.011	-0.096
-538.193	800.000	-0.059	-0.236
-537.179	-62.195	-0.018	0.008
-536.164	714.451	-0.066	0.174
-535.150	800.000	0.035	-0.138
-534.135	25.543	0.144	0.120
-533.121	511.692	0.048	-0.112
-532.106	-200.000	-0.000	0.167
-531.091	-40.748	0.085	0.044
-530.077	-200.000	-0.009	-0.182
-529.062	-37.040	0.162	0.087
-528.048	-200.000	0.016	-0.123
-527.033	-141.576	-0.434	-0.044
-526.018	800.000	0.116	-0.363
-525.004	28.849	-0.398	0.337
-523.989	-76.632	0.299	-0.105
-522.975	-28.058	-0.328	0.189
-521.960	184.958	-0.163	-0.242
-520.945	-29.552	0.138	-0.079
-519.931	-161.036	-0.125	-0.007
-518.916	-71.647	-0.200	-0.074
-517.902	-2.084	-0.298	-0.209
-516.887	800.000	-0.040	0.138
-515.872	170.425	-0.030	-0.042
-514.858	-200.000	0.036	-0.257
-513.843	327.393	-0.118	0.225
-512.829	-88.505	0.345	0.103
-511.814	231.794	0.125	0.205
-510.799	134.985	-0.124	0.161
-509.785	172.465	-0.076	-0.109
-508.770	-137.986	-0.315	0.035
-507.756	125.455	-0.217	0.273
-506.741	-33.271	0.382	0.211
-505.726	-200.000	0.003	-0.015
-504.712	-68.664	-0.105	0.040
-503.697	800.000	0.027	0.095
-502.683	-200.000	-0.016	0.078
-501.668	24.315	-0.259	-0.214
-500.653	-200.000	-0.006	-0.175
-499.639	-200.000	-0.006	0.258
-498.624	267.809	-0.109	-0.190
-497.610	-61.916	0.040	-0.017
-496.595	208.099	-0.035	0.054
-495.581	-200.000	-0.000	0.286
-494.566	-114.523	0.287	-0.055
-493.551	800.000	-0.030	0.091
-492.537	-151.772	0.086	-0.006
-491.522	-139.035	0.143	0.015
-490.508	468.179	-0.067	-0.150
-489.493	-42.025	-0.257	-0.131
-488.478	-26.980	-0.168	-0.098
-487.464	-200.000	0.009	-0.227
-486.449	451.493	0.106	0.234
-485.435	-28.694	-0.351	-0.201
-484.420	34.468	0.057	-0.049
-483.405	-20.472	-0.077	0.047
-482.391	317.770	-0.028	0.054
-481.376	-174.924	-0.266	-0.007
-480.362	199.336	0.040	-0.061
-479.347	186.360	0.149	-0.220
-478.332	800.000	-0.029	0.080
-477.318	330.837	0.039	-0.075
-476.303	-200.000	-0.022	0.215
-475.289	-200.000	-0.011	0.167
-474.274	-200.000	-0.038	0.202
-473.259	185.340	0.024	0.035
-472.245	506.746	-0.092	0.212
-471.230	-54.329	0.351	0.159
-470.216	333.988	-0.138	-0.266
-469.201	98.487	0.345	0.396
-468.186	-7.371	0.142	-0.096
-467.172	768.661	-0.069	0.186
-466.157	-200.000	0.048	0.282
-465.143	-151.251	0.337	-0.025
-464.128	-200.000	0.016	0.466
-463.113	277.966	-0.135	-0.239
-462.099	36.573	0.105	0.093
-461.084	-113.954	0.236	-0.046
-460.070	507.095	0.067	0.155
-459.055	138.658	0.207	0.271
-458.040	-25.602	-0.126	-0.074
-457.026	-200.000	0.043	0.189
-456.011	-170.498	-0.134	-0.005
-454.997	41.851	-0.325	-0.293
-453.982	-101.377	0.269	0.065
-452.968	30.233	0.089	-0.076
-451.953	-200.000	0.018	0.232
-450.938	208.033	-0.187	0.290
-449.924	-20.677	0.442	0.270
-448.909	192.134	-0.028	0.042
-447.895	136.631	-0.036	0.047
-446.880	-121.002	-0.113	0.019
-445.865	-200.000	-0.032	-0.202
-444.851	-200.000	0.010	0.199
-443.836	-41.295	0.221	-0.113
-442.822	-188.885	-0.160	0.002
-441.807	6.932	0.241	0.178
-440.792	125.696	0.249	0.313
-439.778	-200.000	0.033	0.333
-438.763	800.000	0.023	-0.082
-437.749	6.952	-0.183	-0.135
-436.734	-124.736	0.124	0.019
-435.719	-67.198	0.163	-0.064
-434.705	18.280	-0.201	-0.159
-433.690	742.405	0.009	0.025
-432.676	-111.752	0.172	0.035
-431.661	-43.990	0.269	0.134
-430.646	-200.000	0.022	0.201
-429.632	-45.939	0.204	0.100
-428.617	-88.847	-0.192	-0.057
-427.603	-33.651	-0.246	0.135
-426.588	-200.000	-0.024	0.448
-425.573	-102.344	-0.338	-0.080
-424.559	65.108	0.120	0.120
-423.544	-35.619	0.201	-0.108
-422.530	-95.222	0.227	-0.061
-421.515	-66.244	0.074	-0.029
-420.500	454.557	0.076	-0.168
-419.486	692.404	0.102	0.267
-418.471	680.994	0.107	-0.277
-417.457	-163.230	0.124	0.006
-416.442	8.008	0.101	-0.075
-415.428	-94.739	-0.177	-0.048
-414.413	709.032	0.065	0.171
-413.398	-200.000	-0.068	0.459
-412.384	294.735	0.025	0.046
-411.369	-99.505	-0.374	0.093
-410.355	-16.761	0.090	0.057
-409.340	29.081	0.516	-0.435
-408.325	-55.210	0.123	-0.055
-407.311	7.698	-0.324	0.241
-406.296	62.581	-0.221	0.219
-405.282	-200.000	-0.037	-0.253
-404.267	56.401	-0.121	-0.117
-403.252	-200.000	-0.020	-0.274
-402.238	-200.000	-0.018	-0.617
-401.223	-118.068	0.059	-0.010
-400.209	97.183	-0.183	0.209
-399.194	-200.000	-0.019	0.093
-398.179	329.241	-0.136	0.259
-397.165	-64.629	0.410	0.165
-396.150	-200.000	-0.022	0.353
-395.136	-200.000	0.043	-0.200
-394.121	726.193	0.041	-0.109
-393.106	800.000	0.050	-0.145
-392.092	119.313	-0.094	0.116
-391.077	-200.000	0.001	0.198
-390.063	-200.000	-0.019	-0.371
-389.048	-63.549	0.131	-0.053
-388.033	65.292	0.226	0.226
-387.019	450.954	-0.127	-0.278
-386.004	201.293	-0.086	-0.131
-384.990	-150.421	-0.243	0.019
-383.975	-0.244	0.164	0.115
-382.960	374.111	0.097	0.195
-381.946	800.000	0.065	-0.254
-380.931	-36.853	-0.162	-0.086
-379.917	800.000	-0.053	-0.176
-378.902	-112.888	0.092	-0.018
-377.888	443.970	-0.109	-0.238
-376.873	45.282	0.199	0.182
-375.858	184.662	0.221	0.325
-374.844	-47.796	0.174	-0.084
-373.829	24.279	-0.228	-0.187
-372.815	62.928	0.137	-0.136
-371.800	-77.630	-0.052	-0.018
-370.785	138.058	-0.138	0.180
-369.771	-119.966	0.195	0.033
-368.756	-46.230	0.131	-0.064
-367.742	-37.496	-0.212	0.112
-366.727	-51.125	0.128	0.059
-365.712	86.580	0.161	0.176
-364.698	462.308	-0.042	-0.093
-363.683	61.249	-0.309	-0.304
-362.669	302.622	0.020	-0.038
-361.654	-33.566	0.191	0.105
-360.639	141.946	0.031	0.040
-359.625	53.218	-0.236	0.224
-358.610	800.000	-0.092	0.301
-357.596	800.000	0.044	-0.127
-356.581	800.000	0.031	0.095
-355.566	-52.363	0.064	-0.030
-354.552	326.072	0.060	-0.114
-353.537	-25.843	-0.064	-0.038
-352.523	254.248	-0.084	0.143
-351.508	507.238	0.094	0.217
-350.493	55.599	-0.168	-0.161
-349.479	-76.884	0.051	0.018
-348.464	800.000	0.054	-0.186
-347.450	310.309	-0.059	-0.109
-346.435	-104.837	-0.076	0.017
-345.420	-200.000	0.063	-0.282
-344.406	84.554	0.188	0.204
-343.391	-200.000	0.026	0.227
-342.377	51.434	0.158	-0.148
-341.362	-123.273	0.195	0.031
-340.348	60.047	-0.152	-0.149
-339.333	-96.387	0.038	-0.010
-338.318	519.392	0.047	-0.109
-337.304	-180.590	-0.146	0.003
-336.289	39.790	0.207	0.184
-335.275	343.044	0.140	0.272
-334.260	-59.568	-0.508	-0.216
-333.245	-124.833	-0.069	-0.011
-332.231	60.121	-0.211	0.207
-331.216	77.862	0.170	-0.179
-330.202	-115.507	-0.086	-0.016
-329.187	-146.040	-0.339	-0.030
-328.172	-200.000	0.061	0.282
-327.158	-96.209	-0.237	-0.062
-326.143	244.063	0.064	-0.107
-325.129	-126.077	0.273	0.041
-324.114	-46.951	-0.097	-0.047
-323.099	800.000	-0.078	-0.247
-322.085	-200.000	0.039	-0.253
-321.070	-200.000	0.030	0.204
-320.056	-160.529	-0.074	-0.004
-319.041	141.552	-0.068	0.089
-318.026	373.618	-0.088	0.177
-317.012	-200.000	0.001	-0.150
-315.997	247.792	0.043	0.072
-314.983	52.646	-0.169	-0.160
-313.968	247.290	-0.200	-0.334
-312.953	-200.000	0.041	-0.331
-311.939	-32.564	0.111	-0.061
-310.924	-127.322	0.278	0.040
-309.910	-200.000	-0.001	0.111
-308.895	-56.899	0.023	0.010
-307.880	-200.000	0.016	-0.333
-306.866	21.197	-0.306	-0.246
-305.851	229.485	0.116	-0.187
-304.837	-15.721	-0.179	0.113
-303.822	78.821	-0.160	0.169
-302.807	188.819	0.151	-0.223
-301.793	92.542	-0.175	-0.195
-300.778	-77.779	0.096	0.033
-299.764	-94.728	-0.024	0.006
-298.749	-20.162	0.204	-0.125
-297.735	-200.000	0.041	-0.359
-296.720	-66.304	-0.111	0.044
-295.705	139.514	0.260	0.339
-294.691	800.000	0.103	-0.291
-293.676	-144.078	-0.354	-0.033
-292.662	-32.456	-0.385	-0.212
-291.647	-200.000	0.068	-0.312
-290.632	-200.000	0.034	-0.292
-289.618	-14.198	0.223	-0.142
-288.603	92.503	-0.029	-0.033
-287.589	84.650	-0.116	-0.126
-286.574	84.963	0.152	0.165
-285.559	-120.708	-0.421	0.070
-284.545	-200.000	-0.008	-0.086
-283.530	113.574	-0.171	0.205
-282.516	-56.841	-0.148	-0.065
-281.501	-67.210	-0.133	0.052
-280.486	-200.000	-0.288	0.001
-279.472	2.135	0.085	0.061
-278.457	-200.000	-0.003	-0.022
-277.443	-20.248	0.168	-0.102
-276.428	170.971	0.160	0.226
-275.413	-20.320	0.212	-0.129
-274.399	-126.888	-0.378	-0.055
-273.384	620.323	0.077	-0.191
-272.370	-58.940	0.320	-0.137
-271.355	551.653	-0.033	0.078
-270.340	-17.546	0.258	0.160
-269.326	-200.000	-0.044	0.316
-268.311	-111.616	-0.211	-0.042
-267.297	-162.750	0.311	-0.015
-266.282	-77.229	0.068	0.023
-265.267	-200.000	0.008	0.200
-264.253	-200.000	0.005	0.287
-263.238	-21.268	0.183	0.110
-262.224	-200.000	-0.144	-0.000
-261.209	-200.000	0.052	-0.476
-260.195	800.000	-0.011	0.037
-259.180	-200.000	0.011	-0.277
-258.165	232.202	-0.139	-0.225
-257.151	-32.387	-0.129	-0.071
-256.136	-0.616	-0.124	-0.087
-255.122	226.529	-0.085	-0.137
-254.107	43.578	-0.095	-0.086
-253.092	-68.651	-0.163	0.062
-252.078	60.327	0.055	0.054
-251.063	43.372	-0.275	-0.248
-250.049	85.173	-0.096	0.104
-249.034	124.582	-0.196	0.243
-248.019	-10.221	-0.135	-0.088
-247.005	-76.178	0.548	0.191
-245.990	97.392	0.162	-0.184
-244.976	-200.000	0.001	-0.290
-243.961	54.594	0.322	0.306
-242.946	236.345	-0.179	0.291
-241.932	202.733	0.118	0.180
-240.917	27.486	0.225	0.187
-239.903	-16.398	-0.275	-0.172
-238.888	481.587	-0.144	0.323
-237.873	-200.000	-0.015	-0.264
-236.859	-85.436	-0.305	-0.094
-235.844	-79.198	0.205	0.069
-234.830	-101.978	0.187	-0.044
-233.815	192.149	-0.078	-0.116
-232.800	-139.718	0.139	-0.015
-231.786	37.359	-0.111	0.097
-230.771	-64.568	-0.169	0.068
-229.757	-49.476	-0.080	0.038
-228.742	749.348	-0.038	0.101
-227.727	-31.209	0.248	0.138
-226.713	800.000	-0.067	-0.185
-225.698	-29.560	0.416	0.234
-224.684	-85.851	0.116	-0.035
-223.669	-200.000	0.014	0.207
-222.655	-101.710	-0.071	-0.017
-221.640	-101.820	0.139	-0.033
-220.625	-200.000	-0.027	-0.303
-219.611	800.000	-0.102	0.281
-218.596	-27.090	0.059	-0.034
-217.582	-117.620	0.182	0.032
-216.567	-48.705	0.194	0.092
-215.552	-130.745	-0.336	0.045
-214.538	347.374	0.137	0.265
-213.523	-108.147	-0.243	0.052
-212.509	-4.337	0.185	0.126
-211.494	-149.911	-0.293	-0.023
-210.479	378.816	-0.186	-0.375
-209.465	-200.000	-0.033	-0.386
-208.450	-117.305	-0.347	-0.062
-207.436	28.550	-0.220	0.184
-206.421	-200.000	-0.012	-0.184
-205.406	800.000	0.024	0.071
-204.392	87.318	0.124	0.135
-203.377	353.200	0.024	-0.047
-202.363	297.297	-0.142	0.257
-201.348	-151.917	-0.140	0.010
-200.333	-2.818	-0.142	-0.098
-199.319	9.112	-0.359	-0.267
-198.304	-41.273	-0.206	0.105
-197.290	-29.264	-0.164	0.092
-196.275	-200.000	0.270	0.000
-195.260	-121.582	0.358	-0.058
-194.246	-200.000	-0.015	-0.189
-193.231	47.917	-0.210	-0.193
-192.217	-200.000	0.053	0.269
-191.202	14.098	0.130	0.100
-190.187	380.938	-0.089	-0.181
-189.173	536.660	-0.008	-0.019
-188.158	325.249	0.085	0.160
-187.144	104.803	0.173	0.201
-186.129	-200.000	-0.007	-0.163
-185.114	-119.900	0.220	-0.037
-184.100	170.530	-0.172	-0.242
-183.085	-37.676	0.523	0.274
-182.071	246.796	-0.084	-0.140
-181.056	-200.000	0.032	0.163
-180.042	-77.455	0.399	-0.136
-179.027	-200.000	-0.000	-0.061
-178.012	-84.956	-0.113	-0.035
-176.998	403.871	-0.155	-0.322
-175.983	-102.140	0.121	0.029
-174.969	800.000	-0.090	0.358
-173.954	-200.000	0.001	0.085
-172.939	-125.996	-0.135	-0.020
-171.925	-19.828	0.116	-0.070
-170.910	375.508	0.089	0.178
-169.896	-56.659	0.175	0.076
-168.881	220.708	0.100	-0.159
-167.866	12.509	-0.207	-0.157
-166.852	-81.297	0.447	0.145
-165.837	57.301	0.150	0.144
-164.823	640.757	0.099	0.247
-163.808	800.000	0.025	-0.080
-162.793	-200.000	0.036	-0.340
-161.779	-41.110	0.061	-0.031
-160.764	-19.914	0.032	-0.019
-159.750	800.000	-0.071	-0.211
-158.735	-200.000	0.015	-0.068
-157.720	6.252	-0.092	0.067
-156.706	355.780	-0.075	0.148
-155.691	-150.001	0.264	-0.020
-154.677	196.516	0.034	0.052
-153.662	-2.643	-0.075	0.051
-152.647	-111.129	0.111	0.022
-151.633	-123.243	0.323	-0.051
-150.618	31.271	0.176	-0.148
-149.604	-7.858	0.502	-0.333
-148.589	53.536	-0.149	0.141
-147.574	-200.000	0.012	0.577
-146.560	136.995	-0.207	0.266
-145.545	81.606	-0.147	0.156
-144.531	-200.000	0.013	-0.148
-143.516	63.486	0.169	-0.167
-142.502	-90.095	-0.080	-0.023
-141.487	74.410	0.396	0.409
-140.472	35.235	0.331	-0.285
-139.458	-109.885	-0.237	0.049
-138.443	542.829	0.076	-0.179
-137.429	240.930	0.012	-0.019
-136.414	116.938	-0.223	0.269
-135.399	-200.000	-0.050	0.227
-134.385	-163.419	0.330	0.015
-133.370	-95.093	-0.156	0.041
-132.356	800.000	0.048	0.145
-131.341	-69.639	-0.026	0.010
-130.326	79.533	-0.180	-0.190
-129.312	273.005	-0.093	-0.162
-128.297	129.917	-0.076	0.095
-127.283	-200.000	-0.024	0.103
-126.268	-127.764	-0.177	0.025
-125.253	-200.000	0.046	0.318
-124.239	-110.837	0.345	-0.070
-123.224	-17.678	-0.098	0.061
-122.210	-153.354	-0.180	0.012
-121.195	46.590	-0.077	0.071
-120.180	28.733	0.208	-0.173
-119.166	800.000	-0.055	-0.202
-118.151	176.437	0.125	0.178
-117.137	800.000	-0.062	0.239
-116.122	-27.673	-0.139	-0.079
-115.107	68.073	-0.304	0.305
-114.093	676.307	0.082	0.208
-113.078	356.764	-0.101	-0.198
-112.064	-64.484	0.425	-0.170
-111.049	-150.576	0.264	0.020
-110.034	491.796	0.202	0.454
-109.020	-68.459	-0.173	-0.066
-108.005	-110.305	-0.278	0.057
-106.991	146.097	-0.183	0.241
-105.976	15.935	0.207	-0.160
-104.962	-198.087	0.096	0.001
-103.947	-200.000	0.012	-0.446
-102.932	-23.765	-0.281	-0.165
-101.918	-19.533	0.247	0.150
-100.903	392.762	-0.138	0.282
-99.889	59.099	0.184	0.177
-98.874	105.839	-0.088	0.103
-97.859	-35.193	0.124	0.066
-96.845	-200.000	0.079	0.359
-95.830	800.000	0.063	0.195
-94.816	800.000	0.053	0.189
-93.801	179.466	0.202	0.290
-92.786	146.060	0.255	-0.335
-91.772	119.034	0.185	0.225
-90.757	64.813	0.136	0.134
-89.743	269.684	-0.147	0.253
-88.728	-52.481	-0.159	-0.072
-87.713	-157.233	-0.185	0.011
-86.699	164.602	-0.141	0.194
-85.684	-23.361	0.146	-0.086
-84.670	165.955	0.105	-0.146
-83.655	-25.893	-0.104	-0.060
-82.640	286.347	0.270	0.478
-81.626	-108.442	0.126	0.027
-80.611	93.459	0.234	0.259
-79.597	496.854	-0.104	0.234
-78.582	585.153	-0.136	-0.327
-77.567	-200.000	-0.014	-0.251
-76.553	45.641	0.173	-0.156
-75.538	-75.350	0.242	-0.085
-74.524	72.177	-0.257	0.262
-73.509	-93.013	-0.180	0.049
-72.494	-200.000	-0.016	0.294
-71.480	47.124	0.128	-0.117
-70.465	25.674	0.312	0.255
-69.451	208.632	0.063	-0.096
-68.436	-137.840	0.358	-0.039
-67.422	146.577	0.224	0.295
-66.407	-182.141	0.373	-0.007
-65.392	-87.226	0.221	-0.066
-64.378	-64.156	-0.159	0.063
-63.363	77.159	0.242	0.252
-62.349	-200.000	-0.022	0.598
-61.334	308.099	-0.558	-1.020
-60.319	261.669	0.499	0.847
-59.305	642.801	-0.478	-1.193
-58.290	125.161	0.818	1.010
-57.276	800.000	0.466	1.675
-56.261	-200.000	106.878	626.119
-55.246	521.047	1514.547	3479.797
-54.232	175.975	2705.315	3845.811
-53.217	111.825	2164.112	2559.033
-52.203	41.254	1601.031	1417.520
-51.188	32.725	1337.398	1133.076
-50.173	29.697	1295.685	1080.030
-49.159	54.016	1351.108	1272.052
-48.144	54.067	1366.491	1286.787
-47.130	32.747	1320.568	1118.772
-46.115	29.371	1302.984	1084.030
-45.100	29.143	1297.721	1078.269
-44.086	29.244	1295.218	1076.737
-43.071	28.972	1293.348	1073.554
-42.057	29.052	1291.009	1072.036
-41.042	29.157	1289.074	1070.997
-40.027	29.042	1287.802	1069.230
-39.013	29.079	1285.932	1067.848
-37.998	29.184	1283.752	1066.603
-36.984	29.177	1282.272	1065.293
-35.969	29.195	1280.264	1063.685
-34.954	29.176	1278.906	1062.404
-33.940	29.157	1277.462	1061.053
-32.925	29.249	1276.090	1060.402
-31.911	29.198	1274.982	1059.148
-30.896	29.339	1272.960	1058.232
-29.881	29.295	1271.959	1057.109
-28.867	29.421	1269.769	1055.967
-27.852	29.232	1269.505	1054.626
-26.838	29.311	1267.421	1053.304
-25.823	29.293	1266.074	1052.039
-24.809	29.271	1264.986	1050.966
-23.794	29.239	1263.792	1049.751
-22.779	29.221	1262.311	1048.374
-21.765	29.335	1260.915	1047.821
-20.750	29.310	1259.809	1046.721
-19.736	29.148	1258.792	1044.917
-18.721	29.115	1257.662	1043.746
-17.706	29.260	1256.115	1043.244
-16.692	29.092	1254.848	1041.202
-15.677	29.189	1254.015	1041.018
-14.663	29.099	1253.084	1039.695
-13.648	29.028	1252.294	1038.596
-12.633	29.112	1250.908	1037.877
-11.619	29.083	1250.390	1037.247
-10.604	29.100	1249.751	1036.768
-9.590	29.140	1248.516	1035.928
-8.575	29.148	1247.186	1034.831
-7.560	29.064	1246.478	1033.728
-6.546	29.172	1245.589	1033.555
-5.531	29.162	1245.147	1033.094
-4.517	29.078	1244.463	1032.011
-3.502	29.144	1242.960	1031.094
-2.487	29.073	1242.354	1030.156
-1.473	29.095	1238.205	1026.797
-0.458	27.715	1223.507	1006.958
0.556	22.125	1206.723	970.685
1.571	18.827	1212.294	956.742
2.586	18.063	1226.791	963.795
3.600	17.981	1216.524	955.185
4.615	13.115	1145.244	873.458
5.629	4.215	1070.363	772.113
6.644	-0.016	1050.950	737.323
7.659	-0.334	1048.512	733.991
8.673	-0.407	1047.146	732.614
9.688	-0.472	1046.102	731.503
10.702	0.048	1044.153	732.606
11.717	5.709	1052.312	765.998
12.731	14.869	1065.431	820.630
13.746	19.408	1071.025	847.213
14.761	20.355	1071.632	852.266
15.775	20.342	1071.461	851.991
16.790	20.222	1070.284	850.394
17.804	19.994	1070.003	848.977
18.819	20.283	1069.520	849.935
19.834	20.384	1069.023	849.959
20.848	20.265	1068.621	848.982
21.863	20.255	1067.894	848.277
22.877	20.133	1067.576	847.357
23.892	20.307	1066.522	847.295
24.907	20.248	1065.794	846.353
25.921	20.335	1064.441	845.630
26.936	20.214	1063.328	844.079
27.950	20.310	1061.500	843.021
28.965	20.048	1060.041	840.516
29.980	20.212	1058.082	839.684
30.994	20.262	1057.577	839.449
32.009	20.261	1056.451	838.477
33.023	19.896	1054.920	835.427
34.038	20.193	1053.840	835.930
35.053	20.239	1054.178	836.342
36.067	20.348	1052.572	835.520
37.082	20.505	1051.578	835.412
38.096	20.510	1051.442	835.255
39.111	20.491	1050.917	834.672
40.126	20.349	1049.205	832.556
41.140	20.064	1046.878	829.272
42.155	19.835	1046.013	827.423
43.169	19.887	1045.123	826.891
44.184	19.852	1044.424	826.096
45.199	19.888	1042.498	824.675
46.213	20.087	1041.573	824.816
47.228	19.980	1040.956	823.743
48.242	19.931	1040.507	823.085
49.257	20.172	1039.273	823.178
50.271	20.283	1038.214	822.793
51.286	20.413	1037.313	822.623
52.301	20.398	1036.322	821.692
53.315	20.245	1035.885	820.552
54.330	20.362	1034.344	819.809
55.344	20.332	1034.050	819.363
56.359	20.175	1032.904	817.643
57.374	20.098	1032.004	816.492
58.388	20.058	1031.688	815.985
59.403	20.032	1030.364	814.744
60.417	19.812	1029.381	812.860
61.432	20.087	1028.922	813.717
62.447	20.158	1027.924	813.189
63.461	20.113	1027.751	812.768
64.476	20.119	1026.045	811.374
65.490	19.969	1025.528	810.191
66.505	19.937	1024.866	809.450
67.520	20.062	1023.995	809.271
68.534	19.899	1022.802	807.497
69.549	19.512	1022.071	805.043
70.563	19.695	1020.848	804.863
71.578	19.666	1020.103	804.070
72.593	19.553	1019.247	802.798
73.607	19.507	1019.259	802.521
74.622	19.916	1018.598	803.830
75.636	19.961	1017.624	803.199
76.651	19.743	1016.714	801.400
77.666	19.771	1015.859	800.783
78.680	19.901	1014.942	800.594
79.695	19.991	1014.465	800.561
80.709	19.977	1013.991	800.050
81.724	19.815	1013.193	798.603
82.739	20.073	1012.247	798.979
83.753	20.266	1012.070	799.655
84.768	20.630	1010.575	800.079
85.782	20.614	1009.535	799.110
86.797	20.431	1008.717	797.553
87.812	20.416	1007.585	796.521
88.826	20.577	1006.510	796.336
89.841	20.540	1005.557	795.344
90.855	20.573	1005.084	795.048
91.870	20.504	1004.038	793.836
92.884	20.369	1002.642	792.045
93.899	20.201	1002.244	790.893
94.914	20.477	1001.285	791.328
95.928	20.319	1000.302	789.762
96.943	20.147	999.242	788.073
97.957	20.011	997.634	786.117
98.972	19.787	996.372	784.039
99.987	20.089	995.867	784.940
101.001	20.238	995.423	785.194
102.016	20.212	994.673	784.417
103.030	20.162	993.436	783.145
104.045	19.929	992.615	781.377
105.060	19.968	990.832	780.080
106.074	20.135	990.379	780.406
107.089	20.412	990.007	781.292
108.103	20.211	989.375	779.820
109.118	20.082	987.817	777.942
110.133	20.200	986.938	777.710
111.147	19.911	985.452	775.176
112.162	19.722	984.626	773.612
113.176	19.978	983.764	774.011
114.191	19.842	983.039	772.763
115.206	19.635	981.616	770.656
116.220	19.573	980.883	769.735
117.235	19.764	979.989	769.813
118.249	19.659	979.485	768.885
119.264	19.664	978.353	767.951
120.279	19.783	977.049	767.386
121.293	19.883	976.634	767.438
122.308	19.856	975.829	766.617
123.322	19.765	974.737	765.287
124.337	19.649	973.232	763.528
125.352	19.115	971.785	759.966
126.366	19.051	970.697	758.764
127.381	19.864	970.789	762.353
128.395	20.230	970.358	763.559
129.410	20.246	969.165	762.625
130.424	20.319	967.883	761.869
131.439	20.191	967.122	760.639
132.454	20.172	966.186	759.752
133.468	20.071	965.722	758.879
134.483	20.260	964.812	758.924
135.497	20.400	964.024	758.846
136.512	20.531	962.813	758.398
137.527	20.403	962.406	757.453
138.541	20.415	961.831	756.986
139.556	20.487	960.349	756.064
140.570	20.392	959.625	755.016
141.585	20.486	958.559	754.520
142.600	20.429	957.347	753.251
143.614	20.550	957.137	753.544
144.629	20.658	956.283	753.271
145.643	20.546	954.844	751.590
146.658	20.503	953.523	750.294
147.673	20.395	952.329	748.827
148.687	20.446	951.478	748.310
149.702	20.347	950.179	746.794
150.716	20.253	949.856	746.069
151.731	20.492	948.803	746.206
152.746	20.552	948.199	745.919
153.760	20.596	947.967	745.859
154.775	20.722	947.081	745.636
155.789	20.702	946.027	744.656
156.804	20.601	945.210	743.516
157.819	20.648	944.387	743.004
158.833	20.791	943.645	742.964
159.848	20.840	942.754	742.407
160.862	20.683	941.387	740.597
161.877	20.605	940.731	739.682
162.892	20.743	939.970	739.607
163.906	20.706	938.682	738.371
164.921	20.702	937.707	737.518
165.935	20.683	936.974	736.798
166.950	20.630	935.962	735.711
167.964	20.634	935.415	735.232
168.979	20.520	934.240	733.763
169.994	20.510	933.298	732.917
171.008	20.753	932.766	733.460
172.023	20.637	931.838	732.174
173.037	20.427	931.094	730.644
174.052	20.257	930.072	729.061
175.067	20.305	929.427	728.695
176.081	20.482	929.117	729.129
177.096	20.555	928.191	728.644
178.110	20.143	926.856	725.807
179.125	20.046	926.248	724.862
180.140	20.047	926.185	724.750
181.154	20.179	925.611	724.790
182.169	20.446	925.655	725.876
183.183	20.608	924.978	725.957
184.198	20.574	924.126	725.082
185.213	20.509	923.213	724.032
186.227	20.670	922.748	724.274
187.242	20.547	922.153	723.232
188.256	20.670	921.271	722.987
189.271	20.769	920.576	722.787
190.286	20.391	919.370	720.209
191.300	19.854	918.388	717.152
192.315	19.199	916.490	712.895
193.329	19.286	915.886	712.721
194.344	20.081	916.218	716.202
195.359	20.579	916.538	718.448
196.373	20.551	915.506	717.460
197.388	20.636	914.967	717.325
198.402	20.550	914.213	716.316
199.417	20.368	914.104	715.419
200.432	20.164	912.765	713.469
201.446	20.061	912.272	712.596
202.461	20.028	911.109	711.488
203.475	19.303	909.396	707.115
204.490	18.607	908.143	703.227
205.504	19.579	908.643	707.536
206.519	20.151	908.352	709.590
207.534	20.211	908.384	709.795
208.548	20.706	907.685	711.209
209.563	20.227	906.887	708.567
210.577	20.441	906.318	708.930
211.592	20.761	906.004	709.930
212.607	20.669	905.094	708.777
213.621	20.706	904.550	708.439
214.636	20.620	903.706	707.366
215.650	20.709	902.655	706.841
216.665	20.694	902.209	706.371
217.680	20.585	901.374	705.213
218.694	20.327	899.676	702.778
219.709	20.125	899.377	701.663
220.723	20.289	899.050	702.010
221.738	20.574	898.347	702.551
222.753	20.481	897.524	701.470
223.767	20.462	897.338	701.184
224.782	20.827	896.859	702.220
225.796	20.831	896.252	701.699
226.811	20.130	894.638	697.553
227.826	19.663	893.771	694.938
228.840	19.763	893.138	694.787
229.855	19.794	892.447	694.310
230.869	19.542	891.006	692.119
231.884	19.986	890.861	693.724
232.899	20.602	891.199	696.395
233.913	20.558	890.284	695.443
234.928	20.592	889.781	695.123
235.942	20.465	889.212	694.110
236.957	20.175	888.413	692.266
237.972	20.102	888.184	691.735
238.986	20.325	887.011	691.650
240.001	20.338	886.839	691.505
241.015	20.405	886.093	691.129
242.030	20.393	885.613	690.645
243.045	20.535	885.392	690.977
244.059	20.736	884.726	691.196
245.074	20.544	883.411	689.346
246.088	20.239	882.317	687.222
247.103	20.551	882.309	688.393
248.117	20.936	882.468	689.977
249.132	21.140	881.771	690.181
250.147	21.198	881.274	689.959
251.161	21.340	880.936	690.194
252.176	21.510	879.520	689.695
253.190	21.323	879.760	689.084
254.205	21.410	879.170	688.904
255.220	21.517	878.610	688.824
256.234	21.380	877.919	687.683
257.249	21.230	876.959	686.281
258.263	21.329	875.860	685.746
259.278	21.297	875.582	685.347
260.293	21.348	875.177	685.167
261.307	21.334	874.258	684.330
262.322	21.086	873.120	682.412
263.336	20.326	871.003	677.730
264.351	19.280	869.208	672.194
265.366	19.435	868.992	672.572
266.380	20.662	869.599	677.768
267.395	21.004	869.504	678.963
268.409	21.024	868.127	677.907
269.424	21.074	867.885	677.851
270.439	21.124	867.574	677.742
271.453	21.191	866.683	677.246
272.468	21.474	866.595	678.215
273.482	21.456	866.419	677.949
274.497	20.991	864.833	674.850
275.512	20.675	863.755	672.728
276.526	21.180	863.443	674.376
277.541	21.250	863.551	674.671
278.555	20.940	862.371	672.491
279.570	20.894	861.772	671.790
280.585	21.017	861.439	671.944
281.599	20.935	860.554	670.879
282.614	20.423	859.188	667.784
283.628	20.543	858.754	667.851
284.643	20.772	858.443	668.430
285.657	20.602	856.860	666.485
286.672	20.200	856.369	664.506
287.687	20.805	856.332	666.733
288.701	20.739	855.879	666.068
289.716	20.495	854.600	664.084
290.730	20.542	854.478	664.108
291.745	20.256	853.223	661.983
292.760	20.545	853.131	662.956
293.774	21.459	854.037	667.088
294.789	21.824	853.265	667.818
295.803	21.715	852.702	666.903
296.818	21.794	852.098	666.673
297.833	21.353	850.671	663.822
298.847	21.243	850.172	662.957
299.862	21.521	849.983	663.807
300.876	21.743	849.723	664.387
301.891	21.567	849.024	663.114
302.906	21.171	847.604	660.447
303.920	21.484	847.168	661.233
304.935	21.668	847.193	661.889
305.949	21.565	846.345	660.779
306.964	21.348	845.812	659.484
307.979	21.480	845.634	659.787
308.993	21.911	845.008	660.865
310.008	21.827	844.430	660.037
311.022	21.523	843.594	658.183
312.037	21.434	843.039	657.357
313.052	21.271	841.976	655.856
314.066	20.472	840.499	651.652
315.081	20.175	840.086	650.163
316.095	20.979	840.691	653.588
317.110	21.510	840.114	655.071
318.125	20.594	838.594	650.404
319.139	19.749	837.108	646.035
320.154	19.519	837.079	645.096
321.168	20.500	836.993	648.637
322.183	21.409	836.889	651.888
323.197	21.421	836.472	651.551
324.212	21.564	836.457	652.017
325.227	21.407	836.340	651.284
326.241	21.442	835.438	650.652
327.256	21.366	834.363	649.473
328.270	21.320	833.561	648.624
329.285	21.125	833.051	647.445
330.300	20.967	832.109	646.071
331.314	21.222	832.146	646.986
332.329	21.542	831.665	647.738
333.343	21.640	831.326	647.782
334.358	21.641	831.187	647.620
335.373	21.508	831.127	647.023
336.387	21.856	830.851	648.036
337.402	21.942	830.988	648.403
338.416	21.884	830.192	647.512
339.431	21.905	829.889	647.296
340.446	22.103	829.460	647.633
341.460	22.115	828.344	646.749
342.475	21.915	828.222	645.861
343.489	22.105	827.661	646.065
344.504	22.252	827.707	646.584
345.519	22.442	827.202	646.832
346.533	22.413	826.905	646.434
347.548	22.365	826.265	645.701
348.562	22.403	825.492	645.177
349.577	22.222	825.107	644.159
350.592	22.424	824.422	644.305
351.606	22.357	823.758	643.485
352.621	22.139	822.845	641.917
353.635	22.253	821.642	641.338
354.650	21.420	820.456	637.323
355.665	20.641	819.120	633.391
356.679	21.115	818.644	634.691
357.694	21.402	818.361	635.459
358.708	21.633	817.616	635.665
359.723	21.715	817.802	636.050
360.738	21.990	817.387	636.666
361.752	22.141	817.121	636.952
362.767	22.449	816.709	637.691
363.781	22.618	816.299	637.927
364.796	22.580	816.188	637.643
365.810	22.718	815.433	637.497
366.825	22.718	815.193	637.252
367.840	22.290	814.457	635.075
368.854	22.052	813.189	633.174
369.869	22.091	813.057	633.153
370.883	22.103	812.676	632.846
371.898	22.130	812.025	632.379
372.913	22.044	812.147	632.109
373.927	22.124	811.453	631.801
374.942	22.348	810.878	632.103
375.956	22.217	810.729	631.460
376.971	22.466	810.633	632.222
377.986	22.700	809.737	632.307
379.000	22.608	809.119	631.440
380.015	22.349	808.937	630.314
381.029	22.516	808.715	630.681
382.044	22.598	807.866	630.259
383.059	22.660	807.239	629.935
384.073	22.930	806.511	630.274
385.088	22.771	805.466	628.837
386.102	22.529	805.078	627.614
387.117	22.470	804.858	627.177
388.132	22.262	803.341	625.200
389.146	21.700	802.685	622.637
390.161	22.113	802.595	623.981
391.175	22.474	802.412	625.065
392.190	22.059	801.155	622.560
393.205	20.673	799.564	616.362
394.219	19.372	798.006	610.501
395.234	19.493	797.882	610.782
396.248	21.003	799.059	616.978
397.263	22.432	799.543	622.349
398.278	22.327	799.289	621.727
399.292	22.108	798.628	620.385
400.307	22.149	797.939	619.939
401.321	22.151	798.147	620.051
402.336	22.614	797.669	621.258
403.350	22.776	797.788	621.865
404.365	23.267	797.046	622.963
405.380	23.334	796.932	623.052
406.394	23.460	796.259	622.916
407.409	23.433	795.431	622.118
408.423	23.311	795.607	621.769
409.438	23.363	794.961	621.392
410.453	23.482	794.607	621.478
411.467	23.312	794.144	620.467
412.482	23.356	793.648	620.177
413.496	23.471	793.471	620.387
414.511	23.409	793.402	620.062
415.526	23.452	792.424	619.393
416.540	23.133	792.112	617.980
417.555	22.913	791.499	616.677
418.569	23.088	791.069	616.899
419.584	22.892	790.159	615.454
420.599	22.835	789.944	615.030
421.613	158.713	1363.927	1799.434
422.628	137.503	1447.520	1799.524
