DTS Sentinel unit serial number:	SN413079Multiplexer serial number:	ORYXHardware model number:	OX4-SRSoftware version number:	ORYX F/W v4.00 Oryx Data Collector v3.7.2.0data status	okinstallation	princeton_trtdifferential loss correction	single-endedforward channel	channel 1reverse channel	N/Adate	2019/09/10time	19:12:11forward acquisition time	60.00reverse acquisition time	0.00gamma	496.2192k internal	0.2317k external	0.2317temperature offset calibration	0.9927default loss term (dB/km)	0.3790temperature slope calibration	1.0000multiplexer offset coefficient	1.0000multiplexer slope coefficient	1.0000fibre end	0.00T internal ref (°C)	34.11T ext. ref 1 (°C)	-0.31T ext. ref 2 (°C)	26.28length (m)	temperature (°C)	Stokes	anti-Stokes-747.200	800.000	0.024	0.096
-746.185	782.290	0.125	-0.346
-745.171	53.897	0.110	0.107
-744.156	-149.573	-0.380	-0.030
-743.142	-200.000	-0.027	-0.128
-742.127	-91.810	0.320	0.092
-741.112	800.000	-0.060	0.192
-740.098	800.000	-0.025	0.073
-739.083	-167.066	0.176	-0.007
-738.069	213.137	0.140	0.223
-737.054	-178.549	-0.266	-0.006
-736.039	-87.167	0.151	-0.047
-735.025	-165.072	0.523	0.024
-734.010	-34.717	0.073	0.040
-732.996	-122.235	0.322	0.053
-731.981	-30.006	-0.188	-0.108
-730.966	158.407	-0.191	-0.269
-729.952	-200.000	0.026	-0.127
-728.937	63.086	-0.218	0.221
-727.923	-39.765	0.114	-0.060
-726.908	308.293	-0.100	0.188
-725.894	-68.468	-0.266	-0.104
-724.879	-68.661	0.094	-0.037
-723.864	800.000	0.037	-0.125
-722.850	-200.000	0.011	0.060
-721.835	-200.000	0.017	0.111
-720.821	-74.549	0.442	-0.161
-719.806	-200.000	0.038	0.374
-718.791	-200.000	-0.018	-0.098
-717.777	-125.794	0.360	-0.055
-716.762	208.514	0.011	-0.018
-715.748	-91.221	-0.275	0.080
-714.733	6.151	-0.179	-0.134
-713.718	647.515	-0.041	-0.105
-712.704	-200.000	-0.056	0.351
-711.689	-200.000	-0.003	0.135
-710.675	-145.859	-0.294	-0.026
-709.660	-200.000	-0.012	0.060
-708.645	-83.399	0.272	-0.088
-707.631	-135.436	0.257	-0.031
-706.616	-52.421	-0.037	-0.017
-705.602	-104.460	0.501	-0.117
-704.587	-98.847	-0.293	0.075
-703.572	104.856	0.035	-0.042
-702.558	34.324	-0.299	-0.264
-701.543	631.119	-0.131	-0.334
-700.529	-11.434	-0.224	-0.149
-699.514	64.598	0.141	0.143
-698.499	-69.447	-0.062	-0.024
-697.485	-104.050	-0.454	0.107
-696.470	-25.453	0.234	-0.140
-695.456	-107.256	0.488	-0.109
-694.441	-175.141	0.150	0.004
-693.426	-7.025	-0.171	-0.117
-692.412	-200.000	-0.024	0.138
-691.397	-200.000	0.009	0.315
-690.383	-70.670	0.123	-0.047
-689.368	-19.454	-0.189	0.118
-688.354	426.835	0.120	0.262
-687.339	-143.472	-0.466	0.045
-686.324	408.602	-0.113	-0.242
-685.310	60.449	0.127	0.127
-684.295	-22.160	-0.068	-0.042
-683.281	-78.906	-0.105	0.036
-682.266	-77.511	-0.299	0.105
-681.251	-108.539	-0.247	0.054
-680.237	-76.132	0.407	0.145
-679.222	-200.000	-0.007	0.347
-678.208	-66.525	0.374	-0.150
-677.193	204.375	-0.162	-0.254
-676.178	-33.853	-0.429	0.239
-675.164	49.034	0.084	-0.080
-674.149	-156.121	0.240	-0.015
-673.135	109.369	-0.128	0.154
-672.120	13.736	-0.173	0.135
-671.105	-200.000	0.018	0.142
-670.091	-3.416	0.192	-0.135
-669.076	800.000	-0.058	-0.253
-668.062	1.429	0.020	-0.014
-667.047	677.258	-0.129	-0.339
-666.032	24.616	-0.262	-0.219
-665.018	16.213	-0.046	0.037
-664.003	1.805	-0.083	0.060
-662.989	500.797	0.032	0.074
-661.974	800.000	-0.074	-0.212
-660.959	-91.503	0.245	-0.071
-659.945	62.048	-0.064	0.064
-658.930	-148.593	0.281	-0.023
-657.916	-200.000	-0.043	0.230
-656.901	317.348	-0.106	0.203
-655.886	174.183	-0.046	-0.067
-654.872	261.427	0.127	-0.222
-653.857	-200.000	0.016	0.262
-652.843	-100.643	-0.108	0.027
-651.828	-48.898	-0.249	0.120
-650.814	14.148	0.301	0.236
-649.799	800.000	-0.042	0.150
-648.784	23.341	0.371	0.307
-647.770	-200.000	-0.018	0.080
-646.755	171.287	-0.118	0.171
-645.741	723.545	0.079	0.212
-644.726	369.271	0.135	-0.275
-643.711	-122.099	0.069	-0.011
-642.697	-200.000	-0.030	0.279
-641.682	680.641	0.071	-0.187
-640.668	-38.678	0.227	0.121
-639.653	382.938	-0.095	0.197
-638.638	179.133	0.120	0.176
-637.624	17.215	-0.189	0.151
-636.609	56.374	-0.073	-0.072
-635.595	-143.068	-0.059	-0.006
-634.580	339.866	0.190	0.374
-633.565	-200.000	0.089	0.396
-632.551	211.518	0.106	-0.168
-631.536	-200.000	0.071	-0.365
-630.522	100.134	0.095	-0.111
-629.507	-40.730	0.209	-0.109
-628.492	-0.652	-0.164	0.117
-627.478	54.127	0.321	0.311
-626.463	-177.073	-0.279	-0.007
-625.449	-98.359	0.144	-0.037
-624.434	-120.706	-0.211	-0.036
-623.419	57.043	0.203	0.200
-622.405	-59.760	0.146	0.063
-621.390	800.000	-0.080	0.283
-620.376	-66.047	0.141	-0.057
-619.361	13.739	-0.118	-0.093
-618.346	-69.727	0.331	0.127
-617.332	-51.280	-0.079	0.037
-616.317	-52.784	0.234	0.109
-615.303	-130.609	0.274	0.037
-614.288	-143.114	-0.415	0.040
-613.273	-144.650	0.146	0.014
-612.259	670.485	0.084	0.220
-611.244	-200.000	-0.006	-0.039
-610.230	210.494	0.126	-0.200
-609.215	407.762	0.083	0.178
-608.201	511.128	0.025	0.058
-607.186	76.575	-0.036	-0.038
-606.171	800.000	-0.051	0.198
-605.157	-200.000	0.008	-0.245
-604.142	-126.075	-0.105	0.016
-603.128	45.842	0.138	0.129
-602.113	-18.420	0.113	0.071
-601.098	-139.729	-0.279	0.030
-600.084	-157.604	-0.406	-0.024
-599.069	800.000	-0.077	-0.225
-598.055	-125.273	-0.458	0.071
-597.040	89.882	0.202	0.227
-596.025	-129.781	-0.224	-0.031
-595.011	-46.228	-0.050	0.025
-593.996	19.400	0.221	0.178
-592.982	800.000	0.059	-0.201
-591.967	800.000	0.055	0.218
-590.952	13.302	-0.317	0.247
-589.938	194.306	-0.150	-0.229
-588.923	58.539	-0.101	0.100
-587.909	78.828	-0.163	-0.176
-586.894	-200.000	0.061	-0.279
-585.879	-20.196	0.039	0.024
-584.865	243.618	-0.065	-0.110
-583.850	499.591	0.049	0.114
-582.836	-121.864	0.282	0.047
-581.821	-200.000	0.073	-0.414
-580.806	-34.149	0.221	0.122
-579.792	252.091	-0.052	-0.090
-578.777	-159.396	0.237	-0.013
-577.763	-161.019	-0.300	-0.016
-576.748	57.948	-0.036	-0.036
-575.733	301.241	-0.061	0.112
-574.719	-152.354	-0.143	-0.010
-573.704	-98.364	-0.198	0.051
-572.690	639.311	0.099	-0.252
-571.675	-97.444	0.063	0.017
-570.661	477.411	-0.044	0.101
-569.646	800.000	-0.090	-0.282
-568.631	6.152	0.217	-0.162
-567.617	26.342	-0.204	-0.172
-566.602	172.981	-0.204	0.295
-565.588	95.793	0.104	-0.120
-564.573	157.454	0.033	-0.046
-563.558	89.004	-0.181	-0.203
-562.544	-130.892	-0.124	0.017
-561.529	-21.304	0.317	-0.195
-560.515	328.240	-0.057	0.110
-559.500	-52.082	-0.205	0.096
-558.485	-200.000	0.026	0.227
-557.471	-183.465	-0.039	0.001
-556.456	800.000	-0.054	0.210
-555.442	47.243	-0.263	0.246
-554.427	-10.122	-0.272	-0.182
-553.412	800.000	0.035	0.105
-552.398	131.362	-0.116	-0.150
-551.383	-42.775	-0.224	-0.114
-550.369	-88.792	0.045	-0.013
-549.354	-40.256	0.209	-0.109
-548.339	280.760	-0.108	0.193
-547.325	-15.933	0.141	0.090
-546.310	-200.000	-0.042	0.370
-545.296	-59.601	-0.008	-0.003
-544.281	108.611	-0.141	-0.169
-543.266	-137.382	0.186	0.021
-542.252	-24.763	-0.277	-0.165
-541.237	-200.000	-0.090	0.433
-540.223	206.778	0.102	0.160
-539.208	-57.742	-0.168	-0.074
-538.193	800.000	-0.022	-0.071
-537.179	-200.000	-0.033	0.220
-536.164	800.000	-0.053	-0.180
-535.150	-17.532	0.214	0.135
-534.135	-164.607	0.430	-0.020
-533.121	-165.690	0.210	-0.009
-532.106	162.365	-0.125	0.176
-531.091	800.000	-0.066	-0.216
-530.077	110.321	-0.142	-0.171
-529.062	39.060	0.199	0.178
-528.048	8.505	0.108	0.082
-527.033	-97.386	0.197	-0.051
-526.018	-138.556	-0.218	-0.024
-525.004	42.618	-0.192	-0.176
-523.989	495.464	0.146	0.338
-522.975	-135.447	-0.270	0.032
-521.960	-200.000	0.062	0.319
-520.945	133.020	0.222	-0.287
-519.931	800.000	-0.087	0.255
-518.916	518.550	-0.057	0.135
-517.902	3.866	-0.165	0.121
-516.887	-200.000	-0.013	0.301
-515.872	800.000	-0.029	0.082
-514.858	800.000	-0.092	-0.293
-513.843	-200.000	0.003	-0.051
-512.829	-200.000	-0.002	-0.025
-511.814	117.926	0.112	-0.138
-510.799	751.675	-0.062	0.168
-509.785	-200.000	-0.003	0.303
-508.770	800.000	-0.037	-0.110
-507.756	800.000	0.074	-0.304
-506.741	104.615	0.203	-0.240
-505.726	-200.000	0.005	-0.155
-504.712	-200.000	-0.016	-0.449
-503.697	321.896	-0.122	0.233
-502.683	-29.059	0.141	0.081
-501.668	126.898	0.150	0.191
-500.653	800.000	0.112	-0.384
-499.639	800.000	-0.079	-0.275
-498.624	800.000	-0.051	0.193
-497.610	-162.971	-0.214	0.010
-496.595	405.698	0.048	-0.101
-495.581	6.629	0.120	0.089
-494.566	-18.238	-0.072	0.045
-493.551	188.373	-0.077	-0.116
-492.537	56.860	0.027	-0.026
-491.522	265.803	-0.080	-0.140
-490.508	-124.354	-0.079	0.012
-489.493	-92.099	-0.436	-0.124
-488.478	-19.869	0.145	-0.090
-487.464	-118.411	-0.215	0.038
-486.449	279.745	-0.038	-0.067
-485.435	38.035	0.167	0.149
-484.420	-146.594	0.172	0.015
-483.405	-54.961	-0.329	0.149
-482.391	-200.000	0.029	0.327
-481.376	-130.439	-0.281	0.038
-480.362	85.122	0.180	-0.198
-479.347	-95.669	0.148	-0.040
-478.332	-200.000	0.001	0.094
-477.318	202.734	0.209	0.324
-476.303	-46.238	0.040	-0.020
-475.289	-200.000	-0.011	0.266
-474.274	774.481	0.121	-0.330
-473.259	3.907	-0.191	-0.140
-472.245	-200.000	0.005	-0.112
-471.230	124.841	0.151	-0.191
-470.216	800.000	0.055	-0.187
-469.201	-200.000	0.067	-0.451
-468.186	12.455	0.341	-0.263
-467.172	132.183	-0.136	-0.175
-466.157	-177.407	-0.227	0.006
-465.143	185.887	0.152	-0.226
-464.128	-10.817	0.112	-0.074
-463.113	-21.177	-0.200	-0.122
-462.099	133.077	0.279	0.360
-461.084	81.726	0.220	0.238
-460.070	-167.004	0.219	-0.009
-459.055	13.818	-0.066	-0.052
-458.040	-192.328	0.085	-0.001
-457.026	162.370	0.067	0.094
-456.011	-200.000	-0.017	0.194
-454.997	-200.000	0.014	0.266
-453.982	-102.752	0.459	0.109
-452.968	-119.234	0.128	-0.022
-451.953	-58.289	0.196	-0.085
-450.938	-200.000	-0.040	0.387
-449.924	67.311	-0.044	0.045
-448.909	-97.529	0.228	-0.059
-447.895	800.000	0.117	0.423
-446.880	-82.036	0.333	-0.109
-445.865	-200.000	0.030	0.131
-444.851	800.000	-0.023	0.069
-443.836	-200.000	0.005	-0.114
-442.822	-108.781	0.230	-0.049
-441.807	-60.828	0.150	-0.064
-440.792	-200.000	0.004	-0.111
-439.778	-52.197	0.189	-0.088
-438.763	174.176	0.205	0.297
-437.749	-9.154	-0.277	0.185
-436.734	145.939	-0.170	0.227
-435.719	61.993	-0.193	-0.193
-434.705	-200.000	0.012	-0.135
-433.690	-44.838	-0.243	-0.121
-432.676	-125.512	0.104	0.016
-431.661	-67.521	0.140	-0.055
-430.646	-26.947	-0.381	-0.222
-429.632	424.006	0.100	-0.215
-428.617	-26.940	-0.118	0.069
-427.603	800.000	0.125	-0.433
-426.588	-200.000	0.035	-0.162
-425.573	-89.236	-0.271	-0.080
-424.559	-26.800	-0.315	0.184
-423.544	-158.368	-0.332	0.019
-422.530	-64.455	-0.296	-0.120
-421.515	438.465	-0.021	-0.046
-420.500	-200.000	0.018	0.082
-419.486	-166.059	-0.176	-0.007
-418.471	-161.206	-0.198	0.010
-417.457	800.000	-0.059	0.182
-416.442	-137.340	-0.066	0.007
-415.428	-62.017	-0.108	-0.045
-414.413	-106.493	-0.165	0.037
-413.398	-200.000	0.004	0.268
-412.384	70.590	-0.266	-0.275
-411.369	-101.048	0.059	-0.014
-410.355	651.451	0.069	0.176
-409.340	-60.821	-0.185	0.078
-408.325	71.093	-0.198	0.205
-407.311	160.584	0.072	0.101
-406.296	800.000	0.092	0.258
-405.282	-132.806	-0.171	0.022
-404.267	26.910	0.103	0.086
-403.252	-90.515	-0.173	0.050
-402.238	800.000	-0.138	-0.380
-401.223	73.910	-0.163	0.171
-400.209	-110.899	-0.212	-0.044
-399.194	-28.462	-0.141	0.081
-398.179	-135.050	0.217	-0.026
-397.165	127.693	0.307	-0.390
-396.150	-1.320	-0.128	-0.090
-395.136	13.374	0.188	-0.145
-394.121	-129.451	-0.197	-0.027
-393.106	156.229	0.163	-0.225
-392.092	39.476	-0.059	-0.053
-391.077	9.746	0.231	0.175
-390.063	-158.462	0.226	-0.013
-389.048	-135.920	-0.388	-0.046
-388.033	-43.727	0.130	-0.065
-387.019	-200.000	0.061	0.293
-386.004	78.499	-0.151	0.161
-384.990	-55.818	0.347	-0.155
-383.975	583.086	-0.118	-0.289
-382.960	-200.000	-0.068	0.426
-381.946	15.630	-0.066	0.052
-380.931	427.832	0.117	0.251
-379.917	-41.131	0.084	-0.044
-378.902	3.454	0.398	-0.289
-377.888	-200.000	-0.005	-0.030
-376.873	-200.000	0.043	-0.286
-375.858	-45.712	0.322	-0.159
-374.844	-159.796	-0.196	0.011
-373.829	-199.161	0.134	-0.001
-372.815	285.893	-0.120	-0.216
-371.800	-200.000	0.006	0.405
-370.785	54.070	0.082	-0.078
-369.771	123.290	-0.031	-0.039
-368.756	411.523	-0.110	-0.232
-367.742	800.000	-0.043	-0.122
-366.727	-39.781	-0.305	-0.159
-365.712	-47.021	-0.091	-0.044
-364.698	-57.858	0.190	-0.083
-363.683	487.491	0.108	-0.246
-362.669	123.954	0.197	-0.247
-361.654	452.674	0.087	-0.193
-360.639	-200.000	0.054	-0.277
-359.625	-32.259	0.164	0.092
-358.610	114.962	-0.181	-0.220
-357.596	-7.619	0.083	-0.056
-356.581	29.981	0.174	-0.148
-355.566	-48.513	0.114	0.055
-354.552	-90.589	-0.303	-0.087
-353.537	-120.115	0.402	0.069
-352.523	-157.746	0.141	-0.008
-351.508	331.974	-0.223	-0.429
-350.493	-156.651	-0.047	0.003
-349.479	254.440	0.164	-0.279
-348.464	800.000	0.054	-0.167
-347.450	-160.616	-0.388	-0.021
-346.435	-70.547	0.153	0.058
-345.420	-200.000	-0.018	-0.296
-344.406	449.358	0.027	0.058
-343.391	46.618	-0.190	-0.176
-342.377	-82.352	-0.131	0.043
-341.362	145.790	-0.105	-0.140
-340.348	261.192	-0.123	-0.212
-339.333	108.874	-0.167	0.199
-338.318	-97.643	0.424	-0.110
-337.304	-14.531	0.248	-0.159
-336.289	64.222	-0.056	-0.056
-335.275	-200.000	0.008	-0.077
-334.260	6.717	0.333	-0.247
-333.245	-77.715	0.208	0.072
-332.231	-43.969	-0.048	-0.024
-331.216	153.393	0.091	-0.124
-330.202	-18.441	-0.275	-0.171
-329.187	-3.503	-0.163	0.113
-328.172	-28.514	0.180	0.103
-327.158	261.348	-0.192	0.331
-326.143	247.474	-0.183	0.309
-325.129	800.000	-0.040	0.128
-324.114	800.000	-0.104	0.333
-323.099	-127.049	0.368	0.054
-322.085	-200.000	0.021	0.483
-321.070	-200.000	0.024	-0.223
-320.056	125.437	-0.135	0.169
-319.041	214.623	-0.056	0.089
-318.026	363.817	-0.083	0.167
-317.012	-124.108	0.233	0.036
-315.997	228.979	-0.126	-0.205
-314.983	269.647	-0.092	-0.161
-313.968	800.000	0.067	-0.224
-312.953	-168.247	-0.123	-0.005
-311.939	3.527	0.284	-0.206
-310.924	-126.786	0.336	0.049
-309.910	-200.000	0.022	-0.097
-308.895	398.732	-0.122	-0.254
-307.880	-14.224	-0.252	0.162
-306.866	-53.537	0.039	-0.018
-305.851	-200.000	0.031	-0.240
-304.837	-200.000	0.015	-0.234
-303.822	-127.516	0.019	0.003
-302.807	-17.028	-0.092	0.058
-301.793	-45.987	0.189	-0.093
-300.778	-200.000	0.047	-0.520
-299.764	-12.368	-0.175	-0.114
-298.749	55.331	-0.258	0.248
-297.735	30.844	-0.124	0.106
-296.720	221.089	-0.191	0.305
-295.705	455.430	-0.023	-0.051
-294.691	32.616	-0.203	0.175
-293.676	-200.000	0.043	0.194
-292.662	355.761	-0.040	-0.079
-291.647	-200.000	-0.007	-0.239
-290.632	800.000	0.006	-0.018
-289.618	-200.000	-0.005	0.117
-288.603	42.672	-0.218	-0.197
-287.589	31.878	0.145	0.124
-286.574	-200.000	0.027	0.119
-285.559	65.583	-0.158	0.159
-284.545	-8.570	0.035	0.023
-283.530	-164.460	0.474	0.021
-282.516	-176.529	-0.343	0.009
-281.501	75.937	0.107	0.112
-280.486	163.710	0.095	-0.133
-279.472	-200.000	-0.006	0.136
-278.457	-47.282	-0.112	-0.054
-277.443	-142.698	-0.132	-0.013
-276.428	267.015	0.045	-0.078
-275.413	-138.379	0.250	0.027
-274.399	-131.880	0.130	-0.017
-273.384	-31.010	0.206	0.116
-272.370	-84.672	-0.073	0.023
-271.355	800.000	-0.108	0.345
-270.340	227.812	-0.108	-0.175
-269.326	800.000	0.081	0.223
-268.311	228.000	-0.031	-0.050
-267.297	517.936	0.080	-0.187
-266.282	800.000	0.039	0.148
-265.267	-99.307	0.194	0.049
-264.253	-200.000	-0.019	-0.087
-263.238	-148.942	0.149	-0.012
-262.224	-32.420	0.124	0.069
-261.209	12.200	-0.143	-0.109
-260.195	282.658	-0.092	-0.164
-259.180	28.124	0.086	0.072
-258.165	136.367	0.168	0.217
-257.151	-120.768	-0.054	-0.009
-256.136	93.048	-0.131	-0.147
-255.122	-200.000	-0.008	-0.228
-254.107	-200.000	0.007	0.085
-253.092	35.773	0.049	-0.043
-252.078	-114.838	-0.100	0.019
-251.063	-200.000	-0.052	0.362
-250.049	201.495	0.069	0.105
-249.034	542.643	0.107	-0.252
-248.019	55.625	-0.180	0.173
-247.005	800.000	-0.039	0.125
-245.990	-169.139	0.261	-0.010
-244.976	511.755	0.157	0.363
-243.961	127.218	0.095	-0.120
-242.946	177.040	0.199	0.288
-241.932	-128.775	0.382	-0.053
-240.917	-110.237	-0.430	0.089
-239.903	-75.829	0.140	0.049
-238.888	-35.576	-0.107	0.058
-237.873	280.600	0.150	-0.266
-236.859	279.088	0.072	-0.128
-235.844	42.486	-0.075	-0.067
-234.830	-7.662	-0.104	-0.070
-233.815	-50.752	-0.303	-0.142
-232.800	345.112	0.086	0.167
-231.786	159.996	0.144	0.199
-230.771	-110.596	-0.426	-0.088
-229.757	86.697	0.130	0.142
-228.742	-47.274	0.320	0.155
-227.727	-131.625	-0.221	0.029
-226.713	-200.000	-0.031	-0.150
-225.698	-182.252	0.266	0.005
-224.684	-108.488	-0.332	-0.071
-223.669	61.904	0.232	0.230
-222.655	362.918	0.091	-0.182
-221.640	-85.345	0.398	-0.123
-220.625	-0.062	-0.143	0.101
-219.611	-127.524	0.077	0.011
-218.596	-100.934	0.054	0.013
-217.582	99.347	-0.308	0.354
-216.567	-200.000	0.008	-0.229
-215.552	-200.000	0.028	-0.139
-214.538	552.658	-0.136	0.324
-213.523	219.095	-0.112	0.177
-212.509	227.594	0.257	0.414
-211.494	221.917	0.064	-0.102
-210.479	392.342	-0.148	-0.305
-209.465	-137.928	0.488	-0.054
-208.450	39.950	-0.211	0.188
-207.436	35.055	-0.163	0.141
-206.421	-29.203	-0.179	0.102
-205.406	800.000	0.082	-0.245
-204.392	4.928	0.111	-0.081
-203.377	-21.764	-0.240	-0.145
-202.363	-128.410	0.060	0.008
-201.348	-10.560	0.446	0.293
-200.333	679.705	-0.057	-0.147
-199.319	-200.000	0.011	-0.138
-198.304	-88.788	0.034	0.010
-197.290	-87.430	0.124	-0.037
-196.275	800.000	0.049	-0.160
-195.260	121.160	-0.136	-0.167
-194.246	-78.156	-0.224	0.076
-193.231	250.575	-0.056	0.094
-192.217	361.230	0.081	-0.161
-191.202	-184.793	-0.086	0.001
-190.187	2.529	-0.248	0.178
-189.173	-151.747	-0.247	0.018
-188.158	-200.000	-0.024	0.330
-187.144	10.051	0.052	0.039
-186.129	-89.868	-0.064	0.019
-185.114	-135.057	-0.023	-0.003
-184.100	191.018	-0.060	-0.090
-183.085	-200.000	0.006	-0.114
-182.071	-143.592	0.271	0.025
-181.056	-18.835	-0.129	0.080
-180.042	-127.929	-0.317	-0.045
-179.027	-58.672	0.180	-0.077
-178.012	-57.009	0.070	0.031
-176.998	-116.182	0.137	0.025
-175.983	-200.000	0.038	-0.207
-174.969	-120.423	-0.256	0.043
-173.954	105.751	-0.208	0.244
-172.939	121.743	-0.158	-0.196
-171.925	-125.620	0.129	-0.019
-170.910	15.965	0.191	0.149
-169.896	296.362	-0.158	0.287
-168.881	800.000	0.038	0.150
-167.866	-69.809	-0.183	-0.069
-166.852	682.764	0.134	0.346
-165.837	-200.000	-0.004	-0.410
-164.823	-200.000	-0.003	-0.131
-163.808	-81.217	-0.209	0.068
-162.793	16.669	0.417	-0.326
-161.779	-137.368	0.016	-0.002
-160.764	-200.000	0.027	-0.233
-159.750	217.980	0.030	0.047
-158.735	340.038	0.244	-0.471
-157.720	363.528	-0.067	-0.134
-156.706	-19.523	-0.054	0.033
-155.691	69.658	-0.156	0.159
-154.677	-42.862	-0.120	-0.060
-153.662	800.000	-0.011	0.049
-152.647	27.308	-0.264	0.220
-151.633	-60.304	-0.213	0.090
-150.618	78.996	0.195	-0.206
-149.604	3.150	0.109	-0.079
-148.589	-100.144	0.078	-0.019
-147.574	625.381	-0.087	0.217
-146.560	33.684	0.341	-0.293
-145.545	-129.754	-0.250	0.034
-144.531	-200.000	0.033	-0.222
-143.516	-200.000	-0.039	0.222
-142.502	154.869	0.094	-0.128
-141.487	480.778	-0.162	0.364
-140.472	-200.000	-0.004	0.030
-139.458	-200.000	-0.041	-0.226
-138.443	800.000	-0.070	-0.254
-137.429	-3.936	0.426	-0.292
-136.414	140.769	-0.100	-0.131
-135.399	12.709	0.218	0.166
-134.385	16.755	-0.246	0.192
-133.370	34.611	-0.286	-0.247
-132.356	-157.664	-0.177	0.010
-131.341	-200.000	-0.013	-0.322
-130.326	586.898	0.089	-0.216
-129.312	-127.525	0.193	-0.028
-128.297	-163.258	0.119	-0.006
-127.283	-200.000	0.035	-0.208
-126.268	79.241	-0.009	0.010
-125.253	110.983	0.164	-0.195
-124.239	800.000	0.123	-0.362
-123.224	-55.866	-0.194	-0.085
-122.210	16.694	-0.165	-0.129
-121.195	520.377	0.125	0.289
-120.180	17.503	0.031	-0.024
-119.166	-141.356	-0.306	0.031
-118.151	-79.596	0.121	-0.040
-117.137	-151.635	0.240	0.017
-116.122	-33.236	-0.333	-0.182
-115.107	-200.000	-0.036	-0.295
-114.093	-102.467	0.200	-0.047
-113.078	17.127	-0.073	-0.057
-112.064	-118.201	0.209	-0.037
-111.049	3.870	-0.226	-0.163
-110.034	-34.493	-0.305	-0.165
-109.020	800.000	-0.061	-0.230
-108.005	-200.000	-0.027	-0.223
-106.991	-19.542	0.098	0.060
-105.976	121.622	-0.074	0.092
-104.962	-111.714	-0.352	-0.070
-103.947	-200.000	0.093	0.000
-102.932	800.000	-0.058	0.195
-101.918	-21.117	0.408	0.247
-100.903	-125.485	-0.112	0.017
-99.889	-17.170	-0.107	0.067
-98.874	-127.769	-0.228	-0.032
-97.859	-83.642	0.085	0.027
-96.845	-94.315	-0.411	0.111
-95.830	16.714	0.159	0.124
-94.816	-165.123	-0.216	0.009
-93.801	-7.266	-0.092	-0.062
-92.786	-8.938	-0.123	0.081
-91.772	702.664	0.099	-0.257
-90.757	-112.720	0.128	-0.025
-89.743	-200.000	0.027	0.133
-88.728	-110.120	0.351	0.072
-87.713	62.045	-0.099	-0.097
-86.699	358.452	-0.072	-0.142
-85.684	-134.059	-0.218	-0.027
-84.670	-200.000	0.036	-0.189
-83.655	79.880	0.068	-0.072
-82.640	105.976	0.104	0.121
-81.626	-34.893	0.183	0.099
-80.611	23.459	-0.366	0.297
-79.597	-200.000	0.053	0.304
-78.582	48.488	0.286	-0.264
-77.567	800.000	-0.049	0.144
-76.553	171.143	-0.122	-0.172
-75.538	155.937	0.057	0.077
-74.524	-139.270	-0.029	-0.003
-73.509	252.518	-0.101	-0.169
-72.494	-200.000	-0.031	-0.439
-71.480	508.947	-0.067	-0.154
-70.465	800.000	-0.029	-0.093
-69.451	800.000	-0.078	-0.258
-68.436	530.345	-0.072	0.168
-67.422	800.000	-0.080	0.220
-66.407	-92.132	0.128	0.036
-65.392	800.000	-0.092	0.257
-64.378	553.990	0.057	-0.134
-63.363	-193.720	0.092	0.001
-62.349	-200.000	-0.030	0.281
-61.334	19.268	-0.834	-0.660
-60.319	45.411	0.605	0.550
-59.305	-200.000	-0.031	-0.859
-58.290	144.927	0.632	0.833
-57.276	800.000	0.619	1.710
-56.261	-200.000	103.374	622.236
-55.246	610.809	1437.136	3539.574
-54.232	182.024	2646.372	3840.833
-53.217	120.748	2179.082	2669.186
-52.203	46.001	1626.193	1482.942
-51.188	37.645	1360.892	1190.154
-50.173	34.373	1317.977	1133.164
-49.159	57.245	1370.648	1317.664
-48.144	60.111	1387.449	1351.102
-47.130	37.783	1340.087	1172.603
-46.115	34.208	1322.177	1135.611
-45.100	34.035	1317.580	1130.588
-44.086	34.040	1315.107	1128.451
-43.071	33.991	1312.496	1125.874
-42.057	33.892	1310.882	1123.862
-41.042	33.999	1308.863	1122.718
-40.027	34.039	1307.128	1121.423
-39.013	33.964	1305.720	1119.725
-37.998	33.952	1303.540	1117.745
-36.984	34.200	1301.467	1117.375
-35.969	34.066	1300.368	1115.599
-34.954	34.010	1298.277	1113.433
-33.940	34.165	1296.869	1113.092
-32.925	34.105	1295.654	1111.656
-31.911	34.255	1294.042	1111.099
-30.896	34.214	1292.755	1109.711
-29.881	34.154	1291.544	1108.278
-28.867	34.305	1289.909	1107.710
-27.852	34.320	1288.158	1106.253
-26.838	34.286	1286.990	1105.008
-25.823	34.085	1286.094	1103.030
-24.809	34.185	1284.696	1102.362
-23.794	34.174	1283.424	1101.166
-22.779	34.163	1281.999	1099.833
-21.765	34.142	1280.865	1098.699
-20.750	34.201	1279.276	1097.629
-19.736	34.069	1278.083	1095.802
-18.721	34.173	1276.421	1094.936
-17.706	34.116	1275.750	1093.989
-16.692	34.071	1274.665	1092.757
-15.677	33.991	1273.531	1091.280
-14.663	34.147	1272.156	1090.951
-13.648	34.122	1271.204	1089.951
-12.633	34.053	1270.350	1088.781
-11.619	34.043	1269.496	1087.950
-10.604	34.144	1268.563	1087.682
-9.590	34.023	1267.954	1086.424
-8.575	34.089	1266.256	1085.302
-7.560	33.944	1266.549	1084.684
-6.546	33.968	1265.559	1083.928
-5.531	34.063	1264.000	1083.091
-4.517	34.066	1263.060	1082.263
-3.502	34.013	1262.559	1081.489
-2.487	34.076	1261.193	1080.635
-1.473	34.113	1256.580	1076.848
-0.458	32.187	1241.731	1053.294
0.556	25.583	1222.599	1009.292
1.571	21.521	1227.311	990.157
2.586	20.491	1241.728	995.802
3.600	20.175	1231.426	985.654
4.615	14.641	1158.638	897.635
5.629	4.665	1080.930	787.082
6.644	0.079	1059.247	748.450
7.659	-0.355	1056.481	744.274
8.673	-0.492	1055.521	742.855
9.688	-0.481	1054.317	741.995
10.702	-0.098	1052.906	742.832
11.717	5.899	1061.257	778.475
12.731	15.007	1074.518	833.697
13.746	18.115	1077.929	851.778
14.761	17.787	1077.207	849.500
15.775	17.789	1076.365	848.767
16.790	17.397	1075.285	845.896
17.804	17.392	1074.445	845.132
18.819	17.418	1074.064	844.886
19.834	17.503	1073.494	844.789
20.848	17.398	1073.309	844.047
21.863	17.455	1072.469	843.593
22.877	17.338	1072.157	842.693
23.892	17.295	1071.013	841.507
24.907	17.406	1070.243	841.374
25.921	17.435	1069.376	840.763
26.936	17.443	1068.201	839.805
27.950	17.513	1066.005	838.347
28.965	17.285	1064.128	835.676
29.980	17.235	1062.559	834.125
30.994	17.488	1061.442	834.417
32.009	17.427	1060.105	832.990
33.023	17.268	1058.586	830.950
34.038	17.389	1058.086	831.072
35.053	17.488	1057.587	831.091
36.067	17.550	1055.995	830.070
37.082	17.466	1055.856	829.478
38.096	17.712	1054.527	829.555
39.111	17.710	1054.157	829.182
40.126	17.651	1052.575	827.576
41.140	17.327	1050.838	824.568
42.155	17.130	1049.402	822.413
43.169	17.415	1048.029	822.645
44.184	17.273	1046.901	821.000
45.199	17.220	1045.965	819.937
46.213	17.171	1044.945	818.830
47.228	17.218	1043.886	818.152
48.242	17.171	1042.838	817.032
49.257	17.313	1041.923	816.928
50.271	17.444	1040.856	816.649
51.286	17.340	1040.811	816.040
52.301	17.352	1039.490	814.990
53.315	17.345	1038.167	813.847
54.330	17.353	1037.503	813.293
55.344	17.504	1036.508	813.161
56.359	17.543	1035.183	812.236
57.374	17.332	1034.589	810.693
58.388	17.358	1033.833	810.152
59.403	17.363	1032.815	809.306
60.417	17.198	1031.893	807.731
61.432	17.164	1031.474	807.166
62.447	17.297	1030.885	807.267
63.461	17.436	1029.495	806.768
64.476	17.334	1028.657	805.556
65.490	17.293	1027.683	804.525
66.505	17.330	1027.247	804.287
67.520	17.315	1026.688	803.708
68.534	17.201	1025.485	802.158
69.549	16.906	1024.479	799.911
70.563	17.017	1023.636	799.702
71.578	17.013	1022.754	798.927
72.593	16.979	1021.950	798.064
73.607	17.152	1021.468	798.435
74.622	17.387	1020.922	799.038
75.636	17.208	1020.664	797.924
76.651	17.173	1019.367	796.679
77.666	17.057	1018.306	795.236
78.680	17.106	1017.913	795.086
79.695	17.217	1017.311	795.064
80.709	17.264	1016.315	794.435
81.724	17.178	1015.130	793.036
82.739	17.364	1014.388	793.254
83.753	17.473	1013.695	793.152
84.768	17.651	1013.074	793.424
85.782	17.527	1011.822	791.798
86.797	17.455	1011.053	790.789
87.812	17.469	1009.689	789.717
88.826	17.618	1008.717	789.577
89.841	17.581	1008.137	788.882
90.855	17.626	1007.198	788.285
91.870	17.678	1005.929	787.465
92.884	17.503	1004.481	785.453
93.899	17.667	1003.173	785.118
94.914	17.735	1002.605	784.917
95.928	17.629	1001.576	783.553
96.943	17.306	1000.423	781.097
97.957	17.088	999.345	779.186
98.972	17.058	998.372	778.221
99.987	17.064	997.477	777.484
101.001	17.377	996.697	778.238
102.016	17.419	995.739	777.615
103.030	17.334	994.702	776.350
104.045	17.149	992.932	774.052
105.060	17.033	992.335	772.991
106.074	17.243	991.592	773.300
107.089	17.624	991.263	774.708
108.103	17.401	990.392	772.947
109.118	17.216	989.637	771.448
110.133	17.387	988.154	771.001
111.147	17.241	986.825	769.235
112.162	17.236	985.617	768.199
113.176	17.200	985.212	767.655
114.191	17.166	984.042	766.523
115.206	16.988	983.068	764.893
116.220	17.019	981.726	763.921
117.235	17.212	981.044	764.190
118.249	17.244	979.891	763.369
119.264	17.134	979.633	762.605
120.279	17.117	978.807	761.818
121.293	17.204	978.128	761.613
122.308	17.264	977.227	761.112
123.322	17.206	975.849	759.714
124.337	17.056	974.167	757.666
125.352	16.766	972.768	755.220
126.366	16.703	971.339	753.765
127.381	17.282	971.389	756.312
128.395	17.572	970.540	756.872
129.410	17.756	969.331	756.678
130.424	17.549	968.769	755.254
131.439	17.641	967.222	754.391
132.454	17.634	966.799	753.964
133.468	17.637	965.385	752.807
134.483	17.698	964.946	752.666
135.497	17.637	964.500	751.984
136.512	17.811	963.292	751.743
137.527	17.756	962.670	750.946
138.541	17.821	961.722	750.427
139.556	17.694	961.002	749.241
140.570	17.706	959.877	748.350
141.585	17.730	958.931	747.650
142.600	17.642	957.888	746.386
143.614	17.822	957.165	746.547
144.629	17.931	956.201	746.202
145.643	17.828	955.213	744.918
146.658	17.576	953.971	742.785
147.673	17.599	952.758	741.874
148.687	17.658	951.805	741.322
149.702	17.488	951.050	739.931
150.716	17.599	950.036	739.555
151.731	17.663	949.648	739.467
152.746	17.879	948.903	739.760
153.760	17.923	948.040	739.209
154.775	17.959	947.491	738.871
155.789	17.965	946.306	737.908
156.804	17.842	945.372	736.588
157.819	17.963	944.573	736.421
158.833	17.986	943.733	735.800
159.848	17.903	942.683	734.556
160.862	17.859	941.631	733.484
161.877	17.844	940.868	732.761
162.892	18.073	939.862	732.894
163.906	17.817	938.746	730.862
164.921	17.889	938.005	730.529
165.935	17.911	937.141	729.887
166.950	17.843	935.865	728.537
167.964	17.883	935.098	728.047
168.979	17.883	934.091	727.199
169.994	17.801	933.243	726.126
171.008	17.863	932.785	725.966
172.023	17.797	931.819	724.869
173.037	17.603	930.560	723.004
174.052	17.464	930.146	722.028
175.067	17.546	929.653	721.931
176.081	17.911	928.520	722.532
177.096	17.838	928.009	721.759
178.110	17.664	926.512	719.797
179.125	17.542	925.618	718.524
180.140	17.561	925.482	718.436
181.154	17.462	925.468	717.942
182.169	17.784	925.133	718.978
183.183	17.891	924.570	718.928
184.198	17.811	923.300	717.538
185.213	17.912	922.304	717.125
186.227	18.081	921.709	717.309
187.242	17.957	920.836	716.047
188.256	17.885	920.524	715.438
189.271	17.998	919.908	715.371
190.286	17.711	918.908	713.330
191.300	17.317	917.523	710.546
192.315	16.601	916.084	706.380
193.329	16.576	915.713	705.926
194.344	17.391	915.983	709.474
195.359	17.774	915.770	710.840
196.373	17.919	915.197	710.935
197.388	17.678	913.746	708.743
198.402	17.738	913.231	708.531
199.417	17.777	912.624	708.160
200.432	17.338	911.641	705.514
201.446	17.166	911.076	704.303
202.461	17.207	910.512	703.974
203.475	16.531	908.675	699.696
204.490	16.055	907.286	696.597
205.504	16.885	907.740	700.312
206.519	17.277	907.899	701.994
207.534	17.584	906.855	702.389
208.548	17.945	906.843	703.804
209.563	17.631	905.354	701.296
210.577	17.544	905.199	700.755
211.592	17.945	904.508	701.809
212.607	17.901	903.526	700.804
213.621	17.810	903.402	700.273
214.636	17.918	902.662	700.079
215.650	17.906	901.551	699.107
216.665	18.058	900.875	699.143
217.680	18.065	899.512	698.049
218.694	17.592	898.616	695.363
219.709	17.536	898.200	694.751
220.723	17.669	897.799	694.924
221.738	17.745	897.335	694.813
222.753	17.796	896.378	694.215
223.767	17.999	895.528	694.324
224.782	17.923	895.527	693.952
225.796	18.049	894.713	693.769
226.811	17.421	893.412	690.152
227.826	17.094	891.982	687.663
228.840	17.260	891.648	688.019
229.855	17.183	890.916	687.082
230.869	17.012	889.517	685.251
231.884	17.384	889.563	686.729
232.899	17.918	889.893	689.076
233.913	17.890	888.624	687.919
234.928	17.969	888.124	687.791
235.942	18.007	887.419	687.337
236.957	17.682	886.597	685.333
237.972	17.910	885.636	685.447
238.986	17.640	885.512	684.205
240.001	17.798	884.699	684.150
241.015	17.828	884.452	684.019
242.030	17.887	883.733	683.638
243.045	17.914	883.495	683.502
244.059	18.033	883.012	683.541
245.074	17.835	881.907	681.836
246.088	17.642	880.577	679.976
247.103	17.768	879.991	679.966
248.117	18.193	879.850	681.492
249.132	18.273	879.418	681.416
250.147	18.306	878.461	680.743
251.161	18.493	877.841	680.947
252.176	18.371	877.369	680.036
253.190	18.554	876.436	679.978
254.205	18.623	876.287	680.075
255.220	18.656	875.694	679.685
256.234	18.578	874.693	678.541
257.249	18.374	873.778	676.964
258.263	18.464	872.750	676.462
259.278	18.651	872.616	677.040
260.293	18.704	871.902	676.633
261.307	18.411	871.473	675.087
262.322	18.339	870.218	673.769
263.336	17.621	868.009	669.181
264.351	16.537	866.721	663.877
265.366	16.780	866.333	664.472
266.380	17.714	867.265	668.796
267.395	18.140	866.568	669.867
268.409	18.175	865.736	669.304
269.424	18.440	865.037	669.739
270.439	18.552	864.429	669.645
271.453	18.507	864.013	669.090
272.468	18.564	863.654	668.973
273.482	18.706	862.961	668.933
274.497	18.269	861.798	666.271
275.512	17.972	860.673	664.185
276.526	18.387	860.508	665.615
277.541	18.500	860.151	665.717
278.555	18.236	859.027	663.766
279.570	17.982	858.239	662.113
280.585	18.313	857.381	662.672
281.599	18.119	856.825	661.434
282.614	17.982	855.418	659.760
283.628	17.956	855.195	659.429
284.643	18.167	855.003	660.038
285.657	17.842	854.033	657.978
286.672	17.612	852.692	656.001
287.687	18.143	852.994	658.221
288.701	18.123	852.593	657.775
289.716	17.706	851.783	655.491
290.730	17.662	850.989	654.651
291.745	17.453	849.831	652.900
292.760	17.771	849.736	653.991
293.774	18.570	849.705	656.970
294.789	18.931	849.787	658.358
295.803	18.939	849.227	657.896
296.818	19.219	847.958	657.926
297.833	18.512	847.570	654.867
298.847	18.533	846.720	654.232
299.862	18.941	846.403	655.485
300.876	18.980	846.144	655.376
301.891	18.808	844.778	653.603
302.906	18.363	843.656	650.988
303.920	18.463	843.382	651.097
304.935	18.938	843.250	652.742
305.949	19.006	842.114	652.064
306.964	18.768	842.000	651.015
307.979	18.967	841.284	651.158
308.993	19.133	840.836	651.379
310.008	19.057	840.485	650.766
311.022	18.873	839.953	649.600
312.037	18.902	839.070	648.967
313.052	18.683	838.415	647.576
314.066	18.038	836.657	643.732
315.081	17.719	836.068	642.022
316.095	18.517	836.348	645.185
317.110	18.935	836.051	646.471
318.125	18.225	834.741	642.733
319.139	17.216	833.834	638.190
320.154	17.361	833.146	638.154
321.168	18.146	833.280	641.144
322.183	18.695	833.097	643.001
323.197	18.652	833.232	642.889
324.212	18.810	832.637	642.962
325.227	18.977	831.857	642.927
326.241	18.957	831.407	642.450
327.256	18.826	830.871	641.489
328.270	18.682	829.837	640.097
329.285	18.673	829.026	639.381
330.300	18.476	828.607	638.268
331.314	18.649	828.321	638.637
332.329	18.948	827.611	639.144
333.343	19.064	827.289	639.268
334.358	18.947	827.186	638.698
335.373	18.993	826.598	638.359
336.387	19.390	826.173	639.446
337.402	19.243	826.305	638.946
338.416	19.016	825.793	637.653
339.431	19.266	825.075	637.967
340.446	19.257	825.183	637.962
341.460	19.214	824.544	637.254
342.475	18.997	823.727	635.763
343.489	19.123	823.496	635.992
344.504	19.402	823.041	636.615
345.519	19.424	822.770	636.430
346.533	19.655	822.088	636.699
347.548	19.573	822.021	636.287
348.562	19.616	821.432	635.933
349.577	19.619	821.033	635.580
350.592	19.628	820.109	634.841
351.606	19.616	819.519	634.283
352.621	19.587	818.410	633.264
353.635	19.408	817.965	632.208
354.650	18.798	816.618	628.877
355.665	18.152	815.022	625.233
356.679	18.456	814.667	626.015
357.694	18.781	814.352	626.904
358.708	18.725	813.985	626.362
359.723	19.068	813.587	627.251
360.738	19.424	813.447	628.385
361.752	19.438	812.717	627.816
362.767	19.749	812.102	628.417
363.781	19.784	811.807	628.257
364.796	19.936	811.196	628.281
365.810	19.885	811.019	627.906
366.825	19.757	811.107	627.453
367.840	19.585	810.166	626.043
368.854	19.441	809.141	624.675
369.869	19.335	808.755	623.938
370.883	19.390	808.549	623.926
371.898	19.134	807.873	622.424
372.913	19.384	807.574	623.039
373.927	19.574	807.091	623.300
374.942	19.620	806.725	623.127
375.956	19.609	806.516	622.870
376.971	19.899	805.913	623.394
377.986	19.903	805.656	623.153
379.000	20.030	804.762	622.864
380.015	19.754	804.323	621.478
381.029	19.692	803.985	620.938
382.044	19.970	803.001	621.120
383.059	19.931	802.474	620.520
384.073	19.962	802.174	620.344
385.088	19.982	801.811	620.079
386.102	19.872	801.076	619.062
387.117	20.112	799.986	619.021
388.132	19.583	799.467	616.679
389.146	19.102	798.677	614.297
390.161	19.409	798.716	615.369
391.175	19.571	798.043	615.373
392.190	19.395	797.329	614.142
393.205	18.374	795.313	608.907
394.219	17.267	794.191	604.061
395.234	17.186	794.260	603.774
396.248	18.701	794.813	609.525
397.263	19.985	795.460	614.526
398.278	19.742	795.387	613.551
399.292	19.623	794.549	612.431
400.307	19.782	793.953	612.478
401.321	19.629	793.936	611.869
402.336	19.883	793.667	612.507
403.350	20.244	793.145	613.326
404.365	20.353	792.886	613.456
405.380	20.541	792.433	613.716
406.394	20.483	792.126	613.221
407.409	20.503	791.379	612.657
408.423	20.430	791.014	612.064
409.438	20.418	790.671	611.701
410.453	20.624	789.638	611.573
411.467	20.524	789.786	611.284
412.482	20.560	789.332	611.003
413.496	20.469	789.065	610.421
414.511	20.660	788.525	610.620
415.526	20.515	788.109	609.735
416.540	20.530	787.264	609.083
417.555	20.194	786.601	607.339
418.569	20.240	786.461	607.336
419.584	20.361	785.461	606.935
420.599	20.106	785.341	605.898
421.613	156.251	1359.629	1793.572
422.628	135.199	1443.305	1793.679
