DTS Sentinel unit serial number:	SN413079Multiplexer serial number:	ORYXHardware model number:	OX4-SRSoftware version number:	ORYX F/W v4.00 Oryx Data Collector v3.7.2.0data status	okinstallation	princeton_trtdifferential loss correction	single-endedforward channel	channel 1reverse channel	N/Adate	2019/09/15time	11:46:35forward acquisition time	60.00reverse acquisition time	0.00gamma	496.2192k internal	0.2308k external	0.2308temperature offset calibration	0.9988default loss term (dB/km)	0.3790temperature slope calibration	1.0000multiplexer offset coefficient	1.0000multiplexer slope coefficient	1.0000fibre end	0.00T internal ref (°C)	34.37T ext. ref 1 (°C)	5.05T ext. ref 2 (°C)	29.95length (m)	temperature (°C)	Stokes	anti-Stokes-747.200	800.000	0.045	-0.150
-746.185	181.999	0.173	0.259
-745.171	-200.000	0.031	0.236
-744.156	-40.622	-0.121	-0.064
-743.142	-200.000	0.016	0.330
-742.127	158.323	0.017	-0.024
-741.112	-123.106	-0.416	-0.068
-740.098	296.819	0.070	0.130
-739.083	8.430	-0.130	-0.099
-738.069	-119.994	-0.219	-0.038
-737.054	800.000	-0.045	-0.177
-736.039	-31.395	-0.490	-0.280
-735.025	-40.805	0.133	0.070
-734.010	-29.758	0.046	-0.027
-732.996	-132.009	0.086	-0.011
-731.981	167.771	0.077	-0.111
-730.966	-200.000	0.020	-0.127
-729.952	260.631	0.037	-0.064
-728.937	800.000	-0.110	0.377
-727.923	800.000	0.130	-0.415
-726.908	-200.000	-0.046	-0.296
-725.894	-115.498	-0.211	-0.040
-724.879	25.766	0.330	-0.279
-723.864	121.643	-0.119	-0.151
-722.850	115.633	-0.141	0.175
-721.835	274.336	0.075	-0.134
-720.821	95.268	-0.174	-0.201
-719.806	800.000	0.099	0.401
-718.791	-200.000	-0.022	-0.258
-717.777	398.033	-0.177	0.376
-716.762	-23.701	-0.120	-0.073
-715.748	800.000	0.101	0.286
-714.733	110.887	-0.192	-0.234
-713.718	800.000	0.081	-0.295
-712.704	-200.000	0.115	-0.526
-711.689	-200.000	-0.030	-0.289
-710.675	-60.475	0.150	0.065
-709.660	-79.348	-0.067	-0.023
-708.645	-91.005	-0.129	-0.037
-707.631	-91.651	0.198	-0.057
-706.616	-200.000	0.014	-0.361
-705.602	-118.621	0.353	-0.063
-704.587	-119.536	-0.192	0.034
-703.572	-1.534	-0.182	-0.130
-702.558	214.688	0.134	-0.216
-701.543	-40.945	0.386	-0.202
-700.529	117.499	-0.256	-0.319
-699.514	-144.359	0.160	0.015
-698.499	-200.000	-0.068	-0.396
-697.485	131.262	0.122	-0.160
-696.470	-200.000	-0.019	-0.107
-695.456	33.081	-0.151	-0.133
-694.441	226.051	0.120	-0.198
-693.426	-39.084	0.262	0.140
-692.412	800.000	0.022	0.062
-691.397	-59.681	-0.220	-0.095
-690.383	191.175	0.060	-0.091
-689.368	138.249	0.200	-0.266
-688.354	10.960	-0.166	0.128
-687.339	-87.996	-0.269	-0.082
-686.324	390.320	-0.180	0.378
-685.310	-200.000	-0.008	-0.152
-684.295	231.377	0.089	0.147
-683.281	-200.000	-0.002	0.067
-682.266	355.462	-0.128	0.259
-681.251	800.000	-0.053	0.153
-680.237	333.113	-0.098	-0.193
-679.222	-88.279	0.232	-0.070
-678.208	800.000	0.006	0.019
-677.193	-69.177	0.192	0.075
-676.178	-73.359	0.239	0.089
-675.164	-116.234	0.124	0.023
-674.149	-77.172	-0.255	-0.090
-673.135	1.755	-0.065	0.048
-672.120	24.166	-0.168	-0.141
-671.105	800.000	0.033	-0.095
-670.091	-22.841	-0.487	0.298
-669.076	-200.000	-0.011	-0.186
-668.062	-100.969	-0.167	-0.042
-667.047	-200.000	-0.289	0.000
-666.032	339.266	0.105	-0.208
-665.018	20.504	0.118	0.097
-664.003	82.053	-0.109	-0.119
-662.989	-10.293	-0.145	-0.097
-661.974	800.000	0.041	-0.136
-660.959	-200.000	-0.026	-0.194
-659.945	-200.000	-0.029	-0.239
-658.930	101.289	-0.147	0.174
-657.916	116.542	0.065	0.081
-656.901	70.272	0.093	-0.098
-655.886	551.290	0.062	0.151
-654.872	-200.000	-0.004	-0.089
-653.857	322.809	-0.082	-0.159
-652.843	401.935	0.130	0.277
-651.828	92.665	0.117	-0.133
-650.814	11.967	0.159	-0.124
-649.799	214.701	0.212	-0.341
-648.784	-43.688	-0.329	-0.168
-647.770	-200.000	0.008	0.157
-646.755	-200.000	-0.001	-0.207
-645.741	401.650	0.052	-0.110
-644.726	-200.000	0.001	-0.295
-643.711	800.000	-0.066	-0.213
-642.697	284.430	-0.114	0.208
-641.682	-87.521	-0.088	0.027
-640.668	12.167	-0.121	-0.094
-639.653	10.246	0.190	0.146
-638.638	-17.791	0.075	-0.048
-637.624	25.047	0.170	-0.143
-636.609	230.331	0.072	0.119
-635.595	800.000	-0.006	0.021
-634.580	538.507	0.027	0.066
-633.565	370.751	-0.112	0.230
-632.551	-27.871	-0.061	-0.036
-631.536	-36.628	0.192	-0.104
-630.522	-64.579	0.371	-0.152
-629.507	64.148	-0.088	-0.090
-628.492	-200.000	0.075	-0.381
-627.478	10.718	-0.268	0.207
-626.463	-200.000	0.014	-0.074
-625.449	-200.000	0.010	-0.302
-624.434	484.757	-0.009	-0.020
-623.419	210.821	-0.030	0.047
-622.405	-76.642	-0.067	0.024
-621.390	-163.763	-0.336	-0.016
-620.376	34.184	-0.140	0.123
-619.361	-144.773	-0.093	0.009
-618.346	800.000	0.032	-0.125
-617.332	-200.000	0.032	0.464
-616.317	-49.783	0.159	-0.077
-615.303	-49.096	0.239	-0.116
-614.288	-32.633	0.191	-0.108
-613.273	-200.000	-0.052	-0.429
-612.259	-45.629	-0.190	0.095
-611.244	-200.000	-0.015	0.276
-610.230	800.000	0.061	0.216
-609.215	800.000	0.052	-0.211
-608.201	680.877	-0.066	0.174
-607.186	272.775	-0.133	0.238
-606.171	-111.681	0.259	-0.053
-605.157	-74.400	0.101	-0.037
-604.142	800.000	0.078	0.255
-603.128	-134.683	-0.203	0.025
-602.113	800.000	-0.088	-0.304
-601.098	715.855	0.108	-0.290
-600.084	192.767	-0.075	-0.115
-599.069	-119.898	0.354	-0.062
-598.055	-107.273	0.072	-0.016
-597.040	800.000	-0.069	-0.292
-596.025	111.316	0.065	-0.080
-595.011	227.148	0.101	0.166
-593.996	-23.588	-0.166	0.101
-592.982	-51.510	0.198	-0.094
-591.967	-89.421	0.104	0.031
-590.952	-200.000	0.027	0.160
-589.938	142.432	0.120	0.161
-588.923	-112.588	-0.362	-0.073
-587.909	129.127	0.112	0.144
-586.894	-5.702	-0.353	-0.244
-585.879	-78.701	0.209	0.072
-584.865	225.704	-0.154	-0.251
-583.850	-200.000	0.003	-0.061
-582.836	382.594	-0.121	-0.251
-581.821	-200.000	-0.017	-0.266
-580.806	-122.172	-0.249	0.041
-579.792	-200.000	0.020	0.092
-578.777	114.161	-0.146	0.179
-577.763	-36.759	0.508	-0.275
-576.748	-8.298	0.240	-0.163
-575.733	129.208	0.136	0.175
-574.719	-9.203	0.195	-0.131
-573.704	800.000	0.047	0.185
-572.690	-56.616	0.359	-0.161
-571.675	-165.937	0.175	-0.008
-570.661	336.087	0.116	-0.227
-569.646	800.000	-0.109	0.434
-568.631	-109.045	-0.361	-0.078
-567.617	-136.454	-0.313	0.037
-566.602	-200.000	0.010	0.193
-565.588	-118.681	-0.192	-0.034
-564.573	-200.000	-0.096	-0.459
-563.558	15.876	-0.235	-0.187
-562.544	-164.378	-0.358	0.017
-561.529	-200.000	-0.025	0.147
-560.515	234.878	0.242	0.403
-559.500	519.925	0.057	0.135
-558.485	17.179	0.119	0.095
-557.471	-76.881	0.321	-0.113
-556.456	126.673	0.120	0.154
-555.442	308.981	-0.208	-0.391
-554.427	-159.238	-0.237	0.013
-553.412	-200.000	-0.001	-0.041
-552.398	100.857	-0.142	-0.167
-551.383	-2.027	0.187	0.132
-550.369	327.120	0.123	-0.238
-549.354	98.573	-0.243	0.283
-548.339	-75.037	0.250	0.090
-547.325	-89.264	0.066	-0.020
-546.310	18.628	0.196	-0.158
-545.296	-151.047	0.051	0.004
-544.281	-200.000	-0.026	0.132
-543.266	-200.000	-0.011	0.307
-542.252	-200.000	-0.025	-0.154
-541.237	450.109	0.091	-0.203
-540.223	-200.000	0.007	0.293
-539.208	-200.000	0.038	0.281
-538.193	0.726	-0.352	0.254
-537.179	-36.249	0.195	-0.106
-536.164	9.172	0.139	0.106
-535.150	-200.000	0.004	-0.362
-534.135	198.071	-0.111	-0.170
-533.121	175.113	-0.173	-0.252
-532.106	70.253	-0.162	-0.168
-531.091	800.000	0.024	-0.086
-530.077	800.000	-0.011	-0.034
-529.062	-110.861	-0.168	0.035
-528.048	120.637	-0.163	-0.204
-527.033	-200.000	0.060	0.274
-526.018	-180.869	-0.084	-0.002
-525.004	-133.277	-0.299	-0.038
-523.989	18.767	-0.283	0.228
-522.975	-88.508	0.250	-0.075
-521.960	800.000	0.052	-0.162
-520.945	-114.329	-0.262	0.051
-519.931	-37.231	-0.183	-0.098
-518.916	-52.236	-0.169	-0.079
-517.902	725.077	-0.118	0.317
-516.887	69.619	-0.165	-0.171
-515.872	800.000	0.085	0.313
-514.858	2.207	-0.197	0.143
-513.843	282.500	0.055	0.099
-512.829	-135.440	-0.353	-0.042
-511.814	411.595	0.159	0.340
-510.799	71.167	0.060	0.063
-509.785	7.139	-0.139	-0.104
-508.770	-71.947	0.073	-0.027
-507.756	96.496	0.092	0.106
-506.741	-151.086	-0.249	-0.019
-505.726	-200.000	0.016	-0.183
-504.712	-200.000	-0.050	-0.546
-503.697	-100.857	0.269	-0.067
-502.683	80.082	0.119	0.128
-501.668	328.590	-0.056	0.108
-500.653	-22.350	0.153	0.093
-499.639	-22.578	-0.257	0.157
-498.624	-84.616	0.071	0.023
-497.610	-28.045	0.307	-0.179
-496.595	310.483	0.059	0.111
-495.581	-169.330	-0.266	0.010
-494.566	-30.576	-0.348	-0.198
-493.551	-137.475	-0.041	0.005
-492.537	-84.327	-0.144	0.046
-491.522	761.312	-0.041	0.112
-490.508	9.923	0.272	-0.208
-489.493	45.557	0.199	-0.185
-488.478	625.504	0.012	0.031
-487.464	800.000	0.050	-0.146
-486.449	-200.000	-0.024	-0.307
-485.435	-59.185	0.273	-0.118
-484.420	342.609	-0.194	0.381
-483.405	-200.000	-0.084	0.400
-482.391	81.116	-0.139	0.151
-481.376	-10.834	0.027	-0.018
-480.362	42.191	-0.396	0.362
-479.347	-200.000	0.003	0.031
-478.332	-37.568	-0.120	0.065
-477.318	9.941	-0.133	-0.102
-476.303	-137.137	-0.230	0.026
-475.289	-107.291	-0.092	-0.020
-474.274	45.375	-0.076	0.071
-473.259	-200.000	-0.024	0.160
-472.245	-178.256	0.283	-0.007
-471.230	800.000	-0.103	-0.370
-470.216	45.954	-0.077	0.072
-469.201	623.857	0.135	0.342
-468.186	215.051	-0.087	0.139
-467.172	-37.297	-0.205	-0.110
-466.157	-80.924	0.163	0.054
-465.143	-79.054	0.084	0.029
-464.128	-99.878	-0.318	-0.080
-463.113	290.934	0.095	-0.173
-462.099	-197.111	0.323	-0.002
-461.084	64.206	0.192	-0.195
-460.070	266.757	-0.131	-0.230
-459.055	530.371	0.085	-0.202
-458.040	18.000	-0.398	0.319
-457.026	-200.000	0.071	0.373
-456.011	800.000	-0.099	-0.428
-454.997	800.000	0.075	0.300
-453.982	-200.000	0.026	0.409
-452.968	17.363	-0.005	0.004
-451.953	-118.114	-0.134	0.024
-450.938	-81.997	-0.248	-0.082
-449.924	-200.000	-0.002	-0.028
-448.909	45.752	-0.042	0.039
-447.895	-124.993	-0.055	-0.008
-446.880	-7.979	0.073	-0.049
-445.865	-131.695	-0.057	-0.008
-444.851	19.004	-0.188	0.152
-443.836	70.350	-0.148	-0.154
-442.822	564.424	-0.107	-0.260
-441.807	267.424	0.147	-0.259
-440.792	143.878	-0.050	0.067
-439.778	-136.078	0.170	-0.020
-438.763	411.086	0.058	-0.123
-437.749	128.538	-0.210	-0.269
-436.734	111.502	0.135	-0.164
-435.719	295.315	0.058	-0.107
-434.705	-182.414	-0.292	-0.005
-433.690	-200.000	-0.034	-0.165
-432.676	304.681	0.107	0.200
-431.661	27.746	-0.088	0.074
-430.646	-200.000	0.046	0.339
-429.632	-144.530	-0.377	0.035
-428.617	-153.180	-0.117	-0.008
-427.603	477.218	0.145	-0.329
-426.588	-200.000	-0.031	-0.215
-425.573	-161.021	0.211	0.011
-424.559	93.760	0.147	0.167
-423.544	-101.267	0.300	0.073
-422.530	800.000	0.066	0.213
-421.515	-200.000	-0.030	0.216
-420.500	139.532	-0.136	-0.179
-419.486	-200.000	0.007	0.093
-418.471	-200.000	-0.055	-0.246
-417.457	-200.000	0.032	-0.393
-416.442	23.343	-0.144	0.119
-415.428	67.780	-0.040	-0.041
-414.413	-200.000	-0.001	-0.095
-413.398	-200.000	-0.022	0.173
-412.384	800.000	0.052	-0.167
-411.369	204.172	0.166	0.257
-410.355	800.000	0.064	-0.263
-409.340	-86.505	0.303	0.093
-408.325	-200.000	-0.013	-0.068
-407.311	-45.117	0.242	0.121
-406.296	-52.961	-0.135	0.062
-405.282	-200.000	-0.015	-0.116
-404.267	-78.684	-0.193	-0.066
-403.252	-200.000	-0.245	-0.001
-402.238	395.019	0.096	0.201
-401.223	202.247	-0.058	0.089
-400.209	800.000	-0.111	-0.335
-399.194	74.279	-0.270	0.284
-398.179	-200.000	-0.013	0.075
-397.165	800.000	-0.102	-0.324
-396.150	295.996	-0.129	-0.237
-395.136	-128.751	-0.025	-0.004
-394.121	7.774	0.164	-0.123
-393.106	45.145	0.119	0.110
-392.092	-26.978	-0.219	-0.128
-391.077	273.458	-0.126	0.224
-390.063	11.393	-0.154	-0.118
-389.048	800.000	-0.030	-0.102
-388.033	-104.788	0.354	-0.082
-387.019	118.642	-0.100	0.124
-386.004	-200.000	-0.046	-0.240
-384.990	-200.000	0.029	-0.191
-383.975	-134.745	-0.341	-0.041
-382.960	-132.551	-0.378	0.049
-381.946	-8.136	0.241	0.162
-380.931	53.201	0.206	0.198
-379.917	-81.907	0.295	0.097
-378.902	-200.000	0.030	0.173
-377.888	-126.481	-0.266	0.040
-376.873	-192.250	0.203	-0.002
-375.858	-42.616	0.226	0.115
-374.844	-28.721	-0.068	-0.039
-373.829	580.246	0.101	-0.247
-372.815	800.000	0.090	0.260
-371.800	21.572	0.187	0.152
-370.785	-0.699	0.154	0.109
-369.771	68.480	-0.209	-0.215
-368.756	-110.340	0.076	-0.016
-367.742	-116.519	0.478	-0.088
-366.727	-200.000	-0.060	-0.294
-365.712	-200.000	-0.007	-0.348
-364.698	-85.873	0.236	-0.073
-363.683	701.998	-0.094	0.248
-362.669	46.158	-0.051	0.048
-361.654	-122.228	0.036	-0.006
-360.639	365.895	0.075	-0.152
-359.625	-14.335	-0.370	-0.239
-358.610	-200.000	-0.020	-0.094
-357.596	-15.928	-0.232	-0.148
-356.581	-200.000	0.064	-0.501
-355.566	-55.439	-0.164	-0.074
-354.552	196.726	-0.107	0.163
-353.537	-134.548	-0.066	0.008
-352.523	-84.131	0.088	0.028
-351.508	-15.268	-0.125	-0.080
-350.493	-200.000	0.078	0.347
-349.479	800.000	0.091	0.373
-348.464	-83.704	0.157	0.050
-347.450	89.689	-0.325	0.363
-346.435	-151.996	0.334	0.024
-345.420	149.223	-0.175	0.237
-344.406	-45.606	0.451	0.223
-343.391	1.167	-0.157	-0.112
-342.377	-10.561	0.235	0.156
-341.362	732.141	0.011	0.029
-340.348	-200.000	-0.011	-0.074
-339.333	218.257	0.148	-0.236
-338.318	-20.632	0.246	-0.151
-337.304	367.368	0.119	-0.241
-336.289	-200.000	0.005	0.063
-335.275	136.602	0.272	0.355
-334.260	-200.000	0.026	0.311
-333.245	276.544	0.083	0.147
-332.231	-23.569	0.136	-0.082
-331.216	169.301	-0.054	0.078
-330.202	-51.866	-0.133	-0.062
-329.187	222.464	0.176	0.284
-328.172	-143.077	-0.171	0.016
-327.158	-200.000	-0.000	-0.072
-326.143	-200.000	-0.000	-0.161
-325.129	42.096	-0.164	0.149
-324.114	-65.011	-0.314	-0.127
-323.099	-200.000	-0.008	-0.062
-322.085	77.181	-0.019	0.020
-321.070	-54.555	0.313	0.142
-320.056	82.254	0.120	0.130
-319.041	-154.535	0.081	0.005
-318.026	-200.000	-0.062	-0.373
-317.012	-200.000	-0.027	0.470
-315.997	-200.000	-0.028	0.151
-314.983	-52.171	0.225	-0.104
-313.968	-62.356	-0.369	-0.154
-312.953	-69.867	-0.098	-0.037
-311.939	-105.975	0.032	-0.007
-310.924	512.767	-0.121	-0.281
-309.910	-200.000	0.013	-0.370
-308.895	-162.921	-0.176	-0.009
-307.880	-200.000	-0.032	-0.191
-306.866	-110.727	-0.240	0.050
-305.851	-64.008	0.448	0.183
-304.837	154.488	0.174	0.239
-303.822	-93.489	-0.026	0.007
-302.807	204.177	-0.191	0.296
-301.793	-182.502	0.121	0.002
-300.778	-200.000	0.018	0.184
-299.764	-200.000	-0.009	0.167
-298.749	388.698	-0.011	-0.023
-297.735	-77.462	0.186	0.065
-296.720	209.922	0.238	0.374
-295.705	-173.296	0.503	0.015
-294.691	-70.912	0.095	-0.036
-293.676	-200.000	0.009	0.064
-292.662	76.702	-0.157	0.166
-291.647	800.000	-0.071	-0.222
-290.632	-31.377	-0.200	-0.112
-289.618	463.860	0.034	-0.076
-288.603	-200.000	0.022	0.214
-287.589	38.081	0.088	0.078
-286.574	119.525	0.222	-0.274
-285.559	-123.869	0.040	-0.006
-284.545	-42.329	-0.288	0.147
-283.530	112.262	-0.151	0.182
-282.516	74.285	0.190	0.200
-281.501	-120.427	-0.176	0.030
-280.486	106.697	-0.209	0.248
-279.472	-200.000	-0.004	-0.036
-278.457	-123.179	0.299	-0.048
-277.443	800.000	-0.040	0.152
-276.428	-26.843	0.424	-0.247
-275.413	19.647	0.155	-0.125
-274.399	-200.000	-0.019	0.169
-273.384	800.000	-0.043	-0.118
-272.370	800.000	-0.020	0.072
-271.355	-52.090	-0.035	0.016
-270.340	279.333	-0.101	0.179
-269.326	163.897	0.048	0.068
-268.311	-130.202	-0.469	0.064
-267.297	-200.000	-0.069	0.322
-266.282	-69.888	0.082	-0.031
-265.267	-63.078	-0.228	0.094
-264.253	800.000	0.017	-0.067
-263.238	-53.338	0.279	0.128
-262.224	-34.349	-0.305	-0.167
-261.209	-200.000	-0.008	-0.038
-260.195	11.139	-0.205	0.157
-259.180	-181.231	-0.217	0.004
-258.165	-9.892	-0.136	-0.090
-257.151	64.342	0.073	-0.073
-256.136	-200.000	0.045	-0.213
-255.122	0.966	-0.136	0.098
-254.107	-200.000	0.003	0.224
-253.092	25.736	0.166	-0.138
-252.078	110.973	-0.123	0.147
-251.063	-113.485	-0.301	0.059
-250.049	-25.559	0.153	-0.090
-249.034	-200.000	-0.015	0.307
-248.019	413.936	0.027	0.057
-247.005	-11.080	-0.195	-0.128
-245.990	-155.750	0.213	-0.014
-244.976	800.000	-0.078	0.225
-243.961	-200.000	-0.008	-0.100
-242.946	126.782	0.094	0.118
-241.932	125.319	0.034	0.043
-240.917	800.000	0.081	0.306
-239.903	-98.047	-0.508	0.130
-238.888	638.627	0.080	-0.204
-237.873	800.000	0.095	0.311
-236.859	-115.285	-0.146	0.027
-235.844	176.876	-0.043	-0.062
-234.830	375.916	0.065	-0.132
-233.815	-180.331	-0.082	0.002
-232.800	-200.000	-0.020	-0.264
-231.786	-140.259	0.412	0.043
-230.771	-200.000	-0.000	-0.126
-229.757	-51.946	0.053	0.025
-228.742	-200.000	0.036	0.198
-227.727	-14.226	0.117	-0.075
-226.713	-200.000	-0.030	-0.432
-225.698	800.000	0.076	-0.241
-224.684	-47.333	0.165	-0.080
-223.669	-152.877	0.452	0.032
-222.655	-89.453	-0.132	0.039
-221.640	-4.529	-0.266	0.183
-220.625	197.137	-0.117	-0.178
-219.611	162.941	0.044	-0.061
-218.596	-200.000	-0.017	0.099
-217.582	68.799	0.209	-0.214
-216.567	47.321	-0.119	0.110
-215.552	157.943	0.191	-0.264
-214.538	-126.793	0.097	0.014
-213.523	-132.348	0.237	0.031
-212.509	-37.980	-0.167	0.088
-211.494	252.577	0.023	0.038
-210.479	35.986	0.079	0.069
-209.465	141.378	0.055	-0.072
-208.450	-47.515	0.054	0.026
-207.436	153.212	-0.174	-0.236
-206.421	-68.347	-0.331	-0.128
-205.406	50.585	0.124	0.117
-204.392	-11.642	-0.081	-0.053
-203.377	337.049	-0.163	0.314
-202.363	-82.747	0.486	-0.156
-201.348	-27.516	0.129	-0.074
-200.333	-200.000	0.001	-0.021
-199.319	-82.251	-0.048	-0.016
-198.304	87.373	-0.110	0.122
-197.290	227.265	0.099	0.160
-196.275	16.852	-0.176	-0.139
-195.260	-23.884	0.209	0.124
-194.246	-27.530	0.135	0.078
-193.231	800.000	-0.094	0.332
-192.217	8.124	-0.390	-0.291
-191.202	45.538	0.227	-0.209
-190.187	-175.586	0.160	-0.004
-189.173	-105.952	-0.184	-0.041
-188.158	710.346	0.141	0.370
-187.144	83.963	-0.226	-0.246
-186.129	273.919	0.147	-0.258
-185.114	-61.419	0.376	-0.157
-184.100	20.398	-0.157	-0.126
-183.085	620.034	-0.096	0.240
-182.071	-102.561	0.221	-0.052
-181.056	11.179	-0.293	-0.223
-180.042	-200.000	0.031	-0.282
-179.027	-149.638	0.260	-0.020
-178.012	-200.000	0.002	0.153
-176.998	103.017	0.107	0.124
-175.983	-27.843	-0.149	-0.086
-174.969	112.942	-0.176	0.212
-173.954	38.450	-0.033	0.029
-172.939	-14.608	0.189	-0.121
-171.925	-60.992	0.533	0.224
-170.910	-72.349	0.164	-0.060
-169.896	373.655	0.076	0.153
-168.881	-200.000	0.003	0.149
-167.866	-101.142	0.209	0.051
-166.852	-111.607	0.326	-0.066
-165.837	-13.021	-0.134	0.087
-164.823	86.802	0.098	-0.108
-163.808	-133.961	-0.160	-0.020
-162.793	56.913	0.101	0.098
-161.779	18.064	0.221	0.175
-160.764	110.780	-0.166	-0.198
-159.750	104.451	-0.053	0.062
-158.735	-200.000	-0.017	0.199
-157.720	800.000	0.002	0.007
-156.706	-200.000	-0.035	-0.268
-155.691	-93.277	-0.129	0.036
-154.677	-57.705	0.226	0.098
-153.662	-117.666	0.131	0.023
-152.647	107.868	0.170	0.201
-151.633	-16.419	-0.234	0.147
-150.618	-55.419	-0.057	0.025
-149.604	-41.875	-0.123	-0.063
-148.589	113.441	0.042	0.051
-147.574	127.573	0.079	-0.099
-146.560	-48.951	0.202	0.096
-145.545	-146.217	-0.248	0.022
-144.531	38.768	0.424	0.376
-143.516	58.718	0.132	0.128
-142.502	-67.859	-0.355	0.138
-141.487	218.956	0.075	-0.118
-140.472	536.003	-0.015	0.035
-139.458	-200.000	0.034	0.192
-138.443	-200.000	-0.015	-0.212
-137.429	-200.000	-0.009	0.187
-136.414	222.149	0.038	0.060
-135.399	572.505	0.114	-0.276
-134.385	800.000	-0.080	0.320
-133.370	-180.396	0.316	0.007
-132.356	-121.847	-0.370	0.060
-131.341	-67.698	0.259	-0.101
-130.326	583.801	-0.008	-0.018
-129.312	-53.850	-0.309	0.140
-128.297	-22.221	-0.110	0.066
-127.283	242.197	0.039	-0.065
-126.268	203.821	-0.107	-0.165
-125.253	800.000	0.047	-0.197
-124.239	109.529	0.181	-0.215
-123.224	-200.000	0.058	-0.298
-122.210	408.329	0.087	0.183
-121.195	-30.096	-0.461	-0.260
-120.180	800.000	-0.116	-0.367
-119.166	-200.000	-0.001	-0.038
-118.151	-85.619	0.118	-0.036
-117.137	-44.801	0.067	-0.033
-116.122	-90.323	-0.060	-0.017
-115.107	225.182	0.195	0.313
-114.093	36.858	0.179	0.157
-113.078	79.800	0.057	-0.061
-112.064	45.441	0.101	-0.093
-111.049	-165.839	-0.212	0.009
-110.034	800.000	-0.003	-0.009
-109.020	108.259	0.133	0.158
-108.005	-92.830	0.053	0.015
-106.991	-101.175	-0.254	0.062
-105.976	120.617	0.032	-0.039
-104.962	127.997	0.028	0.036
-103.947	223.767	0.161	0.258
-102.932	-200.000	0.049	0.277
-101.918	287.044	-0.019	0.034
-100.903	316.423	-0.037	-0.069
-99.889	59.268	-0.224	-0.218
-98.874	-7.619	-0.102	-0.068
-97.859	-19.487	-0.082	0.050
-96.845	-200.000	-0.027	0.258
-95.830	-153.584	-0.051	-0.003
-94.816	-200.000	-0.006	-0.474
-93.801	-200.000	-0.030	-0.194
-92.786	-97.443	-0.428	0.110
-91.772	-200.000	0.018	0.173
-90.757	74.659	0.253	-0.264
-89.743	139.191	-0.082	-0.107
-88.728	-15.163	0.173	-0.110
-87.713	-200.000	-0.001	-0.256
-86.699	505.844	0.162	-0.373
-85.684	29.771	0.075	-0.063
-84.670	48.390	-0.074	0.068
-83.655	132.621	-0.038	0.049
-82.640	97.790	0.216	0.246
-81.626	89.220	-0.169	0.187
-80.611	111.921	-0.080	0.096
-79.597	-73.893	0.185	0.066
-78.582	0.303	-0.096	-0.068
-77.567	-116.197	0.193	-0.036
-76.553	-84.021	-0.125	-0.039
-75.538	-200.000	0.053	-0.329
-74.524	-200.000	0.013	0.086
-73.509	-87.034	0.255	0.077
-72.494	-57.694	0.153	0.066
-71.480	-38.420	0.077	0.040
-70.465	800.000	-0.039	-0.158
-69.451	-19.486	-0.368	0.226
-68.436	16.011	0.156	0.122
-67.422	800.000	-0.100	-0.363
-66.407	-200.000	-0.001	0.009
-65.392	-200.000	0.009	0.334
-64.378	89.600	-0.219	0.242
-63.363	-85.555	0.188	-0.058
-62.349	-200.000	0.006	-0.030
-61.334	206.547	-0.614	-0.947
-60.319	117.152	0.351	0.426
-59.305	800.000	-0.244	-0.878
-58.290	-200.000	0.229	1.067
-57.276	800.000	0.371	1.501
-56.261	-200.000	96.961	567.524
-55.246	624.709	1394.255	3477.729
-54.232	186.771	2604.161	3837.557
-53.217	120.194	2182.528	2679.292
-52.203	46.163	1631.917	1495.265
-51.188	37.768	1367.778	1201.702
-50.173	34.542	1324.762	1144.547
-49.159	55.703	1373.380	1316.247
-48.144	59.625	1391.486	1357.477
-47.130	38.227	1346.015	1185.177
-46.115	34.660	1327.416	1147.367
-45.100	34.311	1323.346	1141.714
-44.086	34.329	1320.983	1139.736
-43.071	34.254	1318.673	1137.252
-42.057	34.181	1316.541	1134.931
-41.042	34.319	1314.504	1133.951
-40.027	34.175	1313.820	1132.462
-39.013	34.308	1311.564	1131.260
-37.998	34.265	1309.461	1129.149
-36.984	34.285	1308.192	1128.129
-35.969	34.385	1306.050	1126.826
-34.954	34.464	1304.138	1125.596
-33.940	34.458	1303.409	1124.887
-32.925	34.437	1301.817	1123.348
-31.911	34.540	1300.244	1122.552
-30.896	34.595	1298.555	1121.369
-29.881	34.456	1297.413	1119.526
-28.867	34.341	1296.215	1117.771
-27.852	34.476	1294.446	1116.993
-26.838	34.535	1292.708	1115.792
-25.823	34.478	1291.809	1114.641
-24.809	34.468	1290.376	1113.300
-23.794	34.377	1289.425	1111.907
-22.779	34.538	1287.699	1111.309
-21.765	34.535	1286.430	1110.153
-20.750	34.482	1285.037	1108.600
-19.736	34.326	1284.095	1106.838
-18.721	34.334	1282.887	1105.795
-17.706	34.263	1281.891	1104.485
-16.692	34.381	1280.413	1103.848
-15.677	34.364	1279.037	1102.522
-14.663	34.385	1277.718	1101.461
-13.648	34.295	1276.947	1100.236
-12.633	34.280	1276.059	1099.339
-11.619	34.377	1275.202	1099.115
-10.604	34.340	1274.272	1098.059
-9.590	34.279	1273.194	1096.736
-8.575	34.261	1272.311	1095.828
-7.560	34.284	1271.367	1095.103
-6.546	34.288	1270.498	1094.331
-5.531	34.108	1269.965	1092.795
-4.517	34.232	1268.880	1092.532
-3.502	34.287	1267.983	1092.031
-2.487	34.264	1267.648	1091.568
-1.473	34.366	1263.377	1088.431
-0.458	33.050	1248.198	1067.878
0.556	28.399	1230.059	1029.146
1.571	24.519	1235.007	1011.270
2.586	23.349	1250.514	1017.162
3.600	22.673	1239.715	1004.441
4.615	17.548	1167.793	918.518
5.629	9.170	1091.422	815.975
6.644	5.295	1071.239	781.460
7.659	5.034	1068.273	777.926
8.673	4.935	1067.288	776.650
9.688	4.917	1065.489	775.181
10.702	5.237	1064.225	775.782
11.717	10.221	1071.577	805.950
12.731	17.447	1081.192	849.296
13.746	19.300	1083.195	860.050
14.761	18.143	1080.803	852.312
15.775	17.111	1078.400	845.203
16.790	16.062	1076.405	838.353
17.804	15.253	1074.799	833.007
18.819	14.785	1073.899	829.912
19.834	14.575	1072.521	827.730
20.848	14.352	1071.866	826.050
21.863	14.254	1071.003	824.824
22.877	14.128	1070.213	823.519
23.892	13.939	1069.528	821.984
24.907	13.883	1068.907	821.158
25.921	14.063	1067.556	820.937
26.936	14.028	1066.442	819.834
27.950	14.030	1065.337	818.920
28.965	14.070	1063.729	817.809
29.980	14.247	1061.775	817.104
30.994	14.231	1060.607	816.056
32.009	14.208	1059.741	815.202
33.023	14.265	1058.869	814.740
34.038	14.350	1057.449	813.989
35.053	14.154	1056.461	812.202
36.067	14.167	1055.778	811.666
37.082	14.190	1054.972	811.090
38.096	14.194	1054.223	810.457
39.111	14.231	1053.469	809.987
40.126	14.175	1051.892	808.429
41.140	13.936	1051.295	806.741
42.155	14.076	1049.307	805.822
43.169	13.872	1048.694	804.293
44.184	13.961	1047.582	803.800
45.199	13.945	1046.453	802.785
46.213	14.043	1045.184	802.211
47.228	13.998	1044.456	801.364
48.242	14.136	1043.324	801.093
49.257	14.163	1042.341	800.394
50.271	14.105	1041.641	799.508
51.286	14.142	1041.133	799.226
52.301	14.012	1039.733	797.459
53.315	14.170	1038.082	796.877
54.330	14.071	1037.130	795.602
55.344	13.884	1037.136	794.639
56.359	14.025	1035.802	794.224
57.374	14.072	1034.408	793.308
58.388	13.879	1034.049	792.042
59.403	14.011	1032.855	791.686
60.417	14.015	1032.220	791.146
61.432	13.996	1030.966	790.028
62.447	13.851	1030.204	788.685
63.461	13.843	1029.565	788.086
64.476	13.917	1028.680	787.690
65.490	13.737	1028.186	786.390
66.505	13.822	1027.222	785.987
67.520	13.899	1026.649	785.840
68.534	13.913	1025.768	785.163
69.549	13.839	1025.062	784.202
70.563	13.874	1024.125	783.583
71.578	13.858	1023.441	782.916
72.593	13.735	1022.767	781.751
73.607	13.703	1022.253	781.138
74.622	13.789	1021.795	781.125
75.636	13.693	1020.743	779.798
76.651	13.917	1019.560	779.876
77.666	13.783	1018.892	778.670
78.680	13.753	1018.415	778.096
79.695	13.813	1018.087	778.057
80.709	13.858	1017.307	777.603
81.724	13.945	1016.694	777.474
82.739	14.024	1015.709	777.018
83.753	14.119	1015.185	776.996
84.768	14.327	1013.974	776.970
85.782	14.313	1013.458	776.440
86.797	14.287	1012.341	775.395
87.812	14.050	1011.735	773.760
88.826	14.152	1010.703	773.376
89.841	14.175	1009.703	772.647
90.855	14.239	1008.848	772.222
91.870	14.222	1008.096	771.498
92.884	14.358	1007.353	771.495
93.899	14.188	1006.569	770.035
94.914	14.349	1005.301	769.741
95.928	14.295	1004.484	768.800
96.943	14.243	1003.843	768.003
97.957	14.220	1002.738	766.981
98.972	14.186	1002.155	766.312
99.987	14.160	1001.329	765.492
101.001	14.262	1000.019	764.893
102.016	14.102	999.437	763.644
103.030	14.217	998.865	763.668
104.045	14.183	997.900	762.705
105.060	14.135	996.886	761.647
106.074	14.120	995.850	760.716
107.089	14.020	994.579	759.224
108.103	13.934	993.710	758.097
109.118	13.928	993.198	757.612
110.133	13.897	992.027	756.515
111.147	14.072	990.861	756.351
112.162	13.925	990.944	755.680
113.176	14.045	989.942	755.396
114.191	14.058	989.216	754.832
115.206	14.134	987.943	754.138
116.220	13.911	987.388	752.640
117.235	14.041	986.458	752.451
118.249	13.967	985.932	751.650
119.264	14.127	984.981	751.581
120.279	14.073	983.869	750.419
121.293	14.014	983.045	749.461
122.308	13.888	982.408	748.343
123.322	13.961	981.418	747.850
124.337	13.847	980.140	746.295
125.352	13.962	979.257	746.075
126.366	13.924	978.134	744.985
127.381	13.864	977.327	744.032
128.395	13.931	976.776	743.849
129.410	14.109	975.231	743.401
130.424	14.025	974.580	742.463
131.439	14.073	974.035	742.197
132.454	14.059	973.060	741.326
133.468	14.061	972.696	740.995
134.483	14.126	971.456	740.272
135.497	14.187	970.642	739.858
136.512	14.218	969.532	739.082
137.527	14.037	969.073	737.864
138.541	14.037	968.340	737.244
139.556	14.156	967.653	737.180
140.570	14.338	966.991	737.416
141.585	14.358	965.936	736.634
142.600	14.312	965.371	735.937
143.614	14.434	964.213	735.525
144.629	14.404	963.727	734.958
145.643	14.256	962.545	733.341
146.658	14.262	961.438	732.459
147.673	14.285	960.524	731.799
148.687	14.116	960.140	730.697
149.702	14.168	959.292	730.216
150.716	14.091	958.640	729.318
151.731	14.302	957.421	729.249
152.746	14.206	956.633	728.166
153.760	14.250	956.507	728.197
154.775	14.312	955.766	727.843
155.789	14.318	955.105	727.300
156.804	14.419	954.061	726.882
157.819	14.404	953.698	726.476
158.833	14.403	953.520	726.270
159.848	14.531	952.112	725.690
160.862	14.435	951.367	724.641
161.877	14.370	950.216	723.417
162.892	14.344	949.699	722.848
163.906	14.236	948.290	721.245
164.921	14.288	947.764	721.002
165.935	14.209	947.224	720.188
166.950	14.356	945.918	719.767
167.964	14.342	945.461	719.292
168.979	14.282	944.115	717.949
169.994	14.327	943.453	717.573
171.008	14.333	942.867	717.092
172.023	14.381	942.151	716.692
173.037	14.486	941.368	716.481
174.052	14.471	940.750	715.883
175.067	14.432	940.017	715.096
176.081	14.319	939.651	714.268
177.096	14.361	939.031	713.916
178.110	14.402	938.525	713.641
179.125	14.500	937.499	713.219
180.140	14.425	937.123	712.549
181.154	14.447	936.948	712.447
182.169	14.619	936.404	712.704
183.183	14.534	935.770	711.795
184.198	14.695	934.276	711.284
185.213	14.697	933.539	710.668
186.227	14.646	933.610	710.440
187.242	14.610	933.130	709.860
188.256	14.878	931.872	709.978
189.271	14.660	931.582	708.770
190.286	14.530	930.653	707.449
191.300	14.510	929.354	706.314
192.315	14.477	929.232	706.019
193.329	14.357	928.620	704.984
194.344	14.550	927.514	704.896
195.359	14.592	927.407	704.929
196.373	14.687	926.636	704.685
197.388	14.660	926.274	704.232
198.402	14.852	925.751	704.582
199.417	14.837	925.149	703.997
200.432	14.762	924.892	703.424
201.446	14.953	924.109	703.571
202.461	15.109	923.356	703.590
203.475	15.056	923.269	703.238
204.490	14.941	922.048	701.761
205.504	14.910	921.104	700.851
206.519	14.869	920.963	700.511
207.534	14.826	920.097	699.612
208.548	14.825	919.351	698.978
209.563	14.748	919.090	698.395
210.577	14.823	917.953	697.782
211.592	14.868	917.508	697.571
212.607	15.036	916.874	697.729
213.621	15.033	915.799	696.837
214.636	15.076	915.221	696.512
215.650	15.004	914.954	695.949
216.665	15.013	913.909	695.130
217.680	15.153	913.342	695.218
218.694	15.165	912.679	694.703
219.709	15.121	912.171	694.072
220.723	15.155	911.273	693.468
221.738	15.196	910.404	692.914
222.753	15.086	910.648	692.581
223.767	15.214	909.568	692.231
224.782	15.200	908.966	691.653
225.796	15.286	908.767	691.794
226.811	15.257	907.975	691.011
227.826	15.260	906.801	690.070
228.840	15.191	905.819	688.976
229.855	15.144	905.342	688.361
230.869	15.276	904.507	688.207
231.884	15.096	903.851	686.909
232.899	15.176	903.603	686.985
233.913	15.048	902.427	685.509
234.928	15.173	901.599	685.329
235.942	15.038	901.446	684.598
236.957	15.134	900.932	684.541
237.972	15.237	899.777	684.022
238.986	15.114	899.749	683.437
240.001	15.176	899.052	683.103
241.015	15.331	898.061	682.919
242.030	15.260	897.755	682.339
243.045	15.270	897.151	681.857
244.059	15.241	896.432	681.133
245.074	15.413	896.185	681.586
246.088	15.372	895.359	680.729
247.103	15.377	894.397	679.961
248.117	15.365	894.421	679.868
249.132	15.640	893.543	680.255
250.147	15.648	892.832	679.684
251.161	15.611	892.384	679.134
252.176	15.706	891.645	678.896
253.190	15.828	890.703	678.611
254.205	15.858	890.355	678.405
255.220	15.804	889.994	677.855
256.234	15.706	888.917	676.578
257.249	15.702	888.588	676.252
258.263	15.787	887.814	675.944
259.278	15.862	887.071	675.623
260.293	15.882	886.697	675.357
261.307	15.921	886.109	675.005
262.322	15.982	885.564	674.775
263.336	15.983	884.791	674.129
264.351	15.997	884.178	673.657
265.366	15.926	883.612	672.885
266.380	15.987	882.564	672.271
267.395	16.057	881.500	671.679
268.409	15.913	881.396	670.966
269.424	15.957	880.577	670.460
270.439	15.880	879.856	669.544
271.453	15.936	878.709	668.837
272.468	15.861	878.332	668.191
273.482	15.977	878.005	668.343
274.497	15.868	877.407	667.398
275.512	15.989	876.606	667.209
276.526	16.032	876.430	667.185
277.541	16.020	875.867	666.650
278.555	16.020	875.275	666.142
279.570	16.222	874.348	666.172
280.585	16.139	873.652	665.256
281.599	16.149	872.863	664.636
282.614	15.954	872.864	663.811
283.628	16.047	871.933	663.410
284.643	16.152	871.278	663.265
285.657	16.203	870.662	662.937
286.672	16.135	870.231	662.286
287.687	16.250	869.278	661.953
288.701	16.063	869.169	661.076
289.716	16.271	868.123	661.039
290.730	16.264	867.325	660.342
291.745	16.240	867.257	660.140
292.760	16.300	866.047	659.394
293.774	16.366	865.861	659.452
294.789	16.374	865.032	658.794
295.803	16.317	864.210	657.886
296.818	16.345	863.818	657.640
297.833	16.231	863.356	656.787
298.847	16.201	862.681	656.099
299.862	16.394	861.918	656.209
300.876	16.361	861.480	655.689
301.891	16.444	860.640	655.316
302.906	16.330	860.637	654.811
303.920	16.517	860.138	655.100
304.935	16.646	859.244	654.859
305.949	16.625	858.718	654.320
306.964	16.611	857.947	653.620
307.979	16.589	857.657	653.254
308.993	16.541	856.969	652.489
310.008	16.603	856.612	652.400
311.022	16.506	855.979	651.486
312.037	16.473	855.085	650.620
313.052	16.527	854.469	650.303
314.066	16.504	854.070	649.851
315.081	16.442	853.708	649.280
316.095	16.376	853.383	648.724
317.110	16.514	852.116	648.233
318.125	16.459	851.897	647.795
319.139	16.456	851.886	647.718
320.154	16.532	850.875	647.182
321.168	16.482	850.477	646.632
322.183	16.595	849.692	646.411
323.197	16.536	849.189	645.745
324.212	16.627	848.473	645.492
325.227	16.610	847.758	644.827
326.241	16.556	847.515	644.377
327.256	16.567	846.940	643.924
328.270	16.633	846.283	643.618
329.285	16.509	845.761	642.695
330.300	16.616	845.082	642.528
331.314	16.650	844.822	642.402
332.329	16.772	844.156	642.301
333.343	16.719	843.986	641.913
334.358	16.753	843.436	641.567
335.373	16.732	843.131	641.201
336.387	16.751	842.628	640.834
337.402	16.840	842.802	641.244
338.416	16.972	841.965	641.050
339.431	17.039	841.927	641.217
340.446	16.952	841.064	640.174
341.460	17.022	840.972	640.314
342.475	17.073	840.606	640.168
343.489	17.139	840.072	639.957
344.504	17.075	839.477	639.202
345.519	17.166	839.036	639.156
346.533	17.205	838.209	638.613
347.548	17.062	838.194	638.011
348.562	17.055	837.226	637.191
349.577	17.149	836.693	637.079
350.592	17.029	835.974	636.025
351.606	16.978	835.584	635.482
352.621	17.016	834.951	635.086
353.635	17.218	833.852	634.950
354.650	17.011	833.508	633.860
355.665	17.159	832.936	633.920
356.679	17.093	832.429	633.231
357.694	17.213	831.684	633.056
358.708	17.185	831.213	632.536
359.723	17.291	830.475	632.314
360.738	17.195	829.794	631.384
361.752	17.170	829.156	630.750
362.767	17.336	828.510	630.816
363.781	17.440	828.258	630.956
364.796	17.329	828.048	630.328
365.810	17.449	827.790	630.520
366.825	17.506	827.056	630.118
367.840	17.503	826.848	629.891
368.854	17.557	826.235	629.567
369.869	17.443	825.731	628.708
370.883	17.518	825.268	628.576
371.898	17.586	824.760	628.386
372.913	17.621	824.614	628.346
373.927	17.494	824.072	627.410
374.942	17.582	823.570	627.295
375.956	17.563	823.112	626.823
376.971	17.745	822.264	626.789
377.986	17.715	822.287	626.642
379.000	17.688	821.900	626.191
380.015	17.700	821.365	625.775
381.029	17.807	820.479	625.434
382.044	17.845	819.762	624.971
383.059	17.677	819.962	624.455
384.073	17.559	819.258	623.431
385.088	17.669	818.137	622.924
386.102	17.564	817.627	622.096
387.117	17.677	817.154	622.095
388.132	17.724	816.516	621.724
389.146	17.635	816.345	621.217
390.161	17.734	815.814	621.117
391.175	17.919	815.076	621.175
392.190	17.769	814.891	620.434
393.205	17.607	814.250	619.302
394.219	17.789	813.663	619.460
395.234	17.710	813.549	619.032
396.248	17.562	813.030	618.046
397.263	17.563	812.655	617.711
398.278	17.678	812.145	617.683
399.292	17.689	811.551	617.217
400.307	17.664	811.122	616.746
401.321	17.700	810.718	616.514
402.336	17.681	810.392	616.142
403.350	17.605	810.247	615.705
404.365	17.950	809.476	616.309
405.380	18.104	808.703	616.222
406.394	17.922	808.741	615.538
407.409	18.020	808.036	615.302
408.423	17.984	807.699	614.859
409.438	17.933	807.387	614.385
410.453	18.151	806.846	614.701
411.467	18.268	806.397	614.726
412.482	18.260	805.875	614.247
413.496	18.272	805.731	614.125
414.511	18.435	805.135	614.198
415.526	18.301	804.680	613.319
416.540	18.146	804.547	612.606
417.555	18.130	804.129	612.177
418.569	18.240	803.945	612.377
419.584	18.158	803.360	611.584
420.599	18.332	802.409	611.428
421.613	153.464	1370.225	1790.168
422.628	133.032	1452.982	1790.246
