DTS Sentinel unit serial number:	SN413079Multiplexer serial number:	ORYXHardware model number:	OX4-SRSoftware version number:	ORYX F/W v4.00 Oryx Data Collector v3.7.2.0data status	okinstallation	princeton_trtdifferential loss correction	single-endedforward channel	channel 1reverse channel	N/Adate	2019/09/15time	15:18:35forward acquisition time	60.00reverse acquisition time	0.00gamma	496.2192k internal	0.2292k external	0.2292temperature offset calibration	0.9945default loss term (dB/km)	0.3790temperature slope calibration	1.0000multiplexer offset coefficient	1.0000multiplexer slope coefficient	1.0000fibre end	0.00T internal ref (°C)	40.81T ext. ref 1 (°C)	5.02T ext. ref 2 (°C)	38.18length (m)	temperature (°C)	Stokes	anti-Stokes-747.200	318.488	0.051	0.098
-746.185	-153.844	0.117	0.008
-745.171	-190.289	0.180	-0.002
-744.156	460.352	-0.073	0.167
-743.142	-148.596	-0.111	-0.009
-742.127	59.377	-0.210	0.211
-741.112	19.795	0.275	-0.227
-740.098	-69.389	0.230	0.090
-739.083	125.635	0.113	-0.146
-738.069	107.557	-0.168	0.205
-737.054	-40.056	-0.023	-0.012
-736.039	-12.854	0.155	-0.103
-735.025	-200.000	0.039	0.235
-734.010	104.018	-0.190	0.229
-732.996	567.374	0.047	-0.118
-731.981	-200.000	-0.021	-0.464
-730.966	-55.050	0.194	-0.089
-729.952	-142.042	-0.201	-0.020
-728.937	800.000	-0.034	-0.142
-727.923	-200.000	-0.004	-0.106
-726.908	610.286	-0.070	-0.178
-725.894	154.376	-0.224	0.314
-724.879	127.583	-0.213	-0.277
-723.864	14.142	-0.333	-0.265
-722.850	137.280	0.152	0.204
-721.835	69.387	0.177	-0.186
-720.821	800.000	-0.021	-0.074
-719.806	75.472	-0.200	0.216
-718.791	-200.000	-0.038	0.180
-717.777	-156.259	0.222	-0.014
-716.762	-196.088	0.235	0.002
-715.748	275.491	0.022	0.039
-714.733	800.000	0.086	0.291
-713.718	-162.521	-0.127	0.006
-712.704	-89.158	-0.164	-0.049
-711.689	272.338	-0.044	0.079
-710.675	-95.220	-0.097	0.027
-709.660	526.169	0.047	-0.114
-708.645	-42.181	0.189	-0.099
-707.631	-159.138	-0.118	0.007
-706.616	-200.000	-0.001	-0.162
-705.602	-187.659	0.242	-0.003
-704.587	76.823	0.169	0.183
-703.572	17.408	0.284	-0.230
-702.558	148.342	0.127	0.175
-701.543	800.000	0.029	-0.082
-700.529	-200.000	-0.045	-0.355
-699.514	-200.000	0.025	-0.178
-698.499	-200.000	-0.009	0.164
-697.485	-84.550	0.344	-0.111
-696.470	-125.486	-0.226	0.035
-695.456	-109.687	-0.236	-0.051
-694.441	720.283	-0.070	-0.191
-693.426	-138.164	0.321	-0.036
-692.412	-108.871	-0.132	-0.029
-691.397	-9.472	-0.114	0.078
-690.383	-54.701	0.140	0.065
-689.368	-200.000	0.039	-0.205
-688.354	11.095	0.193	-0.150
-687.339	-49.525	0.195	0.095
-686.324	-200.000	-0.033	0.397
-685.310	-136.226	0.063	0.008
-684.295	-200.000	0.009	0.054
-683.281	800.000	0.043	-0.159
-682.266	-78.301	0.237	-0.083
-681.251	715.871	-0.039	0.106
-680.237	55.264	0.067	0.066
-679.222	-200.000	-0.005	-0.128
-678.208	-200.000	-0.025	-0.186
-677.193	-71.932	-0.339	-0.129
-676.178	-15.363	0.175	0.114
-675.164	417.297	0.099	0.216
-674.149	-122.750	-0.135	0.022
-673.135	125.126	0.106	0.136
-672.120	-200.000	0.011	0.231
-671.105	150.336	0.050	-0.069
-670.091	322.940	0.198	-0.386
-669.076	800.000	-0.049	-0.209
-668.062	-99.677	-0.141	0.036
-667.047	231.551	-0.178	0.298
-666.032	556.576	-0.156	-0.384
-665.018	-27.357	-0.377	0.224
-664.003	-34.667	-0.203	0.113
-662.989	64.543	-0.134	0.138
-661.974	81.054	-0.261	-0.287
-660.959	119.344	0.211	-0.267
-659.945	11.657	0.192	0.150
-658.930	-68.482	0.159	-0.063
-657.916	800.000	-0.081	-0.286
-656.901	-54.300	-0.111	0.051
-655.886	800.000	-0.013	0.045
-654.872	-35.327	0.188	-0.104
-653.857	123.838	0.088	-0.113
-652.843	197.428	0.093	-0.145
-651.828	27.792	-0.103	0.088
-650.814	800.000	-0.025	-0.088
-649.799	220.912	-0.072	0.118
-648.784	-200.000	-0.015	0.270
-647.770	144.986	-0.209	0.285
-646.755	651.016	-0.094	0.244
-645.741	32.071	-0.334	0.294
-644.726	-68.323	0.178	0.071
-643.711	-104.008	0.302	0.072
-642.697	429.079	-0.099	0.219
-641.682	-177.682	0.238	-0.006
-640.668	-31.312	0.405	0.233
-639.653	-147.880	0.240	0.020
-638.638	800.000	-0.046	-0.164
-637.624	800.000	0.075	-0.323
-636.609	27.929	0.088	0.076
-635.595	19.145	0.244	-0.199
-634.580	197.361	0.137	0.213
-633.565	-55.720	0.059	0.027
-632.551	-200.000	-0.004	0.169
-631.536	-45.360	-0.322	0.163
-630.522	45.458	0.149	0.140
-629.507	-15.548	0.080	0.052
-628.492	129.206	-0.103	0.134
-627.478	-200.000	-0.000	-0.205
-626.463	-59.432	-0.157	-0.069
-625.449	800.000	-0.068	-0.290
-624.434	34.019	-0.116	-0.103
-623.419	800.000	-0.050	-0.152
-622.405	126.759	-0.056	-0.072
-621.390	800.000	0.061	-0.177
-620.376	489.471	0.108	-0.252
-619.361	-122.241	0.225	-0.037
-618.346	56.154	-0.218	-0.215
-617.332	-200.000	-0.006	-0.187
-616.317	800.000	0.085	-0.264
-615.303	53.907	-0.059	0.058
-614.288	21.647	0.084	-0.069
-613.273	-16.314	-0.091	0.059
-612.259	779.775	0.102	0.284
-611.244	45.101	-0.179	0.168
-610.230	-200.000	0.045	-0.373
-609.215	255.835	0.190	-0.331
-608.201	-45.419	0.224	-0.113
-607.186	-139.148	-0.264	0.029
-606.171	184.011	0.058	-0.088
-605.157	55.339	-0.237	0.233
-604.142	-55.800	0.149	-0.068
-603.128	800.000	-0.018	0.067
-602.113	-94.305	0.227	0.063
-601.098	-200.000	0.051	0.335
-600.084	25.112	0.176	0.149
-599.069	292.920	0.068	0.126
-598.055	-31.784	-0.045	-0.026
-597.040	177.148	-0.141	0.209
-596.025	-172.215	0.146	0.005
-595.011	800.000	-0.026	-0.075
-593.996	800.000	-0.084	-0.293
-592.982	800.000	-0.038	-0.148
-591.967	-200.000	-0.022	-0.123
-590.952	-31.294	-0.269	0.154
-589.938	800.000	-0.090	0.254
-588.923	-200.000	0.007	0.128
-587.909	-47.417	0.064	0.032
-586.894	153.878	-0.071	-0.099
-585.879	440.599	-0.109	-0.242
-584.865	-160.756	0.200	-0.011
-583.850	168.606	0.115	0.167
-582.836	-18.002	0.441	-0.281
-581.821	70.238	-0.238	0.250
-580.806	-39.866	-0.305	-0.162
-579.792	-132.054	0.387	-0.051
-578.777	-54.362	-0.188	0.087
-577.763	-200.000	-0.007	0.069
-576.748	78.007	-0.102	-0.110
-575.733	-113.960	-0.242	0.048
-574.719	800.000	-0.041	0.150
-573.704	-0.768	0.073	0.052
-572.690	70.193	-0.247	-0.259
-571.675	-11.433	-0.231	-0.154
-570.661	-184.178	-0.446	-0.008
-569.646	326.452	-0.125	0.243
-568.631	-71.432	-0.249	-0.095
-567.617	800.000	-0.056	-0.181
-566.602	434.502	-0.078	-0.173
-565.588	127.017	-0.361	0.465
-564.573	364.611	0.041	-0.083
-563.558	113.304	-0.074	0.091
-562.544	128.608	-0.098	-0.127
-561.529	62.370	-0.200	-0.203
-560.515	-49.177	0.262	0.127
-559.500	-18.111	-0.249	-0.159
-558.485	637.323	-0.082	0.211
-557.471	425.541	0.007	0.015
-556.456	94.102	-0.099	0.114
-555.442	79.750	0.020	-0.022
-554.427	800.000	0.059	0.229
-553.412	49.041	-0.285	0.272
-552.398	146.741	0.168	-0.230
-551.383	83.774	-0.253	0.281
-550.369	126.865	-0.112	-0.144
-549.354	-200.000	0.009	0.127
-548.339	-200.000	-0.027	-0.344
-547.325	-200.000	-0.048	-0.293
-546.310	53.152	-0.051	0.050
-545.296	79.433	0.347	0.378
-544.281	183.128	0.210	-0.315
-543.266	-132.673	0.215	0.028
-542.252	-179.096	0.270	0.006
-541.237	-112.048	0.332	0.068
-540.223	-153.348	-0.253	-0.018
-539.208	-71.544	0.067	0.025
-538.193	126.118	0.138	-0.177
-537.179	-43.645	0.327	-0.167
-536.164	-81.281	0.212	0.071
-535.150	-56.535	0.265	-0.119
-534.135	24.661	0.036	0.030
-533.121	47.915	-0.227	0.215
-532.106	-45.172	0.188	-0.095
-531.091	-168.953	-0.289	-0.011
-530.077	215.534	0.170	-0.274
-529.062	178.672	0.188	0.279
-528.048	-200.000	0.013	0.093
-527.033	420.143	0.069	0.150
-526.018	-105.567	-0.244	0.056
-525.004	-12.647	-0.309	0.204
-523.989	-200.000	0.011	-0.091
-522.975	-200.000	0.008	-0.110
-521.960	228.933	0.122	0.201
-520.945	-6.136	0.098	-0.068
-519.931	-60.811	0.050	-0.022
-518.916	700.258	-0.051	0.136
-517.902	-132.532	-0.269	-0.035
-516.887	39.681	0.065	-0.059
-515.872	75.349	0.143	-0.153
-514.858	576.980	0.065	-0.160
-513.843	-28.004	0.295	0.173
-512.829	199.679	0.075	0.116
-511.814	-200.000	-0.006	0.081
-510.799	61.805	-0.143	0.144
-509.785	-200.000	0.056	0.345
-508.770	428.295	0.045	-0.099
-507.756	71.160	0.116	0.122
-506.741	455.442	0.041	-0.092
-505.726	-106.000	0.307	-0.070
-504.712	-128.799	-0.183	-0.026
-503.697	-60.698	-0.215	-0.092
-502.683	-200.000	-0.009	-0.220
-501.668	-99.273	0.226	0.058
-500.653	-200.000	0.056	-0.397
-499.639	99.131	0.140	-0.164
-498.624	-64.533	0.058	-0.024
-497.610	134.870	0.129	0.169
-496.595	-178.020	-0.191	0.005
-495.581	432.441	0.029	0.063
-494.566	-76.994	0.291	0.103
-493.551	13.361	-0.100	-0.078
-492.537	-71.055	-0.369	-0.141
-491.522	37.176	-0.227	-0.204
-490.508	-35.260	0.067	0.037
-489.493	-31.322	-0.103	-0.059
-488.478	-148.225	0.133	-0.011
-487.464	-10.106	-0.072	-0.048
-486.449	300.354	0.087	-0.163
-485.435	-25.778	0.113	0.068
-484.420	-27.277	0.053	-0.031
-483.405	91.541	0.120	0.137
-482.391	-200.000	-0.007	-0.066
-481.376	131.136	0.055	0.072
-480.362	370.986	0.172	0.353
-479.347	-120.695	0.291	-0.050
-478.332	336.206	-0.068	0.133
-477.318	-29.146	0.380	-0.221
-476.303	38.398	-0.204	-0.184
-475.289	-54.364	0.109	-0.050
-474.274	-35.183	0.262	-0.144
-473.259	55.737	-0.145	-0.142
-472.245	-1.695	0.257	0.184
-471.230	800.000	-0.055	0.235
-470.216	-200.000	0.024	-0.218
-469.201	-99.350	0.148	0.038
-468.186	356.835	0.081	0.163
-467.172	167.003	0.042	-0.061
-466.157	-200.000	-0.002	0.135
-465.143	252.038	0.144	0.248
-464.128	-6.465	0.226	-0.156
-463.113	800.000	-0.065	-0.259
-462.099	-10.834	0.306	-0.205
-461.084	-200.000	-0.028	-0.180
-460.070	-200.000	0.012	0.119
-459.055	-200.000	-0.014	-0.183
-458.040	-111.319	0.248	-0.051
-457.026	152.378	-0.194	0.267
-456.011	-116.956	0.362	0.067
-454.997	210.518	0.154	0.245
-453.982	-40.095	-0.140	-0.074
-452.968	-200.000	-0.028	0.139
-451.953	84.588	-0.305	0.338
-450.938	-4.405	0.179	0.125
-449.924	-143.969	0.310	0.030
-448.909	149.330	-0.163	-0.224
-447.895	9.900	0.598	-0.459
-446.880	-133.848	-0.044	0.006
-445.865	-6.404	-0.420	-0.290
-444.851	14.591	0.074	0.059
-443.836	-43.269	-0.218	0.111
-442.822	377.063	0.063	0.130
-441.807	7.086	0.132	0.100
-440.792	76.386	-0.186	0.199
-439.778	800.000	0.082	-0.245
-438.763	800.000	0.057	0.160
-437.749	800.000	-0.024	0.076
-436.734	-200.000	0.005	-0.029
-435.719	158.012	-0.117	-0.164
-434.705	800.000	0.096	0.380
-433.690	-200.000	0.000	0.139
-432.676	-200.000	-0.044	-0.241
-431.661	-58.013	0.135	0.059
-430.646	162.874	0.205	-0.292
-429.632	-18.394	-0.284	0.179
-428.617	41.176	0.108	0.098
-427.603	800.000	0.036	-0.150
-426.588	342.325	0.084	-0.166
-425.573	-150.752	0.141	-0.011
-424.559	-4.041	-0.123	-0.086
-423.544	17.137	0.049	-0.039
-422.530	76.199	0.131	-0.140
-421.515	-95.280	0.107	0.029
-420.500	128.049	-0.151	0.194
-419.486	-123.755	-0.091	0.015
-418.471	800.000	0.097	-0.391
-417.457	800.000	0.065	-0.232
-416.442	96.689	-0.246	-0.285
-415.428	-200.000	0.043	-0.213
-414.413	381.152	-0.179	0.371
-413.398	10.635	0.064	0.050
-412.384	-200.000	0.010	-0.223
-411.369	113.806	-0.077	-0.094
-410.355	-36.443	0.252	-0.137
-409.340	-69.212	0.167	-0.065
-408.325	-117.984	0.038	-0.007
-407.311	-143.476	0.100	0.010
-406.296	800.000	-0.104	0.307
-405.282	-30.714	0.239	0.137
-404.267	-88.030	0.010	-0.003
-403.252	-200.000	-0.008	-0.477
-402.238	16.660	0.155	0.123
-401.223	4.991	0.059	-0.044
-400.209	-61.036	-0.178	-0.076
-399.194	-69.740	0.091	-0.035
-398.179	608.139	0.099	-0.249
-397.165	800.000	-0.133	-0.426
-396.150	56.372	0.180	0.177
-395.136	382.735	-0.116	0.241
-394.121	116.993	0.099	-0.122
-393.106	63.261	0.154	-0.156
-392.092	51.762	0.275	-0.264
-391.077	-200.000	0.025	-0.306
-390.063	124.785	0.108	-0.138
-389.048	800.000	0.037	0.153
-388.033	-52.818	-0.265	-0.123
-387.019	-200.000	-0.003	-0.190
-386.004	-200.000	0.004	-0.160
-384.990	-200.000	-0.019	0.252
-383.975	-142.609	-0.247	-0.024
-382.960	800.000	0.017	0.073
-381.946	-152.231	-0.050	-0.004
-380.931	-89.074	-0.151	-0.045
-379.917	-200.000	0.003	0.175
-378.902	800.000	0.075	0.304
-377.888	66.635	-0.090	-0.092
-376.873	52.413	0.209	0.202
-375.858	-56.472	-0.168	-0.075
-374.844	-200.000	0.066	0.428
-373.829	124.417	-0.201	0.255
-372.815	-200.000	0.076	0.438
-371.800	-118.305	0.148	0.027
-370.785	28.251	0.129	0.110
-369.771	-200.000	0.027	-0.215
-368.756	-18.536	-0.445	-0.280
-367.742	-200.000	0.013	-0.096
-366.727	33.955	0.176	-0.155
-365.712	-113.611	0.077	-0.015
-364.698	-27.589	-0.220	-0.129
-363.683	-62.222	-0.409	0.172
-362.669	-200.000	-0.087	0.615
-361.654	800.000	0.021	0.072
-360.639	22.062	-0.276	-0.227
-359.625	-194.739	0.195	0.002
-358.610	-129.637	-0.161	0.022
-357.596	-25.464	-0.224	-0.133
-356.581	602.640	-0.143	-0.358
-355.566	-34.595	0.358	0.198
-354.552	402.812	0.008	0.018
-353.537	146.728	0.134	0.182
-352.523	-200.000	0.002	-0.150
-351.508	-84.639	0.251	-0.080
-350.493	14.219	-0.196	-0.154
-349.479	119.427	0.118	-0.147
-348.464	104.123	0.002	-0.002
-347.450	-100.462	-0.239	0.060
-346.435	245.369	0.111	0.189
-345.420	-99.910	0.133	0.033
-344.406	-60.969	-0.045	0.019
-343.391	-9.750	-0.187	-0.125
-342.377	800.000	0.090	-0.300
-341.362	198.213	-0.055	-0.084
-340.348	500.169	-0.093	0.217
-339.333	123.599	0.189	0.239
-338.318	80.326	0.062	-0.068
-337.304	-87.614	-0.167	0.051
-336.289	-93.557	0.088	0.024
-335.275	-0.722	-0.180	-0.129
-334.260	-38.229	0.097	-0.052
-333.245	-3.686	-0.099	0.069
-332.231	-55.071	0.089	-0.040
-331.216	-21.616	-0.411	-0.252
-330.202	-92.672	0.142	-0.040
-329.187	-200.000	0.008	0.212
-328.172	-125.438	-0.207	-0.032
-327.158	-200.000	0.002	0.140
-326.143	-132.889	-0.204	0.026
-325.129	-129.580	-0.089	0.012
-324.114	-200.000	0.025	-0.140
-323.099	-200.000	-0.054	-0.366
-322.085	-53.918	-0.155	0.071
-321.070	-167.613	0.206	-0.008
-320.056	-86.698	-0.384	0.118
-319.041	-103.157	-0.275	-0.065
-318.026	-85.159	-0.177	0.056
-317.012	-174.703	-0.241	0.007
-315.997	-122.500	-0.452	0.074
-314.983	4.048	-0.243	-0.179
-313.968	112.129	0.079	0.096
-312.953	800.000	0.046	0.149
-311.939	-200.000	-0.011	0.304
-310.924	-172.705	0.422	-0.013
-309.910	-0.756	-0.155	0.110
-308.895	84.200	-0.132	-0.146
-307.880	58.187	0.070	-0.069
-306.866	88.314	-0.054	-0.061
-305.851	-30.479	-0.366	-0.209
-304.837	517.522	-0.065	-0.152
-303.822	-12.690	-0.237	-0.155
-302.807	-145.920	0.172	-0.015
-301.793	154.427	0.255	-0.353
-300.778	97.297	0.220	0.254
-299.764	-27.819	-0.052	0.031
-298.749	295.305	-0.111	-0.204
-297.735	-200.000	-0.010	-0.315
-296.720	-148.826	-0.134	-0.011
-295.705	154.413	0.030	-0.041
-294.691	-200.000	-0.031	0.316
-293.676	-200.000	0.008	0.092
-292.662	584.371	-0.066	0.163
-291.647	-106.928	0.359	0.080
-290.632	-200.000	0.029	0.220
-289.618	0.511	-0.118	-0.085
-288.603	-34.409	0.227	0.125
-287.589	-128.287	0.333	-0.048
-286.574	800.000	0.081	0.244
-285.559	6.671	0.175	0.131
-284.545	-39.098	-0.100	-0.053
-283.530	76.840	-0.077	0.082
-282.516	-107.696	0.251	0.055
-281.501	38.676	-0.097	-0.087
-280.486	800.000	-0.018	-0.058
-279.472	474.904	0.049	-0.111
-278.457	-73.411	0.254	0.093
-277.443	57.780	0.214	0.211
-276.428	75.909	-0.223	-0.237
-275.413	-27.683	0.137	0.080
-274.399	-71.414	0.186	0.070
-273.384	-23.142	0.147	0.089
-272.370	-124.947	-0.492	0.076
-271.355	-41.393	-0.400	-0.207
-270.340	-30.108	0.112	0.064
-269.326	15.530	-0.021	-0.016
-268.311	-118.174	-0.375	-0.067
-267.297	-106.286	-0.215	0.048
-266.282	-152.210	-0.267	-0.019
-265.267	-200.000	-0.053	-0.274
-264.253	81.822	0.057	-0.062
-263.238	-200.000	-0.001	0.090
-262.224	247.974	-0.086	0.146
-261.209	111.608	0.049	-0.059
-260.195	77.547	0.151	0.162
-259.180	-135.475	0.348	0.042
-258.165	-2.046	0.107	-0.075
-257.151	-0.809	-0.180	0.128
-256.136	-200.000	0.003	0.133
-255.122	157.526	-0.051	0.071
-254.107	61.737	-0.079	-0.079
-253.092	-106.506	-0.163	-0.037
-252.078	-200.000	-0.032	0.170
-251.063	-51.942	-0.229	-0.107
-250.049	-200.000	-0.037	-0.169
-249.034	-109.993	-0.075	-0.016
-248.019	602.022	0.089	-0.221
-247.005	-65.825	0.142	-0.057
-245.990	-55.223	-0.186	0.084
-244.976	800.000	-0.087	0.312
-243.961	291.828	-0.084	-0.154
-242.946	37.463	-0.106	-0.094
-241.932	-9.694	0.174	0.116
-240.917	-20.159	0.311	0.192
-239.903	325.770	0.059	0.114
-238.888	-31.759	-0.244	-0.137
-237.873	-162.611	0.052	0.003
-236.859	279.175	-0.152	-0.272
-235.844	122.635	-0.166	0.208
-234.830	270.343	-0.048	-0.085
-233.815	103.096	-0.050	0.059
-232.800	-131.346	0.303	0.040
-231.786	-89.400	0.146	-0.043
-230.771	-200.000	-0.055	0.262
-229.757	-200.000	0.014	0.187
-228.742	77.402	-0.105	-0.112
-227.727	1.032	0.121	0.087
-226.713	-200.000	-0.008	-0.290
-225.698	203.652	0.116	0.180
-224.684	756.260	0.051	-0.138
-223.669	800.000	0.052	0.200
-222.655	127.623	-0.209	-0.266
-221.640	-140.161	0.077	0.008
-220.625	19.071	0.373	0.300
-219.611	-200.000	0.025	-0.382
-218.596	48.985	-0.160	0.151
-217.582	-22.371	0.152	0.092
-216.567	115.978	0.328	0.403
-215.552	711.624	0.085	0.225
-214.538	800.000	-0.022	0.079
-213.523	-57.028	-0.235	-0.104
-212.509	-140.292	-0.350	-0.037
-211.494	-192.400	0.179	0.002
-210.479	162.008	-0.119	-0.167
-209.465	-95.959	-0.061	-0.016
-208.450	217.752	0.078	-0.125
-207.436	442.063	0.046	-0.101
-206.421	-200.000	0.039	-0.300
-205.406	76.985	-0.133	0.141
-204.392	-77.435	0.196	0.068
-203.377	800.000	0.087	0.272
-202.363	-65.240	0.131	0.053
-201.348	800.000	-0.139	0.514
-200.333	172.493	-0.174	0.251
-199.319	-44.444	0.120	-0.060
-198.304	-200.000	0.010	-0.143
-197.290	-120.020	-0.111	-0.019
-196.275	25.490	0.185	0.154
-195.260	-82.495	-0.161	-0.052
-194.246	-200.000	-0.001	-0.413
-193.231	52.167	-0.093	0.089
-192.217	-103.807	-0.135	0.032
-191.202	288.002	-0.034	0.061
-190.187	57.341	0.264	-0.258
-189.173	-200.000	-0.021	-0.209
-188.158	-120.408	0.179	0.030
-187.144	51.363	0.147	-0.139
-186.129	-24.359	-0.099	0.059
-185.114	78.966	0.058	0.062
-184.100	-52.725	-0.162	0.075
-183.085	-81.761	0.107	0.035
-182.071	638.376	-0.071	-0.180
-181.056	-35.550	-0.374	0.203
-180.042	-110.531	-0.513	-0.106
-179.027	133.066	0.184	-0.238
-178.012	-50.891	-0.234	-0.110
-176.998	-200.000	-0.039	-0.244
-175.983	-55.148	-0.274	0.123
-174.969	-6.625	0.106	0.072
-173.954	94.254	0.105	-0.119
-172.939	125.630	0.154	-0.195
-171.925	-56.422	-0.088	0.039
-170.910	2.931	0.034	0.024
-169.896	-160.192	0.014	-0.001
-168.881	-24.176	0.151	0.090
-167.866	800.000	0.063	0.176
-166.852	-200.000	-0.020	-0.099
-165.837	-44.168	-0.137	0.069
-164.823	104.810	-0.105	-0.124
-163.808	800.000	-0.028	0.090
-162.793	142.696	-0.170	0.226
-161.779	198.238	-0.135	0.206
-160.764	7.348	-0.135	-0.101
-159.750	105.885	0.213	-0.252
-158.735	-3.965	0.221	-0.153
-157.720	800.000	-0.073	0.208
-156.706	-200.000	0.006	0.237
-155.691	519.088	0.150	-0.351
-154.677	-55.237	-0.172	0.077
-153.662	635.246	0.140	0.356
-152.647	-65.320	-0.019	-0.008
-151.633	495.220	-0.241	0.554
-150.618	166.522	0.159	-0.225
-149.604	-70.221	0.183	-0.070
-148.589	-99.667	-0.069	0.017
-147.574	14.038	0.091	0.071
-146.560	-62.305	0.059	0.025
-145.545	429.855	0.200	-0.432
-144.531	383.856	0.125	0.258
-143.516	-41.757	-0.203	0.104
-142.502	29.353	0.255	0.216
-141.487	-163.282	-0.068	0.003
-140.472	-200.000	-0.020	0.316
-139.458	800.000	0.034	-0.139
-138.443	-102.562	0.245	0.059
-137.429	-23.001	0.291	0.175
-136.414	65.896	-0.065	-0.066
-135.399	800.000	0.056	0.222
-134.385	174.941	-0.108	0.157
-133.370	-200.000	0.005	0.027
-132.356	56.368	-0.227	-0.221
-131.341	-107.383	-0.358	0.079
-130.326	72.864	0.111	-0.116
-129.312	252.640	0.140	-0.239
-128.297	800.000	-0.048	-0.169
-127.283	-57.490	-0.234	0.103
-126.268	94.904	0.130	-0.147
-125.253	13.695	0.297	-0.230
-124.239	-39.013	-0.360	-0.189
-123.224	-200.000	0.006	0.072
-122.210	-122.326	-0.080	0.013
-121.195	358.737	0.174	-0.347
-120.180	29.390	-0.218	0.185
-119.166	451.482	-0.057	0.126
-118.151	151.452	-0.176	0.240
-117.137	-200.000	-0.024	0.106
-116.122	800.000	-0.057	0.172
-115.107	-63.323	0.205	-0.084
-114.093	24.979	-0.064	0.053
-113.078	213.367	0.049	0.077
-112.064	716.143	-0.045	-0.119
-111.049	96.890	0.105	0.121
-110.034	-200.000	-0.022	0.331
-109.020	-200.000	0.040	-0.227
-108.005	-40.777	-0.068	-0.035
-106.991	208.369	-0.068	0.107
-105.976	-200.000	0.024	0.180
-104.962	-200.000	0.033	-0.334
-103.947	-171.002	0.202	0.007
-102.932	-119.880	-0.147	0.025
-101.918	800.000	0.077	-0.238
-100.903	-200.000	0.046	-0.462
-99.889	-200.000	-0.019	-0.089
-98.874	-200.000	-0.015	-0.261
-97.859	-148.123	-0.168	0.014
-96.845	357.949	-0.101	0.201
-95.830	-14.816	0.195	-0.125
-94.816	-73.898	0.255	0.092
-93.801	-14.590	-0.278	-0.178
-92.786	-17.739	-0.323	0.202
-91.772	-145.098	0.325	-0.029
-90.757	-200.000	0.018	0.207
-89.743	200.004	-0.134	-0.205
-88.728	-148.348	0.092	-0.008
-87.713	551.795	0.067	-0.160
-86.699	-170.209	-0.248	-0.009
-85.684	-1.567	0.081	-0.057
-84.670	-47.153	0.171	0.083
-83.655	-200.000	0.031	0.163
-82.640	-39.308	0.375	0.196
-81.626	74.180	-0.131	0.137
-80.611	-200.000	0.013	-0.108
-79.597	-72.364	0.143	0.053
-78.582	800.000	0.070	-0.243
-77.567	800.000	-0.096	-0.321
-76.553	-200.000	0.008	-0.048
-75.538	-58.782	-0.179	-0.077
-74.524	800.000	0.088	-0.315
-73.509	-65.857	0.223	0.089
-72.494	-200.000	-0.033	0.187
-71.480	-0.286	0.214	0.152
-70.465	468.397	-0.104	0.233
-69.451	800.000	0.023	-0.081
-68.436	-17.694	-0.080	0.050
-67.422	711.979	0.114	0.302
-66.407	-80.367	0.192	-0.064
-65.392	-157.006	0.370	-0.023
-64.378	-200.000	0.004	-0.078
-63.363	23.213	-0.187	-0.153
-62.349	-84.840	-0.211	-0.066
-61.334	-64.950	-1.068	-0.430
-60.319	193.711	0.192	0.289
-59.305	800.000	-0.225	-0.640
-58.290	72.127	0.261	0.270
-57.276	800.000	0.618	1.852
-56.261	-200.000	76.333	511.665
-55.246	515.302	1335.614	3106.920
-54.232	143.841	2573.936	3417.796
-53.217	117.603	2236.762	2741.884
-52.203	52.951	1673.930	1595.169
-51.188	44.572	1395.266	1277.268
-50.173	41.051	1349.061	1213.494
-49.159	59.816	1384.474	1361.223
-48.144	66.325	1403.235	1419.602
-47.130	45.100	1365.853	1253.388
-46.115	41.072	1349.173	1213.532
-45.100	40.680	1345.127	1207.458
-44.086	40.658	1342.201	1204.654
-43.071	40.554	1339.938	1201.940
-42.057	40.551	1337.813	1199.972
-41.042	40.541	1335.995	1198.232
-40.027	40.749	1334.424	1198.030
-39.013	40.744	1332.697	1196.402
-37.998	40.713	1330.667	1194.348
-36.984	40.800	1328.871	1193.208
-35.969	40.786	1326.984	1191.385
-34.954	40.931	1324.847	1190.285
-33.940	40.811	1324.176	1188.921
-32.925	40.954	1322.378	1188.113
-31.911	40.800	1321.365	1186.234
-30.896	40.894	1319.650	1185.209
-29.881	40.774	1318.697	1183.591
-28.867	40.973	1316.708	1182.944
-27.852	40.908	1315.324	1181.263
-26.838	40.933	1314.041	1180.216
-25.823	40.995	1312.255	1178.934
-24.809	40.770	1311.521	1176.892
-23.794	40.946	1310.094	1176.609
-22.779	41.045	1307.933	1175.206
-21.765	41.039	1306.751	1174.062
-20.750	40.962	1305.561	1172.489
-19.736	40.829	1304.082	1170.331
-18.721	40.731	1303.191	1168.910
-17.706	40.784	1301.999	1168.103
-16.692	40.774	1301.213	1167.294
-15.677	40.787	1300.141	1166.365
-14.663	40.723	1298.707	1164.655
-13.648	40.713	1297.819	1163.755
-12.633	40.714	1296.482	1162.517
-11.619	40.719	1295.557	1161.667
-10.604	40.717	1295.004	1161.115
-9.590	40.689	1293.773	1159.804
-8.575	40.803	1292.020	1158.846
-7.560	40.808	1291.414	1158.288
-6.546	40.607	1291.224	1156.900
-5.531	40.682	1290.013	1156.205
-4.517	40.788	1288.933	1155.810
-3.502	40.755	1288.248	1154.957
-2.487	40.680	1287.431	1153.740
-1.473	40.867	1283.860	1151.578
-0.458	40.224	1269.537	1135.004
0.556	35.049	1250.103	1095.973
1.571	30.591	1253.604	1073.280
2.586	28.943	1267.542	1075.488
3.600	27.560	1256.513	1058.010
4.615	21.212	1181.217	959.757
5.629	10.673	1099.478	839.061
6.644	5.567	1075.012	794.460
7.659	4.896	1072.450	789.097
8.673	4.846	1070.953	787.673
9.688	4.775	1069.772	786.377
10.702	5.240	1069.160	788.207
11.717	11.281	1078.179	825.448
12.731	19.167	1088.831	873.700
13.746	19.915	1088.448	877.107
14.761	17.637	1084.328	862.196
15.775	16.384	1082.454	854.299
16.790	15.435	1079.750	847.301
17.804	14.672	1078.732	842.578
18.819	14.211	1077.486	839.206
19.834	13.962	1076.090	836.790
20.848	13.646	1075.403	834.591
21.863	13.368	1074.532	832.443
22.877	13.385	1073.809	831.894
23.892	13.247	1073.250	830.692
24.907	13.285	1072.526	830.250
25.921	13.376	1071.392	829.756
26.936	13.446	1069.934	828.901
27.950	13.377	1068.441	827.328
28.965	13.470	1067.078	826.664
29.980	13.575	1065.474	825.871
30.994	13.594	1064.261	824.953
32.009	13.547	1063.261	823.872
33.023	13.504	1062.475	822.977
34.038	13.536	1060.864	821.811
35.053	13.455	1059.978	820.653
36.067	13.311	1059.934	819.833
37.082	13.504	1058.669	819.738
38.096	13.479	1058.476	819.392
39.111	13.498	1057.142	818.377
40.126	13.431	1055.718	816.875
41.140	13.264	1054.488	815.029
42.155	13.277	1053.171	814.003
43.169	13.298	1051.975	813.106
44.184	13.056	1051.587	811.548
45.199	13.332	1050.326	811.857
46.213	13.325	1048.998	810.725
47.228	13.336	1047.854	809.822
48.242	13.382	1046.817	809.173
49.257	13.446	1046.156	808.904
50.271	13.494	1045.067	808.225
51.286	13.417	1043.830	806.820
52.301	13.395	1043.146	806.113
53.315	13.371	1042.003	805.041
54.330	13.295	1040.972	803.803
55.344	13.336	1039.831	803.051
56.359	13.228	1039.199	801.967
57.374	13.336	1038.141	801.605
58.388	13.314	1036.976	800.528
59.403	13.194	1036.683	799.649
60.417	13.207	1035.566	798.782
61.432	13.287	1034.758	798.474
62.447	13.161	1034.090	797.277
63.461	13.126	1033.189	796.346
64.476	13.083	1032.683	795.680
65.490	13.069	1031.682	794.769
66.505	13.242	1030.671	794.751
67.520	13.215	1030.061	794.082
68.534	13.084	1029.573	793.005
69.549	13.142	1028.942	792.725
70.563	13.186	1027.738	791.941
71.578	13.118	1027.058	791.019
72.593	13.042	1026.514	790.169
73.607	13.091	1025.717	789.718
74.622	13.053	1025.119	789.008
75.636	13.111	1024.132	788.456
76.651	13.066	1023.567	787.736
77.666	13.115	1022.869	787.362
78.680	13.036	1022.479	786.614
79.695	13.116	1022.087	786.626
80.709	13.175	1021.137	786.106
81.724	13.303	1020.609	786.237
82.739	13.347	1019.727	785.699
83.753	13.377	1019.153	785.329
84.768	13.416	1018.017	784.569
85.782	13.457	1017.652	784.412
86.797	13.366	1016.849	783.295
87.812	13.428	1015.153	782.212
88.826	13.434	1014.463	781.636
89.841	13.402	1013.884	780.971
90.855	13.568	1012.632	780.721
91.870	13.625	1011.432	779.993
92.884	13.557	1011.113	779.360
93.899	13.513	1010.402	778.538
94.914	13.650	1009.335	778.290
95.928	13.691	1008.613	777.857
96.943	13.530	1007.466	776.148
97.957	13.416	1007.009	775.192
98.972	13.606	1005.640	774.957
99.987	13.589	1004.953	774.279
101.001	13.550	1003.906	773.222
102.016	13.414	1003.407	772.135
103.030	13.582	1002.658	772.274
104.045	13.541	1001.780	771.340
105.060	13.601	1000.620	770.659
106.074	13.335	1000.187	769.020
107.089	13.278	999.113	767.862
108.103	13.276	998.081	766.991
109.118	13.282	997.058	766.164
110.133	13.329	995.802	765.348
111.147	13.280	995.390	764.736
112.162	13.264	994.690	764.056
113.176	13.295	993.994	763.598
114.191	13.222	993.735	762.996
115.206	13.352	992.441	762.531
116.220	13.352	991.763	761.943
117.235	13.363	990.294	760.799
118.249	13.387	989.712	760.394
119.264	13.393	988.776	759.635
120.279	13.392	988.034	758.996
121.293	13.170	987.612	757.584
122.308	13.253	986.743	757.235
123.322	13.227	985.470	756.068
124.337	13.263	984.307	755.275
125.352	13.255	983.121	754.259
126.366	13.229	982.483	753.586
127.381	13.359	981.096	753.048
128.395	13.318	980.541	752.369
129.410	13.411	979.216	751.707
130.424	13.359	978.503	750.859
131.439	13.445	977.838	750.674
132.454	13.412	977.302	750.045
133.468	13.444	976.235	749.306
134.483	13.535	975.097	748.777
135.497	13.497	974.618	748.168
136.512	13.464	973.823	747.343
137.527	13.481	973.073	746.779
138.541	13.449	972.493	746.125
139.556	13.463	971.576	745.418
140.570	13.668	970.512	745.459
141.585	13.677	969.922	744.977
142.600	13.957	968.800	745.305
143.614	13.735	968.250	743.820
144.629	13.700	967.825	743.275
145.643	13.702	966.826	742.451
146.658	13.618	965.702	741.143
147.673	13.632	964.525	740.237
148.687	13.440	963.932	738.862
149.702	13.584	963.013	738.733
150.716	13.571	962.099	737.907
151.731	13.509	961.649	737.223
152.746	13.481	961.393	736.838
153.760	13.589	960.742	736.752
154.775	13.809	959.770	736.918
155.789	13.687	958.924	735.665
156.804	13.642	958.573	735.129
157.819	13.715	957.667	734.691
158.833	13.745	957.364	734.526
159.848	13.734	956.665	733.878
160.862	13.632	955.579	732.529
161.877	13.614	954.067	731.227
162.892	13.514	953.416	730.220
163.906	13.556	952.291	729.480
164.921	13.469	952.015	728.821
165.935	13.645	950.572	728.424
166.950	13.602	949.967	727.710
167.964	13.667	949.181	727.328
168.979	13.624	948.032	726.195
169.994	13.668	947.205	725.691
171.008	13.681	946.643	725.251
172.023	13.900	945.875	725.555
173.037	13.743	945.540	724.549
174.052	13.736	944.697	723.808
175.067	13.747	943.899	723.181
176.081	13.753	943.484	722.822
177.096	13.778	942.739	722.297
178.110	13.672	942.328	721.457
179.125	13.738	941.588	721.116
180.140	13.733	941.404	720.889
181.154	13.765	940.915	720.592
182.169	13.804	939.960	719.963
183.183	13.879	939.435	719.821
184.198	14.071	938.665	719.999
185.213	13.911	937.916	718.671
186.227	13.812	937.911	718.173
187.242	13.982	936.922	718.090
188.256	14.146	935.912	717.959
189.271	14.156	935.230	717.414
190.286	13.898	934.441	715.637
191.300	13.705	933.618	714.110
192.315	13.664	933.043	713.431
193.329	13.606	932.623	712.798
194.344	13.860	931.973	713.330
195.359	13.890	931.200	712.802
196.373	13.952	930.403	712.396
197.388	14.017	930.055	712.343
198.402	14.278	929.386	712.888
199.417	14.285	929.000	712.556
200.432	14.243	928.300	711.778
201.446	14.266	928.290	711.807
202.461	14.383	927.543	711.668
203.475	14.162	927.414	710.565
204.490	14.281	926.219	710.093
205.504	14.118	925.355	708.671
206.519	14.191	924.734	708.446
207.534	14.219	923.722	707.727
208.548	14.241	923.150	707.319
209.563	14.203	922.552	706.637
210.577	14.273	921.440	706.020
211.592	14.334	921.398	706.185
212.607	14.190	920.652	704.941
213.621	14.341	919.873	704.918
214.636	14.433	918.901	704.504
215.650	14.261	918.622	703.498
216.665	14.282	917.817	702.910
217.680	14.397	916.603	702.403
218.694	14.458	916.125	702.231
219.709	14.602	915.747	702.484
220.723	14.545	914.922	701.551
221.738	14.525	914.239	700.881
222.753	14.360	913.894	699.859
223.767	14.477	913.233	699.783
224.782	14.602	912.522	699.700
225.796	14.556	912.166	699.172
226.811	14.582	910.903	698.254
227.826	14.520	910.109	697.321
228.840	14.512	909.638	696.868
229.855	14.462	908.970	696.083
230.869	14.510	908.309	695.717
231.884	14.455	907.691	694.954
232.899	14.542	906.698	694.492
233.913	14.440	906.021	693.490
234.928	14.307	905.514	692.485
235.942	14.430	904.608	692.244
236.957	14.439	904.364	692.032
237.972	14.514	903.820	691.867
238.986	14.500	902.962	691.089
240.001	14.452	902.678	690.611
241.015	14.548	902.169	690.560
242.030	14.594	901.132	689.894
243.045	14.594	900.591	689.418
244.059	14.705	899.986	689.354
245.074	14.799	899.177	689.060
246.088	14.628	898.721	687.945
247.103	14.881	897.958	688.340
248.117	14.766	897.804	687.690
249.132	14.991	897.026	687.960
250.147	15.053	896.514	687.759
251.161	15.002	895.824	686.961
252.176	14.994	895.482	686.606
253.190	15.033	894.736	686.133
254.205	15.083	893.845	685.591
255.220	15.115	893.242	685.201
256.234	15.193	892.505	684.890
257.249	15.132	891.845	684.075
258.263	15.119	891.179	683.453
259.278	15.177	890.366	683.004
260.293	15.071	890.149	682.346
261.307	15.243	889.495	682.486
262.322	15.299	888.612	681.974
263.336	15.223	888.085	681.199
264.351	15.186	887.412	680.475
265.366	15.365	886.712	680.601
266.380	15.393	885.903	680.037
267.395	15.365	885.232	679.347
268.409	15.362	884.195	678.478
269.424	15.226	883.805	677.570
270.439	15.292	882.980	677.142
271.453	15.262	882.697	676.744
272.468	15.264	882.205	676.315
273.482	15.353	881.109	675.775
274.497	15.302	880.583	675.107
275.512	15.231	880.110	674.397
276.526	15.236	880.184	674.415
277.541	15.423	879.200	674.355
278.555	15.494	878.578	674.100
279.570	15.368	877.918	673.031
280.585	15.309	877.583	672.476
281.599	15.489	876.263	672.126
282.614	15.412	875.419	671.111
283.628	15.245	875.333	670.318
284.643	15.497	874.659	670.749
285.657	15.449	873.927	669.937
286.672	15.543	873.186	669.686
287.687	15.545	872.611	669.192
288.701	15.612	871.814	668.791
289.716	15.579	871.650	668.474
290.730	15.533	870.887	667.648
291.745	15.520	870.259	667.053
292.760	15.613	869.558	666.825
293.774	15.716	869.165	666.875
294.789	15.684	868.471	666.158
295.803	15.569	867.746	665.086
296.818	15.599	867.138	664.678
297.833	15.566	866.505	664.004
298.847	15.449	866.298	663.324
299.862	15.648	865.345	663.325
300.876	15.673	864.668	662.844
301.891	15.795	864.426	663.082
302.906	15.882	863.711	662.815
303.920	15.838	863.103	662.119
304.935	15.807	862.312	661.329
305.949	15.890	861.690	661.121
306.964	15.878	861.372	660.770
307.979	15.997	861.029	660.916
308.993	15.854	860.024	659.528
310.008	15.989	859.478	659.577
311.022	15.851	859.214	658.779
312.037	15.855	858.472	658.163
313.052	15.902	857.664	657.669
314.066	15.913	857.194	657.297
315.081	15.729	856.954	656.334
316.095	15.790	856.117	655.873
317.110	15.698	855.463	654.956
318.125	15.840	855.003	655.100
319.139	15.835	854.745	654.824
320.154	15.923	854.160	654.659
321.168	15.798	853.686	653.753
322.183	15.796	853.142	653.269
323.197	16.023	852.379	653.510
324.212	15.899	852.172	652.814
325.227	15.956	851.037	652.104
326.241	16.018	850.354	651.764
327.256	15.966	849.974	651.216
328.270	15.842	849.792	650.537
329.285	16.017	848.829	650.420
330.300	16.038	848.310	650.044
331.314	15.944	848.102	649.465
332.329	16.201	847.336	649.812
333.343	16.163	846.887	649.264
334.358	15.961	846.720	648.300
335.373	16.158	846.142	648.559
336.387	16.140	845.835	648.198
337.402	16.096	846.053	648.136
338.416	16.275	845.373	648.245
339.431	16.308	845.083	648.093
340.446	16.377	844.406	647.782
341.460	16.435	843.990	647.626
342.475	16.336	843.373	646.717
343.489	16.411	842.988	646.652
344.504	16.457	842.687	646.540
345.519	16.547	841.733	646.093
346.533	16.364	841.635	645.263
347.548	16.436	840.766	644.815
348.562	16.346	840.367	644.107
349.577	16.346	839.852	643.655
350.592	16.257	839.444	642.947
351.606	16.329	838.897	642.744
352.621	16.331	838.033	642.034
353.635	16.339	837.439	641.552
354.650	16.305	837.021	641.048
355.665	16.442	836.114	640.816
356.679	16.504	835.391	640.438
357.694	16.514	834.811	639.974
358.708	16.601	833.981	639.613
359.723	16.502	833.660	638.933
360.738	16.505	833.071	638.438
361.752	16.596	832.596	638.361
362.767	16.696	831.900	638.149
363.781	16.828	831.319	638.144
364.796	16.852	830.954	637.898
365.810	16.817	830.626	637.456
366.825	16.805	830.204	637.033
367.840	16.824	829.938	636.842
368.854	16.716	829.451	636.005
369.869	16.699	829.015	635.552
370.883	16.732	828.706	635.381
371.898	16.815	828.072	635.153
372.913	16.918	827.841	635.305
373.927	17.022	827.038	635.022
374.942	16.947	826.646	634.384
375.956	16.831	826.478	633.764
376.971	16.968	826.055	633.894
377.986	16.862	825.653	633.137
379.000	17.068	824.986	633.335
380.015	17.087	824.291	632.819
381.029	17.125	823.881	632.589
382.044	17.096	823.032	631.773
383.059	17.243	822.387	631.767
384.073	17.231	821.810	631.224
385.088	17.008	821.389	630.019
386.102	16.926	820.925	629.301
387.117	17.180	820.129	629.578
388.132	17.031	819.272	628.313
389.146	16.987	819.103	627.963
390.161	17.160	818.581	628.147
391.175	17.275	818.086	628.137
392.190	17.020	817.750	626.883
393.205	17.047	817.453	626.699
394.219	17.034	816.989	626.239
395.234	16.919	816.722	625.555
396.248	17.150	815.917	625.734
397.263	17.091	815.451	625.105
398.278	16.930	815.462	624.463
399.292	17.058	814.987	624.516
400.307	17.043	814.649	624.148
401.321	17.028	813.860	623.433
402.336	17.002	813.694	623.153
403.350	17.103	812.791	622.778
404.365	17.131	812.788	622.823
405.380	17.329	812.054	622.933
406.394	17.576	811.199	623.123
407.409	17.361	810.893	622.047
408.423	17.365	810.766	621.909
409.438	17.588	809.967	622.055
410.453	17.449	810.139	621.624
411.467	17.504	809.656	621.400
412.482	17.424	809.313	620.790
413.496	17.561	808.667	620.738
414.511	17.589	808.250	620.466
415.526	17.533	808.014	620.026
416.540	17.626	807.425	619.859
417.555	17.543	806.968	619.152
418.569	17.560	806.617	618.886
419.584	17.693	806.233	619.021
420.599	17.515	805.580	617.820
421.613	91.452	1263.473	1369.721
422.628	78.212	1330.205	1369.851
