DTS Sentinel unit serial number:	SN413079Multiplexer serial number:	ORYXHardware model number:	OX4-SRSoftware version number:	ORYX F/W v4.00 Oryx Data Collector v3.7.2.0data status	okinstallation	princeton_trtdifferential loss correction	single-endedforward channel	channel 1reverse channel	N/Adate	2019/09/15time	00:38:35forward acquisition time	60.00reverse acquisition time	0.00gamma	496.2192k internal	0.2320k external	0.2320temperature offset calibration	0.9994default loss term (dB/km)	0.3790temperature slope calibration	1.0000multiplexer offset coefficient	1.0000multiplexer slope coefficient	1.0000fibre end	0.00T internal ref (°C)	32.11T ext. ref 1 (°C)	4.56T ext. ref 2 (°C)	27.12length (m)	temperature (°C)	Stokes	anti-Stokes-747.200	70.163	0.181	0.189
-746.185	-200.000	0.054	0.251
-745.171	-200.000	-0.007	0.181
-744.156	-34.787	-0.103	-0.057
-743.142	-7.303	0.091	-0.062
-742.127	800.000	0.033	0.104
-741.112	109.122	0.100	0.121
-740.098	800.000	0.047	0.187
-739.083	-200.000	-0.020	0.297
-738.069	100.576	-0.111	0.130
-737.054	0.489	0.259	0.187
-736.039	57.306	-0.122	-0.120
-735.025	38.724	0.147	-0.133
-734.010	-54.625	-0.171	0.078
-732.996	-124.045	0.348	0.055
-731.981	-115.098	0.112	-0.022
-730.966	-85.274	-0.272	0.086
-729.952	113.732	0.098	-0.121
-728.937	-149.710	0.170	-0.014
-727.923	-50.281	-0.219	0.104
-726.908	48.434	-0.448	0.424
-725.894	800.000	-0.082	0.238
-724.879	-200.000	0.002	0.117
-723.864	39.571	-0.096	-0.087
-722.850	51.669	0.246	-0.237
-721.835	75.600	-0.296	0.316
-720.821	28.010	-0.157	-0.133
-719.806	-143.985	0.450	-0.043
-718.791	58.672	-0.287	0.284
-717.777	-121.458	-0.382	-0.064
-716.762	800.000	0.117	0.393
-715.748	-100.091	0.222	-0.056
-714.733	184.194	-0.099	-0.148
-713.718	-200.000	-0.042	-0.248
-712.704	-158.042	-0.465	-0.028
-711.689	138.094	0.157	-0.207
-710.675	-62.921	-0.241	0.101
-709.660	-32.541	-0.187	0.105
-708.645	3.610	-0.147	0.108
-707.631	800.000	0.102	-0.285
-706.616	-194.749	0.413	0.003
-705.602	-133.504	-0.227	-0.029
-704.587	-84.680	-0.213	0.068
-703.572	-30.274	-0.010	-0.006
-702.558	321.696	0.097	0.187
-701.543	800.000	-0.085	0.255
-700.529	-136.083	-0.292	0.035
-699.514	-140.450	-0.128	0.013
-698.499	-200.000	0.053	0.390
-697.485	800.000	0.102	0.400
-696.470	27.838	-0.181	0.154
-695.456	-200.000	0.082	-0.368
-694.441	-121.981	0.136	-0.023
-693.426	800.000	0.077	-0.326
-692.412	-117.256	-0.181	-0.033
-691.397	800.000	0.065	-0.283
-690.383	669.202	-0.051	-0.134
-689.368	-66.184	-0.225	-0.091
-688.354	-13.915	0.209	0.136
-687.339	-184.373	-0.208	-0.003
-686.324	-68.773	-0.128	0.050
-685.310	-135.578	-0.144	0.017
-684.295	-200.000	-0.034	0.307
-683.281	49.106	-0.165	0.157
-682.266	76.218	-0.255	-0.272
-681.251	179.078	0.140	-0.206
-680.237	-200.000	0.055	-0.433
-679.222	481.911	0.053	0.120
-678.208	-53.060	0.278	0.129
-677.193	-4.613	-0.244	-0.170
-676.178	-76.598	0.051	-0.018
-675.164	-183.287	-0.236	-0.004
-674.149	733.921	0.121	0.328
-673.135	434.731	-0.072	0.157
-672.120	51.349	-0.241	0.231
-671.105	68.698	-0.225	0.233
-670.091	-135.348	0.258	0.031
-669.076	800.000	-0.075	-0.300
-668.062	446.806	0.119	0.263
-667.047	-200.000	-0.005	0.029
-666.032	-36.530	-0.264	-0.143
-665.018	-153.905	0.161	0.011
-664.003	311.550	-0.144	0.271
-662.989	509.616	-0.067	-0.156
-661.974	-128.697	0.123	0.017
-660.959	-71.152	-0.233	0.088
-659.945	-124.359	-0.506	0.080
-658.930	-200.000	0.025	0.261
-657.916	-135.414	0.092	0.011
-656.901	744.083	0.132	0.358
-655.886	40.083	-0.170	0.154
-654.872	19.265	-0.160	0.130
-653.857	101.183	0.032	0.037
-652.843	167.151	0.177	0.254
-651.828	-133.319	-0.096	-0.012
-650.814	591.862	-0.029	-0.072
-649.799	109.142	-0.176	0.212
-648.784	-141.735	-0.223	0.023
-647.770	-42.974	0.185	0.095
-646.755	-200.000	-0.024	0.251
-645.741	-141.879	0.171	-0.017
-644.726	800.000	-0.086	-0.248
-643.711	800.000	0.074	-0.299
-642.697	262.344	-0.051	0.088
-641.682	108.431	0.272	-0.327
-640.668	-200.000	0.052	-0.330
-639.653	-26.595	0.179	0.106
-638.638	108.746	0.071	-0.085
-637.624	-95.915	0.038	0.010
-636.609	278.785	0.105	0.188
-635.595	800.000	0.052	0.200
-634.580	-200.000	-0.046	-0.252
-633.565	98.300	-0.068	0.078
-632.551	-200.000	0.039	-0.179
-631.536	225.636	0.137	0.223
-630.522	-172.481	-0.553	0.018
-629.507	-21.859	-0.143	-0.087
-628.492	-200.000	0.030	-0.170
-627.478	-200.000	-0.036	-0.366
-626.463	-200.000	0.029	0.143
-625.449	460.420	-0.083	-0.185
-624.434	-200.000	-0.028	-0.220
-623.419	-3.297	0.155	-0.109
-622.405	-0.227	0.318	0.228
-621.390	160.895	-0.197	-0.277
-620.376	-200.000	-0.052	-0.310
-619.361	32.720	0.126	0.110
-618.346	641.951	-0.156	-0.401
-617.332	-86.838	0.085	-0.026
-616.317	180.645	-0.070	0.103
-615.303	381.163	-0.109	0.225
-614.288	65.261	-0.052	-0.053
-613.273	97.014	-0.310	-0.357
-612.259	-111.322	-0.249	0.051
-611.244	-132.925	0.102	0.013
-610.230	-3.468	-0.310	-0.217
-609.215	339.324	-0.105	-0.206
-608.201	-200.000	0.072	-0.542
-607.186	-200.000	0.070	-0.317
-606.171	800.000	-0.113	0.479
-605.157	800.000	0.089	0.327
-604.142	-200.000	0.068	-0.485
-603.128	27.943	0.122	0.103
-602.113	-58.224	-0.274	0.120
-601.098	-69.834	-0.123	-0.047
-600.084	-200.000	0.012	0.261
-599.069	86.614	-0.086	-0.095
-598.055	433.506	0.055	-0.121
-597.040	585.942	-0.151	-0.374
-596.025	83.129	-0.092	-0.100
-595.011	-27.848	-0.086	0.050
-593.996	-92.102	-0.055	-0.016
-592.982	-200.000	-0.038	0.519
-591.967	-84.995	0.287	-0.091
-590.952	794.173	-0.076	0.211
-589.938	714.680	0.100	0.267
-588.923	432.273	-0.059	-0.130
-587.909	737.878	0.110	-0.297
-586.894	-137.845	-0.160	-0.018
-585.879	-200.000	0.008	0.372
-584.865	-183.032	-0.016	0.000
-583.850	113.856	-0.047	0.057
-582.836	-181.494	0.280	0.005
-581.821	800.000	-0.033	0.097
-580.806	800.000	0.027	0.114
-579.792	39.788	0.086	0.078
-578.777	-71.998	-0.048	-0.018
-577.763	-52.674	-0.319	0.148
-576.748	800.000	-0.030	-0.100
-575.733	25.767	-0.366	-0.306
-574.719	-59.936	-0.170	0.073
-573.704	-87.011	-0.171	0.052
-572.690	73.206	0.188	-0.198
-571.675	-121.593	0.279	-0.046
-570.661	800.000	-0.019	0.061
-569.646	-91.422	0.092	0.026
-568.631	-111.336	-0.160	0.033
-567.617	-57.608	-0.213	-0.094
-566.602	3.976	-0.268	-0.197
-565.588	127.375	0.192	0.244
-564.573	553.045	0.103	0.249
-563.558	-90.027	-0.284	-0.083
-562.544	-200.000	0.001	-0.332
-561.529	-200.000	-0.013	-0.077
-560.515	19.190	-0.024	0.020
-559.500	-5.026	-0.128	0.088
-558.485	-66.963	0.348	0.138
-557.471	800.000	-0.039	-0.146
-556.456	800.000	0.057	-0.181
-555.442	800.000	-0.074	-0.248
-554.427	65.537	-0.238	0.242
-553.412	-127.038	0.165	0.024
-552.398	148.712	0.101	0.137
-551.383	36.882	0.243	0.215
-550.369	800.000	-0.058	0.165
-549.354	347.912	-0.080	-0.158
-548.339	-57.334	0.371	-0.163
-547.325	649.620	-0.093	0.239
-546.310	-47.389	-0.112	-0.055
-545.296	477.095	0.054	-0.123
-544.281	-15.265	0.159	0.102
-543.266	-137.260	-0.320	0.036
-542.252	87.722	-0.055	-0.061
-541.237	-126.852	0.353	-0.052
-540.223	122.302	-0.178	-0.223
-539.208	-24.771	-0.257	-0.153
-538.193	409.577	-0.028	-0.061
-537.179	310.071	0.159	0.299
-536.164	112.658	-0.277	-0.337
-535.150	-134.943	-0.081	0.010
-534.135	1.042	0.233	0.167
-533.121	205.181	-0.152	0.237
-532.106	457.157	-0.102	0.228
-531.091	-11.828	-0.196	-0.129
-530.077	-200.000	0.034	0.166
-529.062	26.019	0.170	-0.143
-528.048	22.168	0.151	0.124
-527.033	478.020	-0.073	-0.166
-526.018	-1.730	0.156	0.110
-525.004	-104.159	-0.472	-0.110
-523.989	800.000	-0.051	-0.184
-522.975	-95.825	-0.326	0.087
-521.960	166.431	-0.066	-0.094
-520.945	-200.000	0.092	-0.458
-519.931	303.012	0.047	0.088
-518.916	-111.961	-0.153	0.031
-517.902	-62.514	-0.237	-0.099
-516.887	-75.931	0.172	0.061
-515.872	800.000	0.092	0.294
-514.858	246.886	0.072	-0.122
-513.843	-59.591	0.243	-0.104
-512.829	117.296	-0.170	-0.210
-511.814	-200.000	0.009	-0.395
-510.799	800.000	-0.030	0.119
-509.785	-97.208	-0.058	-0.015
-508.770	-200.000	0.009	-0.068
-507.756	-200.000	0.005	0.128
-506.741	331.387	0.063	0.122
-505.726	800.000	0.075	0.248
-504.712	-20.378	0.173	0.106
-503.697	-116.490	-0.141	0.026
-502.683	-200.000	-0.037	0.218
-501.668	69.440	-0.038	-0.039
-500.653	-200.000	-0.010	-0.160
-499.639	-35.932	0.296	-0.161
-498.624	-140.284	0.267	0.028
-497.610	-88.982	-0.147	-0.043
-496.595	-65.577	0.260	0.105
-495.581	34.598	0.146	0.128
-494.566	800.000	0.105	-0.306
-493.551	-145.765	0.194	0.017
-492.537	481.421	0.138	-0.314
-491.522	304.551	-0.086	0.160
-490.508	-200.000	0.003	-0.131
-489.493	348.441	-0.105	0.208
-488.478	-110.991	-0.098	-0.020
-487.464	-200.000	-0.007	-0.043
-486.449	800.000	-0.058	0.192
-485.435	800.000	0.025	-0.069
-484.420	134.408	0.311	-0.403
-483.405	534.063	-0.151	0.359
-482.391	-27.858	-0.262	0.152
-481.376	19.855	0.165	-0.133
-480.362	-47.376	0.407	-0.198
-479.347	800.000	-0.113	0.320
-478.332	-200.000	-0.009	0.343
-477.318	-76.100	-0.184	0.065
-476.303	140.784	-0.181	0.240
-475.289	-22.235	-0.082	0.050
-474.274	92.205	0.259	-0.292
-473.259	95.003	-0.257	-0.293
-472.245	-200.000	0.054	-0.279
-471.230	-38.057	-0.220	-0.117
-470.216	-31.229	0.219	0.123
-469.201	-129.677	0.168	-0.023
-468.186	42.576	-0.015	-0.013
-467.172	-200.000	-0.011	0.277
-466.157	313.111	0.132	0.249
-465.143	-148.658	-0.075	-0.006
-464.128	356.114	-0.071	-0.142
-463.113	-66.642	-0.341	0.135
-462.099	800.000	-0.074	0.250
-461.084	-81.149	-0.145	0.048
-460.070	38.307	0.152	0.136
-459.055	526.510	0.097	0.228
-458.040	142.415	0.080	0.106
-457.026	192.841	-0.076	0.115
-456.011	376.036	-0.089	-0.182
-454.997	-151.198	-0.133	-0.010
-453.982	-45.968	0.341	-0.168
-452.968	-200.000	-0.051	-0.239
-451.953	-48.120	0.046	-0.022
-450.938	440.208	-0.032	0.070
-449.924	800.000	0.022	0.094
-448.909	-43.488	-0.184	0.093
-447.895	-110.905	0.027	0.006
-446.880	47.992	0.279	0.261
-445.865	-200.000	-0.024	0.270
-444.851	800.000	0.064	0.238
-443.836	85.833	0.184	0.202
-442.822	800.000	0.031	0.087
-441.807	-190.696	-0.206	0.002
-440.792	422.859	-0.051	0.109
-439.778	-71.734	-0.120	-0.045
-438.763	-191.238	-0.087	-0.001
-437.749	-129.435	0.084	-0.012
-436.734	355.418	-0.025	-0.050
-435.719	800.000	-0.047	-0.182
-434.705	473.031	0.122	0.275
-433.690	-200.000	0.008	0.129
-432.676	153.803	-0.098	-0.134
-431.661	-122.675	-0.448	-0.073
-430.646	-130.523	-0.557	-0.075
-429.632	113.572	-0.090	-0.109
-428.617	800.000	-0.086	-0.318
-427.603	800.000	0.086	-0.304
-426.588	655.988	0.062	0.160
-425.573	-97.596	0.245	0.064
-424.559	70.268	0.150	0.155
-423.544	-66.039	-0.290	0.116
-422.530	-73.527	0.050	-0.018
-421.515	110.576	-0.148	0.177
-420.500	269.461	0.163	0.287
-419.486	139.296	0.061	-0.080
-418.471	-175.490	0.387	0.011
-417.457	-38.965	0.187	0.098
-416.442	295.421	-0.053	-0.096
-415.428	-53.554	-0.158	0.072
-414.413	3.285	0.266	0.194
-413.398	-17.931	-0.153	-0.096
-412.384	20.033	0.041	0.033
-411.369	617.915	-0.076	-0.190
-410.355	-200.000	-0.024	0.295
-409.340	226.297	-0.186	0.302
-408.325	-200.000	0.025	0.173
-407.311	-57.071	-0.091	0.040
-406.296	93.985	0.171	-0.194
-405.282	-38.191	-0.070	-0.037
-404.267	78.140	-0.066	-0.071
-403.252	-173.422	0.088	0.003
-402.238	-65.419	0.239	0.096
-401.223	259.631	-0.173	0.298
-400.209	-23.121	-0.178	0.107
-399.194	106.955	0.041	-0.049
-398.179	145.044	-0.046	-0.062
-397.165	85.288	-0.141	-0.154
-396.150	591.146	-0.045	-0.110
-395.136	-200.000	0.009	-0.042
-394.121	52.502	0.177	-0.169
-393.106	800.000	-0.026	0.086
-392.092	47.027	-0.086	0.080
-391.077	-13.131	-0.074	-0.048
-390.063	-200.000	-0.038	0.201
-389.048	-169.066	0.031	0.001
-388.033	-12.920	0.166	0.108
-387.019	800.000	0.118	0.462
-386.004	-178.522	-0.251	-0.006
-384.990	-200.000	-0.040	0.186
-383.975	310.905	0.080	0.149
-382.960	40.385	0.134	-0.120
-381.946	-153.834	0.072	0.005
-380.931	-128.562	0.164	-0.023
-379.917	800.000	-0.040	0.155
-378.902	98.612	-0.199	0.229
-377.888	42.649	-0.290	-0.263
-376.873	-48.529	-0.059	0.028
-375.858	-127.199	0.264	-0.038
-374.844	36.918	0.206	-0.182
-373.829	-200.000	0.016	-0.144
-372.815	-70.055	-0.134	0.051
-371.800	-90.424	-0.253	-0.073
-370.785	-62.641	0.245	-0.101
-369.771	89.512	0.229	0.254
-368.756	-88.793	0.129	0.038
-367.742	-150.538	-0.243	0.019
-366.727	-200.000	-0.045	-0.449
-365.712	22.673	0.192	-0.157
-364.698	-141.663	-0.278	-0.028
-363.683	279.661	-0.248	0.442
-362.669	800.000	-0.049	-0.186
-361.654	47.603	0.111	-0.103
-360.639	-153.494	-0.275	-0.019
-359.625	107.352	-0.097	0.115
-358.610	-89.454	-0.266	0.078
-357.596	12.448	0.165	0.127
-356.581	-106.058	-0.298	-0.067
-355.566	294.288	-0.034	-0.062
-354.552	-63.322	-0.065	0.027
-353.537	73.447	-0.115	0.120
-352.523	328.916	-0.145	0.277
-351.508	800.000	0.024	0.101
-350.493	800.000	0.054	-0.153
-349.479	-34.134	-0.228	0.125
-348.464	800.000	-0.032	0.097
-347.450	-200.000	0.003	0.081
-346.435	124.714	0.042	-0.053
-345.420	-136.916	-0.235	0.027
-344.406	506.524	0.111	0.256
-343.391	400.089	0.163	-0.341
-342.377	-1.849	0.230	0.161
-341.362	-78.131	0.238	0.082
-340.348	46.048	-0.223	-0.205
-339.333	-118.307	0.156	0.028
-338.318	140.791	0.137	0.180
-337.304	-2.927	0.309	-0.215
-336.289	161.267	0.152	0.211
-335.275	55.839	0.300	-0.289
-334.260	39.323	-0.098	-0.087
-333.245	97.542	0.101	0.116
-332.231	6.716	-0.241	-0.178
-331.216	299.475	-0.055	-0.101
-330.202	-200.000	0.015	-0.089
-329.187	55.157	-0.232	-0.223
-328.172	-54.240	-0.010	0.004
-327.158	-73.215	0.145	0.053
-326.143	37.614	-0.190	-0.168
-325.129	203.233	-0.138	-0.212
-324.114	-70.089	0.179	0.068
-323.099	-117.357	-0.148	0.027
-322.085	105.685	0.217	-0.256
-321.070	-70.688	-0.436	-0.164
-320.056	-43.404	-0.176	-0.088
-319.041	89.190	0.204	-0.225
-318.026	25.350	-0.155	-0.128
-317.012	671.381	0.196	0.506
-315.997	182.954	0.159	-0.233
-314.983	800.000	-0.041	-0.164
-313.968	-200.000	0.020	0.189
-312.953	800.000	0.158	-0.469
-311.939	45.782	0.098	0.090
-310.924	9.449	-0.102	-0.077
-309.910	800.000	0.011	-0.042
-308.895	-142.222	0.191	0.019
-307.880	199.551	0.104	-0.158
-306.866	357.701	0.090	0.179
-305.851	36.759	0.075	-0.066
-304.837	237.844	0.048	0.080
-303.822	79.719	-0.139	-0.149
-302.807	172.108	-0.113	0.161
-301.793	154.639	0.096	-0.130
-300.778	-200.000	0.032	0.144
-299.764	25.908	-0.219	-0.181
-298.749	800.000	0.055	-0.175
-297.735	34.497	-0.179	0.155
-296.720	-200.000	-0.006	0.157
-295.705	218.049	-0.038	-0.060
-294.691	291.806	-0.064	-0.115
-293.676	-79.345	0.073	0.025
-292.662	187.903	0.091	-0.136
-291.647	-151.341	0.227	-0.017
-290.632	-200.000	0.018	-0.183
-289.618	108.366	0.133	-0.158
-288.603	-168.265	-0.263	0.010
-287.589	-200.000	0.038	0.216
-286.574	-154.646	0.216	-0.014
-285.559	417.342	0.117	0.249
-284.545	611.206	-0.018	-0.044
-283.530	126.386	0.160	0.202
-282.516	-194.452	-0.206	-0.002
-281.501	-200.000	0.066	0.423
-280.486	-200.000	0.030	-0.191
-279.472	800.000	-0.053	0.218
-278.457	800.000	0.023	-0.073
-277.443	156.720	-0.103	0.141
-276.428	-200.000	0.006	0.186
-275.413	-169.534	-0.356	0.013
-274.399	24.680	-0.036	0.030
-273.384	20.835	0.071	0.057
-272.370	324.174	0.122	-0.231
-271.355	272.000	0.054	0.094
-270.340	294.689	0.184	0.334
-269.326	-200.000	-0.001	-0.061
-268.311	800.000	0.036	-0.122
-267.297	800.000	0.084	-0.245
-266.282	-200.000	0.012	-0.100
-265.267	-53.017	0.346	0.158
-264.253	162.613	0.239	-0.333
-263.238	-78.404	0.148	0.050
-262.224	-17.614	-0.200	0.125
-261.209	800.000	-0.062	0.228
-260.195	-200.000	0.070	0.331
-259.180	-76.273	0.211	0.074
-258.165	302.386	-0.074	-0.136
-257.151	800.000	0.053	-0.156
-256.136	-38.393	0.145	0.076
-255.122	153.209	0.151	0.205
-254.107	-44.945	0.063	0.031
-253.092	800.000	0.033	0.124
-252.078	-200.000	-0.001	-0.011
-251.063	-18.517	0.104	0.065
-250.049	514.461	-0.016	-0.037
-249.034	37.449	-0.165	-0.145
-248.019	202.367	0.165	-0.253
-247.005	-144.923	0.167	-0.015
-245.990	442.943	0.071	-0.155
-244.976	-123.418	0.478	-0.076
-243.961	800.000	0.052	0.187
-242.946	800.000	-0.046	0.192
-241.932	318.427	0.120	-0.226
-240.917	-200.000	-0.071	-0.312
-239.903	189.361	0.261	-0.388
-238.888	800.000	0.083	-0.261
-237.873	16.405	-0.153	-0.120
-236.859	-115.533	-0.220	-0.041
-235.844	-49.951	-0.219	-0.103
-234.830	-45.195	0.242	0.119
-233.815	142.244	-0.159	0.210
-232.800	-141.103	0.549	0.056
-231.786	-135.314	0.264	0.031
-230.771	-20.922	0.233	-0.142
-229.757	582.442	-0.148	0.361
-228.742	-200.000	0.013	0.263
-227.727	765.269	-0.146	-0.394
-226.713	-98.080	0.126	0.032
-225.698	-161.193	0.095	-0.005
-224.684	191.994	-0.047	-0.070
-223.669	-42.084	-0.245	-0.124
-222.655	-56.843	0.121	0.053
-221.640	-96.707	-0.262	0.068
-220.625	-165.520	-0.203	-0.009
-219.611	-103.412	-0.038	0.009
-218.596	284.849	-0.096	0.170
-217.582	-114.452	0.261	-0.050
-216.567	-144.061	-0.068	0.006
-215.552	70.928	0.063	-0.065
-214.538	-165.008	0.286	-0.013
-213.523	-113.426	-0.066	-0.013
-212.509	-117.792	0.243	0.043
-211.494	733.184	-0.094	-0.248
-210.479	259.293	-0.197	0.336
-209.465	-69.263	-0.122	0.047
-208.450	72.856	0.082	0.085
-207.436	-119.985	-0.084	-0.014
-206.421	-55.072	-0.294	-0.131
-205.406	-57.693	-0.200	0.087
-204.392	165.184	-0.122	0.171
-203.377	143.502	0.190	0.250
-202.363	-93.536	0.438	0.120
-201.348	-111.307	0.167	-0.034
-200.333	-84.524	-0.231	0.072
-199.319	-200.000	0.027	-0.283
-198.304	-23.110	0.031	-0.019
-197.290	800.000	-0.063	-0.199
-196.275	200.247	-0.122	0.186
-195.260	300.112	-0.127	0.232
-194.246	-200.000	0.019	0.310
-193.231	271.429	-0.158	-0.275
-192.217	76.473	-0.124	0.130
-191.202	800.000	0.047	-0.154
-190.187	150.050	0.075	0.101
-189.173	-77.258	-0.158	-0.054
-188.158	20.165	-0.090	-0.072
-187.144	-200.000	-0.055	-0.382
-186.129	-137.052	0.046	0.005
-185.114	800.000	0.043	-0.131
-184.100	79.026	0.103	-0.109
-183.085	-60.158	-0.299	-0.126
-182.071	-51.246	-0.259	-0.120
-181.056	229.381	-0.062	0.100
-180.042	-49.531	-0.073	0.034
-179.027	29.599	-0.196	0.165
-178.012	-129.920	0.330	0.045
-176.998	95.036	0.055	0.062
-175.983	-163.389	-0.453	0.021
-174.969	-111.762	0.165	-0.033
-173.954	-76.950	-0.067	-0.023
-172.939	-200.000	-0.078	0.568
-171.925	-89.996	0.297	0.086
-170.910	-200.000	-0.001	0.243
-169.896	136.127	-0.088	-0.114
-168.881	800.000	0.099	0.303
-167.866	26.978	0.220	-0.182
-166.852	-200.000	-0.013	-0.184
-165.837	-155.034	0.236	-0.015
-164.823	12.834	0.160	-0.122
-163.808	128.772	0.167	-0.210
-162.793	-121.103	0.079	0.013
-161.779	569.219	-0.134	0.323
-160.764	-200.000	0.034	0.205
-159.750	241.898	-0.037	0.062
-158.735	-200.000	0.023	0.173
-157.720	-200.000	0.017	0.124
-156.706	-200.000	-0.054	-0.242
-155.691	451.872	0.153	-0.335
-154.677	76.046	0.173	-0.181
-153.662	273.423	0.068	0.119
-152.647	-70.092	0.170	0.064
-151.633	-54.260	0.113	0.051
-150.618	119.685	0.076	-0.092
-149.604	-25.385	0.412	-0.241
-148.589	-89.053	-0.116	0.034
-147.574	-200.000	-0.008	-0.182
-146.560	-85.757	-0.184	0.056
-145.545	-156.896	0.233	-0.014
-144.531	-56.500	0.361	-0.158
-143.516	-97.796	-0.195	-0.050
-142.502	296.356	-0.054	0.098
-141.487	800.000	0.052	-0.219
-140.472	52.805	-0.152	-0.143
-139.458	-129.549	0.204	0.028
-138.443	800.000	0.060	0.207
-137.429	-74.276	0.244	-0.087
-136.414	51.557	-0.259	0.243
-135.399	-37.361	-0.333	-0.176
-134.385	800.000	0.021	-0.066
-133.370	11.536	0.157	-0.119
-132.356	-23.717	-0.158	0.094
-131.341	312.005	0.044	-0.082
-130.326	800.000	0.053	-0.214
-129.312	-200.000	-0.008	-0.352
-128.297	422.301	0.242	-0.512
-127.283	-29.108	-0.074	0.042
-126.268	-200.000	-0.001	-0.111
-125.253	99.281	-0.090	0.103
-124.239	-55.002	-0.139	-0.062
-123.224	-193.800	-0.211	0.002
-122.210	-66.538	-0.376	0.147
-121.195	116.690	-0.051	-0.061
-120.180	237.104	-0.207	0.338
-119.166	117.487	-0.262	0.318
-118.151	165.208	0.096	-0.133
-117.137	-63.523	-0.110	-0.045
-116.122	-24.545	0.265	0.155
-115.107	156.446	-0.116	-0.159
-114.093	-25.869	-0.140	-0.081
-113.078	453.373	0.164	-0.359
-112.064	34.901	-0.067	0.058
-111.049	278.161	0.059	0.104
-110.034	-23.208	0.045	-0.027
-109.020	126.005	0.109	0.136
-108.005	-200.000	0.028	0.128
-106.991	-67.603	-0.280	0.108
-105.976	144.292	0.040	-0.053
-104.962	-200.000	-0.023	-0.293
-103.947	-200.000	0.024	-0.161
-102.932	-11.111	-0.394	-0.256
-101.918	153.133	0.047	0.064
-100.903	-200.000	0.013	0.193
-99.889	88.093	-0.101	0.111
-98.874	-148.486	0.360	0.029
-97.859	-8.656	0.232	-0.154
-96.845	-38.331	-0.176	-0.092
-95.830	800.000	0.031	-0.105
-94.816	-101.012	0.107	0.026
-93.801	-125.313	0.231	0.035
-92.786	26.297	0.240	-0.197
-91.772	-78.129	0.247	0.084
-90.757	56.154	0.156	0.149
-89.743	-200.000	-0.019	-0.222
-88.728	-95.535	0.030	-0.008
-87.713	-120.907	0.088	-0.015
-86.699	49.020	0.053	-0.049
-85.684	-133.934	0.154	-0.019
-84.670	48.812	-0.098	-0.091
-83.655	551.014	-0.025	0.059
-82.640	475.269	-0.068	0.151
-81.626	-125.008	-0.240	-0.036
-80.611	-129.332	0.340	-0.047
-79.597	234.305	-0.060	-0.097
-78.582	287.562	0.009	0.016
-77.567	96.492	0.326	-0.367
-76.553	-72.150	0.603	-0.221
-75.538	-200.000	-0.021	-0.131
-74.524	-60.107	-0.207	-0.087
-73.509	-77.810	0.519	-0.177
-72.494	-54.711	0.225	-0.100
-71.480	-72.127	-0.188	0.069
-70.465	800.000	-0.071	0.290
-69.451	-122.447	-0.180	0.029
-68.436	25.102	0.220	0.180
-67.422	-200.000	-0.022	-0.420
-66.407	-200.000	0.029	-0.134
-65.392	-90.022	-0.169	0.049
-64.378	-200.000	0.049	0.241
-63.363	82.734	0.117	0.125
-62.349	154.684	0.061	0.082
-61.334	63.550	-0.953	-0.942
-60.319	132.083	0.621	0.787
-59.305	156.083	-0.765	-1.039
-58.290	247.131	0.562	0.934
-57.276	800.000	0.601	1.734
-56.261	-200.000	95.309	593.229
-55.246	659.203	1367.463	3463.830
-54.232	200.175	2541.209	3841.534
-53.217	120.454	2138.709	2614.459
-52.203	44.174	1602.681	1446.915
-51.188	35.688	1341.017	1159.723
-50.173	32.479	1299.635	1105.088
-49.159	54.642	1345.771	1277.043
-48.144	56.644	1362.701	1304.993
-47.130	35.716	1322.820	1143.972
-46.115	32.316	1304.932	1108.455
-45.100	32.116	1299.644	1102.746
-44.086	32.073	1297.273	1100.438
-43.071	32.011	1294.759	1097.900
-42.057	31.922	1293.051	1095.884
-41.042	31.961	1290.822	1094.182
-40.027	32.065	1289.538	1093.653
-39.013	32.017	1287.897	1091.944
-37.998	32.068	1285.770	1090.391
-36.984	32.094	1284.146	1089.119
-35.969	32.080	1282.325	1087.450
-34.954	32.117	1280.798	1086.328
-33.940	32.268	1279.551	1086.103
-32.925	32.215	1278.331	1084.715
-31.911	32.255	1276.476	1083.328
-30.896	32.191	1275.295	1081.917
-29.881	32.125	1273.770	1080.202
-28.867	32.290	1272.506	1080.032
-27.852	32.201	1271.026	1078.221
-26.838	32.389	1269.249	1077.749
-25.823	32.192	1268.254	1075.734
-24.809	32.094	1267.621	1074.593
-23.794	32.201	1265.792	1073.614
-22.779	32.190	1264.435	1072.356
-21.765	32.132	1262.965	1070.735
-20.750	32.126	1261.661	1069.553
-19.736	32.087	1260.425	1068.242
-18.721	32.033	1259.732	1067.304
-17.706	32.062	1258.434	1066.324
-16.692	32.134	1257.107	1065.569
-15.677	32.071	1256.050	1064.273
-14.663	32.084	1254.656	1063.122
-13.648	32.048	1253.922	1062.258
-12.633	32.010	1252.390	1060.701
-11.619	31.980	1252.151	1060.285
-10.604	32.125	1251.043	1060.124
-9.590	32.002	1250.220	1058.690
-8.575	31.973	1249.001	1057.456
-7.560	32.088	1248.156	1057.346
-6.546	32.018	1247.369	1056.245
-5.531	31.991	1246.330	1055.169
-4.517	32.021	1245.786	1054.836
-3.502	32.042	1245.127	1054.350
-2.487	32.089	1243.867	1053.506
-1.473	32.004	1239.653	1049.419
-0.458	30.588	1225.140	1029.260
0.556	26.024	1207.492	991.586
1.571	22.472	1212.779	976.188
2.586	21.414	1227.711	982.183
3.600	20.912	1216.430	970.276
4.615	15.942	1145.461	887.464
5.629	8.171	1072.033	792.042
6.644	4.692	1052.856	760.815
7.659	4.493	1050.493	758.069
8.673	4.535	1049.134	757.225
9.688	4.509	1047.960	756.185
10.702	4.629	1045.968	755.263
11.717	9.060	1051.893	781.077
12.731	16.112	1061.840	822.926
13.746	18.978	1064.214	838.688
14.761	18.164	1063.140	833.799
15.775	17.004	1061.242	826.592
16.790	16.024	1058.640	819.725
17.804	15.314	1057.380	815.229
18.819	15.029	1055.992	812.700
19.834	14.769	1055.234	810.784
20.848	14.499	1054.968	809.198
21.863	14.169	1053.978	806.765
22.877	14.074	1053.274	805.696
23.892	14.231	1051.951	805.372
24.907	14.195	1051.682	804.923
25.921	14.268	1050.269	804.121
26.936	14.279	1048.844	803.013
27.950	14.322	1047.487	802.110
28.965	14.226	1046.472	800.797
29.980	14.392	1044.739	800.201
30.994	14.377	1043.589	799.175
32.009	14.593	1042.441	799.259
33.023	14.380	1041.768	797.655
34.038	14.380	1040.476	796.592
35.053	14.323	1039.853	795.775
36.067	14.323	1038.768	794.874
37.082	14.245	1038.138	793.951
38.096	14.391	1037.261	793.903
39.111	14.356	1036.403	793.010
40.126	14.295	1034.983	791.562
41.140	14.186	1034.036	790.254
42.155	14.012	1032.847	788.449
43.169	13.977	1031.736	787.362
44.184	14.143	1030.791	787.359
45.199	14.042	1029.785	786.044
46.213	14.239	1028.597	785.996
47.228	14.196	1028.113	785.357
48.242	14.276	1026.564	784.478
49.257	14.288	1025.926	783.978
50.271	14.369	1024.849	783.469
51.286	14.426	1024.339	783.277
52.301	14.421	1023.133	782.261
53.315	14.268	1022.067	780.661
54.330	14.222	1020.799	779.407
55.344	14.199	1020.439	778.953
56.359	14.226	1019.337	778.170
57.374	14.055	1018.422	776.606
58.388	14.050	1017.552	775.848
59.403	14.072	1017.181	775.602
60.417	13.960	1016.267	774.314
61.432	13.970	1015.613	773.794
62.447	13.970	1014.525	772.896
63.461	14.040	1013.495	772.367
64.476	14.036	1012.490	771.516
65.490	13.929	1011.920	770.515
66.505	14.084	1011.172	770.595
67.520	13.985	1010.944	769.897
68.534	13.972	1010.332	769.300
69.549	13.843	1009.425	767.947
70.563	14.024	1008.449	767.972
71.578	13.963	1007.418	766.837
72.593	13.826	1006.810	765.675
73.607	13.850	1005.896	765.025
74.622	13.862	1005.788	764.930
75.636	13.986	1004.872	764.737
76.651	13.854	1004.377	763.685
77.666	13.902	1003.793	763.391
78.680	14.005	1002.640	762.919
79.695	13.886	1002.551	762.238
80.709	13.923	1002.081	761.984
81.724	14.032	1001.241	761.778
82.739	14.109	1000.480	761.482
83.753	14.333	999.600	761.773
84.768	14.402	998.964	761.535
85.782	14.502	997.733	760.984
86.797	14.383	997.202	759.971
87.812	14.225	996.408	758.580
88.826	14.304	995.095	757.872
89.841	14.350	994.145	757.291
90.855	14.398	993.320	756.813
91.870	14.565	992.533	756.904
92.884	14.358	992.169	755.621
93.899	14.542	990.418	755.052
94.914	14.600	989.798	754.775
95.928	14.441	989.183	753.522
96.943	14.413	988.444	752.763
97.957	14.515	987.200	752.213
98.972	14.287	987.220	751.132
99.987	14.303	986.334	750.460
101.001	14.378	985.031	749.742
102.016	14.449	984.350	749.478
103.030	14.508	983.426	748.973
104.045	14.344	982.932	747.795
105.060	14.384	981.598	746.891
106.074	14.229	981.244	745.863
107.089	14.118	979.935	744.303
108.103	14.084	978.847	743.262
109.118	14.092	978.045	742.623
110.133	14.049	977.028	741.591
111.147	14.098	975.872	740.869
112.162	14.235	975.451	741.090
113.176	14.252	974.846	740.640
114.191	14.178	974.004	739.609
115.206	14.116	973.540	738.913
116.220	14.173	972.774	738.519
117.235	14.249	971.501	737.826
118.249	14.133	971.003	736.866
119.264	14.067	970.291	735.970
120.279	14.090	969.403	735.335
121.293	14.248	967.942	734.857
122.308	13.965	967.849	733.474
123.322	13.978	967.187	732.964
124.337	13.987	965.944	731.998
125.352	14.172	964.731	731.825
126.366	14.118	963.277	730.421
127.381	14.097	962.508	729.683
128.395	14.117	961.757	729.135
129.410	14.136	961.402	728.886
130.424	14.142	959.968	727.760
131.439	14.186	959.809	727.768
132.454	14.167	958.972	726.983
133.468	14.427	957.546	726.972
134.483	14.268	957.069	725.853
135.497	14.296	956.084	725.167
136.512	14.225	955.521	724.367
137.527	14.193	954.839	723.644
138.541	14.385	953.698	723.552
139.556	14.425	953.177	723.263
140.570	14.376	952.872	722.754
141.585	14.507	951.730	722.395
142.600	14.455	950.890	721.466
143.614	14.576	949.928	721.198
144.629	14.580	949.702	720.979
145.643	14.461	948.630	719.585
146.658	14.401	947.379	718.317
147.673	14.387	946.778	717.735
148.687	14.174	945.589	715.856
149.702	14.293	944.790	715.700
150.716	14.373	943.565	715.049
151.731	14.397	943.165	714.785
152.746	14.350	942.676	714.151
153.760	14.432	942.232	714.105
154.775	14.423	941.714	713.607
155.789	14.530	940.619	713.173
156.804	14.537	940.416	712.987
157.819	14.590	939.310	712.310
158.833	14.634	938.955	712.165
159.848	14.526	938.435	711.250
160.862	14.464	937.816	710.452
161.877	14.515	936.217	709.397
162.892	14.443	935.214	708.268
163.906	14.380	934.525	707.416
164.921	14.307	933.498	706.266
165.935	14.421	932.705	706.085
166.950	14.460	931.628	705.372
167.964	14.555	930.531	704.881
168.979	14.466	930.046	704.076
169.994	14.484	929.284	703.513
171.008	14.454	928.714	702.891
172.023	14.640	927.482	702.681
173.037	14.701	926.767	702.333
174.052	14.582	926.316	701.430
175.067	14.545	925.882	700.883
176.081	14.303	925.309	699.371
177.096	14.415	924.683	699.304
178.110	14.586	924.045	699.477
179.125	14.560	923.400	698.819
180.140	14.696	922.577	698.703
181.154	14.494	922.796	697.963
182.169	14.776	922.194	698.625
183.183	14.728	921.746	698.021
184.198	14.828	920.383	697.346
185.213	14.756	920.053	696.735
186.227	14.863	918.791	696.164
187.242	14.825	918.742	695.904
188.256	14.936	918.038	695.773
189.271	14.877	917.266	694.882
190.286	14.731	915.928	693.202
191.300	14.421	915.891	691.824
192.315	14.535	915.222	691.731
193.329	14.469	914.439	690.803
194.344	14.673	913.695	691.024
195.359	14.788	912.983	690.899
196.373	14.899	912.602	691.010
197.388	14.995	912.381	691.180
198.402	15.047	911.997	691.040
199.417	14.990	911.338	690.244
200.432	15.103	910.730	690.192
201.446	15.097	910.631	690.030
202.461	15.088	910.081	689.515
203.475	15.126	909.024	688.810
204.490	14.930	908.591	687.614
205.504	15.024	907.373	687.017
206.519	14.937	906.774	686.147
207.534	14.950	906.159	685.673
208.548	15.095	904.974	685.309
209.563	14.967	904.842	684.623
210.577	15.110	904.180	684.649
211.592	15.038	904.056	684.198
212.607	15.127	902.677	683.457
213.621	15.116	902.562	683.266
214.636	15.280	901.330	682.940
215.650	15.163	900.994	682.151
216.665	15.273	900.004	681.788
217.680	15.264	899.304	681.158
218.694	15.261	898.906	680.787
219.709	15.284	897.711	679.912
220.723	15.159	897.494	679.185
221.738	15.176	896.963	678.788
222.753	15.299	896.263	678.698
223.767	15.193	896.206	678.167
224.782	15.447	895.255	678.413
225.796	15.411	894.854	677.902
226.811	15.368	894.008	677.029
227.826	15.224	893.479	675.986
228.840	15.280	892.353	675.302
229.855	15.207	891.950	674.641
230.869	15.248	891.043	674.062
231.884	15.259	890.258	673.451
232.899	15.328	889.398	673.019
233.913	15.266	888.735	672.209
234.928	15.316	888.003	671.799
235.942	15.137	887.961	670.986
236.957	15.184	887.165	670.517
237.972	15.312	886.385	670.377
238.986	15.104	886.068	669.250
240.001	15.167	885.537	669.039
241.015	15.257	884.258	668.373
242.030	15.347	884.078	668.536
243.045	15.401	883.859	668.529
244.059	15.406	882.895	667.760
245.074	15.410	882.082	667.101
246.088	15.577	881.214	667.048
247.103	15.598	881.013	666.921
248.117	15.655	880.474	666.678
249.132	15.617	880.116	666.199
250.147	15.847	879.246	666.392
251.161	15.828	878.541	665.722
252.176	15.820	877.943	665.179
253.190	15.949	877.124	665.009
254.205	15.929	876.765	664.599
255.220	16.063	876.010	664.498
256.234	16.006	875.742	664.010
257.249	15.985	875.187	663.449
258.263	15.931	874.745	662.842
259.278	15.909	873.835	662.007
260.293	16.034	873.177	661.943
261.307	16.138	871.955	661.363
262.322	16.058	871.834	660.901
263.336	16.178	870.895	660.599
264.351	16.213	870.012	660.008
265.366	16.171	869.838	659.654
266.380	16.215	869.171	659.262
267.395	16.007	868.800	658.109
268.409	16.096	867.779	657.623
269.424	16.058	867.139	656.933
270.439	16.005	866.532	656.211
271.453	15.906	865.977	655.347
272.468	16.078	865.318	655.458
273.482	16.007	864.814	654.740
274.497	16.103	863.844	654.322
275.512	16.209	863.288	654.256
276.526	16.082	863.165	653.609
277.541	16.072	862.778	653.219
278.555	16.136	862.096	652.896
279.570	16.286	861.361	652.860
280.585	16.284	860.823	652.388
281.599	16.290	859.693	651.496
282.614	16.195	859.245	650.735
283.628	16.233	858.512	650.266
284.643	16.188	857.867	649.547
285.657	16.206	857.647	649.394
286.672	16.292	856.798	649.024
287.687	16.239	856.525	648.556
288.701	16.361	855.582	648.252
289.716	16.339	855.044	647.704
290.730	16.250	854.811	647.126
291.745	16.458	853.990	647.246
292.760	16.561	853.081	646.892
293.774	16.424	852.613	645.957
294.789	16.522	851.950	645.771
295.803	16.469	851.282	645.008
296.818	16.412	850.883	644.429
297.833	16.366	849.976	643.511
298.847	16.327	849.611	643.030
299.862	16.591	848.849	643.399
300.876	16.503	848.505	642.748
301.891	16.569	847.780	642.393
302.906	16.570	847.461	642.095
303.920	16.700	846.794	642.026
304.935	16.601	846.497	641.369
305.949	16.756	845.691	641.289
306.964	16.501	845.528	640.142
307.979	16.669	844.801	640.172
308.993	16.756	843.900	639.763
310.008	16.793	843.328	639.411
311.022	16.696	842.768	638.564
312.037	16.626	842.132	637.762
313.052	16.591	841.454	637.061
314.066	16.686	840.995	637.014
315.081	16.587	840.368	636.112
316.095	16.610	839.938	635.815
317.110	16.717	839.257	635.644
318.125	16.689	838.673	635.043
319.139	16.561	838.730	634.549
320.154	16.639	837.876	634.138
321.168	16.716	837.277	633.917
322.183	16.630	836.877	633.235
323.197	16.793	836.387	633.421
324.212	16.781	835.655	632.765
325.227	16.720	835.182	632.124
326.241	16.762	834.374	631.612
327.256	16.729	834.102	631.228
328.270	16.736	833.438	630.694
329.285	16.855	832.741	630.555
330.300	16.626	832.738	629.642
331.314	16.672	832.105	629.280
332.329	16.924	831.358	629.596
333.343	16.757	831.410	628.958
334.358	16.820	830.966	628.800
335.373	16.794	830.686	628.437
336.387	16.857	829.981	628.080
337.402	17.076	829.776	628.684
338.416	17.045	829.403	628.228
339.431	17.104	829.232	628.262
340.446	17.278	828.633	628.397
341.460	17.113	828.228	627.423
342.475	17.174	827.675	627.173
343.489	17.208	827.374	627.015
344.504	17.264	826.994	626.877
345.519	17.260	826.574	626.493
346.533	17.166	825.958	625.623
347.548	17.282	825.292	625.489
348.562	17.149	824.873	624.626
349.577	17.120	824.031	623.826
350.592	17.112	823.427	623.286
351.606	17.127	822.712	622.745
352.621	17.202	821.787	622.266
353.635	17.116	821.357	621.568
354.650	17.051	821.279	621.215
355.665	17.187	820.263	620.890
356.679	17.250	819.933	620.816
357.694	17.175	819.441	620.114
358.708	17.292	818.533	619.798
359.723	17.277	817.934	619.237
360.738	17.160	817.683	618.565
361.752	17.404	817.037	618.910
362.767	17.469	816.361	618.578
363.781	17.707	815.584	618.799
364.796	17.494	815.634	618.010
365.810	17.644	815.177	618.154
366.825	17.468	814.985	617.313
367.840	17.509	814.533	617.066
368.854	17.434	814.084	616.399
369.869	17.553	813.181	616.092
370.883	17.544	813.033	615.893
371.898	17.811	812.555	616.442
372.913	17.582	812.370	615.419
373.927	17.632	811.660	615.008
374.942	17.699	811.193	614.839
375.956	17.948	810.741	615.342
376.971	17.744	810.662	614.491
377.986	17.967	810.157	614.858
379.000	17.747	809.725	613.683
380.015	17.879	808.794	613.399
381.029	17.877	808.361	613.009
382.044	17.755	807.847	612.126
383.059	17.801	807.379	611.881
384.073	17.803	806.948	611.509
385.088	17.815	805.949	610.742
386.102	17.779	805.415	610.154
387.117	17.834	805.016	609.994
388.132	17.772	804.529	609.347
389.146	17.746	803.896	608.721
390.161	17.879	803.794	609.067
391.175	17.997	802.917	608.766
392.190	17.847	802.785	608.079
393.205	17.799	802.071	607.314
394.219	17.717	801.755	606.730
395.234	17.617	801.689	606.271
396.248	17.608	800.774	605.493
397.263	17.665	800.566	605.484
398.278	17.674	799.831	604.906
399.292	17.749	799.043	604.523
400.307	17.831	798.606	604.430
401.321	17.858	798.411	604.323
402.336	17.853	798.104	604.019
403.350	17.711	797.651	603.120
404.365	17.942	797.105	603.473
405.380	18.166	796.678	603.887
406.394	18.022	796.505	603.194
407.409	18.073	796.309	603.170
408.423	18.108	795.588	602.696
409.438	18.226	795.484	602.978
410.453	18.174	794.955	602.341
411.467	18.172	794.371	601.838
412.482	18.292	794.266	602.128
413.496	18.357	793.687	601.863
414.511	18.283	793.522	601.426
415.526	18.380	792.615	601.026
416.540	18.333	792.474	600.700
417.555	18.373	792.147	600.539
418.569	18.506	791.569	600.513
419.584	18.368	790.984	599.535
420.599	18.406	790.512	599.258
421.613	156.307	1370.506	1794.293
422.628	135.208	1455.031	1794.398
