DTS Sentinel unit serial number:	SN413079Multiplexer serial number:	ORYXHardware model number:	OX4-SRSoftware version number:	ORYX F/W v4.00 Oryx Data Collector v3.7.2.0data status	okinstallation	princeton_trtdifferential loss correction	single-endedforward channel	channel 1reverse channel	N/Adate	2019/09/13time	15:10:35forward acquisition time	60.00reverse acquisition time	0.00gamma	496.2192k internal	0.2302k external	0.2302temperature offset calibration	1.0158default loss term (dB/km)	0.3790temperature slope calibration	1.0000multiplexer offset coefficient	1.0000multiplexer slope coefficient	1.0000fibre end	0.00T internal ref (°C)	35.61T ext. ref 1 (°C)	4.72T ext. ref 2 (°C)	30.80length (m)	temperature (°C)	Stokes	anti-Stokes-747.200	-9.037	-0.034	-0.024
-746.185	-200.000	0.041	0.240
-745.171	708.767	-0.032	0.086
-744.156	-200.000	-0.018	0.120
-743.142	347.808	-0.111	-0.222
-742.127	-200.000	0.008	0.088
-741.112	-30.654	-0.151	0.087
-740.098	22.896	-0.053	0.044
-739.083	159.159	0.170	-0.241
-738.069	719.523	-0.100	0.272
-737.054	26.472	0.164	0.139
-736.039	-8.237	0.168	-0.115
-735.025	800.000	-0.048	0.206
-734.010	-7.225	-0.281	-0.194
-732.996	-73.950	-0.216	0.080
-731.981	90.701	-0.117	-0.133
-730.966	87.289	-0.380	-0.428
-729.952	252.903	-0.160	-0.278
-728.937	-200.000	-0.239	0.000
-727.923	-200.000	0.058	0.349
-726.908	800.000	-0.047	-0.155
-725.894	-40.963	-0.194	-0.102
-724.879	92.150	0.231	0.265
-723.864	139.672	-0.164	-0.220
-722.850	-129.523	-0.257	0.036
-721.835	-55.427	0.164	-0.075
-720.821	64.374	-0.309	-0.317
-719.806	800.000	0.064	-0.196
-718.791	-135.412	-0.172	0.021
-717.777	9.827	0.235	0.181
-716.762	79.605	-0.066	0.072
-715.748	-200.000	0.064	-0.356
-714.733	-38.318	-0.262	0.141
-713.718	-82.758	0.205	0.067
-712.704	-200.000	-0.040	-0.269
-711.689	186.627	-0.207	0.313
-710.675	-55.646	-0.262	-0.119
-709.660	758.577	-0.088	-0.243
-708.645	800.000	-0.151	-0.435
-707.631	-46.409	-0.315	0.157
-706.616	-111.496	-0.364	0.075
-705.602	100.386	0.050	0.059
-704.587	-122.713	-0.305	-0.050
-703.572	-200.000	-0.017	-0.107
-702.558	-18.316	-0.422	-0.269
-701.543	118.981	-0.107	-0.135
-700.529	400.176	0.081	0.174
-699.514	268.875	0.126	-0.225
-698.499	612.305	-0.074	-0.188
-697.485	-200.000	-0.014	0.236
-696.470	-27.253	-0.359	0.212
-695.456	-121.498	0.162	0.027
-694.441	800.000	0.049	-0.144
-693.426	166.702	-0.172	-0.249
-692.412	203.620	-0.251	-0.394
-691.397	-200.000	-0.056	-0.366
-690.383	-200.000	0.051	-0.238
-689.368	-70.554	-0.129	-0.050
-688.354	30.555	-0.174	-0.151
-687.339	-200.000	0.010	0.098
-686.324	19.646	-0.045	0.037
-685.310	-26.205	-0.289	0.173
-684.295	-200.000	-0.021	-0.152
-683.281	-190.008	-0.079	-0.001
-682.266	210.548	0.143	-0.228
-681.251	228.111	0.106	0.175
-680.237	-200.000	0.004	-0.023
-679.222	-52.060	0.486	0.229
-678.208	-200.000	-0.042	0.352
-677.193	-18.290	-0.200	0.127
-676.178	226.866	-0.110	0.182
-675.164	-60.688	-0.147	0.063
-674.149	396.552	0.103	-0.218
-673.135	-81.192	0.223	0.075
-672.120	-200.000	-0.007	-0.086
-671.105	800.000	0.054	-0.174
-670.091	-53.522	-0.415	-0.193
-669.076	-16.412	0.235	-0.152
-668.062	-200.000	0.051	0.413
-667.047	-200.000	0.022	-0.164
-666.032	-57.601	-0.439	-0.195
-665.018	149.868	0.195	0.268
-664.003	-7.971	-0.294	-0.201
-662.989	39.906	-0.244	-0.223
-661.974	-200.000	0.077	-0.415
-660.959	-145.105	0.092	-0.008
-659.945	-110.213	-0.108	0.023
-658.930	-111.691	-0.103	-0.021
-657.916	-45.896	-0.228	0.114
-656.901	-200.000	0.044	-0.230
-655.886	-200.000	-0.034	0.198
-654.872	292.919	0.071	-0.132
-653.857	-88.603	-0.155	-0.047
-652.843	156.956	-0.110	-0.155
-651.828	-53.159	-0.282	-0.132
-650.814	15.961	-0.183	0.146
-649.799	31.726	0.193	-0.169
-648.784	448.077	0.138	-0.309
-647.770	-92.926	-0.024	0.007
-646.755	-36.446	-0.271	-0.148
-645.741	-144.084	-0.094	-0.009
-644.726	800.000	0.047	0.201
-643.711	-111.618	0.142	0.029
-642.697	63.046	0.116	0.117
-641.682	198.882	0.110	0.172
-640.668	-65.685	-0.145	0.059
-639.653	327.997	0.079	0.155
-638.638	77.864	-0.185	0.201
-637.624	-34.486	-0.148	0.082
-636.609	800.000	-0.067	0.282
-635.595	294.164	-0.077	0.143
-634.580	-200.000	0.115	-0.000
-633.565	146.815	-0.139	-0.190
-632.551	-200.000	-0.013	0.107
-631.536	800.000	-0.043	-0.159
-630.522	-200.000	-0.102	-0.493
-629.507	-12.803	-0.186	0.123
-628.492	384.181	-0.024	-0.050
-627.478	-200.000	-0.004	-0.241
-626.463	-49.211	0.305	-0.148
-625.449	38.949	0.289	0.262
-624.434	-200.000	0.047	0.339
-623.419	-200.000	0.049	-0.224
-622.405	4.772	-0.240	-0.179
-621.390	-175.444	-0.206	-0.006
-620.376	-167.846	0.223	0.009
-619.361	141.362	-0.080	-0.108
-618.346	-46.799	0.076	-0.038
-617.332	-50.675	-0.482	0.230
-616.317	-34.311	0.399	-0.222
-615.303	-54.959	0.094	0.043
-614.288	-109.382	0.263	0.056
-613.273	-16.980	-0.144	0.092
-612.259	636.340	-0.145	-0.373
-611.244	239.392	0.082	-0.138
-610.230	410.739	-0.164	-0.354
-609.215	104.793	0.056	0.067
-608.201	-200.000	-0.025	0.125
-607.186	-119.206	0.213	0.038
-606.171	-77.487	0.403	-0.142
-605.157	431.891	0.056	-0.122
-604.142	-200.000	0.013	-0.368
-603.128	-74.031	-0.223	0.082
-602.113	42.680	-0.147	-0.136
-601.098	800.000	0.094	-0.350
-600.084	-110.622	-0.335	-0.070
-599.069	53.040	0.085	-0.082
-598.055	720.222	-0.065	-0.176
-597.040	-200.000	0.016	-0.091
-596.025	-46.055	-0.077	-0.038
-595.011	35.750	-0.153	0.136
-593.996	686.086	0.046	0.121
-592.982	696.222	0.138	-0.367
-591.967	193.526	-0.218	0.335
-590.952	-91.875	0.292	0.084
-589.938	73.614	-0.151	-0.160
-588.923	-25.595	0.401	-0.240
-587.909	-106.156	-0.098	0.022
-586.894	-107.540	-0.301	0.067
-585.879	331.080	0.032	0.062
-584.865	-200.000	0.017	0.120
-583.850	800.000	0.031	-0.129
-582.836	800.000	-0.066	-0.209
-581.821	-135.376	-0.146	-0.018
-580.806	-91.454	-0.246	-0.071
-579.792	-58.559	-0.152	0.067
-578.777	-200.000	0.083	0.416
-577.763	177.658	-0.178	0.263
-576.748	-200.000	-0.101	-0.453
-575.733	800.000	0.028	-0.110
-574.719	396.352	-0.082	-0.173
-573.704	-200.000	-0.005	-0.106
-572.690	67.348	0.244	0.252
-571.675	-200.000	0.052	0.484
-570.661	-6.921	0.076	0.052
-569.646	800.000	0.043	-0.154
-568.631	27.268	-0.205	0.174
-567.617	-10.574	0.126	0.085
-566.602	-60.046	0.132	0.057
-565.588	-29.298	0.240	-0.139
-564.573	800.000	-0.043	0.152
-563.558	52.569	-0.233	0.225
-562.544	800.000	0.025	0.111
-561.529	5.266	0.286	0.213
-560.515	123.496	-0.220	-0.280
-559.500	-200.000	-0.019	0.163
-558.485	104.374	0.280	-0.334
-557.471	-200.000	0.006	0.319
-556.456	-25.742	-0.268	0.160
-555.442	-37.949	-0.177	-0.095
-554.427	-156.819	-0.328	-0.020
-553.412	-106.582	0.193	0.043
-552.398	-198.924	0.307	-0.002
-551.383	-200.000	0.037	0.316
-550.369	19.129	-0.265	-0.215
-549.354	-121.360	0.148	-0.025
-548.339	66.429	0.025	-0.026
-547.325	-176.807	0.070	-0.002
-546.310	29.013	-0.193	-0.166
-545.296	407.978	-0.241	-0.515
-544.281	-200.000	0.048	-0.259
-543.266	7.210	-0.189	-0.143
-542.252	-80.110	-0.054	-0.018
-541.237	17.818	0.154	0.124
-540.223	114.531	0.207	0.255
-539.208	99.363	0.123	-0.144
-538.193	-39.998	-0.244	-0.129
-537.179	67.647	-0.127	0.132
-536.164	-139.101	0.217	0.024
-535.150	62.689	0.209	-0.212
-534.135	-160.666	0.159	0.009
-533.121	259.834	0.076	-0.133
-532.106	-69.218	-0.045	-0.017
-531.091	51.867	0.094	0.091
-530.077	-33.307	-0.275	0.154
-529.062	741.122	0.130	0.353
-528.048	-200.000	0.018	-0.114
-527.033	634.830	0.019	0.049
-526.018	-31.700	-0.287	0.162
-525.004	-93.833	0.243	0.068
-523.989	-51.308	-0.066	-0.031
-522.975	-85.937	0.231	-0.072
-521.960	549.150	-0.053	-0.128
-520.945	-200.000	-0.021	-0.274
-519.931	125.153	-0.032	0.040
-518.916	-173.549	-0.274	-0.008
-517.902	-200.000	0.000	-0.250
-516.887	-82.356	-0.340	-0.112
-515.872	215.379	0.143	-0.229
-514.858	169.170	0.125	0.181
-513.843	430.972	0.021	0.047
-512.829	-66.385	-0.301	-0.121
-511.814	-41.636	-0.278	-0.144
-510.799	475.327	-0.047	-0.108
-509.785	-146.874	-0.296	0.026
-508.770	238.895	0.129	0.217
-507.756	23.016	-0.102	0.084
-506.741	9.828	0.148	-0.114
-505.726	-200.000	-0.000	0.145
-504.712	800.000	-0.107	0.303
-503.697	-200.000	-0.026	-0.156
-502.683	4.038	-0.184	0.136
-501.668	-26.245	0.311	-0.184
-500.653	-44.180	-0.084	-0.043
-499.639	-128.438	-0.273	0.039
-498.624	-161.154	0.186	0.010
-497.610	-200.000	0.025	0.478
-496.595	800.000	-0.047	0.202
-495.581	-56.376	0.084	0.038
-494.566	159.743	-0.074	-0.104
-493.551	-102.049	-0.269	0.065
-492.537	-200.000	0.021	0.197
-491.522	477.018	0.026	0.060
-490.508	247.010	-0.173	-0.294
-489.493	-54.724	0.052	-0.024
-488.478	-83.554	0.218	-0.070
-487.464	-60.783	0.114	-0.049
-486.449	323.564	0.143	-0.276
-485.435	-88.633	-0.281	-0.084
-484.420	-200.000	0.009	-0.077
-483.405	-173.793	-0.121	-0.004
-482.391	-24.409	0.283	-0.170
-481.376	92.555	0.024	-0.028
-480.362	-23.809	-0.163	0.098
-479.347	-84.336	-0.225	0.072
-478.332	-137.995	-0.018	0.002
-477.318	27.483	0.202	-0.172
-476.303	142.524	-0.053	0.071
-475.289	-127.621	0.137	-0.020
-474.274	-200.000	-0.027	-0.122
-473.259	-200.000	-0.018	-0.197
-472.245	72.514	-0.064	-0.067
-471.230	-29.504	-0.160	-0.092
-470.216	-57.686	-0.263	0.116
-469.201	-200.000	0.029	0.495
-468.186	-200.000	0.008	0.145
-467.172	-36.881	0.144	0.078
-466.157	-54.678	0.179	-0.082
-465.143	607.499	0.097	0.245
-464.128	-200.000	0.047	0.258
-463.113	-13.159	0.118	-0.077
-462.099	-0.904	-0.150	-0.107
-461.084	-200.000	0.005	-0.110
-460.070	164.008	0.177	0.251
-459.055	578.336	-0.048	0.117
-458.040	108.029	0.279	-0.335
-457.026	-75.188	0.175	-0.063
-456.011	-200.000	-0.004	-0.033
-454.997	-98.980	0.410	-0.105
-453.982	427.454	0.037	-0.079
-452.968	119.650	0.037	-0.046
-451.953	-23.239	-0.166	0.100
-450.938	766.547	-0.029	0.078
-449.924	276.620	0.105	-0.187
-448.909	800.000	-0.088	-0.386
-447.895	-8.766	0.081	0.055
-446.880	283.739	-0.157	0.285
-445.865	-33.328	0.191	-0.107
-444.851	-146.510	0.209	0.018
-443.836	-23.603	-0.043	0.026
-442.822	-142.338	-0.278	-0.028
-441.807	-65.726	-0.136	-0.055
-440.792	-84.786	-0.517	0.164
-439.778	158.343	-0.209	-0.292
-438.763	-200.000	0.035	-0.235
-437.749	-200.000	0.038	-0.283
-436.734	15.831	-0.053	-0.042
-435.719	-116.721	-0.386	-0.071
-434.705	323.654	0.050	0.097
-433.690	-30.816	-0.209	0.119
-432.676	-200.000	0.003	0.292
-431.661	800.000	0.030	-0.103
-430.646	157.835	-0.247	-0.344
-429.632	7.792	0.224	0.169
-428.617	-140.039	-0.462	0.049
-427.603	58.412	-0.070	0.069
-426.588	787.809	0.113	0.312
-425.573	-43.144	-0.220	-0.112
-424.559	-113.276	0.239	0.047
-423.544	-128.552	0.544	0.078
-422.530	299.426	0.079	0.146
-421.515	-164.753	-0.072	0.003
-420.500	-200.000	0.018	-0.110
-419.486	800.000	-0.045	0.126
-418.471	345.756	0.157	0.310
-417.457	-132.231	0.190	-0.025
-416.442	25.208	-0.198	-0.166
-415.428	-75.572	-0.205	0.073
-414.413	377.300	0.035	0.072
-413.398	668.221	-0.062	-0.160
-412.384	-74.272	-0.169	0.061
-411.369	-181.093	-0.044	0.001
-410.355	613.814	0.009	0.024
-409.340	373.423	0.032	-0.066
-408.325	7.628	-0.203	0.153
-407.311	22.147	-0.239	-0.196
-406.296	-58.512	-0.117	0.051
-405.282	-129.976	-0.055	0.008
-404.267	-155.256	0.241	-0.016
-403.252	-81.577	0.314	0.104
-402.238	-200.000	0.042	-0.222
-401.223	597.784	-0.105	-0.262
-400.209	-129.923	-0.292	0.040
-399.194	-200.000	0.052	-0.458
-398.179	-200.000	-0.034	-0.376
-397.165	-200.000	0.054	-0.314
-396.150	-200.000	-0.002	-0.231
-395.136	-71.107	-0.311	-0.117
-394.121	-100.048	-0.196	0.049
-393.106	800.000	-0.170	0.472
-392.092	-200.000	0.012	-0.059
-391.077	-68.410	-0.055	0.021
-390.063	-60.151	-0.149	0.064
-389.048	-94.229	0.069	-0.019
-388.033	140.611	0.117	-0.156
-387.019	-56.072	0.429	0.192
-386.004	411.516	-0.108	-0.231
-384.990	26.666	0.259	-0.218
-383.975	-196.599	-0.318	-0.002
-382.960	800.000	-0.029	-0.089
-381.946	-200.000	0.025	0.179
-380.931	381.268	0.012	-0.024
-379.917	-129.302	0.137	0.019
-378.902	87.318	0.211	0.234
-377.888	-100.356	0.125	-0.031
-376.873	395.388	-0.176	-0.370
-375.858	593.687	-0.031	0.077
-374.844	250.465	0.109	-0.186
-373.829	-120.748	0.159	-0.027
-372.815	117.207	0.208	0.257
-371.800	-200.000	-0.019	0.175
-370.785	-200.000	-0.012	0.071
-369.771	-42.172	-0.297	-0.153
-368.756	-200.000	0.010	-0.113
-367.742	800.000	-0.062	-0.218
-366.727	800.000	0.066	0.196
-365.712	-200.000	-0.050	0.236
-364.698	-176.003	-0.318	-0.008
-363.683	115.135	-0.336	-0.412
-362.669	34.158	0.126	-0.110
-361.654	173.154	0.291	0.421
-360.639	-200.000	-0.023	0.239
-359.625	700.084	0.030	0.079
-358.610	-13.022	0.084	0.055
-357.596	477.175	0.093	0.212
-356.581	57.818	0.148	-0.146
-355.566	-200.000	0.005	-0.035
-354.552	117.456	-0.227	-0.280
-353.537	-179.336	0.325	0.007
-352.523	800.000	-0.036	-0.115
-351.508	-77.287	0.223	0.078
-350.493	10.439	0.107	-0.082
-349.479	-8.366	0.065	-0.044
-348.464	138.658	0.189	-0.249
-347.450	-32.108	-0.101	0.056
-346.435	91.201	-0.336	0.379
-345.420	-200.000	0.013	0.208
-344.406	-200.000	0.037	0.332
-343.391	-73.083	0.254	0.093
-342.377	-200.000	-0.044	0.416
-341.362	-37.786	0.178	-0.095
-340.348	800.000	-0.087	-0.246
-339.333	-12.168	-0.465	-0.305
-338.318	-29.142	0.145	-0.084
-337.304	-122.944	0.460	-0.074
-336.289	-104.975	-0.133	0.031
-335.275	359.387	0.086	0.173
-334.260	-18.975	-0.158	-0.099
-333.245	-200.000	0.051	0.519
-332.231	232.187	0.065	-0.106
-331.216	88.011	0.086	-0.095
-330.202	-150.213	0.134	-0.010
-329.187	-131.524	-0.151	-0.020
-328.172	-77.603	0.258	0.089
-327.158	-47.281	0.150	-0.073
-326.143	220.628	0.099	-0.159
-325.129	-13.271	0.096	0.063
-324.114	-200.000	0.042	-0.290
-323.099	-10.205	0.071	0.048
-322.085	87.572	0.065	-0.072
-321.070	-117.258	0.132	-0.024
-320.056	695.327	-0.043	0.114
-319.041	379.982	0.058	0.118
-318.026	113.701	-0.115	-0.140
-317.012	186.661	-0.164	-0.245
-315.997	-34.698	-0.249	0.136
-314.983	-200.000	0.015	0.309
-313.968	-128.999	-0.127	0.018
-312.953	465.773	0.155	-0.348
-311.939	168.456	-0.051	-0.073
-310.924	-88.446	0.208	-0.062
-309.910	193.387	0.114	0.172
-308.895	-0.773	-0.167	-0.118
-307.880	97.646	-0.415	0.477
-306.866	-88.882	-0.189	0.056
-305.851	111.603	-0.164	0.199
-304.837	53.625	0.074	-0.071
-303.822	-200.000	0.025	-0.134
-302.807	-75.673	-0.366	0.130
-301.793	38.513	0.212	0.190
-300.778	509.416	0.102	-0.237
-299.764	-200.000	-0.023	-0.106
-298.749	63.306	-0.159	0.160
-297.735	-103.874	-0.269	-0.063
-296.720	-5.614	0.249	0.171
-295.705	13.027	-0.203	-0.158
-294.691	111.834	-0.115	-0.139
-293.676	54.103	-0.152	-0.146
-292.662	-58.031	0.094	0.041
-291.647	198.494	-0.194	0.297
-290.632	800.000	-0.045	-0.147
-289.618	-8.562	-0.221	-0.148
-288.603	-124.446	0.179	-0.028
-287.589	-57.442	0.182	0.080
-286.574	-76.571	0.167	0.059
-285.559	27.679	-0.199	0.168
-284.545	-66.882	-0.052	0.021
-283.530	170.334	0.125	-0.179
-282.516	283.189	-0.147	0.264
-281.501	-25.473	0.270	0.160
-280.486	32.702	-0.048	0.042
-279.472	31.757	-0.073	0.063
-278.457	445.498	0.126	0.277
-277.443	-200.000	-0.010	0.099
-276.428	-141.413	0.050	-0.005
-275.413	16.244	0.106	0.084
-274.399	-45.728	0.463	-0.229
-273.384	-67.978	0.248	0.097
-272.370	-89.063	-0.189	-0.056
-271.355	-104.358	-0.280	-0.065
-270.340	-177.800	-0.323	-0.008
-269.326	499.486	0.124	0.286
-268.311	-131.367	0.304	-0.040
-267.297	-147.333	-0.238	-0.020
-266.282	-80.015	-0.137	0.046
-265.267	243.267	-0.075	-0.126
-264.253	98.609	0.123	0.141
-263.238	-89.469	-0.165	0.048
-262.224	-200.000	0.008	-0.307
-261.209	145.019	0.090	0.120
-260.195	-105.147	-0.217	0.050
-259.180	47.691	-0.361	-0.336
-258.165	-17.897	-0.076	-0.048
-257.151	42.262	-0.118	0.107
-256.136	800.000	-0.052	0.181
-255.122	17.151	0.320	0.254
-254.107	-200.000	-0.001	-0.053
-253.092	-28.713	0.157	-0.090
-252.078	-76.129	0.339	0.119
-251.063	-200.000	-0.025	0.340
-250.049	-153.120	-0.128	0.009
-249.034	167.779	-0.136	0.194
-248.019	70.307	-0.024	-0.024
-247.005	-116.596	0.202	-0.037
-245.990	64.439	-0.133	-0.134
-244.976	-91.638	-0.143	0.041
-243.961	531.134	-0.069	-0.162
-242.946	66.136	0.229	-0.232
-241.932	800.000	0.157	0.474
-240.917	387.292	0.152	0.313
-239.903	800.000	0.080	-0.344
-238.888	95.680	-0.143	0.163
-237.873	-200.000	-0.030	0.188
-236.859	190.241	-0.079	0.118
-235.844	-200.000	-0.019	0.104
-234.830	-200.000	0.018	-0.193
-233.815	42.196	-0.132	0.120
-232.800	464.534	0.115	0.258
-231.786	-76.879	0.224	0.078
-230.771	682.087	-0.010	0.025
-229.757	-62.297	0.372	-0.155
-228.742	275.576	0.049	-0.088
-227.727	-200.000	-0.038	-0.169
-226.713	-111.620	-0.271	0.055
-225.698	-17.769	-0.174	0.109
-224.684	-200.000	-0.013	-0.202
-223.669	390.575	0.025	0.052
-222.655	-83.663	0.337	0.107
-221.640	-200.000	0.032	0.149
-220.625	-24.666	-0.030	-0.018
-219.611	-122.491	0.242	-0.039
-218.596	-76.249	-0.237	0.083
-217.582	-200.000	-0.002	-0.330
-216.567	-0.883	-0.094	-0.066
-215.552	-88.185	-0.050	0.015
-214.538	-135.668	-0.212	0.025
-213.523	52.987	0.116	0.111
-212.509	-50.712	0.306	0.144
-211.494	508.231	0.113	-0.262
-210.479	176.812	0.087	-0.127
-209.465	-158.088	0.379	0.022
-208.450	-200.000	-0.006	-0.050
-207.436	-200.000	0.014	0.309
-206.421	734.190	-0.083	-0.223
-205.406	-65.975	0.206	-0.082
-204.392	203.689	-0.171	0.265
-203.377	800.000	0.105	0.377
-202.363	-3.495	0.051	0.036
-201.348	343.857	-0.081	-0.158
-200.333	-128.734	0.075	-0.011
-199.319	-200.000	0.029	0.440
-198.304	229.910	0.073	-0.119
-197.290	102.464	0.087	-0.102
-196.275	-64.870	0.334	-0.135
-195.260	-75.890	-0.075	-0.026
-194.246	55.941	-0.218	-0.211
-193.231	-148.569	0.231	0.019
-192.217	95.281	0.177	0.201
-191.202	800.000	0.050	-0.168
-190.187	68.512	0.210	0.215
-189.173	369.720	0.085	-0.172
-188.158	800.000	-0.087	0.259
-187.144	56.867	0.208	-0.202
-186.129	24.477	0.085	-0.070
-185.114	150.142	0.285	0.386
-184.100	7.406	-0.152	-0.113
-183.085	-97.550	-0.141	-0.036
-182.071	-66.565	0.323	0.128
-181.056	218.917	-0.145	-0.231
-180.042	44.059	-0.072	0.066
-179.027	-200.000	-0.009	0.392
-178.012	15.625	0.158	-0.124
-176.998	-200.000	0.001	0.106
-175.983	-125.876	-0.079	0.012
-174.969	186.150	-0.201	-0.298
-173.954	800.000	0.048	0.174
-172.939	-176.890	0.456	-0.011
-171.925	-89.268	-0.249	0.073
-170.910	21.422	-0.116	-0.094
-169.896	135.119	0.092	0.119
-168.881	-200.000	0.019	0.187
-167.866	353.669	0.068	-0.135
-166.852	-174.227	-0.315	-0.009
-165.837	340.764	-0.091	-0.177
-164.823	-200.000	-0.035	-0.224
-163.808	-200.000	0.025	0.240
-162.793	96.807	-0.245	0.279
-161.779	-48.637	-0.121	-0.058
-160.764	-12.470	0.179	0.117
-159.750	-31.076	0.226	0.127
-158.735	-152.036	0.144	0.010
-157.720	-200.000	0.041	0.254
-156.706	-122.603	0.020	-0.003
-155.691	-200.000	-0.026	-0.219
-154.677	306.169	-0.125	-0.231
-153.662	-57.349	0.384	-0.168
-152.647	334.215	-0.035	0.067
-151.633	68.175	-0.107	0.109
-150.618	250.242	0.221	0.373
-149.604	-52.969	0.187	-0.086
-148.589	103.469	0.053	0.062
-147.574	96.568	0.305	0.347
-146.560	40.121	0.144	0.129
-145.545	-92.968	0.259	0.072
-144.531	-31.363	0.158	-0.088
-143.516	-97.370	-0.181	0.047
-142.502	137.504	-0.138	-0.180
-141.487	-81.565	-0.368	0.120
-140.472	38.863	-0.356	0.317
-139.458	39.371	0.139	0.124
-138.443	-166.199	0.202	-0.009
-137.429	202.083	-0.079	0.122
-136.414	0.298	-0.198	-0.141
-135.399	107.056	0.151	-0.179
-134.385	-111.810	-0.036	0.007
-133.370	159.000	0.025	-0.034
-132.356	-27.938	0.098	-0.057
-131.341	-200.000	0.000	-0.158
-130.326	123.813	0.238	0.297
-129.312	742.826	-0.007	-0.018
-128.297	-42.858	-0.037	-0.019
-127.283	800.000	0.137	0.385
-126.268	-104.624	-0.254	-0.058
-125.253	-200.000	0.039	0.186
-124.239	-40.457	-0.275	-0.142
-123.224	-43.460	0.274	0.138
-122.210	-34.978	0.108	-0.059
-121.195	800.000	0.048	-0.165
-120.180	-155.167	0.072	0.005
-119.166	-49.307	-0.346	-0.164
-118.151	-60.226	0.462	-0.196
-117.137	637.986	0.110	0.278
-116.122	78.727	-0.188	0.200
-115.107	800.000	0.082	0.249
-114.093	79.602	-0.056	0.060
-113.078	69.515	-0.113	0.115
-112.064	-98.286	-0.450	-0.115
-111.049	-200.000	0.009	0.242
-110.034	-0.475	-0.131	0.093
-109.020	-16.923	0.328	0.206
-108.005	-200.000	0.004	-0.175
-106.991	-200.000	0.054	0.264
-105.976	45.431	-0.281	0.258
-104.962	800.000	0.014	-0.055
-103.947	800.000	0.070	-0.205
-102.932	-66.325	0.257	0.102
-101.918	-200.000	-0.034	-0.319
-100.903	215.762	-0.060	-0.095
-99.889	-200.000	0.054	-0.281
-98.874	-200.000	-0.262	-0.000
-97.859	-132.924	0.147	0.019
-96.845	-96.976	-0.214	0.056
-95.830	-200.000	0.014	0.143
-94.816	-84.616	-0.240	0.075
-93.801	250.878	0.153	0.259
-92.786	-200.000	0.019	0.361
-91.772	-98.910	0.227	-0.057
-90.757	-41.493	0.041	-0.021
-89.743	149.091	0.206	-0.277
-88.728	-71.110	-0.098	-0.037
-87.713	-146.667	0.122	0.010
-86.699	-200.000	0.011	0.083
-85.684	-158.043	-0.306	0.018
-84.670	800.000	-0.095	-0.262
-83.655	135.407	-0.161	0.208
-82.640	-200.000	-0.059	0.354
-81.626	800.000	-0.095	-0.383
-80.611	800.000	0.028	-0.107
-79.597	-41.378	0.171	-0.087
-78.582	114.484	0.034	-0.041
-77.567	-153.058	0.379	-0.026
-76.553	-121.601	0.152	-0.025
-75.538	-200.000	0.047	0.549
-74.524	-99.270	-0.081	-0.020
-73.509	101.824	0.098	-0.114
-72.494	-69.479	0.160	0.061
-71.480	-119.808	0.542	-0.093
-70.465	-200.000	0.026	0.174
-69.451	319.449	0.092	0.173
-68.436	-133.573	0.093	0.012
-67.422	334.568	0.136	0.262
-66.407	401.998	0.054	-0.112
-65.392	308.350	0.063	0.117
-64.378	76.526	0.151	0.159
-63.363	800.000	-0.065	0.225
-62.349	-83.724	0.201	-0.064
-61.334	18.536	-0.952	-0.755
-60.319	-61.287	0.556	0.232
-59.305	-200.000	-0.019	-0.838
-58.290	272.389	0.290	0.507
-57.276	800.000	0.509	1.502
-56.261	-200.000	93.880	553.388
-55.246	614.909	1384.558	3441.545
-54.232	185.771	2601.748	3835.027
-53.217	122.245	2196.588	2721.370
-52.203	47.393	1646.033	1521.199
-51.188	39.118	1379.940	1223.982
-50.173	35.818	1337.225	1166.085
-49.159	56.819	1385.107	1337.779
-48.144	61.216	1403.035	1382.105
-47.130	39.488	1358.147	1206.727
-46.115	35.780	1340.563	1168.580
-45.100	35.568	1335.444	1162.788
-44.086	35.535	1332.920	1160.343
-43.071	35.438	1330.914	1157.965
-42.057	35.431	1329.012	1156.225
-41.042	35.565	1326.765	1155.028
-40.027	35.589	1325.242	1153.801
-39.013	35.500	1323.348	1151.573
-37.998	35.635	1321.477	1150.710
-36.984	35.547	1320.123	1148.956
-35.969	35.658	1318.230	1147.925
-34.954	35.593	1316.553	1146.032
-33.940	35.594	1315.339	1144.934
-32.925	35.700	1313.631	1144.034
-31.911	35.777	1311.933	1142.966
-30.896	35.649	1311.253	1141.570
-29.881	35.704	1309.347	1140.194
-28.867	35.779	1307.844	1139.284
-27.852	35.698	1306.385	1137.487
-26.838	35.708	1304.994	1136.287
-25.823	35.761	1303.516	1135.271
-24.809	35.665	1301.968	1133.311
-23.794	35.773	1300.202	1132.365
-22.779	35.691	1299.252	1131.009
-21.765	35.687	1298.040	1129.888
-20.750	35.703	1296.863	1128.909
-19.736	35.543	1295.768	1126.972
-18.721	35.545	1294.297	1125.660
-17.706	35.603	1292.466	1124.365
-16.692	35.551	1291.989	1123.600
-15.677	35.573	1290.407	1122.310
-14.663	35.487	1289.554	1121.021
-13.648	35.519	1288.704	1120.422
-12.633	35.602	1287.289	1119.632
-11.619	35.515	1286.872	1118.717
-10.604	35.462	1285.584	1117.245
-9.590	35.552	1284.424	1116.717
-8.575	35.522	1283.796	1115.949
-7.560	35.595	1282.227	1114.967
-6.546	35.516	1281.855	1114.142
-5.531	35.554	1281.090	1113.653
-4.517	35.582	1280.482	1113.239
-3.502	35.490	1279.320	1111.655
-2.487	35.504	1278.326	1110.829
-1.473	35.529	1274.354	1107.476
-0.458	34.034	1258.615	1085.230
0.556	31.769	1238.278	1040.067
1.571	27.077	1241.394	1016.414
2.586	25.451	1255.699	1018.824
3.600	23.762	1243.378	999.243
4.615	17.939	1169.935	909.229
5.629	9.384	1092.904	806.561
6.644	4.983	1071.778	769.224
7.659	4.792	1069.072	766.273
8.673	4.548	1067.558	763.920
9.688	4.558	1066.295	762.996
10.702	5.254	1065.277	765.616
11.717	10.860	1073.138	798.812
12.731	19.178	1085.231	848.911
13.746	22.356	1088.183	866.830
14.761	21.907	1087.167	863.731
15.775	21.105	1084.742	857.786
16.790	19.955	1083.125	850.787
17.804	19.135	1082.220	845.974
18.819	18.887	1080.872	843.627
19.834	18.829	1079.858	842.477
20.848	18.566	1079.673	840.966
21.863	18.314	1078.475	838.727
22.877	18.290	1077.764	837.981
23.892	18.259	1076.782	836.991
24.907	18.321	1075.821	836.473
25.921	18.193	1075.595	835.598
26.936	18.188	1074.032	834.284
27.950	18.304	1072.513	833.596
28.965	18.366	1070.983	832.637
29.980	18.532	1069.511	832.226
30.994	18.572	1068.703	831.715
32.009	18.535	1068.131	831.017
33.023	18.614	1066.387	829.968
34.038	18.538	1065.362	828.730
35.053	18.341	1064.717	827.202
36.067	18.412	1063.663	826.654
37.082	18.399	1062.800	825.847
38.096	18.529	1062.211	825.942
39.111	18.527	1061.793	825.536
40.126	18.310	1060.650	823.530
41.140	18.142	1058.658	821.106
42.155	17.963	1056.967	818.863
43.169	17.855	1056.411	817.843
44.184	17.831	1055.600	817.025
45.199	17.882	1054.220	816.127
46.213	18.076	1053.585	816.491
47.228	18.321	1052.890	817.051
48.242	18.336	1051.472	815.950
49.257	18.399	1050.388	815.338
50.271	18.357	1050.332	815.020
51.286	18.396	1049.237	814.286
52.301	18.360	1048.057	813.124
53.315	18.217	1047.067	811.606
54.330	18.123	1046.279	810.477
55.344	18.171	1044.533	809.280
56.359	18.137	1044.098	808.715
57.374	18.084	1043.012	807.549
58.388	17.912	1042.521	806.287
59.403	17.848	1041.416	805.056
60.417	18.017	1040.480	805.058
61.432	17.810	1040.116	803.734
62.447	17.816	1038.787	802.659
63.461	17.798	1038.238	802.082
64.476	17.828	1037.098	801.270
65.490	17.734	1036.061	799.959
66.505	17.844	1035.555	800.011
67.520	17.856	1035.419	799.892
68.534	17.771	1034.376	798.620
69.549	17.831	1033.231	797.944
70.563	17.827	1032.107	796.986
71.578	17.545	1031.670	795.260
72.593	17.401	1030.691	793.763
73.607	17.476	1030.298	793.742
74.622	17.617	1029.407	793.644
75.636	17.682	1028.691	793.321
76.651	17.732	1028.052	792.993
77.666	17.659	1027.629	792.258
78.680	17.657	1027.239	791.878
79.695	17.736	1026.136	791.323
80.709	17.914	1025.574	791.646
81.724	17.926	1025.306	791.425
82.739	18.064	1024.569	791.423
83.753	18.380	1023.761	792.193
84.768	18.496	1023.352	792.342
85.782	18.627	1022.354	792.104
86.797	18.629	1021.276	791.207
87.812	18.317	1020.310	788.952
88.826	18.397	1019.605	788.702
89.841	18.493	1018.644	788.332
90.855	18.678	1017.380	788.133
91.870	18.450	1017.271	786.934
92.884	18.527	1016.032	786.259
93.899	18.531	1015.183	785.548
94.914	18.688	1014.236	785.465
95.928	18.621	1013.591	784.591
96.943	18.495	1012.954	783.451
97.957	18.516	1011.322	782.218
98.972	18.551	1010.689	781.818
99.987	18.626	1010.136	781.662
101.001	18.432	1009.444	780.174
102.016	18.566	1008.023	779.615
103.030	18.487	1007.906	779.097
104.045	18.574	1006.727	778.514
105.060	18.489	1006.143	777.606
106.074	18.134	1004.541	774.690
107.089	17.990	1003.658	773.288
108.103	17.999	1002.561	772.416
109.118	17.873	1001.947	771.305
110.133	17.767	1001.145	770.141
111.147	17.809	999.997	769.379
112.162	17.925	999.248	769.257
113.176	18.197	998.232	769.631
114.191	18.149	997.585	768.849
115.206	18.003	996.811	767.528
116.220	17.981	996.037	766.765
117.235	17.980	995.351	766.164
118.249	18.052	993.813	765.237
119.264	17.899	993.111	763.945
120.279	17.868	992.597	763.342
121.293	17.705	991.890	762.001
122.308	17.761	990.558	761.161
123.322	17.556	989.742	759.554
124.337	17.640	988.907	759.220
125.352	17.735	987.524	758.514
126.366	17.717	986.186	757.341
127.381	17.730	985.479	756.789
128.395	17.793	984.659	756.369
129.410	17.798	983.884	755.728
130.424	17.915	982.872	755.401
131.439	18.011	982.843	755.737
132.454	18.091	981.768	755.200
133.468	18.070	981.336	754.708
134.483	18.223	980.166	754.414
135.497	18.310	979.022	753.852
136.512	18.095	978.381	752.344
137.527	18.165	977.220	751.691
138.541	18.190	976.896	751.487
139.556	18.105	976.615	750.830
140.570	18.297	975.691	750.897
141.585	18.428	974.984	750.860
142.600	18.529	974.353	750.752
143.614	18.636	973.197	750.259
144.629	18.574	972.530	749.409
145.643	18.503	971.512	748.250
146.658	18.355	970.202	746.530
147.673	18.175	969.212	744.915
148.687	18.109	968.248	743.820
149.702	18.114	967.443	743.158
150.716	18.039	966.783	742.260
151.731	18.211	965.409	741.885
152.746	18.159	965.297	741.511
153.760	18.172	964.675	741.022
154.775	18.201	964.056	740.606
155.789	18.314	963.145	740.330
156.804	18.375	962.651	740.150
157.819	18.537	961.814	740.139
158.833	18.535	961.453	739.787
159.848	18.690	960.862	739.935
160.862	18.626	959.683	738.685
161.877	18.302	958.709	736.478
162.892	18.302	956.574	734.772
163.906	18.136	956.212	733.715
164.921	18.181	955.648	733.410
165.935	18.420	954.372	733.392
166.950	18.255	953.740	732.133
167.964	18.347	952.902	731.822
168.979	18.241	951.797	730.454
169.994	18.301	950.748	729.840
171.008	18.325	950.570	729.743
172.023	18.569	950.018	730.294
173.037	18.586	949.526	729.921
174.052	18.490	948.434	728.610
175.067	18.150	947.712	726.547
176.081	18.101	947.259	725.927
177.096	18.168	946.107	725.265
178.110	18.189	945.563	724.871
179.125	18.196	945.422	724.728
180.140	18.258	944.844	724.482
181.154	18.358	944.589	724.650
182.169	18.655	944.232	725.568
183.183	18.623	943.452	724.768
184.198	18.619	942.524	723.973
185.213	18.561	941.651	722.993
186.227	18.591	941.600	723.015
187.242	18.698	940.505	722.563
188.256	18.846	939.721	722.519
189.271	18.790	939.346	721.932
190.286	18.460	938.574	719.890
191.300	18.064	937.219	717.124
192.315	17.936	936.474	715.952
193.329	18.042	936.307	716.208
194.344	18.275	935.451	716.463
195.359	18.442	934.918	716.689
196.373	18.546	934.452	716.708
197.388	18.803	934.146	717.480
198.402	18.841	934.103	717.542
199.417	18.967	933.192	717.308
200.432	18.923	933.431	717.241
201.446	19.090	932.518	717.172
202.461	19.208	931.818	717.061
203.475	19.024	931.333	715.861
204.490	19.002	930.140	714.788
205.504	18.763	929.264	713.060
206.519	18.911	927.960	712.610
207.534	18.707	927.582	711.410
208.548	18.861	926.898	711.463
209.563	18.746	927.034	711.027
210.577	19.003	925.613	710.934
211.592	19.088	925.192	710.902
212.607	19.040	924.260	709.926
213.621	19.106	923.574	709.609
214.636	18.825	923.071	707.998
215.650	19.022	922.454	708.275
216.665	19.264	921.707	708.633
217.680	19.077	921.535	707.669
218.694	19.215	920.794	707.606
219.709	19.249	919.949	707.034
220.723	19.185	919.303	706.213
221.738	19.086	918.354	705.015
222.753	19.198	917.764	704.959
223.767	19.207	917.313	704.584
224.782	19.230	917.096	704.451
225.796	19.411	916.635	704.775
226.811	19.152	915.619	702.873
227.826	19.183	914.762	702.281
228.840	19.110	913.919	701.271
229.855	19.146	912.876	700.556
230.869	19.035	912.437	699.705
231.884	19.027	911.842	699.155
232.899	18.992	910.831	698.177
233.913	18.958	910.510	697.730
234.928	18.855	909.706	696.634
235.942	18.795	909.089	695.859
236.957	18.961	908.435	695.966
237.972	18.845	907.445	694.680
238.986	18.872	907.038	694.414
240.001	18.815	906.337	693.586
241.015	19.029	906.200	694.282
242.030	19.101	905.519	693.990
243.045	19.065	904.720	693.171
244.059	18.938	904.663	692.558
245.074	19.188	903.684	692.749
246.088	19.295	902.803	692.444
247.103	19.471	902.806	693.092
248.117	19.516	902.626	693.072
249.132	19.706	902.210	693.453
250.147	19.993	901.276	693.827
251.161	19.906	900.852	693.088
252.176	19.956	900.020	692.587
253.190	20.007	899.517	692.342
254.205	20.059	898.691	691.855
255.220	20.000	898.050	691.064
256.234	20.020	897.268	690.479
257.249	19.848	897.149	689.641
258.263	19.845	896.062	688.734
259.278	19.791	895.483	688.012
260.293	19.938	895.329	688.418
261.307	20.044	894.877	688.434
262.322	20.149	893.798	687.959
263.336	20.073	892.682	686.737
264.351	20.300	891.790	686.887
265.366	20.225	891.539	686.338
266.380	20.218	890.783	685.666
267.395	19.876	890.382	683.945
268.409	20.029	889.487	683.803
269.424	19.961	888.884	683.009
270.439	19.940	888.056	682.229
271.453	19.891	886.946	681.125
272.468	19.863	886.595	680.686
273.482	19.987	885.914	680.588
274.497	19.805	885.758	679.693
275.512	19.958	884.801	679.499
276.526	19.858	884.539	678.847
277.541	19.926	884.018	678.655
278.555	20.115	883.488	678.928
279.570	20.180	883.459	679.098
280.585	20.176	882.252	678.096
281.599	20.058	881.334	676.869
282.614	19.937	880.703	675.851
283.628	20.068	880.024	675.780
284.643	19.979	879.313	674.830
285.657	20.074	878.645	674.624
286.672	19.989	878.046	673.774
287.687	20.072	877.811	673.860
288.701	19.978	877.098	672.885
289.716	20.013	876.639	672.610
290.730	20.099	876.181	672.533
291.745	20.077	875.616	671.955
292.760	20.194	875.202	672.030
293.774	20.493	874.099	672.282
294.789	20.341	873.667	671.304
295.803	20.228	872.583	669.973
296.818	20.125	871.888	668.985
297.833	20.052	871.224	668.135
298.847	20.163	870.559	667.993
299.862	20.198	870.566	668.074
300.876	20.267	869.986	667.836
301.891	20.425	869.607	668.091
302.906	20.544	868.776	667.853
303.920	20.600	868.489	667.788
304.935	20.716	868.047	667.835
305.949	20.785	866.640	666.956
306.964	20.587	866.475	666.013
307.979	20.473	866.066	665.204
308.993	20.516	865.595	664.946
310.008	20.615	864.918	664.745
311.022	20.442	864.306	663.555
312.037	20.461	863.538	662.979
313.052	20.187	862.828	661.331
314.066	20.331	862.208	661.345
315.081	20.211	861.491	660.281
316.095	20.241	860.908	659.889
317.110	20.151	860.327	659.043
318.125	20.196	859.823	658.769
319.139	20.276	859.494	658.765
320.154	20.276	858.808	658.180
321.168	20.483	858.154	658.405
322.183	20.422	857.933	657.945
323.197	20.367	857.429	657.291
324.212	20.294	856.949	656.591
325.227	20.491	856.142	656.660
326.241	20.340	855.294	655.380
327.256	20.357	854.987	655.152
328.270	20.309	854.335	654.414
329.285	20.179	854.101	653.685
330.300	20.312	853.664	653.793
331.314	20.410	852.684	653.356
332.329	20.624	852.479	653.942
333.343	20.634	852.070	653.611
334.358	20.572	851.647	652.993
335.373	20.497	851.290	652.381
336.387	20.608	851.130	652.617
337.402	20.668	851.057	652.729
338.416	20.904	850.451	653.092
339.431	20.899	850.302	652.901
340.446	21.056	849.644	652.926
341.460	21.034	849.601	652.751
342.475	21.097	849.147	652.580
343.489	21.168	848.446	652.248
344.504	21.091	848.292	651.787
345.519	21.313	847.570	652.002
346.533	21.141	847.130	650.967
347.548	20.978	846.251	649.624
348.562	20.714	845.751	648.200
349.577	20.821	844.926	647.910
350.592	20.681	844.149	646.736
351.606	20.700	843.835	646.506
352.621	20.687	843.207	645.920
353.635	20.713	842.726	645.591
354.650	20.729	842.118	645.128
355.665	20.911	841.241	645.075
356.679	20.992	840.821	644.993
357.694	20.967	840.174	644.346
358.708	20.873	839.489	643.418
359.723	21.021	838.878	643.440
360.738	21.056	838.131	642.939
361.752	21.156	837.510	642.773
362.767	21.061	837.187	642.120
363.781	21.318	836.628	642.580
364.796	21.213	836.634	642.141
365.810	21.451	836.400	642.780
366.825	21.467	835.712	642.251
367.840	21.401	835.128	641.502
368.854	21.385	834.329	640.773
369.869	21.327	834.219	640.421
370.883	21.433	833.363	640.096
371.898	21.350	833.803	640.073
372.913	21.463	833.104	639.891
373.927	21.500	832.240	639.308
374.942	21.375	831.758	638.426
375.956	21.584	831.483	638.921
376.971	21.777	831.100	639.274
377.986	21.830	830.551	638.986
379.000	21.531	830.553	637.841
380.015	21.525	829.784	637.172
381.029	21.725	828.560	636.903
382.044	21.738	828.156	636.584
383.059	21.883	827.493	636.544
384.073	21.644	827.070	635.297
385.088	21.373	826.477	633.803
386.102	21.328	825.774	633.045
387.117	21.459	825.195	633.018
388.132	21.594	824.404	632.842
389.146	21.348	824.030	631.612
390.161	21.534	824.359	632.479
391.175	21.665	823.357	632.128
392.190	21.456	822.916	630.979
393.205	21.430	822.200	630.283
394.219	21.416	821.884	629.933
395.234	21.458	821.387	629.649
396.248	21.138	821.286	628.362
397.263	21.316	820.447	628.306
398.278	21.253	819.786	627.517
399.292	21.316	819.582	627.531
400.307	21.206	819.012	626.646
401.321	21.387	818.523	626.863
402.336	21.431	818.502	626.949
403.350	21.339	817.760	625.997
404.365	21.607	817.589	626.769
405.380	21.796	816.827	626.806
406.394	21.806	816.719	626.702
407.409	21.887	816.228	626.560
408.423	22.060	815.901	626.871
409.438	22.078	815.669	626.703
410.453	21.927	815.343	625.857
411.467	22.164	814.566	626.052
412.482	22.097	814.550	625.746
413.496	22.319	813.859	625.948
414.511	22.134	813.661	625.084
415.526	22.098	812.990	624.383
416.540	22.154	812.208	623.928
417.555	22.203	811.822	623.747
418.569	22.290	811.721	623.923
419.584	22.218	811.264	623.263
420.599	22.065	810.863	622.358
421.613	158.333	1369.740	1787.450
422.628	137.753	1451.183	1787.574
