DTS Sentinel unit serial number:	SN413079Multiplexer serial number:	ORYXHardware model number:	OX4-SRSoftware version number:	ORYX F/W v4.00 Oryx Data Collector v3.7.2.0data status	okinstallation	princeton_trtdifferential loss correction	single-endedforward channel	channel 1reverse channel	N/Adate	2019/09/15time	11:58:35forward acquisition time	60.00reverse acquisition time	0.00gamma	496.2192k internal	0.2307k external	0.2307temperature offset calibration	0.9988default loss term (dB/km)	0.3790temperature slope calibration	1.0000multiplexer offset coefficient	1.0000multiplexer slope coefficient	1.0000fibre end	0.00T internal ref (°C)	34.41T ext. ref 1 (°C)	5.07T ext. ref 2 (°C)	30.20length (m)	temperature (°C)	Stokes	anti-Stokes-747.200	357.792	-0.144	0.292
-746.185	-200.000	-0.026	0.292
-745.171	29.941	-0.213	-0.184
-744.156	163.312	-0.200	0.285
-743.142	-145.030	-0.331	-0.031
-742.127	-54.081	0.227	-0.105
-741.112	800.000	0.035	-0.138
-740.098	800.000	0.106	0.399
-739.083	-200.000	-0.038	0.494
-738.069	-200.000	-0.006	0.139
-737.054	85.392	-0.105	-0.117
-736.039	-200.000	-0.053	0.336
-735.025	-93.090	0.200	0.056
-734.010	110.845	0.069	-0.085
-732.996	244.221	-0.080	0.137
-731.981	-172.345	0.203	0.007
-730.966	-200.000	-0.029	-0.147
-729.952	13.191	-0.008	0.006
-728.937	800.000	-0.051	0.169
-727.923	-200.000	0.038	0.203
-726.908	178.271	-0.118	-0.175
-725.894	800.000	-0.051	-0.166
-724.879	-51.866	-0.272	-0.128
-723.864	104.202	-0.090	-0.108
-722.850	-137.312	-0.418	0.048
-721.835	-19.418	-0.242	0.152
-720.821	734.331	-0.161	-0.439
-719.806	-49.668	-0.215	0.104
-718.791	-110.518	0.435	0.092
-717.777	56.954	-0.175	0.173
-716.762	-179.843	-0.106	0.002
-715.748	-169.344	-0.204	0.008
-714.733	-13.298	0.287	0.190
-713.718	-102.174	-0.200	-0.049
-712.704	41.910	0.320	-0.295
-711.689	26.659	0.185	0.157
-710.675	-200.000	-0.011	0.224
-709.660	-12.335	-0.250	-0.166
-708.645	95.577	0.207	-0.240
-707.631	264.660	0.024	-0.042
-706.616	-200.000	0.034	0.347
-705.602	-122.225	-0.319	-0.053
-704.587	120.008	-0.061	-0.077
-703.572	-21.514	0.367	-0.227
-702.558	-200.000	-0.013	-0.137
-701.543	-70.492	0.158	-0.061
-700.529	41.210	-0.112	-0.103
-699.514	-200.000	0.024	-0.262
-698.499	489.546	-0.024	0.055
-697.485	-83.467	0.244	-0.079
-696.470	800.000	0.061	0.227
-695.456	232.538	0.142	-0.236
-694.441	18.281	-0.082	-0.067
-693.426	328.646	-0.129	-0.252
-692.412	-200.000	0.015	-0.265
-691.397	136.397	-0.114	-0.151
-690.383	317.060	-0.137	-0.262
-689.368	223.536	-0.278	-0.455
-688.354	83.761	0.139	-0.154
-687.339	-144.738	-0.102	0.010
-686.324	-50.198	-0.073	-0.035
-685.310	-92.255	0.328	0.094
-684.295	237.842	0.019	0.033
-683.281	45.461	-0.118	-0.111
-682.266	-103.913	0.131	-0.031
-681.251	47.382	-0.199	-0.188
-680.237	797.103	0.040	0.113
-679.222	794.840	0.031	0.087
-678.208	22.257	-0.075	-0.062
-677.193	158.843	-0.029	0.041
-676.178	91.386	-0.091	-0.103
-675.164	-69.382	0.062	0.024
-674.149	800.000	-0.081	0.321
-673.135	-72.169	-0.190	0.072
-672.120	-18.844	0.226	-0.143
-671.105	50.917	-0.199	-0.192
-670.091	-128.438	0.080	0.012
-669.076	46.358	0.077	0.073
-668.062	-88.029	0.291	-0.089
-667.047	-65.085	0.231	-0.095
-666.032	221.410	0.077	0.126
-665.018	-187.088	-0.145	-0.002
-664.003	276.368	-0.134	-0.242
-662.989	-5.018	-0.258	0.180
-661.974	399.145	0.077	-0.163
-660.959	-107.161	0.058	-0.013
-659.945	85.114	-0.102	-0.114
-658.930	-106.853	0.047	0.011
-657.916	267.072	0.108	0.191
-656.901	155.866	-0.242	-0.338
-655.886	121.680	0.143	-0.180
-654.872	134.826	-0.146	-0.192
-653.857	29.714	-0.176	-0.152
-652.843	-18.944	0.120	0.076
-651.828	463.370	-0.100	0.225
-650.814	-48.554	0.198	0.096
-649.799	292.902	0.127	-0.234
-648.784	-200.000	0.013	-0.440
-647.770	800.000	0.036	-0.151
-646.755	163.416	-0.071	-0.101
-645.741	-200.000	0.030	-0.140
-644.726	-69.928	0.110	-0.042
-643.711	-200.000	-0.028	-0.309
-642.697	-123.370	-0.233	0.038
-641.682	-42.388	-0.117	-0.060
-640.668	-148.443	-0.388	-0.032
-639.653	-58.724	0.019	-0.008
-638.638	-85.145	-0.063	0.020
-637.624	-22.815	0.111	-0.068
-636.609	23.510	0.259	0.216
-635.595	-58.077	-0.214	-0.095
-634.580	-148.758	0.303	0.025
-633.565	287.000	-0.047	0.087
-632.551	167.812	-0.173	-0.249
-631.536	193.771	0.136	0.209
-630.522	-38.168	-0.356	0.191
-629.507	244.617	-0.148	0.252
-628.492	55.412	0.095	-0.093
-627.478	-30.380	-0.158	-0.091
-626.463	-115.864	-0.116	0.022
-625.449	-38.708	0.171	-0.091
-624.434	-200.000	-0.447	0.001
-623.419	-163.448	-0.196	-0.009
-622.405	-29.860	-0.256	0.147
-621.390	307.681	0.045	-0.085
-620.376	-143.751	0.175	-0.017
-619.361	-200.000	0.027	-0.389
-618.346	473.795	-0.047	-0.107
-617.332	58.353	-0.156	-0.154
-616.317	411.898	0.091	-0.196
-615.303	-117.703	0.287	-0.052
-614.288	-105.720	-0.152	-0.035
-613.273	-86.468	-0.197	-0.061
-612.259	-21.813	0.261	-0.161
-611.244	655.757	0.144	-0.374
-610.230	-167.849	0.129	-0.005
-609.215	-200.000	-0.044	0.268
-608.201	35.791	-0.106	0.094
-607.186	182.380	-0.144	0.215
-606.171	-200.000	-0.026	0.193
-605.157	-200.000	0.012	0.107
-604.142	-200.000	-0.014	-0.112
-603.128	104.931	-0.158	0.188
-602.113	-200.000	-0.011	-0.196
-601.098	-200.000	0.019	-0.091
-600.084	-200.000	0.030	0.211
-599.069	-200.000	-0.009	0.268
-598.055	-32.678	0.054	-0.030
-597.040	800.000	-0.091	-0.322
-596.025	-200.000	0.024	-0.132
-595.011	501.785	0.080	-0.186
-593.996	-94.020	-0.238	-0.066
-592.982	47.078	0.079	0.075
-591.967	-18.103	0.286	0.181
-590.952	-200.000	0.006	0.060
-589.938	-200.000	0.009	0.079
-588.923	-200.000	0.006	0.196
-587.909	-32.194	-0.122	0.069
-586.894	-14.187	-0.133	0.087
-585.879	-120.341	0.165	0.028
-584.865	-52.606	0.212	0.099
-583.850	-72.057	0.138	0.052
-582.836	28.865	-0.250	-0.214
-581.821	-134.334	-0.225	0.028
-580.806	-97.133	0.202	0.053
-579.792	286.072	0.053	-0.097
-578.777	-200.000	0.012	-0.166
-577.763	27.462	0.135	-0.115
-576.748	-64.990	0.385	0.157
-575.733	-22.869	-0.176	-0.107
-574.719	-200.000	0.003	0.385
-573.704	-162.359	-0.249	0.013
-572.690	27.287	-0.087	0.074
-571.675	-20.999	0.187	-0.116
-570.661	34.150	-0.058	-0.051
-569.646	-91.322	0.236	-0.068
-568.631	-21.253	0.070	0.043
-567.617	209.171	-0.214	0.338
-566.602	-97.476	-0.131	-0.035
-565.588	122.258	0.197	-0.249
-564.573	-200.000	0.013	0.165
-563.558	-53.028	0.374	0.174
-562.544	335.353	-0.103	0.201
-561.529	-200.000	0.025	-0.141
-560.515	-45.393	-0.172	0.086
-559.500	-200.000	0.001	0.081
-558.485	115.633	0.059	0.073
-557.471	-81.041	-0.238	0.079
-556.456	120.107	-0.134	-0.168
-555.442	-82.018	-0.180	0.059
-554.427	-101.396	-0.327	0.081
-553.412	360.258	-0.154	-0.312
-552.398	-53.943	0.325	0.149
-551.383	-131.853	-0.151	-0.020
-550.369	-200.000	-0.077	-0.378
-549.354	90.002	0.225	-0.253
-548.339	275.313	0.098	0.175
-547.325	11.409	-0.249	0.193
-546.310	-200.000	0.001	0.206
-545.296	-200.000	0.012	0.128
-544.281	-68.086	0.243	0.096
-543.266	800.000	-0.077	-0.277
-542.252	-200.000	0.014	0.081
-541.237	-200.000	0.067	-0.340
-540.223	-23.165	-0.110	-0.067
-539.208	800.000	0.104	0.353
-538.193	-40.897	0.053	0.028
-537.179	-187.893	-0.449	-0.006
-536.164	-87.912	-0.248	-0.075
-535.150	-24.076	-0.154	0.093
-534.135	800.000	0.059	-0.171
-533.121	-200.000	0.010	0.141
-532.106	131.902	-0.082	0.106
-531.091	-48.704	-0.135	0.065
-530.077	99.939	0.107	-0.125
-529.062	-84.933	0.163	-0.052
-528.048	800.000	-0.087	-0.282
-527.033	-200.000	0.003	0.444
-526.018	447.148	-0.104	-0.230
-525.004	-83.683	0.172	-0.055
-523.989	6.035	-0.314	-0.235
-522.975	12.725	-0.074	0.057
-521.960	116.320	0.309	-0.381
-520.945	-96.569	0.042	-0.011
-519.931	162.707	-0.129	-0.183
-518.916	22.199	-0.151	0.124
-517.902	800.000	0.022	0.077
-516.887	-200.000	0.053	-0.313
-515.872	800.000	0.050	0.178
-514.858	-87.306	-0.067	0.020
-513.843	161.897	0.223	-0.314
-512.829	-200.000	-0.053	0.324
-511.814	563.141	-0.025	-0.062
-510.799	-109.776	-0.211	0.045
-509.785	-164.444	-0.098	-0.005
-508.770	662.442	0.179	-0.465
-507.756	-200.000	-0.041	0.319
-506.741	-200.000	0.034	-0.155
-505.726	316.017	0.061	0.115
-504.712	153.210	0.125	0.172
-503.697	-20.115	-0.058	0.036
-502.683	-200.000	0.007	0.132
-501.668	173.090	0.141	-0.205
-500.653	-107.197	-0.111	0.025
-499.639	2.506	-0.154	-0.112
-498.624	-31.041	-0.221	0.126
-497.610	-84.173	0.163	-0.052
-496.595	-111.109	0.095	-0.020
-495.581	113.211	0.036	-0.043
-494.566	-200.000	0.070	0.325
-493.551	697.149	0.121	0.321
-492.537	800.000	-0.045	-0.136
-491.522	-107.089	0.164	-0.036
-490.508	-85.701	-0.208	-0.065
-489.493	800.000	-0.089	-0.327
-488.478	-27.807	-0.018	-0.010
-487.464	177.897	0.049	0.072
-486.449	-141.467	0.029	-0.003
-485.435	-200.000	-0.002	-0.068
-484.420	-68.928	0.167	0.065
-483.405	-71.298	-0.183	0.069
-482.391	433.840	-0.023	-0.051
-481.376	-97.185	-0.079	-0.021
-480.362	-11.976	-0.073	0.048
-479.347	136.980	0.173	-0.228
-478.332	159.587	0.082	0.115
-477.318	102.977	0.308	-0.362
-476.303	-49.455	0.087	0.042
-475.289	-78.331	-0.082	-0.028
-474.274	110.074	-0.059	0.071
-473.259	-180.024	-0.024	-0.001
-472.245	-176.264	-0.111	-0.003
-471.230	-52.610	0.072	-0.034
-470.216	-200.000	-0.012	-0.119
-469.201	-38.706	-0.107	-0.057
-468.186	-15.587	0.051	-0.033
-467.172	87.055	-0.186	-0.207
-466.157	200.747	0.201	-0.310
-465.143	-101.774	-0.123	0.030
-464.128	-81.268	0.123	0.041
-463.113	0.873	0.135	0.097
-462.099	800.000	-0.064	0.191
-461.084	172.538	0.272	0.393
-460.070	800.000	0.122	0.531
-459.055	201.268	-0.177	0.274
-458.040	800.000	-0.099	0.317
-457.026	138.035	-0.271	0.358
-456.011	800.000	0.035	-0.145
-454.997	-26.503	-0.161	0.095
-453.982	83.841	0.232	-0.255
-452.968	21.522	-0.134	-0.110
-451.953	-104.324	0.191	0.044
-450.938	-61.904	0.252	0.106
-449.924	-126.847	-0.366	0.054
-448.909	-200.000	0.038	0.475
-447.895	-167.367	0.112	-0.005
-446.880	800.000	0.064	-0.200
-445.865	157.404	0.159	0.221
-444.851	-200.000	0.005	-0.068
-443.836	-151.461	0.251	0.019
-442.822	-101.713	0.013	0.003
-441.807	-15.493	0.238	0.153
-440.792	19.477	0.098	-0.079
-439.778	-121.766	-0.208	-0.035
-438.763	-200.000	-0.037	-0.289
-437.749	-200.000	0.029	-0.230
-436.734	-200.000	0.007	0.222
-435.719	182.925	0.121	-0.179
-434.705	73.284	-0.020	-0.021
-433.690	-22.189	-0.355	0.217
-432.676	-162.576	-0.218	0.011
-431.661	800.000	0.052	0.151
-430.646	-25.303	0.231	-0.137
-429.632	-55.852	0.144	0.065
-428.617	-109.105	0.182	-0.039
-427.603	-104.236	-0.097	-0.023
-426.588	61.310	0.142	0.141
-425.573	260.237	-0.132	0.229
-424.559	-164.476	0.264	-0.012
-423.544	300.447	-0.027	0.051
-422.530	-60.294	-0.159	0.068
-421.515	-200.000	-0.017	0.267
-420.500	-200.000	0.119	0.000
-419.486	-200.000	-0.038	0.208
-418.471	800.000	-0.017	0.072
-417.457	-154.571	-0.138	0.009
-416.442	344.774	0.072	0.141
-415.428	-200.000	-0.020	0.123
-414.413	-70.071	-0.074	-0.028
-413.398	-8.572	0.070	-0.047
-412.384	453.657	-0.016	0.035
-411.369	-104.840	0.174	-0.040
-410.355	-32.601	0.118	0.066
-409.340	311.392	0.195	-0.367
-408.325	-91.808	-0.110	-0.031
-407.311	-200.000	0.059	-0.258
-406.296	800.000	-0.090	-0.321
-405.282	-97.956	-0.438	0.113
-404.267	-91.660	-0.367	-0.105
-403.252	56.337	0.287	0.280
-402.238	-200.000	0.061	0.289
-401.223	-128.611	-0.135	-0.019
-400.209	429.668	-0.028	-0.061
-399.194	-200.000	-0.015	-0.222
-398.179	800.000	0.054	-0.177
-397.165	703.789	-0.041	0.109
-396.150	-198.384	-0.246	0.001
-395.136	-171.118	-0.128	0.004
-394.121	47.708	0.097	0.091
-393.106	57.373	0.122	-0.120
-392.092	-37.288	-0.104	-0.056
-391.077	-119.259	-0.187	-0.033
-390.063	107.976	-0.071	0.085
-389.048	-200.000	-0.027	0.215
-388.033	-200.000	-0.046	0.205
-387.019	-2.656	0.244	-0.171
-386.004	325.517	0.048	0.091
-384.990	800.000	-0.050	0.197
-383.975	-147.768	0.266	-0.022
-382.960	-200.000	0.009	-0.048
-381.946	-200.000	0.059	-0.266
-380.931	63.366	-0.093	-0.094
-379.917	800.000	-0.083	0.230
-378.902	-31.466	-0.086	-0.049
-377.888	800.000	0.009	-0.039
-376.873	307.693	0.119	0.222
-375.858	360.563	-0.071	-0.142
-374.844	117.931	-0.106	0.131
-373.829	-200.000	-0.003	0.258
-372.815	164.795	-0.156	-0.221
-371.800	1.595	-0.088	-0.063
-370.785	800.000	-0.150	-0.430
-369.771	-200.000	-0.051	0.283
-368.756	-200.000	-0.018	0.132
-367.742	77.256	-0.182	0.194
-366.727	334.262	-0.113	-0.218
-365.712	-143.605	0.284	-0.027
-364.698	-49.532	-0.127	-0.061
-363.683	-101.726	-0.148	-0.036
-362.669	-28.845	0.032	-0.018
-361.654	-97.500	0.182	-0.047
-360.639	-123.878	0.387	0.061
-359.625	87.273	-0.094	-0.104
-358.610	210.309	0.174	0.274
-357.596	19.889	-0.076	-0.062
-356.581	90.080	0.256	0.286
-355.566	-200.000	0.019	0.291
-354.552	17.540	-0.155	-0.123
-353.537	-200.000	0.001	-0.149
-352.523	-132.143	-0.107	-0.014
-351.508	124.557	0.203	0.256
-350.493	-200.000	0.045	-0.213
-349.479	800.000	-0.035	-0.135
-348.464	638.264	-0.038	0.098
-347.450	276.292	0.141	0.251
-346.435	-175.312	0.414	-0.011
-345.420	-93.128	0.199	-0.055
-344.406	-200.000	0.005	0.293
-343.391	800.000	-0.063	0.225
-342.377	-97.204	-0.299	-0.078
-341.362	-169.695	0.371	-0.013
-340.348	-90.336	-0.093	0.027
-339.333	-26.186	-0.280	-0.165
-338.318	800.000	-0.087	-0.268
-337.304	586.605	-0.111	-0.274
-336.289	-124.953	-0.170	-0.026
-335.275	-111.781	-0.227	0.046
-334.260	88.197	-0.139	-0.154
-333.245	-200.000	-0.069	0.417
-332.231	-200.000	0.016	-0.076
-331.216	446.913	-0.210	-0.461
-330.202	53.644	0.213	-0.205
-329.187	800.000	-0.030	0.084
-328.172	-200.000	0.007	-0.077
-327.158	800.000	-0.037	-0.144
-326.143	-27.092	-0.224	-0.131
-325.129	-179.703	0.058	-0.001
-324.114	-57.025	-0.210	0.093
-323.099	-200.000	0.042	0.184
-322.085	155.585	-0.101	-0.139
-321.070	-200.000	-0.004	0.400
-320.056	101.318	-0.169	-0.197
-319.041	101.394	0.167	-0.194
-318.026	621.600	-0.155	0.391
-317.012	405.252	-0.033	-0.070
-315.997	8.427	-0.066	-0.049
-314.983	229.895	-0.148	-0.241
-313.968	102.818	-0.115	-0.135
-312.953	-109.482	0.262	0.055
-311.939	-60.581	0.258	0.109
-310.924	-123.819	0.192	0.030
-309.910	-84.419	0.135	0.043
-308.895	-3.823	-0.084	-0.058
-307.880	800.000	-0.071	-0.197
-306.866	-129.658	-0.264	0.036
-305.851	-122.960	0.364	-0.059
-304.837	144.461	-0.091	0.122
-303.822	-33.508	0.083	-0.046
-302.807	211.610	0.073	-0.114
-301.793	-74.982	-0.198	0.071
-300.778	800.000	-0.093	-0.386
-299.764	-200.000	-0.035	0.209
-298.749	-200.000	-0.015	-0.123
-297.735	-200.000	-0.002	0.318
-296.720	-200.000	0.024	-0.271
-295.705	-99.916	0.477	-0.119
-294.691	106.592	-0.142	0.168
-293.676	111.359	0.212	-0.255
-292.662	72.758	-0.250	0.261
-291.647	290.197	-0.071	-0.129
-290.632	-87.626	0.055	-0.017
-289.618	5.680	0.272	-0.201
-288.603	-83.086	0.185	-0.060
-287.589	-200.000	-0.017	-0.156
-286.574	800.000	-0.065	0.269
-285.559	195.086	-0.207	0.314
-284.545	48.228	0.395	0.369
-283.530	-106.054	0.129	-0.029
-282.516	-52.782	-0.303	-0.139
-281.501	-33.937	-0.113	0.062
-280.486	-124.453	-0.222	0.035
-279.472	-123.581	-0.478	0.076
-278.457	334.650	0.039	0.075
-277.443	38.893	0.055	-0.049
-276.428	-120.723	-0.131	0.022
-275.413	-200.000	-0.025	0.328
-274.399	-161.091	-0.337	0.018
-273.384	446.266	0.072	-0.158
-272.370	-200.000	-0.029	-0.158
-271.355	-42.595	0.081	0.041
-270.340	55.335	0.168	-0.162
-269.326	-3.605	-0.277	0.192
-268.311	-200.000	-0.071	0.332
-267.297	161.617	0.107	0.149
-266.282	-92.528	0.310	0.087
-265.267	24.204	-0.246	-0.203
-264.253	-47.785	-0.025	0.012
-263.238	44.556	-0.078	-0.072
-262.224	-37.550	-0.147	-0.078
-261.209	538.954	-0.033	-0.079
-260.195	-200.000	0.022	0.284
-259.180	-36.249	0.175	0.094
-258.165	10.128	-0.192	-0.146
-257.151	-63.821	-0.175	-0.072
-256.136	-37.755	-0.169	0.090
-255.122	800.000	0.063	-0.261
-254.107	72.055	0.230	0.239
-253.092	-60.452	0.200	0.085
-252.078	81.133	0.247	0.266
-251.063	-200.000	0.055	-0.241
-250.049	135.414	0.033	0.043
-249.034	-85.441	-0.222	-0.069
-248.019	83.158	-0.212	-0.230
-247.005	-59.554	-0.129	0.055
-245.990	-134.069	0.217	0.027
-244.976	-200.000	0.007	-0.115
-243.961	697.586	0.107	-0.281
-242.946	-120.519	-0.175	0.030
-241.932	-200.000	-0.022	-0.213
-240.917	-33.165	0.232	0.128
-239.903	-152.977	0.398	-0.028
-238.888	-1.270	0.175	-0.123
-237.873	-105.276	0.164	0.037
-236.859	100.914	0.068	0.079
-235.844	-16.446	0.044	-0.028
-234.830	27.253	0.284	-0.237
-233.815	-200.000	0.008	-0.112
-232.800	377.464	0.017	-0.035
-231.786	-28.850	0.273	0.156
-230.771	158.470	-0.061	-0.085
-229.757	-52.639	-0.213	0.098
-228.742	187.370	0.084	0.125
-227.727	8.039	-0.045	-0.033
-226.713	0.466	-0.117	0.084
-225.698	120.687	-0.290	0.359
-224.684	-121.746	0.193	0.032
-223.669	-200.000	0.039	0.372
-222.655	-200.000	-0.010	0.115
-221.640	-6.810	0.197	0.133
-220.625	-80.240	-0.297	0.099
-219.611	-147.634	0.091	0.008
-218.596	14.387	0.029	-0.023
-217.582	-13.128	0.341	0.221
-216.567	-200.000	0.022	-0.298
-215.552	-102.142	0.247	-0.059
-214.538	800.000	0.112	0.399
-213.523	25.760	0.130	-0.108
-212.509	3.148	0.197	-0.142
-211.494	-107.493	-0.268	-0.059
-210.479	28.233	-0.168	-0.141
-209.465	-22.870	-0.151	0.091
-208.450	2.154	-0.178	-0.128
-207.436	-200.000	0.013	-0.066
-206.421	-117.085	-0.062	0.011
-205.406	143.575	0.160	-0.212
-204.392	319.865	0.076	-0.144
-203.377	-200.000	-0.086	-0.399
-202.363	-200.000	-0.003	0.159
-201.348	-35.937	-0.163	-0.088
-200.333	239.265	0.096	-0.158
-199.319	-114.401	-0.173	0.033
-198.304	348.251	-0.028	-0.054
-197.290	-0.144	0.125	0.088
-196.275	-200.000	0.011	-0.168
-195.260	-200.000	0.003	0.052
-194.246	-93.885	0.220	-0.060
-193.231	677.231	0.098	0.254
-192.217	-108.527	0.068	0.015
-191.202	91.290	0.053	-0.059
-190.187	760.238	-0.025	-0.068
-189.173	-149.501	-0.148	-0.012
-188.158	-71.919	0.343	-0.127
-187.144	-200.000	0.048	-0.211
-186.129	-2.822	-0.372	0.259
-185.114	36.505	0.061	0.053
-184.100	-10.745	0.252	0.166
-183.085	-77.977	-0.144	-0.049
-182.071	271.266	0.097	0.171
-181.056	20.262	-0.103	-0.082
-180.042	277.632	-0.078	-0.138
-179.027	-200.000	-0.008	-0.143
-178.012	201.025	0.105	0.160
-176.998	57.842	0.148	0.144
-175.983	27.947	0.165	-0.139
-174.969	75.815	0.114	0.119
-173.954	-200.000	-0.022	-0.161
-172.939	346.937	0.092	-0.179
-171.925	-50.821	0.205	-0.096
-170.910	-53.152	-0.386	-0.176
-169.896	-200.000	0.031	-0.142
-168.881	282.013	-0.059	-0.105
-167.866	332.901	0.150	0.288
-166.852	423.172	0.059	-0.125
-165.837	105.361	0.071	0.084
-164.823	0.762	-0.168	0.119
-163.808	198.154	0.063	0.095
-162.793	80.024	-0.099	-0.106
-161.779	-68.969	0.287	0.110
-160.764	226.513	-0.082	0.133
-159.750	-58.133	0.094	0.041
-158.735	52.574	0.154	-0.147
-157.720	-145.357	0.062	-0.006
-156.706	-81.151	0.291	0.096
-155.691	468.341	-0.077	0.171
-154.677	164.168	0.049	0.069
-153.662	800.000	0.057	0.188
-152.647	110.817	0.029	-0.035
-151.633	571.647	-0.055	-0.132
-150.618	117.062	0.135	0.165
-149.604	112.902	0.126	-0.152
-148.589	-1.471	0.097	0.068
-147.574	-200.000	0.022	-0.220
-146.560	-110.575	-0.179	0.037
-145.545	23.449	-0.102	0.083
-144.531	6.315	-0.206	0.152
-143.516	35.478	0.045	-0.039
-142.502	76.186	-0.145	0.152
-141.487	-85.424	0.205	-0.063
-140.472	-54.822	0.390	-0.175
-139.458	79.603	0.122	-0.130
-138.443	-169.628	0.398	0.014
-137.429	202.540	-0.179	-0.274
-136.414	-97.039	-0.184	-0.048
-135.399	-70.511	0.191	-0.072
-134.385	787.772	-0.042	0.114
-133.370	-82.347	-0.191	-0.062
-132.356	-37.873	-0.239	0.126
-131.341	123.676	0.186	-0.232
-130.326	134.714	-0.196	-0.253
-129.312	-143.515	-0.159	0.015
-128.297	84.290	0.094	0.102
-127.283	123.392	0.137	-0.170
-126.268	-82.065	-0.341	-0.111
-125.253	-200.000	0.001	-0.115
-124.239	-200.000	-0.034	-0.257
-123.224	-168.192	0.036	0.001
-122.210	42.587	0.268	-0.242
-121.195	424.632	0.080	0.171
-120.180	-47.900	-0.281	0.135
-119.166	32.453	0.311	0.267
-118.151	538.871	0.148	0.349
-117.137	-200.000	0.137	-0.001
-116.122	800.000	0.053	0.227
-115.107	-53.352	-0.158	0.072
-114.093	751.977	-0.029	0.078
-113.078	36.113	-0.120	0.105
-112.064	800.000	-0.102	-0.393
-111.049	542.625	0.046	-0.109
-110.034	-144.122	-0.265	0.025
-109.020	-18.827	-0.081	-0.050
-108.005	37.053	0.059	-0.052
-106.991	-142.909	0.221	0.021
-105.976	37.044	-0.237	-0.208
-104.962	49.642	-0.115	0.107
-103.947	-97.040	0.208	0.054
-102.932	716.050	0.038	0.100
-101.918	-200.000	-0.161	0.000
-100.903	-34.764	0.285	0.155
-99.889	-0.963	-0.376	-0.264
-98.874	-30.023	0.379	0.214
-97.859	-110.705	-0.232	0.047
-96.845	-200.000	-0.133	-0.700
-95.830	301.764	0.125	-0.229
-94.816	60.405	-0.171	-0.168
-93.801	718.951	0.107	0.282
-92.786	-77.410	0.348	0.120
-91.772	-132.758	-0.023	-0.003
-90.757	-32.243	0.220	-0.122
-89.743	-107.379	0.193	-0.042
-88.728	-98.226	0.179	0.045
-87.713	-184.396	-0.234	0.004
-86.699	800.000	0.041	-0.164
-85.684	260.793	0.151	0.259
-84.670	337.761	0.215	-0.415
-83.655	-24.958	-0.151	-0.089
-82.640	-68.463	0.273	-0.105
-81.626	57.693	0.247	0.239
-80.611	-79.135	0.084	-0.028
-79.597	800.000	0.071	-0.220
-78.582	-7.140	-0.085	-0.057
-77.567	-34.960	-0.085	-0.046
-76.553	800.000	0.123	0.511
-75.538	349.664	-0.153	-0.298
-74.524	800.000	-0.080	-0.232
-73.509	-24.225	-0.232	0.137
-72.494	-199.749	-0.247	0.001
-71.480	-76.611	0.133	-0.046
-70.465	-82.477	-0.131	-0.042
-69.451	42.247	0.263	0.237
-68.436	-89.752	-0.270	-0.078
-67.422	-172.015	-0.044	-0.001
-66.407	-36.444	-0.297	-0.158
-65.392	-45.103	0.211	-0.104
-64.378	-65.050	0.344	0.138
-63.363	-200.000	-0.060	-0.335
-62.349	197.843	-0.034	0.052
-61.334	174.540	-0.784	-1.122
-60.319	275.190	0.174	0.305
-59.305	-200.000	-0.099	-0.765
-58.290	403.014	0.450	0.938
-57.276	364.675	0.648	1.292
-56.261	-200.000	96.449	564.050
-55.246	629.893	1389.136	3477.457
-54.232	187.376	2599.373	3837.578
-53.217	121.082	2181.930	2687.332
-52.203	46.194	1632.820	1496.960
-51.188	37.973	1367.654	1203.369
-50.173	34.590	1325.083	1145.599
-49.159	55.833	1373.307	1317.527
-48.144	60.031	1391.498	1360.538
-47.130	38.265	1345.902	1185.816
-46.115	34.597	1327.911	1147.906
-45.100	34.426	1323.397	1142.932
-44.086	34.318	1321.023	1140.193
-43.071	34.265	1318.994	1138.078
-42.057	34.212	1316.855	1135.872
-41.042	34.282	1315.078	1134.711
-40.027	34.400	1313.784	1134.251
-39.013	34.313	1311.442	1131.666
-37.998	34.339	1310.040	1130.566
-36.984	34.402	1308.123	1129.244
-35.969	34.412	1306.499	1127.856
-34.954	34.441	1304.586	1126.327
-33.940	34.394	1303.539	1125.102
-32.925	34.542	1302.046	1124.646
-31.911	34.562	1300.315	1123.223
-30.896	34.582	1298.835	1122.017
-29.881	34.480	1297.852	1120.519
-28.867	34.443	1296.558	1119.144
-27.852	34.506	1294.805	1117.953
-26.838	34.480	1293.488	1116.625
-25.823	34.498	1291.866	1115.284
-24.809	34.471	1290.438	1113.849
-23.794	34.607	1289.147	1113.481
-22.779	34.436	1288.345	1111.749
-21.765	34.470	1286.804	1110.575
-20.750	34.374	1285.937	1109.221
-19.736	34.376	1284.281	1107.764
-18.721	34.327	1283.252	1106.545
-17.706	34.441	1281.543	1105.687
-16.692	34.379	1280.237	1104.161
-15.677	34.391	1279.275	1103.355
-14.663	34.360	1278.293	1102.286
-13.648	34.346	1277.183	1101.202
-12.633	34.326	1276.685	1100.612
-11.619	34.305	1275.533	1099.456
-10.604	34.373	1274.535	1098.945
-9.590	34.364	1273.518	1097.972
-8.575	34.357	1272.549	1097.053
-7.560	34.422	1271.821	1096.752
-6.546	34.275	1271.505	1095.594
-5.531	34.251	1270.173	1094.264
-4.517	34.238	1269.568	1093.625
-3.502	34.420	1268.204	1093.453
-2.487	34.373	1267.133	1092.214
-1.473	34.366	1263.247	1088.785
-0.458	33.172	1248.531	1069.308
0.556	28.769	1229.599	1031.333
1.571	24.829	1234.750	1013.298
2.586	23.628	1250.861	1019.539
3.600	23.073	1239.824	1007.293
4.615	18.099	1167.617	921.788
5.629	9.556	1090.603	817.712
6.644	5.346	1069.830	781.064
7.659	5.084	1067.049	777.658
8.673	4.951	1066.021	776.176
9.688	4.920	1064.759	775.037
10.702	5.203	1063.458	775.426
11.717	10.537	1070.968	807.449
12.731	17.874	1081.283	851.907
13.746	19.557	1082.373	861.088
14.761	18.077	1080.145	851.872
15.775	16.957	1077.898	844.452
16.790	15.946	1075.639	837.580
17.804	15.196	1073.938	832.456
18.819	14.875	1072.562	829.723
19.834	14.560	1071.810	827.506
20.848	14.269	1070.900	825.289
21.863	14.191	1069.723	823.921
22.877	13.994	1069.089	822.384
23.892	14.029	1068.365	821.929
24.907	13.831	1068.023	820.613
25.921	13.949	1066.642	820.063
26.936	14.027	1065.099	819.188
27.950	14.036	1063.878	818.222
28.965	14.043	1062.750	817.314
29.980	14.149	1060.951	816.379
30.994	14.249	1059.814	815.922
32.009	14.233	1058.687	814.906
33.023	14.272	1057.691	814.260
34.038	14.282	1056.691	813.466
35.053	14.066	1056.062	811.853
36.067	14.129	1054.771	811.095
37.082	14.100	1054.128	810.388
38.096	14.205	1053.575	810.402
39.111	14.126	1053.166	809.632
40.126	14.187	1051.390	808.491
41.140	13.994	1049.936	806.366
42.155	13.934	1048.684	805.044
43.169	13.974	1047.787	804.476
44.184	13.850	1046.833	803.073
45.199	13.941	1045.754	802.614
46.213	13.803	1045.284	801.515
47.228	14.050	1043.586	801.334
48.242	13.883	1043.032	800.035
49.257	14.075	1041.357	799.601
50.271	14.171	1040.631	799.435
51.286	14.110	1040.087	798.651
52.301	14.142	1038.923	797.843
53.315	13.908	1037.864	795.834
54.330	14.018	1036.836	795.504
55.344	13.995	1035.822	794.544
56.359	14.029	1034.807	793.860
57.374	14.021	1033.773	792.959
58.388	13.819	1033.299	791.561
59.403	13.929	1032.234	791.197
60.417	13.840	1031.728	790.316
61.432	13.867	1030.288	789.271
62.447	13.749	1029.772	788.246
63.461	13.771	1029.266	787.896
64.476	13.813	1027.711	786.833
65.490	13.824	1027.158	786.391
66.505	13.816	1026.158	785.522
67.520	13.824	1026.069	785.422
68.534	13.915	1025.161	785.083
69.549	13.780	1024.269	783.695
70.563	13.881	1023.148	783.243
71.578	13.793	1022.263	782.083
72.593	13.759	1021.659	781.389
73.607	13.762	1021.227	781.007
74.622	13.709	1020.424	780.071
75.636	13.773	1019.647	779.710
76.651	13.817	1018.717	779.136
77.666	13.844	1018.077	778.706
78.680	13.704	1017.747	777.730
79.695	13.713	1017.317	777.370
80.709	13.909	1016.135	777.319
81.724	13.939	1015.871	777.186
82.739	13.943	1015.310	776.708
83.753	14.081	1014.158	776.402
84.768	14.187	1013.381	776.233
85.782	14.103	1012.747	775.287
86.797	14.170	1011.625	774.674
87.812	14.017	1010.687	773.174
88.826	14.021	1009.492	772.211
89.841	14.134	1008.753	772.103
90.855	14.268	1007.754	771.890
91.870	14.228	1007.051	771.097
92.884	14.081	1006.578	769.986
93.899	14.251	1005.147	769.612
94.914	14.363	1004.375	769.469
95.928	14.369	1004.052	769.179
96.943	14.182	1003.084	767.507
97.957	14.175	1002.301	766.806
98.972	14.199	1001.262	766.054
99.987	14.216	1000.267	765.308
101.001	14.244	999.041	764.426
102.016	14.171	998.432	763.561
103.030	14.207	998.093	763.400
104.045	14.219	996.849	762.434
105.060	14.266	996.272	762.140
106.074	13.980	995.323	760.040
107.089	13.912	994.242	758.837
108.103	13.915	993.080	757.897
109.118	13.925	992.121	757.142
110.133	13.926	991.346	756.486
111.147	13.981	990.492	756.022
112.162	13.893	989.587	754.862
113.176	13.927	989.235	754.681
114.191	14.008	988.459	754.390
115.206	14.066	987.496	753.852
116.220	13.991	986.794	752.910
117.235	14.005	985.490	751.912
118.249	14.003	984.977	751.443
119.264	14.048	984.119	750.927
120.279	13.942	983.094	749.600
121.293	13.925	982.248	748.813
122.308	13.905	981.294	747.928
123.322	13.824	980.671	747.022
124.337	13.801	979.510	745.967
125.352	13.862	978.174	745.158
126.366	13.833	977.815	744.690
127.381	13.924	976.468	744.003
128.395	13.926	976.017	743.606
129.410	13.903	975.167	742.789
130.424	14.003	974.182	742.419
131.439	14.144	972.873	741.984
132.454	14.067	972.258	741.105
133.468	14.008	972.087	740.647
134.483	14.093	971.214	740.297
135.497	14.150	969.728	739.352
136.512	14.125	969.175	738.755
137.527	14.170	968.143	738.102
138.541	14.023	967.902	737.201
139.556	14.194	966.947	737.164
140.570	14.226	966.085	736.583
141.585	14.255	965.476	736.182
142.600	14.396	964.339	735.871
143.614	14.406	963.282	735.045
144.629	14.458	963.023	735.011
145.643	14.279	961.846	733.263
146.658	14.176	960.980	732.084
147.673	14.259	959.484	731.241
148.687	14.199	959.097	730.619
149.702	14.160	958.155	729.669
150.716	14.135	957.415	728.929
151.731	14.178	956.488	728.345
152.746	14.082	956.149	727.603
153.760	14.185	955.571	727.551
154.775	14.184	954.787	726.886
155.789	14.240	954.311	726.702
156.804	14.362	953.343	726.433
157.819	14.256	952.911	725.578
158.833	14.366	952.232	725.474
159.848	14.546	951.156	725.376
160.862	14.321	950.436	723.783
161.877	14.243	949.312	722.525
162.892	14.217	948.096	721.424
163.906	14.278	947.547	721.204
164.921	14.233	947.061	720.578
165.935	14.344	945.937	720.138
166.950	14.256	945.024	718.998
167.964	14.354	943.981	718.564
168.979	14.155	943.585	717.341
169.994	14.314	942.637	717.243
171.008	14.288	942.039	716.611
172.023	14.456	941.253	716.671
173.037	14.556	940.289	716.304
174.052	14.554	939.620	715.725
175.067	14.315	938.856	714.052
176.081	14.314	938.683	713.854
177.096	14.295	937.970	713.169
178.110	14.401	936.913	712.754
179.125	14.357	936.658	712.309
180.140	14.425	936.252	712.229
181.154	14.436	935.954	711.986
182.169	14.502	935.520	711.873
183.183	14.678	934.560	711.831
184.198	14.650	933.728	711.014
185.213	14.580	933.212	710.262
186.227	14.640	932.455	709.875
187.242	14.588	932.293	709.470
188.256	14.783	931.444	709.589
189.271	14.638	930.427	708.137
190.286	14.528	929.486	706.892
191.300	14.398	928.755	705.720
192.315	14.351	928.114	704.976
193.329	14.297	927.886	704.509
194.344	14.538	927.260	704.989
195.359	14.644	926.465	704.773
196.373	14.625	925.811	704.131
197.388	14.813	925.719	704.795
198.402	14.776	925.242	704.212
199.417	14.820	924.479	703.752
200.432	14.858	923.992	703.480
201.446	15.001	923.455	703.610
202.461	15.020	923.101	703.357
203.475	15.040	922.081	702.602
204.490	14.938	921.384	701.584
205.504	14.808	920.581	700.364
206.519	14.784	920.284	699.976
207.534	14.861	919.108	699.343
208.548	14.942	918.542	699.187
209.563	14.827	918.358	698.504
210.577	14.914	917.457	698.121
211.592	14.975	916.786	697.802
212.607	15.112	915.490	697.323
213.621	15.007	915.013	696.463
214.636	15.000	914.385	695.893
215.650	15.022	913.379	695.158
216.665	14.981	913.089	694.706
217.680	15.068	912.642	694.665
218.694	15.116	911.795	694.158
219.709	15.038	911.097	693.241
220.723	15.052	910.094	692.475
221.738	15.161	909.615	692.499
222.753	15.164	909.360	692.257
223.767	15.168	909.033	691.964
224.782	15.211	908.252	691.484
225.796	15.220	907.665	691.013
226.811	15.322	906.772	690.694
227.826	15.208	905.805	689.428
228.840	15.225	905.062	688.871
229.855	15.114	904.470	687.904
230.869	15.162	903.913	687.615
231.884	15.193	903.113	687.074
232.899	15.123	902.193	686.027
233.913	15.084	901.887	685.575
234.928	14.996	901.263	684.680
235.942	15.166	900.741	684.917
236.957	15.054	900.142	683.942
237.972	15.107	899.590	683.678
238.986	15.089	898.949	683.057
240.001	15.090	898.091	682.350
241.015	15.161	897.495	682.124
242.030	15.189	896.821	681.668
243.045	15.226	896.635	681.615
244.059	15.238	895.990	681.113
245.074	15.290	895.552	680.933
246.088	15.449	894.516	680.728
247.103	15.455	893.866	680.196
248.117	15.464	893.461	679.866
249.132	15.594	892.528	679.621
250.147	15.788	892.097	680.016
251.161	15.691	891.969	679.469
252.176	15.664	891.219	678.727
253.190	15.651	890.490	678.061
254.205	15.857	889.451	678.037
255.220	15.786	888.907	677.279
256.234	15.791	888.345	676.811
257.249	15.704	887.835	676.012
258.263	15.750	887.425	675.826
259.278	15.824	886.295	675.199
260.293	15.783	886.016	674.763
261.307	15.819	885.171	674.203
262.322	16.051	884.289	674.403
263.336	16.106	883.532	673.986
264.351	15.944	883.048	672.911
265.366	15.844	882.917	672.350
266.380	15.963	881.529	671.710
267.395	15.995	881.439	671.709
268.409	15.944	880.428	670.676
269.424	16.111	879.426	670.518
270.439	15.804	879.165	669.039
271.453	15.946	878.231	668.834
272.468	15.986	878.214	668.918
273.482	15.746	877.753	667.556
274.497	15.940	876.665	667.437
275.512	16.019	876.132	667.286
276.526	15.908	876.004	666.690
277.541	15.977	875.266	666.343
278.555	16.078	874.576	666.158
279.570	16.118	874.314	666.058
280.585	16.169	873.428	665.523
281.599	16.021	872.560	664.220
282.614	16.037	871.969	663.774
283.628	16.082	871.274	663.363
284.643	16.117	870.871	663.137
285.657	16.122	869.709	662.212
286.672	16.075	869.410	661.742
287.687	16.098	868.798	661.306
288.701	16.122	868.413	661.048
289.716	16.029	867.819	660.176
290.730	16.207	867.215	660.353
291.745	16.302	866.447	660.081
292.760	16.359	865.881	659.815
293.774	16.376	865.097	659.227
294.789	16.289	864.376	658.280
295.803	16.337	863.855	658.010
296.818	16.242	863.391	657.227
297.833	16.328	862.386	656.740
298.847	16.302	862.075	656.344
299.862	16.143	861.756	655.425
300.876	16.401	861.078	655.854
301.891	16.504	860.198	655.524
302.906	16.664	859.781	655.769
303.920	16.505	859.552	654.922
304.935	16.549	859.118	654.701
305.949	16.508	858.374	653.919
306.964	16.588	857.511	653.513
307.979	16.358	857.354	652.444
308.993	16.578	856.505	652.592
310.008	16.667	855.598	652.188
311.022	16.493	855.712	651.544
312.037	16.578	854.465	650.863
313.052	16.378	854.323	649.928
314.066	16.472	853.698	649.759
315.081	16.343	853.216	648.839
316.095	16.451	852.700	648.801
317.110	16.418	851.712	647.867
318.125	16.424	851.299	647.517
319.139	16.418	850.804	647.060
320.154	16.593	850.171	647.192
321.168	16.569	849.801	646.763
322.183	16.534	849.501	646.344
323.197	16.419	848.916	645.402
324.212	16.501	848.562	645.386
325.227	16.564	847.653	644.878
326.241	16.656	847.132	644.775
327.256	16.583	846.786	644.178
328.270	16.599	846.014	643.596
329.285	16.480	845.431	642.642
330.300	16.655	844.595	642.615
331.314	16.509	844.318	641.792
332.329	16.694	843.987	642.184
333.343	16.758	843.051	641.658
334.358	16.869	842.488	641.593
335.373	16.751	842.551	641.138
336.387	16.770	842.558	641.160
337.402	16.854	842.383	641.288
338.416	16.836	841.549	640.525
339.431	16.865	841.223	640.332
340.446	17.029	840.712	640.504
341.460	16.885	840.287	639.581
342.475	17.051	839.971	639.911
343.489	17.070	839.367	639.465
344.504	17.183	838.947	639.514
345.519	17.175	838.748	639.276
346.533	17.106	838.213	638.550
347.548	16.983	837.562	637.538
348.562	16.951	837.011	636.943
349.577	16.849	836.652	636.227
350.592	16.828	835.686	635.358
351.606	17.024	834.964	635.489
352.621	17.007	834.332	634.888
353.635	17.030	833.491	634.279
354.650	17.071	833.027	634.020
355.665	17.161	832.436	633.852
356.679	17.097	831.770	633.047
357.694	17.098	831.004	632.416
358.708	17.099	830.705	632.135
359.723	17.057	830.019	631.400
360.738	17.204	829.196	631.265
361.752	17.201	828.927	630.994
362.767	17.324	828.147	630.801
363.781	17.242	827.618	630.035
364.796	17.489	827.158	630.548
365.810	17.268	827.226	629.724
366.825	17.462	826.705	629.990
367.840	17.356	826.417	629.321
368.854	17.349	825.779	628.752
369.869	17.430	825.212	628.566
370.883	17.428	824.911	628.272
371.898	17.322	824.558	627.558
372.913	17.495	823.926	627.658
373.927	17.284	823.668	626.629
374.942	17.567	823.025	627.128
375.956	17.600	822.542	626.824
376.971	17.737	822.053	626.900
377.986	17.641	821.618	626.161
379.000	17.700	820.828	625.719
380.015	17.592	820.605	625.097
381.029	17.714	819.943	624.986
382.044	17.656	819.312	624.236
383.059	17.836	818.336	624.095
384.073	17.764	817.910	623.454
385.088	17.571	817.838	622.639
386.102	17.666	817.399	622.594
387.117	17.629	816.425	621.665
388.132	17.634	815.972	621.283
389.146	17.748	815.463	621.254
390.161	17.808	815.114	621.151
391.175	17.803	814.669	620.739
392.190	17.603	814.305	619.679
393.205	17.676	813.592	619.350
394.219	17.637	813.362	618.975
395.234	17.592	813.395	618.785
396.248	17.592	812.443	618.003
397.263	17.529	812.074	617.440
398.278	17.700	811.744	617.753
399.292	17.551	811.016	616.606
400.307	17.485	810.957	616.269
401.321	17.732	810.373	616.664
402.336	17.671	809.639	615.830
403.350	17.790	809.253	615.912
404.365	17.712	809.160	615.505
405.380	17.813	808.650	615.426
406.394	17.913	808.040	615.269
407.409	17.985	807.670	615.193
408.423	18.041	807.313	615.068
409.438	18.081	806.962	614.890
410.453	18.006	806.496	614.208
411.467	18.226	805.649	614.299
412.482	18.175	805.413	613.884
413.496	18.165	805.526	613.877
414.511	18.123	805.187	613.414
415.526	18.120	804.786	613.044
416.540	18.200	804.048	612.714
417.555	18.139	803.671	612.153
418.569	18.207	803.271	612.041
419.584	18.310	802.458	611.733
420.599	18.373	801.928	611.500
421.613	153.273	1370.256	1790.132
422.628	132.849	1453.079	1790.240
