DTS Sentinel unit serial number:	SN413079Multiplexer serial number:	ORYXHardware model number:	OX4-SRSoftware version number:	ORYX F/W v4.00 Oryx Data Collector v3.7.2.0data status	okinstallation	princeton_trtdifferential loss correction	single-endedforward channel	channel 1reverse channel	N/Adate	2019/09/17time	14:42:35forward acquisition time	60.00reverse acquisition time	0.00gamma	496.2192k internal	0.2297k external	0.2297temperature offset calibration	0.9966default loss term (dB/km)	0.3790temperature slope calibration	1.0000multiplexer offset coefficient	1.0000multiplexer slope coefficient	1.0000fibre end	0.00T internal ref (°C)	36.84T ext. ref 1 (°C)	0.40T ext. ref 2 (°C)	33.76length (m)	temperature (°C)	Stokes	anti-Stokes-747.200	155.546	-0.148	0.208
-746.185	67.346	0.118	0.123
-745.171	-127.305	-0.247	0.037
-744.156	-58.841	0.176	0.078
-743.142	800.000	0.072	0.270
-742.127	800.000	-0.131	0.389
-741.112	-123.858	-0.160	-0.026
-740.098	711.239	0.046	-0.123
-739.083	405.571	0.091	-0.197
-738.069	239.165	-0.101	0.172
-737.054	138.086	0.069	0.093
-736.039	-200.000	-0.001	-0.157
-735.025	-15.093	0.098	-0.064
-734.010	28.677	-0.354	-0.306
-732.996	18.700	-0.092	-0.075
-731.981	-30.631	-0.319	-0.185
-730.966	341.287	0.060	-0.120
-729.952	-23.040	-0.168	0.103
-728.937	-178.561	-0.359	-0.008
-727.923	-200.000	-0.031	0.254
-726.908	167.055	-0.292	0.424
-725.894	-61.597	-0.048	-0.021
-724.879	-148.545	-0.221	-0.018
-723.864	-133.157	0.077	0.010
-722.850	-66.613	-0.214	-0.087
-721.835	644.749	0.029	0.076
-720.821	562.487	0.068	-0.169
-719.806	800.000	0.024	-0.087
-718.791	-82.147	0.543	0.181
-717.777	-200.000	0.104	-0.480
-716.762	53.979	-0.131	-0.128
-715.748	232.988	0.088	-0.148
-714.733	-101.044	-0.234	0.058
-713.718	800.000	-0.043	-0.147
-712.704	-21.248	0.120	-0.075
-711.689	308.262	-0.126	-0.239
-710.675	-3.208	0.052	0.037
-709.660	-81.419	-0.363	-0.122
-708.645	292.786	-0.151	-0.281
-707.631	800.000	0.091	0.311
-706.616	-200.000	0.036	0.192
-705.602	0.987	-0.252	-0.184
-704.587	-51.135	-0.033	-0.016
-703.572	-200.000	-0.003	-0.130
-702.558	-57.392	-0.091	0.041
-701.543	-129.117	0.062	-0.009
-700.529	-29.363	0.319	-0.186
-699.514	-137.651	-0.444	0.051
-698.499	-23.742	0.248	0.152
-697.485	-42.355	-0.319	0.166
-696.470	800.000	-0.059	-0.218
-695.456	35.680	0.264	0.236
-694.441	-27.865	0.236	0.140
-693.426	164.128	-0.176	0.252
-692.412	462.708	-0.123	-0.280
-691.397	-135.991	-0.286	0.034
-690.383	800.000	0.098	0.281
-689.368	44.061	-0.189	0.177
-688.354	74.186	-0.087	0.093
-687.339	800.000	-0.056	0.215
-686.324	-103.061	-0.251	-0.061
-685.310	-117.635	0.188	0.034
-684.295	224.184	-0.121	0.199
-683.281	-200.000	0.044	0.220
-682.266	-15.295	-0.115	0.075
-681.251	162.061	0.077	-0.110
-680.237	800.000	-0.060	-0.180
-679.222	-57.276	0.204	0.091
-678.208	-41.654	-0.144	-0.075
-677.193	800.000	-0.029	-0.121
-676.178	-65.463	-0.119	-0.049
-675.164	-200.000	-0.074	-0.344
-674.149	800.000	-0.081	-0.278
-673.135	-91.198	0.057	0.017
-672.120	186.489	0.158	0.240
-671.105	-1.836	-0.221	0.158
-670.091	160.332	-0.081	-0.115
-669.076	-54.190	-0.061	0.028
-668.062	-44.941	0.256	-0.130
-667.047	467.719	-0.090	-0.206
-666.032	505.312	-0.042	-0.100
-665.018	-61.203	0.194	-0.083
-664.003	-200.000	0.012	0.182
-662.989	-149.912	0.192	0.015
-661.974	-60.560	0.048	0.021
-660.959	286.302	0.036	0.067
-659.945	800.000	0.072	0.306
-658.930	-83.102	0.089	0.029
-657.916	-77.917	-0.203	-0.071
-656.901	19.384	0.114	0.094
-655.886	-122.588	0.243	0.040
-654.872	-200.000	0.025	0.521
-653.857	117.433	-0.091	-0.114
-652.843	88.879	0.034	-0.039
-651.828	-200.000	-0.032	-0.195
-650.814	-11.394	-0.166	-0.111
-649.799	71.433	0.081	0.086
-648.784	70.374	-0.038	-0.040
-647.770	265.115	-0.079	-0.139
-646.755	97.428	-0.173	-0.202
-645.741	-200.000	0.048	-0.254
-644.726	47.235	0.390	0.369
-643.711	-184.433	0.035	0.001
-642.697	800.000	-0.050	-0.161
-641.682	11.272	0.215	0.167
-640.668	-57.558	0.203	0.091
-639.653	-112.168	-0.251	0.051
-638.638	-53.476	-0.085	0.040
-637.624	-127.707	0.233	0.034
-636.609	-200.000	-0.038	-0.181
-635.595	-125.871	0.281	-0.043
-634.580	-200.000	-0.026	0.239
-633.565	44.040	-0.213	0.198
-632.551	72.177	0.065	0.068
-631.536	-200.000	0.054	-0.384
-630.522	278.277	0.156	0.282
-629.507	-32.628	0.100	-0.057
-628.492	58.920	0.336	-0.336
-627.478	-94.722	0.209	-0.058
-626.463	736.090	-0.074	0.201
-625.449	-40.563	0.102	0.054
-624.434	-136.975	-0.266	-0.031
-623.419	-114.712	0.370	0.072
-622.405	25.336	-0.102	0.086
-621.390	218.488	0.054	-0.088
-620.376	-91.312	-0.280	-0.081
-619.361	-200.000	-0.042	-0.210
-618.346	-123.887	0.252	0.040
-617.332	222.478	0.131	-0.214
-616.317	26.876	-0.247	-0.211
-615.303	800.000	-0.083	-0.265
-614.288	227.305	0.153	-0.253
-613.273	365.279	0.130	-0.266
-612.259	-200.000	0.015	0.075
-611.244	238.012	0.062	-0.104
-610.230	800.000	-0.080	-0.254
-609.215	-200.000	-0.002	-0.111
-608.201	764.090	-0.057	-0.158
-607.186	800.000	0.013	0.037
-606.171	-55.274	0.328	-0.150
-605.157	-116.976	-0.341	-0.063
-604.142	-90.990	0.282	0.082
-603.128	-200.000	-0.024	0.296
-602.113	-0.512	-0.213	-0.154
-601.098	64.475	0.113	-0.116
-600.084	-60.030	-0.292	0.126
-599.069	-73.675	-0.124	-0.046
-598.055	-39.880	-0.266	0.141
-597.040	-59.284	0.182	-0.080
-596.025	-143.268	-0.178	0.017
-595.011	408.665	0.050	0.107
-593.996	-152.125	0.127	-0.009
-592.982	-66.380	0.239	0.096
-591.967	-200.000	-0.018	-0.168
-590.952	216.477	0.162	-0.262
-589.938	-200.000	-0.009	0.124
-588.923	-175.773	0.022	0.001
-587.909	-200.000	0.024	0.158
-586.894	-154.568	0.298	0.020
-585.879	800.000	-0.042	-0.185
-584.865	92.280	0.032	-0.037
-583.850	-200.000	-0.005	0.042
-582.836	127.533	-0.214	0.276
-581.821	222.880	0.118	0.194
-580.806	197.741	0.153	-0.237
-579.792	85.444	0.147	-0.164
-578.777	-54.391	0.084	0.039
-577.763	-200.000	0.012	-0.377
-576.748	-104.461	-0.125	-0.029
-575.733	-200.000	0.007	0.376
-574.719	-200.000	0.010	-0.419
-573.704	-56.772	0.106	-0.048
-572.690	55.455	0.157	-0.154
-571.675	-37.931	-0.126	0.068
-570.661	-200.000	-0.002	-0.303
-569.646	-147.395	0.340	-0.029
-568.631	-32.536	0.034	-0.019
-567.617	-45.885	0.079	0.040
-566.602	-188.839	-0.277	-0.003
-565.588	-122.025	-0.175	0.029
-564.573	-64.399	-0.191	-0.079
-563.558	-200.000	0.002	0.059
-562.544	225.306	0.065	-0.107
-561.529	4.714	-0.205	0.152
-560.515	-88.756	0.253	-0.076
-559.500	-69.545	0.136	0.053
-558.485	-160.978	0.084	-0.004
-557.471	-66.838	0.232	0.093
-556.456	157.919	-0.071	0.100
-555.442	292.317	0.096	-0.177
-554.427	-132.110	-0.126	0.017
-553.412	67.383	-0.079	0.082
-552.398	800.000	-0.042	-0.146
-551.383	-200.000	0.016	0.179
-550.369	756.304	-0.028	0.076
-549.354	800.000	-0.100	-0.345
-548.339	260.017	-0.156	-0.272
-547.325	-0.543	0.139	0.100
-546.310	-200.000	-0.002	-0.255
-545.296	-200.000	0.008	-0.037
-544.281	76.915	-0.164	0.176
-543.266	-165.381	0.180	-0.008
-542.252	476.400	-0.073	0.168
-541.237	322.249	-0.021	0.041
-540.223	84.385	-0.078	-0.087
-539.208	-27.797	0.285	0.167
-538.193	322.793	0.007	-0.013
-537.179	-100.246	-0.023	-0.006
-536.164	529.502	0.051	0.123
-535.150	482.981	-0.060	0.139
-534.135	57.590	-0.103	-0.102
-533.121	-200.000	0.023	-0.225
-532.106	800.000	0.029	-0.109
-531.091	-82.155	-0.209	-0.069
-530.077	10.963	-0.157	-0.122
-529.062	800.000	0.166	-0.544
-528.048	-200.000	0.047	-0.395
-527.033	590.231	0.028	0.069
-526.018	50.579	-0.046	0.044
-525.004	-54.995	0.235	0.107
-523.989	41.373	0.154	0.141
-522.975	397.024	0.011	0.022
-521.960	173.268	-0.113	0.164
-520.945	93.572	-0.209	-0.240
-519.931	-66.984	0.141	0.057
-518.916	2.458	0.300	-0.220
-517.902	800.000	0.032	0.098
-516.887	-135.369	-0.303	0.037
-515.872	-200.000	-0.027	-0.197
-514.858	21.926	0.045	-0.037
-513.843	87.783	0.106	0.119
-512.829	-130.343	-0.328	-0.045
-511.814	-86.048	0.072	-0.022
-510.799	800.000	0.022	0.071
-509.785	-22.001	0.158	-0.097
-508.770	24.652	-0.143	-0.120
-507.756	518.428	0.072	0.171
-506.741	54.749	-0.254	0.248
-505.726	42.326	0.113	0.104
-504.712	-200.000	0.009	-0.174
-503.697	19.273	-0.402	-0.327
-502.683	238.724	-0.148	-0.249
-501.668	448.310	0.041	0.092
-500.653	-81.513	0.326	-0.108
-499.639	-142.068	-0.282	0.028
-498.624	107.055	0.255	-0.307
-497.610	-42.795	0.276	0.142
-496.595	5.890	-0.210	-0.157
-495.581	290.496	-0.125	-0.230
-494.566	264.485	-0.072	-0.127
-493.551	-182.072	-0.389	0.007
-492.537	800.000	-0.064	-0.246
-491.522	800.000	-0.020	-0.075
-490.508	800.000	-0.048	-0.199
-489.493	-200.000	-0.013	0.181
-488.478	206.407	0.151	0.237
-487.464	530.148	-0.061	-0.146
-486.449	56.778	0.256	-0.252
-485.435	-36.124	-0.132	0.072
-484.420	111.914	-0.200	0.245
-483.405	-39.900	0.445	0.235
-482.391	55.199	0.041	0.041
-481.376	312.881	-0.152	-0.288
-480.362	800.000	-0.047	-0.188
-479.347	215.659	-0.146	0.234
-478.332	764.032	0.038	0.104
-477.318	631.839	0.074	-0.190
-476.303	-22.326	-0.071	-0.043
-475.289	13.021	0.093	0.073
-474.274	-107.628	0.291	-0.064
-473.259	-200.000	0.032	0.421
-472.245	800.000	-0.077	0.308
-471.230	-51.130	-0.096	0.046
-470.216	350.076	0.139	0.278
-469.201	548.865	0.062	0.149
-468.186	-11.762	-0.196	-0.130
-467.172	431.969	0.196	-0.428
-466.157	441.018	0.120	0.266
-465.143	-19.161	0.179	0.112
-464.128	-200.000	0.024	-0.198
-463.113	-144.756	-0.139	-0.013
-462.099	-38.845	0.255	-0.136
-461.084	-56.062	0.323	0.145
-460.070	-137.314	-0.114	-0.013
-459.055	215.641	0.147	0.236
-458.040	568.314	-0.105	-0.258
-457.026	-200.000	0.019	-0.277
-456.011	-29.298	0.327	0.189
-454.997	29.000	-0.115	0.098
-453.982	800.000	-0.039	-0.170
-452.968	800.000	-0.013	-0.038
-451.953	137.472	0.085	0.112
-450.938	60.502	0.069	-0.069
-449.924	-95.110	0.365	0.100
-448.909	91.484	-0.248	0.282
-447.895	11.752	0.089	0.069
-446.880	-43.144	0.174	-0.089
-445.865	181.465	-0.028	0.042
-444.851	-112.867	-0.421	-0.084
-443.836	-200.000	0.031	-0.248
-442.822	800.000	-0.041	0.175
-441.807	800.000	0.020	0.084
-440.792	-200.000	0.008	0.146
-439.778	452.808	0.144	0.321
-438.763	-81.790	-0.034	-0.011
-437.749	-94.074	-0.135	0.037
-436.734	55.101	0.138	0.135
-435.719	-34.473	0.357	0.197
-434.705	-64.076	-0.296	0.122
-433.690	-115.966	-0.259	0.049
-432.676	-30.332	0.304	0.174
-431.661	-129.848	0.143	-0.020
-430.646	-200.000	-0.022	0.266
-429.632	-21.227	-0.274	-0.169
-428.617	-200.000	0.053	-0.334
-427.603	-116.602	0.239	0.044
-426.588	-159.258	-0.136	0.008
-425.573	-155.979	-0.128	0.008
-424.559	102.026	-0.281	0.331
-423.544	-85.464	0.203	-0.064
-422.530	-71.480	0.110	-0.042
-421.515	-200.000	0.017	-0.352
-420.500	404.016	0.042	0.089
-419.486	181.718	0.091	0.134
-418.471	-105.647	-0.302	-0.069
-417.457	-22.440	0.491	0.300
-416.442	-56.632	0.121	-0.054
-415.428	-69.233	0.068	-0.026
-414.413	-112.118	0.487	-0.099
-413.398	402.271	0.083	0.175
-412.384	18.060	0.316	-0.254
-411.369	245.610	-0.045	-0.076
-410.355	-99.547	-0.189	-0.048
-409.340	800.000	0.142	0.442
-408.325	275.275	0.077	0.137
-407.311	579.842	-0.117	-0.288
-406.296	398.088	0.067	0.140
-405.282	-200.000	-0.111	0.495
-404.267	144.202	-0.113	-0.152
-403.252	-116.075	0.171	-0.032
-402.238	84.216	-0.053	0.058
-401.223	244.197	-0.203	-0.343
-400.209	46.133	-0.149	-0.139
-399.194	100.656	0.028	0.033
-398.179	-158.062	0.313	0.019
-397.165	-87.888	-0.345	0.105
-396.150	28.564	0.288	0.245
-395.136	-78.671	0.179	-0.062
-394.121	-200.000	0.035	0.274
-393.106	-70.418	-0.148	-0.057
-392.092	394.984	-0.042	0.087
-391.077	5.865	0.074	0.055
-390.063	78.529	0.186	0.200
-389.048	426.863	-0.046	0.099
-388.033	-26.553	-0.285	-0.168
-387.019	-136.663	-0.134	-0.016
-386.004	-127.362	-0.150	-0.022
-384.990	76.027	-0.280	0.298
-383.975	-200.000	0.071	0.327
-382.960	148.343	0.104	-0.141
-381.946	417.681	-0.078	-0.167
-380.931	-37.620	-0.392	0.210
-379.917	38.353	0.042	0.038
-378.902	327.435	-0.192	-0.372
-377.888	-96.444	0.134	-0.036
-376.873	139.663	0.149	-0.197
-375.858	-200.000	-0.013	-0.097
-374.844	800.000	-0.025	-0.100
-373.829	353.989	0.036	-0.072
-372.815	0.050	-0.359	0.258
-371.800	289.312	0.046	-0.084
-370.785	-123.117	-0.115	0.019
-369.771	-84.817	-0.072	-0.023
-368.756	89.172	-0.161	-0.180
-367.742	670.819	-0.102	-0.267
-366.727	47.858	0.231	0.217
-365.712	-132.460	0.308	0.040
-364.698	380.989	-0.100	0.206
-363.683	-68.747	-0.066	0.026
-362.669	75.310	-0.196	-0.208
-361.654	195.245	-0.079	0.120
-360.639	206.507	0.172	0.269
-359.625	800.000	-0.028	-0.110
-358.610	-95.833	-0.363	0.097
-357.596	440.630	-0.115	0.252
-356.581	-55.127	-0.169	0.076
-355.566	-188.593	-0.285	0.004
-354.552	-52.375	0.148	0.069
-353.537	800.000	0.112	0.328
-352.523	198.530	-0.044	-0.067
-351.508	-97.768	-0.101	0.026
-350.493	-97.590	-0.225	0.059
-349.479	800.000	-0.037	-0.114
-348.464	800.000	0.104	-0.358
-347.450	-140.982	-0.429	0.044
-346.435	6.013	-0.209	0.155
-345.420	-200.000	-0.051	-0.346
-344.406	-200.000	0.014	-0.212
-343.391	92.274	0.072	0.082
-342.377	-108.534	0.253	0.055
-341.362	-56.106	-0.539	0.241
-340.348	-200.000	-0.033	0.167
-339.333	-68.223	0.285	-0.111
-338.318	-200.000	0.005	0.151
-337.304	800.000	-0.081	0.342
-336.289	-42.459	-0.127	0.065
-335.275	-15.096	0.128	-0.082
-334.260	-23.922	-0.136	0.082
-333.245	35.304	0.258	-0.227
-332.231	-56.043	-0.127	-0.057
-331.216	-200.000	0.007	0.096
-330.202	-96.564	0.151	-0.040
-329.187	-156.168	-0.340	0.022
-328.172	-200.000	-0.016	-0.302
-327.158	-43.418	0.162	-0.082
-326.143	-163.742	0.217	0.010
-325.129	-200.000	-0.033	0.325
-324.114	291.602	0.104	0.190
-323.099	24.906	0.089	-0.074
-322.085	118.702	-0.112	0.139
-321.070	212.566	0.178	-0.283
-320.056	-168.955	0.150	0.006
-319.041	-123.183	-0.078	0.013
-318.026	800.000	-0.028	-0.091
-317.012	-137.635	0.308	0.035
-315.997	-123.097	-0.086	-0.014
-314.983	31.448	-0.253	-0.219
-313.968	-81.132	0.161	0.054
-312.953	-102.377	0.240	-0.058
-311.939	-34.239	-0.227	0.125
-310.924	-200.000	-0.070	0.422
-309.910	124.455	-0.078	-0.099
-308.895	-99.804	0.188	0.047
-307.880	800.000	0.139	0.419
-306.866	34.669	-0.042	-0.037
-305.851	77.709	-0.176	-0.188
-304.837	-200.000	0.027	-0.135
-303.822	567.286	-0.110	0.269
-302.807	-200.000	-0.015	-0.234
-301.793	99.865	-0.168	0.195
-300.778	-49.986	0.335	0.159
-299.764	36.342	0.291	0.258
-298.749	-104.021	0.134	0.031
-297.735	120.499	0.155	-0.194
-296.720	-111.329	-0.294	-0.060
-295.705	525.828	0.038	-0.090
-294.691	-72.895	-0.085	-0.031
-293.676	-119.929	0.146	0.025
-292.662	98.208	-0.199	-0.230
-291.647	95.496	0.059	-0.068
-290.632	-1.268	-0.371	0.263
-289.618	-59.309	-0.088	-0.038
-288.603	21.858	0.121	-0.099
-287.589	-200.000	0.042	-0.378
-286.574	2.788	-0.299	0.218
-285.559	119.666	0.249	0.310
-284.545	94.094	0.168	0.192
-283.530	-200.000	0.011	0.061
-282.516	800.000	0.033	0.144
-281.501	800.000	-0.047	-0.163
-280.486	-200.000	0.075	-0.343
-279.472	210.494	-0.136	-0.214
-278.457	231.832	-0.076	-0.126
-277.443	-49.105	-0.083	-0.040
-276.428	-110.625	-0.047	0.010
-275.413	-112.280	0.174	0.035
-274.399	105.922	-0.161	0.191
-273.384	-200.000	0.310	-0.001
-272.370	-29.949	-0.382	0.218
-271.355	800.000	-0.093	0.312
-270.340	136.924	-0.175	-0.229
-269.326	-109.355	-0.158	0.034
-268.311	800.000	0.069	-0.236
-267.297	314.402	0.099	-0.187
-266.282	-59.721	-0.064	0.028
-265.267	800.000	-0.168	-0.607
-264.253	156.120	0.103	0.143
-263.238	311.636	-0.069	0.130
-262.224	-5.713	-0.187	0.128
-261.209	81.955	-0.085	-0.093
-260.195	75.965	-0.045	-0.048
-259.180	-165.281	-0.094	-0.004
-258.165	-70.278	0.083	0.031
-257.151	24.419	0.139	0.115
-256.136	800.000	0.071	0.308
-255.122	709.280	-0.096	-0.253
-254.107	439.772	0.060	0.130
-253.092	-19.762	-0.121	0.075
-252.078	-121.178	0.065	0.011
-251.063	-200.000	0.018	-0.159
-250.049	51.837	-0.290	-0.277
-249.034	-36.327	-0.169	-0.091
-248.019	800.000	-0.045	0.152
-247.005	-200.000	-0.015	0.226
-245.990	-200.000	-0.007	0.111
-244.976	356.557	-0.154	-0.307
-243.961	-200.000	0.027	0.279
-242.946	368.308	-0.047	0.096
-241.932	-140.629	-0.026	-0.003
-240.917	121.763	-0.054	-0.067
-239.903	-200.000	-0.002	-0.134
-238.888	171.487	-0.123	-0.177
-237.873	329.515	-0.170	0.328
-236.859	-39.056	-0.376	0.198
-235.844	-200.000	-0.002	-0.367
-234.830	-83.218	-0.175	-0.056
-233.815	271.359	-0.018	0.031
-232.800	800.000	-0.097	-0.305
-231.786	-200.000	-0.010	-0.164
-230.771	329.269	-0.178	0.342
-229.757	54.270	0.127	0.122
-228.742	431.456	-0.164	0.356
-227.727	-70.657	0.200	0.076
-226.713	16.340	-0.175	0.138
-225.698	155.684	-0.011	-0.016
-224.684	-136.049	-0.134	0.016
-223.669	-37.243	0.277	-0.148
-222.655	-200.000	0.033	-0.146
-221.640	-70.880	-0.245	-0.092
-220.625	84.472	0.159	0.174
-219.611	-107.754	0.152	0.033
-218.596	-0.170	-0.159	0.114
-217.582	-48.762	-0.150	0.072
-216.567	132.542	0.243	0.313
-215.552	800.000	0.026	0.081
-214.538	-200.000	0.024	0.108
-213.523	800.000	0.054	-0.178
-212.509	-96.353	-0.055	-0.015
-211.494	129.722	-0.021	0.027
-210.479	-200.000	0.070	0.320
-209.465	-200.000	-0.007	-0.132
-208.450	-102.108	-0.248	-0.060
-207.436	93.957	-0.215	0.243
-206.421	111.774	0.242	-0.293
-205.406	408.627	0.034	0.072
-204.392	800.000	0.083	0.299
-203.377	-200.000	-0.027	0.261
-202.363	157.319	-0.245	-0.340
-201.348	-95.827	0.117	-0.031
-200.333	-200.000	-0.022	-0.235
-199.319	137.469	-0.122	-0.160
-198.304	-21.423	0.062	0.038
-197.290	661.534	-0.089	0.229
-196.275	-165.471	-0.221	-0.010
-195.260	-32.437	-0.358	0.199
-194.246	-76.271	0.120	0.042
-193.231	-200.000	0.040	0.000
-192.217	-200.000	-0.006	0.070
-191.202	-200.000	0.003	0.062
-190.187	496.052	-0.030	0.070
-189.173	-90.075	-0.094	-0.027
-188.158	414.258	0.134	0.285
-187.144	-89.618	0.251	0.073
-186.129	292.486	-0.053	-0.097
-185.114	-39.926	0.202	0.106
-184.100	-88.936	-0.050	0.015
-183.085	-200.000	-0.105	0.529
-182.071	-139.988	-0.013	-0.001
-181.056	323.312	-0.167	-0.319
-180.042	190.790	0.064	0.097
-179.027	350.254	-0.111	-0.220
-178.012	800.000	-0.026	-0.096
-176.998	198.167	-0.038	0.058
-175.983	-200.000	-0.074	-0.402
-174.969	344.431	-0.062	-0.122
-173.954	160.137	0.230	0.320
-172.939	-200.000	-0.001	-0.235
-171.925	-177.589	-0.201	-0.005
-170.910	66.051	0.233	-0.236
-169.896	-140.711	0.454	0.047
-168.881	37.647	0.180	-0.160
-167.866	-139.783	-0.181	-0.019
-166.852	-200.000	0.022	-0.123
-165.837	-26.453	0.109	-0.064
-164.823	159.865	0.259	0.360
-163.808	-200.000	-0.009	0.174
-162.793	-145.511	0.017	-0.001
-161.779	61.910	0.187	-0.186
-160.764	103.727	-0.254	-0.298
-159.750	-104.779	0.169	-0.039
-158.735	-29.146	-0.088	0.050
-157.720	-200.000	-0.001	0.087
-156.706	800.000	-0.095	0.264
-155.691	-174.559	0.313	0.009
-154.677	210.827	-0.097	0.153
-153.662	335.647	0.110	0.213
-152.647	-53.644	0.277	0.126
-151.633	466.638	0.132	-0.295
-150.618	184.163	0.186	0.274
-149.604	800.000	-0.071	0.237
-148.589	34.694	0.036	-0.031
-147.574	40.589	0.107	-0.096
-146.560	-25.451	-0.271	-0.160
-145.545	518.378	-0.086	0.201
-144.531	204.690	0.202	0.313
-143.516	-45.218	-0.058	0.029
-142.502	-88.791	0.063	-0.019
-141.487	38.851	-0.213	-0.190
-140.472	81.486	0.379	-0.409
-139.458	-200.000	-0.028	0.309
-138.443	-200.000	0.064	0.336
-137.429	256.658	-0.135	-0.232
-136.414	-107.262	0.124	0.027
-135.399	-164.647	0.582	-0.026
-134.385	-140.371	-0.100	-0.010
-133.370	-56.279	0.227	0.101
-132.356	-19.616	-0.232	-0.143
-131.341	-114.812	-0.236	0.045
-130.326	800.000	-0.062	-0.176
-129.312	219.180	-0.130	0.208
-128.297	103.706	-0.209	-0.244
-127.283	-67.358	0.425	-0.167
-126.268	25.584	-0.140	-0.116
-125.253	19.274	-0.303	-0.243
-124.239	79.144	-0.205	0.219
-123.224	137.148	-0.165	0.215
-122.210	-119.041	0.348	0.061
-121.195	721.902	0.074	0.196
-120.180	800.000	0.095	0.279
-119.166	800.000	-0.005	0.013
-118.151	-76.277	-0.385	0.135
-117.137	800.000	-0.052	-0.153
-116.122	191.440	0.082	-0.123
-115.107	-200.000	0.034	0.259
-114.093	128.188	0.087	-0.111
-113.078	-153.923	0.318	-0.022
-112.064	473.904	-0.070	0.158
-111.049	-66.731	-0.161	0.064
-110.034	-77.975	0.161	-0.055
-109.020	-42.752	-0.197	0.100
-108.005	-149.332	-0.324	-0.026
-106.991	-127.484	0.126	0.018
-105.976	58.651	0.063	0.061
-104.962	-159.571	-0.032	-0.002
-103.947	37.967	-0.293	-0.260
-102.932	302.513	-0.030	-0.055
-101.918	215.314	-0.187	-0.296
-100.903	-200.000	0.043	-0.199
-99.889	94.199	-0.186	0.210
-98.874	589.945	0.110	0.271
-97.859	-160.460	0.470	-0.025
-96.845	-151.008	-0.133	0.010
-95.830	-58.548	0.151	0.065
-94.816	-161.641	0.297	0.015
-93.801	-67.912	0.263	-0.102
-92.786	-101.892	0.194	-0.047
-91.772	48.180	-0.259	-0.241
-90.757	677.642	-0.040	-0.104
-89.743	19.859	0.287	0.230
-88.728	-143.050	-0.242	0.023
-87.713	-55.843	-0.284	0.126
-86.699	258.216	0.174	-0.298
-85.684	-98.372	0.236	-0.060
-84.670	-20.358	0.202	0.123
-83.655	-200.000	-0.017	0.260
-82.640	419.173	-0.006	0.012
-81.626	149.120	0.114	0.153
-80.611	800.000	-0.020	-0.075
-79.597	800.000	0.060	0.220
-78.582	800.000	0.066	-0.202
-77.567	-79.676	0.094	-0.032
-76.553	116.307	0.133	0.162
-75.538	-145.614	-0.113	0.010
-74.524	-7.503	-0.190	-0.128
-73.509	-69.718	0.290	0.110
-72.494	-74.602	0.118	-0.042
-71.480	82.943	-0.123	0.133
-70.465	19.448	0.148	-0.118
-69.451	-93.611	-0.108	-0.030
-68.436	-13.567	-0.119	-0.077
-67.422	800.000	-0.125	-0.516
-66.407	564.577	-0.081	0.195
-65.392	-157.178	0.106	0.006
-64.378	-73.219	-0.127	-0.046
-63.363	-137.524	0.303	0.034
-62.349	51.459	0.273	0.258
-61.334	120.559	-0.551	-0.681
-60.319	-200.000	0.041	0.609
-59.305	556.449	-0.241	-0.577
-58.290	313.728	0.432	0.808
-57.276	654.875	0.676	1.725
-56.261	-200.000	88.857	497.310
-55.246	414.711	1433.559	3035.673
-54.232	140.458	2644.938	3471.351
-53.217	107.844	2246.945	2661.065
-52.203	47.381	1680.001	1556.169
-51.188	40.179	1407.407	1258.046
-50.173	36.902	1363.604	1198.610
-49.159	55.661	1407.624	1355.542
-48.144	59.742	1426.409	1399.227
-47.130	40.722	1383.725	1240.070
-46.115	36.967	1366.231	1201.131
-45.100	36.851	1360.870	1195.654
-44.086	36.708	1358.812	1192.917
-43.071	36.688	1356.459	1190.678
-42.057	36.728	1353.885	1188.617
-41.042	36.816	1352.121	1187.562
-40.027	36.681	1350.922	1185.639
-39.013	36.815	1348.733	1184.488
-37.998	36.754	1347.124	1182.657
-36.984	36.751	1345.071	1180.787
-35.969	36.800	1343.157	1179.360
-34.954	36.863	1341.332	1178.095
-33.940	36.895	1339.857	1176.942
-32.925	36.945	1338.306	1175.839
-31.911	37.004	1336.992	1174.993
-30.896	36.974	1335.629	1173.568
-29.881	37.017	1334.100	1172.441
-28.867	36.906	1332.862	1170.632
-27.852	36.993	1331.553	1169.962
-26.838	37.006	1329.239	1167.960
-25.823	37.023	1327.871	1166.817
-24.809	36.837	1326.828	1164.737
-23.794	36.976	1325.215	1164.109
-22.779	36.971	1323.506	1162.532
-21.765	36.995	1322.259	1161.534
-20.750	36.839	1321.364	1159.768
-19.736	36.754	1319.807	1157.846
-18.721	36.828	1318.368	1156.980
-17.706	36.760	1317.435	1155.706
-16.692	36.824	1316.015	1154.798
-15.677	36.871	1314.832	1153.993
-14.663	36.818	1313.574	1152.529
-13.648	36.832	1312.487	1151.611
-12.633	36.751	1311.161	1149.925
-11.619	36.777	1311.001	1149.888
-10.604	36.715	1310.277	1148.845
-9.590	36.782	1309.206	1148.255
-8.575	36.701	1308.039	1146.706
-7.560	36.697	1307.388	1146.066
-6.546	36.788	1306.224	1145.541
-5.531	36.660	1305.368	1143.983
-4.517	36.678	1303.998	1142.847
-3.502	36.781	1303.385	1142.870
-2.487	36.629	1302.637	1141.274
-1.473	36.838	1298.854	1139.142
-0.458	36.002	1283.617	1120.873
0.556	30.901	1265.511	1081.011
1.571	26.500	1268.842	1058.093
2.586	24.760	1282.601	1059.179
3.600	23.551	1271.042	1042.445
4.615	17.249	1193.576	943.930
5.629	6.291	1109.807	820.730
6.644	0.915	1086.231	775.723
7.659	0.309	1084.192	771.103
8.673	0.269	1082.893	769.904
9.688	0.090	1081.538	767.959
10.702	0.474	1080.016	768.765
11.717	6.355	1088.453	804.838
12.731	15.669	1100.745	861.810
13.746	18.358	1103.373	877.588
14.761	17.236	1100.874	869.781
15.775	16.138	1098.775	862.438
16.790	15.126	1096.659	855.533
17.804	14.447	1095.171	850.829
18.819	14.209	1093.678	848.382
19.834	13.792	1092.607	845.351
20.848	13.578	1091.616	843.424
21.863	13.312	1091.010	841.525
22.877	13.130	1090.095	839.821
23.892	13.033	1089.635	838.898
24.907	13.106	1088.895	838.626
25.921	13.168	1088.488	838.550
26.936	13.226	1087.571	838.063
27.950	13.338	1086.135	837.450
28.965	13.319	1085.002	836.410
29.980	13.373	1083.584	835.515
30.994	13.374	1082.716	834.774
32.009	13.345	1082.124	834.100
33.023	13.395	1080.741	833.209
34.038	13.427	1079.857	832.617
35.053	13.307	1078.848	831.161
36.067	13.245	1078.472	830.486
37.082	13.297	1077.391	829.844
38.096	13.324	1076.697	829.371
39.111	13.267	1075.633	828.190
40.126	13.200	1074.407	826.840
41.140	13.304	1073.063	826.254
42.155	13.117	1072.117	824.514
43.169	13.093	1071.119	823.555
44.184	13.098	1070.069	822.701
45.199	13.241	1068.736	822.314
46.213	13.146	1067.896	821.125
47.228	13.120	1066.808	820.087
48.242	13.182	1065.665	819.442
49.257	13.226	1064.741	818.875
50.271	13.215	1064.049	818.215
51.286	13.222	1063.246	817.562
52.301	13.343	1061.639	816.853
53.315	13.274	1060.503	815.563
54.330	13.164	1059.645	814.289
55.344	13.192	1059.071	813.914
56.359	13.214	1058.149	813.243
57.374	13.119	1057.040	811.853
58.388	13.097	1056.509	811.264
59.403	13.120	1055.351	810.415
60.417	13.141	1054.825	810.041
61.432	13.026	1053.935	808.724
62.447	13.203	1052.953	808.765
63.461	12.991	1052.431	807.259
64.476	13.044	1051.386	806.644
65.490	13.038	1050.377	805.770
66.505	13.081	1049.456	805.198
67.520	13.151	1048.961	805.089
68.534	13.124	1048.479	804.515
69.549	13.162	1047.345	803.762
70.563	13.042	1046.979	802.823
71.578	13.095	1046.074	802.318
72.593	13.072	1045.177	801.449
73.607	13.171	1044.387	801.249
74.622	13.018	1044.135	800.245
75.636	13.002	1043.346	799.491
76.651	12.979	1042.831	798.914
77.666	13.111	1041.765	798.666
78.680	13.073	1041.055	797.866
79.695	13.069	1040.678	797.487
80.709	13.007	1039.873	796.501
81.724	13.163	1039.236	796.697
82.739	13.239	1038.447	796.385
83.753	13.197	1037.787	795.608
84.768	13.201	1037.091	795.024
85.782	13.337	1035.721	794.554
86.797	13.418	1034.639	794.045
87.812	13.251	1034.121	792.777
88.826	13.210	1032.992	791.644
89.841	13.275	1031.783	790.956
90.855	13.233	1031.052	790.129
91.870	13.310	1030.125	789.714
92.884	13.310	1029.418	789.102
93.899	13.460	1028.412	788.974
94.914	13.495	1027.061	788.037
95.928	13.460	1026.708	787.528
96.943	13.383	1025.730	786.343
97.957	13.367	1024.941	785.592
98.972	13.265	1024.210	784.480
99.987	13.301	1023.034	783.680
101.001	13.360	1022.102	783.178
102.016	13.333	1021.517	782.530
103.030	13.393	1020.432	781.913
104.045	13.438	1019.754	781.538
105.060	13.363	1018.925	780.480
106.074	13.296	1018.040	779.416
107.089	13.143	1017.144	777.943
108.103	13.184	1015.848	777.073
109.118	13.177	1015.268	776.530
110.133	13.224	1014.310	775.949
111.147	13.272	1013.159	775.226
112.162	13.253	1012.124	774.276
113.176	13.190	1011.863	773.711
114.191	13.152	1011.082	772.867
115.206	13.214	1010.202	772.417
116.220	13.288	1009.450	772.119
117.235	13.245	1008.432	771.071
118.249	13.214	1007.883	770.437
119.264	13.084	1007.032	769.114
120.279	13.234	1006.051	768.995
121.293	13.179	1005.459	768.220
122.308	13.276	1004.489	767.859
123.322	13.215	1003.244	766.556
124.337	13.260	1002.128	765.844
125.352	13.185	1001.261	764.766
126.366	13.284	999.893	764.116
127.381	13.162	999.085	762.863
128.395	13.190	997.805	761.947
129.410	13.251	997.204	761.704
130.424	13.319	996.344	761.292
131.439	13.232	995.922	760.503
132.454	13.312	994.730	759.892
133.468	13.272	993.543	758.737
134.483	13.318	993.006	758.471
135.497	13.196	992.481	757.440
136.512	13.306	991.205	756.903
137.527	13.314	989.892	755.870
138.541	13.333	989.271	755.417
139.556	13.416	988.674	755.275
140.570	13.376	988.454	754.855
141.585	13.497	987.108	754.311
142.600	13.466	986.397	753.563
143.614	13.633	985.018	753.202
144.629	13.607	984.516	752.630
145.643	13.574	983.536	751.667
146.658	13.372	982.642	749.999
147.673	13.518	981.472	749.704
148.687	13.288	981.343	748.494
149.702	13.321	980.010	747.561
150.716	13.303	979.376	746.930
151.731	13.431	978.629	746.872
152.746	13.379	978.077	746.153
153.760	13.429	977.399	745.792
154.775	13.598	976.586	745.867
155.789	13.535	975.903	744.995
156.804	13.490	975.299	744.268
157.819	13.604	974.236	743.901
158.833	13.570	974.030	743.526
159.848	13.661	973.010	743.090
160.862	13.438	972.142	741.365
161.877	13.632	970.785	741.130
162.892	13.568	969.990	740.170
163.906	13.438	969.492	739.145
164.921	13.453	968.325	738.257
165.935	13.468	967.379	737.540
166.950	13.530	966.280	736.910
167.964	13.486	965.618	736.147
168.979	13.493	964.447	735.220
169.994	13.701	963.402	735.279
171.008	13.565	963.218	734.470
172.023	13.669	962.402	734.242
173.037	13.742	961.615	733.904
174.052	13.594	961.195	732.861
175.067	13.570	960.353	732.048
176.081	13.486	959.840	731.221
177.096	13.715	959.371	731.810
178.110	13.489	959.039	730.495
179.125	13.637	958.142	730.401
180.140	13.631	957.334	729.691
181.154	13.668	956.841	729.414
182.169	13.804	956.039	729.338
183.183	13.702	955.784	728.629
184.198	13.775	955.149	728.403
185.213	13.758	954.293	727.611
186.227	13.759	953.860	727.219
187.242	13.816	952.752	726.559
188.256	13.922	952.461	726.737
189.271	13.786	951.404	725.272
190.286	13.503	951.389	723.961
191.300	13.687	950.154	723.761
192.315	13.729	949.014	723.009
193.329	13.441	949.525	722.081
194.344	13.655	948.282	722.004
195.359	13.711	947.514	721.598
196.373	13.864	946.901	721.734
197.388	13.976	946.292	721.693
198.402	13.986	945.897	721.367
199.417	14.120	945.502	721.584
200.432	13.925	945.065	720.341
201.446	14.134	944.317	720.615
202.461	13.990	943.659	719.426
203.475	14.038	942.958	719.034
204.490	13.922	942.910	718.432
205.504	13.970	941.984	717.869
206.519	13.897	940.898	716.663
207.534	14.093	939.870	716.663
208.548	14.036	939.172	715.822
209.563	13.871	939.010	714.922
210.577	13.988	938.376	714.881
211.592	14.164	937.425	714.849
212.607	14.188	936.449	714.147
213.621	14.211	935.698	713.608
214.636	14.233	935.222	713.276
215.650	14.107	934.290	711.964
216.665	14.196	933.818	711.923
217.680	14.324	932.909	711.712
218.694	14.148	932.320	710.450
219.709	14.178	931.584	709.952
220.723	14.317	930.840	709.916
221.738	14.280	929.902	708.978
222.753	14.303	929.672	708.840
223.767	14.220	929.217	708.078
224.782	14.394	928.397	708.130
225.796	14.481	927.353	707.638
226.811	14.459	926.788	707.052
227.826	14.304	926.369	706.014
228.840	14.302	926.037	705.689
229.855	14.347	924.621	704.738
230.869	14.518	923.789	704.764
231.884	14.379	923.249	703.705
232.899	14.256	922.618	702.640
233.913	14.352	922.130	702.613
234.928	14.490	920.792	702.111
235.942	14.362	920.503	701.290
236.957	14.470	920.279	701.513
237.972	14.493	919.444	700.909
238.986	14.356	919.292	700.155
240.001	14.408	918.369	699.609
241.015	14.547	917.485	699.455
242.030	14.469	916.964	698.671
243.045	14.478	916.346	698.174
244.059	14.489	915.772	697.724
245.074	14.448	915.173	697.032
246.088	14.543	914.497	696.855
247.103	14.524	914.054	696.376
248.117	14.565	913.473	696.040
249.132	14.641	912.995	695.934
250.147	14.757	911.926	695.540
251.161	14.755	911.356	695.034
252.176	14.700	910.706	694.250
253.190	14.803	910.190	694.223
254.205	14.973	908.941	693.912
255.220	14.937	908.410	693.298
256.234	14.906	907.607	692.496
257.249	14.827	906.826	691.512
258.263	14.934	906.341	691.520
259.278	14.791	905.979	690.595
260.293	14.884	905.409	690.484
261.307	14.911	904.809	690.076
262.322	14.996	903.935	689.699
263.336	15.059	903.118	689.274
264.351	15.024	902.598	688.673
265.366	15.180	901.903	688.720
266.380	15.046	901.477	687.784
267.395	15.161	900.477	687.433
268.409	14.982	899.784	686.108
269.424	15.070	898.798	685.657
270.439	15.107	898.503	685.521
271.453	15.105	897.497	684.686
272.468	15.073	897.246	684.305
273.482	15.077	896.793	683.914
274.497	15.123	895.782	683.267
275.512	15.143	895.303	682.925
276.526	15.151	895.193	682.815
277.541	15.169	894.493	682.292
278.555	15.079	894.121	681.581
279.570	15.228	892.960	681.241
280.585	15.368	892.110	681.103
281.599	15.291	891.351	680.152
282.614	15.249	891.079	679.711
283.628	15.300	890.319	679.279
284.643	15.313	889.614	678.733
285.657	15.190	889.144	677.816
286.672	15.211	888.493	677.344
287.687	15.397	887.695	677.427
288.701	15.351	887.235	676.834
289.716	15.388	886.670	676.491
290.730	15.344	885.981	675.728
291.745	15.395	885.498	675.505
292.760	15.400	884.840	674.963
293.774	15.436	884.101	674.486
294.789	15.458	883.288	673.891
295.803	15.484	882.572	673.391
296.818	15.423	882.202	672.803
297.833	15.441	881.353	672.170
298.847	15.580	880.475	671.996
299.862	15.575	880.005	671.558
300.876	15.497	879.580	670.863
301.891	15.549	879.036	670.597
302.906	15.533	878.906	670.373
303.920	15.699	877.947	670.244
304.935	15.688	877.396	669.719
305.949	15.577	876.736	668.716
306.964	15.656	876.125	668.504
307.979	15.599	875.846	668.005
308.993	15.652	875.040	667.544
310.008	15.768	874.221	667.319
311.022	15.803	873.460	666.820
312.037	15.686	873.495	666.323
313.052	15.703	872.190	665.336
314.066	15.714	871.807	665.029
315.081	15.700	871.338	664.557
316.095	15.658	870.801	663.920
317.110	15.695	869.893	663.317
318.125	15.744	869.710	663.312
319.139	15.843	869.212	663.264
320.154	15.804	868.726	662.682
321.168	15.814	868.208	662.265
322.183	15.801	867.649	661.731
323.197	15.845	867.029	661.371
324.212	15.875	866.409	660.958
325.227	15.893	865.939	660.610
326.241	15.817	865.420	659.859
327.256	15.861	865.079	659.713
328.270	15.929	864.322	659.343
329.285	15.810	863.527	658.214
330.300	15.817	863.531	658.185
331.314	15.762	862.627	657.223
332.329	15.918	862.212	657.458
333.343	15.937	861.411	656.863
334.358	15.868	861.431	656.552
335.373	15.892	860.850	656.143
336.387	15.940	860.537	656.035
337.402	15.964	860.428	655.985
338.416	16.025	859.808	655.691
339.431	16.189	859.183	655.796
340.446	16.162	858.335	654.986
341.460	16.256	858.126	655.134
342.475	16.318	857.667	654.966
343.489	16.207	857.398	654.271
344.504	16.230	857.299	654.227
345.519	16.266	856.559	653.742
346.533	16.302	856.014	653.410
347.548	16.311	855.432	652.942
348.562	16.118	854.829	651.680
349.577	16.320	854.030	651.791
350.592	16.267	853.434	651.074
351.606	16.094	853.030	650.040
352.621	16.265	852.254	650.049
353.635	16.301	851.613	649.642
354.650	16.217	851.093	648.867
355.665	16.290	850.673	648.771
356.679	16.184	849.996	647.788
357.694	16.376	849.115	647.796
358.708	16.326	848.384	646.988
359.723	16.393	848.047	646.931
360.738	16.426	847.343	646.465
361.752	16.432	846.534	645.811
362.767	16.527	845.876	645.615
363.781	16.445	845.832	645.211
364.796	16.480	845.367	644.934
365.810	16.510	844.759	644.527
366.825	16.649	844.124	644.514
367.840	16.515	843.999	643.855
368.854	16.537	843.281	643.332
369.869	16.473	842.953	642.781
370.883	16.595	842.431	642.791
371.898	16.658	842.132	642.746
372.913	16.736	841.780	642.716
373.927	16.593	841.061	641.565
374.942	16.757	840.342	641.581
375.956	16.821	839.858	641.399
376.971	16.776	839.703	641.055
377.986	16.761	839.514	640.795
379.000	16.896	838.562	640.521
380.015	16.890	838.262	640.213
381.029	16.958	837.542	639.862
382.044	16.928	837.095	639.353
383.059	16.891	836.647	638.815
384.073	16.867	835.966	638.146
385.088	16.995	835.276	638.046
386.102	16.859	834.790	637.105
387.117	16.671	834.257	635.939
388.132	16.639	833.721	635.351
389.146	16.919	832.783	635.631
390.161	16.946	832.453	635.425
391.175	16.872	831.946	634.705
392.190	17.036	831.486	634.909
393.205	16.955	830.901	634.104
394.219	16.791	831.051	633.549
395.234	16.977	830.432	633.716
396.248	16.747	830.234	632.651
397.263	16.892	829.634	632.679
398.278	16.769	829.390	631.976
399.292	17.023	828.978	632.556
400.307	17.049	827.868	631.750
401.321	16.972	827.487	631.116
402.336	16.928	827.343	630.787
403.350	16.988	826.505	630.314
404.365	17.112	826.222	630.505
405.380	17.206	825.758	630.441
406.394	17.245	824.823	629.818
407.409	17.229	824.602	629.531
408.423	17.157	824.664	629.256
409.438	17.296	824.280	629.423
410.453	17.343	823.792	629.167
411.467	17.372	823.243	628.802
412.482	17.266	822.980	628.153
413.496	17.211	822.782	627.745
414.511	17.288	822.462	627.727
415.526	17.395	821.574	627.389
416.540	17.370	821.277	627.016
417.555	17.441	820.663	626.754
418.569	17.429	820.068	626.197
419.584	17.343	819.732	625.571
420.599	17.391	819.214	625.296
421.613	99.528	1279.963	1423.388
422.628	85.793	1347.103	1423.513
