DTS Sentinel unit serial number:	SN413079Multiplexer serial number:	ORYXHardware model number:	OX4-SRSoftware version number:	ORYX F/W v4.00 Oryx Data Collector v3.7.2.0data status	okinstallation	princeton_trtdifferential loss correction	single-endedforward channel	channel 1reverse channel	N/Adate	2019/09/18time	14:42:35forward acquisition time	60.00reverse acquisition time	0.00gamma	496.2192k internal	0.2308k external	0.2308temperature offset calibration	0.9988default loss term (dB/km)	0.3790temperature slope calibration	1.0000multiplexer offset coefficient	1.0000multiplexer slope coefficient	1.0000fibre end	0.00T internal ref (°C)	34.80T ext. ref 1 (°C)	0.71T ext. ref 2 (°C)	32.85length (m)	temperature (°C)	Stokes	anti-Stokes-747.200	27.403	0.154	-0.131
-746.185	-200.000	0.025	0.167
-745.171	-73.660	0.197	-0.073
-744.156	-200.000	0.024	0.275
-743.142	-68.483	0.232	0.091
-742.127	-59.204	-0.267	-0.117
-741.112	-120.405	-0.300	0.052
-740.098	40.839	-0.333	0.306
-739.083	-200.000	-0.031	-0.176
-738.069	-83.111	0.137	0.045
-737.054	-127.420	-0.166	-0.025
-736.039	-200.000	0.009	0.262
-735.025	-71.842	0.251	0.095
-734.010	486.954	0.056	-0.129
-732.996	-167.077	-0.314	0.013
-731.981	34.033	0.112	-0.099
-730.966	-111.378	-0.117	0.024
-729.952	-122.021	-0.303	0.051
-728.937	800.000	-0.059	-0.167
-727.923	-200.000	-0.011	0.092
-726.908	800.000	0.069	-0.258
-725.894	74.857	-0.157	0.168
-724.879	-200.000	0.021	0.143
-723.864	-166.211	-0.479	-0.021
-722.850	42.575	0.017	-0.015
-721.835	-60.245	-0.046	0.020
-720.821	154.997	0.026	0.037
-719.806	96.976	-0.133	0.155
-718.791	169.603	-0.136	0.198
-717.777	82.722	0.261	0.288
-716.762	-1.896	-0.100	-0.071
-715.748	344.640	0.074	-0.148
-714.733	-200.000	-0.011	-0.128
-713.718	-101.693	0.159	0.039
-712.704	26.724	-0.237	-0.201
-711.689	-194.760	-0.171	0.001
-710.675	97.870	-0.288	-0.336
-709.660	-200.000	-0.005	-0.180
-708.645	308.299	-0.125	0.237
-707.631	87.451	-0.077	-0.087
-706.616	145.641	0.198	-0.270
-705.602	-200.000	-0.000	0.117
-704.587	103.350	0.088	0.105
-703.572	20.913	0.252	0.207
-702.558	100.850	0.149	0.176
-701.543	38.662	-0.098	-0.089
-700.529	163.740	0.056	0.079
-699.514	328.184	-0.210	-0.408
-698.499	-200.000	0.003	0.266
-697.485	-116.596	0.119	0.022
-696.470	166.327	-0.133	0.192
-695.456	-144.196	0.092	-0.009
-694.441	339.732	0.169	-0.334
-693.426	170.023	0.166	0.241
-692.412	528.309	-0.094	-0.226
-691.397	-35.713	-0.070	-0.039
-690.383	-129.515	-0.368	-0.052
-689.368	800.000	0.042	-0.120
-688.354	-35.627	-0.140	-0.077
-687.339	260.557	0.035	0.062
-686.324	-106.550	-0.124	-0.028
-685.310	-151.814	-0.235	-0.017
-684.295	800.000	-0.097	0.363
-683.281	-200.000	-0.029	0.340
-682.266	-200.000	0.008	0.130
-681.251	-69.186	-0.307	-0.120
-680.237	77.833	0.060	-0.065
-679.222	-200.000	-0.017	0.267
-678.208	-200.000	-0.006	0.095
-677.193	-200.000	0.038	-0.241
-676.178	210.702	-0.066	-0.105
-675.164	-105.723	-0.120	0.027
-674.149	-200.000	-0.058	0.374
-673.135	-100.014	-0.155	-0.039
-672.120	800.000	0.030	-0.124
-671.105	-113.504	-0.350	-0.070
-670.091	-11.461	0.154	0.103
-669.076	-74.601	-0.184	-0.067
-668.062	-12.404	-0.199	-0.132
-667.047	-186.638	0.133	-0.002
-666.032	-200.000	0.018	0.294
-665.018	-106.967	-0.113	0.025
-664.003	37.308	0.110	0.099
-662.989	131.765	-0.082	-0.107
-661.974	-200.000	-0.015	-0.444
-660.959	447.469	-0.078	0.173
-659.945	2.731	-0.047	-0.035
-658.930	800.000	0.057	-0.219
-657.916	-51.872	-0.252	0.119
-656.901	396.792	-0.030	0.063
-655.886	113.266	0.390	-0.479
-654.872	20.723	-0.280	-0.230
-653.857	-86.955	0.252	-0.078
-652.843	-200.000	0.004	-0.211
-651.828	139.107	0.200	-0.266
-650.814	800.000	0.094	0.378
-649.799	800.000	-0.038	0.148
-648.784	45.857	-0.182	-0.170
-647.770	800.000	0.026	-0.075
-646.755	-200.000	0.026	0.126
-645.741	103.212	0.126	-0.150
-644.726	-200.000	-0.001	0.074
-643.711	-50.863	-0.146	-0.069
-642.697	44.573	-0.057	-0.053
-641.682	-31.560	-0.185	-0.105
-640.668	73.917	-0.138	-0.146
-639.653	82.108	-0.217	0.238
-638.638	206.008	0.075	-0.118
-637.624	-66.060	0.197	-0.080
-636.609	800.000	0.040	-0.148
-635.595	35.059	-0.281	0.249
-634.580	122.083	0.231	0.292
-633.565	370.398	0.131	0.270
-632.551	26.890	0.156	-0.132
-631.536	-67.801	0.207	-0.082
-630.522	-101.927	0.366	-0.089
-629.507	606.873	0.029	-0.074
-628.492	800.000	0.050	0.211
-627.478	-200.000	-0.025	0.170
-626.463	189.766	0.178	0.270
-625.449	-39.659	0.443	-0.235
-624.434	69.276	-0.380	0.395
-623.419	-26.336	0.112	-0.066
-622.405	-200.000	0.003	0.223
-621.390	-200.000	0.021	0.157
-620.376	-77.303	-0.204	-0.072
-619.361	174.410	0.217	-0.318
-618.346	-200.000	0.005	0.297
-617.332	-133.678	-0.109	-0.014
-616.317	-10.415	-0.216	0.145
-615.303	800.000	0.095	0.337
-614.288	-200.000	-0.058	-0.280
-613.273	-123.830	0.370	-0.059
-612.259	127.094	-0.078	0.100
-611.244	42.803	0.207	-0.191
-610.230	-200.000	-0.033	-0.265
-609.215	-200.000	0.002	0.323
-608.201	316.031	-0.116	0.222
-607.186	166.208	0.153	-0.219
-606.171	69.020	0.096	-0.099
-605.157	-200.000	-0.029	0.222
-604.142	800.000	0.017	0.048
-603.128	201.561	-0.085	-0.132
-602.113	32.638	-0.199	-0.174
-601.098	-102.864	-0.246	0.059
-600.084	-200.000	0.015	0.226
-599.069	-141.117	-0.045	0.005
-598.055	18.354	0.099	-0.080
-597.040	-140.148	-0.238	0.025
-596.025	766.965	-0.087	-0.239
-595.011	-200.000	-0.046	-0.299
-593.996	-13.898	-0.194	-0.127
-592.982	-36.135	-0.057	0.031
-591.967	67.936	-0.130	-0.134
-590.952	-200.000	0.043	-0.238
-589.938	-10.718	0.208	-0.139
-588.923	-200.000	0.004	-0.069
-587.909	-101.171	-0.303	0.075
-586.894	-200.000	-0.003	0.101
-585.879	248.562	-0.194	0.331
-584.865	-89.216	-0.385	-0.115
-583.850	-87.242	-0.321	0.098
-582.836	173.459	-0.028	0.041
-581.821	101.548	0.160	-0.188
-580.806	-172.429	-0.437	0.014
-579.792	441.548	-0.154	-0.340
-578.777	41.446	-0.067	-0.061
-577.763	-200.000	-0.023	-0.157
-576.748	21.555	0.091	-0.075
-575.733	376.233	-0.102	-0.211
-574.719	-131.827	0.047	-0.006
-573.704	-56.431	-0.178	0.080
-572.690	800.000	-0.040	0.156
-571.675	-37.485	0.172	-0.093
-570.661	122.808	-0.013	-0.016
-569.646	-51.727	0.232	0.109
-568.631	-200.000	-0.009	-0.151
-567.617	180.931	0.139	-0.206
-566.602	71.010	-0.069	0.072
-565.588	-73.146	0.044	0.016
-564.573	800.000	0.032	0.137
-563.558	-73.691	0.237	-0.087
-562.544	100.471	-0.118	-0.138
-561.529	-23.006	0.130	0.079
-560.515	-91.703	0.179	-0.051
-559.500	-200.000	0.013	0.368
-558.485	-131.124	0.380	0.051
-557.471	-128.305	-0.171	0.025
-556.456	-200.000	0.027	-0.224
-555.442	283.261	0.094	0.170
-554.427	399.649	0.095	0.201
-553.412	-200.000	0.033	0.146
-552.398	-93.560	-0.481	-0.134
-551.383	-44.098	0.224	-0.113
-550.369	-198.601	0.222	0.001
-549.354	-134.824	0.160	-0.020
-548.339	-200.000	0.020	-0.237
-547.325	16.630	-0.275	-0.220
-546.310	368.709	-0.060	0.123
-545.296	-200.000	-0.020	0.323
-544.281	14.290	-0.237	-0.186
-543.266	800.000	-0.061	0.255
-542.252	-92.784	0.044	0.012
-541.237	488.464	-0.121	-0.279
-540.223	45.737	0.104	-0.097
-539.208	29.338	-0.060	0.052
-538.193	98.892	-0.225	0.262
-537.179	-119.029	0.205	-0.036
-536.164	629.151	0.017	-0.043
-535.150	56.124	-0.194	-0.190
-534.135	716.031	-0.034	-0.090
-533.121	246.731	-0.116	0.198
-532.106	114.635	0.188	0.232
-531.091	-133.925	-0.316	0.039
-530.077	-200.000	0.022	-0.240
-529.062	-55.432	0.199	0.090
-528.048	-108.798	-0.110	0.024
-527.033	134.540	0.211	-0.276
-526.018	-101.802	0.112	-0.027
-525.004	-56.636	-0.274	0.122
-523.989	-87.196	0.100	0.030
-522.975	800.000	-0.082	-0.311
-521.960	-108.745	0.105	-0.023
-520.945	800.000	-0.027	0.096
-519.931	800.000	0.067	-0.191
-518.916	800.000	-0.060	-0.252
-517.902	-200.000	-0.009	-0.055
-516.887	-43.164	0.311	0.159
-515.872	-39.245	0.293	0.155
-514.858	-46.504	0.217	0.107
-513.843	43.734	-0.299	-0.275
-512.829	-200.000	0.045	-0.206
-511.814	-55.274	0.362	0.164
-510.799	44.327	0.138	-0.127
-509.785	800.000	0.034	-0.109
-508.770	-64.132	0.260	-0.107
-507.756	-200.000	0.022	-0.140
-506.741	-116.891	-0.249	-0.046
-505.726	31.771	0.200	0.174
-504.712	56.269	0.155	0.152
-503.697	446.312	-0.132	-0.292
-502.683	12.586	0.402	-0.312
-501.668	-200.000	0.022	0.125
-500.653	-39.962	-0.064	0.034
-499.639	-88.022	-0.233	-0.070
-498.624	93.991	0.037	-0.042
-497.610	-63.453	0.272	-0.112
-496.595	429.094	-0.088	-0.193
-495.581	-23.889	0.179	-0.108
-494.566	-69.304	0.172	-0.067
-493.551	800.000	0.078	-0.316
-492.537	-85.626	-0.077	0.024
-491.522	-33.258	0.282	0.157
-490.508	-123.796	0.139	0.022
-489.493	235.516	0.130	-0.215
-488.478	115.594	-0.212	0.261
-487.464	-145.625	-0.182	0.016
-486.449	78.452	-0.074	-0.080
-485.435	-105.995	0.182	0.041
-484.420	101.249	-0.156	0.183
-483.405	97.207	-0.022	0.025
-482.391	-181.053	-0.126	0.003
-481.376	103.156	-0.059	-0.070
-480.362	-196.854	-0.520	0.003
-479.347	39.902	0.105	0.095
-478.332	165.582	-0.015	0.021
-477.318	138.836	-0.081	-0.107
-476.303	-123.824	-0.087	0.014
-475.289	122.268	0.315	-0.395
-474.274	-200.000	-0.038	-0.267
-473.259	9.759	0.233	-0.178
-472.245	179.203	-0.166	0.245
-471.230	-176.685	-0.199	-0.005
-470.216	-5.787	0.261	0.180
-469.201	-200.000	-0.001	0.134
-468.186	102.758	-0.187	0.221
-467.172	496.352	0.035	0.082
-466.157	-60.338	-0.115	-0.049
-465.143	-153.504	-0.255	0.018
-464.128	-105.219	0.295	0.068
-463.113	-152.559	-0.242	-0.017
-462.099	190.223	0.147	-0.222
-461.084	-65.879	0.111	0.045
-460.070	37.542	0.207	0.184
-459.055	-8.119	-0.066	-0.045
-458.040	-33.894	-0.216	-0.120
-457.026	-200.000	-0.019	-0.174
-456.011	-68.402	0.213	0.083
-454.997	-10.274	-0.227	0.152
-453.982	272.915	0.059	0.104
-452.968	-30.443	-0.333	-0.190
-451.953	44.974	0.125	-0.116
-450.938	285.969	0.009	-0.016
-449.924	-72.841	-0.129	-0.048
-448.909	800.000	-0.015	0.044
-447.895	155.430	0.086	0.119
-446.880	-200.000	-0.007	-0.178
-445.865	-200.000	-0.056	0.255
-444.851	800.000	-0.118	0.475
-443.836	4.832	-0.136	0.100
-442.822	231.734	0.029	-0.048
-441.807	-76.524	0.232	-0.082
-440.792	-200.000	0.067	0.314
-439.778	1.905	0.142	-0.103
-438.763	230.272	-0.156	-0.257
-437.749	-28.761	-0.089	0.051
-436.734	23.720	-0.047	-0.039
-435.719	-151.780	0.173	0.013
-434.705	-58.220	-0.176	-0.077
-433.690	14.506	-0.275	-0.215
-432.676	38.696	-0.104	-0.093
-431.661	-200.000	-0.041	-0.232
-430.646	548.157	-0.011	0.027
-429.632	-5.630	0.166	-0.114
-428.617	-135.299	-0.442	0.053
-427.603	177.282	-0.118	-0.173
-426.588	162.929	-0.121	0.171
-425.573	-174.524	0.128	-0.004
-424.559	-200.000	0.088	0.000
-423.544	-6.466	-0.092	0.063
-422.530	748.959	-0.044	-0.119
-421.515	-200.000	0.046	-0.329
-420.500	114.015	0.217	0.264
-419.486	800.000	0.046	-0.136
-418.471	-142.496	0.040	0.004
-417.457	281.306	0.051	-0.091
-416.442	134.505	-0.120	-0.156
-415.428	-59.001	0.590	-0.256
-414.413	-121.160	-0.181	-0.030
-413.398	-53.720	-0.179	0.082
-412.384	-74.483	-0.230	-0.083
-411.369	-22.847	0.041	0.025
-410.355	-200.000	-0.003	0.141
-409.340	100.831	-0.054	0.063
-408.325	-200.000	0.046	-0.245
-407.311	-200.000	0.002	0.216
-406.296	-40.492	0.018	-0.009
-405.282	-115.210	0.373	-0.071
-404.267	685.714	-0.175	-0.458
-403.252	-46.915	-0.176	0.086
-402.238	302.656	0.029	0.055
-401.223	31.837	-0.183	0.158
-400.209	800.000	-0.084	-0.254
-399.194	-108.669	-0.297	0.064
-398.179	-200.000	0.022	-0.164
-397.165	220.755	-0.073	-0.118
-396.150	779.054	-0.036	0.099
-395.136	78.964	0.217	0.233
-394.121	53.034	-0.146	0.140
-393.106	-71.542	-0.053	-0.020
-392.092	75.994	0.043	-0.045
-391.077	-200.000	-0.071	0.508
-390.063	-200.000	0.016	0.083
-389.048	49.664	-0.166	0.157
-388.033	-137.604	-0.093	-0.010
-387.019	0.697	0.279	0.200
-386.004	110.149	-0.099	0.120
-384.990	704.098	0.034	0.090
-383.975	-99.425	0.242	0.061
-382.960	-55.914	-0.187	0.084
-381.946	-71.435	0.262	0.098
-380.931	-45.000	-0.334	-0.167
-379.917	-22.773	0.100	-0.061
-378.902	183.667	0.433	0.641
-377.888	-25.594	0.164	0.097
-376.873	-200.000	0.052	-0.281
-375.858	-200.000	0.030	0.207
-374.844	14.350	0.286	0.224
-373.829	-48.768	-0.300	-0.144
-372.815	124.242	0.087	0.109
-371.800	234.157	0.144	0.237
-370.785	-21.262	0.407	0.249
-369.771	271.735	0.050	0.089
-368.756	-34.616	-0.203	-0.112
-367.742	-200.000	-0.071	0.353
-366.727	-200.000	-0.012	0.102
-365.712	-119.811	-0.472	-0.082
-364.698	87.118	-0.135	-0.150
-363.683	-111.102	-0.247	0.051
-362.669	7.897	-0.295	0.221
-361.654	328.906	0.097	0.187
-360.639	-124.573	-0.501	0.078
-359.625	800.000	-0.105	0.369
-358.610	-87.837	0.324	0.098
-357.596	-82.752	0.201	0.065
-356.581	-159.789	-0.113	-0.006
-355.566	-98.718	-0.325	-0.083
-354.552	119.050	0.312	-0.387
-353.537	545.401	-0.067	0.159
-352.523	-200.000	-0.030	0.138
-351.508	180.620	0.066	0.096
-350.493	4.345	-0.238	-0.175
-349.479	800.000	0.064	-0.208
-348.464	3.453	0.293	-0.214
-347.450	-17.081	0.212	0.134
-346.435	408.931	-0.073	-0.154
-345.420	488.675	0.100	0.229
-344.406	-20.533	0.209	-0.128
-343.391	584.117	-0.015	0.036
-342.377	-92.781	-0.184	0.052
-341.362	-158.349	0.213	-0.012
-340.348	27.872	0.232	0.195
-339.333	-200.000	-0.004	0.053
-338.318	-37.555	0.244	0.130
-337.304	249.630	-0.142	0.241
-336.289	-107.693	-0.604	-0.132
-335.275	-56.700	-0.302	0.134
-334.260	-151.370	0.231	-0.017
-333.245	-139.331	0.217	-0.023
-332.231	-4.242	0.441	0.305
-331.216	-200.000	-0.019	0.347
-330.202	7.165	0.108	0.081
-329.187	800.000	0.023	0.065
-328.172	-69.993	-0.162	-0.062
-327.158	-200.000	-0.027	0.157
-326.143	800.000	0.075	-0.218
-325.129	6.136	0.302	0.224
-324.114	-200.000	0.015	-0.081
-323.099	800.000	-0.039	-0.115
-322.085	-75.690	0.166	0.059
-321.070	537.723	-0.085	0.201
-320.056	-200.000	0.011	-0.225
-319.041	-129.290	0.111	0.016
-318.026	188.520	0.121	-0.181
-317.012	-107.539	-0.109	-0.024
-315.997	28.653	0.090	-0.076
-314.983	800.000	-0.062	0.187
-313.968	800.000	-0.051	0.156
-312.953	29.858	-0.105	-0.089
-311.939	-60.409	-0.188	0.080
-310.924	88.675	0.065	-0.072
-309.910	-126.131	-0.321	-0.048
-308.895	-25.834	0.276	0.163
-307.880	90.399	-0.153	0.171
-306.866	64.708	0.065	0.066
-305.851	-78.355	0.135	0.046
-304.837	-194.025	-0.171	0.001
-303.822	-200.000	-0.034	-0.492
-302.807	-125.644	0.075	-0.011
-301.793	-113.085	-0.129	-0.025
-300.778	1.440	0.197	-0.141
-299.764	132.973	-0.193	0.249
-298.749	-123.552	-0.172	0.027
-297.735	-27.062	0.194	-0.113
-296.720	-53.975	0.222	-0.101
-295.705	223.029	0.143	-0.230
-294.691	-135.810	-0.189	0.022
-293.676	-200.000	0.107	-0.000
-292.662	303.222	0.043	-0.080
-291.647	12.295	0.152	-0.117
-290.632	800.000	-0.041	0.138
-289.618	-200.000	0.055	0.302
-288.603	96.568	-0.128	0.146
-287.589	37.144	-0.180	0.159
-286.574	76.101	-0.040	0.043
-285.559	74.477	0.275	-0.288
-284.545	-200.000	-0.001	0.264
-283.530	-37.576	0.186	-0.099
-282.516	213.220	0.103	-0.162
-281.501	93.585	-0.214	0.242
-280.486	-200.000	-0.020	0.197
-279.472	-167.849	-0.121	0.005
-278.457	800.000	-0.076	0.279
-277.443	-42.006	0.058	0.029
-276.428	70.972	0.115	-0.119
-275.413	138.309	0.094	0.123
-274.399	-200.000	-0.015	-0.068
-273.384	-200.000	-0.049	-0.270
-272.370	-200.000	0.031	0.386
-271.355	-200.000	0.020	-0.273
-270.340	383.472	-0.089	-0.183
-269.326	127.991	0.133	-0.169
-268.311	158.817	0.031	-0.042
-267.297	166.797	0.070	-0.100
-266.282	-74.965	-0.165	0.059
-265.267	-26.420	0.149	-0.087
-264.253	360.062	0.110	-0.220
-263.238	-200.000	-0.036	-0.169
-262.224	417.475	-0.067	-0.143
-261.209	800.000	-0.080	0.224
-260.195	-158.986	-0.145	-0.008
-259.180	800.000	-0.017	0.068
-258.165	465.898	-0.035	0.077
-257.151	175.883	-0.098	0.142
-256.136	-80.057	-0.097	-0.033
-255.122	203.404	-0.204	0.314
-254.107	-94.314	0.087	0.024
-253.092	188.769	-0.057	0.084
-252.078	231.487	0.390	0.638
-251.063	1.763	-0.253	0.182
-250.049	164.135	0.206	0.290
-249.034	33.469	-0.201	-0.174
-248.019	-30.460	0.175	0.099
-247.005	-153.316	-0.102	-0.007
-245.990	800.000	0.087	-0.268
-244.976	118.575	-0.174	0.214
-243.961	338.763	0.059	-0.115
-242.946	-166.583	-0.264	-0.011
-241.932	-133.327	-0.094	0.012
-240.917	-57.929	-0.163	-0.071
-239.903	-200.000	0.038	0.299
-238.888	-56.650	-0.172	-0.076
-237.873	800.000	0.040	-0.168
-236.859	-127.076	0.257	-0.038
-235.844	606.710	0.100	-0.248
-234.830	75.743	0.040	0.043
-233.815	247.375	0.086	0.145
-232.800	-36.170	-0.324	0.175
-231.786	172.815	0.121	0.174
-230.771	460.099	-0.060	-0.132
-229.757	17.687	-0.234	-0.186
-228.742	-28.072	0.201	-0.116
-227.727	220.661	0.049	0.078
-226.713	-38.612	-0.213	-0.112
-225.698	747.519	-0.097	-0.260
-224.684	-109.659	0.118	0.025
-223.669	800.000	-0.064	0.214
-222.655	800.000	-0.024	-0.094
-221.640	260.118	0.189	-0.325
-220.625	348.972	-0.123	0.242
-219.611	-200.000	0.056	-0.309
-218.596	-200.000	-0.021	-0.200
-217.582	59.537	-0.153	0.150
-216.567	-200.000	-0.016	-0.192
-215.552	-200.000	-0.049	0.321
-214.538	-143.758	0.194	0.018
-213.523	-26.635	-0.133	-0.078
-212.509	41.508	0.126	0.113
-211.494	-200.000	0.008	0.076
-210.479	75.072	-0.195	0.205
-209.465	800.000	-0.034	-0.122
-208.450	-86.466	0.359	-0.110
-207.436	-174.531	0.133	-0.004
-206.421	352.409	-0.169	0.334
-205.406	-45.264	0.207	0.102
-204.392	377.539	-0.057	-0.115
-203.377	165.287	0.120	-0.169
-202.363	-200.000	0.000	-0.045
-201.348	-117.488	0.536	0.097
-200.333	800.000	0.010	0.033
-199.319	-200.000	0.034	0.175
-198.304	800.000	0.079	-0.309
-197.290	51.550	0.327	-0.310
-196.275	-200.000	-0.004	-0.184
-195.260	800.000	0.068	-0.254
-194.246	-200.000	-0.006	0.298
-193.231	486.805	-0.217	0.492
-192.217	-108.070	0.234	-0.051
-191.202	-114.025	-0.374	-0.072
-190.187	-89.533	-0.085	-0.025
-189.173	634.821	0.051	-0.128
-188.158	-200.000	0.023	-0.202
-187.144	-159.452	-0.226	0.013
-186.129	-61.372	0.122	0.051
-185.114	-101.927	-0.297	0.071
-184.100	-191.482	0.442	-0.004
-183.085	54.982	0.261	-0.251
-182.071	208.289	-0.265	-0.413
-181.056	197.022	0.143	-0.217
-180.042	624.023	0.094	0.236
-179.027	-200.000	0.059	-0.260
-178.012	-67.457	-0.129	0.050
-176.998	-158.429	0.078	-0.005
-175.983	-200.000	-0.004	-0.295
-174.969	81.083	-0.102	0.109
-173.954	189.066	-0.079	0.117
-172.939	248.620	-0.070	-0.118
-171.925	293.387	-0.088	-0.159
-170.910	86.042	0.103	0.113
-169.896	-40.357	0.216	-0.112
-168.881	-4.947	0.116	-0.080
-167.866	-46.424	-0.129	-0.063
-166.852	7.359	-0.226	-0.168
-165.837	-200.000	-0.029	0.150
-164.823	253.475	0.048	0.082
-163.808	388.093	-0.043	-0.088
-162.793	800.000	0.114	-0.405
-161.779	103.742	-0.038	-0.044
-160.764	-200.000	0.030	0.179
-159.750	-200.000	0.053	0.328
-158.735	775.766	0.049	-0.134
-157.720	800.000	0.035	-0.131
-156.706	169.412	-0.237	-0.336
-155.691	-8.660	-0.227	0.151
-154.677	22.651	-0.224	0.182
-153.662	54.915	0.387	0.371
-152.647	62.055	-0.212	-0.210
-151.633	612.241	0.058	-0.145
-150.618	-200.000	-0.010	-0.178
-149.604	-80.628	0.258	-0.085
-148.589	-76.240	-0.090	0.031
-147.574	411.343	-0.059	-0.125
-146.560	-169.021	0.306	0.011
-145.545	464.682	-0.017	0.038
-144.531	671.151	0.082	-0.210
-143.516	349.359	0.180	-0.352
-142.502	50.416	0.059	0.056
-141.487	-49.428	0.199	-0.094
-140.472	-136.481	-0.240	0.028
-139.458	-200.000	-0.044	-0.290
-138.443	-200.000	-0.008	0.066
-137.429	-107.272	-0.258	0.056
-136.414	112.610	0.061	-0.074
-135.399	-139.509	-0.083	0.009
-134.385	-98.704	-0.025	0.006
-133.370	-79.639	-0.277	-0.093
-132.356	-166.736	0.414	0.017
-131.341	2.534	-0.348	0.250
-130.326	800.000	0.107	0.386
-129.312	-200.000	-0.038	-0.170
-128.297	-68.365	0.363	-0.140
-127.283	800.000	-0.076	0.221
-126.268	346.870	0.023	-0.046
-125.253	800.000	0.125	0.483
-124.239	-200.000	0.011	0.308
-123.224	-103.270	0.467	-0.109
-122.210	-62.704	-0.257	-0.106
-121.195	-53.357	-0.206	-0.094
-120.180	-200.000	-0.008	-0.227
-119.166	148.885	0.133	-0.179
-118.151	33.598	-0.096	0.083
-117.137	-159.185	-0.014	0.001
-116.122	-155.868	-0.076	-0.005
-115.107	-40.165	0.204	0.105
-114.093	800.000	0.019	-0.052
-113.078	-200.000	-0.004	-0.142
-112.064	186.864	-0.247	0.366
-111.049	-200.000	-0.038	-0.191
-110.034	-109.708	0.172	-0.036
-109.020	-200.000	-0.121	0.545
-108.005	439.584	0.078	-0.170
-106.991	542.082	0.187	-0.442
-105.976	30.379	0.215	0.182
-104.962	-144.771	-0.365	-0.033
-103.947	800.000	0.035	0.110
-102.932	436.572	-0.080	0.172
-101.918	94.957	-0.085	0.096
-100.903	-75.116	-0.122	-0.043
-99.889	800.000	-0.045	-0.149
-98.874	-200.000	0.055	-0.258
-97.859	-152.548	0.432	0.031
-96.845	323.020	0.087	0.165
-95.830	171.632	-0.041	-0.058
-94.816	-200.000	-0.023	-0.271
-93.801	-9.867	0.224	0.148
-92.786	-174.792	-0.233	-0.007
-91.772	26.153	-0.142	0.118
-90.757	116.631	0.048	-0.058
-89.743	473.754	0.025	-0.056
-88.728	89.956	-0.211	-0.234
-87.713	-124.355	-0.051	0.008
-86.699	-192.491	-0.195	0.002
-85.684	429.726	0.069	0.148
-84.670	13.024	-0.075	-0.057
-83.655	212.542	-0.103	0.160
-82.640	156.441	-0.115	0.157
-81.626	-200.000	0.045	-0.221
-80.611	800.000	-0.065	0.276
-79.597	158.340	-0.095	0.130
-78.582	-200.000	0.016	0.101
-77.567	-200.000	0.016	-0.199
-76.553	-65.255	0.356	-0.142
-75.538	-35.023	-0.044	0.024
-74.524	660.692	0.223	-0.568
-73.509	77.843	-0.140	0.148
-72.494	64.426	0.120	-0.120
-71.480	800.000	-0.020	0.074
-70.465	800.000	-0.027	0.108
-69.451	-163.627	-0.243	0.011
-68.436	-22.882	-0.234	-0.140
-67.422	-77.893	0.253	0.086
-66.407	-200.000	-0.011	0.131
-65.392	-200.000	-0.002	0.020
-64.378	-200.000	0.061	-0.296
-63.363	-82.041	0.105	0.034
-62.349	-41.987	-0.224	0.114
-61.334	148.261	-0.529	-0.707
-60.319	246.020	0.259	0.432
-59.305	-200.000	-0.132	-0.732
-58.290	158.842	0.612	0.842
-57.276	647.745	0.652	1.651
-56.261	-200.000	94.975	553.305
-55.246	520.553	1407.871	3267.063
-54.232	145.825	2631.863	3491.370
-53.217	112.437	2221.404	2659.528
-52.203	46.529	1663.896	1527.767
-51.188	38.235	1395.090	1229.025
-50.173	34.945	1352.315	1171.193
-49.159	54.381	1399.947	1333.990
-48.144	58.226	1418.055	1375.151
-47.130	38.488	1372.569	1210.560
-46.115	35.007	1354.239	1173.055
-45.100	34.738	1350.207	1167.868
-44.086	34.763	1347.280	1165.443
-43.071	34.596	1345.272	1162.645
-42.057	34.579	1342.968	1160.506
-41.042	34.593	1341.144	1158.969
-40.027	34.679	1339.828	1158.302
-39.013	34.693	1337.780	1156.570
-37.998	34.733	1335.565	1154.851
-36.984	34.793	1333.816	1153.655
-35.969	34.748	1332.291	1152.024
-34.954	34.862	1330.272	1150.918
-33.940	34.996	1329.459	1150.975
-32.925	35.031	1327.703	1149.618
-31.911	35.077	1325.933	1148.317
-30.896	34.813	1324.868	1145.768
-29.881	34.897	1323.630	1145.152
-28.867	34.937	1322.092	1144.018
-27.852	34.948	1320.250	1142.440
-26.838	35.042	1318.961	1141.845
-25.823	34.913	1318.049	1140.240
-24.809	34.934	1316.298	1138.805
-23.794	34.914	1315.136	1137.632
-22.779	34.817	1313.844	1135.896
-21.765	34.821	1312.100	1134.363
-20.750	34.808	1311.351	1133.595
-19.736	34.658	1310.233	1131.696
-18.721	34.636	1308.951	1130.415
-17.706	34.726	1307.171	1129.364
-16.692	34.686	1306.105	1128.164
-15.677	34.714	1305.043	1127.367
-14.663	34.829	1303.716	1126.852
-13.648	34.756	1302.586	1125.398
-12.633	34.720	1301.705	1124.380
-11.619	34.631	1301.442	1123.584
-10.604	34.817	1300.024	1123.409
-9.590	34.647	1298.982	1121.468
-8.575	34.664	1298.156	1120.811
-7.560	34.679	1297.667	1120.433
-6.546	34.684	1296.705	1119.587
-5.531	34.690	1295.479	1118.515
-4.517	34.685	1294.856	1117.904
-3.502	34.716	1293.883	1117.204
-2.487	34.619	1293.172	1115.977
-1.473	34.813	1288.867	1113.350
-0.458	33.990	1274.582	1096.221
0.556	29.796	1256.913	1059.932
1.571	25.665	1262.171	1040.439
2.586	24.042	1275.883	1042.156
3.600	22.666	1263.841	1024.242
4.615	16.521	1186.737	928.053
5.629	6.238	1105.081	811.320
6.644	1.064	1082.310	768.346
7.659	0.649	1079.723	764.341
8.673	0.628	1078.397	763.230
9.688	0.490	1077.297	761.689
10.702	0.756	1075.786	761.894
11.717	6.462	1083.283	796.026
12.731	15.200	1094.613	848.717
13.746	18.114	1097.539	865.686
14.761	17.354	1096.358	860.835
15.775	16.536	1093.909	854.704
16.790	15.428	1092.362	847.824
17.804	14.831	1090.451	843.254
18.819	14.369	1089.526	840.136
19.834	14.127	1088.478	838.035
20.848	13.792	1087.457	835.487
21.863	13.674	1086.468	834.058
22.877	13.552	1085.582	832.691
23.892	13.341	1085.231	831.288
24.907	13.348	1084.523	830.706
25.921	13.383	1083.465	830.002
26.936	13.495	1082.786	829.965
27.950	13.515	1081.181	828.762
28.965	13.629	1080.095	828.427
29.980	13.597	1078.847	827.240
30.994	13.766	1077.556	827.019
32.009	13.718	1077.007	826.284
33.023	13.830	1075.526	825.633
34.038	13.718	1074.782	824.430
35.053	13.529	1074.163	822.941
36.067	13.602	1073.502	822.728
37.082	13.606	1072.288	821.745
38.096	13.619	1071.687	821.272
39.111	13.596	1070.713	820.341
40.126	13.596	1069.691	819.488
41.140	13.592	1068.307	818.334
42.155	13.397	1067.194	816.448
43.169	13.445	1066.437	816.031
44.184	13.466	1065.574	815.401
45.199	13.309	1064.269	813.559
46.213	13.293	1063.373	812.723
47.228	13.394	1062.371	812.380
48.242	13.535	1061.095	812.024
49.257	13.584	1059.587	811.040
50.271	13.575	1058.760	810.291
51.286	13.616	1058.046	809.872
52.301	13.644	1056.842	809.015
53.315	13.461	1056.176	807.545
54.330	13.324	1055.429	806.233
55.344	13.463	1054.162	805.872
56.359	13.395	1053.594	805.034
57.374	13.400	1052.813	804.391
58.388	13.384	1052.141	803.728
59.403	13.463	1051.047	803.203
60.417	13.503	1050.063	802.573
61.432	13.346	1049.365	801.210
62.447	13.336	1048.435	800.383
63.461	13.410	1047.767	800.156
64.476	13.304	1046.848	798.871
65.490	13.477	1045.585	798.672
66.505	13.376	1045.352	797.938
67.520	13.325	1045.067	797.404
68.534	13.302	1044.190	796.552
69.549	13.427	1043.022	796.195
70.563	13.392	1042.468	795.529
71.578	13.380	1041.124	794.378
72.593	13.299	1040.880	793.731
73.607	13.276	1040.092	792.951
74.622	13.332	1039.537	792.729
75.636	13.291	1038.926	791.995
76.651	13.376	1038.194	791.773
77.666	13.324	1037.497	790.924
78.680	13.255	1037.026	790.161
79.695	13.304	1036.001	789.548
80.709	13.446	1034.892	789.306
81.724	13.507	1034.107	788.931
82.739	13.428	1033.736	788.199
83.753	13.484	1033.266	788.040
84.768	13.548	1031.973	787.288
85.782	13.548	1031.007	786.483
86.797	13.448	1030.510	785.557
87.812	13.504	1029.442	784.942
88.826	13.414	1028.250	783.535
89.841	13.555	1027.526	783.583
90.855	13.694	1026.292	783.230
91.870	13.606	1025.767	782.344
92.884	13.605	1024.771	781.509
93.899	13.601	1024.091	780.903
94.914	13.671	1023.330	780.585
95.928	13.744	1022.098	779.919
96.943	13.600	1022.030	779.120
97.957	13.598	1020.590	777.944
98.972	13.642	1019.859	777.524
99.987	13.596	1018.958	776.554
101.001	13.684	1017.487	775.776
102.016	13.643	1017.116	775.231
103.030	13.696	1016.383	774.853
104.045	13.740	1015.550	774.356
105.060	13.618	1014.941	773.252
106.074	13.567	1013.853	772.115
107.089	13.666	1012.332	771.349
108.103	13.531	1011.630	770.121
109.118	13.566	1010.418	769.291
110.133	13.467	1009.994	768.441
111.147	13.589	1009.114	768.270
112.162	13.582	1008.075	767.379
113.176	13.589	1007.598	766.978
114.191	13.663	1006.245	766.222
115.206	13.586	1005.975	765.593
116.220	13.536	1005.162	764.678
117.235	13.543	1004.083	763.820
118.249	13.583	1002.909	763.046
119.264	13.567	1002.757	762.786
120.279	13.619	1001.317	761.863
121.293	13.571	1000.440	760.910
122.308	13.464	1000.155	760.131
123.322	13.588	998.583	759.440
124.337	13.548	998.028	758.765
125.352	13.404	996.828	757.130
126.366	13.519	995.685	756.720
127.381	13.508	994.738	755.882
128.395	13.557	993.992	755.471
129.410	13.645	993.125	755.148
130.424	13.599	992.322	754.259
131.439	13.566	991.567	753.469
132.454	13.687	990.549	753.178
133.468	13.663	989.352	752.093
134.483	13.683	988.852	751.738
135.497	13.647	988.335	751.116
136.512	13.696	987.370	750.537
137.527	13.678	985.957	749.315
138.541	13.707	985.017	748.664
139.556	13.823	984.546	748.764
140.570	13.744	984.295	748.151
141.585	13.663	983.470	747.091
142.600	13.729	982.233	746.383
143.614	13.817	981.076	745.834
144.629	13.939	980.439	745.830
145.643	13.760	979.826	744.497
146.658	13.742	978.583	743.407
147.673	13.754	977.825	742.819
148.687	13.598	977.355	741.695
149.702	13.624	976.230	740.892
150.716	13.763	975.019	740.529
151.731	13.590	975.023	739.695
152.746	13.766	973.798	739.485
153.760	13.791	973.076	738.980
154.775	13.838	972.617	738.777
155.789	13.855	971.995	738.314
156.804	13.890	970.925	737.593
157.819	13.828	970.663	737.051
158.833	13.924	969.987	736.901
159.848	13.946	968.854	736.074
160.862	13.961	967.716	735.210
161.877	13.915	967.097	734.469
162.892	13.707	966.384	732.946
163.906	13.808	965.140	732.384
164.921	13.843	964.146	731.717
165.935	13.903	963.453	731.392
166.950	13.915	962.921	730.977
167.964	13.870	961.852	729.902
168.979	13.930	960.286	728.911
169.994	13.901	959.657	728.243
171.008	13.888	959.410	727.934
172.023	14.023	958.472	727.750
173.037	13.922	957.497	726.500
174.052	14.089	956.843	726.672
175.067	13.948	956.253	725.543
176.081	13.897	956.257	725.258
177.096	14.037	955.257	725.049
178.110	14.067	954.462	724.511
179.125	13.820	954.143	723.129
180.140	13.926	953.664	723.161
181.154	14.120	952.442	723.014
182.169	14.138	952.246	722.882
183.183	14.136	951.719	722.407
184.198	14.198	950.562	721.736
185.213	14.162	949.846	720.972
186.227	14.182	949.278	720.563
187.242	14.229	948.917	720.430
188.256	14.233	948.283	719.903
189.271	14.162	947.190	718.700
190.286	14.044	946.491	717.599
191.300	13.985	945.943	716.863
192.315	14.167	944.991	716.865
193.329	14.026	944.753	716.013
194.344	14.181	943.832	715.920
195.359	14.191	943.268	715.471
196.373	14.112	942.717	714.647
197.388	14.207	942.423	714.771
198.402	14.279	941.512	714.327
199.417	14.512	940.594	714.565
200.432	14.428	940.397	713.990
201.446	14.361	940.331	713.591
202.461	14.517	939.389	713.482
203.475	14.461	938.945	712.840
204.490	14.532	937.953	712.327
205.504	14.345	937.510	711.130
206.519	14.372	936.640	710.521
207.534	14.469	935.968	710.365
208.548	14.364	935.350	709.384
209.563	14.388	934.675	708.914
210.577	14.579	933.528	708.792
211.592	14.555	933.231	708.401
212.607	14.593	932.167	707.693
213.621	14.488	931.458	706.647
214.636	14.566	930.261	706.004
215.650	14.727	929.948	706.387
216.665	14.643	929.233	705.424
217.680	14.588	928.893	704.871
218.694	14.794	928.026	705.020
219.709	14.681	927.344	703.965
220.723	14.765	926.399	703.538
221.738	14.533	926.218	702.362
222.753	14.497	925.639	701.708
223.767	14.639	925.084	701.822
224.782	14.706	923.887	701.137
225.796	14.742	923.551	700.969
226.811	14.630	923.114	700.105
227.826	14.806	921.909	699.866
228.840	14.701	921.104	698.753
229.855	14.782	920.412	698.506
230.869	14.743	919.768	697.792
231.884	14.705	919.334	697.242
232.899	14.835	918.480	697.075
233.913	14.601	918.118	695.765
234.928	14.722	917.347	695.623
235.942	14.685	916.752	694.957
236.957	14.788	915.854	694.640
237.972	14.821	915.494	694.444
238.986	14.724	914.706	693.381
240.001	14.766	913.906	692.888
241.015	14.741	913.660	692.538
242.030	14.932	912.808	692.620
243.045	14.944	912.574	692.431
244.059	14.899	911.637	691.473
245.074	15.039	910.887	691.423
246.088	15.001	910.119	690.620
247.103	14.906	909.544	689.731
248.117	14.923	909.222	689.496
249.132	15.097	908.434	689.554
250.147	15.201	907.536	689.240
251.161	15.215	906.772	688.656
252.176	15.076	906.344	687.699
253.190	15.203	905.677	687.654
254.205	15.147	905.128	686.947
255.220	15.233	904.371	686.663
256.234	15.246	903.946	686.333
257.249	15.270	903.057	685.696
258.263	15.218	902.402	684.925
259.278	15.135	901.701	683.993
260.293	15.279	900.955	683.955
261.307	15.398	900.168	683.783
262.322	15.385	899.819	683.403
263.336	15.323	898.924	682.410
264.351	15.528	898.110	682.567
265.366	15.364	897.977	681.738
266.380	15.504	897.191	681.650
267.395	15.388	896.422	680.534
268.409	15.561	895.839	680.732
269.424	15.485	895.147	679.836
270.439	15.428	894.247	678.865
271.453	15.447	893.615	678.402
272.468	15.371	893.059	677.612
273.482	15.520	892.345	677.611
274.497	15.556	891.568	677.107
275.512	15.578	891.362	676.980
276.526	15.629	890.560	676.516
277.541	15.586	890.167	675.984
278.555	15.567	889.626	675.439
279.570	15.778	888.543	675.403
280.585	15.748	887.655	674.549
281.599	15.598	887.206	673.545
282.614	15.800	886.415	673.693
283.628	15.654	886.054	672.775
284.643	15.835	885.168	672.767
285.657	15.671	884.967	671.899
286.672	15.692	883.884	671.100
287.687	15.758	883.163	670.757
288.701	15.646	882.929	670.076
289.716	15.781	882.462	670.199
290.730	15.786	881.931	669.754
291.745	15.729	881.335	669.017
292.760	15.732	880.689	668.479
293.774	15.786	880.224	668.282
294.789	16.037	879.244	668.473
295.803	15.779	878.482	666.812
296.818	15.745	878.162	666.375
297.833	15.846	877.215	665.997
298.847	15.771	876.806	665.332
299.862	15.864	875.752	664.840
300.876	16.008	875.178	664.916
301.891	15.994	874.873	664.569
302.906	16.005	874.034	663.917
303.920	16.076	873.835	663.988
304.935	16.158	873.305	663.847
305.949	16.064	872.525	662.825
306.964	16.146	871.917	662.629
307.979	16.009	871.461	661.685
308.993	15.979	871.165	661.286
310.008	16.107	870.378	661.132
311.022	16.045	869.545	660.196
312.037	16.070	869.099	659.896
313.052	16.039	868.502	659.262
314.066	16.069	867.747	658.750
315.081	16.116	867.630	658.784
316.095	16.243	866.633	658.467
317.110	16.112	866.191	657.563
318.125	15.986	865.963	656.840
319.139	16.072	865.358	656.656
320.154	16.214	864.688	656.644
321.168	16.191	864.342	656.232
322.183	16.056	863.658	655.129
323.197	16.165	863.026	655.016
324.212	16.292	862.150	654.787
325.227	16.242	861.871	654.324
326.241	16.244	861.474	653.972
327.256	16.275	860.665	653.418
328.270	16.133	860.417	652.624
329.285	16.241	859.614	652.375
330.300	16.381	858.393	651.932
331.314	16.243	858.306	651.274
332.329	16.472	857.554	651.528
333.343	16.315	857.677	650.959
334.358	16.396	856.869	650.598
335.373	16.413	856.572	650.382
336.387	16.400	856.163	649.964
337.402	16.435	856.131	650.017
338.416	16.502	855.406	649.665
339.431	16.551	855.079	649.548
340.446	16.478	855.113	649.236
341.460	16.624	854.317	649.133
342.475	16.735	853.760	649.079
343.489	16.734	852.974	648.420
344.504	16.557	853.025	647.723
345.519	16.576	852.650	647.457
346.533	16.719	851.847	647.333
347.548	16.513	851.478	646.212
348.562	16.597	850.824	645.977
349.577	16.639	850.190	645.599
350.592	16.571	849.591	644.828
351.606	16.631	848.960	644.519
352.621	16.690	848.070	644.010
353.635	16.626	847.481	643.265
354.650	16.750	846.907	643.241
355.665	16.602	846.644	642.426
356.679	16.661	845.784	641.938
357.694	16.792	844.925	641.725
358.708	16.732	844.553	641.161
359.723	16.688	844.340	640.774
360.738	16.887	843.148	640.567
361.752	16.952	842.266	640.083
362.767	16.831	842.337	639.623
363.781	16.894	841.646	639.280
364.796	16.983	841.152	639.185
365.810	17.007	840.754	638.915
366.825	17.053	840.120	638.551
367.840	17.050	839.632	638.112
368.854	17.124	839.541	638.263
369.869	17.074	838.978	637.592
370.883	16.985	838.649	636.950
371.898	17.031	838.520	636.970
372.913	17.101	837.658	636.521
373.927	17.097	837.171	636.082
374.942	17.124	836.764	635.816
375.956	17.155	836.377	635.579
376.971	17.104	835.775	634.875
377.986	17.196	835.403	634.882
379.000	17.291	835.093	634.943
380.015	17.240	834.816	634.487
381.029	17.390	833.746	634.176
382.044	17.269	833.438	633.435
383.059	17.186	832.927	632.681
384.073	17.362	831.869	632.479
385.088	17.253	831.674	631.867
386.102	17.171	830.976	630.977
387.117	17.270	830.446	630.885
388.132	17.245	829.769	630.225
389.146	17.275	829.182	629.834
390.161	17.301	828.914	629.671
391.175	17.288	828.488	629.243
392.190	17.420	827.853	629.193
393.205	17.553	826.913	628.913
394.219	17.212	827.308	627.899
395.234	17.423	826.663	628.132
396.248	17.239	826.206	627.053
397.263	17.379	825.719	627.144
398.278	17.273	825.641	626.637
399.292	17.312	825.078	626.297
400.307	17.235	824.543	625.552
401.321	17.400	823.772	625.517
402.336	17.408	823.717	625.453
403.350	17.465	822.672	624.812
404.365	17.577	822.078	624.718
405.380	17.583	821.841	624.505
406.394	17.603	821.433	624.211
407.409	17.597	821.250	623.996
408.423	17.673	820.815	623.886
409.438	17.715	820.181	623.501
410.453	17.576	820.170	622.930
411.467	17.732	819.481	622.923
412.482	17.908	818.805	622.996
413.496	17.705	818.697	622.118
414.511	17.664	818.643	621.871
415.526	17.758	817.797	621.518
416.540	17.738	817.536	621.193
417.555	17.899	816.734	621.111
418.569	17.916	816.403	620.868
419.584	17.828	815.862	620.081
420.599	17.782	815.607	619.667
421.613	104.169	1285.696	1443.342
422.628	89.888	1354.179	1443.444
