DTS Sentinel unit serial number:	SN413079Multiplexer serial number:	ORYXHardware model number:	OX4-SRSoftware version number:	ORYX F/W v4.00 Oryx Data Collector v3.7.2.0data status	okinstallation	princeton_trtdifferential loss correction	single-endedforward channel	channel 1reverse channel	N/Adate	2019/09/14time	06:38:35forward acquisition time	60.00reverse acquisition time	0.00gamma	496.2192k internal	0.2337k external	0.2337temperature offset calibration	1.0081default loss term (dB/km)	0.3790temperature slope calibration	1.0000multiplexer offset coefficient	1.0000multiplexer slope coefficient	1.0000fibre end	0.00T internal ref (°C)	26.37T ext. ref 1 (°C)	3.43T ext. ref 2 (°C)	20.43length (m)	temperature (°C)	Stokes	anti-Stokes-747.200	52.366	0.130	-0.124
-746.185	20.825	-0.117	0.095
-745.171	37.868	-0.167	0.149
-744.156	0.058	-0.285	0.204
-743.142	361.958	0.184	0.370
-742.127	175.712	-0.116	0.169
-741.112	-200.000	-0.005	0.121
-740.098	-108.372	0.283	-0.061
-739.083	287.394	-0.139	-0.253
-738.069	-16.301	0.241	0.153
-737.054	-108.524	-0.083	0.018
-736.039	-77.517	-0.206	-0.072
-735.025	-141.559	0.185	-0.019
-734.010	0.687	-0.114	0.082
-732.996	446.127	-0.103	0.227
-731.981	-55.299	-0.307	-0.138
-730.966	-129.566	-0.161	0.022
-729.952	-41.778	0.012	-0.006
-728.937	-200.000	0.027	0.139
-727.923	800.000	0.069	-0.227
-726.908	-200.000	0.023	0.104
-725.894	589.853	0.055	-0.136
-724.879	429.744	0.045	0.097
-723.864	378.271	0.079	-0.162
-722.850	800.000	-0.041	0.169
-721.835	-158.203	0.210	0.012
-720.821	-30.064	-0.089	0.051
-719.806	-129.064	-0.068	0.009
-718.791	-153.483	-0.238	0.017
-717.777	297.890	-0.126	0.232
-716.762	800.000	-0.133	0.416
-715.748	52.728	0.156	-0.149
-714.733	49.524	0.098	-0.092
-713.718	468.568	0.045	0.101
-712.704	151.014	0.178	-0.242
-711.689	-10.272	-0.300	0.199
-710.675	18.660	-0.289	0.232
-709.660	-200.000	0.038	0.200
-708.645	252.633	-0.117	-0.200
-707.631	411.258	-0.087	-0.186
-706.616	307.366	-0.056	-0.105
-705.602	323.126	0.086	-0.164
-704.587	-129.562	0.227	0.032
-703.572	301.246	0.097	-0.180
-702.558	375.996	0.105	-0.214
-701.543	41.501	-0.167	-0.151
-700.529	366.221	-0.075	0.152
-699.514	-98.346	0.360	-0.093
-698.499	-160.313	-0.288	-0.016
-697.485	431.502	-0.122	-0.265
-696.470	-94.718	-0.113	0.031
-695.456	213.223	-0.069	-0.109
-694.441	-200.000	0.003	-0.128
-693.426	284.053	-0.289	-0.521
-692.412	-200.000	-0.051	-0.390
-691.397	800.000	0.028	0.087
-690.383	528.736	0.127	0.301
-689.368	-106.206	-0.065	0.015
-688.354	33.921	0.126	-0.110
-687.339	-198.203	-0.257	-0.002
-686.324	85.765	-0.092	0.101
-685.310	201.277	-0.064	0.099
-684.295	-53.118	-0.080	0.037
-683.281	-153.346	0.077	-0.005
-682.266	-123.372	0.177	-0.028
-681.251	-127.275	0.172	-0.025
-680.237	-140.562	-0.195	-0.020
-679.222	320.791	0.077	-0.147
-678.208	-41.640	0.196	-0.101
-677.193	-200.000	-0.005	-0.249
-676.178	800.000	-0.134	0.394
-675.164	-175.040	-0.063	0.002
-674.149	-80.110	0.087	-0.029
-673.135	-56.986	0.250	0.110
-672.120	357.684	-0.030	0.059
-671.105	-21.667	-0.262	0.160
-670.091	-108.745	-0.197	0.042
-669.076	170.464	0.064	0.091
-668.062	8.877	0.217	0.164
-667.047	-163.133	-0.351	0.017
-666.032	-72.209	0.280	0.104
-665.018	-200.000	0.020	-0.141
-664.003	-122.844	-0.280	0.045
-662.989	273.221	-0.012	-0.022
-661.974	-137.566	0.162	-0.018
-660.959	-103.551	-0.455	-0.107
-659.945	-46.354	0.137	0.067
-658.930	-153.771	-0.117	-0.008
-657.916	-200.000	-0.080	0.417
-656.901	800.000	-0.044	-0.184
-655.886	-81.254	0.445	-0.147
-654.872	68.558	-0.103	-0.105
-653.857	-77.360	0.315	-0.110
-652.843	-100.239	0.134	0.033
-651.828	-165.338	-0.186	0.008
-650.814	-200.000	0.034	-0.281
-649.799	-152.577	0.145	-0.010
-648.784	-2.356	0.319	-0.224
-647.770	-36.933	-0.299	0.160
-646.755	-124.834	-0.377	0.058
-645.741	-87.474	0.102	-0.031
-644.726	797.283	0.199	0.550
-643.711	-88.328	0.219	-0.065
-642.697	477.145	-0.147	0.332
-641.682	-200.000	-0.046	-0.525
-640.668	-145.179	-0.302	-0.027
-639.653	75.194	0.138	-0.145
-638.638	-95.012	0.397	-0.107
-637.624	-200.000	0.001	-0.076
-636.609	800.000	-0.007	0.027
-635.595	-15.603	0.084	0.053
-634.580	83.621	0.159	-0.173
-633.565	300.123	0.064	-0.118
-632.551	-112.100	-0.207	0.042
-631.536	0.487	0.074	0.053
-630.522	-1.637	-0.279	-0.196
-629.507	-200.000	-0.004	-0.302
-628.492	-200.000	0.034	0.188
-627.478	464.101	-0.083	-0.186
-626.463	131.057	-0.182	-0.233
-625.449	274.917	-0.106	0.187
-624.434	-52.147	0.191	-0.089
-623.419	-157.801	-0.101	0.006
-622.405	-158.985	0.290	0.016
-621.390	196.366	0.131	-0.199
-620.376	800.000	0.074	0.261
-619.361	326.415	0.076	0.145
-618.346	132.342	0.097	-0.125
-617.332	138.679	-0.126	0.165
-616.317	-58.001	-0.328	0.143
-615.303	-125.184	-0.102	0.016
-614.288	94.488	0.259	-0.294
-613.273	-39.625	0.259	-0.135
-612.259	-90.985	-0.210	0.060
-611.244	-151.444	0.233	0.017
-610.230	472.104	-0.009	-0.020
-609.215	24.526	-0.095	-0.079
-608.201	-42.236	-0.146	-0.074
-607.186	-110.349	0.232	-0.048
-606.171	-200.000	-0.012	-0.352
-605.157	181.191	-0.233	-0.341
-604.142	-80.962	0.187	-0.062
-603.128	66.768	-0.211	0.214
-602.113	-130.509	-0.389	-0.052
-601.098	-76.287	-0.073	0.026
-600.084	-200.000	0.027	0.200
-599.069	-200.000	-0.015	-0.112
-598.055	86.521	0.272	0.299
-597.040	-200.000	-0.013	0.112
-596.025	-14.186	-0.182	0.117
-595.011	-114.293	-0.231	-0.044
-593.996	-128.945	-0.053	0.007
-592.982	-142.687	-0.288	-0.028
-591.967	363.909	0.166	0.334
-590.952	-100.631	-0.040	-0.010
-589.938	534.554	0.059	0.140
-588.923	-200.000	-0.009	0.400
-587.909	-138.937	-0.340	0.037
-586.894	-157.261	0.310	0.019
-585.879	-122.029	-0.094	-0.015
-584.865	800.000	-0.109	-0.315
-583.850	-136.631	0.086	-0.010
-582.836	-96.617	-0.084	0.022
-581.821	383.255	0.097	0.200
-580.806	-80.983	-0.099	-0.033
-579.792	-42.204	0.121	0.062
-578.777	-16.298	0.200	-0.127
-577.763	2.242	-0.277	-0.200
-576.748	800.000	-0.012	0.041
-575.733	-66.897	-0.376	-0.148
-574.719	-82.208	-0.370	0.120
-573.704	45.424	0.212	0.195
-572.690	34.686	-0.122	0.106
-571.675	-63.739	-0.243	-0.099
-570.661	800.000	0.075	0.276
-569.646	-80.677	-0.133	0.044
-568.631	-27.251	-0.183	-0.106
-567.617	-139.634	0.037	-0.004
-566.602	396.021	0.079	0.164
-565.588	800.000	0.105	0.357
-564.573	37.966	0.291	0.258
-563.558	-0.466	-0.124	0.088
-562.544	-7.175	0.223	-0.151
-561.529	-39.854	-0.119	-0.062
-560.515	-112.085	-0.215	-0.043
-559.500	13.869	-0.215	-0.166
-558.485	-173.862	0.273	0.008
-557.471	115.266	-0.096	-0.117
-556.456	252.126	-0.159	0.271
-555.442	675.645	0.119	0.307
-554.427	-174.335	0.035	-0.001
-553.412	101.748	-0.155	-0.180
-552.398	-134.407	-0.168	0.021
-551.383	-101.839	0.299	0.072
-550.369	-7.757	0.245	-0.165
-549.354	-52.914	0.057	-0.026
-548.339	-173.996	-0.194	0.006
-547.325	-104.320	0.199	-0.046
-546.310	-200.000	0.004	-0.136
-545.296	354.316	0.060	-0.120
-544.281	41.225	0.106	-0.095
-543.266	-64.258	-0.135	-0.055
-542.252	-145.323	-0.134	0.012
-541.237	-12.783	-0.315	-0.204
-540.223	-164.773	-0.155	-0.007
-539.208	-54.035	0.079	-0.036
-538.193	178.125	0.168	-0.244
-537.179	428.868	0.050	0.108
-536.164	-32.512	-0.184	0.102
-535.150	-45.276	0.329	0.163
-534.135	800.000	0.064	0.190
-533.121	-134.217	-0.276	-0.034
-532.106	-200.000	0.012	-0.128
-531.091	-6.127	-0.027	0.018
-530.077	-200.000	-0.002	0.246
-529.062	98.704	0.079	0.091
-528.048	-150.218	-0.191	-0.015
-527.033	150.708	-0.161	0.218
-526.018	-133.785	0.185	0.023
-525.004	53.719	-0.235	0.225
-523.989	-153.606	-0.182	0.012
-522.975	-200.000	0.005	0.102
-521.960	24.688	0.054	0.045
-520.945	49.755	-0.177	0.166
-519.931	-82.765	-0.098	0.032
-518.916	-200.000	0.025	-0.364
-517.902	-122.519	-0.167	0.027
-516.887	-159.278	-0.111	0.006
-515.872	800.000	0.016	-0.065
-514.858	-76.981	0.200	0.069
-513.843	136.809	-0.201	-0.261
-512.829	-200.000	0.003	-0.172
-511.814	0.141	0.250	0.177
-510.799	393.119	0.146	0.301
-509.785	-103.634	0.370	0.086
-508.770	388.212	-0.127	0.260
-507.756	128.013	-0.131	0.166
-506.741	-65.285	0.207	-0.083
-505.726	144.837	-0.242	0.322
-504.712	-133.955	0.142	-0.018
-503.697	800.000	-0.065	-0.282
-502.683	-116.258	0.110	-0.020
-501.668	-67.555	-0.289	0.113
-500.653	-20.142	0.226	0.138
-499.639	800.000	-0.165	0.486
-498.624	172.366	-0.185	-0.264
-497.610	-98.146	0.111	0.028
-496.595	-200.000	-0.009	0.214
-495.581	18.227	-0.395	-0.313
-494.566	6.437	0.261	0.193
-493.551	107.261	-0.119	-0.140
-492.537	360.726	-0.070	-0.140
-491.522	558.405	-0.110	0.264
-490.508	-200.000	-0.047	0.425
-489.493	-200.000	0.005	0.136
-488.478	-200.000	-0.019	0.140
-487.464	107.830	-0.154	-0.182
-486.449	-200.000	0.008	-0.156
-485.435	567.896	0.042	-0.101
-484.420	57.499	-0.073	0.071
-483.405	14.904	0.239	-0.186
-482.391	56.716	0.208	0.202
-481.376	-6.715	-0.057	-0.039
-480.362	800.000	-0.050	-0.182
-479.347	800.000	-0.010	-0.039
-478.332	-158.007	-0.327	0.019
-477.318	63.334	-0.160	0.159
-476.303	4.584	0.032	0.023
-475.289	-32.549	0.207	0.114
-474.274	-92.165	-0.236	-0.066
-473.259	-111.465	0.288	-0.058
-472.245	629.833	-0.038	-0.096
-471.230	-70.482	0.120	0.045
-470.216	-200.000	0.008	0.212
-469.201	-200.000	0.038	0.279
-468.186	605.496	0.143	-0.355
-467.172	-14.710	0.113	-0.072
-466.157	-72.708	-0.215	0.079
-465.143	-57.966	0.081	0.035
-464.128	-133.335	-0.211	0.026
-463.113	187.086	0.193	0.285
-462.099	371.015	-0.030	-0.060
-461.084	-200.000	-0.022	-0.107
-460.070	285.923	-0.173	-0.309
-459.055	-103.555	-0.154	0.036
-458.040	114.913	0.138	-0.167
-457.026	19.724	-0.071	-0.056
-456.011	283.969	-0.053	-0.095
-454.997	70.195	-0.112	0.115
-453.982	35.353	-0.298	0.259
-452.968	-72.634	-0.521	0.191
-451.953	181.217	0.114	-0.167
-450.938	-61.999	-0.276	-0.115
-449.924	-200.000	-0.003	-0.133
-448.909	-200.000	0.006	-0.031
-447.895	-38.930	-0.409	0.214
-446.880	-48.396	-0.167	-0.080
-445.865	146.882	-0.174	-0.232
-444.851	231.606	0.143	-0.233
-443.836	-133.134	-0.140	-0.018
-442.822	-41.960	0.133	0.067
-441.807	800.000	-0.075	-0.309
-440.792	-143.423	-0.293	-0.028
-439.778	-200.000	-0.037	0.288
-438.763	569.731	-0.065	-0.157
-437.749	244.768	0.196	-0.326
-436.734	-200.000	0.026	0.126
-435.719	-124.993	-0.307	-0.047
-434.705	-76.964	0.121	0.042
-433.690	66.005	-0.091	0.091
-432.676	328.403	0.063	-0.120
-431.661	-109.450	-0.308	-0.065
-430.646	254.680	0.109	0.186
-429.632	-35.741	0.139	0.075
-428.617	110.142	-0.134	0.160
-427.603	-53.843	0.281	0.127
-426.588	28.261	-0.198	-0.166
-425.573	663.532	0.080	-0.205
-424.559	252.806	0.271	0.458
-423.544	84.319	0.147	-0.160
-422.530	36.766	-0.135	0.119
-421.515	228.354	-0.292	-0.471
-420.500	189.903	0.184	-0.273
-419.486	90.445	0.298	-0.330
-418.471	-155.810	-0.183	-0.012
-417.457	215.452	0.059	-0.093
-416.442	-118.236	-0.262	-0.046
-415.428	-14.741	0.041	0.026
-414.413	-86.023	0.249	-0.076
-413.398	137.727	0.161	0.208
-412.384	-184.505	-0.094	0.002
-411.369	315.041	-0.194	-0.363
-410.355	105.082	0.144	-0.169
-409.340	-118.656	-0.302	0.053
-408.325	-32.649	-0.167	0.092
-407.311	-200.000	-0.006	-0.114
-406.296	107.068	-0.143	-0.168
-405.282	677.899	-0.115	-0.297
-404.267	2.137	0.150	-0.107
-403.252	-200.000	0.018	-0.147
-402.238	536.537	0.106	0.249
-401.223	-86.770	-0.111	0.034
-400.209	800.000	0.188	-0.533
-399.194	179.137	0.163	0.236
-398.179	584.450	0.089	-0.217
-397.165	-200.000	-0.012	0.054
-396.150	-99.115	0.204	-0.051
-395.136	-114.869	0.554	-0.105
-394.121	-29.234	0.122	0.069
-393.106	-43.374	-0.078	0.039
-392.092	34.489	0.154	0.133
-391.077	800.000	0.117	0.446
-390.063	-5.918	0.185	0.125
-389.048	-151.803	0.272	0.020
-388.033	148.230	-0.255	0.341
-387.019	-106.026	0.214	-0.048
-386.004	182.180	0.103	-0.150
-384.990	-185.651	-0.088	0.001
-383.975	-75.785	-0.197	0.069
-382.960	-79.781	0.166	-0.055
-381.946	72.727	0.258	-0.266
-380.931	-200.000	0.011	0.238
-379.917	-148.236	-0.208	0.017
-378.902	-132.907	-0.085	-0.011
-377.888	301.557	-0.107	0.196
-376.873	174.351	-0.100	0.143
-375.858	767.056	0.068	-0.184
-374.844	193.453	0.051	-0.076
-373.829	-92.160	0.269	-0.075
-372.815	95.373	-0.190	0.215
-371.800	800.000	-0.018	-0.065
-370.785	-200.000	0.012	-0.161
-369.771	490.621	-0.113	-0.257
-368.756	-200.000	0.009	0.234
-367.742	-78.623	0.288	-0.097
-366.727	-26.306	0.247	-0.144
-365.712	-70.586	-0.140	0.052
-364.698	-171.618	0.313	0.010
-363.683	-39.593	0.153	0.079
-362.669	-200.000	0.011	0.108
-361.654	-200.000	0.024	-0.175
-360.639	-65.144	0.196	-0.078
-359.625	-82.949	-0.192	-0.061
-358.610	-29.635	0.123	-0.070
-357.596	-95.979	-0.275	-0.072
-356.581	171.074	-0.084	0.119
-355.566	-124.161	-0.176	0.027
-354.552	73.371	0.198	0.205
-353.537	-200.000	0.004	-0.077
-352.523	423.508	0.116	0.246
-351.508	26.664	0.271	0.224
-350.493	-99.271	-0.238	0.059
-349.479	-42.221	-0.159	0.081
-348.464	-200.000	0.013	0.087
-347.450	-200.000	-0.005	-0.140
-346.435	-101.703	0.202	-0.048
-345.420	-103.782	0.318	-0.073
-344.406	607.390	-0.022	0.053
-343.391	-200.000	-0.056	0.326
-342.377	-17.999	-0.325	0.202
-341.362	-200.000	0.032	-0.187
-340.348	-200.000	0.039	-0.214
-339.333	-116.289	-0.297	0.054
-338.318	800.000	-0.023	0.095
-337.304	17.522	-0.213	-0.167
-336.289	-151.636	0.190	-0.014
-335.275	141.629	-0.044	0.057
-334.260	-40.311	0.228	-0.117
-333.245	39.615	0.067	0.059
-332.231	-108.456	-0.108	-0.023
-331.216	52.715	-0.203	-0.191
-330.202	-60.668	-0.486	-0.203
-329.187	-188.141	0.280	-0.004
-328.172	447.361	0.042	-0.090
-327.158	-200.000	0.016	0.089
-326.143	-102.689	0.185	0.043
-325.129	112.832	-0.059	0.070
-324.114	-200.000	-0.007	-0.042
-323.099	-79.772	-0.158	-0.053
-322.085	-88.535	-0.049	0.014
-321.070	-200.000	-0.030	0.165
-320.056	238.976	-0.076	0.125
-319.041	-78.343	-0.057	-0.019
-318.026	-49.876	-0.085	-0.040
-317.012	366.399	-0.108	0.216
-315.997	-200.000	0.008	0.065
-314.983	-200.000	0.004	-0.144
-313.968	-136.974	0.318	0.036
-312.953	105.045	0.194	0.226
-311.939	112.729	-0.119	-0.142
-310.924	-137.164	0.174	0.020
-309.910	-97.229	0.087	0.022
-308.895	-137.256	0.249	0.028
-307.880	-200.000	-0.007	-0.051
-306.866	-85.003	0.050	-0.015
-305.851	27.019	0.208	0.172
-304.837	74.810	-0.168	0.175
-303.822	46.799	0.283	-0.260
-302.807	-200.000	0.004	-0.145
-301.793	5.878	0.146	-0.107
-300.778	-200.000	0.061	-0.509
-299.764	165.961	-0.040	0.056
-298.749	39.410	0.199	-0.176
-297.735	255.209	-0.116	-0.196
-296.720	-64.727	0.051	0.021
-295.705	37.230	-0.065	-0.057
-294.691	-33.498	0.299	0.163
-293.676	-41.554	0.150	-0.076
-292.662	420.948	-0.037	0.078
-291.647	171.756	0.027	-0.038
-290.632	800.000	-0.074	0.316
-289.618	-200.000	-0.010	0.357
-288.603	-161.660	-0.079	-0.004
-287.589	32.581	-0.180	0.154
-286.574	-125.191	-0.116	-0.018
-285.559	-200.000	0.013	0.193
-284.545	-139.932	-0.121	-0.013
-283.530	46.622	-0.335	-0.307
-282.516	415.468	-0.098	-0.207
-281.501	-200.000	0.031	0.148
-280.486	262.704	0.170	-0.291
-279.472	-40.774	0.186	-0.095
-278.457	-36.223	0.228	-0.121
-277.443	-200.000	-0.044	-0.318
-276.428	-135.617	0.180	-0.021
-275.413	-105.063	-0.112	-0.025
-274.399	262.704	0.080	0.137
-273.384	-200.000	0.187	0.000
-272.370	-200.000	0.024	-0.115
-271.355	162.117	0.061	0.084
-270.340	-63.031	-0.231	-0.094
-269.326	-48.341	-0.114	0.054
-268.311	-200.000	0.015	0.094
-267.297	-80.437	0.220	0.072
-266.282	496.255	0.148	-0.336
-265.267	38.354	-0.092	-0.081
-264.253	554.692	0.254	0.603
-263.238	-200.000	0.002	-0.093
-262.224	-72.354	-0.106	-0.039
-261.209	-111.193	-0.266	0.054
-260.195	418.318	-0.078	0.164
-259.180	-137.961	0.092	0.010
-258.165	-158.002	0.079	-0.005
-257.151	800.000	-0.153	0.419
-256.136	-145.302	-0.329	0.029
-255.122	-200.000	-0.005	-0.465
-254.107	-135.151	0.222	-0.026
-253.092	-200.000	0.029	0.247
-252.078	722.780	-0.058	0.153
-251.063	224.242	-0.043	-0.068
-250.049	46.000	0.132	-0.120
-249.034	-73.451	0.153	0.055
-248.019	-79.276	0.282	-0.094
-247.005	12.883	-0.134	0.102
-245.990	-162.502	0.360	-0.018
-244.976	800.000	0.099	0.293
-243.961	-200.000	0.034	0.270
-242.946	729.103	-0.076	0.200
-241.932	123.540	-0.161	0.199
-240.917	27.357	-0.302	0.250
-239.903	-194.109	0.144	-0.001
-238.888	16.117	-0.157	0.122
-237.873	59.313	0.280	-0.272
-236.859	-200.000	0.007	0.053
-235.844	-200.000	-0.006	-0.039
-234.830	-111.427	0.287	-0.057
-233.815	-59.576	-0.367	-0.155
-232.800	-87.067	0.219	-0.066
-231.786	137.881	0.142	-0.184
-230.771	-104.008	0.351	-0.081
-229.757	-57.851	0.204	0.088
-228.742	250.230	0.050	0.084
-227.727	62.100	-0.247	-0.243
-226.713	-39.143	-0.070	-0.036
-225.698	137.057	-0.268	-0.345
-224.684	578.184	0.109	-0.263
-223.669	371.980	-0.096	-0.192
-222.655	800.000	-0.060	-0.165
-221.640	469.400	0.079	-0.173
-220.625	28.563	-0.140	-0.116
-219.611	125.176	0.248	-0.308
-218.596	-18.934	0.135	0.083
-217.582	88.077	0.175	-0.191
-216.567	110.749	-0.213	-0.251
-215.552	251.101	-0.099	0.165
-214.538	-117.393	0.151	-0.027
-213.523	-34.864	-0.186	-0.100
-212.509	-75.346	0.106	0.037
-211.494	-103.006	0.139	0.032
-210.479	4.738	0.227	-0.164
-209.465	-14.896	0.222	0.140
-208.450	-59.590	-0.067	0.028
-207.436	293.108	0.044	0.079
-206.421	13.666	0.251	0.192
-205.406	310.512	0.020	0.036
-204.392	-122.923	-0.404	0.064
-203.377	-200.000	0.024	-0.179
-202.363	-97.156	0.353	-0.091
-201.348	800.000	-0.028	0.100
-200.333	6.582	0.187	-0.137
-199.319	-139.358	-0.230	0.024
-198.304	800.000	-0.052	-0.160
-197.290	-90.404	0.204	-0.058
-196.275	84.856	0.179	-0.193
-195.260	157.005	0.039	-0.054
-194.246	-98.054	-0.053	0.013
-193.231	-200.000	0.016	0.186
-192.217	800.000	0.073	-0.232
-191.202	324.275	-0.177	-0.332
-190.187	-200.000	0.022	0.191
-189.173	554.321	0.043	0.102
-188.158	-142.567	0.270	-0.026
-187.144	-128.671	-0.374	-0.052
-186.129	-200.000	-0.053	0.237
-185.114	800.000	0.048	0.179
-184.100	358.345	-0.059	0.117
-183.085	252.099	-0.046	0.076
-182.071	-200.000	-0.009	-0.226
-181.056	-200.000	-0.042	0.304
-180.042	-63.030	-0.064	-0.026
-179.027	76.768	0.133	0.138
-178.012	413.543	0.114	0.239
-176.998	-200.000	-0.012	0.239
-175.983	-200.000	-0.051	-0.332
-174.969	188.138	-0.339	-0.497
-173.954	800.000	-0.061	-0.233
-172.939	33.673	0.082	0.070
-171.925	76.898	0.166	0.173
-170.910	376.972	-0.137	0.275
-169.896	-137.743	-0.073	-0.008
-168.881	-70.710	-0.314	-0.117
-167.866	-96.734	0.538	-0.139
-166.852	-200.000	0.031	0.319
-165.837	-120.111	-0.262	0.044
-164.823	800.000	0.124	0.405
-163.808	7.921	-0.138	-0.102
-162.793	-200.000	-0.027	0.350
-161.779	391.313	-0.069	0.141
-160.764	-51.205	0.538	0.247
-159.750	24.776	0.255	-0.207
-158.735	-82.791	-0.006	-0.002
-157.720	-92.054	-0.320	0.089
-156.706	396.169	0.058	0.119
-155.691	-154.269	-0.572	0.038
-154.677	-107.198	0.294	-0.064
-153.662	552.630	0.110	-0.259
-152.647	-97.520	-0.047	-0.012
-151.633	-8.749	0.192	0.126
-150.618	-23.371	-0.123	-0.073
-149.604	-14.683	0.298	0.188
-148.589	-78.930	0.169	-0.056
-147.574	594.008	-0.088	0.213
-146.560	800.000	-0.040	0.124
-145.545	31.528	-0.024	0.020
-144.531	-200.000	0.055	-0.255
-143.516	-77.323	0.200	-0.068
-142.502	473.699	0.140	0.310
-141.487	800.000	-0.115	0.388
-140.472	693.028	-0.024	-0.062
-139.458	-120.193	-0.518	0.087
-138.443	800.000	0.025	-0.081
-137.429	800.000	-0.100	0.375
-136.414	147.344	-0.061	-0.081
-135.399	223.031	-0.167	0.264
-134.385	-200.000	0.026	0.129
-133.370	-47.769	0.017	-0.008
-132.356	388.418	-0.048	-0.097
-131.341	-200.000	0.001	-0.205
-130.326	-19.483	0.177	0.108
-129.312	320.694	-0.161	-0.299
-128.297	237.517	0.092	0.150
-127.283	232.411	0.129	0.208
-126.268	-40.663	-0.059	-0.030
-125.253	260.515	-0.114	0.194
-124.239	-200.000	-0.016	0.138
-123.224	183.945	-0.170	0.246
-122.210	190.833	0.129	0.191
-121.195	144.648	0.123	0.161
-120.180	-200.000	0.049	-0.258
-119.166	2.130	-0.100	-0.071
-118.151	50.821	-0.060	0.056
-117.137	800.000	-0.035	0.126
-116.122	-28.130	-0.236	-0.134
-115.107	179.301	0.065	0.093
-114.093	800.000	-0.042	-0.152
-113.078	800.000	0.009	-0.031
-112.064	800.000	-0.036	0.141
-111.049	800.000	-0.077	0.210
-110.034	159.095	-0.115	-0.157
-109.020	47.326	0.252	0.230
-108.005	-200.000	0.001	0.328
-106.991	-144.536	0.300	0.027
-105.976	96.242	0.093	-0.105
-104.962	-200.000	0.035	0.157
-103.947	-3.150	-0.163	0.111
-102.932	456.622	0.098	0.213
-101.918	800.000	-0.056	0.191
-100.903	37.262	-0.198	0.172
-99.889	526.586	-0.060	0.138
-98.874	-200.000	-0.026	0.153
-97.859	800.000	0.101	-0.336
-96.845	-67.099	0.170	-0.066
-95.830	532.506	-0.046	0.107
-94.816	-126.648	-0.181	0.026
-93.801	-53.651	0.340	0.152
-92.786	48.322	-0.248	0.227
-91.772	-200.000	-0.014	-0.077
-90.757	800.000	0.034	0.133
-89.743	-63.950	0.257	-0.103
-88.728	53.547	-0.068	-0.064
-87.713	417.029	0.033	-0.068
-86.699	-116.557	-0.362	0.065
-85.684	-44.581	-0.182	0.089
-84.670	-151.199	0.245	-0.018
-83.655	-163.244	0.213	0.010
-82.640	236.390	0.223	-0.361
-81.626	-43.750	-0.287	0.141
-80.611	64.350	-0.213	0.210
-79.597	519.956	-0.145	0.332
-78.582	76.965	0.070	-0.073
-77.567	-39.866	0.125	-0.064
-76.553	800.000	0.078	0.235
-75.538	-43.040	0.407	0.202
-74.524	574.746	-0.158	0.378
-73.509	46.470	0.009	-0.008
-72.494	-110.015	-0.093	-0.019
-71.480	-200.000	0.010	0.184
-70.465	297.674	-0.033	0.060
-69.451	-69.808	-0.143	-0.053
-68.436	-110.204	-0.281	0.057
-67.422	-166.561	0.375	-0.015
-66.407	-3.648	0.276	0.187
-65.392	-87.348	0.239	-0.071
-64.378	-58.732	-0.152	0.064
-63.363	-47.050	0.163	0.078
-62.349	284.116	-0.108	0.190
-61.334	55.314	-1.053	-0.996
-60.319	8.156	0.705	0.517
-59.305	688.806	-0.465	-1.190
-58.290	126.132	0.646	0.798
-57.276	431.280	0.717	1.519
-56.261	-200.000	117.435	637.883
-55.246	481.544	1551.463	3441.821
-54.232	174.007	2721.435	3840.924
-53.217	104.268	2159.630	2482.829
-52.203	38.135	1590.890	1383.180
-51.188	29.740	1333.221	1109.011
-50.173	26.869	1294.741	1060.207
-49.159	51.987	1353.932	1259.737
-48.144	50.630	1366.858	1263.603
-47.130	29.763	1320.119	1098.076
-46.115	26.491	1302.524	1064.191
-45.100	26.301	1297.530	1058.956
-44.086	26.281	1294.809	1056.574
-43.071	26.135	1292.481	1053.782
-42.057	26.231	1290.486	1052.671
-41.042	26.205	1288.863	1051.155
-40.027	26.251	1287.440	1050.220
-39.013	26.277	1284.773	1048.153
-37.998	26.258	1283.296	1046.796
-36.984	26.253	1282.105	1045.755
-35.969	26.363	1280.132	1044.743
-34.954	26.472	1277.694	1043.339
-33.940	26.395	1276.696	1042.034
-32.925	26.352	1275.631	1040.882
-31.911	26.411	1273.964	1039.816
-30.896	26.340	1273.037	1038.613
-29.881	26.495	1271.188	1037.952
-28.867	26.595	1269.575	1037.163
-27.852	26.602	1268.593	1036.365
-26.838	26.507	1266.936	1034.423
-25.823	26.480	1265.665	1033.191
-24.809	26.501	1264.504	1032.320
-23.794	26.453	1263.246	1030.981
-22.779	26.470	1261.828	1029.879
-21.765	26.578	1260.263	1029.174
-20.750	26.366	1259.717	1027.486
-19.736	26.233	1258.144	1025.406
-18.721	26.279	1256.975	1024.671
-17.706	26.341	1255.673	1023.922
-16.692	26.336	1254.788	1023.130
-15.677	26.360	1253.422	1022.114
-14.663	26.310	1252.190	1020.786
-13.648	26.296	1251.512	1020.114
-12.633	26.321	1250.171	1019.123
-11.619	26.393	1249.093	1018.609
-10.604	26.431	1248.411	1018.220
-9.590	26.188	1247.849	1016.356
-8.575	26.318	1246.140	1015.656
-7.560	26.338	1245.742	1015.402
-6.546	26.333	1244.802	1014.568
-5.531	26.337	1244.142	1014.015
-4.517	26.391	1242.812	1013.189
-3.502	26.329	1242.128	1012.246
-2.487	26.464	1241.288	1012.277
-1.473	26.158	1237.805	1007.688
-0.458	24.679	1221.948	986.586
0.556	21.297	1205.424	948.517
1.571	17.620	1211.124	932.824
2.586	16.814	1225.550	939.389
3.600	16.646	1213.456	929.112
4.615	12.652	1143.279	854.603
5.629	6.273	1073.017	770.848
6.644	3.650	1055.293	745.396
7.659	3.311	1053.649	742.535
8.673	3.382	1052.534	742.025
9.688	3.387	1051.353	741.152
10.702	3.608	1049.364	740.742
11.717	7.233	1053.525	761.056
12.731	14.138	1063.804	801.802
13.746	18.668	1069.038	827.570
14.761	19.523	1070.020	832.383
15.775	18.741	1068.097	827.046
16.790	17.797	1065.901	820.736
17.804	17.182	1064.036	816.272
18.819	16.718	1063.378	813.464
19.834	16.593	1062.234	811.922
20.848	16.354	1061.962	810.492
21.863	16.191	1060.541	808.556
22.877	16.032	1060.375	807.594
23.892	16.078	1059.730	807.254
24.907	16.110	1058.833	806.650
25.921	16.115	1057.677	805.721
26.936	16.176	1056.387	804.961
27.950	16.188	1055.370	804.171
28.965	16.303	1053.692	803.371
29.980	16.395	1051.953	802.409
30.994	16.373	1051.379	801.797
32.009	16.448	1050.322	801.274
33.023	16.327	1049.250	799.812
34.038	16.331	1047.625	798.523
35.053	16.236	1047.138	797.632
36.067	16.192	1046.390	796.785
37.082	16.260	1045.912	796.670
38.096	16.272	1045.018	795.974
39.111	16.298	1044.472	795.613
40.126	16.210	1042.926	793.947
41.140	15.965	1041.166	791.389
42.155	15.939	1039.752	790.121
43.169	15.883	1038.846	789.100
44.184	15.959	1037.694	788.511
45.199	15.715	1037.512	787.161
46.213	16.027	1036.229	787.577
47.228	16.246	1034.746	787.404
48.242	16.339	1033.786	787.037
49.257	16.107	1033.171	785.414
50.271	16.164	1032.459	785.069
51.286	16.231	1031.633	784.685
52.301	16.278	1030.817	784.213
53.315	16.154	1029.387	782.483
54.330	16.044	1028.455	781.192
55.344	15.996	1027.710	780.338
56.359	16.003	1026.971	779.739
57.374	15.995	1025.994	778.892
58.388	15.889	1025.205	777.732
59.403	15.879	1024.112	776.788
60.417	15.819	1023.698	776.130
61.432	15.866	1022.745	775.554
62.447	15.918	1021.701	774.934
63.461	15.788	1021.105	773.817
64.476	15.716	1020.340	772.838
65.490	15.813	1019.055	772.239
66.505	15.842	1018.730	772.060
67.520	15.835	1018.190	771.550
68.534	15.821	1017.336	770.768
69.549	15.729	1016.702	769.801
70.563	15.792	1015.706	769.264
71.578	15.780	1014.717	768.391
72.593	15.624	1014.176	767.204
73.607	15.502	1013.634	766.168
74.622	15.634	1012.768	766.049
75.636	15.724	1011.711	765.589
76.651	15.617	1011.323	764.742
77.666	15.719	1010.802	764.743
78.680	15.776	1009.848	764.215
79.695	15.683	1009.822	763.704
80.709	15.902	1009.045	764.043
81.724	15.832	1008.672	763.375
82.739	16.020	1007.484	763.263
83.753	16.217	1006.656	763.459
84.768	16.354	1005.736	763.309
85.782	16.461	1004.924	763.110
86.797	16.337	1004.233	761.958
87.812	16.112	1003.279	760.154
88.826	16.277	1002.095	759.929
89.841	16.386	1001.194	759.671
90.855	16.333	1000.487	758.830
91.870	16.305	999.976	758.248
92.884	16.446	998.719	757.861
93.899	16.222	998.065	756.296
94.914	16.540	997.025	756.863
95.928	16.406	996.499	755.798
96.943	16.380	995.558	754.899
97.957	16.207	994.615	753.345
98.972	16.374	993.428	753.126
99.987	16.284	992.774	752.160
101.001	16.274	991.858	751.357
102.016	16.356	990.865	750.902
103.030	16.389	990.105	750.407
104.045	16.362	989.205	749.537
105.060	16.148	988.387	747.901
106.074	15.977	987.485	746.399
107.089	15.927	986.603	745.441
108.103	15.954	985.557	744.706
109.118	15.958	984.576	743.917
110.133	15.887	983.927	743.048
111.147	15.804	983.385	742.208
112.162	15.878	981.998	741.422
113.176	16.048	981.503	741.728
114.191	16.018	980.988	741.139
115.206	15.964	980.444	740.430
116.220	16.060	979.130	739.790
117.235	16.097	978.055	739.077
118.249	15.906	977.669	737.880
119.264	16.092	976.547	737.783
120.279	15.932	975.666	736.353
121.293	15.719	975.487	735.222
122.308	15.819	974.227	734.645
123.322	15.753	973.141	733.474
124.337	15.880	972.061	733.146
125.352	15.845	970.891	732.046
126.366	15.818	970.168	731.318
127.381	15.808	969.274	730.537
128.395	15.801	968.122	729.574
129.410	15.933	967.432	729.561
130.424	16.034	966.299	729.081
131.439	16.048	965.853	728.741
132.454	15.930	965.281	727.734
133.468	16.055	964.479	727.606
134.483	15.945	963.832	726.577
135.497	15.988	963.034	726.096
136.512	16.116	961.545	725.460
137.527	16.092	961.127	724.979
138.541	16.066	960.440	724.282
139.556	16.049	959.759	723.634
140.570	16.271	958.919	723.887
141.585	16.293	958.302	723.454
142.600	16.304	957.607	722.909
143.614	16.530	956.420	722.917
144.629	16.409	956.415	722.332
145.643	16.419	955.239	721.424
146.658	16.190	954.605	719.904
147.673	16.139	953.355	718.678
148.687	16.090	952.361	717.656
149.702	16.151	951.238	717.009
150.716	16.108	950.763	716.405
151.731	16.222	949.785	716.087
152.746	16.182	949.360	715.532
153.760	16.217	948.556	715.010
154.775	16.227	948.547	714.985
155.789	16.361	947.271	714.526
156.804	16.344	946.689	713.954
157.819	16.420	946.415	714.005
158.833	16.417	945.699	713.387
159.848	16.480	944.817	712.925
160.862	16.512	943.570	712.055
161.877	16.267	942.883	710.441
162.892	16.165	941.430	708.858
163.906	16.255	940.463	708.445
164.921	16.333	940.029	708.380
165.935	16.281	938.984	707.311
166.950	16.343	938.285	706.983
167.964	16.388	937.194	706.287
168.979	16.280	936.218	705.038
169.994	16.389	935.437	704.844
171.008	16.332	934.762	704.032
172.023	16.527	934.342	704.468
173.037	16.524	933.612	703.843
174.052	16.539	933.035	703.406
175.067	16.237	932.121	701.401
176.081	16.318	931.368	701.109
177.096	16.264	930.668	700.297
178.110	16.389	930.382	700.538
179.125	16.268	930.197	699.833
180.140	16.407	929.508	699.831
181.154	16.511	929.024	699.834
182.169	16.658	928.684	700.125
183.183	16.606	927.762	699.153
184.198	16.647	926.824	698.552
185.213	16.532	926.443	697.728
186.227	16.701	925.654	697.769
187.242	16.729	925.307	697.561
188.256	16.621	924.741	696.630
189.271	16.646	924.246	696.299
190.286	16.472	922.897	694.504
191.300	16.364	921.798	693.172
192.315	16.318	920.978	692.307
193.329	16.334	920.551	691.989
194.344	16.361	920.155	691.741
195.359	16.445	919.421	691.472
196.373	16.521	919.407	691.709
197.388	16.648	918.838	691.739
198.402	16.893	918.000	692.049
199.417	16.943	917.420	691.756
200.432	17.043	917.225	691.954
201.446	17.004	916.877	691.470
202.461	17.139	916.383	691.587
203.475	16.892	916.116	690.318
204.490	16.874	914.226	688.760
205.504	16.844	913.989	688.398
206.519	16.926	913.271	688.132
207.534	16.749	912.719	686.935
208.548	16.846	912.188	686.869
209.563	16.834	911.332	686.116
210.577	16.923	910.660	685.907
211.592	17.008	909.810	685.551
212.607	17.011	909.142	684.999
213.621	17.128	908.647	685.035
214.636	17.083	907.909	684.237
215.650	16.927	907.565	683.291
216.665	17.033	907.063	683.277
217.680	17.264	905.815	683.206
218.694	17.183	905.306	682.435
219.709	17.197	904.744	682.011
220.723	17.050	904.068	680.850
221.738	17.037	903.473	680.290
222.753	17.082	902.734	679.855
223.767	17.203	901.970	679.701
224.782	17.320	901.592	679.825
225.796	17.285	901.395	679.477
226.811	17.350	900.066	678.675
227.826	17.185	899.541	677.558
228.840	17.094	898.767	676.553
229.855	17.171	898.039	676.254
230.869	17.212	897.248	675.759
231.884	17.019	896.877	674.653
232.899	17.159	895.645	674.224
233.913	16.988	895.474	673.358
234.928	16.980	895.004	672.912
235.942	17.115	894.142	672.739
236.957	16.936	893.931	671.812
237.972	17.114	893.086	671.819
238.986	16.994	892.758	671.038
240.001	17.043	891.792	670.450
241.015	17.294	890.992	670.778
242.030	17.240	890.683	670.272
243.045	17.340	890.129	670.192
244.059	17.260	889.829	669.590
245.074	17.406	888.834	669.356
246.088	17.381	888.084	668.637
247.103	17.410	888.140	668.730
248.117	17.465	887.581	668.467
249.132	17.722	886.865	668.877
250.147	17.875	886.598	669.216
251.161	17.953	885.417	668.570
252.176	17.958	884.776	668.048
253.190	17.911	884.191	667.364
254.205	17.901	884.031	667.145
255.220	17.838	883.322	666.303
256.234	18.002	882.520	666.281
257.249	17.908	881.654	665.203
258.263	17.956	880.903	664.764
259.278	17.954	880.578	664.451
260.293	17.978	879.758	663.867
261.307	17.967	879.325	663.436
262.322	18.096	878.654	663.374
263.336	18.075	877.752	662.552
264.351	18.135	877.238	662.340
265.366	18.064	876.808	661.683
266.380	18.033	876.232	661.069
267.395	17.980	875.193	660.022
268.409	17.848	874.878	659.215
269.424	17.907	874.126	658.817
270.439	17.928	873.440	658.324
271.453	18.071	872.199	657.880
272.468	17.913	872.336	657.317
273.482	17.892	871.746	656.733
274.497	17.852	871.167	656.085
275.512	17.927	870.125	655.531
276.526	17.871	870.139	655.267
277.541	17.919	869.775	655.120
278.555	18.117	869.112	655.321
279.570	18.234	868.149	654.985
280.585	18.199	867.909	654.614
281.599	18.257	866.580	653.775
282.614	18.069	865.931	652.510
283.628	18.126	865.591	652.413
284.643	18.125	864.778	651.740
285.657	18.139	864.196	651.294
286.672	18.055	863.762	650.590
287.687	17.950	863.503	649.937
288.701	18.086	862.821	649.883
289.716	18.308	861.798	649.899
290.730	18.262	861.474	649.422
291.745	18.221	860.909	648.785
292.760	18.338	860.452	648.825
293.774	18.336	859.969	648.395
294.789	18.279	859.174	647.525
295.803	18.227	858.171	646.515
296.818	18.028	857.934	645.526
297.833	18.208	856.556	645.112
298.847	18.245	856.577	645.209
299.862	18.312	856.147	645.080
300.876	18.207	855.585	644.207
301.891	18.313	855.205	644.261
302.906	18.512	854.505	644.425
303.920	18.526	853.914	643.975
304.935	18.523	853.116	643.304
305.949	18.618	852.811	643.374
306.964	18.598	851.822	642.495
307.979	18.545	851.626	642.095
308.993	18.665	850.902	641.940
310.008	18.664	850.365	641.474
311.022	18.555	849.829	640.607
312.037	18.607	848.766	639.940
313.052	18.432	848.162	638.778
314.066	18.342	847.451	637.851
315.081	18.198	847.328	637.165
316.095	18.497	846.327	637.468
317.110	18.451	846.057	637.036
318.125	18.423	845.601	636.531
319.139	18.369	845.035	635.849
320.154	18.614	844.515	636.310
321.168	18.634	844.138	636.045
322.183	18.488	843.505	634.971
323.197	18.352	843.538	634.438
324.212	18.628	842.532	634.645
325.227	18.462	841.704	633.352
326.241	18.483	841.481	633.204
327.256	18.625	840.793	633.154
328.270	18.558	840.344	632.515
329.285	18.520	839.933	632.010
330.300	18.583	838.958	631.452
331.314	18.548	838.827	631.166
332.329	18.713	838.620	631.563
333.343	18.716	837.920	630.989
334.358	18.756	837.419	630.706
335.373	18.657	836.967	629.944
336.387	18.757	837.099	630.356
337.402	18.712	836.874	629.967
338.416	18.993	836.022	630.299
339.431	18.933	835.750	629.818
340.446	19.080	835.299	629.962
341.460	19.075	835.284	629.873
342.475	19.115	834.468	629.351
343.489	19.119	834.002	628.959
344.504	19.245	833.782	629.197
345.519	19.350	833.052	628.971
346.533	19.119	832.799	627.883
347.548	19.002	832.321	627.042
348.562	18.759	831.879	625.767
349.577	18.902	830.892	625.491
350.592	18.950	830.184	625.075
351.606	18.843	829.608	624.199
352.621	19.008	828.737	624.085
353.635	18.893	828.633	623.536
354.650	19.081	827.724	623.476
355.665	19.009	827.701	623.143
356.679	19.118	826.645	622.689
357.694	19.153	825.816	622.136
358.708	19.067	825.391	621.451
359.723	19.080	824.840	621.027
360.738	19.062	824.309	620.506
361.752	19.148	823.744	620.337
362.767	19.348	822.935	620.391
363.781	19.355	822.439	619.988
364.796	19.443	822.275	620.126
365.810	19.545	821.825	620.100
366.825	19.482	821.343	619.456
367.840	19.447	820.985	619.005
368.854	19.317	820.678	618.252
369.869	19.484	820.020	618.300
370.883	19.602	819.408	618.205
371.898	19.630	819.473	618.299
372.913	19.654	819.191	618.118
373.927	19.538	818.163	616.875
374.942	19.556	817.805	616.613
375.956	19.595	817.526	616.486
376.971	19.641	817.128	616.297
377.986	19.831	816.570	616.499
379.000	19.908	815.939	616.242
380.015	19.704	815.812	615.364
381.029	19.802	814.715	614.833
382.044	19.719	814.327	614.188
383.059	19.655	814.089	613.730
384.073	19.634	813.536	613.183
385.088	19.520	812.552	611.982
386.102	19.528	811.861	611.438
387.117	19.612	811.405	611.338
388.132	19.656	810.629	610.852
389.146	19.679	810.578	610.841
390.161	19.715	810.161	610.600
391.175	19.737	809.475	610.107
392.190	19.408	809.668	609.036
393.205	19.661	808.622	609.087
394.219	19.624	808.416	608.749
395.234	19.489	807.959	607.875
396.248	19.573	807.545	607.807
397.263	19.521	806.884	607.072
398.278	19.516	806.295	606.560
399.292	19.504	805.821	606.106
400.307	19.643	805.170	606.049
401.321	19.661	804.754	605.745
402.336	19.682	804.453	605.539
403.350	19.692	804.202	605.332
404.365	19.811	803.695	605.315
405.380	19.882	803.565	605.412
406.394	19.958	802.826	605.064
407.409	19.959	802.778	604.978
408.423	20.071	802.539	605.138
409.438	20.187	802.117	605.169
410.453	20.150	801.601	604.599
411.467	20.257	800.882	604.373
412.482	20.135	800.605	603.687
413.496	20.307	800.333	604.027
414.511	20.155	799.948	603.155
415.526	20.232	799.252	602.843
416.540	20.270	798.711	602.516
417.555	20.234	798.393	602.098
418.569	20.076	797.972	601.177
419.584	20.214	797.798	601.471
420.599	20.479	796.894	601.655
421.613	162.465	1371.800	1796.477
422.628	140.963	1455.556	1796.528
