DTS Sentinel unit serial number:	SN413079Multiplexer serial number:	ORYXHardware model number:	OX4-SRSoftware version number:	ORYX F/W v4.00 Oryx Data Collector v3.7.2.0data status	okinstallation	princeton_trtdifferential loss correction	single-endedforward channel	channel 1reverse channel	N/Adate	2019/09/14time	01:46:35forward acquisition time	60.00reverse acquisition time	0.00gamma	496.2192k internal	0.2336k external	0.2336temperature offset calibration	1.0079default loss term (dB/km)	0.3790temperature slope calibration	1.0000multiplexer offset coefficient	1.0000multiplexer slope coefficient	1.0000fibre end	0.00T internal ref (°C)	26.44T ext. ref 1 (°C)	3.19T ext. ref 2 (°C)	21.45length (m)	temperature (°C)	Stokes	anti-Stokes-747.200	-200.000	-0.010	-0.243
-746.185	196.625	-0.182	0.278
-745.171	6.243	0.089	-0.066
-744.156	-39.384	-0.324	-0.171
-743.142	-122.756	0.146	-0.024
-742.127	-200.000	-0.024	-0.213
-741.112	-51.405	-0.121	0.057
-740.098	126.905	0.141	0.179
-739.083	800.000	-0.095	0.406
-738.069	800.000	0.130	0.408
-737.054	-68.055	-0.139	-0.055
-736.039	480.611	-0.100	-0.229
-735.025	-124.185	0.335	0.053
-734.010	105.344	-0.073	0.087
-732.996	267.760	-0.126	-0.222
-731.981	800.000	-0.035	-0.120
-730.966	-108.669	-0.112	-0.024
-729.952	238.988	0.175	-0.292
-728.937	711.052	-0.014	-0.037
-727.923	-63.424	-0.087	0.036
-726.908	-200.000	-0.030	-0.142
-725.894	-44.491	-0.145	-0.073
-724.879	-89.504	0.138	-0.041
-723.864	358.998	-0.126	-0.252
-722.850	-115.466	0.311	0.059
-721.835	149.653	-0.175	0.238
-720.821	-94.965	0.353	-0.096
-719.806	339.028	-0.125	-0.244
-718.791	-129.627	0.270	0.037
-717.777	50.240	-0.244	0.231
-716.762	-119.151	0.400	-0.070
-715.748	-200.000	-0.008	-0.069
-714.733	-82.021	0.385	-0.126
-713.718	-57.785	0.104	-0.046
-712.704	91.161	0.067	-0.076
-711.689	-21.154	0.071	0.044
-710.675	29.301	0.224	-0.191
-709.660	13.093	-0.119	0.093
-708.645	-200.000	-0.022	0.143
-707.631	800.000	-0.179	0.525
-706.616	533.671	0.206	0.489
-705.602	154.488	-0.192	0.264
-704.587	-200.000	0.026	0.183
-703.572	-35.203	0.129	-0.071
-702.558	425.985	0.129	-0.278
-701.543	476.827	0.140	-0.316
-700.529	-46.655	0.219	-0.108
-699.514	177.118	-0.200	0.291
-698.499	225.030	0.146	0.237
-697.485	183.306	-0.075	-0.111
-696.470	800.000	-0.081	-0.250
-695.456	311.951	0.081	-0.152
-694.441	-32.515	0.217	0.121
-693.426	-50.342	-0.301	-0.142
-692.412	800.000	-0.079	-0.307
-691.397	-80.876	0.200	0.067
-690.383	-83.652	-0.220	0.070
-689.368	84.175	0.256	-0.281
-688.354	385.327	0.052	0.107
-687.339	-40.738	-0.376	-0.195
-686.324	-79.211	-0.123	0.042
-685.310	-200.000	0.017	-0.110
-684.295	4.781	0.174	0.128
-683.281	-200.000	0.003	-0.192
-682.266	-114.501	0.465	-0.089
-681.251	4.414	-0.064	-0.047
-680.237	-108.598	-0.156	-0.034
-679.222	-106.799	0.136	-0.030
-678.208	155.067	-0.095	0.131
-677.193	-200.000	-0.012	-0.159
-676.178	800.000	-0.040	-0.169
-675.164	27.123	0.315	0.265
-674.149	-200.000	-0.012	-0.176
-673.135	43.537	-0.108	0.099
-672.120	150.625	0.167	0.227
-671.105	-34.406	-0.138	0.076
-670.091	800.000	0.136	-0.383
-669.076	-157.674	-0.352	-0.021
-668.062	183.547	-0.034	0.050
-667.047	-1.428	-0.056	-0.040
-666.032	-105.462	-0.081	-0.019
-665.018	-200.000	-0.031	0.349
-664.003	800.000	0.114	-0.397
-662.989	-195.602	0.421	-0.003
-661.974	516.093	-0.130	0.303
-660.959	-137.152	-0.159	0.018
-659.945	-200.000	0.033	-0.234
-658.930	-54.757	0.169	-0.076
-657.916	-200.000	0.033	-0.147
-656.901	800.000	-0.097	-0.314
-655.886	84.216	-0.093	0.102
-654.872	141.838	-0.276	0.366
-653.857	72.390	0.160	0.166
-652.843	147.336	0.087	0.117
-651.828	34.840	0.109	-0.096
-650.814	14.612	-0.188	-0.147
-649.799	100.871	-0.081	0.094
-648.784	-95.988	-0.312	-0.083
-647.770	264.198	0.157	-0.274
-646.755	25.140	0.245	-0.203
-645.741	800.000	-0.043	0.156
-644.726	216.436	-0.176	-0.279
-643.711	-46.446	-0.143	-0.070
-642.697	-13.398	0.130	0.084
-641.682	800.000	-0.068	-0.296
-640.668	-200.000	-0.004	-0.211
-639.653	110.102	-0.219	-0.263
-638.638	245.237	-0.073	-0.123
-637.624	800.000	-0.065	-0.210
-636.609	448.938	-0.134	-0.294
-635.595	121.309	0.081	0.101
-634.580	-93.243	-0.281	0.078
-633.565	-121.688	-0.013	0.002
-632.551	800.000	-0.057	-0.224
-631.536	222.161	0.142	-0.229
-630.522	800.000	0.094	0.272
-629.507	727.315	-0.029	0.076
-628.492	-200.000	-0.019	0.140
-627.478	-6.747	0.381	-0.259
-626.463	-200.000	-0.037	-0.575
-625.449	-7.541	0.394	-0.266
-624.434	120.512	-0.210	0.261
-623.419	-57.960	0.268	0.117
-622.405	-200.000	-0.050	-0.392
-621.390	-200.000	-0.051	-0.357
-620.376	-80.373	-0.170	-0.057
-619.361	-200.000	-0.010	0.218
-618.346	-200.000	-0.002	-0.100
-617.332	462.780	0.097	0.215
-616.317	-200.000	-0.018	0.239
-615.303	235.779	0.141	-0.232
-614.288	-114.603	-0.031	0.006
-613.273	52.383	-0.080	-0.076
-612.259	-78.114	0.381	0.131
-611.244	81.065	-0.244	-0.263
-610.230	-118.073	-0.322	-0.058
-609.215	-200.000	-0.023	-0.192
-608.201	553.530	-0.063	0.150
-607.186	-143.995	-0.122	0.011
-606.171	182.775	-0.253	-0.372
-605.157	46.236	0.101	-0.094
-604.142	-200.000	0.024	0.160
-603.128	-200.000	-0.017	0.146
-602.113	-134.232	0.189	-0.023
-601.098	-151.882	0.236	0.017
-600.084	-200.000	-0.000	0.093
-599.069	-200.000	0.006	0.172
-598.055	-200.000	0.019	0.139
-597.040	213.494	0.120	-0.189
-596.025	-104.186	-0.077	0.018
-595.011	-102.426	0.111	0.027
-593.996	800.000	0.126	-0.363
-592.982	63.939	0.129	0.130
-591.967	-137.271	-0.344	0.039
-590.952	101.349	0.053	0.062
-589.938	-138.844	-0.342	0.037
-588.923	-13.307	0.452	-0.293
-587.909	-142.222	0.343	0.034
-586.894	800.000	-0.043	0.121
-585.879	-67.212	-0.032	-0.013
-584.865	-78.088	-0.154	-0.053
-583.850	514.671	0.085	0.198
-582.836	-55.676	-0.287	-0.128
-581.821	144.340	-0.198	0.264
-580.806	521.112	0.159	0.372
-579.792	88.463	-0.279	-0.310
-578.777	-117.439	-0.090	0.016
-577.763	-12.688	0.446	-0.290
-576.748	32.889	-0.198	-0.171
-575.733	26.468	-0.161	-0.134
-574.719	337.482	0.061	0.117
-573.704	293.814	-0.041	0.074
-572.690	101.158	0.236	0.274
-571.675	-200.000	-0.042	-0.193
-570.661	800.000	-0.078	0.336
-569.646	23.794	0.110	0.090
-568.631	-200.000	0.019	0.110
-567.617	800.000	-0.017	-0.050
-566.602	143.726	-0.141	-0.187
-565.588	-200.000	0.002	0.151
-564.573	95.660	-0.027	-0.030
-563.558	412.038	0.090	0.191
-562.544	169.490	-0.058	-0.083
-561.529	-30.298	0.225	0.128
-560.515	42.675	0.167	0.152
-559.500	-94.456	-0.168	-0.046
-558.485	106.140	0.173	0.205
-557.471	-200.000	-0.016	0.191
-556.456	-68.664	-0.156	-0.060
-555.442	-83.486	0.277	-0.088
-554.427	-71.167	0.496	0.186
-553.412	83.492	-0.048	0.052
-552.398	105.710	-0.153	-0.180
-551.383	373.091	-0.048	-0.098
-550.369	117.481	-0.054	-0.066
-549.354	-137.762	-0.053	0.006
-548.339	-83.390	-0.160	0.051
-547.325	800.000	0.053	-0.190
-546.310	-200.000	0.032	-0.335
-545.296	800.000	-0.084	-0.302
-544.281	72.399	0.120	0.125
-543.266	88.740	0.100	0.111
-542.252	800.000	-0.090	-0.253
-541.237	-102.782	0.299	0.071
-540.223	-200.000	0.001	0.248
-539.208	127.353	0.027	-0.034
-538.193	144.862	-0.111	-0.148
-537.179	230.616	-0.036	-0.058
-536.164	-200.000	-0.114	-0.531
-535.150	-122.017	-0.204	0.033
-534.135	-140.137	-0.400	-0.042
-533.121	-182.285	0.126	-0.002
-532.106	-200.000	0.025	-0.187
-531.091	277.219	-0.122	-0.216
-530.077	-95.163	0.145	0.039
-529.062	125.244	0.207	-0.260
-528.048	-200.000	0.008	0.066
-527.033	92.049	0.239	-0.268
-526.018	44.206	-0.417	0.381
-525.004	-27.925	0.085	-0.049
-523.989	-57.032	-0.379	-0.166
-522.975	-200.000	0.018	-0.256
-521.960	-200.000	0.029	-0.158
-520.945	-55.773	-0.247	-0.110
-519.931	-200.000	0.002	0.183
-518.916	49.512	-0.116	0.109
-517.902	21.181	0.266	-0.215
-516.887	685.583	-0.083	0.216
-515.872	93.885	0.115	0.129
-514.858	431.924	-0.064	0.139
-513.843	-7.565	-0.161	0.108
-512.829	-79.837	0.086	0.029
-511.814	98.667	0.055	-0.063
-510.799	800.000	0.055	-0.173
-509.785	-198.845	0.354	0.002
-508.770	-39.863	-0.178	0.092
-507.756	-120.591	-0.339	0.057
-506.741	-146.758	-0.125	-0.011
-505.726	-93.751	0.198	-0.054
-504.712	81.398	-0.189	-0.203
-503.697	-200.000	0.007	-0.080
-502.683	-80.620	0.261	0.087
-501.668	-66.411	-0.174	-0.069
-500.653	-200.000	0.003	0.253
-499.639	-148.624	0.166	-0.013
-498.624	-65.726	-0.272	0.108
-497.610	-200.000	-0.012	0.094
-496.595	-15.652	0.167	0.106
-495.581	-200.000	-0.010	-0.046
-494.566	-200.000	-0.027	0.130
-493.551	-200.000	-0.064	-0.303
-492.537	-30.447	0.132	0.075
-491.522	800.000	-0.111	0.360
-490.508	-29.039	0.127	-0.072
-489.493	-96.033	0.212	-0.056
-488.478	-200.000	-0.007	0.235
-487.464	-145.169	0.229	0.021
-486.449	-55.365	-0.214	-0.095
-485.435	-44.160	-0.313	0.156
-484.420	-55.179	0.075	0.034
-483.405	800.000	-0.039	-0.168
-482.391	17.214	0.050	0.039
-481.376	104.024	0.097	-0.113
-480.362	-114.189	-0.259	-0.050
-479.347	-37.615	0.085	-0.045
-478.332	-137.827	-0.166	-0.018
-477.318	-10.524	-0.064	0.042
-476.303	477.448	0.071	0.161
-475.289	46.683	-0.077	-0.071
-474.274	-118.979	0.231	0.040
-473.259	654.387	-0.059	0.151
-472.245	11.877	-0.089	-0.068
-471.230	-115.191	0.179	0.034
-470.216	79.016	-0.105	-0.112
-469.201	95.206	-0.107	0.121
-468.186	800.000	0.046	0.174
-467.172	-200.000	0.061	0.352
-466.157	-53.028	-0.192	-0.088
-465.143	-200.000	-0.115	-0.697
-464.128	-200.000	-0.059	-0.330
-463.113	191.793	0.131	0.195
-462.099	-49.131	0.128	-0.061
-461.084	800.000	-0.168	-0.490
-460.070	43.638	0.248	-0.225
-459.055	744.807	0.090	-0.239
-458.040	18.213	0.138	0.109
-457.026	324.708	-0.110	-0.209
-456.011	185.608	0.121	0.179
-454.997	800.000	0.099	0.397
-453.982	29.642	0.100	0.084
-452.968	116.470	0.101	0.123
-451.953	158.915	0.085	0.117
-450.938	-108.929	-0.257	0.054
-449.924	-96.646	-0.107	-0.028
-448.909	-130.025	0.108	0.015
-447.895	1.631	0.088	0.063
-446.880	-200.000	-0.059	-0.293
-445.865	-200.000	-0.010	0.107
-444.851	35.289	0.161	0.140
-443.836	-31.047	0.193	0.108
-442.822	40.452	0.227	-0.203
-441.807	111.031	-0.118	-0.141
-440.792	800.000	-0.004	-0.011
-439.778	-74.419	0.223	0.080
-438.763	0.696	0.030	0.021
-437.749	114.089	0.142	0.171
-436.734	15.682	0.084	0.065
-435.719	-58.220	-0.167	0.072
-434.705	-106.913	-0.010	0.002
-433.690	407.225	-0.037	0.078
-432.676	-200.000	-0.066	0.316
-431.661	-200.000	0.011	-0.134
-430.646	-15.445	-0.130	0.083
-429.632	-200.000	-0.027	0.273
-428.617	-52.305	-0.193	-0.089
-427.603	14.063	-0.082	-0.063
-426.588	-200.000	-0.016	0.160
-425.573	-39.385	-0.584	-0.304
-424.559	-12.550	0.077	-0.050
-423.544	521.593	-0.204	0.474
-422.530	515.788	0.103	0.239
-421.515	-200.000	-0.010	0.117
-420.500	800.000	0.021	0.079
-419.486	-55.045	0.153	-0.068
-418.471	-16.880	-0.080	-0.050
-417.457	-42.009	-0.360	0.183
-416.442	-43.885	0.227	0.113
-415.428	-126.249	-0.156	-0.023
-414.413	-103.381	-0.439	-0.103
-413.398	-173.510	0.354	0.011
-412.384	-29.193	0.277	0.157
-411.369	-52.828	0.204	0.093
-410.355	800.000	-0.046	0.138
-409.340	-200.000	0.010	-0.056
-408.325	800.000	0.070	0.297
-407.311	-61.755	0.264	0.110
-406.296	-44.810	-0.140	0.069
-405.282	-76.521	-0.299	0.104
-404.267	-3.399	-0.259	-0.179
-403.252	-200.000	-0.065	-0.384
-402.238	365.161	-0.073	-0.146
-401.223	-200.000	0.033	0.177
-400.209	25.321	-0.191	0.157
-399.194	-200.000	-0.030	-0.000
-398.179	800.000	0.062	0.177
-397.165	385.469	0.206	0.422
-396.150	-184.370	-0.330	0.005
-395.136	-2.274	-0.240	-0.167
-394.121	-200.000	0.012	-0.159
-393.106	-102.189	0.291	-0.069
-392.092	110.220	0.034	0.040
-391.077	469.925	0.117	0.260
-390.063	-200.000	0.028	0.292
-389.048	-89.822	-0.246	0.071
-388.033	-125.336	0.391	-0.059
-387.019	265.976	0.057	-0.099
-386.004	-69.038	0.036	-0.014
-384.990	183.508	0.067	0.098
-383.975	623.327	0.087	-0.217
-382.960	-130.742	-0.272	-0.036
-381.946	-130.583	-0.298	0.040
-380.931	331.376	-0.105	-0.200
-379.917	-200.000	-0.051	0.246
-378.902	-124.206	0.393	-0.061
-377.888	800.000	-0.156	0.663
-376.873	-98.933	-0.075	0.019
-375.858	299.304	0.067	-0.122
-374.844	-198.947	0.129	-0.001
-373.829	-100.631	0.178	-0.044
-372.815	800.000	0.070	-0.270
-371.800	-146.124	-0.099	-0.009
-370.785	4.260	-0.128	-0.093
-369.771	-200.000	0.071	-0.331
-368.756	112.598	-0.192	0.231
-367.742	65.135	0.072	-0.072
-366.727	2.510	-0.176	-0.126
-365.712	-200.000	0.015	0.068
-364.698	124.712	-0.132	-0.165
-363.683	25.833	-0.179	-0.148
-362.669	543.429	0.079	0.186
-361.654	800.000	-0.055	0.198
-360.639	-200.000	-0.034	0.153
-359.625	636.221	0.111	-0.279
-358.610	57.453	0.280	-0.270
-357.596	-154.854	0.332	0.022
-356.581	-159.579	0.360	0.020
-355.566	-200.000	0.030	-0.208
-354.552	-21.965	-0.201	0.121
-353.537	50.453	0.036	0.034
-352.523	-132.920	-0.083	-0.010
-351.508	138.347	-0.126	-0.164
-350.493	-183.001	0.306	0.005
-349.479	-141.644	-0.094	-0.009
-348.464	13.873	0.193	0.149
-347.450	-79.111	-0.123	0.041
-346.435	14.213	-0.234	-0.180
-345.420	-58.000	0.225	-0.097
-344.406	187.090	0.079	-0.116
-343.391	-93.551	-0.104	-0.028
-342.377	-154.325	-0.139	0.009
-341.362	-200.000	0.027	-0.246
-340.348	-69.931	-0.282	0.106
-339.333	-200.000	-0.045	0.400
-338.318	-113.501	0.251	-0.049
-337.304	-89.747	-0.174	0.050
-336.289	-31.871	0.225	-0.124
-335.275	35.141	0.106	-0.092
-334.260	-69.908	-0.311	0.117
-333.245	454.215	0.067	-0.146
-332.231	222.653	-0.160	0.254
-331.216	800.000	0.188	0.599
-330.202	530.897	0.129	-0.301
-329.187	-101.638	-0.338	0.081
-328.172	800.000	-0.026	0.087
-327.158	168.059	0.037	-0.052
-326.143	129.831	-0.259	0.328
-325.129	254.084	-0.248	-0.419
-324.114	-200.000	0.007	0.031
-323.099	-200.000	-0.008	0.193
-322.085	178.960	-0.086	0.125
-321.070	-119.743	0.077	0.013
-320.056	-111.559	-0.242	-0.049
-319.041	-172.117	-0.163	-0.005
-318.026	-61.927	-0.095	0.039
-317.012	-146.109	0.119	0.010
-315.997	-145.501	0.263	0.023
-314.983	-131.293	0.193	-0.025
-313.968	-95.529	-0.248	0.066
-312.953	-135.116	0.340	0.040
-311.939	-59.554	-0.154	0.065
-310.924	800.000	0.052	0.160
-309.910	-144.810	-0.461	0.042
-308.895	154.803	0.034	-0.046
-307.880	-133.161	0.208	0.026
-306.866	566.271	0.025	-0.060
-305.851	10.799	-0.227	-0.171
-304.837	294.037	0.116	-0.209
-303.822	26.054	-0.190	0.157
-302.807	-200.000	-0.061	-0.398
-301.793	-200.000	-0.026	-0.334
-300.778	268.429	-0.039	-0.067
-299.764	146.216	-0.123	-0.162
-298.749	-89.473	-0.294	0.085
-297.735	75.550	-0.034	0.036
-296.720	-150.796	-0.448	0.034
-295.705	-101.316	0.229	-0.055
-294.691	226.721	-0.176	0.281
-293.676	50.584	0.006	-0.006
-292.662	65.352	-0.076	0.076
-291.647	800.000	-0.066	0.216
-290.632	-44.467	-0.107	-0.053
-289.618	-62.219	0.282	-0.116
-288.603	653.588	-0.111	-0.281
-287.589	-44.815	-0.258	-0.127
-286.574	800.000	-0.028	-0.104
-285.559	-91.866	-0.043	0.012
-284.545	210.109	-0.148	-0.230
-283.530	-200.000	-0.032	-0.179
-282.516	125.933	0.151	0.189
-281.501	-125.894	0.072	0.011
-280.486	162.014	0.243	-0.336
-279.472	-52.193	0.268	-0.122
-278.457	-176.547	0.211	0.005
-277.443	-125.855	0.156	-0.023
-276.428	800.000	-0.067	0.200
-275.413	55.806	0.201	-0.192
-274.399	602.851	0.097	0.239
-273.384	233.866	-0.165	0.268
-272.370	-165.715	0.184	-0.008
-271.355	800.000	-0.074	-0.298
-270.340	77.929	0.053	0.056
-269.326	197.984	-0.102	0.154
-268.311	-200.000	-0.030	0.482
-267.297	125.366	0.206	0.256
-266.282	-5.092	0.245	0.166
-265.267	94.843	-0.140	0.157
-264.253	336.390	-0.219	0.419
-263.238	598.272	-0.094	0.231
-262.224	-17.672	-0.343	0.212
-261.209	-143.312	0.390	0.037
-260.195	18.517	-0.277	-0.218
-259.180	-171.921	0.193	-0.006
-258.165	8.009	-0.266	0.196
-257.151	-62.222	-0.380	-0.156
-256.136	-60.339	0.149	0.062
-255.122	-200.000	0.022	0.214
-254.107	-200.000	-0.022	-0.171
-253.092	255.797	0.160	-0.269
-252.078	41.324	-0.167	0.149
-251.063	-12.784	0.198	-0.127
-250.049	407.484	0.102	0.212
-249.034	-116.911	-0.078	-0.014
-248.019	-69.785	0.456	-0.172
-247.005	-200.000	-0.007	0.061
-245.990	61.300	0.173	0.169
-244.976	-21.687	-0.139	-0.083
-243.961	800.000	0.068	0.193
-242.946	-200.000	-0.061	0.296
-241.932	327.024	0.158	0.298
-240.917	800.000	-0.150	-0.416
-239.903	133.563	-0.240	-0.305
-238.888	10.241	-0.014	0.011
-237.873	-200.000	-0.006	-0.244
-236.859	-165.403	0.118	0.005
-235.844	-140.776	0.274	-0.028
-234.830	-136.579	0.266	0.030
-233.815	-8.050	0.072	0.048
-232.800	233.779	0.084	-0.136
-231.786	-108.860	0.173	-0.036
-230.771	800.000	0.120	0.423
-229.757	23.957	0.246	0.200
-228.742	398.234	-0.109	-0.225
-227.727	178.827	0.050	-0.073
-226.713	72.134	0.162	0.166
-225.698	-14.162	-0.188	0.120
-224.684	-200.000	0.027	-0.150
-223.669	284.322	-0.075	-0.133
-222.655	204.218	0.182	0.277
-221.640	224.696	-0.172	0.273
-220.625	-200.000	-0.041	0.342
-219.611	156.494	0.181	-0.246
-218.596	-35.520	0.279	0.149
-217.582	-200.000	-0.056	0.377
-216.567	-136.421	0.024	-0.003
-215.552	603.566	-0.080	-0.195
-214.538	-29.135	0.226	-0.127
-213.523	33.333	-0.152	0.130
-212.509	137.601	0.036	0.046
-211.494	-29.269	0.108	-0.061
-210.479	253.188	0.049	-0.082
-209.465	-2.671	0.046	-0.032
-208.450	-62.819	0.123	0.050
-207.436	27.355	-0.082	0.068
-206.421	23.360	-0.175	0.141
-205.406	-96.462	0.215	-0.056
-204.392	327.178	-0.080	-0.152
-203.377	-31.620	0.161	0.089
-202.363	-99.701	-0.119	0.029
-201.348	135.689	0.045	-0.058
-200.333	-200.000	0.022	-0.120
-199.319	-43.477	-0.110	-0.055
-198.304	-82.354	0.324	0.103
-197.290	-200.000	-0.028	-0.373
-196.275	-200.000	0.026	-0.230
-195.260	-68.619	-0.226	0.086
-194.246	453.897	0.155	0.338
-193.231	-37.675	-0.180	0.094
-192.217	-119.413	-0.184	0.031
-191.202	146.127	0.139	-0.184
-190.187	-163.822	0.470	-0.022
-189.173	-200.000	0.037	0.175
-188.158	-200.000	0.012	-0.331
-187.144	-162.506	0.089	0.004
-186.129	586.730	0.058	0.140
-185.114	-12.646	0.137	0.088
-184.100	-125.288	0.089	-0.013
-183.085	-114.693	-0.119	0.022
-182.071	77.903	0.091	0.095
-181.056	-86.555	-0.263	0.079
-180.042	-200.000	-0.007	0.037
-179.027	16.572	-0.214	-0.166
-178.012	273.152	0.071	-0.124
-176.998	-78.009	0.076	-0.026
-175.983	-94.987	-0.181	-0.048
-174.969	119.718	0.137	-0.167
-173.954	130.591	-0.039	0.050
-172.939	35.022	-0.307	0.264
-171.925	800.000	0.072	0.223
-170.910	800.000	0.038	0.105
-169.896	-200.000	-0.020	0.110
-168.881	101.898	-0.006	0.007
-167.866	-200.000	-0.006	-0.061
-166.852	-200.000	0.037	0.179
-165.837	-16.179	0.141	-0.088
-164.823	-83.631	0.197	-0.062
-163.808	-121.343	0.317	-0.052
-162.793	350.072	0.044	-0.086
-161.779	-43.107	0.119	-0.059
-160.764	-93.606	0.155	0.042
-159.750	7.774	-0.179	0.131
-158.735	149.552	0.191	-0.254
-157.720	-88.935	0.117	0.034
-156.706	12.142	-0.212	0.160
-155.691	-109.103	-0.336	0.070
-154.677	-50.673	-0.047	0.022
-153.662	36.568	0.027	0.023
-152.647	1.650	-0.246	-0.174
-151.633	-200.000	0.005	-0.091
-150.618	153.244	-0.068	0.092
-149.604	800.000	-0.060	-0.178
-148.589	94.493	-0.139	-0.155
-147.574	82.740	0.111	-0.118
-146.560	-200.000	0.029	-0.271
-145.545	6.662	0.109	-0.079
-144.531	156.924	-0.218	0.296
-143.516	-124.761	0.385	-0.058
-142.502	367.268	-0.061	0.121
-141.487	3.196	0.160	0.114
-140.472	103.447	0.139	0.160
-139.458	367.993	-0.226	0.448
-138.443	421.685	-0.127	0.267
-137.429	153.518	-0.025	-0.034
-136.414	-170.543	0.157	0.005
-135.399	-40.986	0.230	0.116
-134.385	40.148	0.171	0.151
-133.370	-113.317	-0.222	0.043
-132.356	-37.646	-0.112	-0.058
-131.341	-200.000	-0.065	-0.385
-130.326	-57.355	0.171	-0.074
-129.312	-200.000	0.003	0.115
-128.297	42.704	0.106	0.095
-127.283	-118.909	0.245	-0.042
-126.268	-18.920	0.178	0.109
-125.253	-177.628	0.189	0.004
-124.239	-72.801	-0.340	-0.123
-123.224	-89.519	-0.130	-0.037
-122.210	-123.066	0.393	0.062
-121.195	-200.000	0.021	-0.208
-120.180	385.413	0.098	-0.199
-119.166	-127.131	0.512	-0.074
-118.151	16.209	-0.178	0.137
-117.137	-200.000	-0.005	-0.321
-116.122	553.937	-0.159	0.374
-115.107	123.698	-0.088	0.108
-114.093	371.493	-0.078	-0.156
-113.078	-125.631	0.349	0.052
-112.064	-94.743	0.397	0.105
-111.049	89.291	0.072	-0.078
-110.034	-198.486	-0.131	-0.001
-109.020	-171.669	0.320	-0.010
-108.005	-43.609	-0.329	-0.162
-106.991	-125.040	-0.004	-0.001
-105.976	36.351	0.197	-0.170
-104.962	312.159	-0.135	0.247
-103.947	27.139	0.128	-0.105
-102.932	800.000	-0.081	-0.268
-101.918	42.816	-0.151	0.135
-100.903	192.290	0.058	0.086
-99.889	-65.011	0.224	-0.089
-98.874	-100.299	0.121	-0.029
-97.859	117.700	0.213	-0.257
-96.845	-19.619	-0.134	-0.081
-95.830	-200.000	-0.016	0.166
-94.816	800.000	0.018	0.062
-93.801	22.341	-0.162	0.130
-92.786	639.456	-0.109	-0.272
-91.772	-83.830	0.308	-0.096
-90.757	-129.596	0.483	0.065
-89.743	485.408	0.076	-0.169
-88.728	-200.000	-0.024	-0.210
-87.713	29.700	0.127	0.106
-86.699	-46.260	-0.207	0.099
-85.684	-118.030	0.207	0.036
-84.670	384.059	0.143	-0.289
-83.655	-55.511	-0.066	0.029
-82.640	49.866	-0.162	0.149
-81.626	-200.000	-0.043	-0.223
-80.611	106.441	-0.187	-0.217
-79.597	16.564	-0.208	-0.161
-78.582	555.637	0.101	0.238
-77.567	4.465	-0.189	0.135
-76.553	-119.978	0.033	-0.006
-75.538	-18.914	-0.225	-0.137
-74.524	204.304	-0.082	-0.124
-73.509	298.772	-0.088	-0.159
-72.494	-70.921	0.510	0.188
-71.480	47.446	0.084	0.076
-70.465	-200.000	0.046	0.252
-69.451	774.338	-0.098	0.261
-68.436	-200.000	-0.020	0.450
-67.422	800.000	-0.116	0.346
-66.407	-55.506	0.127	-0.056
-65.392	173.581	-0.229	0.323
-64.378	-200.000	0.016	0.499
-63.363	127.243	-0.144	0.178
-62.349	32.920	0.332	0.281
-61.334	5.040	-1.216	-0.875
-60.319	0.824	0.672	0.470
-59.305	800.000	-0.319	-1.007
-58.290	521.479	0.585	1.343
-57.276	800.000	0.466	1.332
-56.261	-200.000	116.794	644.777
-55.246	502.273	1540.677	3479.709
-54.232	175.453	2711.207	3841.535
-53.217	105.374	2153.198	2485.821
-52.203	38.039	1587.158	1379.742
-51.188	29.732	1330.081	1106.737
-50.173	26.920	1291.221	1057.989
-49.159	52.950	1349.682	1261.893
-48.144	51.335	1362.546	1264.255
-47.130	29.941	1317.133	1097.031
-46.115	26.560	1299.094	1062.160
-45.100	26.456	1293.597	1057.019
-44.086	26.248	1291.254	1053.848
-43.071	26.231	1288.928	1051.808
-42.057	26.142	1287.012	1049.684
-41.042	26.356	1285.322	1049.509
-40.027	26.263	1284.282	1048.075
-39.013	26.379	1281.342	1046.308
-37.998	26.304	1279.903	1044.656
-36.984	26.457	1277.950	1043.907
-35.969	26.439	1276.380	1042.479
-34.954	26.438	1274.434	1040.840
-33.940	26.483	1273.440	1040.248
-32.925	26.458	1271.935	1038.830
-31.911	26.486	1270.472	1037.758
-30.896	26.555	1268.818	1036.762
-29.881	26.601	1267.308	1035.749
-28.867	26.627	1266.249	1034.990
-27.852	26.523	1264.909	1033.262
-26.838	26.619	1263.783	1032.847
-25.823	26.466	1262.697	1031.049
-24.809	26.579	1261.289	1030.496
-23.794	26.439	1259.750	1028.403
-22.779	26.534	1258.168	1027.611
-21.765	26.574	1256.851	1026.723
-20.750	26.501	1255.767	1025.386
-19.736	26.389	1254.790	1023.910
-18.721	26.467	1253.697	1023.416
-17.706	26.286	1252.720	1021.558
-16.692	26.357	1251.196	1020.673
-15.677	26.368	1250.211	1019.895
-14.663	26.425	1249.047	1019.225
-13.648	26.380	1247.842	1017.949
-12.633	26.403	1247.100	1017.430
-11.619	26.300	1246.238	1016.107
-10.604	26.433	1245.043	1015.839
-9.590	26.290	1244.402	1014.473
-8.575	26.354	1243.381	1013.960
-7.560	26.405	1242.579	1013.552
-6.546	26.420	1241.606	1012.801
-5.531	26.350	1241.157	1012.002
-4.517	26.312	1240.531	1011.243
-3.502	26.388	1238.865	1010.269
-2.487	26.457	1238.000	1009.907
-1.473	26.336	1233.983	1005.918
-0.458	24.930	1219.211	986.099
0.556	21.963	1202.803	950.608
1.571	18.305	1209.569	935.909
2.586	17.591	1223.912	942.971
3.600	17.244	1212.010	931.818
4.615	12.963	1141.464	855.349
5.629	6.250	1070.889	769.646
6.644	3.343	1053.301	742.935
7.659	3.080	1051.761	740.515
8.673	3.180	1050.215	739.841
9.688	3.168	1048.774	738.705
10.702	3.449	1046.540	738.414
11.717	7.184	1051.853	760.046
12.731	14.560	1062.270	803.139
13.746	19.009	1067.277	828.324
14.761	19.706	1067.731	831.961
15.775	18.915	1066.029	826.758
16.790	17.881	1064.279	820.361
17.804	17.108	1062.865	815.485
18.819	16.836	1061.773	813.272
19.834	16.708	1060.857	811.883
20.848	16.609	1060.013	810.692
21.863	16.467	1059.161	809.289
22.877	16.181	1058.797	807.567
23.892	16.237	1057.999	807.155
24.907	16.267	1057.032	806.490
25.921	16.222	1056.045	805.453
26.936	16.198	1054.875	804.371
27.950	16.280	1053.391	803.562
28.965	16.404	1051.694	802.785
29.980	16.440	1050.849	802.238
30.994	16.630	1049.408	801.970
32.009	16.672	1048.375	801.305
33.023	16.537	1047.376	799.832
34.038	16.359	1046.875	798.539
35.053	16.308	1045.364	797.077
36.067	16.261	1044.792	796.345
37.082	16.272	1044.273	795.935
38.096	16.486	1043.343	796.162
39.111	16.500	1042.616	795.601
40.126	16.311	1041.252	793.605
41.140	16.221	1040.026	792.176
42.155	16.092	1038.652	790.455
43.169	16.109	1037.530	789.610
44.184	16.008	1036.603	788.365
45.199	16.067	1035.532	787.753
46.213	16.096	1034.692	787.182
47.228	16.283	1033.549	787.112
48.242	16.352	1032.565	786.615
49.257	16.317	1031.254	785.384
50.271	16.398	1030.834	785.375
51.286	16.352	1030.345	784.715
52.301	16.255	1029.325	783.422
53.315	16.296	1027.778	782.366
54.330	16.160	1027.083	781.137
55.344	16.181	1025.643	780.071
56.359	16.248	1025.377	780.108
57.374	16.122	1024.244	778.593
58.388	16.025	1023.145	777.243
59.403	16.007	1022.401	776.526
60.417	15.942	1021.656	775.590
61.432	15.970	1021.236	775.335
62.447	15.934	1019.966	774.136
63.461	15.804	1019.146	772.849
64.476	15.739	1018.398	771.912
65.490	15.950	1017.328	772.000
66.505	15.995	1016.323	771.374
67.520	16.095	1015.850	771.407
68.534	15.951	1015.271	770.241
69.549	15.850	1015.078	769.564
70.563	15.823	1013.794	768.400
71.578	15.849	1012.722	767.638
72.593	15.649	1012.494	766.484
73.607	15.688	1011.722	766.009
74.622	15.799	1011.034	765.927
75.636	15.823	1010.276	765.391
76.651	15.795	1009.564	764.658
77.666	15.879	1008.648	764.280
78.680	15.881	1008.351	763.996
79.695	15.930	1007.821	763.747
80.709	15.947	1007.214	763.299
81.724	16.013	1006.680	763.125
82.739	16.056	1005.680	762.494
83.753	16.323	1005.219	763.284
84.768	16.481	1004.565	763.435
85.782	16.492	1003.694	762.755
86.797	16.549	1002.583	762.096
87.812	16.399	1001.513	760.542
88.826	16.463	1000.284	759.832
89.841	16.447	999.606	759.177
90.855	16.550	998.940	759.065
91.870	16.567	998.535	758.764
92.884	16.524	997.164	757.463
93.899	16.487	996.758	756.922
94.914	16.705	995.350	756.762
95.928	16.653	994.634	755.919
96.943	16.550	993.979	754.895
97.957	16.525	992.845	753.854
98.972	16.522	992.017	753.148
99.987	16.523	991.145	752.423
101.001	16.491	990.359	751.616
102.016	16.558	989.380	751.105
103.030	16.367	989.342	750.161
104.045	16.440	988.279	749.614
105.060	16.302	987.225	748.135
106.074	16.192	985.991	746.647
107.089	15.953	985.164	744.898
108.103	15.972	984.348	744.296
109.118	15.976	983.489	743.602
110.133	15.948	982.295	742.511
111.147	16.064	981.301	742.203
112.162	15.951	981.007	741.418
113.176	16.136	980.159	741.523
114.191	16.179	979.168	740.897
115.206	16.132	978.373	740.026
116.220	16.057	977.655	739.088
117.235	16.117	976.761	738.608
118.249	16.077	975.944	737.749
119.264	16.049	975.066	736.901
120.279	16.023	974.474	736.274
121.293	15.959	973.448	735.155
122.308	15.936	972.688	734.412
123.322	15.820	971.479	732.933
124.337	15.881	970.441	732.349
125.352	16.067	968.751	731.814
126.366	15.963	967.894	730.654
127.381	15.846	966.912	729.338
128.395	15.934	966.274	729.174
129.410	16.086	965.148	728.920
130.424	15.951	965.232	728.334
131.439	16.115	964.166	728.171
132.454	15.974	963.650	727.109
133.468	16.021	962.772	726.586
134.483	16.206	961.652	726.475
135.497	16.076	961.280	725.567
136.512	16.243	959.862	725.149
137.527	16.143	959.257	724.201
138.541	16.282	958.731	724.335
139.556	16.253	958.032	723.620
140.570	16.374	957.373	723.575
141.585	16.468	956.700	723.406
142.600	16.420	955.697	722.380
143.614	16.513	955.048	722.222
144.629	16.634	954.265	722.080
145.643	16.505	953.409	720.819
146.658	16.373	952.393	719.426
147.673	16.406	951.115	718.536
148.687	16.243	950.255	717.131
149.702	16.244	949.666	716.629
150.716	16.240	949.083	716.108
151.731	16.214	948.231	715.292
152.746	16.173	947.580	714.564
153.760	16.379	947.009	714.941
154.775	16.386	946.541	714.553
155.789	16.520	945.502	714.273
156.804	16.433	944.918	713.402
157.819	16.563	944.267	713.397
158.833	16.619	943.890	713.284
159.848	16.707	943.066	712.967
160.862	16.602	941.639	711.382
161.877	16.299	940.916	709.500
162.892	16.318	939.787	708.669
163.906	16.234	938.863	707.557
164.921	16.274	938.191	707.154
165.935	16.415	937.109	706.869
166.950	16.438	936.434	706.392
167.964	16.378	935.636	705.476
168.979	16.362	933.966	704.087
169.994	16.366	934.007	704.070
171.008	16.319	933.079	703.116
172.023	16.592	932.192	703.521
173.037	16.613	931.949	703.360
174.052	16.638	930.813	702.546
175.067	16.416	929.978	700.931
176.081	16.410	929.168	700.234
177.096	16.361	928.502	699.468
178.110	16.358	928.473	699.372
179.125	16.508	927.487	699.188
180.140	16.480	927.224	698.812
181.154	16.490	926.944	698.580
182.169	16.742	926.235	699.023
183.183	16.770	925.870	698.801
184.198	16.864	924.700	698.244
185.213	16.825	924.331	697.744
186.227	16.814	923.880	697.295
187.242	16.776	923.548	696.830
188.256	16.994	922.749	697.061
189.271	17.034	921.833	696.470
190.286	16.695	920.967	694.365
191.300	16.437	920.129	692.613
192.315	16.199	919.746	691.287
193.329	16.343	919.152	691.372
194.344	16.421	918.553	691.178
195.359	16.644	917.678	691.369
196.373	16.820	917.159	691.635
197.388	16.816	917.117	691.528
198.402	16.886	916.626	691.382
199.417	17.022	915.990	691.395
200.432	17.016	915.598	691.013
201.446	17.123	915.023	690.952
202.461	17.284	913.900	690.698
203.475	17.161	913.461	689.807
204.490	16.973	913.093	688.702
205.504	16.877	912.216	687.593
206.519	16.975	911.042	687.045
207.534	16.883	910.531	686.223
208.548	16.824	909.955	685.490
209.563	16.987	909.341	685.626
210.577	16.915	909.133	685.118
211.592	17.135	908.165	685.217
212.607	17.125	907.450	684.574
213.621	17.032	906.582	683.483
214.636	17.203	905.990	683.668
215.650	17.213	905.159	683.019
216.665	17.319	904.604	682.966
217.680	17.258	904.440	682.539
218.694	17.363	903.447	682.148
219.709	17.147	902.907	680.813
220.723	17.238	902.260	680.631
221.738	17.295	901.354	680.116
222.753	17.111	900.843	678.934
223.767	17.283	900.721	679.471
224.782	17.373	900.149	679.338
225.796	17.502	898.916	678.859
226.811	17.469	898.181	678.113
227.826	17.310	897.710	677.065
228.840	17.253	897.194	676.389
229.855	17.372	896.252	676.094
230.869	17.259	895.417	674.952
231.884	17.196	894.543	673.987
232.899	17.199	893.952	673.493
233.913	17.091	893.293	672.511
234.928	17.054	892.518	671.720
235.942	17.049	892.248	671.436
236.957	17.138	891.542	671.199
237.972	17.091	890.988	670.536
238.986	17.161	890.440	670.342
240.001	17.152	889.973	669.892
241.015	17.255	889.307	669.741
242.030	17.287	888.839	669.455
243.045	17.298	888.203	668.958
244.059	17.146	887.901	668.072
245.074	17.311	887.302	668.212
246.088	17.338	886.378	667.564
247.103	17.475	886.035	667.785
248.117	17.653	885.516	668.031
249.132	17.812	885.244	668.391
250.147	17.857	884.504	667.948
251.161	17.881	883.762	667.425
252.176	17.944	883.229	667.207
253.190	18.016	882.463	666.852
254.205	17.984	882.375	666.599
255.220	18.034	881.094	665.769
256.234	17.932	880.168	664.613
257.249	18.161	879.732	665.116
258.263	17.932	879.033	663.639
259.278	18.029	878.416	663.492
260.293	17.895	878.333	662.848
261.307	18.237	877.480	663.475
262.322	18.131	876.972	662.618
263.336	18.181	876.063	662.067
264.351	18.152	875.569	661.522
265.366	18.224	874.953	661.278
266.380	18.125	874.288	660.333
267.395	18.058	873.581	659.485
268.409	17.973	872.900	658.582
269.424	18.043	871.629	657.835
270.439	17.982	871.144	657.176
271.453	17.927	870.712	656.582
272.468	17.788	870.447	655.790
273.482	17.962	869.638	655.788
274.497	18.074	869.013	655.690
275.512	18.000	868.520	654.978
276.526	17.975	868.021	654.444
277.541	18.101	867.461	654.449
278.555	18.205	866.723	654.231
279.570	18.213	866.199	653.809
280.585	18.317	865.603	653.697
281.599	18.243	864.501	652.527
282.614	18.110	863.710	651.364
283.628	18.035	863.551	650.903
284.643	18.224	862.874	651.052
285.657	18.197	862.365	650.507
286.672	18.082	861.524	649.381
287.687	18.196	860.984	649.348
288.701	18.156	860.332	648.647
289.716	18.310	860.054	648.964
290.730	18.357	859.093	648.358
291.745	18.445	858.573	648.240
292.760	18.375	858.250	647.676
293.774	18.468	857.468	647.379
294.789	18.440	856.643	646.594
295.803	18.428	855.912	645.940
296.818	18.238	855.449	644.816
297.833	18.299	854.619	644.364
298.847	18.418	854.230	644.463
299.862	18.461	853.951	644.355
300.876	18.442	853.431	643.836
301.891	18.657	852.519	643.898
302.906	18.596	852.539	643.626
303.920	18.778	851.682	643.605
304.935	18.752	851.540	643.343
305.949	18.718	850.416	642.311
306.964	18.609	849.672	641.284
307.979	18.695	849.226	641.211
308.993	18.604	848.858	640.536
310.008	18.792	848.307	640.766
311.022	18.568	847.343	639.147
312.037	18.610	846.740	638.790
313.052	18.471	846.358	637.927
314.066	18.297	845.852	636.846
315.081	18.442	845.067	636.737
316.095	18.447	844.444	636.226
317.110	18.462	844.065	635.943
318.125	18.462	843.324	635.329
319.139	18.480	842.780	634.928
320.154	18.535	842.383	634.777
321.168	18.461	842.529	634.557
322.183	18.531	841.696	634.131
323.197	18.713	840.820	634.089
324.212	18.675	840.050	633.311
325.227	18.389	840.307	632.393
326.241	18.584	839.069	632.123
327.256	18.597	838.638	631.793
328.270	18.586	838.097	631.287
329.285	18.478	837.522	630.400
330.300	18.554	836.667	629.981
331.314	18.639	836.064	629.784
332.329	18.750	835.843	629.968
333.343	18.846	835.610	630.089
334.358	18.897	834.871	629.664
335.373	18.814	834.720	629.188
336.387	18.927	834.494	629.379
337.402	18.909	834.344	629.142
338.416	18.997	834.061	629.194
339.431	19.172	833.397	629.278
340.446	19.090	833.393	628.920
341.460	19.097	832.996	628.590
342.475	19.142	832.476	628.308
343.489	19.198	832.200	628.246
344.504	19.333	831.322	628.022
345.519	19.361	831.092	627.892
346.533	19.285	830.580	627.174
347.548	19.083	829.967	625.921
348.562	19.069	829.205	625.240
349.577	19.012	828.569	624.498
350.592	18.939	827.831	623.620
351.606	18.921	827.110	622.957
352.621	19.059	826.430	622.892
353.635	18.946	825.987	622.094
354.650	18.945	825.263	621.488
355.665	19.119	824.923	621.807
356.679	19.111	824.542	621.435
357.694	19.224	823.056	620.669
358.708	19.313	822.701	620.667
359.723	19.244	822.220	619.999
360.738	19.152	821.761	619.269
361.752	19.204	821.179	618.960
362.767	19.298	820.598	618.807
363.781	19.480	820.071	619.007
364.796	19.473	819.910	618.807
365.810	19.512	819.661	618.702
366.825	19.546	819.311	618.505
367.840	19.677	818.749	618.497
368.854	19.542	818.334	617.643
369.869	19.423	818.005	616.915
370.883	19.438	817.422	616.473
371.898	19.659	816.801	616.741
372.913	19.778	816.291	616.725
373.927	19.601	816.372	616.100
374.942	19.576	815.821	615.543
375.956	19.498	815.656	615.083
376.971	19.756	814.796	615.300
377.986	19.817	814.331	615.112
379.000	19.784	813.912	614.622
380.015	19.768	813.434	614.152
381.029	19.848	812.771	613.880
382.044	19.856	812.366	613.549
383.059	19.947	811.592	613.232
384.073	19.733	811.148	612.083
385.088	19.783	810.318	611.581
386.102	19.631	809.621	610.461
387.117	19.451	809.474	609.662
388.132	19.524	808.917	609.448
389.146	19.641	808.447	609.452
390.161	19.752	808.238	609.630
391.175	19.850	807.310	609.224
392.190	19.814	807.050	608.846
393.205	19.608	806.343	607.534
394.219	19.837	805.479	607.635
395.234	19.545	805.427	606.516
396.248	19.499	805.080	606.037
397.263	19.428	804.473	605.277
398.278	19.498	804.004	605.118
399.292	19.450	803.867	604.794
400.307	19.635	803.067	604.785
401.321	19.700	802.609	604.615
402.336	19.720	802.338	604.425
403.350	19.828	802.031	604.518
404.365	19.780	801.954	604.239
405.380	19.916	801.264	604.143
406.394	19.989	800.566	603.817
407.409	20.026	800.521	603.858
408.423	20.176	800.242	604.118
409.438	20.302	799.792	604.162
410.453	20.088	799.452	603.108
411.467	20.435	798.278	603.375
412.482	20.472	798.810	603.850
413.496	20.417	798.114	603.080
414.511	20.474	797.313	602.620
415.526	20.245	797.298	601.759
416.540	20.233	796.810	601.296
417.555	20.374	796.091	601.190
418.569	20.415	795.811	601.068
419.584	20.231	795.430	600.089
420.599	20.287	795.274	600.114
421.613	162.381	1371.423	1796.620
422.628	140.841	1455.359	1796.681
