DTS Sentinel unit serial number:	SN413079Multiplexer serial number:	ORYXHardware model number:	OX4-SRSoftware version number:	ORYX F/W v4.00 Oryx Data Collector v3.7.2.0data status	okinstallation	princeton_trtdifferential loss correction	single-endedforward channel	channel 1reverse channel	N/Adate	2019/09/17time	14:58:35forward acquisition time	60.00reverse acquisition time	0.00gamma	496.2192k internal	0.2295k external	0.2295temperature offset calibration	0.9969default loss term (dB/km)	0.3790temperature slope calibration	1.0000multiplexer offset coefficient	1.0000multiplexer slope coefficient	1.0000fibre end	0.00T internal ref (°C)	37.31T ext. ref 1 (°C)	0.39T ext. ref 2 (°C)	34.17length (m)	temperature (°C)	Stokes	anti-Stokes-747.200	-41.975	-0.286	0.150
-746.185	-21.046	0.213	0.133
-745.171	-141.439	0.171	-0.018
-744.156	-200.000	-0.025	0.178
-743.142	-200.000	0.016	0.222
-742.127	632.716	-0.142	0.367
-741.112	791.991	-0.100	-0.282
-740.098	500.826	-0.084	0.198
-739.083	-28.567	0.534	-0.314
-738.069	800.000	-0.057	0.184
-737.054	800.000	0.100	-0.443
-736.039	527.214	-0.092	-0.220
-735.025	-36.810	0.145	-0.080
-734.010	-155.036	-0.111	-0.007
-732.996	98.238	-0.169	-0.199
-731.981	-69.465	0.179	0.070
-730.966	378.578	0.121	-0.253
-729.952	-50.170	0.260	0.126
-728.937	-200.000	0.038	-0.177
-727.923	-200.000	-0.048	-0.265
-726.908	262.466	-0.197	0.349
-725.894	-200.000	-0.019	0.167
-724.879	491.684	0.108	0.252
-723.864	305.084	-0.153	0.291
-722.850	-127.224	-0.105	0.016
-721.835	-51.747	-0.070	0.033
-720.821	93.443	-0.261	0.302
-719.806	-45.383	-0.254	0.129
-718.791	70.270	0.294	-0.310
-717.777	-200.000	-0.051	0.242
-716.762	438.123	-0.050	0.112
-715.748	-48.107	-0.316	0.156
-714.733	20.786	-0.395	-0.327
-713.718	-55.075	0.411	0.189
-712.704	-200.000	0.018	-0.146
-711.689	-200.000	0.018	-0.177
-710.675	62.461	-0.139	0.141
-709.660	107.635	-0.174	-0.212
-708.645	800.000	-0.061	0.245
-707.631	-51.383	-0.171	-0.082
-706.616	-13.613	-0.189	0.125
-705.602	-200.000	0.008	0.189
-704.587	800.000	-0.041	-0.157
-703.572	-25.802	0.248	0.149
-702.558	-64.400	0.318	0.132
-701.543	57.271	-0.091	-0.091
-700.529	334.086	0.084	-0.166
-699.514	-50.474	0.063	0.030
-698.499	-200.000	0.019	-0.146
-697.485	-10.775	-0.070	-0.047
-696.470	-65.753	-0.259	-0.106
-695.456	-195.478	-0.117	0.001
-694.441	-145.595	0.202	-0.018
-693.426	800.000	0.036	0.102
-692.412	-200.000	0.034	-0.245
-691.397	289.549	-0.152	0.281
-690.383	585.134	0.094	0.236
-689.368	-200.000	-0.004	0.159
-688.354	-149.753	0.103	-0.008
-687.339	259.929	-0.202	0.356
-686.324	800.000	0.011	-0.036
-685.310	-109.114	0.183	-0.040
-684.295	800.000	-0.151	0.428
-683.281	565.321	-0.072	0.179
-682.266	-98.310	-0.356	-0.093
-681.251	389.563	-0.101	-0.213
-680.237	29.714	-0.127	-0.110
-679.222	800.000	-0.059	-0.218
-678.208	800.000	0.038	-0.164
-677.193	-90.930	-0.165	-0.048
-676.178	-63.333	0.194	-0.081
-675.164	-77.771	-0.337	-0.119
-674.149	-89.807	-0.184	0.055
-673.135	-200.000	-0.023	0.131
-672.120	252.203	-0.081	0.141
-671.105	-33.285	-0.257	0.145
-670.091	109.103	-0.046	-0.056
-669.076	-200.000	0.002	-0.126
-668.062	800.000	0.123	-0.356
-667.047	-75.939	0.211	0.076
-666.032	-141.040	-0.304	0.032
-665.018	562.891	0.027	-0.066
-664.003	-11.109	-0.128	-0.086
-662.989	-7.608	-0.153	-0.105
-661.974	196.541	0.261	-0.405
-660.959	-137.385	-0.152	-0.018
-659.945	43.048	0.070	-0.065
-658.930	-200.000	0.047	-0.219
-657.916	-37.462	-0.093	-0.051
-656.901	-200.000	-0.049	-0.226
-655.886	-126.174	0.328	0.050
-654.872	226.940	-0.091	0.150
-653.857	143.407	-0.245	-0.332
-652.843	-24.886	0.134	0.081
-651.828	238.785	-0.118	0.200
-650.814	-200.000	-0.065	-0.368
-649.799	58.012	0.130	-0.130
-648.784	264.432	-0.118	0.210
-647.770	-161.885	0.194	-0.010
-646.755	190.132	0.136	-0.208
-645.741	86.715	0.028	-0.032
-644.726	-89.270	-0.340	-0.102
-643.711	40.832	-0.196	0.180
-642.697	225.021	-0.166	0.274
-641.682	86.392	0.356	-0.399
-640.668	800.000	0.028	0.086
-639.653	268.155	-0.251	-0.447
-638.638	-66.474	0.177	-0.072
-637.624	112.291	-0.219	-0.269
-636.609	800.000	0.068	-0.273
-635.595	-200.000	-0.036	-0.494
-634.580	800.000	-0.042	-0.186
-633.565	117.013	-0.141	0.177
-632.551	-115.962	0.432	0.082
-631.536	175.521	-0.210	0.310
-630.522	79.216	0.217	-0.237
-629.507	263.498	-0.108	-0.192
-628.492	5.142	0.099	-0.074
-627.478	800.000	0.032	-0.120
-626.463	3.458	-0.305	-0.226
-625.449	-200.000	0.001	0.077
-624.434	202.175	-0.180	-0.282
-623.419	327.774	0.044	-0.086
-622.405	245.228	0.114	-0.194
-621.390	-75.107	-0.205	-0.074
-620.376	-200.000	-0.030	0.268
-619.361	-77.528	0.237	0.084
-618.346	-200.000	0.054	0.455
-617.332	510.632	-0.074	-0.175
-616.317	-200.000	0.017	-0.344
-615.303	-124.801	-0.433	0.068
-614.288	747.646	-0.102	-0.280
-613.273	-142.746	0.293	-0.029
-612.259	-16.756	-0.218	-0.140
-611.244	416.754	-0.075	-0.163
-610.230	43.000	0.058	0.054
-609.215	-94.635	0.123	-0.034
-608.201	-200.000	0.066	-0.379
-607.186	-200.000	-0.029	-0.248
-606.171	19.776	0.271	-0.221
-605.157	-20.185	0.157	0.099
-604.142	800.000	-0.064	-0.276
-603.128	-200.000	0.037	0.240
-602.113	635.297	-0.117	-0.302
-601.098	-133.328	-0.370	0.047
-600.084	-134.925	0.276	0.034
-599.069	-200.000	0.011	0.219
-598.055	4.715	-0.226	-0.169
-597.040	-200.000	0.013	-0.105
-596.025	86.584	-0.195	-0.218
-595.011	-146.420	0.218	-0.019
-593.996	-200.000	0.035	0.225
-592.982	-135.184	-0.194	-0.024
-591.967	-200.000	-0.074	-0.390
-590.952	104.481	-0.149	-0.178
-589.938	-200.000	0.042	0.237
-588.923	-200.000	0.013	0.088
-587.909	171.258	-0.116	-0.169
-586.894	800.000	0.111	0.347
-585.879	-101.261	-0.532	-0.132
-584.865	17.313	-0.141	0.113
-583.850	-42.787	-0.201	0.104
-582.836	-200.000	0.030	-0.189
-581.821	-16.428	0.074	-0.048
-580.806	647.707	0.065	0.170
-579.792	800.000	0.093	-0.390
-578.777	192.518	-0.111	0.170
-577.763	88.990	-0.070	0.079
-576.748	-200.000	-0.013	-0.090
-575.733	156.312	0.134	0.188
-574.719	97.522	0.087	0.102
-573.704	-200.000	-0.105	0.580
-572.690	-114.630	0.084	-0.016
-571.675	49.407	-0.184	-0.176
-570.661	444.787	-0.114	0.253
-569.646	-115.714	0.357	-0.068
-568.631	-200.000	0.053	0.241
-567.617	-87.709	-0.324	-0.099
-566.602	800.000	-0.048	-0.181
-565.588	51.093	-0.198	0.190
-564.573	120.241	0.184	-0.231
-563.558	-7.982	-0.197	-0.135
-562.544	-200.000	-0.006	0.332
-561.529	198.714	-0.124	-0.192
-560.515	-57.711	0.277	0.123
-559.500	-200.000	-0.041	0.209
-558.485	-200.000	0.011	-0.249
-557.471	-200.000	-0.008	0.121
-556.456	-56.689	-0.060	-0.027
-555.442	800.000	0.045	-0.164
-554.427	-200.000	-0.009	-0.314
-553.412	-14.605	-0.265	0.173
-552.398	-200.000	0.008	-0.140
-551.383	-31.482	-0.395	-0.225
-550.369	-154.605	-0.394	0.027
-549.354	138.997	0.158	-0.211
-548.339	-200.000	-0.044	0.241
-547.325	121.468	-0.152	0.192
-546.310	-200.000	-0.018	0.425
-545.296	800.000	-0.077	-0.259
-544.281	191.773	-0.215	-0.329
-543.266	-200.000	0.087	0.405
-542.252	320.292	0.098	-0.189
-541.237	-200.000	-0.004	-0.188
-540.223	-64.287	0.138	0.057
-539.208	-32.285	0.127	-0.072
-538.193	0.884	-0.166	0.121
-537.179	4.624	0.101	-0.075
-536.164	-200.000	-0.013	0.103
-535.150	263.323	0.050	0.088
-534.135	106.279	0.116	0.139
-533.121	-200.000	0.067	0.396
-532.106	106.680	-0.262	0.316
-531.091	120.320	0.177	0.223
-530.077	-102.279	0.220	-0.054
-529.062	-3.874	0.089	-0.063
-528.048	-182.808	0.109	-0.002
-527.033	-200.000	-0.041	-0.350
-526.018	800.000	-0.060	-0.255
-525.004	307.314	-0.134	-0.252
-523.989	-79.599	-0.152	0.052
-522.975	-161.483	-0.099	0.005
-521.960	202.792	0.156	-0.244
-520.945	-200.000	-0.004	-0.269
-519.931	-200.000	0.015	-0.212
-518.916	-158.296	-0.063	0.004
-517.902	101.051	-0.107	-0.127
-516.887	-121.894	-0.008	0.001
-515.872	64.855	-0.107	-0.109
-514.858	-120.256	-0.124	0.021
-513.843	56.564	-0.171	-0.169
-512.829	800.000	-0.048	-0.202
-511.814	-18.298	0.128	-0.081
-510.799	-200.000	-0.038	0.247
-509.785	-47.129	-0.473	-0.234
-508.770	-192.868	-0.276	-0.003
-507.756	490.175	0.031	-0.071
-506.741	111.801	-0.124	0.151
-505.726	-200.000	-0.039	0.218
-504.712	-117.749	-0.240	0.044
-503.697	-158.110	0.373	-0.022
-502.683	23.495	0.208	0.174
-501.668	58.609	-0.118	0.117
-500.653	-109.664	0.353	0.075
-499.639	365.916	0.134	0.274
-498.624	-200.000	0.046	-0.246
-497.610	196.842	-0.155	0.240
-496.595	-36.611	-0.086	0.047
-495.581	116.348	0.133	-0.165
-494.566	-11.800	-0.130	0.086
-493.551	-63.377	-0.132	0.055
-492.537	-83.714	-0.185	-0.060
-491.522	112.865	-0.175	0.214
-490.508	-68.512	-0.250	-0.098
-489.493	-102.101	-0.130	0.032
-488.478	-200.000	-0.012	0.145
-487.464	-200.000	-0.015	0.260
-486.449	61.446	-0.198	0.200
-485.435	100.604	0.016	0.019
-484.420	392.781	-0.196	-0.413
-483.405	-27.418	-0.159	0.094
-482.391	15.141	-0.207	-0.164
-481.376	-200.000	0.049	0.303
-480.362	2.978	-0.087	-0.064
-479.347	-100.094	-0.328	-0.083
-478.332	-124.410	0.452	-0.071
-477.318	-107.347	0.095	-0.021
-476.303	-200.000	0.016	-0.084
-475.289	-200.000	-0.011	-0.095
-474.274	-125.758	0.223	-0.034
-473.259	-82.510	-0.220	-0.072
-472.245	204.999	0.072	-0.113
-471.230	-173.601	0.218	0.007
-470.216	-41.362	-0.093	0.049
-469.201	223.869	0.159	-0.259
-468.186	295.175	-0.082	0.151
-467.172	417.440	0.047	-0.102
-466.157	-80.271	0.079	-0.027
-465.143	-48.423	-0.308	-0.150
-464.128	355.549	-0.049	-0.098
-463.113	-5.380	-0.163	-0.113
-462.099	800.000	0.076	0.295
-461.084	-200.000	0.010	-0.153
-460.070	-178.250	0.301	-0.007
-459.055	211.049	0.213	-0.338
-458.040	185.931	-0.122	-0.183
-457.026	96.084	0.134	-0.154
-456.011	163.228	-0.086	-0.123
-454.997	800.000	-0.055	-0.233
-453.982	-200.000	-0.001	-0.044
-452.968	70.246	0.145	0.151
-451.953	-80.465	0.140	-0.047
-450.938	411.542	-0.072	-0.154
-449.924	-2.505	-0.341	-0.241
-448.909	-47.307	0.073	-0.036
-447.895	48.675	-0.159	-0.151
-446.880	-200.000	-0.025	-0.119
-445.865	-32.536	-0.174	0.098
-444.851	51.900	0.173	-0.166
-443.836	-24.535	0.262	0.158
-442.822	120.310	0.019	0.024
-441.807	-200.000	-0.001	0.323
-440.792	-11.254	0.169	0.112
-439.778	-200.000	-0.026	0.179
-438.763	800.000	0.068	0.189
-437.749	-117.525	0.327	-0.060
-436.734	106.641	0.078	-0.093
-435.719	-42.554	-0.063	0.032
-434.705	277.912	0.088	-0.158
-433.690	159.117	0.057	0.080
-432.676	-50.408	-0.027	-0.013
-431.661	39.532	0.096	0.087
-430.646	-33.900	0.134	-0.074
-429.632	-137.707	-0.114	-0.013
-428.617	-94.336	0.139	0.038
-427.603	-200.000	-0.003	-0.108
-426.588	219.687	0.140	-0.226
-425.573	-124.217	0.246	0.039
-424.559	-200.000	0.050	-0.370
-423.544	-65.092	0.079	-0.032
-422.530	455.694	0.132	-0.296
-421.515	-120.500	0.059	0.010
-420.500	395.527	0.063	-0.132
-419.486	-96.755	0.190	-0.050
-418.471	-200.000	0.016	0.101
-417.457	714.493	0.040	0.107
-416.442	38.015	-0.149	-0.134
-415.428	-19.503	-0.124	-0.077
-414.413	-105.540	-0.140	-0.032
-413.398	-200.000	0.024	0.490
-412.384	96.596	0.137	-0.159
-411.369	800.000	-0.101	-0.316
-410.355	159.617	-0.322	-0.452
-409.340	-200.000	-0.042	0.329
-408.325	-25.953	0.214	-0.127
-407.311	-138.758	0.132	-0.015
-406.296	-200.000	-0.041	-0.258
-405.282	512.770	0.135	0.318
-404.267	153.432	-0.162	0.223
-403.252	-102.254	-0.331	0.080
-402.238	799.208	0.075	0.208
-401.223	-127.388	0.277	0.041
-400.209	469.396	0.064	-0.146
-399.194	691.089	-0.030	-0.078
-398.179	97.030	0.185	-0.214
-397.165	-102.046	-0.152	-0.037
-396.150	-70.140	0.165	0.063
-395.136	131.448	-0.191	0.248
-394.121	-115.889	-0.237	0.045
-393.106	800.000	-0.020	0.084
-392.092	785.512	0.091	-0.251
-391.077	-68.133	-0.099	0.039
-390.063	-115.173	-0.294	0.056
-389.048	-11.143	-0.132	0.088
-388.033	800.000	0.076	-0.243
-387.019	652.428	0.124	0.319
-386.004	38.803	-0.337	-0.303
-384.990	34.107	-0.278	-0.244
-383.975	-14.862	0.063	-0.041
-382.960	1.336	0.096	0.070
-381.946	196.863	0.194	-0.299
-380.931	428.274	-0.194	-0.423
-379.917	15.703	0.045	0.035
-378.902	-167.831	0.038	-0.001
-377.888	-200.000	-0.080	0.389
-376.873	-200.000	0.016	-0.148
-375.858	-74.168	0.346	0.126
-374.844	33.423	0.400	0.350
-373.829	-85.501	-0.132	0.041
-372.815	45.765	-0.079	-0.073
-371.800	58.548	-0.035	0.034
-370.785	369.921	-0.073	0.149
-369.771	534.158	-0.028	0.067
-368.756	-200.000	0.025	0.152
-367.742	116.589	-0.044	-0.054
-366.727	-90.951	0.460	-0.133
-365.712	149.831	-0.205	-0.280
-364.698	419.278	0.055	0.118
-363.683	361.151	-0.075	0.152
-362.669	88.721	-0.109	0.123
-361.654	-54.206	-0.185	0.085
-360.639	-9.236	0.264	-0.177
-359.625	-200.000	0.016	0.135
-358.610	-115.148	0.362	0.069
-357.596	-200.000	-0.018	-0.145
-356.581	-107.072	0.290	-0.064
-355.566	-200.000	-0.053	-0.259
-354.552	44.166	-0.073	-0.067
-353.537	503.566	-0.101	-0.236
-352.523	-200.000	-0.033	-0.365
-351.508	-200.000	0.001	-0.054
-350.493	-200.000	-0.008	-0.303
-349.479	-88.195	-0.266	-0.080
-348.464	-93.745	-0.154	-0.043
-347.450	239.237	0.072	-0.121
-346.435	37.764	-0.083	-0.074
-345.420	39.644	-0.345	0.311
-344.406	12.526	-0.255	0.198
-343.391	-164.658	-0.198	0.009
-342.377	-159.540	0.462	-0.026
-341.362	-89.647	-0.380	-0.112
-340.348	76.473	0.225	-0.240
-339.333	-200.000	-0.110	0.657
-338.318	-60.771	0.373	0.159
-337.304	97.505	0.138	-0.159
-336.289	-42.209	0.056	-0.029
-335.275	-11.681	-0.175	-0.116
-334.260	46.811	-0.067	-0.063
-333.245	-41.287	0.407	0.211
-332.231	-6.882	-0.416	0.285
-331.216	800.000	0.020	0.079
-330.202	-63.111	0.058	-0.024
-329.187	113.167	-0.039	0.047
-328.172	98.885	0.060	-0.070
-327.158	-122.261	-0.179	-0.029
-326.143	800.000	0.028	-0.085
-325.129	-18.462	-0.170	-0.107
-324.114	-43.416	0.107	-0.054
-323.099	-144.681	0.419	-0.039
-322.085	-75.498	-0.192	0.069
-321.070	246.754	0.204	0.346
-320.056	90.863	-0.397	-0.447
-319.041	-33.312	0.301	-0.168
-318.026	-100.642	-0.086	-0.021
-317.012	800.000	-0.077	-0.285
-315.997	-200.000	-0.014	-0.253
-314.983	-13.080	0.180	0.118
-313.968	800.000	-0.050	-0.203
-312.953	-108.867	-0.232	0.050
-311.939	518.530	-0.008	0.018
-310.924	496.935	-0.033	0.077
-309.910	740.819	-0.098	0.263
-308.895	800.000	-0.072	0.283
-307.880	252.602	-0.123	-0.211
-306.866	-200.000	0.063	0.279
-305.851	-38.012	-0.281	0.150
-304.837	800.000	0.133	0.436
-303.822	-200.000	-0.060	0.440
-302.807	800.000	-0.060	0.224
-301.793	-127.066	0.295	-0.044
-300.778	800.000	-0.009	-0.040
-299.764	107.875	0.181	-0.216
-298.749	130.196	0.069	-0.089
-297.735	205.394	0.078	0.122
-296.720	134.594	-0.079	0.103
-295.705	718.289	-0.016	0.043
-294.691	-65.921	0.171	0.069
-293.676	9.210	0.226	0.172
-292.662	-200.000	0.025	0.112
-291.647	-200.000	0.039	-0.236
-290.632	-200.000	-0.072	0.406
-289.618	-104.560	0.080	-0.019
-288.603	106.515	-0.083	-0.098
-287.589	149.019	-0.137	0.186
-286.574	-75.863	-0.302	0.108
-285.559	300.283	0.179	0.332
-284.545	204.250	0.113	0.175
-283.530	-82.717	0.182	-0.059
-282.516	-200.000	0.061	0.329
-281.501	-200.000	0.039	0.186
-280.486	279.305	0.178	-0.319
-279.472	119.648	0.193	-0.240
-278.457	10.220	0.322	-0.246
-277.443	-200.000	-0.004	-0.228
-276.428	164.292	-0.064	-0.090
-275.413	-200.000	-0.010	0.461
-274.399	800.000	-0.111	-0.345
-273.384	-93.299	-0.295	0.082
-272.370	-6.137	0.097	0.066
-271.355	9.977	-0.239	-0.182
-270.340	-75.376	-0.379	-0.135
-269.326	-139.102	-0.190	0.021
-268.311	-200.000	0.054	0.434
-267.297	693.969	-0.028	0.073
-266.282	-161.990	0.137	0.007
-265.267	-19.313	0.279	0.174
-264.253	-156.048	-0.055	0.003
-263.238	15.325	-0.249	0.196
-262.224	-36.126	-0.194	0.105
-261.209	-142.602	-0.051	0.005
-260.195	9.315	0.103	0.078
-259.180	-101.040	-0.162	0.040
-258.165	338.128	-0.064	0.124
-257.151	781.198	0.132	-0.361
-256.136	-80.806	0.236	-0.079
-255.122	-111.588	-0.159	-0.032
-254.107	-125.698	0.097	0.015
-253.092	800.000	0.080	0.338
-252.078	-94.861	0.418	0.114
-251.063	162.788	-0.057	-0.081
-250.049	28.911	-0.292	-0.248
-249.034	800.000	0.046	-0.166
-248.019	-130.618	0.126	-0.017
-247.005	-200.000	0.022	0.111
-245.990	-33.524	-0.066	-0.036
-244.976	-200.000	-0.062	0.294
-243.961	-200.000	0.009	0.215
-242.946	50.489	0.039	0.037
-241.932	212.743	0.051	0.081
-240.917	-17.691	0.058	-0.037
-239.903	-200.000	-0.010	0.187
-238.888	-91.120	0.043	0.012
-237.873	-80.195	0.216	-0.073
-236.859	104.310	0.109	0.128
-235.844	-200.000	-0.057	0.279
-234.830	-146.746	-0.048	0.004
-233.815	-200.000	-0.063	-0.370
-232.800	83.895	0.082	0.089
-231.786	-200.000	0.008	0.075
-230.771	800.000	-0.019	0.074
-229.757	-79.635	0.352	-0.119
-228.742	301.856	0.079	-0.146
-227.727	144.091	-0.084	0.113
-226.713	352.020	0.192	0.381
-225.698	-116.745	0.195	0.036
-224.684	-139.420	0.216	0.023
-223.669	73.436	-0.093	-0.097
-222.655	-78.698	0.267	-0.091
-221.640	-200.000	0.013	0.164
-220.625	65.163	0.127	0.129
-219.611	63.947	-0.049	-0.049
-218.596	87.592	0.199	0.220
-217.582	247.030	-0.022	-0.037
-216.567	192.132	0.178	0.270
-215.552	-200.000	0.001	-0.010
-214.538	53.116	-0.103	0.098
-213.523	-200.000	0.005	0.163
-212.509	6.790	0.138	0.103
-211.494	483.302	0.046	-0.104
-210.479	800.000	-0.085	0.353
-209.465	-93.101	0.035	0.010
-208.450	163.794	0.059	0.083
-207.436	-114.500	-0.144	-0.028
-206.421	346.120	-0.075	0.148
-205.406	-105.269	0.326	0.074
-204.392	-26.078	-0.141	-0.083
-203.377	15.196	0.239	0.187
-202.363	-32.227	-0.084	-0.047
-201.348	-56.941	-0.195	0.086
-200.333	-200.000	-0.054	-0.466
-199.319	-105.101	-0.137	0.031
-198.304	-48.760	0.024	-0.011
-197.290	-200.000	-0.023	0.480
-196.275	-39.303	0.362	-0.190
-195.260	-148.674	0.258	-0.021
-194.246	204.352	0.164	0.254
-193.231	403.507	0.153	0.323
-192.217	311.542	0.097	0.182
-191.202	-162.881	-0.251	-0.012
-190.187	-133.774	-0.237	0.030
-189.173	-65.021	0.155	-0.063
-188.158	267.664	-0.088	0.153
-187.144	-200.000	-0.017	-0.095
-186.129	800.000	-0.020	0.072
-185.114	581.101	-0.114	0.279
-184.100	218.681	-0.135	0.216
-183.085	-67.888	0.233	0.091
-182.071	172.191	0.131	0.188
-181.056	800.000	-0.033	-0.126
-180.042	800.000	-0.035	0.106
-179.027	445.122	-0.027	0.059
-178.012	340.381	-0.031	-0.060
-176.998	125.270	0.061	-0.077
-175.983	618.718	0.084	0.210
-174.969	-89.316	0.101	0.030
-173.954	-37.482	-0.147	0.079
-172.939	101.545	0.239	0.279
-171.925	-61.112	0.303	-0.128
-170.910	-114.020	-0.044	0.009
-169.896	461.662	0.078	-0.174
-168.881	-200.000	0.028	0.210
-167.866	-179.790	0.158	0.003
-166.852	-28.349	-0.159	-0.092
-165.837	225.215	-0.169	-0.273
-164.823	800.000	0.041	0.154
-163.808	-87.315	0.260	0.079
-162.793	-34.299	0.110	0.060
-161.779	-133.474	-0.348	-0.044
-160.764	81.293	0.151	0.163
-159.750	-200.000	0.007	0.179
-158.735	316.286	-0.062	0.118
-157.720	-40.802	0.067	-0.035
-156.706	429.720	0.051	0.110
-155.691	172.448	-0.105	0.151
-154.677	212.111	0.146	0.229
-153.662	98.762	0.213	-0.245
-152.647	312.181	-0.078	-0.146
-151.633	7.896	0.145	-0.109
-150.618	256.812	0.031	-0.054
-149.604	46.557	-0.159	-0.148
-148.589	47.552	-0.138	-0.128
-147.574	213.434	-0.062	0.098
-146.560	-200.000	-0.001	-0.296
-145.545	544.099	0.049	0.118
-144.531	-29.551	-0.337	-0.192
-143.516	-170.248	-0.388	-0.014
-142.502	-50.702	-0.079	0.037
-141.487	218.067	0.116	-0.184
-140.472	353.373	-0.133	0.263
-139.458	800.000	0.027	0.093
-138.443	23.245	0.173	0.142
-137.429	-200.000	-0.008	-0.155
-136.414	-200.000	0.008	-0.293
-135.399	-200.000	-0.014	0.081
-134.385	-84.914	-0.391	0.123
-133.370	12.448	0.336	-0.259
-132.356	-200.000	0.012	0.111
-131.341	-6.768	-0.139	-0.094
-130.326	-124.180	-0.470	0.073
-129.312	-200.000	-0.010	-0.434
-128.297	-105.047	0.156	0.036
-127.283	176.920	-0.058	0.084
-126.268	-124.316	0.387	-0.060
-125.253	-44.751	-0.058	0.029
-124.239	17.700	0.186	-0.148
-123.224	800.000	0.122	0.438
-122.210	-20.818	0.275	0.168
-121.195	774.325	0.071	0.194
-120.180	-10.876	0.045	0.030
-119.166	569.266	0.062	0.150
-118.151	-72.081	-0.135	-0.050
-117.137	-200.000	0.014	0.070
-116.122	-132.578	0.282	-0.036
-115.107	-200.000	-0.005	0.202
-114.093	-144.749	0.239	-0.022
-113.078	-46.785	-0.437	0.213
-112.064	-200.000	-0.024	0.187
-111.049	454.768	0.175	0.386
-110.034	19.158	0.167	0.134
-109.020	-200.000	0.007	0.130
-108.005	-50.778	0.065	-0.030
-106.991	-29.113	0.143	-0.082
-105.976	19.824	-0.228	-0.183
-104.962	-200.000	0.007	0.139
-103.947	-200.000	-0.029	0.258
-102.932	800.000	-0.147	0.527
-101.918	537.724	-0.106	0.251
-100.903	194.482	0.193	-0.292
-99.889	-62.956	0.048	-0.020
-98.874	-42.800	0.151	0.077
-97.859	-146.835	-0.282	-0.024
-96.845	-49.711	-0.123	-0.058
-95.830	-49.227	0.074	0.035
-94.816	-200.000	-0.015	0.223
-93.801	267.591	0.067	0.116
-92.786	42.958	0.158	0.144
-91.772	-0.942	0.178	0.126
-90.757	-200.000	0.055	0.296
-89.743	800.000	0.052	-0.188
-88.728	248.240	0.156	-0.262
-87.713	-200.000	0.013	-0.289
-86.699	-43.736	-0.169	0.085
-85.684	611.200	0.034	-0.083
-84.670	800.000	-0.028	-0.087
-83.655	73.508	0.144	0.150
-82.640	-164.999	-0.113	0.005
-81.626	209.687	-0.143	-0.223
-80.611	404.427	0.058	0.121
-79.597	169.534	-0.115	-0.163
-78.582	692.604	0.076	0.199
-77.567	800.000	-0.051	0.208
-76.553	185.273	0.133	-0.197
-75.538	442.904	-0.114	0.248
-74.524	-200.000	0.015	0.156
-73.509	-55.503	0.381	-0.170
-72.494	61.308	0.175	-0.173
-71.480	-7.327	0.192	-0.129
-70.465	146.367	0.045	0.060
-69.451	137.060	-0.087	-0.113
-68.436	-200.000	-0.012	0.520
-67.422	207.986	0.062	-0.097
-66.407	800.000	0.016	0.057
-65.392	-26.009	-0.275	0.161
-64.378	-181.955	0.526	0.010
-63.363	526.624	-0.060	-0.140
-62.349	728.008	0.086	-0.228
-61.334	30.524	-0.815	-0.694
-60.319	-86.731	0.513	0.156
-59.305	800.000	0.244	-0.764
-58.290	152.105	0.659	0.894
-57.276	453.911	0.742	1.635
-56.261	-200.000	86.424	507.228
-55.246	431.731	1422.523	3067.529
-54.232	139.719	2643.994	3465.260
-53.217	108.485	2254.301	2677.632
-52.203	47.875	1688.837	1569.259
-51.188	40.537	1416.017	1268.978
-50.173	37.379	1371.953	1209.823
-49.159	56.233	1414.896	1367.143
-48.144	60.534	1433.826	1412.543
-47.130	41.181	1391.455	1250.815
-46.115	37.445	1374.242	1212.058
-45.100	37.201	1369.347	1206.176
-44.086	37.107	1366.537	1203.074
-43.071	37.077	1364.012	1200.617
-42.057	37.029	1362.068	1198.563
-41.042	37.137	1360.221	1197.553
-40.027	37.182	1358.467	1196.242
-39.013	37.341	1356.385	1195.339
-37.998	37.222	1354.376	1192.791
-36.984	37.317	1352.438	1191.616
-35.969	37.305	1350.808	1190.057
-34.954	37.441	1348.602	1188.899
-33.940	37.362	1347.374	1187.290
-32.925	37.323	1346.394	1186.138
-31.911	37.423	1344.336	1184.890
-30.896	37.399	1343.255	1183.746
-29.881	37.329	1342.188	1182.328
-28.867	37.415	1340.482	1181.301
-27.852	37.545	1338.774	1180.542
-26.838	37.406	1337.616	1178.629
-25.823	37.421	1336.191	1177.421
-24.809	37.429	1334.514	1175.942
-23.794	37.483	1332.857	1174.758
-22.779	37.464	1331.619	1173.511
-21.765	37.341	1330.763	1171.967
-20.750	37.399	1329.177	1170.870
-19.736	37.269	1327.891	1168.911
-18.721	37.266	1326.306	1167.453
-17.706	37.217	1324.924	1165.893
-16.692	37.183	1323.753	1164.615
-15.677	37.206	1322.859	1163.915
-14.663	37.191	1321.823	1162.870
-13.648	37.247	1320.489	1161.987
-12.633	37.234	1319.056	1160.602
-11.619	37.278	1318.439	1160.274
-10.604	37.184	1317.824	1159.127
-9.590	37.234	1316.537	1158.248
-8.575	37.221	1315.594	1157.292
-7.560	37.276	1314.589	1156.692
-6.546	37.221	1313.940	1155.750
-5.531	37.260	1313.154	1155.241
-4.517	37.193	1312.382	1154.121
-3.502	37.200	1311.509	1153.348
-2.487	37.261	1310.365	1152.658
-1.473	37.296	1306.388	1149.318
-0.458	36.462	1291.637	1131.417
0.556	31.346	1273.212	1090.706
1.571	26.811	1276.436	1066.764
2.586	24.774	1289.839	1065.745
3.600	23.491	1278.310	1048.548
4.615	17.290	1200.096	949.768
5.629	6.306	1116.125	825.872
6.644	0.908	1092.019	780.194
7.659	0.270	1089.671	775.166
8.673	0.266	1088.525	774.263
9.688	0.128	1087.731	772.916
10.702	0.502	1085.976	773.523
11.717	6.296	1094.369	809.292
12.731	15.417	1106.572	865.482
13.746	18.255	1108.904	881.876
14.761	17.317	1106.751	875.261
15.775	16.203	1105.030	868.090
16.790	15.238	1102.571	861.127
17.804	14.422	1100.872	855.538
18.819	14.037	1100.203	852.969
19.834	13.754	1098.953	850.473
20.848	13.615	1097.686	848.704
21.863	13.403	1096.606	846.710
22.877	13.133	1096.607	845.254
23.892	13.077	1095.392	843.956
24.907	13.125	1095.021	843.842
25.921	13.135	1094.140	843.135
26.936	13.194	1093.128	842.583
27.950	13.222	1092.236	841.964
28.965	13.319	1090.899	841.354
29.980	13.326	1089.511	840.245
30.994	13.348	1088.656	839.623
32.009	13.451	1087.572	839.233
33.023	13.396	1086.308	837.906
34.038	13.302	1085.673	836.868
35.053	13.211	1084.688	835.573
36.067	13.255	1083.508	834.811
37.082	13.302	1083.250	834.777
38.096	13.310	1081.994	833.778
39.111	13.418	1081.152	833.594
40.126	13.214	1080.530	832.016
41.140	13.205	1079.043	830.751
42.155	13.141	1078.035	829.581
43.169	13.109	1076.964	828.523
44.184	13.061	1075.917	827.404
45.199	13.135	1074.738	826.793
46.213	13.087	1073.869	825.810
47.228	13.191	1072.873	825.493
48.242	13.312	1071.624	825.062
49.257	13.135	1070.690	823.388
50.271	13.280	1069.400	823.048
51.286	13.289	1068.744	822.514
52.301	13.368	1067.831	822.129
53.315	13.169	1066.933	820.378
54.330	13.126	1065.682	819.133
55.344	13.096	1065.003	818.389
56.359	13.165	1063.711	817.661
57.374	13.104	1063.199	816.894
58.388	13.196	1061.895	816.274
59.403	13.077	1061.471	815.289
60.417	13.095	1060.681	814.701
61.432	13.092	1059.708	813.864
62.447	12.998	1058.711	812.564
63.461	13.100	1058.204	812.608
64.476	13.007	1056.821	811.016
65.490	13.123	1055.902	810.809
66.505	13.113	1055.491	810.371
67.520	13.181	1054.498	809.873
68.534	13.141	1053.938	809.172
69.549	13.076	1053.189	808.209
70.563	13.062	1052.571	807.592
71.578	13.106	1051.467	806.891
72.593	12.962	1051.101	805.836
73.607	12.891	1050.715	805.118
74.622	13.047	1049.589	804.945
75.636	13.119	1048.723	804.561
76.651	12.957	1048.163	803.272
77.666	12.954	1047.692	802.828
78.680	13.027	1046.763	802.400
79.695	13.095	1045.706	801.847
80.709	13.072	1045.296	801.348
81.724	13.129	1044.775	801.155
82.739	13.301	1043.790	801.164
83.753	13.215	1043.338	800.328
84.768	13.286	1042.174	799.710
85.782	13.401	1041.186	799.435
86.797	13.267	1040.806	798.425
87.812	13.239	1039.625	797.314
88.826	13.175	1038.548	796.112
89.841	13.256	1037.643	795.735
90.855	13.344	1036.382	795.121
91.870	13.354	1035.651	794.538
92.884	13.350	1034.672	793.697
93.899	13.369	1034.139	793.310
94.914	13.487	1033.086	792.996
95.928	13.337	1032.556	791.802
96.943	13.338	1031.427	790.873
97.957	13.414	1030.064	790.120
98.972	13.378	1029.915	789.765
99.987	13.365	1028.789	788.766
101.001	13.292	1028.097	787.818
102.016	13.309	1026.850	786.874
103.030	13.374	1026.010	786.471
104.045	13.304	1025.583	785.739
105.060	13.360	1024.267	784.931
106.074	13.180	1023.497	783.417
107.089	13.253	1022.245	782.736
108.103	13.069	1021.871	781.506
109.118	13.152	1021.008	781.170
110.133	13.119	1019.884	780.086
111.147	13.185	1018.818	779.513
112.162	13.227	1018.247	779.205
113.176	13.248	1017.365	778.558
114.191	13.210	1016.681	777.791
115.206	13.381	1015.652	777.738
116.220	13.222	1015.070	776.477
117.235	13.223	1013.970	775.570
118.249	13.161	1013.404	774.776
119.264	13.290	1012.268	774.443
120.279	13.382	1011.605	774.299
121.293	13.213	1010.998	772.978
122.308	13.177	1009.948	771.939
123.322	13.333	1008.533	771.517
124.337	13.159	1007.956	770.194
125.352	13.134	1006.810	769.134
126.366	13.179	1005.448	768.232
127.381	13.148	1004.727	767.474
128.395	13.256	1003.706	767.126
129.410	13.200	1002.889	766.174
130.424	13.254	1001.958	765.645
131.439	13.255	1001.113	764.934
132.454	13.306	1000.403	764.561
133.468	13.292	999.587	763.806
134.483	13.295	998.817	763.164
135.497	13.231	997.592	761.865
136.512	13.453	996.656	762.105
137.527	13.308	995.897	760.790
138.541	13.357	995.251	760.456
139.556	13.310	994.615	759.687
140.570	13.405	993.892	759.503
141.585	13.600	992.422	759.204
142.600	13.453	991.778	757.972
143.614	13.517	991.167	757.732
144.629	13.524	990.186	756.944
145.643	13.566	989.375	756.451
146.658	13.392	988.429	754.868
147.673	13.409	987.321	754.033
148.687	13.330	986.883	753.269
149.702	13.287	985.718	752.119
150.716	13.270	985.136	751.530
151.731	13.390	984.262	751.342
152.746	13.366	983.373	750.488
153.760	13.399	982.584	749.969
154.775	13.433	982.356	749.883
155.789	13.600	981.586	749.986
156.804	13.541	980.579	748.883
157.819	13.552	980.086	748.491
158.833	13.486	979.515	747.688
159.848	13.716	978.399	747.806
160.862	13.452	977.711	746.029
161.877	13.522	976.207	745.128
162.892	13.487	975.765	744.566
163.906	13.331	974.796	743.061
164.921	13.459	973.770	742.788
165.935	13.621	972.903	742.788
166.950	13.627	971.789	741.897
167.964	13.619	970.974	741.175
168.979	13.603	970.180	740.429
169.994	13.518	969.064	739.133
171.008	13.493	968.955	738.874
172.023	13.572	968.042	738.464
173.037	13.545	967.512	737.876
174.052	13.648	966.298	737.344
175.067	13.649	965.940	737.009
176.081	13.722	965.070	736.601
177.096	13.614	964.382	735.534
178.110	13.491	964.448	734.973
179.125	13.624	963.697	734.927
180.140	13.598	963.406	734.522
181.154	13.687	962.571	734.217
182.169	13.727	961.928	733.837
183.183	13.758	961.414	733.518
184.198	13.663	960.671	732.467
185.213	13.854	959.636	732.456
186.227	13.770	959.353	731.804
187.242	13.868	958.267	731.343
188.256	13.881	957.862	731.024
189.271	13.824	956.833	729.925
190.286	13.743	956.500	729.250
191.300	13.565	955.656	727.760
192.315	13.612	955.021	727.417
193.329	13.695	954.109	727.022
194.344	13.712	953.631	726.671
195.359	13.805	953.166	726.658
196.373	13.854	952.282	726.132
197.388	13.891	951.801	725.864
198.402	13.881	951.225	725.319
199.417	14.049	950.425	725.375
200.432	14.116	949.946	725.237
201.446	14.138	949.163	724.673
202.461	14.083	948.815	724.103
203.475	14.020	948.566	723.575
204.490	14.133	947.418	723.125
205.504	14.030	946.608	721.996
206.519	14.106	945.930	721.746
207.534	14.050	945.288	720.948
208.548	14.109	944.625	720.634
209.563	14.053	943.830	719.724
210.577	14.122	943.316	719.565
211.592	14.213	942.389	719.188
212.607	14.212	941.907	718.753
213.621	14.132	941.272	717.858
214.636	14.133	940.206	716.988
215.650	14.161	939.403	716.434
216.665	14.296	939.075	716.701
217.680	14.267	938.218	715.859
218.694	14.240	937.866	715.408
219.709	14.210	936.997	714.552
220.723	14.244	936.078	713.934
221.738	14.441	935.439	714.229
222.753	14.276	934.923	713.068
223.767	14.607	934.058	713.759
224.782	14.413	933.346	712.323
225.796	14.458	933.023	712.207
226.811	14.336	932.651	711.338
227.826	14.283	931.384	710.082
228.840	14.372	930.855	709.996
229.855	14.315	929.932	708.986
230.869	14.385	929.067	708.560
231.884	14.313	928.480	707.746
232.899	14.383	927.920	707.555
233.913	14.524	926.916	707.323
234.928	14.277	926.624	705.992
235.942	14.325	925.839	705.532
236.957	14.606	924.938	705.973
237.972	14.431	924.759	705.036
238.986	14.361	924.115	704.184
240.001	14.414	923.799	704.104
241.015	14.397	923.007	703.368
242.030	14.532	921.827	702.976
243.045	14.479	921.628	702.540
244.059	14.401	921.238	701.848
245.074	14.595	920.348	701.926
246.088	14.473	919.578	700.766
247.103	14.707	918.646	700.972
248.117	14.677	918.282	700.509
249.132	14.814	917.670	700.553
250.147	14.742	917.067	699.728
251.161	14.817	916.266	699.372
252.176	14.597	916.095	698.257
253.190	14.853	915.063	698.477
254.205	14.924	914.358	698.176
255.220	14.869	913.608	697.312
256.234	14.870	913.133	696.891
257.249	14.856	912.303	696.138
258.263	14.900	911.511	695.653
259.278	14.848	910.892	694.907
260.293	14.940	910.453	694.891
261.307	15.070	910.100	695.100
262.322	15.100	909.061	694.370
263.336	15.112	908.193	693.695
264.351	15.024	907.546	692.776
265.366	15.033	906.849	692.218
266.380	15.154	906.284	692.225
267.395	15.104	905.737	691.542
268.409	15.085	904.897	690.759
269.424	15.143	904.116	690.340
270.439	15.078	903.592	689.613
271.453	15.131	902.933	689.267
272.468	15.039	902.494	688.493
273.482	15.092	901.706	688.047
274.497	15.001	901.554	687.497
275.512	15.296	900.337	687.720
276.526	15.199	900.055	687.044
277.541	15.129	899.524	686.292
278.555	15.321	898.725	686.407
279.570	15.326	898.036	685.842
280.585	15.376	897.091	685.262
281.599	15.288	896.550	684.428
282.614	15.281	896.082	683.985
283.628	15.319	895.597	683.708
284.643	15.251	894.768	682.736
285.657	15.252	894.319	682.339
286.672	15.365	893.660	682.233
287.687	15.465	892.648	681.809
288.701	15.426	892.092	681.163
289.716	15.249	892.079	680.374
290.730	15.322	891.173	679.920
291.745	15.441	890.558	679.874
292.760	15.412	890.112	679.355
293.774	15.463	889.103	678.731
294.789	15.439	888.414	678.046
295.803	15.424	888.004	677.614
296.818	15.436	887.159	676.958
297.833	15.493	886.259	676.440
298.847	15.523	885.638	676.027
299.862	15.564	885.227	675.822
300.876	15.518	884.881	675.311
301.891	15.538	883.995	674.656
302.906	15.535	883.832	674.458
303.920	15.802	882.827	674.703
304.935	15.802	882.324	674.260
305.949	15.684	881.513	673.108
306.964	15.625	881.200	672.573
307.979	15.690	880.669	672.367
308.993	15.789	880.037	672.221
310.008	15.718	879.492	671.462
311.022	15.579	879.274	670.681
312.037	15.779	878.054	670.488
313.052	15.689	877.228	669.438
314.066	15.582	877.259	668.977
315.081	15.685	876.436	668.704
316.095	15.766	875.657	668.371
317.110	15.715	875.315	667.847
318.125	15.787	874.584	667.514
319.139	15.844	874.119	667.330
320.154	15.859	873.834	667.110
321.168	15.774	873.036	666.105
322.183	15.750	872.463	665.516
323.197	15.761	872.146	665.260
324.212	15.755	871.446	664.641
325.227	15.699	871.140	664.128
326.241	15.854	869.931	663.758
327.256	15.751	869.864	663.244
328.270	15.895	868.860	662.987
329.285	15.893	868.514	662.654
330.300	15.970	867.675	662.261
331.314	15.829	867.514	661.522
332.329	15.762	867.329	661.063
333.343	15.859	866.671	660.881
334.358	16.074	865.833	661.027
335.373	15.906	866.038	660.467
336.387	16.022	865.172	660.200
337.402	16.143	864.777	660.317
338.416	16.050	864.584	659.746
339.431	16.216	864.091	659.960
340.446	15.990	864.104	659.030
341.460	16.002	863.521	658.570
342.475	16.061	863.098	658.421
343.489	16.163	862.679	658.444
344.504	16.231	862.018	658.143
345.519	16.382	861.443	658.235
346.533	16.400	860.653	657.642
347.548	16.320	860.212	656.939
348.562	16.148	859.905	655.977
349.577	16.283	858.979	655.738
350.592	16.295	858.251	655.169
351.606	16.210	857.694	654.355
352.621	16.396	856.900	654.414
353.635	16.400	856.183	653.825
354.650	16.404	855.483	653.245
355.665	16.298	855.336	652.667
356.679	16.366	854.872	652.516
357.694	16.328	854.129	651.745
358.708	16.375	853.448	651.351
359.723	16.414	852.892	651.018
360.738	16.367	852.082	650.161
361.752	16.327	851.558	649.547
362.767	16.523	850.703	649.591
363.781	16.548	850.228	649.268
364.796	16.392	850.255	648.632
365.810	16.575	849.534	648.726
366.825	16.644	849.355	648.799
367.840	16.512	848.997	647.960
368.854	16.567	848.215	647.518
369.869	16.567	848.028	647.317
370.883	16.668	847.318	647.103
371.898	16.773	846.775	647.033
372.913	16.685	846.347	646.314
373.927	16.623	845.973	645.734
374.942	16.538	845.621	645.085
375.956	16.724	845.195	645.409
376.971	16.826	844.759	645.408
377.986	16.775	844.265	644.781
379.000	16.966	843.423	644.806
380.015	16.866	843.224	644.217
381.029	16.842	842.598	643.589
382.044	16.980	841.920	643.539
383.059	16.816	841.545	642.573
384.073	16.838	841.169	642.313
385.088	16.893	840.279	641.785
386.102	16.830	839.688	641.038
387.117	16.663	838.990	639.818
388.132	16.916	838.594	640.413
389.146	16.909	838.182	640.016
390.161	16.906	837.630	639.530
391.175	16.954	837.401	639.478
392.190	16.920	836.590	638.672
393.205	17.029	835.568	638.248
394.219	16.895	835.690	637.778
395.234	17.001	834.987	637.584
396.248	16.886	835.066	637.157
397.263	16.884	834.921	636.982
398.278	16.831	834.468	636.381
399.292	16.951	833.270	635.862
400.307	17.093	832.971	636.107
401.321	17.037	832.622	635.578
402.336	17.078	831.790	635.038
403.350	17.037	831.379	634.514
404.365	17.157	831.014	634.629
405.380	17.158	830.612	634.268
406.394	17.278	830.111	634.279
407.409	17.143	830.120	633.725
408.423	17.174	829.630	633.412
409.438	17.305	829.093	633.433
410.453	17.281	828.541	632.866
411.467	17.329	828.100	632.651
412.482	17.317	827.642	632.202
413.496	17.458	827.175	632.314
414.511	17.361	826.842	631.640
415.526	17.411	826.245	631.314
416.540	17.378	825.705	630.725
417.555	17.344	825.518	630.399
418.569	17.248	825.502	629.976
419.584	17.358	824.700	629.713
420.599	17.439	824.028	629.446
421.613	98.397	1278.974	1417.208
422.628	84.896	1345.281	1417.345
