DTS Sentinel unit serial number:	SN413079Multiplexer serial number:	ORYXHardware model number:	OX4-SRSoftware version number:	ORYX F/W v4.00 Oryx Data Collector v3.7.2.0data status	okinstallation	princeton_trtdifferential loss correction	single-endedforward channel	channel 1reverse channel	N/Adate	2019/09/13time	11:34:35forward acquisition time	60.00reverse acquisition time	0.00gamma	496.2192k internal	0.2314k external	0.2314temperature offset calibration	1.0149default loss term (dB/km)	0.3790temperature slope calibration	1.0000multiplexer offset coefficient	1.0000multiplexer slope coefficient	1.0000fibre end	0.00T internal ref (°C)	32.87T ext. ref 1 (°C)	4.40T ext. ref 2 (°C)	30.11length (m)	temperature (°C)	Stokes	anti-Stokes-747.200	596.136	-0.018	-0.046
-746.185	-200.000	-0.026	0.214
-745.171	-200.000	0.000	0.110
-744.156	-200.000	-0.053	0.360
-743.142	-200.000	-0.014	0.363
-742.127	800.000	0.006	-0.025
-741.112	-78.549	0.110	-0.038
-740.098	-26.793	-0.102	0.060
-739.083	-200.000	0.019	0.153
-738.069	-200.000	0.023	0.162
-737.054	-20.889	-0.190	0.118
-736.039	-132.492	-0.251	-0.033
-735.025	209.042	-0.025	-0.039
-734.010	-82.135	-0.103	-0.034
-732.996	-109.313	-0.201	-0.043
-731.981	-200.000	-0.037	0.169
-730.966	-200.000	0.028	0.134
-729.952	-99.502	0.244	0.062
-728.937	-124.266	-0.356	0.056
-727.923	-200.000	0.020	-0.237
-726.908	-137.553	0.257	-0.029
-725.894	-102.285	0.263	0.064
-724.879	3.669	-0.262	0.194
-723.864	30.932	0.264	-0.229
-722.850	74.272	-0.080	0.085
-721.835	-189.398	-0.092	0.001
-720.821	-71.304	0.166	-0.063
-719.806	38.810	0.218	0.197
-718.791	-200.000	-0.025	-0.167
-717.777	-200.000	0.075	0.468
-716.762	-49.201	0.125	-0.060
-715.748	-200.000	0.003	-0.035
-714.733	-107.155	-0.183	0.041
-713.718	59.469	0.078	0.077
-712.704	-200.000	0.015	0.277
-711.689	-11.802	0.107	-0.071
-710.675	-65.497	-0.101	-0.041
-709.660	14.736	0.196	-0.155
-708.645	19.275	-0.307	0.249
-707.631	-138.026	0.321	0.036
-706.616	34.980	-0.249	-0.221
-705.602	18.407	-0.065	0.052
-704.587	-73.330	0.285	0.105
-703.572	-28.563	-0.286	0.167
-702.558	795.526	0.067	0.187
-701.543	463.711	0.100	-0.227
-700.529	-24.820	-0.031	0.019
-699.514	-200.000	0.009	0.203
-698.499	-47.717	0.330	0.162
-697.485	68.664	0.071	-0.074
-696.470	-92.752	-0.320	-0.091
-695.456	308.393	0.078	-0.147
-694.441	-200.000	-0.320	0.000
-693.426	-152.382	-0.109	0.008
-692.412	-99.226	-0.187	-0.048
-691.397	-96.219	-0.269	-0.072
-690.383	-102.693	0.083	0.020
-689.368	-95.541	0.089	0.024
-688.354	-128.801	-0.450	-0.064
-687.339	-176.042	0.296	0.008
-686.324	-99.373	-0.196	0.050
-685.310	-65.948	0.165	0.067
-684.295	467.436	-0.167	0.380
-683.281	-6.287	0.300	-0.207
-682.266	-133.706	-0.330	-0.042
-681.251	-86.595	0.234	0.073
-680.237	-115.750	-0.106	-0.020
-679.222	15.595	-0.149	0.119
-678.208	65.410	-0.187	-0.191
-677.193	305.080	0.138	-0.259
-676.178	328.592	0.121	-0.236
-675.164	41.802	-0.168	0.154
-674.149	-200.000	-0.032	0.300
-673.135	239.687	-0.040	0.068
-672.120	161.132	-0.165	-0.233
-671.105	800.000	-0.117	-0.382
-670.091	-200.000	-0.008	-0.368
-669.076	15.072	-0.111	-0.088
-668.062	800.000	0.094	-0.272
-667.047	68.244	0.157	-0.163
-666.032	800.000	-0.044	-0.165
-665.018	-122.588	0.344	-0.056
-664.003	-200.000	-0.016	0.215
-662.989	7.215	0.233	0.176
-661.974	156.001	0.179	-0.249
-660.959	-93.230	0.078	0.022
-659.945	10.962	0.235	-0.181
-658.930	58.896	0.243	-0.241
-657.916	9.728	-0.246	-0.189
-656.901	-200.000	0.069	-0.345
-655.886	-122.703	0.269	-0.044
-654.872	-200.000	0.016	-0.208
-653.857	137.132	-0.251	0.332
-652.843	117.419	0.194	0.241
-651.828	-200.000	0.026	-0.140
-650.814	-20.930	0.156	-0.097
-649.799	622.262	0.092	-0.235
-648.784	28.517	0.350	0.299
-647.770	124.919	0.080	-0.102
-646.755	598.896	0.130	0.326
-645.741	-200.000	0.002	0.254
-644.726	-22.941	0.162	-0.099
-643.711	26.905	-0.242	0.205
-642.697	-169.615	0.217	-0.008
-641.682	800.000	-0.097	-0.309
-640.668	800.000	0.135	0.452
-639.653	-1.440	0.073	-0.052
-638.638	-136.119	-0.384	0.046
-637.624	-104.479	-0.165	-0.038
-636.609	800.000	0.072	-0.216
-635.595	-200.000	-0.076	-0.366
-634.580	13.110	-0.206	0.161
-633.565	-200.000	0.008	0.148
-632.551	-168.030	0.276	0.011
-631.536	800.000	0.055	-0.157
-630.522	717.652	0.085	0.229
-629.507	-9.307	0.119	-0.080
-628.492	-110.112	-0.131	-0.028
-627.478	-132.687	-0.036	0.005
-626.463	-79.871	0.287	0.097
-625.449	106.182	0.150	-0.179
-624.434	-200.000	-0.003	0.044
-623.419	70.825	-0.214	0.224
-622.405	-200.000	-0.028	-0.150
-621.390	-200.000	0.025	-0.115
-620.376	-165.327	-0.119	-0.005
-619.361	74.858	-0.123	0.131
-618.346	38.177	0.246	0.221
-617.332	335.643	0.132	0.258
-616.317	-99.946	0.259	-0.065
-615.303	78.139	0.203	-0.218
-614.288	22.098	0.337	-0.277
-613.273	-145.814	-0.464	0.042
-612.259	-200.000	-0.014	-0.275
-611.244	-64.963	0.178	0.072
-610.230	-118.881	-0.146	-0.026
-609.215	232.734	-0.027	0.045
-608.201	439.912	-0.076	-0.168
-607.186	-200.000	0.031	-0.174
-606.171	11.395	0.177	-0.137
-605.157	126.837	-0.037	0.048
-604.142	19.544	0.181	0.147
-603.128	-28.923	0.054	0.032
-602.113	136.061	-0.160	-0.211
-601.098	-67.524	0.348	0.138
-600.084	143.267	-0.097	0.130
-599.069	-85.880	-0.237	-0.074
-598.055	-18.596	-0.052	-0.032
-597.040	668.406	-0.094	-0.246
-596.025	-187.094	0.404	-0.006
-595.011	-200.000	-0.018	0.134
-593.996	340.002	0.022	-0.043
-592.982	15.545	-0.303	0.240
-591.967	-200.000	0.002	-0.067
-590.952	-195.905	-0.295	0.002
-589.938	372.348	0.120	-0.245
-588.923	31.983	0.179	-0.155
-587.909	619.892	-0.107	-0.272
-586.894	46.292	-0.210	0.196
-585.879	-109.440	0.158	0.034
-584.865	-150.718	0.112	-0.009
-583.850	-200.000	0.063	0.366
-582.836	16.071	0.242	-0.192
-581.821	510.854	-0.148	0.346
-580.806	90.645	0.088	0.099
-579.792	800.000	-0.062	-0.190
-578.777	160.201	-0.146	0.205
-577.763	98.953	-0.177	-0.205
-576.748	655.284	0.042	-0.108
-575.733	-156.876	-0.263	-0.016
-574.719	-86.545	-0.025	-0.008
-573.704	39.457	0.122	0.110
-572.690	23.934	0.123	-0.102
-571.675	-132.669	0.280	0.036
-570.661	-28.890	-0.227	0.132
-569.646	-130.277	-0.323	-0.044
-568.631	53.018	0.185	0.178
-567.617	210.117	0.168	0.266
-566.602	-200.000	-0.057	-0.337
-565.588	202.464	-0.203	-0.316
-564.573	147.619	0.101	0.137
-563.558	26.070	-0.039	0.033
-562.544	87.532	0.080	-0.089
-561.529	49.491	0.197	-0.187
-560.515	242.715	-0.070	0.118
-559.500	90.558	0.249	-0.281
-558.485	6.308	0.223	-0.167
-557.471	-20.409	-0.147	0.091
-556.456	750.241	0.048	0.130
-555.442	-104.514	0.248	-0.058
-554.427	121.332	0.301	0.377
-553.412	169.136	-0.097	-0.139
-552.398	-46.609	0.462	-0.228
-551.383	-81.875	0.267	-0.088
-550.369	209.236	-0.154	-0.243
-549.354	39.310	-0.121	-0.109
-548.339	-200.000	0.002	-0.162
-547.325	85.531	0.136	-0.150
-546.310	-113.899	-0.226	-0.044
-545.296	800.000	0.111	-0.331
-544.281	187.616	0.168	-0.252
-543.266	169.645	-0.174	-0.249
-542.252	39.539	-0.128	-0.115
-541.237	-132.748	0.214	0.028
-540.223	258.856	0.077	-0.133
-539.208	-146.090	-0.264	-0.023
-538.193	46.998	0.198	0.185
-537.179	112.176	-0.198	0.241
-536.164	-57.907	0.202	-0.089
-535.150	562.429	-0.083	-0.203
-534.135	800.000	0.062	0.219
-533.121	800.000	0.015	-0.052
-532.106	171.582	-0.073	0.105
-531.091	-63.861	0.161	0.066
-530.077	-166.455	-0.100	0.004
-529.062	18.047	-0.128	-0.103
-528.048	606.126	-0.120	-0.302
-527.033	-200.000	0.034	-0.261
-526.018	-78.773	0.015	-0.005
-525.004	88.218	0.137	0.153
-523.989	-30.942	0.235	0.133
-522.975	-76.482	-0.085	0.030
-521.960	-120.949	0.010	0.002
-520.945	31.606	-0.057	-0.049
-519.931	716.369	0.058	0.155
-518.916	-118.970	0.141	-0.025
-517.902	-123.256	-0.091	-0.015
-516.887	135.778	0.138	0.180
-515.872	681.354	-0.083	-0.217
-514.858	-19.209	-0.220	0.137
-513.843	-200.000	0.031	0.201
-512.829	-53.558	-0.192	-0.088
-511.814	-19.449	0.312	-0.194
-510.799	-200.000	-0.007	-0.379
-509.785	-78.023	-0.251	-0.087
-508.770	-6.364	0.289	-0.198
-507.756	-162.067	0.433	0.022
-506.741	-44.492	-0.198	-0.100
-505.726	-76.781	0.111	-0.039
-504.712	152.571	0.143	-0.196
-503.697	200.569	-0.126	0.195
-502.683	-200.000	-0.043	0.213
-501.668	4.460	0.233	-0.171
-500.653	353.173	-0.040	0.080
-499.639	59.594	0.266	0.263
-498.624	-157.908	0.307	-0.018
-497.610	198.352	-0.312	-0.478
-496.595	-200.000	0.019	0.161
-495.581	-64.709	-0.415	-0.169
-494.566	434.870	-0.109	-0.238
-493.551	-166.877	0.350	0.014
-492.537	-10.711	-0.193	0.128
-491.522	92.668	0.210	-0.238
-490.508	305.361	-0.159	-0.296
-489.493	-200.000	-0.026	0.223
-488.478	-6.885	-0.168	0.115
-487.464	174.683	-0.017	-0.025
-486.449	-200.000	-0.023	-0.257
-485.435	-29.708	0.249	-0.143
-484.420	332.922	-0.056	0.109
-483.405	-57.500	0.056	-0.025
-482.391	-137.826	0.084	-0.009
-481.376	800.000	0.092	-0.361
-480.362	-136.778	-0.377	-0.044
-479.347	262.810	-0.046	-0.081
-478.332	800.000	0.124	0.459
-477.318	-62.586	0.261	0.109
-476.303	800.000	-0.091	-0.297
-475.289	153.833	0.118	-0.162
-474.274	23.743	-0.125	0.103
-473.259	-43.143	0.325	0.165
-472.245	246.550	-0.054	-0.092
-471.230	75.494	-0.193	0.205
-470.216	-77.231	0.250	0.087
-469.201	-41.937	0.273	-0.140
-468.186	19.441	-0.143	-0.115
-467.172	-106.749	0.193	-0.043
-466.157	-200.000	0.011	-0.138
-465.143	-200.000	0.009	0.094
-464.128	75.746	-0.045	-0.047
-463.113	137.657	0.152	-0.199
-462.099	-50.287	-0.255	0.121
-461.084	-200.000	0.030	0.260
-460.070	-184.756	-0.189	0.003
-459.055	-200.000	0.047	0.219
-458.040	149.885	-0.067	0.091
-457.026	370.738	-0.078	0.158
-456.011	-200.000	0.083	0.402
-454.997	-170.325	0.235	-0.008
-453.982	98.984	-0.355	-0.411
-452.968	-200.000	0.035	-0.214
-451.953	213.920	0.239	-0.379
-450.938	-40.806	0.201	-0.104
-449.924	229.290	0.098	0.161
-448.909	-160.810	-0.025	-0.001
-447.895	-200.000	-0.035	0.188
-446.880	217.508	-0.070	0.112
-445.865	274.147	0.128	-0.227
-444.851	800.000	0.044	-0.124
-443.836	800.000	0.073	0.270
-442.822	800.000	-0.043	0.183
-441.807	485.363	0.109	0.248
-440.792	-101.109	-0.214	0.053
-439.778	-93.133	-0.160	-0.045
-438.763	-39.416	-0.135	-0.071
-437.749	800.000	-0.045	0.156
-436.734	91.885	0.224	-0.253
-435.719	39.407	0.033	0.030
-434.705	-200.000	-0.031	0.351
-433.690	264.930	0.182	-0.318
-432.676	800.000	-0.014	0.041
-431.661	179.033	0.171	-0.251
-430.646	-112.905	-0.392	-0.078
-429.632	-61.820	-0.230	0.096
-428.617	-190.222	-0.199	-0.002
-427.603	172.129	-0.272	0.392
-426.588	-80.914	-0.378	0.125
-425.573	32.991	-0.054	0.047
-424.559	-143.223	-0.055	-0.005
-423.544	2.618	-0.126	0.091
-422.530	82.296	-0.094	0.102
-421.515	-200.000	0.166	0.000
-420.500	274.746	0.047	-0.083
-419.486	-129.008	0.172	-0.024
-418.471	-200.000	0.003	0.219
-417.457	672.118	0.106	-0.276
-416.442	-39.019	0.225	-0.119
-415.428	47.276	-0.084	0.078
-414.413	-105.503	0.154	-0.035
-413.398	-126.560	-0.346	-0.051
-412.384	-200.000	0.041	0.258
-411.369	-25.182	0.333	0.198
-410.355	-8.752	-0.244	0.164
-409.340	-200.000	-0.026	-0.299
-408.325	163.747	-0.104	-0.147
-407.311	-140.493	-0.101	-0.010
-406.296	257.964	-0.098	-0.169
-405.282	111.479	-0.196	0.236
-404.267	30.717	-0.104	0.089
-403.252	-131.329	0.244	-0.032
-402.238	337.831	0.147	0.286
-401.223	95.008	-0.208	-0.236
-400.209	-114.886	-0.305	-0.058
-399.194	-200.000	0.009	-0.274
-398.179	-19.925	-0.323	-0.199
-397.165	94.721	-0.275	0.313
-396.150	-75.626	0.114	-0.041
-395.136	-120.279	0.110	-0.019
-394.121	-200.000	-0.054	0.338
-393.106	-5.767	0.314	-0.215
-392.092	-3.341	-0.177	0.123
-391.077	800.000	0.041	-0.119
-390.063	-107.632	0.637	-0.139
-389.048	-104.163	0.112	-0.026
-388.033	800.000	0.020	0.059
-387.019	-200.000	0.017	-0.129
-386.004	-200.000	0.044	-0.237
-384.990	-105.377	0.092	0.021
-383.975	-139.212	0.239	-0.026
-382.960	234.384	0.195	-0.321
-381.946	157.277	0.162	-0.223
-380.931	-34.379	-0.055	-0.030
-379.917	211.543	-0.080	0.125
-378.902	-137.277	-0.313	-0.036
-377.888	-7.935	-0.218	0.147
-376.873	-200.000	-0.012	0.266
-375.858	542.074	0.137	-0.326
-374.844	118.107	-0.129	0.158
-373.829	112.613	0.078	0.095
-372.815	800.000	0.035	-0.103
-371.800	800.000	-0.034	-0.102
-370.785	69.775	-0.341	-0.351
-369.771	-142.633	0.162	-0.016
-368.756	-33.784	-0.221	-0.121
-367.742	-99.247	0.229	0.058
-366.727	-90.075	-0.118	-0.034
-365.712	-62.736	-0.212	-0.088
-364.698	238.328	-0.079	0.131
-363.683	307.949	-0.115	0.215
-362.669	-99.101	0.208	-0.053
-361.654	4.900	0.155	-0.114
-360.639	-149.265	-0.113	-0.009
-359.625	110.308	0.147	0.176
-358.610	-102.439	-0.175	0.042
-357.596	-41.993	-0.215	-0.110
-356.581	-93.497	-0.227	-0.063
-355.566	364.377	-0.043	-0.086
-354.552	-71.790	-0.250	-0.093
-353.537	-200.000	-0.007	-0.087
-352.523	144.707	0.156	0.208
-351.508	-44.508	-0.119	-0.060
-350.493	22.555	-0.227	0.186
-349.479	45.546	0.101	0.093
-348.464	-31.265	-0.344	-0.193
-347.450	-200.000	-0.002	-0.014
-346.435	-200.000	0.007	0.080
-345.420	-164.684	0.208	0.009
-344.406	448.105	0.157	-0.346
-343.391	134.100	-0.052	-0.067
-342.377	-200.000	-0.008	-0.060
-341.362	-200.000	-0.001	0.332
-340.348	91.236	0.281	-0.314
-339.333	-200.000	0.029	-0.176
-338.318	-134.817	-0.321	0.039
-337.304	268.373	-0.072	0.126
-336.289	-200.000	0.001	0.127
-335.275	800.000	-0.059	-0.203
-334.260	-25.692	0.355	-0.209
-333.245	-158.803	-0.636	0.036
-332.231	-200.000	0.025	-0.301
-331.216	-103.173	0.528	-0.125
-330.202	129.923	0.225	0.287
-329.187	-142.735	-0.156	0.015
-328.172	800.000	0.013	0.048
-327.158	-106.095	0.484	-0.109
-326.143	800.000	-0.019	0.069
-325.129	800.000	0.038	-0.124
-324.114	20.434	-0.197	0.159
-323.099	592.624	0.133	0.329
-322.085	-200.000	0.001	0.186
-321.070	800.000	0.082	-0.343
-320.056	128.841	-0.062	0.079
-319.041	-83.905	-0.535	0.170
-318.026	57.061	0.020	-0.019
-317.012	-200.000	-0.031	-0.294
-315.997	432.726	-0.111	0.241
-314.983	61.299	-0.199	0.197
-313.968	-200.000	0.003	0.210
-312.953	-151.261	0.363	0.027
-311.939	653.516	0.095	0.244
-310.924	-127.075	-0.089	0.013
-309.910	800.000	0.009	0.031
-308.895	-3.734	-0.132	0.091
-307.880	-42.530	-0.091	-0.046
-306.866	800.000	-0.055	0.204
-305.851	21.713	0.183	-0.148
-304.837	-32.596	0.119	-0.066
-303.822	393.916	-0.077	-0.161
-302.807	-121.672	0.192	0.032
-301.793	-104.711	0.135	-0.031
-300.778	-200.000	-0.020	-0.172
-299.764	61.030	-0.149	-0.147
-298.749	30.457	0.054	-0.046
-297.735	-200.000	0.003	0.110
-296.720	687.761	0.081	-0.210
-295.705	-200.000	-0.019	-0.310
-294.691	52.839	-0.050	-0.047
-293.676	-110.502	-0.121	-0.025
-292.662	-65.820	0.061	-0.024
-291.647	-54.592	-0.100	-0.045
-290.632	-154.900	-0.204	0.013
-289.618	800.000	-0.140	0.477
-288.603	-40.126	0.067	0.035
-287.589	-155.879	0.106	0.007
-286.574	35.587	-0.220	0.192
-285.559	800.000	-0.062	-0.176
-284.545	-70.012	0.094	0.036
-283.530	-72.939	0.227	0.083
-282.516	11.114	-0.256	-0.195
-281.501	9.400	-0.177	0.134
-280.486	93.232	-0.117	0.132
-279.472	69.731	-0.034	-0.035
-278.457	128.579	-0.081	-0.103
-277.443	-187.045	0.430	-0.006
-276.428	-83.952	-0.149	-0.047
-275.413	800.000	-0.052	0.189
-274.399	-200.000	-0.029	0.254
-273.384	-60.611	-0.251	0.106
-272.370	-61.945	-0.197	0.082
-271.355	16.248	0.264	0.207
-270.340	-59.429	0.233	0.100
-269.326	-96.162	0.087	-0.023
-268.311	-200.000	0.057	-0.325
-267.297	-200.000	-0.020	0.176
-266.282	-174.404	-0.406	0.012
-265.267	-200.000	-0.061	0.309
-264.253	237.782	0.200	0.330
-263.238	207.371	0.170	-0.263
-262.224	406.745	-0.047	0.099
-261.209	-50.321	0.099	0.046
-260.195	49.753	0.072	0.067
-259.180	-21.726	-0.090	-0.054
-258.165	121.391	0.131	-0.162
-257.151	89.244	0.173	0.191
-256.136	-200.000	-0.033	0.156
-255.122	-162.207	0.123	0.006
-254.107	-104.734	-0.229	0.052
-253.092	47.958	-0.211	0.196
-252.078	-170.421	-0.231	0.008
-251.063	3.542	-0.138	0.100
-250.049	800.000	-0.087	0.271
-249.034	-179.255	0.352	0.008
-248.019	-200.000	0.050	0.243
-247.005	-158.667	0.154	0.009
-245.990	-114.757	-0.317	0.060
-244.976	115.299	-0.154	0.187
-243.961	-43.389	-0.467	-0.235
-242.946	624.187	-0.024	-0.060
-241.932	-200.000	-0.031	0.198
-240.917	-200.000	0.003	-0.019
-239.903	0.759	0.232	-0.165
-238.888	-85.418	0.224	0.069
-237.873	-159.316	0.314	-0.017
-236.859	229.771	-0.166	0.270
-235.844	-200.000	0.028	0.557
-234.830	145.073	0.079	0.106
-233.815	800.000	-0.019	-0.073
-232.800	264.999	0.109	0.189
-231.786	513.645	-0.136	0.314
-230.771	102.516	-0.257	0.299
-229.757	-29.027	-0.129	0.073
-228.742	501.954	0.052	0.120
-227.727	-51.475	-0.210	0.097
-226.713	-55.857	0.351	-0.156
-225.698	31.206	0.131	-0.111
-224.684	800.000	-0.011	0.031
-223.669	461.472	-0.104	-0.230
-222.655	-181.362	-0.385	-0.008
-221.640	2.346	-0.134	-0.097
-220.625	55.187	0.193	-0.185
-219.611	-11.943	-0.436	-0.284
-218.596	-91.977	0.112	-0.031
-217.582	-52.888	-0.208	0.095
-216.567	-200.000	0.030	0.153
-215.552	138.026	0.111	0.145
-214.538	198.386	-0.088	0.134
-213.523	800.000	0.039	0.165
-212.509	574.516	0.133	0.322
-211.494	-200.000	0.003	0.018
-210.479	607.883	0.059	-0.147
-209.465	-131.698	-0.207	0.027
-208.450	199.601	-0.072	-0.110
-207.436	78.898	0.215	-0.228
-206.421	387.765	-0.040	-0.082
-205.406	-84.278	-0.057	0.018
-204.392	175.425	-0.040	0.058
-203.377	10.731	-0.344	0.261
-202.363	-182.319	-0.293	0.005
-201.348	425.473	-0.099	-0.211
-200.333	418.368	-0.195	0.413
-199.319	700.259	-0.047	-0.124
-198.304	104.593	-0.200	0.234
-197.290	-200.000	-0.019	0.094
-196.275	-39.520	-0.129	-0.067
-195.260	-200.000	-0.014	0.284
-194.246	-93.279	0.279	0.077
-193.231	-150.089	0.237	-0.018
-192.217	-157.438	0.046	-0.003
-191.202	147.724	0.091	0.122
-190.187	353.797	0.100	0.198
-189.173	0.278	0.208	-0.147
-188.158	-24.843	0.184	-0.108
-187.144	277.024	0.167	-0.295
-186.129	800.000	-0.100	-0.376
-185.114	1.717	-0.208	-0.148
-184.100	32.030	0.072	-0.062
-183.085	118.427	0.085	-0.104
-182.071	800.000	-0.030	0.117
-181.056	659.723	-0.086	0.220
-180.042	79.433	0.092	-0.098
-179.027	-109.088	-0.221	0.047
-178.012	800.000	-0.019	0.069
-176.998	163.297	0.153	0.213
-175.983	-154.899	-0.414	0.027
-174.969	800.000	0.036	0.130
-173.954	-200.000	0.028	-0.203
-172.939	60.608	0.052	0.051
-171.925	-39.342	0.306	0.159
-170.910	283.898	-0.147	0.263
-169.896	104.274	0.133	0.155
-168.881	-161.098	-0.052	0.003
-167.866	-75.879	-0.235	-0.083
-166.852	357.536	0.024	0.047
-165.837	-200.000	-0.058	-0.334
-164.823	774.219	-0.097	-0.263
-163.808	414.170	0.107	-0.226
-162.793	-200.000	0.009	-0.475
-161.779	92.480	-0.046	0.052
-160.764	235.717	-0.042	-0.069
-159.750	-200.000	-0.027	0.158
-158.735	-107.878	0.328	0.071
-157.720	800.000	0.054	0.167
-156.706	800.000	-0.070	0.228
-155.691	800.000	0.018	-0.073
-154.677	126.448	0.103	-0.129
-153.662	-200.000	0.041	0.288
-152.647	723.689	0.045	0.119
-151.633	-200.000	-0.003	-0.255
-150.618	39.861	0.031	0.028
-149.604	390.788	-0.123	0.253
-148.589	-35.372	0.035	0.019
-147.574	-139.452	0.169	-0.018
-146.560	-2.069	0.106	-0.074
-145.545	-200.000	-0.008	-0.071
-144.531	-200.000	0.010	-0.091
-143.516	84.673	0.071	-0.077
-142.502	-18.249	0.314	0.195
-141.487	-41.524	-0.428	-0.218
-140.472	-200.000	-0.009	0.112
-139.458	-200.000	-0.015	0.121
-138.443	-77.021	-0.177	-0.061
-137.429	118.672	0.124	-0.151
-136.414	-108.106	0.189	0.041
-135.399	800.000	0.115	-0.315
-134.385	191.133	-0.289	-0.431
-133.370	21.300	-0.050	0.040
-132.356	39.693	0.172	-0.152
-131.341	68.792	-0.073	-0.074
-130.326	-13.918	0.270	0.173
-129.312	-200.000	0.021	-0.343
-128.297	-200.000	0.092	-0.402
-127.283	99.146	0.163	-0.186
-126.268	797.884	-0.091	0.247
-125.253	622.913	0.047	0.117
-124.239	-117.970	-0.326	-0.058
-123.224	46.298	0.045	0.041
-122.210	-200.000	-0.029	0.278
-121.195	-15.713	0.081	-0.051
-120.180	800.000	-0.064	0.244
-119.166	-105.698	0.115	0.026
-118.151	-200.000	-0.024	-0.166
-117.137	-200.000	-0.027	-0.138
-116.122	15.934	0.122	0.095
-115.107	-84.528	-0.252	0.079
-114.093	24.612	-0.232	-0.190
-113.078	-52.491	-0.229	-0.105
-112.064	-79.989	-0.203	-0.067
-111.049	800.000	-0.024	0.082
-110.034	454.962	0.115	0.251
-109.020	390.596	0.186	-0.382
-108.005	775.587	0.069	-0.186
-106.991	800.000	0.007	0.025
-105.976	800.000	-0.037	-0.111
-104.962	101.317	0.025	0.028
-103.947	90.418	-0.095	-0.105
-102.932	-36.841	0.091	0.048
-101.918	800.000	0.057	0.166
-100.903	98.789	-0.124	0.141
-99.889	800.000	-0.042	0.126
-98.874	-53.076	0.211	0.096
-97.859	-13.011	-0.247	-0.159
-96.845	306.452	0.076	-0.140
-95.830	680.766	0.119	-0.307
-94.816	-155.355	0.300	-0.019
-93.801	-200.000	-0.035	0.228
-92.786	-200.000	0.033	0.164
-91.772	-200.000	0.049	0.389
-90.757	-159.544	0.060	0.003
-89.743	133.285	0.140	0.179
-88.728	90.851	-0.062	0.068
-87.713	-19.924	0.208	0.127
-86.699	-200.000	-0.008	0.241
-85.684	-42.863	0.240	-0.120
-84.670	391.179	-0.111	-0.227
-83.655	-113.502	-0.183	0.035
-82.640	-89.810	0.415	-0.120
-81.626	57.638	-0.099	-0.096
-80.611	129.525	-0.203	-0.256
-79.597	-34.493	-0.417	-0.225
-78.582	83.994	-0.121	-0.130
-77.567	-143.985	0.152	0.014
-76.553	-85.737	-0.075	0.023
-75.538	-200.000	0.082	0.383
-74.524	-36.287	-0.081	-0.043
-73.509	-200.000	0.007	0.130
-72.494	-200.000	-0.020	-0.235
-71.480	-64.073	-0.140	-0.056
-70.465	-106.647	0.069	0.015
-69.451	-124.722	-0.083	0.013
-68.436	631.497	-0.086	-0.216
-67.422	800.000	-0.081	0.250
-66.407	-200.000	0.009	-0.200
-65.392	276.767	0.103	0.181
-64.378	-59.442	-0.136	0.058
-63.363	-117.427	-0.429	0.077
-62.349	-84.540	0.236	0.074
-61.334	32.759	-0.907	-0.775
-60.319	70.754	0.444	0.453
-59.305	800.000	-0.310	-0.926
-58.290	800.000	0.221	0.709
-57.276	337.196	0.775	1.487
-56.261	-200.000	97.338	594.726
-55.246	612.747	1430.645	3533.336
-54.232	183.537	2631.744	3839.311
-53.217	119.531	2189.215	2675.251
-52.203	44.870	1634.503	1484.574
-51.188	36.339	1368.827	1190.882
-50.173	33.090	1326.144	1134.243
-49.159	55.832	1373.455	1313.890
-48.144	58.231	1390.196	1344.456
-47.130	36.663	1347.601	1174.199
-46.115	33.045	1329.938	1137.037
-45.100	32.867	1325.277	1131.940
-44.086	32.759	1323.139	1129.424
-43.071	32.782	1320.128	1126.941
-42.057	32.792	1318.585	1125.640
-41.042	32.791	1316.940	1124.187
-40.027	32.758	1315.903	1123.060
-39.013	32.782	1313.586	1121.181
-37.998	32.772	1312.041	1119.759
-36.984	32.906	1310.054	1118.812
-35.969	32.968	1308.412	1117.736
-34.954	32.965	1306.487	1116.024
-33.940	32.918	1305.488	1114.849
-32.925	32.940	1304.096	1113.748
-31.911	32.956	1302.351	1112.309
-30.896	32.969	1300.591	1110.838
-29.881	32.942	1299.671	1109.846
-28.867	32.978	1298.333	1108.870
-27.852	32.907	1296.740	1107.053
-26.838	33.030	1294.847	1106.114
-25.823	33.015	1293.626	1104.937
-24.809	32.851	1292.765	1103.202
-23.794	32.992	1290.882	1102.372
-22.779	32.969	1289.941	1101.392
-21.765	33.031	1288.269	1100.283
-20.750	32.928	1287.432	1098.921
-19.736	32.940	1285.854	1097.602
-18.721	32.764	1285.147	1095.929
-17.706	32.816	1283.878	1095.110
-16.692	32.765	1282.635	1093.707
-15.677	32.830	1281.222	1092.836
-14.663	32.825	1280.485	1092.133
-13.648	32.806	1279.047	1090.758
-12.633	32.715	1278.530	1089.749
-11.619	32.829	1277.123	1089.164
-10.604	32.798	1276.505	1088.414
-9.590	32.845	1275.367	1087.668
-8.575	32.880	1274.185	1086.822
-7.560	32.746	1274.134	1085.963
-6.546	32.886	1272.897	1085.670
-5.531	32.724	1272.481	1084.339
-4.517	32.779	1271.088	1083.424
-3.502	32.963	1270.126	1083.620
-2.487	32.872	1269.376	1082.416
-1.473	32.884	1265.501	1079.134
-0.458	31.785	1251.092	1060.588
0.556	29.995	1232.749	1021.359
1.571	26.073	1237.864	1003.738
2.586	24.638	1252.488	1007.420
3.600	23.018	1239.448	987.803
4.615	17.234	1165.545	898.334
5.629	8.845	1090.227	798.564
6.644	4.742	1070.076	763.635
7.659	4.364	1067.406	759.810
8.673	4.305	1066.283	758.655
9.688	4.200	1064.991	757.159
10.702	4.767	1063.732	758.961
11.717	10.393	1071.674	792.132
12.731	18.640	1083.598	841.483
13.746	22.016	1087.232	860.811
14.761	21.879	1086.320	859.343
15.775	20.922	1084.710	853.311
16.790	20.042	1082.590	847.267
17.804	19.419	1080.717	842.681
18.819	19.078	1079.880	840.291
19.834	19.068	1079.197	839.636
20.848	18.783	1078.717	837.796
21.863	18.783	1077.522	836.797
22.877	18.576	1076.949	835.267
23.892	18.518	1076.164	834.301
24.907	18.353	1075.808	833.150
25.921	18.367	1074.311	831.987
26.936	18.386	1072.795	830.832
27.950	18.609	1071.219	830.616
28.965	18.536	1070.321	829.494
29.980	18.776	1068.713	829.333
30.994	18.710	1068.148	828.501
32.009	18.914	1066.891	828.437
33.023	18.821	1065.580	826.897
34.038	18.696	1064.799	825.616
35.053	18.679	1063.725	824.629
36.067	18.573	1063.082	823.551
37.082	18.576	1062.362	822.932
38.096	18.636	1062.118	822.962
39.111	18.827	1060.949	822.895
40.126	18.602	1059.711	820.784
41.140	18.215	1058.019	817.556
42.155	18.168	1056.324	815.948
43.169	18.078	1055.880	815.103
44.184	18.123	1054.710	814.342
45.199	18.090	1054.095	813.639
46.213	18.449	1052.635	814.146
47.228	18.551	1051.899	813.987
48.242	18.570	1050.982	813.299
49.257	18.521	1049.986	812.223
50.271	18.657	1049.118	812.123
51.286	18.659	1048.365	811.477
52.301	18.683	1047.116	810.552
53.315	18.420	1046.441	808.719
54.330	18.386	1045.257	807.570
55.344	18.320	1044.771	806.812
56.359	18.313	1043.842	805.990
57.374	18.312	1042.230	804.668
58.388	18.143	1041.442	803.198
59.403	18.131	1040.900	802.653
60.417	18.251	1039.653	802.181
61.432	18.095	1039.148	800.992
62.447	18.001	1038.339	799.856
63.461	18.017	1037.391	799.128
64.476	17.955	1036.346	797.964
65.490	17.956	1035.770	797.455
66.505	18.098	1034.781	797.284
67.520	17.964	1034.303	796.221
68.534	17.964	1033.750	795.724
69.549	17.958	1032.904	794.974
70.563	17.972	1031.727	794.063
71.578	17.676	1031.480	792.427
72.593	17.668	1030.598	791.641
73.607	17.702	1029.913	791.203
74.622	17.811	1029.119	791.028
75.636	17.832	1028.608	790.664
76.651	17.836	1028.083	790.208
77.666	17.898	1027.020	789.611
78.680	18.039	1025.935	789.355
79.695	17.917	1025.791	788.614
80.709	18.175	1025.408	789.438
81.724	18.124	1025.229	788.995
82.739	18.294	1024.532	789.172
83.753	18.496	1023.492	789.234
84.768	18.822	1022.957	790.252
85.782	18.980	1022.158	790.290
86.797	18.854	1021.117	788.835
87.812	18.683	1019.678	786.872
88.826	18.753	1018.827	786.465
89.841	18.656	1018.217	785.481
90.855	18.889	1017.163	785.664
91.870	18.922	1016.846	785.500
92.884	18.811	1015.469	783.859
93.899	18.749	1015.150	783.264
94.914	18.942	1014.134	783.286
95.928	18.831	1012.926	781.781
96.943	18.741	1012.107	780.670
97.957	18.668	1011.226	779.591
98.972	18.712	1010.286	778.998
99.987	18.742	1009.657	778.578
101.001	18.702	1008.784	777.653
102.016	18.633	1007.657	776.407
103.030	18.964	1006.593	777.012
104.045	18.772	1006.107	775.702
105.060	18.686	1004.924	774.333
106.074	18.461	1003.934	772.487
107.089	18.305	1002.763	770.814
108.103	18.151	1001.872	769.371
109.118	18.047	1000.956	768.129
110.133	18.064	999.891	767.323
111.147	18.001	998.872	766.191
112.162	18.068	998.571	766.190
113.176	18.209	997.900	766.240
114.191	18.187	997.801	765.999
115.206	18.183	996.658	765.033
116.220	18.035	995.857	763.690
117.235	18.123	994.510	762.982
118.249	18.128	993.704	762.320
119.264	17.997	993.004	761.130
120.279	18.023	991.757	760.225
121.293	17.996	990.873	759.360
122.308	17.860	990.169	758.147
123.322	17.868	989.048	757.259
124.337	17.896	987.857	756.402
125.352	17.891	987.111	755.745
126.366	17.850	986.171	754.773
127.381	17.909	985.284	754.289
128.395	18.064	984.197	754.076
129.410	18.059	983.445	753.410
130.424	18.025	982.742	752.655
131.439	18.237	982.431	753.285
132.454	18.270	981.661	752.771
133.468	18.326	980.775	752.273
134.483	18.236	979.809	751.071
135.497	18.350	978.888	750.796
136.512	18.330	977.950	749.921
137.527	18.361	977.196	749.416
138.541	18.278	976.493	748.448
139.556	18.334	976.113	748.335
140.570	18.390	975.686	748.183
141.585	18.747	974.458	748.733
142.600	18.810	973.786	748.425
143.614	18.854	972.824	747.810
144.629	18.967	972.340	747.863
145.643	18.868	970.599	746.028
146.658	18.650	969.831	744.426
147.673	18.489	968.659	742.766
148.687	18.331	968.034	741.538
149.702	18.348	966.947	740.711
150.716	18.301	966.270	739.924
151.731	18.319	965.586	739.413
152.746	18.377	964.892	739.065
153.760	18.395	964.538	738.809
154.775	18.470	963.907	738.579
155.789	18.535	963.580	738.544
156.804	18.520	962.623	737.682
157.819	18.722	961.399	737.546
158.833	18.733	961.179	737.361
159.848	18.870	960.296	737.205
160.862	18.805	959.324	736.117
161.877	18.490	957.829	733.554
162.892	18.289	956.847	731.877
163.906	18.303	955.776	731.053
164.921	18.299	955.277	730.590
165.935	18.442	954.741	730.728
166.950	18.536	953.743	730.296
167.964	18.376	952.458	728.567
168.979	18.379	951.511	727.793
169.994	18.413	951.162	727.605
171.008	18.684	950.013	727.814
172.023	18.784	950.048	728.198
173.037	18.826	949.016	727.523
174.052	18.713	948.352	726.469
175.067	18.370	947.748	724.489
176.081	18.333	946.969	723.678
177.096	18.297	946.318	722.964
178.110	18.389	945.730	722.837
179.125	18.386	945.360	722.479
180.140	18.599	944.601	722.732
181.154	18.588	944.606	722.623
182.169	18.888	944.006	723.364
183.183	18.877	943.705	723.022
184.198	19.051	942.339	722.646
185.213	18.762	942.061	721.155
186.227	18.900	941.293	721.080
187.242	18.905	940.774	720.640
188.256	19.101	940.078	720.863
189.271	19.080	939.379	720.179
190.286	18.714	938.289	717.749
191.300	18.404	936.884	715.316
192.315	18.246	936.287	714.135
193.329	18.342	936.102	714.333
194.344	18.583	935.472	714.792
195.359	18.617	934.717	714.295
196.373	18.756	934.316	714.505
197.388	18.901	934.266	715.003
198.402	19.077	933.589	715.156
199.417	19.120	933.174	714.954
200.432	19.294	932.947	715.439
201.446	19.294	932.151	714.762
202.461	19.397	931.968	714.988
203.475	19.379	931.168	714.238
204.490	19.112	930.123	712.268
205.504	18.990	929.081	710.899
206.519	18.990	928.043	710.044
207.534	18.723	928.089	708.912
208.548	19.097	926.818	709.423
209.563	18.926	926.611	708.495
210.577	19.080	925.711	708.379
211.592	19.348	925.252	709.067
212.607	19.254	924.906	708.356
213.621	19.225	923.733	707.273
214.636	19.223	923.175	706.775
215.650	19.249	922.486	706.292
216.665	19.376	921.852	706.265
217.680	19.491	921.556	706.448
218.694	19.405	921.023	705.622
219.709	19.355	919.747	704.377
220.723	19.445	918.740	703.913
221.738	19.348	918.629	703.372
222.753	19.336	917.942	702.734
223.767	19.409	917.612	702.717
224.782	19.641	916.815	702.988
225.796	19.519	916.955	702.534
226.811	19.375	915.944	701.114
227.826	19.298	914.819	699.878
228.840	19.325	914.325	699.548
229.855	19.385	913.202	698.870
230.869	19.266	912.720	697.955
231.884	19.167	912.028	696.963
232.899	19.165	911.221	696.279
233.913	19.059	910.470	695.217
234.928	18.985	909.884	694.409
235.942	18.930	909.245	693.637
236.957	19.050	908.707	693.649
237.972	19.044	907.967	692.996
238.986	19.015	907.474	692.442
240.001	19.206	906.826	692.657
241.015	19.333	905.957	692.442
242.030	19.297	905.702	692.041
243.045	19.440	905.189	692.160
244.059	19.383	904.480	691.328
245.074	19.334	904.231	690.880
246.088	19.477	903.374	690.739
247.103	19.536	903.045	690.662
248.117	19.806	902.524	691.282
249.132	19.938	902.637	691.833
250.147	20.142	901.911	692.032
251.161	20.152	901.444	691.650
252.176	20.207	900.880	691.376
253.190	20.301	899.848	690.899
254.205	20.209	899.163	689.944
255.220	20.146	898.561	689.172
256.234	20.204	897.952	688.871
257.249	20.112	897.758	688.300
258.263	20.187	896.436	687.522
259.278	20.117	895.587	686.530
260.293	20.158	895.439	686.519
261.307	20.348	895.000	686.875
262.322	20.329	894.212	686.133
263.336	20.460	893.324	685.908
264.351	20.377	892.449	684.848
265.366	20.628	891.860	685.326
266.380	20.354	891.429	683.854
267.395	20.305	890.723	683.058
268.409	20.246	889.790	682.050
269.424	20.196	888.693	680.956
270.439	20.219	888.100	680.529
271.453	20.020	887.667	679.359
272.468	19.925	886.858	678.305
273.482	19.925	886.598	678.047
274.497	20.230	885.375	678.245
275.512	20.062	885.241	677.425
276.526	20.010	884.891	676.895
277.541	20.181	884.406	677.132
278.555	20.345	883.941	677.356
279.570	20.620	883.293	677.870
280.585	20.424	882.636	676.543
281.599	20.337	881.485	675.264
282.614	20.194	880.745	674.078
283.628	20.208	880.251	673.695
284.643	20.092	879.753	672.805
285.657	20.191	879.172	672.687
286.672	20.189	878.737	672.285
287.687	20.352	877.675	672.047
288.701	20.217	877.435	671.278
289.716	20.335	876.954	671.308
290.730	20.441	875.872	670.829
291.745	20.463	875.452	670.532
292.760	20.413	875.363	670.212
293.774	20.611	874.699	670.409
294.789	20.461	873.872	669.137
295.803	20.440	872.754	668.140
296.818	20.424	872.118	667.535
297.833	20.352	871.340	666.602
298.847	20.330	870.927	666.144
299.862	20.422	870.736	666.293
300.876	20.408	870.451	665.963
301.891	20.636	869.660	666.171
302.906	20.847	869.005	666.418
303.920	20.994	868.918	666.853
304.935	20.892	868.565	666.135
305.949	20.888	867.178	664.996
306.964	20.704	866.656	663.835
307.979	20.811	866.042	663.714
308.993	20.724	865.848	663.176
310.008	20.896	864.903	663.045
311.022	20.735	864.514	662.076
312.037	20.575	863.779	660.850
313.052	20.340	863.269	659.508
314.066	20.389	862.571	659.101
315.081	20.417	861.762	658.532
316.095	20.556	861.309	658.654
317.110	20.500	860.621	657.856
318.125	20.314	860.294	656.844
319.139	20.385	859.901	656.757
320.154	20.491	859.291	656.633
321.168	20.499	858.660	656.120
322.183	20.559	858.175	655.919
323.197	20.554	857.643	655.434
324.212	20.561	857.114	655.001
325.227	20.534	856.590	654.441
326.241	20.505	856.155	653.940
327.256	20.421	855.632	653.166
328.270	20.535	854.474	652.653
329.285	20.416	854.034	651.812
330.300	20.584	853.209	651.757
331.314	20.575	852.998	651.502
332.329	20.827	852.516	652.023
333.343	20.712	852.474	651.502
334.358	20.680	851.922	650.901
335.373	21.004	851.523	651.748
336.387	20.814	851.660	651.086
337.402	20.957	851.182	651.198
338.416	21.107	850.772	651.387
339.431	21.260	850.271	651.518
340.446	21.353	849.982	651.583
341.460	21.376	849.714	651.408
342.475	21.399	849.439	651.222
343.489	21.477	848.743	650.921
344.504	21.529	848.613	650.960
345.519	21.460	848.313	650.413
346.533	21.596	847.207	650.012
347.548	21.164	846.560	647.857
348.562	20.940	845.883	646.450
349.577	20.860	845.480	645.790
350.592	20.910	844.447	645.129
351.606	20.865	843.869	644.461
352.621	20.904	843.180	644.024
353.635	21.067	842.484	644.036
354.650	21.130	842.028	643.863
355.665	21.203	841.352	643.560
356.679	21.225	840.991	643.307
357.694	21.101	840.443	642.374
358.708	21.297	839.315	642.176
359.723	21.191	839.011	641.497
360.738	21.279	838.554	641.416
361.752	21.304	837.755	640.838
362.767	21.370	837.848	641.095
363.781	21.419	837.391	640.869
364.796	21.539	837.093	641.022
365.810	21.837	836.358	641.492
366.825	21.811	836.133	641.169
367.840	21.666	835.451	640.060
368.854	21.643	835.071	639.629
369.869	21.530	834.427	638.664
370.883	21.416	834.379	638.156
371.898	21.711	833.758	638.699
372.913	21.827	833.515	638.880
373.927	21.635	832.617	637.438
374.942	21.664	832.413	637.329
375.956	21.803	831.996	637.459
376.971	21.818	831.681	637.217
377.986	22.059	831.048	637.551
379.000	21.994	830.309	636.691
380.015	21.868	829.942	635.894
381.029	22.029	829.288	635.922
382.044	21.893	829.141	635.259
383.059	22.006	828.159	634.861
384.073	21.953	827.420	634.047
385.088	21.510	827.091	632.136
386.102	21.673	826.030	631.858
387.117	21.557	825.673	631.111
388.132	21.660	825.055	630.955
389.146	21.717	824.587	630.746
390.161	21.747	824.323	630.597
391.175	21.868	823.919	630.665
392.190	21.744	823.664	629.968
393.205	21.648	822.448	628.638
394.219	21.577	822.428	628.312
395.234	21.521	821.897	627.653
396.248	21.505	821.331	627.108
397.263	21.483	820.679	626.474
398.278	21.361	820.210	625.624
399.292	21.251	820.399	625.320
400.307	21.377	819.865	625.308
401.321	21.738	818.692	625.647
402.336	21.562	818.475	624.799
403.350	21.607	818.234	624.719
404.365	21.781	818.153	625.221
405.380	22.059	817.183	625.415
406.394	22.058	816.900	625.141
407.409	22.121	816.658	625.123
408.423	22.128	816.493	624.967
409.438	22.233	815.982	624.894
410.453	22.327	815.635	624.907
411.467	22.352	815.044	624.489
412.482	22.307	814.716	624.022
413.496	22.568	814.148	624.454
414.511	22.501	813.953	624.012
415.526	22.348	813.254	622.880
416.540	22.502	812.596	622.867
417.555	22.381	812.123	622.021
418.569	22.401	812.172	622.073
419.584	22.293	811.755	621.320
420.599	22.475	811.042	621.361
421.613	160.992	1369.421	1792.200
422.628	140.159	1450.813	1792.262
