DTS Sentinel unit serial number:	SN413079Multiplexer serial number:	ORYXHardware model number:	OX4-SRSoftware version number:	ORYX F/W v4.00 Oryx Data Collector v3.7.2.0data status	okinstallation	princeton_trtdifferential loss correction	single-endedforward channel	channel 1reverse channel	N/Adate	2019/09/12time	11:20:11forward acquisition time	60.00reverse acquisition time	0.00gamma	496.2192k internal	0.2295k external	0.2295temperature offset calibration	1.0049default loss term (dB/km)	0.3790temperature slope calibration	1.0000multiplexer offset coefficient	1.0000multiplexer slope coefficient	1.0000fibre end	0.00T internal ref (°C)	39.05T ext. ref 1 (°C)	1.97T ext. ref 2 (°C)	36.49length (m)	temperature (°C)	Stokes	anti-Stokes-747.200	-37.982	-0.179	0.097
-746.185	-200.000	-0.030	0.137
-745.171	-200.000	0.048	-0.223
-744.156	-95.858	-0.258	-0.070
-743.142	-155.493	0.432	-0.029
-742.127	-109.771	0.288	0.062
-741.112	219.837	-0.183	0.299
-740.098	190.214	-0.180	0.276
-739.083	-200.000	0.012	0.163
-738.069	130.355	0.057	0.074
-737.054	342.691	-0.149	0.298
-736.039	-200.000	-0.093	0.421
-735.025	-200.000	-0.001	0.104
-734.010	800.000	-0.046	0.152
-732.996	19.667	-0.205	-0.169
-731.981	423.458	0.170	-0.374
-730.966	800.000	0.034	-0.105
-729.952	15.934	0.238	0.191
-728.937	-76.916	-0.311	-0.111
-727.923	185.392	0.354	-0.537
-726.908	-101.191	0.221	-0.055
-725.894	330.491	-0.039	0.076
-724.879	729.800	-0.114	0.310
-723.864	800.000	-0.088	-0.250
-722.850	138.444	-0.089	-0.120
-721.835	-200.000	0.031	-0.140
-720.821	-77.598	0.248	-0.088
-719.806	111.178	0.104	-0.127
-718.791	-96.961	-0.411	-0.110
-717.777	-200.000	-0.005	-0.356
-716.762	800.000	-0.096	-0.321
-715.748	12.405	-0.081	-0.064
-714.733	457.133	0.153	0.347
-713.718	-200.000	0.028	0.127
-712.704	-93.344	0.280	0.079
-711.689	800.000	-0.021	-0.089
-710.675	106.998	-0.164	-0.199
-709.660	85.021	0.086	-0.096
-708.645	293.528	0.104	-0.194
-707.631	800.000	0.037	-0.150
-706.616	-200.000	0.023	0.176
-705.602	-102.312	0.244	0.060
-704.587	800.000	-0.069	-0.201
-703.572	-53.124	-0.172	0.081
-702.558	-168.818	0.214	0.008
-701.543	-200.000	0.004	-0.062
-700.529	-18.219	0.205	-0.131
-699.514	56.246	-0.179	0.178
-698.499	800.000	-0.098	-0.288
-697.485	-14.590	0.082	-0.054
-696.470	-200.000	0.019	0.221
-695.456	-136.641	-0.192	-0.023
-694.441	297.332	-0.204	-0.383
-693.426	-200.000	-0.004	-0.147
-692.412	-200.000	-0.018	0.093
-691.397	283.347	-0.134	0.246
-690.383	-200.000	-0.079	-0.422
-689.368	2.069	-0.255	0.188
-688.354	-200.000	-0.004	-0.044
-687.339	-112.713	-0.089	-0.018
-686.324	-77.285	-0.044	-0.016
-685.310	188.103	-0.084	-0.128
-684.295	-200.000	-0.034	-0.164
-683.281	800.000	0.107	-0.307
-682.266	-200.000	0.021	0.212
-681.251	145.448	0.107	0.146
-680.237	800.000	-0.088	0.273
-679.222	-6.835	-0.319	0.221
-678.208	39.166	0.034	-0.031
-677.193	-75.666	0.121	0.044
-676.178	-200.000	0.009	0.203
-675.164	-139.838	-0.187	0.020
-674.149	18.743	0.190	0.155
-673.135	567.315	-0.047	0.117
-672.120	800.000	-0.070	-0.249
-671.105	-200.000	-0.006	-0.030
-670.091	-138.309	-0.088	0.010
-669.076	230.157	0.073	0.122
-668.062	-144.210	-0.160	-0.015
-667.047	-200.000	-0.032	-0.218
-666.032	63.128	0.068	-0.070
-665.018	-93.593	-0.077	-0.022
-664.003	-32.947	0.249	0.141
-662.989	11.593	-0.081	-0.063
-661.974	-191.543	-0.151	-0.002
-660.959	123.128	-0.163	0.209
-659.945	710.469	-0.130	0.350
-658.930	-71.671	0.206	-0.078
-657.916	61.109	0.140	0.141
-656.901	31.663	0.259	-0.227
-655.886	-147.665	-0.355	0.030
-654.872	800.000	0.061	0.202
-653.857	54.926	-0.373	-0.367
-652.843	-200.000	-0.023	-0.157
-651.828	-200.000	0.013	-0.318
-650.814	800.000	0.097	-0.343
-649.799	-200.000	-0.021	-0.223
-648.784	10.627	0.112	-0.087
-647.770	-200.000	-0.018	-0.521
-646.755	120.364	-0.047	0.060
-645.741	34.357	0.393	-0.349
-644.726	800.000	-0.066	-0.260
-643.711	-200.000	-0.005	-0.464
-642.697	-76.593	-0.226	0.081
-641.682	-17.366	0.327	0.210
-640.668	-48.955	0.023	0.011
-639.653	29.619	-0.137	0.119
-638.638	88.077	0.267	0.301
-637.624	145.943	-0.167	-0.228
-636.609	-200.000	-0.013	0.103
-635.595	125.909	-0.093	0.120
-634.580	-200.000	0.019	-0.388
-633.565	-89.888	-0.110	-0.033
-632.551	74.785	0.114	-0.122
-631.536	-131.163	0.273	-0.037
-630.522	-65.528	-0.198	0.081
-629.507	-200.000	-0.032	0.145
-628.492	-114.874	0.214	-0.042
-627.478	100.682	-0.323	0.382
-626.463	-35.628	0.285	0.157
-625.449	149.637	-0.133	0.183
-624.434	362.234	0.067	-0.136
-623.419	-10.775	0.447	0.301
-622.405	-200.000	0.030	-0.174
-621.390	468.674	-0.101	-0.230
-620.376	-5.504	0.209	-0.146
-619.361	141.559	-0.236	0.317
-618.346	326.774	0.091	-0.177
-617.332	-90.764	-0.101	-0.030
-616.317	-39.994	-0.196	0.104
-615.303	208.466	0.042	0.066
-614.288	64.698	0.269	-0.276
-613.273	-64.992	-0.101	0.041
-612.259	202.451	-0.153	0.240
-611.244	353.902	0.052	-0.105
-610.230	64.500	-0.176	0.180
-609.215	-107.989	-0.469	0.103
-608.201	-200.000	0.016	-0.108
-607.186	218.062	-0.058	-0.095
-606.171	-35.010	0.189	-0.105
-605.157	104.340	0.174	0.208
-604.142	-138.344	-0.301	-0.034
-603.128	-83.710	-0.261	-0.085
-602.113	-129.783	0.111	0.015
-601.098	469.628	-0.125	-0.285
-600.084	-74.364	-0.244	-0.089
-599.069	-116.588	0.369	0.069
-598.055	-117.595	0.274	-0.050
-597.040	800.000	0.047	-0.182
-596.025	-144.798	-0.030	-0.003
-595.011	64.958	-0.144	0.148
-593.996	-55.191	0.065	0.030
-592.982	17.736	-0.361	0.292
-591.967	-200.000	0.004	0.317
-590.952	286.586	0.032	0.059
-589.938	-66.407	-0.176	-0.071
-588.923	566.399	0.099	0.245
-587.909	-200.000	0.021	0.429
-586.894	-7.212	-0.259	-0.178
-585.879	-41.111	-0.139	-0.073
-584.865	-15.559	-0.041	-0.026
-583.850	-76.266	0.155	0.056
-582.836	-174.760	-0.400	-0.011
-581.821	-112.514	0.319	0.065
-580.806	-99.537	-0.169	0.043
-579.792	-200.000	-0.028	0.283
-578.777	59.345	0.217	-0.217
-577.763	502.683	0.093	-0.217
-576.748	3.108	-0.092	0.068
-575.733	-67.787	-0.241	-0.096
-574.719	-200.000	0.002	-0.070
-573.704	137.682	-0.027	0.035
-572.690	248.276	-0.121	0.208
-571.675	-200.000	-0.014	0.175
-570.661	336.385	-0.019	0.038
-569.646	-55.442	-0.243	0.111
-568.631	402.822	0.022	-0.046
-567.617	108.175	-0.145	0.175
-566.602	-32.216	-0.189	0.107
-565.588	800.000	-0.078	-0.227
-564.573	-41.846	-0.430	-0.224
-563.558	-129.330	0.078	-0.011
-562.544	800.000	0.052	0.196
-561.529	-200.000	0.031	-0.342
-560.515	52.707	0.252	-0.244
-559.500	23.538	-0.056	0.047
-558.485	-200.000	-0.008	0.228
-557.471	357.770	-0.215	-0.436
-556.456	98.954	0.064	-0.075
-555.442	-48.365	-0.204	0.100
-554.427	396.585	-0.074	-0.156
-553.412	86.694	0.121	-0.136
-552.398	-69.252	-0.239	-0.093
-551.383	54.461	0.362	-0.354
-550.369	-144.241	-0.131	0.012
-549.354	691.364	0.052	0.139
-548.339	-200.000	0.017	0.222
-547.325	186.198	-0.098	0.148
-546.310	-32.302	-0.210	0.119
-545.296	-44.955	0.164	0.083
-544.281	283.785	0.140	0.255
-543.266	-1.850	0.396	0.283
-542.252	-39.029	-0.251	-0.134
-541.237	-200.000	-0.039	-0.178
-540.223	-200.000	-0.015	-0.180
-539.208	495.453	0.067	-0.157
-538.193	96.129	-0.076	-0.088
-537.179	343.115	0.083	0.166
-536.164	-200.000	-0.015	-0.188
-535.150	-62.427	0.451	-0.190
-534.135	316.118	-0.065	0.124
-533.121	-200.000	0.014	-0.218
-532.106	-52.545	-0.496	0.232
-531.091	-200.000	-0.035	-0.243
-530.077	59.109	0.188	0.187
-529.062	373.050	-0.043	0.088
-528.048	-200.000	-0.128	0.000
-527.033	-142.762	-0.207	0.020
-526.018	287.286	-0.127	0.232
-525.004	-160.849	-0.325	0.017
-523.989	-124.883	-0.061	-0.010
-522.975	101.519	0.206	-0.244
-521.960	-200.000	-0.014	0.118
-520.945	-144.450	0.248	0.023
-519.931	-91.814	0.179	0.051
-518.916	-200.000	0.018	0.104
-517.902	-86.480	-0.135	-0.042
-516.887	-200.000	-0.044	0.262
-515.872	-200.000	0.027	-0.160
-514.858	-108.083	0.201	-0.044
-513.843	-200.000	0.030	-0.187
-512.829	-59.693	-0.348	-0.151
-511.814	45.338	-0.210	-0.196
-510.799	78.103	0.204	-0.220
-509.785	28.128	0.116	-0.099
-508.770	-45.388	0.106	0.053
-507.756	70.355	0.238	-0.249
-506.741	-200.000	0.014	-0.311
-505.726	-125.557	0.296	-0.046
-504.712	-101.900	-0.050	0.012
-503.697	305.624	0.089	-0.167
-502.683	-141.577	-0.188	0.019
-501.668	-11.009	-0.156	-0.104
-500.653	88.433	0.154	0.173
-499.639	-8.149	-0.260	0.177
-498.624	-2.459	-0.169	-0.120
-497.610	65.811	0.140	-0.144
-496.595	617.170	-0.094	0.238
-495.581	-200.000	0.047	-0.217
-494.566	536.169	-0.098	-0.235
-493.551	-123.617	0.310	-0.050
-492.537	29.506	-0.389	0.335
-491.522	115.374	0.069	-0.086
-490.508	-23.460	0.175	-0.106
-489.493	123.691	-0.108	-0.137
-488.478	-47.274	-0.168	-0.083
-487.464	667.040	-0.107	-0.279
-486.449	158.408	0.127	-0.179
-485.435	-82.407	-0.353	0.116
-484.420	-57.548	0.098	-0.044
-483.405	445.396	0.059	0.130
-482.391	246.036	-0.180	-0.307
-481.376	28.938	0.141	-0.121
-480.362	-61.368	0.219	0.093
-479.347	-66.220	0.209	-0.084
-478.332	-119.396	-0.201	0.035
-477.318	131.153	0.249	0.323
-476.303	-200.000	0.013	-0.161
-475.289	84.788	0.066	0.073
-474.274	800.000	0.071	-0.217
-473.259	581.519	-0.157	-0.388
-472.245	-55.575	-0.138	0.062
-471.230	-200.000	-0.044	-0.386
-470.216	87.137	-0.126	-0.141
-469.201	-96.779	-0.092	0.024
-468.186	-94.570	-0.176	-0.048
-467.172	116.312	0.128	0.158
-466.157	18.212	-0.199	-0.160
-465.143	70.894	0.141	0.148
-464.128	170.700	-0.204	0.295
-463.113	-200.000	-0.003	0.487
-462.099	289.664	-0.095	0.175
-461.084	-33.668	0.042	-0.024
-460.070	-174.467	-0.224	-0.007
-459.055	-59.662	0.246	-0.107
-458.040	173.655	-0.054	0.079
-457.026	-104.012	0.442	-0.104
-456.011	414.736	0.021	0.046
-454.997	462.530	0.078	0.175
-453.982	-112.951	0.240	0.048
-452.968	661.618	-0.072	-0.187
-451.953	-23.794	0.101	-0.061
-450.938	-6.566	0.211	0.145
-449.924	-15.418	0.133	-0.086
-448.909	716.578	0.119	-0.320
-447.895	-200.000	-0.009	0.219
-446.880	-200.000	0.071	-0.348
-445.865	-49.735	0.129	-0.062
-444.851	-41.944	-0.087	-0.045
-443.836	800.000	0.024	-0.100
-442.822	18.721	-0.384	-0.310
-441.807	-172.614	-0.141	0.004
-440.792	30.314	-0.049	-0.043
-439.778	-200.000	0.012	0.059
-438.763	-200.000	0.019	0.191
-437.749	-163.430	-0.028	0.001
-436.734	21.313	0.394	-0.324
-435.719	800.000	0.166	-0.513
-434.705	-163.355	-0.454	-0.022
-433.690	800.000	-0.077	-0.270
-432.676	-200.000	-0.027	0.163
-431.661	-38.855	-0.243	0.130
-430.646	800.000	0.062	-0.240
-429.632	-86.876	0.050	-0.016
-428.617	-150.936	0.199	0.015
-427.603	-2.475	0.056	-0.040
-426.588	800.000	-0.094	0.351
-425.573	111.725	-0.135	-0.165
-424.559	-200.000	0.016	-0.112
-423.544	65.894	-0.113	-0.116
-422.530	276.465	0.106	-0.190
-421.515	131.570	-0.106	-0.137
-420.500	-200.000	-0.024	0.167
-419.486	-6.922	-0.300	0.206
-418.471	-84.560	0.053	0.017
-417.457	-45.279	0.188	-0.094
-416.442	800.000	-0.117	0.414
-415.428	113.074	-0.192	0.235
-414.413	-200.000	-0.032	0.280
-413.398	-44.462	-0.119	-0.060
-412.384	44.909	0.067	0.062
-411.369	216.081	-0.055	-0.089
-410.355	122.945	-0.047	0.059
-409.340	-67.285	-0.081	-0.032
-408.325	-68.115	0.167	-0.066
-407.311	-82.871	0.056	-0.018
-406.296	340.900	0.045	-0.089
-405.282	-92.300	0.317	-0.090
-404.267	231.443	0.036	-0.059
-403.252	-8.070	-0.199	0.135
-402.238	-99.089	-0.209	-0.053
-401.223	100.420	-0.365	0.428
-400.209	-72.050	0.122	-0.046
-399.194	454.725	-0.126	0.282
-398.179	-19.286	-0.158	0.099
-397.165	184.255	-0.119	-0.177
-396.150	-148.235	0.381	0.032
-395.136	139.600	-0.062	-0.082
-394.121	104.134	0.072	-0.086
-393.106	99.895	-0.239	0.280
-392.092	314.885	0.092	-0.175
-391.077	-120.515	-0.358	0.061
-390.063	-61.426	0.215	-0.091
-389.048	-161.018	0.314	-0.017
-388.033	268.273	0.008	0.015
-387.019	-104.253	-0.146	0.034
-386.004	33.695	0.369	-0.323
-384.990	800.000	-0.084	0.325
-383.975	-57.989	0.090	-0.040
-382.960	10.013	0.316	-0.242
-381.946	390.731	-0.126	0.263
-380.931	86.234	0.051	-0.056
-379.917	-63.808	-0.181	-0.075
-378.902	528.975	0.033	-0.078
-377.888	343.676	0.047	0.094
-376.873	717.041	0.086	0.231
-375.858	-53.717	0.334	-0.154
-374.844	702.972	0.091	0.241
-373.829	-128.317	0.365	0.052
-372.815	-200.000	-0.024	-0.320
-371.800	800.000	-0.118	-0.372
-370.785	296.436	-0.082	-0.152
-369.771	-200.000	0.040	0.352
-368.756	-200.000	0.031	-0.195
-367.742	35.827	0.103	0.091
-366.727	-27.453	0.215	0.126
-365.712	-34.163	-0.442	0.245
-364.698	-44.092	0.161	0.081
-363.683	-74.296	0.193	0.070
-362.669	159.251	-0.040	0.056
-361.654	800.000	-0.042	-0.175
-360.639	334.722	-0.097	0.190
-359.625	-200.000	0.020	0.349
-358.610	-200.000	-0.067	0.374
-357.596	-33.589	-0.144	-0.080
-356.581	-129.346	-0.128	0.018
-355.566	-99.485	-0.442	0.112
-354.552	-101.753	0.404	-0.099
-353.537	551.704	-0.117	-0.282
-352.523	163.992	0.089	-0.127
-351.508	0.351	-0.142	0.102
-350.493	-200.000	-0.013	0.272
-349.479	272.446	0.144	0.255
-348.464	-200.000	0.040	0.203
-347.450	236.074	-0.052	-0.087
-346.435	-200.000	0.023	-0.125
-345.420	294.378	-0.053	-0.097
-344.406	-68.810	0.278	-0.108
-343.391	-130.697	-0.294	0.040
-342.377	49.112	0.184	0.174
-341.362	-183.381	0.283	-0.005
-340.348	487.913	-0.063	0.145
-339.333	666.563	-0.043	0.113
-338.318	800.000	-0.041	0.174
-337.304	287.167	0.078	-0.143
-336.289	10.953	-0.076	0.058
-335.275	800.000	0.069	-0.304
-334.260	-149.597	-0.107	0.008
-333.245	61.241	-0.120	0.119
-332.231	18.867	0.160	0.129
-331.216	-200.000	0.011	-0.065
-330.202	-131.825	-0.069	0.009
-329.187	171.204	0.167	0.240
-328.172	-126.149	0.122	0.018
-327.158	-14.931	-0.226	0.146
-326.143	241.440	-0.049	-0.082
-325.129	413.967	-0.013	-0.027
-324.114	552.099	0.121	0.292
-323.099	-200.000	-0.057	0.321
-322.085	196.578	-0.075	-0.114
-321.070	104.296	-0.298	-0.353
-320.056	-8.985	-0.256	0.173
-319.041	-63.086	0.514	-0.213
-318.026	-55.076	-0.152	-0.069
-317.012	-200.000	0.011	-0.095
-315.997	532.271	0.107	-0.255
-314.983	-3.118	-0.297	0.208
-313.968	127.557	-0.081	-0.103
-312.953	-118.566	0.152	0.027
-311.939	-200.000	0.031	0.288
-310.924	-200.000	-0.022	0.184
-309.910	349.401	0.107	-0.212
-308.895	49.670	0.167	0.158
-307.880	74.691	0.222	-0.235
-306.866	66.912	0.158	0.162
-305.851	-117.760	-0.467	-0.084
-304.837	-94.702	0.077	0.021
-303.822	759.269	-0.111	0.302
-302.807	9.122	0.168	-0.128
-301.793	86.857	-0.073	-0.081
-300.778	-164.358	0.079	-0.004
-299.764	30.301	0.131	-0.112
-298.749	137.205	0.223	-0.293
-297.735	-200.000	0.002	0.065
-296.720	79.922	0.138	0.149
-295.705	-200.000	-0.038	0.201
-294.691	-192.776	0.282	-0.003
-293.676	759.842	0.037	-0.099
-292.662	800.000	0.061	-0.221
-291.647	-26.256	-0.320	0.189
-290.632	66.914	0.104	0.106
-289.618	-42.418	0.199	-0.102
-288.603	-147.348	-0.206	-0.018
-287.589	-60.969	-0.157	0.067
-286.574	206.449	-0.051	0.080
-285.559	-8.893	0.109	0.073
-284.545	341.191	0.142	0.278
-283.530	21.803	-0.116	-0.095
-282.516	-57.918	-0.063	0.028
-281.501	114.293	-0.075	0.092
-280.486	103.923	0.195	0.230
-279.472	800.000	-0.071	0.241
-278.457	-125.563	0.233	-0.036
-277.443	111.567	0.112	-0.136
-276.428	-82.434	0.071	-0.023
-275.413	-32.762	0.317	0.177
-274.399	-122.539	0.192	0.031
-273.384	174.009	0.091	0.132
-272.370	-72.221	0.356	-0.132
-271.355	140.427	0.088	-0.117
-270.340	-200.000	-0.028	0.161
-269.326	-200.000	-0.005	-0.132
-268.311	-166.384	-0.266	0.011
-267.297	-22.871	-0.107	0.065
-266.282	769.791	-0.046	-0.127
-265.267	-61.214	0.210	0.089
-264.253	132.142	-0.093	0.120
-263.238	-200.000	0.001	-0.249
-262.224	-56.038	0.213	-0.095
-261.209	800.000	0.022	-0.096
-260.195	20.571	0.177	0.144
-259.180	-152.407	-0.192	0.014
-258.165	174.217	-0.083	-0.120
-257.151	-149.073	0.080	0.006
-256.136	-191.561	-0.230	0.002
-255.122	498.458	-0.112	0.258
-254.107	800.000	-0.068	-0.194
-253.092	265.562	0.031	0.055
-252.078	-200.000	-0.005	-0.101
-251.063	0.462	-0.110	0.079
-250.049	587.979	-0.116	-0.288
-249.034	-200.000	-0.040	-0.208
-248.019	-115.916	-0.171	0.032
-247.005	-200.000	0.005	0.258
-245.990	-200.000	0.020	0.239
-244.976	-200.000	0.031	0.267
-243.961	-143.024	0.281	0.027
-242.946	370.223	-0.108	0.219
-241.932	800.000	0.063	0.194
-240.917	800.000	-0.078	-0.234
-239.903	-103.908	0.170	-0.040
-238.888	154.484	-0.053	-0.073
-237.873	-140.561	-0.065	0.007
-236.859	130.002	0.046	0.059
-235.844	177.324	0.157	0.228
-234.830	387.949	-0.101	0.209
-233.815	513.744	-0.067	0.157
-232.800	5.912	0.075	-0.056
-231.786	221.080	0.033	0.054
-230.771	101.601	-0.341	0.398
-229.757	-200.000	0.021	-0.244
-228.742	290.098	0.081	-0.148
-227.727	-166.249	-0.153	0.006
-226.713	-13.317	0.044	-0.028
-225.698	138.883	0.042	0.055
-224.684	-117.496	0.455	-0.082
-223.669	25.711	-0.122	0.102
-222.655	800.000	0.106	-0.301
-221.640	-200.000	-0.015	-0.070
-220.625	-19.711	0.322	-0.200
-219.611	469.884	-0.173	-0.390
-218.596	-1.189	-0.280	0.198
-217.582	-75.922	0.178	0.063
-216.567	800.000	-0.076	0.237
-215.552	-52.525	-0.190	-0.088
-214.538	800.000	0.049	0.160
-213.523	459.197	-0.105	0.234
-212.509	70.941	0.020	0.021
-211.494	83.527	-0.083	-0.091
-210.479	-62.473	-0.172	-0.072
-209.465	117.628	-0.048	0.059
-208.450	530.140	0.182	0.430
-207.436	114.422	-0.091	-0.111
-206.421	-172.791	0.222	-0.007
-205.406	-200.000	0.021	-0.102
-204.392	800.000	0.082	-0.337
-203.377	185.563	0.111	0.164
-202.363	-130.455	0.143	-0.019
-201.348	283.615	-0.043	-0.077
-200.333	-34.532	0.115	0.063
-199.319	-139.496	0.121	-0.013
-198.304	-120.997	0.211	0.035
-197.290	-200.000	-0.005	0.582
-196.275	800.000	0.072	-0.251
-195.260	-116.115	-0.117	0.022
-194.246	-118.459	0.235	-0.042
-193.231	37.739	0.218	0.194
-192.217	-200.000	-0.038	-0.193
-191.202	-200.000	0.004	0.131
-190.187	144.950	-0.094	-0.126
-189.173	-28.276	0.129	-0.075
-188.158	-81.207	-0.301	0.099
-187.144	128.856	0.059	0.075
-186.129	-34.182	-0.148	0.081
-185.114	134.112	0.100	-0.129
-184.100	-114.714	0.330	0.063
-183.085	42.668	-0.154	-0.140
-182.071	-200.000	0.007	-0.081
-181.056	244.838	-0.078	-0.131
-180.042	-78.375	0.106	0.036
-179.027	-79.166	0.215	0.073
-178.012	83.891	0.109	0.119
-176.998	-200.000	-0.036	-0.229
-175.983	-92.030	0.221	-0.063
-174.969	57.695	-0.227	0.222
-173.954	800.000	0.047	0.161
-172.939	-105.830	-0.136	-0.031
-171.925	-100.399	0.183	0.045
-170.910	140.123	0.089	0.117
-169.896	725.757	-0.209	-0.556
-168.881	222.339	0.023	-0.037
-167.866	-145.299	0.407	-0.037
-166.852	362.941	-0.091	0.182
-165.837	23.075	-0.345	0.283
-164.823	233.831	0.133	-0.219
-163.808	-200.000	0.008	-0.359
-162.793	-58.466	-0.255	0.111
-161.779	-200.000	0.015	-0.186
-160.764	-200.000	0.007	-0.294
-159.750	-85.496	0.183	-0.057
-158.735	239.044	-0.175	0.290
-157.720	-80.779	-0.078	0.026
-156.706	800.000	0.073	0.272
-155.691	800.000	-0.139	0.424
-154.677	-43.542	-0.036	0.018
-153.662	-63.080	-0.299	0.123
-152.647	-55.440	-0.180	-0.081
-151.633	100.132	-0.168	-0.194
-150.618	-46.101	0.272	0.134
-149.604	-74.540	-0.119	0.043
-148.589	-131.397	0.160	0.021
-147.574	-150.152	0.117	0.009
-146.560	345.555	-0.151	-0.297
-145.545	800.000	-0.058	0.164
-144.531	234.780	0.085	-0.139
-143.516	-59.590	-0.409	-0.175
-142.502	-136.264	0.359	-0.042
-141.487	800.000	-0.072	0.213
-140.472	-200.000	0.008	0.194
-139.458	190.049	0.129	0.193
-138.443	-200.000	0.058	0.265
-137.429	800.000	-0.016	0.066
-136.414	-200.000	-0.155	-0.001
-135.399	-12.500	-0.063	-0.041
-134.385	5.380	0.381	0.281
-133.370	108.469	0.140	0.166
-132.356	282.950	0.116	0.208
-131.341	-12.440	0.175	0.114
-130.326	-200.000	-0.001	-0.242
-129.312	-46.599	0.176	0.086
-128.297	-34.227	0.193	0.106
-127.283	-131.259	-0.054	0.007
-126.268	188.851	-0.154	-0.230
-125.253	44.773	0.233	-0.214
-124.239	-62.850	0.194	0.080
-123.224	800.000	-0.082	0.236
-122.210	-200.000	0.023	-0.262
-121.195	390.372	0.074	-0.154
-120.180	288.716	0.079	-0.142
-119.166	40.015	0.246	-0.220
-118.151	605.171	0.064	0.159
-117.137	428.226	0.097	-0.209
-116.122	45.306	0.065	0.060
-115.107	-34.188	0.229	0.125
-114.093	-171.669	0.291	0.010
-113.078	676.716	0.100	-0.259
-112.064	-45.597	0.241	-0.119
-111.049	577.317	0.075	-0.182
-110.034	565.631	-0.218	-0.526
-109.020	-92.286	0.184	-0.052
-108.005	-200.000	-0.008	-0.344
-106.991	-123.170	0.290	-0.046
-105.976	-155.373	0.327	0.021
-104.962	36.421	-0.166	-0.146
-103.947	-200.000	0.019	0.143
-102.932	-107.334	-0.195	-0.043
-101.918	14.442	0.273	0.212
-100.903	-55.185	0.176	0.079
-99.889	-200.000	-0.003	-0.164
-98.874	-54.508	-0.277	0.125
-97.859	-21.717	0.277	0.168
-96.845	-96.653	0.014	0.004
-95.830	800.000	0.108	0.329
-94.816	-54.502	-0.401	-0.181
-93.801	588.795	0.070	-0.171
-92.786	63.288	0.036	-0.036
-91.772	-69.428	-0.276	0.106
-90.757	-200.000	0.020	0.170
-89.743	44.025	-0.170	0.155
-88.728	-21.579	-0.104	-0.063
-87.713	9.507	0.094	0.071
-86.699	-23.506	-0.102	0.061
-85.684	27.458	0.101	0.084
-84.670	18.471	0.069	-0.055
-83.655	-55.377	0.083	0.037
-82.640	-143.206	0.359	0.034
-81.626	69.266	0.295	0.303
-80.611	96.581	0.173	0.197
-79.597	-153.258	0.037	0.003
-78.582	-123.649	0.287	-0.045
-77.567	68.175	0.042	-0.043
-76.553	197.584	0.221	0.336
-75.538	317.940	0.067	-0.126
-74.524	78.523	-0.255	-0.271
-73.509	-133.510	-0.119	-0.015
-72.494	-50.354	0.112	0.053
-71.480	87.555	-0.063	-0.069
-70.465	-200.000	0.015	-0.116
-69.451	91.729	-0.231	0.259
-68.436	-200.000	-0.038	0.378
-67.422	96.279	0.012	-0.014
-66.407	71.493	0.151	0.156
-65.392	-100.703	0.133	0.033
-64.378	422.996	-0.141	0.302
-63.363	-77.462	0.306	-0.106
-62.349	-22.953	0.251	0.151
-61.334	-45.069	-0.682	-0.337
-60.319	120.458	0.514	0.635
-59.305	-200.000	0.123	-0.822
-58.290	138.701	0.578	0.755
-57.276	800.000	0.667	1.912
-56.261	-200.000	79.360	495.876
-55.246	473.311	1367.790	3067.184
-54.232	143.886	2597.693	3445.394
-53.217	111.110	2244.926	2690.038
-52.203	49.911	1694.832	1590.099
-51.188	42.454	1425.517	1289.709
-50.173	39.107	1381.558	1228.998
-49.159	56.859	1419.125	1375.031
-48.144	62.348	1437.870	1427.832
-47.130	42.968	1399.267	1268.999
-46.115	39.143	1382.973	1230.293
-45.100	38.956	1378.351	1224.964
-44.086	38.871	1375.771	1222.092
-43.071	38.910	1373.080	1219.893
-42.057	38.876	1370.841	1217.651
-41.042	39.013	1368.759	1216.600
-40.027	39.010	1367.667	1215.562
-39.013	38.823	1366.428	1213.255
-37.998	38.874	1364.501	1211.809
-36.984	38.988	1362.343	1210.547
-35.969	39.094	1360.085	1209.145
-34.954	39.087	1358.462	1207.612
-33.940	39.109	1357.261	1206.636
-32.925	39.173	1355.987	1205.844
-31.911	39.249	1354.328	1204.788
-30.896	39.227	1352.542	1203.014
-29.881	39.082	1351.786	1201.412
-28.867	39.240	1349.556	1200.342
-27.852	39.227	1347.959	1198.799
-26.838	39.193	1347.266	1197.923
-25.823	39.171	1345.453	1196.136
-24.809	39.046	1344.211	1194.223
-23.794	39.111	1342.757	1193.279
-22.779	39.158	1341.027	1191.978
-21.765	39.193	1339.861	1191.103
-20.750	39.067	1338.797	1189.349
-19.736	38.983	1337.165	1187.347
-18.721	39.077	1335.642	1186.515
-17.706	39.068	1334.162	1185.096
-16.692	39.055	1333.456	1184.345
-15.677	38.962	1332.338	1182.743
-14.663	39.055	1330.791	1181.885
-13.648	38.880	1330.240	1180.296
-12.633	38.933	1329.184	1179.628
-11.619	38.871	1328.843	1178.910
-10.604	39.041	1327.086	1178.322
-9.590	38.943	1326.513	1177.178
-8.575	39.019	1325.398	1176.597
-7.560	38.874	1324.727	1175.087
-6.546	38.952	1323.469	1174.392
-5.531	39.007	1322.720	1174.006
-4.517	38.983	1321.559	1172.787
-3.502	39.015	1320.693	1172.166
-2.487	38.957	1319.852	1171.026
-1.473	39.109	1315.691	1168.188
-0.458	38.156	1300.637	1149.174
0.556	34.697	1280.544	1107.583
1.571	30.663	1284.959	1087.770
2.586	29.540	1300.240	1093.961
3.600	27.969	1288.079	1074.404
4.615	19.889	1208.672	963.300
5.629	7.782	1124.144	832.804
6.644	2.347	1100.398	787.223
7.659	2.016	1096.907	782.961
8.673	1.810	1095.977	781.168
9.688	1.689	1094.723	779.589
10.702	2.039	1093.302	780.296
11.717	8.829	1103.676	822.586
12.731	19.848	1120.680	892.329
13.746	24.945	1126.111	922.912
14.761	25.382	1126.019	925.007
15.775	25.254	1125.720	924.023
16.790	25.065	1124.722	922.146
17.804	24.961	1124.692	921.505
18.819	25.186	1124.234	922.204
19.834	25.212	1123.271	921.467
20.848	25.186	1123.080	921.098
21.863	25.269	1122.101	920.637
22.877	25.152	1121.517	919.477
23.892	25.100	1120.888	918.613
24.907	25.245	1119.952	918.511
25.921	25.253	1118.734	917.471
26.936	25.155	1117.409	915.800
27.950	25.099	1116.159	914.412
28.965	24.998	1114.197	912.205
29.980	25.074	1112.693	911.282
30.994	25.243	1112.077	911.553
32.009	25.233	1110.743	910.329
33.023	25.062	1109.948	908.732
34.038	25.106	1108.754	907.895
35.053	25.181	1108.690	908.144
36.067	25.167	1107.372	906.914
37.082	25.279	1106.575	906.745
38.096	25.420	1106.160	907.038
39.111	25.552	1105.168	906.811
40.126	25.277	1104.200	904.551
41.140	25.041	1102.009	901.487
42.155	24.786	1100.673	899.031
43.169	24.795	1099.949	898.405
44.184	24.819	1098.675	897.410
45.199	24.762	1097.751	896.290
46.213	24.810	1097.030	895.862
47.228	24.910	1096.499	895.850
48.242	25.013	1095.388	895.376
49.257	25.076	1094.813	895.140
50.271	25.290	1093.623	895.157
51.286	25.316	1092.865	894.585
52.301	25.225	1092.460	893.722
53.315	25.100	1091.209	891.997
54.330	25.150	1090.240	891.373
55.344	25.086	1089.597	890.452
56.359	25.036	1088.537	889.260
57.374	24.885	1087.512	887.597
58.388	24.879	1086.577	886.721
59.403	24.988	1085.460	886.273
60.417	24.675	1084.887	884.177
61.432	24.831	1084.329	884.415
62.447	24.831	1084.003	884.073
63.461	24.836	1083.310	883.455
64.476	24.877	1082.042	882.546
65.490	24.867	1081.086	881.637
66.505	24.878	1080.620	881.231
67.520	24.935	1079.702	880.689
68.534	24.670	1079.009	878.740
69.549	24.312	1077.525	875.697
70.563	24.464	1076.770	875.750
71.578	24.513	1075.531	874.904
72.593	24.366	1074.807	873.518
73.607	24.355	1074.479	873.121
74.622	24.642	1074.469	874.441
75.636	24.794	1073.641	874.431
76.651	24.591	1072.524	872.457
77.666	24.502	1071.475	871.088
78.680	24.547	1070.967	870.818
79.695	24.637	1070.300	870.638
80.709	24.695	1069.587	870.262
81.724	24.780	1068.655	869.842
82.739	24.826	1067.941	869.409
83.753	25.158	1067.539	870.614
84.768	25.469	1066.458	871.163
85.782	25.622	1065.561	871.095
86.797	25.425	1064.897	869.521
87.812	25.327	1063.563	867.884
88.826	25.359	1062.861	867.387
89.841	25.608	1061.577	867.466
90.855	25.486	1061.043	866.365
91.870	25.429	1059.934	865.105
92.884	25.426	1058.335	863.709
93.899	25.311	1057.452	862.362
94.914	25.389	1057.167	862.428
95.928	25.157	1056.575	860.753
96.943	24.811	1054.922	857.671
97.957	24.786	1053.370	856.218
98.972	24.729	1052.043	854.787
99.987	24.829	1051.798	854.994
101.001	25.072	1051.170	855.565
102.016	25.031	1049.977	854.325
103.030	25.033	1048.719	853.237
104.045	24.934	1047.874	851.999
105.060	24.646	1047.004	849.847
106.074	24.913	1046.561	850.684
107.089	25.179	1045.746	851.207
108.103	25.256	1044.307	850.324
109.118	24.819	1043.271	847.337
110.133	24.801	1042.355	846.432
111.147	24.564	1041.368	844.437
112.162	24.541	1039.745	842.940
113.176	24.782	1039.606	843.889
114.191	24.696	1039.177	843.059
115.206	24.450	1037.479	840.447
116.220	24.434	1036.791	839.744
117.235	24.622	1036.073	839.968
118.249	24.545	1034.956	838.630
119.264	24.433	1034.229	837.440
120.279	24.671	1033.256	837.695
121.293	24.591	1032.600	836.712
122.308	24.607	1031.741	836.016
123.322	24.478	1030.671	834.473
124.337	24.408	1029.200	832.880
125.352	23.800	1027.891	828.914
126.366	23.789	1026.622	827.767
127.381	24.713	1026.287	831.725
128.395	25.098	1026.190	833.362
129.410	25.086	1025.627	832.777
130.424	25.002	1024.482	831.379
131.439	25.057	1023.732	830.953
132.454	25.082	1022.752	830.202
133.468	24.974	1021.969	828.992
134.483	25.279	1020.890	829.452
135.497	25.303	1020.272	828.987
136.512	25.328	1019.518	828.417
137.527	25.420	1018.452	827.900
138.541	25.384	1017.836	827.164
139.556	25.409	1016.856	826.410
140.570	25.527	1016.167	826.317
141.585	25.399	1015.230	824.895
142.600	25.498	1013.878	824.179
143.614	25.484	1013.481	823.717
144.629	25.749	1012.804	824.306
145.643	25.458	1011.390	821.754
146.658	25.346	1010.351	820.324
147.673	25.214	1009.010	818.563
148.687	25.248	1007.905	817.748
149.702	25.157	1007.000	816.527
150.716	25.026	1006.384	815.360
151.731	25.131	1005.536	815.078
152.746	25.262	1005.436	815.518
153.760	25.541	1004.456	815.920
154.775	25.659	1003.578	815.670
155.789	25.603	1002.852	814.752
156.804	25.531	1001.824	813.519
157.819	25.629	1000.618	812.910
158.833	25.605	1000.543	812.668
159.848	25.597	999.270	811.527
160.862	25.503	997.998	809.997
161.877	25.626	996.793	809.504
162.892	25.608	995.570	808.355
163.906	25.501	994.519	806.950
164.921	25.436	993.806	806.009
165.935	25.549	992.918	805.724
166.950	25.395	992.215	804.394
167.964	25.450	991.070	803.640
168.979	25.384	989.847	802.282
169.994	25.145	989.628	800.965
171.008	25.439	989.123	801.801
172.023	25.535	988.134	801.355
173.037	25.343	986.672	799.245
174.052	25.115	985.822	797.472
175.067	25.252	985.193	797.499
176.081	25.354	985.004	797.730
177.096	25.290	984.237	796.753
178.110	24.956	983.212	794.370
179.125	24.816	982.199	792.864
180.140	25.017	981.597	793.199
181.154	25.128	981.260	793.346
182.169	25.432	981.087	794.478
183.183	25.572	980.834	794.824
184.198	25.414	979.792	793.213
185.213	25.402	979.142	792.562
186.227	25.505	978.686	792.576
187.242	25.423	977.960	791.557
188.256	25.516	977.101	791.200
189.271	25.710	976.454	791.462
190.286	25.240	975.278	788.374
191.300	24.547	973.912	784.160
192.315	23.951	971.719	779.709
193.329	23.687	971.650	778.430
194.344	24.662	972.383	783.222
195.359	25.364	971.965	785.892
196.373	25.381	971.664	785.651
197.388	25.335	971.162	784.975
198.402	25.374	970.789	784.773
199.417	25.408	970.003	784.217
200.432	25.029	968.534	781.308
201.446	24.914	968.060	780.356
202.461	24.967	967.413	779.998
203.475	24.181	965.170	774.702
204.490	23.299	964.022	769.883
205.504	24.288	964.358	774.381
206.519	24.915	964.333	777.013
207.534	24.931	964.134	776.854
208.548	25.453	963.869	778.835
209.563	25.153	962.702	776.525
210.577	25.183	962.046	776.053
211.592	25.705	961.189	777.552
212.607	25.627	960.711	776.760
213.621	25.535	960.177	775.860
214.636	25.682	959.342	775.750
215.650	25.395	958.945	774.125
216.665	25.636	958.205	774.497
217.680	25.625	957.555	773.853
218.694	25.160	956.250	770.735
219.709	25.005	955.557	769.443
220.723	25.202	955.484	770.160
221.738	25.398	954.395	770.055
222.753	25.386	954.183	769.766
223.767	25.448	953.502	769.412
224.782	25.717	952.967	770.065
225.796	25.636	952.834	769.542
226.811	25.001	951.211	765.452
227.826	24.281	949.772	761.152
228.840	24.516	949.449	761.829
229.855	24.615	948.269	761.237
230.869	24.255	947.052	758.659
231.884	24.713	947.543	760.938
232.899	25.466	947.217	763.809
233.913	25.226	946.754	762.350
234.928	25.203	946.252	761.777
235.942	25.326	945.402	761.549
236.957	24.910	944.704	759.157
237.972	24.930	943.953	758.568
238.986	24.994	943.863	758.701
240.001	25.121	942.946	758.435
241.015	25.138	942.290	757.911
242.030	25.376	942.005	758.621
243.045	25.408	941.849	758.563
244.059	25.483	941.194	758.284
245.074	25.282	940.237	756.598
246.088	25.045	939.073	754.598
247.103	25.304	938.622	755.258
248.117	25.789	938.779	757.356
249.132	26.098	938.390	758.276
250.147	26.275	937.824	758.496
251.161	26.233	937.687	758.139
252.176	26.138	936.998	757.118
253.190	26.322	936.554	757.465
254.205	26.380	936.560	757.645
255.220	26.372	935.336	756.554
256.234	26.207	934.794	755.359
257.249	26.169	933.687	754.237
258.263	26.327	932.822	754.132
259.278	26.309	932.196	753.483
260.293	26.397	931.281	753.046
261.307	26.239	930.753	751.894
262.322	26.122	930.291	750.967
263.336	25.324	928.397	746.058
264.351	24.333	925.777	739.778
265.366	24.426	925.482	739.860
266.380	25.482	926.447	744.947
267.395	26.018	926.006	746.747
268.409	25.918	925.681	746.004
269.424	26.013	924.977	745.763
270.439	26.176	923.992	745.575
271.453	26.244	923.572	745.455
272.468	26.293	923.713	745.704
273.482	26.450	922.923	745.648
274.497	25.856	921.837	742.256
275.512	25.490	920.680	739.755
276.526	25.961	921.027	741.904
277.541	26.177	920.532	742.328
278.555	25.948	919.322	740.346
279.570	25.814	918.522	739.088
280.585	25.916	918.703	739.586
281.599	25.960	917.152	738.452
282.614	25.305	916.090	734.852
283.628	25.372	915.661	734.715
284.643	25.645	915.306	735.482
285.657	25.200	913.940	732.502
286.672	25.012	913.212	731.088
287.687	25.539	913.385	733.314
288.701	25.662	912.467	733.010
289.716	25.429	911.605	731.307
290.730	25.298	911.062	730.274
291.745	25.085	909.702	728.253
292.760	25.390	909.844	729.541
293.774	26.318	910.550	733.814
294.789	26.569	910.289	734.556
295.803	26.593	909.367	733.844
296.818	26.792	908.415	733.816
297.833	26.226	907.180	730.467
298.847	26.000	907.039	729.373
299.862	26.291	906.987	730.445
300.876	26.533	906.312	730.814
301.891	26.550	905.473	730.141
302.906	26.037	904.813	727.477
303.920	26.248	904.539	728.040
304.935	26.579	904.070	728.934
305.949	26.576	903.280	728.218
306.964	26.371	902.453	726.662
307.979	26.419	902.113	726.520
308.993	26.720	902.058	727.619
310.008	26.735	901.603	727.248
311.022	26.492	900.313	725.169
312.037	26.362	899.762	724.140
313.052	26.319	898.244	722.684
314.066	25.184	897.158	717.210
315.081	24.965	896.028	715.368
316.095	25.663	896.716	718.642
317.110	26.155	896.609	720.455
318.125	25.399	894.859	715.974
319.139	24.222	893.693	710.289
320.154	24.253	893.507	710.203
321.168	25.265	893.766	714.378
322.183	25.893	893.868	716.896
323.197	26.222	893.453	717.807
324.212	26.417	892.558	717.798
325.227	26.531	892.219	717.912
326.241	26.158	891.698	715.953
327.256	26.094	890.717	714.848
328.270	26.139	890.036	714.415
329.285	25.733	889.546	712.352
330.300	25.609	888.589	711.032
331.314	25.780	888.660	711.702
332.329	26.338	888.336	713.584
333.343	26.526	887.813	713.841
334.358	26.420	887.502	713.112
335.373	26.442	887.272	712.950
336.387	26.766	886.898	713.864
337.402	26.815	887.040	714.109
338.416	26.837	886.465	713.667
339.431	26.838	886.003	713.235
340.446	27.046	885.799	713.825
341.460	27.094	884.919	713.244
342.475	26.663	884.998	711.549
343.489	26.895	884.302	711.840
344.504	27.215	883.736	712.574
345.519	27.318	883.592	712.798
346.533	27.371	883.009	712.474
347.548	27.203	882.704	711.507
348.562	27.281	882.053	711.222
349.577	27.180	881.350	710.199
350.592	27.068	880.836	709.284
351.606	27.220	879.525	708.757
352.621	26.967	878.916	707.219
353.635	26.951	878.456	706.725
354.650	26.400	876.588	703.017
355.665	25.527	874.528	697.918
356.679	25.797	874.825	699.139
357.694	26.274	874.611	700.757
358.708	26.227	873.950	699.984
359.723	26.527	874.249	701.325
360.738	26.862	873.543	701.994
361.752	27.005	872.700	701.807
362.767	27.247	872.897	702.837
363.781	27.569	872.129	703.401
364.796	27.770	871.762	703.817
365.810	27.683	871.502	703.211
366.825	27.500	871.255	702.242
367.840	27.359	870.046	700.662
368.854	26.830	869.501	698.127
369.869	26.927	868.895	697.950
370.883	26.920	868.989	697.938
371.898	26.999	867.805	697.229
372.913	27.079	867.511	697.238
373.927	27.076	867.664	697.288
374.942	27.261	866.919	697.338
375.956	27.243	866.636	696.979
376.971	27.420	865.992	697.075
377.986	27.599	865.579	697.368
379.000	27.618	865.177	697.054
380.015	27.412	864.375	695.559
381.029	27.583	863.522	695.464
382.044	27.724	863.063	695.572
383.059	27.694	862.573	695.000
384.073	27.812	861.727	694.707
385.088	27.453	861.543	693.130
386.102	27.433	860.434	692.099
387.117	27.258	859.790	690.855
388.132	26.916	859.005	688.868
389.146	26.422	857.907	686.052
390.161	26.855	857.895	687.623
391.175	27.300	857.677	689.073
392.190	26.914	857.078	687.068
393.205	25.540	854.681	679.895
394.219	24.143	852.518	672.843
395.234	23.870	852.544	671.772
396.248	25.546	853.953	679.160
397.263	27.159	854.607	685.709
398.278	27.118	854.057	685.054
399.292	26.853	853.424	683.485
400.307	26.685	853.145	682.570
401.321	26.875	852.798	682.948
402.336	27.284	852.674	684.328
403.350	27.839	852.644	686.329
404.365	27.970	852.358	686.532
405.380	28.296	852.057	687.452
406.394	28.299	851.487	686.941
407.409	28.316	850.544	686.186
408.423	28.326	850.151	685.843
409.438	28.213	850.202	685.401
410.453	28.375	849.265	685.190
411.467	28.294	849.163	684.746
412.482	28.151	849.070	684.073
413.496	28.391	848.237	684.240
414.511	28.349	847.880	683.735
415.526	28.402	847.367	683.457
416.540	28.284	846.311	682.106
417.555	27.947	845.773	680.356
418.569	28.080	845.238	680.364
419.584	27.952	844.777	679.456
420.599	27.736	844.363	678.259
421.613	97.777	1274.190	1397.355
422.628	84.983	1336.810	1397.486
