DTS Sentinel unit serial number:	SN413079Multiplexer serial number:	ORYXHardware model number:	OX4-SRSoftware version number:	ORYX F/W v4.00 Oryx Data Collector v3.7.2.0data status	okinstallation	princeton_trtdifferential loss correction	single-endedforward channel	channel 1reverse channel	N/Adate	2019/09/12time	16:56:11forward acquisition time	60.00reverse acquisition time	0.00gamma	496.2192k internal	0.2310k external	0.2310temperature offset calibration	1.0097default loss term (dB/km)	0.3790temperature slope calibration	1.0000multiplexer offset coefficient	1.0000multiplexer slope coefficient	1.0000fibre end	0.00T internal ref (°C)	35.94T ext. ref 1 (°C)	2.81T ext. ref 2 (°C)	29.24length (m)	temperature (°C)	Stokes	anti-Stokes-747.200	-50.585	-0.204	0.098
-746.185	-102.425	-0.363	-0.088
-745.171	-69.860	0.214	0.083
-744.156	412.414	-0.083	0.180
-743.142	194.809	-0.071	0.110
-742.127	620.258	0.110	0.280
-741.112	430.366	0.061	-0.134
-740.098	433.780	-0.089	0.197
-739.083	196.138	0.046	-0.071
-738.069	800.000	-0.080	0.249
-737.054	32.102	0.125	0.109
-736.039	800.000	-0.057	0.247
-735.025	-200.000	0.140	0.688
-734.010	41.015	-0.347	-0.318
-732.996	-69.853	-0.152	-0.059
-731.981	599.938	0.123	-0.309
-730.966	26.201	0.290	-0.246
-729.952	800.000	-0.050	-0.190
-728.937	5.308	-0.133	-0.100
-727.923	-33.661	-0.196	0.110
-726.908	212.134	-0.090	-0.144
-725.894	-131.585	-0.027	-0.004
-724.879	207.173	-0.102	0.161
-723.864	385.890	-0.045	-0.093
-722.850	216.112	0.088	-0.142
-721.835	168.417	-0.142	-0.205
-720.821	42.179	-0.121	0.112
-719.806	-87.653	0.094	0.029
-718.791	80.848	-0.066	-0.072
-717.777	-119.819	-0.282	-0.049
-716.762	199.822	-0.039	0.061
-715.748	724.328	0.082	0.222
-714.733	-151.894	-0.365	-0.027
-713.718	-79.109	-0.192	0.066
-712.704	230.470	-0.082	-0.136
-711.689	-133.401	-0.207	0.026
-710.675	-175.692	-0.040	-0.001
-709.660	-79.577	0.096	0.033
-708.645	-150.309	-0.218	0.017
-707.631	225.237	-0.152	0.250
-706.616	471.952	0.088	-0.200
-705.602	-200.000	0.016	-0.078
-704.587	800.000	-0.058	0.236
-703.572	-39.769	-0.195	0.103
-702.558	-18.863	-0.038	0.024
-701.543	800.000	0.056	0.215
-700.529	-200.000	0.013	-0.062
-699.514	-119.980	0.095	0.017
-698.499	249.944	-0.102	0.176
-697.485	-74.663	-0.204	-0.074
-696.470	800.000	0.022	-0.079
-695.456	-200.000	0.034	0.186
-694.441	-91.370	-0.204	0.059
-693.426	800.000	-0.089	0.265
-692.412	30.270	-0.234	-0.203
-691.397	800.000	0.070	-0.306
-690.383	800.000	-0.120	-0.381
-689.368	607.310	-0.114	0.287
-688.354	86.666	0.204	-0.228
-687.339	29.736	0.097	-0.084
-686.324	0.229	0.097	-0.070
-685.310	27.556	0.070	-0.060
-684.295	-110.643	-0.228	-0.048
-683.281	-65.815	-0.187	-0.076
-682.266	148.030	0.175	-0.239
-681.251	145.106	-0.188	-0.255
-680.237	74.378	0.122	-0.130
-679.222	199.103	0.074	-0.114
-678.208	138.297	-0.178	0.237
-677.193	-22.850	0.167	0.102
-676.178	-200.000	0.022	-0.460
-675.164	326.876	0.084	-0.163
-674.149	-200.000	0.007	-0.141
-673.135	503.315	0.089	-0.209
-672.120	-23.918	0.136	-0.082
-671.105	800.000	0.053	0.179
-670.091	-130.369	-0.394	0.054
-669.076	800.000	-0.079	-0.235
-668.062	-14.211	-0.126	0.082
-667.047	-65.996	0.251	-0.101
-666.032	-73.791	0.059	-0.022
-665.018	-59.481	0.360	0.157
-664.003	-60.333	-0.126	0.054
-662.989	21.364	-0.054	0.044
-661.974	6.685	0.085	0.064
-660.959	-162.513	-0.150	-0.007
-659.945	-122.131	0.364	-0.060
-658.930	800.000	-0.058	0.225
-657.916	-200.000	-0.009	-0.089
-656.901	516.318	0.133	0.313
-655.886	28.283	-0.224	0.192
-654.872	-0.841	-0.263	-0.188
-653.857	211.174	0.120	-0.191
-652.843	-200.000	-0.043	0.346
-651.828	485.858	-0.054	0.125
-650.814	-159.848	-0.550	0.031
-649.799	-42.662	-0.374	-0.193
-648.784	396.001	-0.076	-0.161
-647.770	-200.000	0.014	0.147
-646.755	-179.643	-0.214	0.005
-645.741	425.171	0.068	0.148
-644.726	-100.892	-0.247	0.061
-643.711	-200.000	0.078	-0.359
-642.697	-143.945	0.369	0.035
-641.682	-200.000	0.051	-0.236
-640.668	-13.295	-0.511	0.335
-639.653	-26.389	-0.235	0.139
-638.638	-97.940	-0.180	0.047
-637.624	521.969	-0.068	-0.162
-636.609	800.000	-0.067	-0.286
-635.595	1.237	0.314	-0.228
-634.580	308.762	-0.184	0.348
-633.565	728.731	0.090	-0.242
-632.551	460.218	-0.105	-0.237
-631.536	-50.121	-0.203	-0.097
-630.522	-181.462	0.206	-0.004
-629.507	259.178	-0.071	-0.124
-628.492	-94.650	0.097	-0.027
-627.478	185.599	0.025	0.037
-626.463	520.479	0.168	-0.397
-625.449	92.799	-0.150	0.171
-624.434	800.000	0.066	0.282
-623.419	-200.000	-0.038	-0.210
-622.405	-200.000	0.016	0.082
-621.390	50.230	-0.186	0.178
-620.376	291.186	0.129	-0.236
-619.361	608.735	0.060	0.151
-618.346	-44.341	0.064	-0.033
-617.332	-200.000	0.019	0.228
-616.317	-98.674	-0.165	0.043
-615.303	752.190	-0.023	0.064
-614.288	-80.145	-0.186	0.063
-613.273	-22.252	0.364	-0.223
-612.259	-200.000	0.034	-0.152
-611.244	-120.169	-0.054	-0.009
-610.230	-60.829	0.064	0.027
-609.215	130.691	-0.139	-0.180
-608.201	-120.672	-0.349	0.060
-607.186	-107.052	-0.366	-0.082
-606.171	84.318	0.147	0.162
-605.157	225.666	0.163	-0.266
-604.142	46.505	0.101	0.095
-603.128	225.640	-0.206	0.337
-602.113	-119.368	0.178	0.031
-601.098	281.171	-0.285	0.516
-600.084	-200.000	-0.020	-0.166
-599.069	122.648	0.096	-0.121
-598.055	150.843	-0.127	0.174
-597.040	-200.000	0.013	0.102
-596.025	-71.897	0.061	0.023
-595.011	-109.959	0.226	0.048
-593.996	-158.142	0.217	0.013
-592.982	-200.000	0.004	0.290
-591.967	21.063	-0.235	0.193
-590.952	800.000	-0.023	0.093
-589.938	168.358	-0.079	-0.114
-588.923	42.824	0.336	-0.309
-587.909	-185.482	-0.421	0.006
-586.894	381.804	-0.024	-0.050
-585.879	418.792	0.113	-0.244
-584.865	3.959	-0.186	0.137
-583.850	24.506	-0.111	-0.092
-582.836	-192.931	0.299	-0.003
-581.821	7.845	-0.065	-0.049
-580.806	-91.427	0.183	0.053
-579.792	800.000	-0.086	-0.303
-578.777	800.000	-0.078	0.281
-577.763	-163.225	-0.109	0.005
-576.748	29.455	-0.333	0.285
-575.733	-41.187	-0.247	-0.129
-574.719	-200.000	0.004	0.235
-573.704	188.477	-0.160	0.242
-572.690	800.000	-0.133	-0.432
-571.675	560.675	0.078	0.190
-570.661	-200.000	-0.050	0.298
-569.646	24.837	-0.102	-0.086
-568.631	142.765	-0.167	-0.223
-567.617	-200.000	0.047	0.249
-566.602	-5.972	0.235	-0.162
-565.588	-56.623	-0.232	0.103
-564.573	402.515	0.042	-0.089
-563.558	102.628	0.053	0.063
-562.544	20.530	0.251	-0.205
-561.529	-178.815	-0.114	0.003
-560.515	-200.000	-0.036	0.186
-559.500	193.155	0.211	-0.322
-558.485	-16.195	-0.263	-0.168
-557.471	115.013	0.061	-0.075
-556.456	354.678	0.071	-0.142
-555.442	44.951	-0.153	-0.142
-554.427	-73.622	0.023	0.008
-553.412	171.344	-0.113	-0.164
-552.398	6.600	0.241	0.181
-551.383	494.244	0.145	0.334
-550.369	295.248	-0.205	-0.379
-549.354	-152.644	0.607	0.044
-548.339	32.192	0.403	-0.351
-547.325	-69.094	0.141	-0.055
-546.310	-200.000	0.020	0.228
-545.296	-71.210	-0.371	-0.140
-544.281	162.860	-0.074	-0.105
-543.266	67.526	-0.119	0.122
-542.252	148.350	-0.310	-0.422
-541.237	111.822	-0.117	0.143
-540.223	-200.000	-0.007	-0.036
-539.208	-136.203	-0.185	-0.022
-538.193	-83.415	-0.310	-0.100
-537.179	-71.213	0.208	0.079
-536.164	-96.244	0.129	0.035
-535.150	-200.000	-0.009	0.042
-534.135	218.963	0.109	-0.176
-533.121	35.958	0.256	-0.227
-532.106	-136.556	0.165	0.019
-531.091	-200.000	-0.047	-0.339
-530.077	645.480	-0.061	-0.156
-529.062	313.377	0.144	-0.273
-528.048	-145.543	0.196	-0.018
-527.033	-128.721	-0.292	-0.041
-526.018	-132.339	-0.400	-0.052
-525.004	99.358	-0.192	-0.224
-523.989	601.573	0.052	0.130
-522.975	146.923	-0.094	0.127
-521.960	27.135	0.161	0.136
-520.945	311.367	-0.188	0.354
-519.931	-200.000	-0.042	-0.277
-518.916	800.000	-0.042	-0.182
-517.902	288.965	0.146	0.266
-516.887	274.922	0.181	0.323
-515.872	303.207	-0.057	0.106
-514.858	-39.022	-0.157	0.083
-513.843	462.042	0.116	-0.261
-512.829	-123.292	-0.375	0.060
-511.814	800.000	0.025	-0.102
-510.799	-70.364	0.345	-0.132
-509.785	-102.625	0.226	-0.054
-508.770	722.943	-0.083	-0.223
-507.756	-107.063	-0.252	-0.056
-506.741	-93.908	0.118	0.033
-505.726	170.767	0.153	-0.221
-504.712	-200.000	-0.010	0.055
-503.697	-65.470	-0.192	0.078
-502.683	199.228	-0.127	0.197
-501.668	82.456	-0.168	0.183
-500.653	88.490	-0.157	0.175
-499.639	-75.764	0.143	-0.051
-498.624	-27.093	-0.053	-0.031
-497.610	227.355	-0.175	0.286
-496.595	3.792	0.397	0.291
-495.581	-146.017	-0.409	0.036
-494.566	-23.409	-0.295	-0.178
-493.551	800.000	-0.049	0.162
-492.537	216.641	-0.063	-0.100
-491.522	-38.441	0.364	-0.194
-490.508	-200.000	0.013	-0.120
-489.493	-174.525	-0.224	-0.006
-488.478	-200.000	-0.016	-0.206
-487.464	800.000	0.030	0.103
-486.449	111.896	-0.054	0.066
-485.435	-100.006	-0.130	-0.033
-484.420	800.000	-0.087	-0.336
-483.405	41.602	-0.278	0.253
-482.391	42.487	0.083	-0.076
-481.376	-0.314	0.155	-0.111
-480.362	-29.770	-0.430	0.247
-479.347	-161.736	0.211	0.011
-478.332	246.464	0.051	0.087
-477.318	-72.149	-0.253	-0.094
-476.303	-200.000	-0.008	-0.130
-475.289	800.000	0.105	-0.327
-474.274	-9.500	0.187	0.125
-473.259	-20.060	0.162	0.100
-472.245	-80.292	0.351	0.118
-471.230	706.959	-0.085	0.224
-470.216	-112.139	0.025	0.005
-469.201	722.852	0.075	-0.199
-468.186	-78.468	0.348	0.120
-467.172	-126.267	0.214	-0.032
-466.157	800.000	0.025	0.101
-465.143	269.724	0.165	0.291
-464.128	-47.668	0.144	-0.070
-463.113	16.625	-0.018	0.014
-462.099	-81.628	0.145	-0.048
-461.084	413.076	-0.154	0.329
-460.070	190.620	0.123	-0.186
-459.055	-53.994	0.127	0.058
-458.040	7.061	-0.097	-0.073
-457.026	-141.401	0.043	-0.004
-456.011	-200.000	-0.023	-0.108
-454.997	47.360	-0.109	-0.102
-453.982	-84.610	-0.434	0.137
-452.968	-161.644	0.128	-0.007
-451.953	-154.904	-0.079	-0.005
-450.938	-92.619	0.419	0.118
-449.924	243.584	0.094	-0.158
-448.909	670.697	-0.067	0.173
-447.895	-61.459	0.163	0.069
-446.880	43.816	-0.186	-0.171
-445.865	-43.322	-0.041	-0.021
-444.851	31.412	0.184	0.159
-443.836	137.970	0.082	0.107
-442.822	-178.871	0.056	0.001
-441.807	-137.368	0.100	-0.011
-440.792	-200.000	-0.060	0.276
-439.778	-33.449	0.265	-0.147
-438.763	138.005	0.093	0.122
-437.749	240.615	0.063	0.106
-436.734	587.778	-0.105	-0.260
-435.719	75.251	0.200	0.212
-434.705	-139.224	0.194	-0.021
-433.690	261.282	-0.050	0.087
-432.676	-77.966	0.141	-0.049
-431.661	-54.177	0.017	0.008
-430.646	-54.916	-0.301	-0.136
-429.632	93.053	0.142	0.162
-428.617	-21.275	0.314	0.192
-427.603	36.396	-0.107	-0.095
-426.588	-200.000	0.008	-0.059
-425.573	-25.971	0.289	0.171
-424.559	-1.273	0.091	0.064
-423.544	-18.229	0.462	-0.290
-422.530	-200.000	-0.009	0.206
-421.515	84.713	-0.077	0.085
-420.500	125.713	0.039	-0.050
-419.486	104.695	-0.249	-0.295
-418.471	171.742	0.068	-0.098
-417.457	-200.000	-0.000	-0.024
-416.442	-200.000	-0.029	0.165
-415.428	183.378	0.352	-0.522
-414.413	57.127	-0.120	0.118
-413.398	134.847	0.144	-0.188
-412.384	-200.000	-0.445	-0.001
-411.369	-148.751	0.198	0.016
-410.355	-53.083	0.253	0.116
-409.340	-200.000	-0.021	0.097
-408.325	800.000	-0.107	0.302
-407.311	800.000	0.057	-0.205
-406.296	207.030	-0.036	-0.057
-405.282	-1.936	-0.125	-0.088
-404.267	-200.000	0.267	0.001
-403.252	-60.328	0.172	0.073
-402.238	21.805	0.130	0.106
-401.223	24.393	-0.193	0.160
-400.209	689.073	0.095	-0.248
-399.194	-78.258	-0.274	-0.094
-398.179	-179.067	-0.148	-0.003
-397.165	206.252	-0.100	0.156
-396.150	-67.111	0.100	0.039
-395.136	-95.109	-0.365	0.099
-394.121	-200.000	0.012	0.059
-393.106	-200.000	-0.026	-0.149
-392.092	-160.259	-0.135	-0.007
-391.077	169.484	-0.097	-0.139
-390.063	31.500	0.238	-0.205
-389.048	295.783	0.069	-0.126
-388.033	800.000	-0.063	-0.184
-387.019	3.630	-0.162	-0.118
-386.004	-91.845	0.276	-0.078
-384.990	-29.237	-0.227	0.130
-383.975	-44.514	0.043	-0.021
-382.960	-74.833	-0.149	0.054
-381.946	-200.000	0.008	-0.112
-380.931	800.000	0.014	-0.055
-379.917	45.036	0.225	-0.208
-378.902	287.813	0.068	-0.123
-377.888	18.109	0.170	0.136
-376.873	-38.336	0.201	-0.107
-375.858	-200.000	-0.003	0.187
-374.844	278.490	-0.085	0.151
-373.829	-102.208	0.126	-0.030
-372.815	800.000	-0.100	0.337
-371.800	-142.715	-0.295	-0.029
-370.785	226.283	-0.057	0.093
-369.771	142.121	-0.115	-0.153
-368.756	151.728	-0.092	0.126
-367.742	-104.174	0.055	-0.013
-366.727	-173.532	0.170	-0.005
-365.712	538.682	-0.038	0.090
-364.698	36.599	0.224	0.198
-363.683	-200.000	0.015	-0.208
-362.669	333.045	0.078	0.152
-361.654	93.102	0.022	0.025
-360.639	-102.668	-0.127	-0.030
-359.625	775.142	0.096	0.262
-358.610	156.654	-0.100	-0.138
-357.596	-70.113	0.107	0.041
-356.581	-67.365	-0.386	0.152
-355.566	192.883	0.044	0.066
-354.552	800.000	0.041	0.143
-353.537	-154.742	-0.160	-0.011
-352.523	171.961	0.018	0.025
-351.508	69.065	-0.132	-0.135
-350.493	-194.394	-0.229	-0.002
-349.479	-200.000	-0.009	-0.259
-348.464	-89.737	0.394	-0.115
-347.450	-200.000	0.001	-0.057
-346.435	-130.105	0.468	0.064
-345.420	-3.890	-0.281	-0.195
-344.406	-16.004	-0.268	-0.170
-343.391	157.305	-0.005	0.007
-342.377	-19.395	0.285	-0.177
-341.362	66.304	0.043	0.043
-340.348	-136.266	-0.201	0.023
-339.333	-62.637	-0.154	0.064
-338.318	-31.910	0.224	0.126
-337.304	800.000	-0.163	0.489
-336.289	-200.000	-0.005	0.155
-335.275	-200.000	0.009	0.047
-334.260	-98.091	-0.144	-0.037
-333.245	-34.808	-0.169	0.092
-332.231	-130.954	0.038	-0.005
-331.216	-134.471	-0.261	0.032
-330.202	238.476	0.043	-0.071
-329.187	-94.745	0.111	0.030
-328.172	-141.610	-0.389	0.039
-327.158	-16.997	-0.104	0.066
-326.143	-92.324	-0.271	-0.076
-325.129	366.785	0.084	-0.169
-324.114	-10.700	0.340	-0.224
-323.099	95.333	-0.279	-0.317
-322.085	800.000	-0.015	0.047
-321.070	337.887	-0.127	0.246
-320.056	-76.684	0.196	0.069
-319.041	-46.988	-0.227	0.111
-318.026	179.450	0.254	-0.371
-317.012	-154.477	0.267	-0.018
-315.997	-110.970	-0.054	0.011
-314.983	-39.767	0.244	0.127
-313.968	-58.982	0.158	0.068
-312.953	-200.000	0.013	-0.166
-311.939	-66.446	0.077	0.031
-310.924	-50.045	-0.235	-0.111
-309.910	-81.012	0.101	0.033
-308.895	-200.000	0.002	-0.036
-307.880	-157.610	0.397	0.024
-306.866	-142.774	-0.201	0.020
-305.851	-102.080	-0.195	-0.047
-304.837	288.620	-0.240	-0.434
-303.822	-119.104	0.026	0.005
-302.807	46.764	-0.158	-0.146
-301.793	-84.723	0.305	0.096
-300.778	434.023	-0.030	0.066
-299.764	800.000	0.128	-0.375
-298.749	215.332	0.021	0.033
-297.735	-171.750	0.044	0.001
-296.720	-200.000	0.023	0.103
-295.705	242.669	0.159	0.265
-294.691	300.865	-0.085	0.157
-293.676	-108.026	0.062	-0.013
-292.662	-200.000	0.001	0.158
-291.647	-75.641	-0.222	-0.079
-290.632	-200.000	-0.038	0.323
-289.618	800.000	0.020	-0.062
-288.603	178.790	-0.082	-0.119
-287.589	-96.795	-0.174	-0.046
-286.574	-170.959	0.483	0.016
-285.559	-118.198	-0.161	-0.029
-284.545	800.000	-0.035	0.099
-283.530	319.501	0.080	-0.152
-282.516	398.529	0.080	0.167
-281.501	-200.000	0.014	-0.169
-280.486	141.067	0.142	-0.187
-279.472	167.949	-0.083	0.118
-278.457	51.790	0.153	-0.146
-277.443	-17.822	-0.172	0.107
-276.428	-45.283	-0.208	-0.103
-275.413	-200.000	-0.065	-0.368
-274.399	110.792	-0.177	-0.212
-273.384	-39.619	0.325	-0.170
-272.370	-200.000	-0.034	-0.406
-271.355	-200.000	-0.010	0.233
-270.340	135.178	-0.172	0.223
-269.326	-200.000	0.017	-0.224
-268.311	-29.197	-0.269	0.154
-267.297	182.517	-0.106	-0.155
-266.282	-71.105	-0.112	-0.042
-265.267	19.032	0.120	-0.096
-264.253	800.000	-0.054	0.176
-263.238	-7.947	-0.489	-0.329
-262.224	263.811	0.230	0.399
-261.209	94.415	0.300	-0.339
-260.195	366.085	0.064	-0.129
-259.180	-200.000	0.042	0.265
-258.165	-185.483	0.153	0.002
-257.151	-40.781	0.165	-0.085
-256.136	-138.536	-0.164	0.018
-255.122	-149.823	0.075	-0.006
-254.107	418.814	0.071	0.150
-253.092	39.460	0.266	0.238
-252.078	800.000	-0.089	0.350
-251.063	0.162	-0.246	0.175
-250.049	-40.749	0.322	0.166
-249.034	-200.000	0.001	0.015
-248.019	-5.782	0.313	-0.213
-247.005	224.255	-0.128	-0.206
-245.990	-200.000	-0.001	0.015
-244.976	800.000	-0.035	-0.143
-243.961	800.000	0.007	0.020
-242.946	-39.119	0.192	0.100
-241.932	-31.298	-0.454	0.254
-240.917	81.415	-0.097	-0.104
-239.903	85.318	-0.067	0.073
-238.888	590.672	0.073	-0.180
-237.873	38.523	0.270	0.240
-236.859	128.890	0.079	-0.100
-235.844	-105.238	-0.086	0.020
-234.830	-200.000	-0.024	0.207
-233.815	31.874	0.382	-0.327
-232.800	-200.000	0.005	0.132
-231.786	159.293	0.050	0.070
-230.771	200.902	0.071	-0.108
-229.757	365.187	0.075	0.149
-228.742	9.727	-0.055	-0.042
-227.727	98.651	0.179	-0.205
-226.713	311.150	0.127	0.236
-225.698	-26.528	-0.330	0.192
-224.684	-2.328	0.094	-0.066
-223.669	224.873	0.076	-0.122
-222.655	-200.000	0.071	-0.318
-221.640	800.000	-0.081	0.250
-220.625	-26.323	-0.080	0.047
-219.611	-200.000	-0.039	-0.208
-218.596	244.821	-0.055	-0.092
-217.582	-200.000	0.026	-0.114
-216.567	800.000	0.069	0.236
-215.552	82.886	0.057	0.062
-214.538	-200.000	0.050	0.362
-213.523	79.795	0.055	-0.058
-212.509	155.439	0.112	0.154
-211.494	-157.686	-0.317	-0.019
-210.479	57.326	-0.061	0.059
-209.465	-11.448	0.213	-0.139
-208.450	-157.795	-0.082	0.005
-207.436	127.458	-0.190	0.240
-206.421	-200.000	-0.025	0.473
-205.406	162.272	-0.170	-0.237
-204.392	-200.000	-0.057	0.254
-203.377	-200.000	0.098	-0.448
-202.363	69.059	0.191	-0.195
-201.348	46.499	0.099	0.091
-200.333	-31.711	-0.315	-0.176
-199.319	800.000	0.086	-0.249
-198.304	-35.744	0.330	-0.178
-197.290	-200.000	0.030	0.179
-196.275	131.260	-0.073	0.093
-195.260	10.456	-0.167	0.126
-194.246	265.109	-0.080	0.139
-193.231	32.500	-0.202	0.173
-192.217	277.841	0.117	0.206
-191.202	800.000	0.010	0.042
-190.187	123.621	0.183	0.228
-189.173	92.923	0.085	-0.095
-188.158	-118.803	0.201	0.035
-187.144	32.108	-0.216	-0.185
-186.129	-122.640	-0.204	-0.033
-185.114	-200.000	0.017	-0.211
-184.100	-200.000	-0.016	-0.191
-183.085	177.482	0.063	0.091
-182.071	470.546	0.025	0.057
-181.056	225.875	0.316	0.508
-180.042	800.000	-0.092	0.262
-179.027	800.000	-0.127	0.406
-178.012	-12.427	-0.217	0.141
-176.998	178.545	0.170	-0.247
-175.983	-200.000	-0.010	-0.243
-174.969	-200.000	0.031	0.296
-173.954	-200.000	-0.026	0.525
-172.939	118.162	0.141	-0.173
-171.925	27.617	-0.307	-0.257
-170.910	-138.472	0.355	-0.039
-169.896	-36.410	0.212	-0.113
-168.881	800.000	0.095	-0.331
-167.866	45.880	-0.267	0.245
-166.852	789.986	0.080	-0.219
-165.837	-152.547	0.281	-0.020
-164.823	-10.691	-0.027	-0.018
-163.808	11.895	0.149	0.114
-162.793	-200.000	-0.046	-0.223
-161.779	-118.645	-0.323	-0.057
-160.764	271.838	0.051	-0.088
-159.750	-80.685	0.193	0.064
-158.735	299.240	-0.034	0.063
-157.720	800.000	0.029	0.117
-156.706	448.696	0.038	-0.083
-155.691	386.082	0.052	0.106
-154.677	130.550	0.138	0.175
-153.662	122.239	-0.338	0.419
-152.647	150.266	-0.178	0.239
-151.633	-95.128	0.317	0.085
-150.618	41.209	-0.078	0.070
-149.604	-135.371	-0.448	-0.053
-148.589	-167.602	-0.209	0.008
-147.574	-102.800	0.448	-0.106
-146.560	800.000	0.067	-0.241
-145.545	568.401	-0.211	0.509
-144.531	-48.582	-0.206	-0.098
-143.516	-134.549	0.198	-0.024
-142.502	-200.000	0.042	-0.313
-141.487	-158.943	0.107	0.006
-140.472	-87.830	0.190	-0.057
-139.458	202.513	0.090	-0.138
-138.443	-113.948	0.366	0.070
-137.429	179.306	0.067	-0.098
-136.414	800.000	0.004	-0.013
-135.399	-12.441	0.327	-0.212
-134.385	-57.191	-0.387	0.169
-133.370	329.494	-0.108	-0.206
-132.356	-143.278	0.310	0.030
-131.341	-20.669	0.179	0.109
-130.326	96.761	0.097	-0.111
-129.312	800.000	0.091	-0.314
-128.297	-154.068	-0.495	-0.033
-127.283	128.904	0.166	-0.210
-126.268	-62.078	-0.059	-0.024
-125.253	800.000	-0.073	-0.252
-124.239	-93.690	0.081	0.022
-123.224	174.866	0.058	-0.084
-122.210	-127.803	-0.332	-0.047
-121.195	800.000	-0.100	-0.281
-120.180	-87.055	-0.036	-0.011
-119.166	464.108	-0.087	0.192
-118.151	545.279	0.078	-0.184
-117.137	-200.000	-0.028	-0.264
-116.122	242.323	-0.049	-0.081
-115.107	-139.122	0.167	0.018
-114.093	-200.000	0.004	-0.344
-113.078	91.674	-0.256	0.285
-112.064	-97.436	0.176	0.045
-111.049	-200.000	0.002	-0.134
-110.034	-200.000	-0.041	-0.403
-109.020	-75.023	-0.154	0.055
-108.005	-156.757	0.156	-0.010
-106.991	-126.714	-0.235	-0.034
-105.976	800.000	0.050	0.182
-104.962	-200.000	0.006	-0.071
-103.947	56.777	0.169	0.163
-102.932	800.000	-0.137	-0.502
-101.918	177.689	0.066	-0.095
-100.903	-200.000	-0.337	0.001
-99.889	327.181	0.111	-0.211
-98.874	181.131	-0.084	0.122
-97.859	220.530	0.079	-0.125
-96.845	342.265	0.069	0.133
-95.830	-200.000	0.028	-0.137
-94.816	57.251	0.070	-0.068
-93.801	562.777	-0.032	0.076
-92.786	-76.858	-0.166	0.058
-91.772	369.936	0.094	0.189
-90.757	-200.000	-0.014	0.333
-89.743	800.000	-0.063	0.219
-88.728	-200.000	-0.034	0.241
-87.713	710.452	0.073	-0.191
-86.699	82.796	-0.120	0.129
-85.684	-74.763	0.214	-0.076
-84.670	-64.291	0.113	0.045
-83.655	-44.900	-0.086	-0.043
-82.640	106.785	0.164	0.193
-81.626	347.092	-0.225	0.438
-80.611	596.971	0.031	-0.075
-79.597	104.051	0.210	0.244
-78.582	285.575	0.057	0.102
-77.567	314.216	0.066	0.122
-76.553	132.101	0.287	0.365
-75.538	481.453	0.195	0.437
-74.524	-88.095	0.078	0.023
-73.509	-200.000	-0.068	-0.312
-72.494	7.993	-0.336	0.249
-71.480	-187.124	-0.102	-0.001
-70.465	781.121	-0.032	-0.085
-69.451	-8.596	0.145	-0.096
-68.436	543.702	0.038	0.090
-67.422	800.000	0.053	-0.208
-66.407	-149.155	-0.387	0.031
-65.392	124.955	-0.134	-0.167
-64.378	139.761	0.032	0.042
-63.363	-46.034	-0.273	0.133
-62.349	-200.000	-0.008	-0.181
-61.334	140.082	-0.917	-1.196
-60.319	437.148	0.250	0.539
-59.305	135.983	-0.201	-0.259
-58.290	255.366	0.578	0.979
-57.276	570.321	0.518	1.247
-56.261	-200.000	94.514	573.618
-55.246	563.755	1369.515	3278.321
-54.232	153.704	2573.598	3485.316
-53.217	118.039	2163.682	2635.409
-52.203	47.832	1623.642	1498.415
-51.188	39.407	1360.783	1204.525
-50.173	36.153	1317.717	1147.041
-49.159	58.140	1366.717	1323.301
-48.144	62.921	1384.727	1369.558
-47.130	39.843	1339.259	1187.910
-46.115	36.039	1321.540	1149.503
-45.100	35.933	1316.405	1144.362
-44.086	35.913	1313.714	1141.860
-43.071	35.832	1311.649	1139.540
-42.057	35.790	1309.710	1137.559
-41.042	35.791	1307.909	1135.957
-40.027	35.979	1306.117	1135.464
-39.013	35.853	1304.471	1133.250
-37.998	35.974	1302.325	1132.051
-36.984	35.859	1301.080	1130.247
-35.969	35.960	1299.103	1129.078
-34.954	35.950	1297.213	1127.332
-33.940	36.036	1296.109	1126.827
-32.925	35.941	1295.290	1125.517
-31.911	36.060	1293.580	1124.680
-30.896	36.074	1291.735	1123.116
-29.881	36.041	1290.717	1121.992
-28.867	36.138	1288.947	1120.971
-27.852	36.088	1287.761	1119.605
-26.838	36.087	1286.259	1118.252
-25.823	36.028	1284.937	1116.715
-24.809	35.992	1283.571	1115.276
-23.794	36.056	1281.825	1114.082
-22.779	36.059	1280.559	1112.955
-21.765	36.057	1279.598	1112.067
-20.750	35.970	1278.490	1110.554
-19.736	35.923	1277.377	1109.277
-18.721	35.831	1276.336	1107.796
-17.706	35.892	1274.574	1106.575
-16.692	35.738	1273.459	1104.680
-15.677	35.841	1272.401	1104.308
-14.663	35.791	1271.572	1103.260
-13.648	35.932	1269.689	1102.387
-12.633	35.886	1269.146	1101.607
-11.619	35.914	1267.989	1100.719
-10.604	35.845	1267.559	1099.913
-9.590	35.800	1266.355	1098.567
-8.575	35.914	1265.204	1098.176
-7.560	35.886	1264.483	1097.342
-6.546	35.891	1263.515	1096.489
-5.531	35.792	1262.769	1095.237
-4.517	35.844	1261.875	1094.714
-3.502	35.852	1260.858	1093.829
-2.487	35.853	1260.286	1093.299
-1.473	35.786	1255.795	1088.980
-0.458	34.045	1240.010	1065.507
0.556	30.315	1220.676	1019.914
1.571	25.833	1224.272	998.063
2.586	24.550	1239.223	1002.960
3.600	23.679	1228.072	988.998
4.615	17.401	1154.695	896.835
5.629	7.493	1078.003	788.209
6.644	3.236	1056.334	751.549
7.659	2.827	1053.800	747.687
8.673	2.556	1052.855	745.630
9.688	2.624	1051.323	744.809
10.702	2.999	1049.663	745.389
11.717	8.737	1058.377	779.506
12.731	18.945	1072.773	840.169
13.746	24.776	1080.134	874.458
14.761	26.220	1081.675	882.692
15.775	26.232	1081.007	882.125
16.790	26.132	1080.186	880.889
17.804	26.023	1079.832	879.992
18.819	26.029	1079.573	879.729
19.834	26.226	1078.663	879.874
20.848	26.088	1078.674	879.132
21.863	26.214	1078.223	879.300
22.877	26.024	1077.945	878.070
23.892	26.117	1076.823	877.532
24.907	26.171	1075.932	876.989
25.921	26.147	1074.930	875.978
26.936	26.141	1073.694	874.863
27.950	26.117	1071.827	873.148
28.965	26.019	1070.443	871.470
29.980	25.926	1069.474	870.154
30.994	26.294	1068.171	870.792
32.009	26.235	1066.867	869.369
33.023	26.126	1065.424	867.591
34.038	26.035	1065.374	867.038
35.053	26.089	1064.723	866.691
36.067	26.194	1063.668	866.259
37.082	26.294	1062.878	866.020
38.096	26.376	1062.709	866.195
39.111	26.567	1061.191	865.796
40.126	26.202	1060.490	863.401
41.140	25.965	1059.249	861.186
42.155	25.778	1056.917	858.320
43.169	25.971	1055.734	858.204
44.184	25.810	1055.634	857.281
45.199	25.721	1054.432	855.806
46.213	25.785	1053.910	855.608
47.228	25.945	1053.539	855.992
48.242	26.152	1051.953	855.607
49.257	26.161	1051.349	855.083
50.271	26.170	1051.006	854.771
51.286	26.236	1050.248	854.392
52.301	26.373	1049.052	853.992
53.315	26.270	1048.273	852.795
54.330	26.020	1047.780	851.140
55.344	26.196	1046.728	851.037
56.359	26.121	1045.600	849.696
57.374	26.045	1044.664	848.498
58.388	25.961	1043.591	847.157
59.403	25.868	1042.887	846.076
60.417	25.823	1042.219	845.247
61.432	25.770	1041.863	844.634
62.447	26.080	1041.258	845.525
63.461	25.876	1040.825	844.140
64.476	25.918	1039.195	842.939
65.490	25.766	1038.565	841.647
66.505	25.843	1037.851	841.350
67.520	25.987	1037.255	841.465
68.534	25.691	1036.437	839.350
69.549	25.362	1035.228	836.762
70.563	25.448	1033.833	835.960
71.578	25.451	1033.371	835.529
72.593	25.278	1032.648	834.066
73.607	25.346	1032.084	833.851
74.622	25.703	1031.927	835.308
75.636	25.664	1031.173	834.444
76.651	25.738	1029.979	833.747
77.666	25.329	1029.712	831.563
78.680	25.514	1028.489	831.358
79.695	25.784	1027.931	832.078
80.709	25.767	1027.596	831.656
81.724	25.699	1026.746	830.582
82.739	25.808	1025.896	830.320
83.753	26.131	1025.411	831.343
84.768	26.360	1024.855	831.873
85.782	26.587	1023.517	831.755
86.797	26.446	1022.656	830.334
87.812	26.193	1021.850	828.446
88.826	26.407	1020.850	828.545
89.841	26.479	1020.142	828.227
90.855	26.521	1019.011	827.427
91.870	26.463	1018.259	826.479
92.884	26.168	1017.572	824.501
93.899	26.242	1016.364	823.784
94.914	26.432	1015.348	823.757
95.928	26.249	1014.587	822.230
96.943	25.976	1013.260	819.843
97.957	25.754	1012.120	817.837
98.972	25.601	1011.081	816.233
99.987	26.060	1010.392	817.687
101.001	26.195	1009.845	817.784
102.016	26.188	1008.684	816.738
103.030	25.987	1007.754	815.006
104.045	25.847	1007.260	813.902
105.060	25.847	1006.025	812.831
106.074	25.988	1005.412	812.897
107.089	26.211	1005.107	813.584
108.103	25.984	1004.204	811.762
109.118	25.885	1002.887	810.177
110.133	25.836	1001.873	809.070
111.147	25.595	1000.714	806.980
112.162	25.565	999.685	805.946
113.176	25.905	999.098	806.920
114.191	25.839	998.051	805.710
115.206	25.351	997.314	802.862
116.220	25.364	996.635	802.302
117.235	25.587	995.899	802.632
118.249	25.555	994.719	801.470
119.264	25.443	994.141	800.436
120.279	25.497	993.841	800.362
121.293	25.601	992.728	799.859
122.308	25.690	991.471	799.171
123.322	25.574	990.460	797.770
124.337	25.307	989.617	795.837
125.352	24.822	987.907	792.243
126.366	24.905	986.542	791.447
127.381	25.565	986.794	794.497
128.395	26.053	986.466	796.315
129.410	26.137	985.419	795.769
130.424	26.096	984.451	794.737
131.439	26.102	983.744	794.124
132.454	26.064	982.880	793.188
133.468	26.017	982.178	792.346
134.483	26.050	981.440	791.826
135.497	26.276	980.847	792.266
136.512	26.180	980.482	791.480
137.527	26.396	979.047	791.195
138.541	26.265	978.655	790.239
139.556	26.356	977.816	789.887
140.570	26.427	977.060	789.517
141.585	26.381	975.904	788.315
142.600	26.383	974.997	787.522
143.614	26.486	974.345	787.371
144.629	26.680	973.391	787.375
145.643	26.566	972.126	785.787
146.658	26.339	970.799	783.660
147.673	26.156	969.563	781.803
148.687	26.153	968.835	781.133
149.702	26.075	967.792	779.884
150.716	26.153	966.920	779.450
151.731	26.282	966.640	779.714
152.746	26.368	965.820	779.350
153.760	26.497	965.175	779.318
154.775	26.516	964.332	778.651
155.789	26.529	963.132	777.669
156.804	26.513	962.826	777.286
157.819	26.547	961.983	776.679
158.833	26.658	961.126	776.396
159.848	26.725	960.260	775.915
160.862	26.534	958.886	773.921
161.877	26.495	958.214	773.140
162.892	26.530	957.239	772.436
163.906	26.336	956.239	770.735
164.921	26.481	955.223	770.466
165.935	26.578	954.422	770.164
166.950	26.503	953.507	769.038
167.964	26.497	952.618	768.228
168.979	26.305	951.758	766.651
169.994	26.242	951.078	765.769
171.008	26.512	950.185	766.126
172.023	26.587	949.427	765.762
173.037	26.373	948.193	763.796
174.052	26.127	947.579	762.194
175.067	26.257	946.752	762.012
176.081	26.203	946.063	761.162
177.096	26.338	945.198	760.968
178.110	25.907	944.696	758.680
179.125	25.834	943.749	757.548
180.140	25.811	943.710	757.349
181.154	26.038	943.171	757.805
182.169	26.277	943.404	758.931
183.183	26.523	942.511	759.175
184.198	26.515	941.328	758.125
185.213	26.338	941.137	757.160
186.227	26.480	940.333	757.041
187.242	26.493	939.733	756.547
188.256	26.597	939.143	756.437
189.271	26.693	938.427	756.196
190.286	26.332	936.948	753.431
191.300	25.705	935.636	749.697
192.315	24.740	934.103	744.391
193.329	24.808	933.650	744.244
194.344	25.682	934.371	748.392
195.359	26.361	934.276	751.071
196.373	26.338	933.637	750.396
197.388	26.236	933.240	749.586
198.402	26.335	932.234	749.124
199.417	26.502	931.932	749.507
200.432	26.104	930.959	747.009
201.446	25.989	930.432	746.046
202.461	25.985	929.738	745.404
203.475	25.216	927.760	740.579
204.490	24.338	926.179	735.634
205.504	25.198	926.875	739.671
206.519	25.976	926.612	742.598
207.534	26.168	925.801	742.676
208.548	26.435	925.963	743.834
209.563	26.271	924.942	742.276
210.577	25.995	924.757	740.930
211.592	26.675	924.098	743.125
212.607	26.603	923.437	742.233
213.621	26.535	922.812	741.387
214.636	26.614	921.949	740.950
215.650	26.479	921.495	739.969
216.665	26.590	920.711	739.728
217.680	26.638	919.731	739.069
218.694	26.076	918.712	735.894
219.709	25.978	918.101	734.940
220.723	26.335	917.770	736.063
221.738	26.321	917.299	735.563
222.753	26.312	916.760	735.030
223.767	26.468	916.188	735.142
224.782	26.639	915.757	735.425
225.796	26.666	915.053	734.902
226.811	25.953	913.481	730.686
227.826	25.353	912.470	727.386
228.840	25.619	912.203	728.183
229.855	25.502	911.161	726.814
230.869	25.194	910.334	724.846
231.884	25.660	910.313	726.647
232.899	26.450	910.336	729.789
233.913	26.334	909.644	728.705
234.928	26.324	909.138	728.195
235.942	26.191	908.522	727.101
236.957	25.940	907.242	725.004
237.972	25.928	906.278	724.122
238.986	25.976	906.425	724.365
240.001	25.977	905.676	723.709
241.015	26.224	905.174	724.231
242.030	26.294	904.813	724.159
243.045	26.279	904.500	723.787
244.059	26.576	904.039	724.541
245.074	26.326	903.024	722.667
246.088	26.082	901.598	720.486
247.103	26.445	901.484	721.781
248.117	26.785	901.846	723.362
249.132	27.108	901.796	724.547
250.147	27.154	900.641	723.737
251.161	27.330	900.426	724.201
252.176	27.240	899.891	723.350
253.190	27.309	899.440	723.195
254.205	27.360	898.851	722.860
255.220	27.297	898.129	721.966
256.234	27.211	897.701	721.217
257.249	27.198	896.425	720.078
258.263	27.242	895.995	719.843
259.278	27.321	895.490	719.687
260.293	27.342	894.839	719.181
261.307	27.306	894.032	718.327
262.322	27.064	893.350	716.763
263.336	26.267	891.593	712.150
264.351	25.306	889.315	706.485
265.366	25.273	889.515	706.451
266.380	26.449	890.116	711.495
267.395	27.051	889.657	713.432
268.409	26.754	889.053	711.717
269.424	26.998	888.617	712.264
270.439	26.916	888.100	711.466
271.453	27.081	886.965	711.138
272.468	27.255	887.202	711.947
273.482	27.306	886.393	711.435
274.497	27.074	884.990	709.337
275.512	26.576	884.507	706.946
276.526	27.084	884.284	708.686
277.541	27.047	884.114	708.343
278.555	26.861	883.360	706.951
279.570	26.838	882.508	706.116
280.585	26.884	882.032	705.855
281.599	27.043	881.023	705.600
282.614	26.253	880.012	701.661
283.628	26.415	879.238	701.611
284.643	26.656	879.331	702.560
285.657	26.434	877.635	700.281
286.672	26.075	877.120	698.421
287.687	26.644	877.138	700.574
288.701	26.627	876.607	700.020
289.716	26.279	875.524	697.750
290.730	26.390	874.795	697.539
291.745	25.938	874.251	695.299
292.760	26.222	874.233	696.318
293.774	27.325	874.641	700.831
294.789	27.648	874.364	701.792
295.803	27.754	873.397	701.359
296.818	27.661	872.896	700.540
297.833	27.327	871.576	698.137
298.847	27.015	871.101	696.498
299.862	27.413	871.242	698.076
300.876	27.591	870.720	698.278
301.891	27.432	870.192	697.184
302.906	27.082	869.134	694.934
303.920	27.271	868.565	695.142
304.935	27.594	868.421	696.198
305.949	27.457	867.839	695.147
306.964	27.357	866.906	693.959
307.979	27.274	866.856	693.538
308.993	27.747	866.518	695.011
310.008	27.698	865.790	694.176
311.022	27.503	865.026	692.762
312.037	27.418	864.385	691.865
313.052	27.081	863.166	689.550
314.066	26.176	861.881	685.031
315.081	25.806	861.307	683.110
316.095	26.677	861.492	686.497
317.110	27.229	861.001	688.137
318.125	26.368	859.996	684.015
319.139	25.384	858.397	678.967
320.154	25.295	858.102	678.337
321.168	26.192	858.343	681.853
322.183	27.015	858.491	685.020
323.197	27.052	857.968	684.682
324.212	27.274	857.722	685.260
325.227	27.446	857.042	685.303
326.241	27.270	856.140	683.860
327.256	27.166	855.998	683.295
328.270	27.044	855.217	682.153
329.285	26.795	854.204	680.352
330.300	26.677	853.054	678.932
331.314	26.970	853.128	680.029
332.329	27.290	853.253	681.265
333.343	27.362	853.052	681.314
334.358	27.340	852.657	680.859
335.373	27.556	851.925	681.020
336.387	27.824	852.173	682.160
337.402	27.792	851.814	681.692
338.416	27.755	851.695	681.399
339.431	28.029	851.409	682.132
340.446	28.122	850.818	681.946
341.460	28.027	850.290	681.108
342.475	27.739	849.863	679.634
343.489	27.924	849.416	679.905
344.504	28.235	849.349	680.946
345.519	28.266	849.025	680.743
346.533	28.260	848.352	680.120
347.548	28.288	847.848	679.759
348.562	28.196	847.262	678.887
349.577	28.085	846.993	678.202
350.592	28.090	846.013	677.373
351.606	28.198	845.124	677.002
352.621	28.007	844.270	675.552
353.635	27.981	843.528	674.803
354.650	27.394	842.308	671.603
355.665	26.484	840.589	666.822
356.679	26.810	840.369	667.789
357.694	27.397	839.864	669.489
358.708	27.165	839.461	668.256
359.723	27.541	839.483	669.595
360.738	27.866	838.856	670.228
361.752	28.024	838.794	670.699
362.767	28.296	838.229	671.185
363.781	28.570	837.974	671.927
364.796	28.621	837.761	671.880
365.810	28.733	837.302	671.865
366.825	28.625	837.075	671.227
367.840	28.397	835.611	669.160
368.854	27.935	835.123	667.026
369.869	27.981	834.544	666.672
370.883	28.093	834.334	666.852
371.898	28.038	833.982	666.314
372.913	27.969	833.483	665.605
373.927	28.083	833.220	665.747
374.942	28.223	832.839	665.896
375.956	28.351	832.374	665.932
376.971	28.563	831.760	666.149
377.986	28.659	831.578	666.294
379.000	28.615	830.946	665.568
380.015	28.426	830.185	664.217
381.029	28.368	829.880	663.703
382.044	28.637	829.109	664.001
383.059	28.666	828.641	663.674
384.073	28.706	828.187	663.396
385.088	28.619	827.550	662.511
386.102	28.344	826.741	660.814
387.117	28.396	825.828	660.212
388.132	28.082	824.764	658.173
389.146	27.360	824.062	654.956
390.161	27.825	824.283	656.749
391.175	28.284	823.954	658.079
392.190	27.996	822.959	656.190
393.205	26.657	820.431	649.323
394.219	25.154	818.912	642.680
395.234	25.043	818.436	641.852
396.248	26.571	820.445	648.852
397.263	28.152	820.839	654.770
398.278	27.906	820.273	653.381
399.292	27.779	819.754	652.454
400.307	27.859	819.291	652.315
401.321	27.821	819.273	652.108
402.336	28.267	819.252	653.627
403.350	28.678	819.347	655.109
404.365	28.954	819.183	655.906
405.380	29.237	818.695	656.467
406.394	29.328	818.286	656.404
407.409	29.367	817.420	655.789
408.423	29.236	816.783	654.756
409.438	29.477	816.613	655.417
410.453	29.351	816.363	654.708
411.467	29.317	815.576	653.901
412.482	29.327	815.010	653.425
413.496	29.325	815.139	653.462
414.511	29.286	814.595	652.829
415.526	29.400	814.093	652.775
416.540	29.242	813.211	651.451
417.555	28.954	812.789	650.036
418.569	28.966	812.308	649.638
419.584	28.973	811.682	649.102
420.599	28.746	811.234	647.888
421.613	107.267	1281.974	1437.261
422.628	92.700	1350.546	1437.381
