DTS Sentinel unit serial number:	SN413079Multiplexer serial number:	ORYXHardware model number:	OX4-SRSoftware version number:	ORYX F/W v4.00 Oryx Data Collector v3.7.2.0data status	okinstallation	princeton_trtdifferential loss correction	single-endedforward channel	channel 1reverse channel	N/Adate	2019/09/17time	21:26:35forward acquisition time	60.00reverse acquisition time	0.00gamma	496.2192k internal	0.2339k external	0.2339temperature offset calibration	0.9977default loss term (dB/km)	0.3790temperature slope calibration	1.0000multiplexer offset coefficient	1.0000multiplexer slope coefficient	1.0000fibre end	0.00T internal ref (°C)	27.33T ext. ref 1 (°C)	0.19T ext. ref 2 (°C)	19.31length (m)	temperature (°C)	Stokes	anti-Stokes-747.200	49.278	0.206	0.194
-746.185	-200.000	0.003	0.074
-745.171	-170.206	-0.210	0.007
-744.156	800.000	-0.121	0.363
-743.142	-200.000	0.012	-0.059
-742.127	-48.000	-0.294	-0.143
-741.112	-99.244	0.182	0.046
-740.098	-200.000	0.002	0.187
-739.083	-137.187	-0.055	-0.006
-738.069	-25.598	0.002	0.001
-737.054	-200.000	0.027	-0.152
-736.039	67.876	-0.279	-0.286
-735.025	-71.867	0.370	0.138
-734.010	-32.757	-0.287	0.160
-732.996	-174.752	0.231	0.007
-731.981	-113.548	-0.200	0.039
-730.966	395.368	-0.069	-0.144
-729.952	800.000	0.061	-0.200
-728.937	129.569	-0.067	-0.086
-727.923	-44.209	-0.365	-0.183
-726.908	-69.585	0.104	0.040
-725.894	-92.770	-0.320	-0.090
-724.879	142.255	-0.053	-0.070
-723.864	21.109	0.204	-0.166
-722.850	72.204	-0.145	0.151
-721.835	-200.000	0.005	-0.138
-720.821	114.482	0.064	-0.078
-719.806	800.000	0.112	0.380
-718.791	188.846	-0.085	0.127
-717.777	-200.000	-0.065	-0.686
-716.762	-200.000	0.156	-0.000
-715.748	-200.000	0.009	0.096
-714.733	10.165	0.063	0.048
-713.718	167.493	0.075	-0.107
-712.704	13.343	-0.115	-0.090
-711.689	800.000	0.017	-0.050
-710.675	-8.376	-0.198	0.133
-709.660	144.402	-0.146	-0.196
-708.645	800.000	0.035	0.116
-707.631	-200.000	0.018	-0.317
-706.616	-33.321	0.300	0.166
-705.602	16.803	-0.169	-0.134
-704.587	-175.726	-0.187	-0.005
-703.572	-100.445	0.277	0.069
-702.558	166.003	0.028	0.039
-701.543	409.086	-0.101	0.214
-700.529	800.000	-0.093	-0.260
-699.514	333.374	-0.166	-0.321
-698.499	104.744	0.219	-0.258
-697.485	-200.000	0.002	-0.026
-696.470	-200.000	-0.006	-0.096
-695.456	41.315	-0.310	-0.280
-694.441	-23.524	-0.128	0.077
-693.426	-119.966	-0.259	0.045
-692.412	172.513	-0.096	0.139
-691.397	389.011	-0.198	-0.411
-690.383	44.341	0.241	0.222
-689.368	800.000	0.147	0.516
-688.354	161.172	-0.122	-0.170
-687.339	269.075	0.084	-0.147
-686.324	-53.666	-0.025	-0.011
-685.310	-200.000	0.010	0.344
-684.295	88.402	0.123	-0.137
-683.281	223.301	-0.072	-0.116
-682.266	419.490	0.095	-0.203
-681.251	-200.000	-0.012	-0.113
-680.237	-44.490	-0.098	0.049
-679.222	-154.126	0.210	0.014
-678.208	39.515	0.107	-0.096
-677.193	635.865	0.069	0.175
-676.178	-143.110	0.189	0.018
-675.164	-200.000	0.064	0.354
-674.149	21.124	-0.387	-0.314
-673.135	6.852	-0.143	0.107
-672.120	179.505	-0.109	0.159
-671.105	352.157	0.105	0.208
-670.091	59.298	-0.274	-0.269
-669.076	467.099	-0.083	0.187
-668.062	-118.644	0.050	-0.009
-667.047	-182.337	-0.088	-0.002
-666.032	509.775	-0.102	0.237
-665.018	86.090	-0.260	0.286
-664.003	359.199	-0.116	-0.233
-662.989	107.544	0.151	-0.180
-661.974	640.289	0.077	0.197
-660.959	113.332	0.089	0.108
-659.945	684.432	-0.082	-0.213
-658.930	259.251	0.194	0.334
-657.916	800.000	-0.054	0.180
-656.901	233.152	-0.119	0.196
-655.886	-200.000	0.078	0.350
-654.872	-114.714	-0.271	-0.052
-653.857	-26.857	0.264	0.154
-652.843	800.000	-0.035	-0.130
-651.828	800.000	0.095	-0.292
-650.814	75.025	-0.089	0.094
-649.799	157.277	0.014	0.020
-648.784	106.335	-0.101	0.119
-647.770	-200.000	-0.005	0.048
-646.755	33.844	-0.056	0.049
-645.741	765.998	0.076	-0.206
-644.726	800.000	0.029	-0.086
-643.711	-85.426	-0.235	0.073
-642.697	-145.921	-0.106	0.009
-641.682	-154.776	0.164	-0.011
-640.668	-200.000	0.020	0.268
-639.653	-92.583	-0.226	-0.063
-638.638	20.845	0.106	-0.086
-637.624	93.122	0.090	-0.102
-636.609	-133.434	0.115	0.014
-635.595	217.892	0.155	-0.247
-634.580	-150.291	0.470	0.036
-633.565	-103.407	0.027	0.006
-632.551	362.798	0.062	-0.125
-631.536	800.000	-0.049	0.177
-630.522	203.094	-0.052	-0.080
-629.507	-40.219	0.181	-0.094
-628.492	-200.000	-0.002	-0.081
-627.478	60.965	0.091	0.091
-626.463	155.131	0.156	0.215
-625.449	-30.948	-0.275	-0.155
-624.434	800.000	0.075	-0.254
-623.419	173.070	0.121	-0.174
-622.405	-20.496	0.142	-0.087
-621.390	-200.000	0.040	-0.265
-620.376	79.100	-0.122	-0.130
-619.361	431.648	-0.106	-0.229
-618.346	-151.045	-0.142	0.011
-617.332	-74.888	-0.061	-0.022
-616.317	-200.000	0.004	0.067
-615.303	-181.418	0.228	0.004
-614.288	-32.001	-0.318	0.177
-613.273	301.638	-0.131	0.242
-612.259	-200.000	-0.005	0.228
-611.244	800.000	-0.077	0.289
-610.230	4.572	0.214	-0.157
-609.215	-200.000	-0.021	0.173
-608.201	-200.000	0.014	0.286
-607.186	-41.336	-0.177	-0.091
-606.171	346.968	0.126	-0.248
-605.157	3.977	0.139	-0.102
-604.142	-118.837	-0.127	0.022
-603.128	800.000	-0.041	0.125
-602.113	-200.000	0.041	-0.214
-601.098	-43.706	0.172	-0.087
-600.084	-31.552	0.103	-0.058
-599.069	-116.210	0.079	0.015
-598.055	57.223	0.160	0.155
-597.040	-13.537	-0.312	0.201
-596.025	288.899	-0.119	0.215
-595.011	-146.880	-0.090	-0.008
-593.996	-96.245	0.289	-0.076
-592.982	-135.552	-0.051	-0.006
-591.967	-72.999	0.443	-0.162
-590.952	67.986	-0.101	0.103
-589.938	6.276	0.239	0.177
-588.923	-200.000	0.018	-0.371
-587.909	169.929	-0.134	0.191
-586.894	-91.493	0.242	-0.069
-585.879	-111.289	-0.063	-0.013
-584.865	343.045	-0.192	0.375
-583.850	528.428	0.054	0.126
-582.836	-68.795	-0.226	0.087
-581.821	-37.867	-0.163	-0.086
-580.806	709.110	0.046	0.121
-579.792	-36.310	0.177	0.095
-578.777	-192.010	0.123	-0.001
-577.763	11.287	-0.096	0.073
-576.748	-172.937	-0.356	0.011
-575.733	50.638	0.185	0.174
-574.719	26.171	0.210	0.175
-573.704	-66.052	-0.435	-0.173
-572.690	67.847	0.113	0.116
-571.675	-53.488	0.209	0.095
-570.661	612.724	0.059	-0.148
-569.646	-123.741	-0.099	0.016
-568.631	-200.000	0.005	-0.033
-567.617	-174.586	-0.366	-0.010
-566.602	-7.791	-0.132	-0.089
-565.588	-122.313	-0.149	-0.024
-564.573	330.764	-0.086	-0.165
-563.558	-28.300	-0.276	0.159
-562.544	46.505	0.170	0.157
-561.529	-63.191	0.118	-0.048
-560.515	-33.914	-0.128	-0.070
-559.500	-94.343	-0.279	0.076
-558.485	-200.000	0.023	-0.112
-557.471	-109.137	-0.179	0.038
-556.456	800.000	-0.018	-0.056
-555.442	-24.092	-0.062	-0.037
-554.427	501.588	-0.082	0.189
-553.412	-111.867	0.181	-0.036
-552.398	-200.000	0.008	0.072
-551.383	-118.870	-0.104	0.018
-550.369	232.311	-0.219	-0.358
-549.354	-89.018	0.181	0.053
-548.339	-200.000	0.027	0.142
-547.325	102.914	-0.029	0.033
-546.310	800.000	-0.086	-0.253
-545.296	13.121	-0.291	-0.224
-544.281	392.551	-0.075	0.156
-543.266	-200.000	-0.020	0.247
-542.252	741.590	-0.029	0.077
-541.237	-200.000	-0.012	0.135
-540.223	-104.836	-0.206	-0.047
-539.208	-200.000	-0.041	-0.326
-538.193	-200.000	0.008	-0.180
-537.179	-200.000	-0.001	0.141
-536.164	-200.000	0.074	0.374
-535.150	-200.000	-0.004	0.635
-534.135	-106.375	0.286	0.064
-533.121	-15.249	-0.299	0.190
-532.106	-92.766	-0.205	0.057
-531.091	-200.000	0.015	-0.071
-530.077	-1.853	-0.208	0.146
-529.062	800.000	-0.067	0.265
-528.048	365.543	-0.084	-0.169
-527.033	-71.796	-0.218	-0.081
-526.018	-88.169	0.210	0.063
-525.004	-76.130	0.348	0.122
-523.989	-11.776	0.197	-0.129
-522.975	139.412	-0.187	0.245
-521.960	72.290	-0.180	0.187
-520.945	45.258	0.406	-0.372
-519.931	30.021	0.151	0.128
-518.916	16.555	-0.318	0.250
-517.902	-48.203	0.028	-0.014
-516.887	89.702	-0.115	-0.127
-515.872	-163.942	0.327	0.015
-514.858	410.063	-0.126	-0.265
-513.843	-200.000	0.024	-0.544
-512.829	-36.170	-0.188	0.101
-511.814	-200.000	-0.029	-0.164
-510.799	-157.643	-0.218	-0.013
-509.785	701.648	0.072	-0.189
-508.770	-200.000	-0.034	-0.151
-507.756	-200.000	-0.045	-0.238
-506.741	-142.530	0.274	0.027
-505.726	-50.538	0.227	0.106
-504.712	31.914	0.215	-0.184
-503.697	120.530	-0.266	-0.328
-502.683	-23.275	-0.032	-0.019
-501.668	-22.791	0.285	0.171
-500.653	-168.957	-0.172	0.006
-499.639	-134.632	0.281	0.034
-498.624	-200.000	0.014	0.134
-497.610	-106.370	0.137	-0.030
-496.595	-113.041	-0.120	0.023
-495.581	18.093	-0.270	0.214
-494.566	25.365	0.088	-0.073
-493.551	34.613	-0.175	0.152
-492.537	60.721	0.046	0.046
-491.522	-200.000	0.013	0.179
-490.508	433.529	-0.078	-0.167
-489.493	800.000	0.059	-0.206
-488.478	-28.892	-0.178	0.102
-487.464	-103.314	-0.093	-0.022
-486.449	-59.757	-0.069	-0.029
-485.435	201.190	0.065	0.100
-484.420	505.289	-0.092	0.212
-483.405	282.072	-0.021	0.037
-482.391	-12.741	-0.203	0.132
-481.376	481.479	-0.038	0.085
-480.362	137.937	-0.235	0.306
-479.347	-53.955	0.090	-0.041
-478.332	-200.000	-0.037	-0.326
-477.318	77.006	-0.078	0.083
-476.303	-75.989	0.324	-0.114
-475.289	800.000	0.072	-0.240
-474.274	-118.943	0.126	-0.022
-473.259	-97.874	0.374	-0.096
-472.245	-55.341	0.250	-0.111
-471.230	268.070	0.131	-0.228
-470.216	-134.928	-0.176	-0.021
-469.201	800.000	0.081	0.246
-468.186	139.461	-0.091	-0.118
-467.172	23.145	-0.162	0.132
-466.157	-111.683	0.306	0.061
-465.143	-3.693	0.195	0.135
-464.128	-200.000	-0.049	0.389
-463.113	7.239	-0.275	-0.204
-462.099	26.776	0.374	0.310
-461.084	-131.412	0.315	-0.041
-460.070	-200.000	0.037	0.200
-459.055	95.570	0.161	-0.182
-458.040	-200.000	-0.010	-0.517
-457.026	-1.117	-0.191	0.134
-456.011	307.868	-0.192	-0.356
-454.997	800.000	-0.057	0.243
-453.982	-49.586	0.379	-0.179
-452.968	-61.327	-0.413	-0.172
-451.953	-98.120	-0.360	-0.092
-450.938	-61.994	0.136	0.056
-449.924	15.581	-0.329	0.257
-448.909	-166.294	-0.107	0.004
-447.895	-109.700	0.179	0.037
-446.880	248.218	0.171	-0.287
-445.865	220.141	0.147	0.233
-444.851	169.755	-0.103	-0.146
-443.836	-200.000	-0.036	0.391
-442.822	-24.584	0.038	0.023
-441.807	66.590	0.167	0.168
-440.792	18.045	-0.273	-0.216
-439.778	180.009	-0.091	0.132
-438.763	431.591	-0.085	0.182
-437.749	197.491	-0.065	-0.098
-436.734	-200.000	-0.005	-0.204
-435.719	427.126	0.055	-0.118
-434.705	-200.000	0.025	-0.219
-433.690	-91.236	-0.127	0.036
-432.676	-200.000	0.019	0.293
-431.661	84.116	-0.073	-0.079
-430.646	-148.547	0.382	-0.031
-429.632	130.131	-0.127	-0.161
-428.617	-100.016	-0.132	0.033
-427.603	6.252	-0.105	-0.078
-426.588	-200.000	0.034	0.245
-425.573	800.000	0.010	-0.038
-424.559	-200.000	0.042	0.241
-423.544	-29.173	-0.153	-0.087
-422.530	800.000	0.093	0.366
-421.515	-200.000	0.062	-0.286
-420.500	535.907	-0.054	-0.127
-419.486	-114.472	0.115	-0.022
-418.471	162.544	0.140	-0.194
-417.457	-120.989	0.174	-0.029
-416.442	-82.631	-0.357	0.115
-415.428	-200.000	-0.007	-0.239
-414.413	-79.686	0.028	-0.009
-413.398	163.443	-0.161	-0.224
-412.384	-200.000	-0.010	0.289
-411.369	-136.446	0.151	-0.017
-410.355	369.690	0.052	0.105
-409.340	800.000	0.080	0.271
-408.325	46.814	0.172	-0.158
-407.311	-200.000	-0.027	-0.266
-406.296	-79.072	-0.187	-0.063
-405.282	22.859	-0.145	-0.118
-404.267	-134.816	-0.087	0.010
-403.252	-161.589	-0.135	-0.007
-402.238	61.836	0.049	0.048
-401.223	-200.000	0.019	-0.178
-400.209	-122.787	0.337	-0.054
-399.194	82.801	-0.278	-0.299
-398.179	32.121	0.161	-0.137
-397.165	-67.882	0.220	-0.085
-396.150	438.615	0.095	0.205
-395.136	-200.000	0.043	-0.216
-394.121	73.029	0.211	0.218
-393.106	-47.680	-0.256	0.123
-392.092	402.703	0.022	0.045
-391.077	-130.321	0.141	-0.019
-390.063	-90.763	0.308	0.088
-389.048	-35.337	-0.334	-0.180
-388.033	-31.038	0.152	0.085
-387.019	800.000	0.065	-0.208
-386.004	104.401	0.053	-0.061
-384.990	800.000	0.026	0.081
-383.975	-200.000	-0.032	-0.228
-382.960	-200.000	-0.000	0.069
-381.946	-200.000	-0.373	0.001
-380.931	-200.000	0.012	0.209
-379.917	-131.636	0.228	0.030
-378.902	111.572	-0.258	-0.307
-377.888	-200.000	-0.015	0.105
-376.873	-57.204	-0.093	0.041
-375.858	298.722	-0.074	-0.134
-374.844	5.292	0.095	0.069
-373.829	32.370	0.195	-0.166
-372.815	-200.000	0.062	-0.414
-371.800	-200.000	-0.028	-0.159
-370.785	23.848	-0.248	-0.202
-369.771	-200.000	0.028	-0.206
-368.756	-88.250	0.095	0.028
-367.742	-200.000	-0.038	0.213
-366.727	11.153	0.271	-0.205
-365.712	-200.000	-0.059	-0.273
-364.698	-24.402	0.129	0.076
-363.683	-118.316	-0.221	-0.039
-362.669	43.087	-0.059	0.053
-361.654	249.395	0.045	0.075
-360.639	-128.609	-0.099	-0.014
-359.625	-20.496	-0.320	0.195
-358.610	-200.000	0.013	-0.105
-357.596	583.338	-0.133	-0.324
-356.581	-77.223	-0.233	0.080
-355.566	-200.000	-0.006	0.082
-354.552	534.870	0.039	-0.091
-353.537	553.141	0.079	-0.187
-352.523	-73.660	-0.108	-0.039
-351.508	800.000	-0.097	0.331
-350.493	-17.370	-0.078	0.048
-349.479	-8.929	-0.156	0.103
-348.464	-165.411	-0.326	-0.014
-347.450	-112.338	0.183	-0.036
-346.435	-22.302	-0.199	0.119
-345.420	-200.000	-0.029	-0.131
-344.406	368.114	0.133	-0.266
-343.391	-45.318	0.155	-0.076
-342.377	152.277	0.081	-0.109
-341.362	-200.000	0.076	0.461
-340.348	16.990	0.099	0.078
-339.333	-197.648	-0.148	0.001
-338.318	-200.000	-0.001	-0.336
-337.304	-21.704	-0.226	0.136
-336.289	-200.000	0.022	0.120
-335.275	110.714	0.131	-0.155
-334.260	-21.793	0.230	-0.138
-333.245	693.087	-0.028	0.073
-332.231	-200.000	0.020	0.327
-331.216	800.000	-0.065	-0.219
-330.202	-61.978	0.338	-0.139
-329.187	-54.490	-0.166	-0.074
-328.172	-33.967	-0.134	0.073
-327.158	427.425	0.083	-0.177
-326.143	-55.934	0.169	0.074
-325.129	-15.217	-0.305	0.192
-324.114	-114.470	0.233	0.044
-323.099	264.306	0.082	-0.140
-322.085	798.544	-0.047	0.128
-321.070	67.836	0.192	0.194
-320.056	-91.448	-0.112	-0.032
-319.041	-200.000	-0.005	0.046
-318.026	-200.000	0.005	-0.076
-317.012	140.418	0.128	-0.167
-315.997	45.192	-0.185	-0.169
-314.983	285.269	0.033	-0.058
-313.968	-200.000	-0.056	0.415
-312.953	-77.422	0.272	-0.093
-311.939	-200.000	-0.005	0.156
-310.924	-25.689	0.155	0.090
-309.910	-200.000	-0.179	0.000
-308.895	-83.593	0.194	0.061
-307.880	-55.019	0.114	-0.051
-306.866	-90.327	-0.094	0.027
-305.851	43.850	0.109	-0.098
-304.837	-200.000	0.018	-0.111
-303.822	-133.715	-0.030	-0.004
-302.807	-134.299	0.082	-0.010
-301.793	157.351	0.197	0.268
-300.778	-200.000	-0.042	0.297
-299.764	-200.000	-0.009	0.160
-298.749	-127.210	-0.158	-0.023
-297.735	607.951	-0.080	-0.197
-296.720	800.000	0.040	-0.114
-295.705	551.839	0.119	0.281
-294.691	742.525	0.076	0.201
-293.676	94.456	-0.201	0.225
-292.662	87.699	0.177	0.193
-291.647	-136.938	-0.146	0.016
-290.632	20.356	-0.099	-0.079
-289.618	703.599	0.085	0.222
-288.603	116.989	-0.147	-0.178
-287.589	-108.179	0.110	-0.023
-286.574	-31.009	0.143	-0.080
-285.559	130.731	0.139	0.175
-284.545	-104.665	0.056	-0.013
-283.530	-200.000	-0.027	0.185
-282.516	800.000	0.026	-0.077
-281.501	-24.829	0.209	-0.122
-280.486	800.000	-0.091	0.266
-279.472	-200.000	0.048	0.313
-278.457	-124.682	-0.055	-0.008
-277.443	-83.634	0.175	0.055
-276.428	70.074	0.084	0.085
-275.413	-65.188	0.340	-0.135
-274.399	-57.431	0.265	0.114
-273.384	-95.171	-0.262	0.070
-272.370	-122.405	-0.184	0.030
-271.355	-88.185	0.135	0.040
-270.340	673.943	-0.115	0.294
-269.326	105.781	0.098	-0.115
-268.311	-164.045	-0.130	0.006
-267.297	15.247	0.141	-0.109
-266.282	-200.000	0.007	0.198
-265.267	-200.000	0.036	-0.161
-264.253	602.123	0.094	-0.231
-263.238	-24.099	0.041	0.024
-262.224	-116.652	-0.154	-0.028
-261.209	-200.000	-0.021	-0.304
-260.195	214.927	0.267	0.416
-259.180	-64.194	-0.325	-0.130
-258.165	12.634	-0.100	0.076
-257.151	540.202	0.166	0.389
-256.136	-114.206	0.049	0.009
-255.122	-58.678	0.086	-0.037
-254.107	21.839	-0.055	-0.044
-253.092	59.075	0.125	-0.121
-252.078	38.431	-0.098	-0.086
-251.063	-200.000	0.023	-0.111
-250.049	320.656	0.061	0.113
-249.034	670.205	-0.066	0.168
-248.019	-169.682	0.050	0.002
-247.005	-88.405	0.224	-0.066
-245.990	4.258	0.120	-0.086
-244.976	84.381	-0.291	-0.313
-243.961	-200.000	-0.067	0.360
-242.946	800.000	-0.029	-0.101
-241.932	-158.148	-0.273	-0.016
-240.917	340.752	0.022	-0.042
-239.903	-36.526	0.148	0.078
-238.888	72.821	-0.088	0.090
-237.873	49.382	0.228	-0.211
-236.859	-200.000	0.012	0.084
-235.844	68.931	-0.142	0.144
-234.830	-97.706	-0.285	0.072
-233.815	616.913	-0.119	-0.294
-232.800	12.502	-0.256	0.194
-231.786	-0.846	-0.351	-0.245
-230.771	106.618	-0.134	0.156
-229.757	96.406	0.174	-0.196
-228.742	53.775	0.186	-0.175
-227.727	433.382	-0.137	0.292
-226.713	465.195	0.069	0.153
-225.698	-91.294	-0.129	-0.036
-224.684	-200.000	0.056	0.310
-223.669	-101.544	-0.274	-0.065
-222.655	352.884	0.075	0.147
-221.640	-91.941	-0.176	-0.049
-220.625	-200.000	-0.003	-0.097
-219.611	-126.647	-0.202	0.029
-218.596	-200.000	0.029	-0.298
-217.582	300.495	0.210	-0.380
-216.567	-2.890	0.101	0.069
-215.552	591.440	-0.108	-0.262
-214.538	55.588	0.104	-0.099
-213.523	252.449	0.200	0.335
-212.509	28.994	0.140	-0.117
-211.494	-98.407	0.029	-0.007
-210.479	-150.788	-0.241	0.018
-209.465	19.268	-0.228	-0.180
-208.450	146.878	0.147	-0.194
-207.436	-16.434	-0.262	-0.163
-206.421	-200.000	0.022	-0.202
-205.406	800.000	-0.090	0.297
-204.392	-200.000	-0.011	0.211
-203.377	-200.000	-0.071	0.328
-202.363	-108.194	0.186	0.039
-201.348	475.885	-0.042	0.094
-200.333	-200.000	0.011	-0.194
-199.319	97.937	0.392	-0.442
-198.304	90.016	0.125	0.138
-197.290	157.834	-0.250	0.340
-196.275	-132.345	0.318	-0.040
-195.260	-146.900	0.109	-0.009
-194.246	157.929	0.038	0.051
-193.231	-44.960	0.245	0.120
-192.217	-200.000	0.000	0.167
-191.202	-121.494	-0.236	-0.038
-190.187	202.160	0.092	0.139
-189.173	-14.339	0.217	0.137
-188.158	-51.987	-0.466	-0.213
-187.144	9.445	0.267	-0.199
-186.129	800.000	-0.093	0.314
-185.114	189.370	0.081	-0.120
-184.100	-20.762	-0.110	-0.066
-183.085	118.398	-0.113	0.137
-182.071	-200.000	-0.058	-0.272
-181.056	411.415	-0.053	-0.110
-180.042	-86.074	0.147	0.044
-179.027	25.803	-0.183	-0.150
-178.012	-179.633	0.237	-0.005
-176.998	257.160	-0.150	-0.254
-175.983	800.000	0.042	0.141
-174.969	-36.465	0.119	-0.063
-173.954	-45.805	-0.078	0.038
-172.939	-163.697	0.122	0.006
-171.925	800.000	0.086	0.234
-170.910	675.055	0.168	-0.428
-169.896	25.242	-0.116	-0.094
-168.881	286.161	-0.099	0.175
-167.866	165.785	0.128	0.177
-166.852	20.261	0.068	0.054
-165.837	-200.000	-0.021	-0.390
-164.823	800.000	0.086	0.256
-163.808	162.131	0.116	-0.159
-162.793	27.782	-0.161	0.133
-161.779	-90.012	0.181	0.052
-160.764	800.000	-0.021	-0.062
-159.750	-41.997	0.114	0.057
-158.735	-158.730	0.248	-0.014
-157.720	-50.479	-0.066	0.030
-156.706	-200.000	0.015	0.183
-155.691	475.151	0.179	-0.395
-154.677	800.000	-0.027	0.102
-153.662	103.497	-0.033	-0.038
-152.647	-12.305	-0.214	-0.137
-151.633	-73.912	-0.270	0.096
-150.618	620.014	0.114	-0.280
-149.604	739.218	-0.064	0.170
-148.589	101.892	0.047	-0.054
-147.574	-84.978	0.070	0.022
-146.560	-6.839	-0.175	0.116
-145.545	16.189	0.164	0.127
-144.531	-200.000	-0.099	-0.481
-143.516	153.135	-0.184	0.247
-142.502	92.967	-0.097	0.107
-141.487	354.941	-0.044	-0.086
-140.472	20.451	-0.205	0.162
-139.458	9.530	-0.277	0.206
-138.443	7.614	-0.110	-0.080
-137.429	800.000	-0.062	0.174
-136.414	800.000	-0.063	-0.253
-135.399	580.550	0.124	0.298
-134.385	-16.551	-0.085	0.053
-133.370	634.773	-0.134	0.332
-132.356	30.456	-0.205	-0.171
-131.341	68.444	0.158	-0.158
-130.326	3.244	-0.121	0.086
-129.312	-200.000	-0.012	-0.294
-128.297	-0.734	0.136	-0.095
-127.283	-168.054	0.190	-0.007
-126.268	-200.000	-0.092	-0.441
-125.253	27.866	-0.184	0.152
-124.239	-80.267	0.049	-0.016
-123.224	-200.000	-0.006	0.268
-122.210	-64.327	0.102	0.041
-121.195	46.052	0.253	-0.230
-120.180	-65.596	0.194	-0.076
-119.166	800.000	-0.018	-0.071
-118.151	-0.418	-0.073	0.051
-117.137	45.038	0.252	-0.227
-116.122	-200.000	0.026	0.260
-115.107	-87.593	0.187	-0.055
-114.093	219.094	0.140	0.219
-113.078	-125.026	0.274	-0.041
-112.064	-140.251	0.380	0.039
-111.049	182.044	-0.210	-0.302
-110.034	52.295	-0.134	-0.125
-109.020	-50.166	0.246	0.114
-108.005	-28.075	-0.199	-0.112
-106.991	312.542	-0.127	-0.234
-105.976	-89.266	0.210	0.061
-104.962	-200.000	0.014	0.115
-103.947	-200.000	0.010	-0.233
-102.932	-55.065	-0.186	-0.082
-101.918	-37.861	0.226	0.117
-100.903	-135.186	0.561	-0.066
-99.889	70.859	-0.157	0.159
-98.874	243.195	-0.047	0.076
-97.859	-138.070	0.096	0.010
-96.845	-200.000	0.010	0.189
-95.830	800.000	-0.061	0.246
-94.816	42.226	-0.120	0.107
-93.801	-106.047	-0.223	-0.049
-92.786	-39.673	-0.063	0.032
-91.772	158.182	0.060	0.081
-90.757	-135.789	-0.315	-0.036
-89.743	424.191	0.057	0.120
-88.728	-200.000	0.023	0.271
-87.713	-200.000	-0.055	0.272
-86.699	-76.538	0.169	0.058
-85.684	-45.299	-0.209	-0.101
-84.670	-187.913	-0.070	-0.001
-83.655	193.068	0.135	-0.200
-82.640	-200.000	-0.053	-0.310
-81.626	387.853	0.142	0.287
-80.611	-200.000	-0.031	0.299
-79.597	178.326	0.053	0.075
-78.582	591.956	-0.023	0.055
-77.567	320.526	0.173	0.321
-76.553	-200.000	0.011	-0.231
-75.538	248.893	0.078	-0.130
-74.524	-56.845	-0.172	-0.074
-73.509	-151.216	0.179	-0.013
-72.494	-23.214	0.486	0.286
-71.480	-67.115	-0.219	0.084
-70.465	-200.000	-0.009	0.115
-69.451	106.180	-0.356	0.412
-68.436	-104.677	-0.085	0.019
-67.422	-116.958	-0.175	0.031
-66.407	-200.000	0.001	-0.018
-65.392	235.558	0.024	0.038
-64.378	-135.652	-0.217	0.025
-63.363	601.775	0.085	-0.206
-62.349	-100.001	0.280	-0.068
-61.334	14.273	-1.323	-1.007
-60.319	152.705	0.582	0.776
-59.305	546.061	-0.545	-1.273
-58.290	219.336	0.844	1.318
-57.276	380.915	0.710	1.422
-56.261	-200.000	112.631	623.642
-55.246	471.226	1474.610	3239.298
-54.232	154.415	2630.906	3526.498
-53.217	100.105	2123.170	2403.631
-52.203	38.215	1576.195	1369.978
-51.188	30.673	1322.915	1105.189
-50.173	27.886	1284.241	1056.739
-49.159	51.537	1342.563	1245.616
-48.144	50.947	1356.009	1254.547
-47.130	30.750	1311.174	1095.659
-46.115	27.470	1293.012	1061.359
-45.100	27.270	1287.727	1055.821
-44.086	27.199	1285.367	1053.430
-43.071	27.163	1283.035	1051.270
-42.057	27.083	1281.214	1049.274
-41.042	27.266	1279.460	1048.855
-40.027	27.208	1277.667	1047.007
-39.013	27.092	1276.380	1045.243
-37.998	27.213	1274.405	1044.276
-36.984	27.283	1272.714	1043.253
-35.969	27.362	1270.610	1041.942
-34.954	27.385	1268.980	1040.692
-33.940	27.373	1267.840	1039.650
-32.925	27.369	1266.504	1038.487
-31.911	27.436	1264.596	1037.263
-30.896	27.331	1263.746	1035.927
-29.881	27.461	1262.192	1035.353
-28.867	27.502	1260.919	1034.498
-27.852	27.409	1259.573	1032.826
-26.838	27.435	1258.429	1031.994
-25.823	27.319	1257.303	1030.374
-24.809	27.430	1255.607	1029.571
-23.794	27.341	1254.556	1028.165
-22.779	27.349	1253.226	1027.079
-21.765	27.455	1251.812	1026.477
-20.750	27.404	1250.795	1025.316
-19.736	27.343	1249.102	1023.545
-18.721	27.222	1248.662	1022.461
-17.706	27.262	1247.268	1021.508
-16.692	27.388	1245.579	1020.788
-15.677	27.246	1245.128	1019.585
-14.663	27.280	1243.746	1018.602
-13.648	27.251	1242.994	1017.784
-12.633	27.341	1241.768	1017.242
-11.619	27.315	1241.231	1016.617
-10.604	27.282	1240.190	1015.541
-9.590	27.259	1238.960	1014.364
-8.575	27.309	1238.075	1013.878
-7.560	27.290	1237.238	1013.047
-6.546	27.287	1236.378	1012.284
-5.531	27.359	1235.300	1011.763
-4.517	27.336	1234.489	1010.928
-3.502	27.268	1234.190	1010.267
-2.487	27.247	1232.972	1009.114
-1.473	27.067	1228.646	1004.535
-0.458	25.101	1213.164	981.091
0.556	19.279	1195.639	939.005
1.571	15.147	1201.303	920.703
2.586	14.107	1216.292	926.318
3.600	13.967	1205.267	917.067
4.615	10.245	1135.362	844.418
5.629	3.664	1064.056	759.048
6.644	0.495	1045.826	730.651
7.659	0.085	1044.157	727.437
8.673	0.140	1042.792	726.687
9.688	0.052	1042.014	725.656
10.702	0.402	1039.107	725.250
11.717	4.316	1044.287	747.695
12.731	11.584	1053.516	789.464
13.746	16.090	1059.160	815.466
14.761	16.980	1059.466	819.930
15.775	16.031	1057.859	814.036
16.790	15.241	1055.214	808.117
17.804	14.402	1054.066	803.125
18.819	14.121	1053.208	801.047
19.834	13.862	1052.100	798.888
20.848	13.623	1051.045	796.867
21.863	13.421	1050.244	795.221
22.877	13.197	1049.629	793.605
23.892	13.171	1048.561	792.604
24.907	13.228	1048.487	792.751
25.921	13.324	1047.179	792.154
26.936	13.192	1046.966	791.290
27.950	13.240	1045.792	790.560
28.965	13.381	1044.179	789.943
29.980	13.345	1043.137	788.917
30.994	13.459	1042.527	788.928
32.009	13.497	1041.430	788.211
33.023	13.424	1040.558	787.132
34.038	13.358	1039.608	786.030
35.053	13.423	1038.640	785.539
36.067	13.356	1037.814	784.524
37.082	13.346	1036.961	783.764
38.096	13.445	1036.457	783.784
39.111	13.313	1035.886	782.654
40.126	13.364	1034.346	781.662
41.140	13.272	1033.094	780.215
42.155	13.170	1032.012	778.850
43.169	13.159	1030.822	777.831
44.184	13.062	1030.155	776.799
45.199	13.070	1029.385	776.191
46.213	13.160	1028.310	775.732
47.228	13.335	1026.845	775.379
48.242	13.408	1025.698	774.784
49.257	13.323	1025.298	774.016
50.271	13.367	1024.481	773.538
51.286	13.337	1023.725	772.757
52.301	13.250	1022.450	771.324
53.315	13.236	1021.764	770.671
54.330	13.269	1020.647	769.915
55.344	13.317	1019.724	769.374
56.359	13.215	1019.135	768.388
57.374	13.285	1017.800	767.636
58.388	13.270	1017.031	766.920
59.403	13.245	1016.339	766.213
60.417	13.245	1015.210	765.297
61.432	13.173	1015.078	764.794
62.447	13.126	1014.155	763.814
63.461	13.200	1013.346	763.481
64.476	13.041	1012.752	762.227
65.490	13.072	1011.695	761.510
66.505	13.165	1011.324	761.593
67.520	13.150	1010.566	760.885
68.534	13.222	1009.457	760.312
69.549	13.258	1009.004	760.069
70.563	13.255	1007.997	759.233
71.578	13.202	1007.561	758.590
72.593	12.992	1007.386	757.427
73.607	13.117	1005.986	756.884
74.622	13.065	1006.123	756.680
75.636	13.272	1004.268	756.163
76.651	13.092	1003.963	755.044
77.666	13.088	1003.646	754.721
78.680	13.079	1003.107	754.207
79.695	13.111	1002.372	753.737
80.709	13.117	1001.616	753.129
81.724	13.221	1000.892	752.989
82.739	13.248	999.943	752.333
83.753	13.294	999.309	751.998
84.768	13.391	998.250	751.577
85.782	13.404	997.051	750.664
86.797	13.362	996.860	750.266
87.812	13.316	995.763	749.167
88.826	13.218	994.793	747.923
89.841	13.315	994.081	747.762
90.855	13.308	992.971	746.829
91.870	13.396	992.452	746.770
92.884	13.486	991.122	746.110
93.899	13.444	990.582	745.446
94.914	13.523	989.677	745.058
95.928	13.482	988.811	744.154
96.943	13.510	987.635	743.329
97.957	13.372	986.982	742.154
98.972	13.361	986.223	741.467
99.987	13.406	985.684	741.196
101.001	13.365	984.329	739.931
102.016	13.520	983.279	739.765
103.030	13.443	982.800	738.998
104.045	13.409	982.042	738.211
105.060	13.416	981.458	737.736
106.074	13.341	980.152	736.358
107.089	13.336	979.107	735.483
108.103	13.368	977.973	734.711
109.118	13.294	977.275	733.793
110.133	13.221	976.460	732.792
111.147	13.336	975.579	732.572
112.162	13.297	975.140	732.007
113.176	13.327	974.259	731.416
114.191	13.340	973.718	731.002
115.206	13.358	973.031	730.498
116.220	13.326	972.046	729.555
117.235	13.258	971.362	728.676
118.249	13.237	970.899	728.173
119.264	13.353	969.737	727.747
120.279	13.287	968.800	726.690
121.293	13.320	967.861	726.067
122.308	13.291	967.228	725.398
123.322	13.420	965.649	724.714
124.337	13.303	965.074	723.710
125.352	13.321	963.980	722.904
126.366	13.240	963.130	721.847
127.381	13.171	962.262	720.831
128.395	13.323	960.941	720.443
129.410	13.328	959.830	719.568
130.424	13.314	959.329	719.065
131.439	13.335	958.730	718.644
132.454	13.397	957.777	718.134
133.468	13.282	956.901	716.914
134.483	13.386	956.126	716.725
135.497	13.439	955.050	716.084
136.512	13.397	954.739	715.603
137.527	13.247	953.868	714.241
138.541	13.459	952.987	714.431
139.556	13.401	952.604	713.831
140.570	13.428	951.547	713.092
141.585	13.400	951.124	712.592
142.600	13.473	950.062	712.049
143.614	13.519	949.306	711.616
144.629	13.643	948.170	711.234
145.643	13.738	947.007	710.705
146.658	13.655	946.139	709.637
147.673	13.466	945.726	708.452
148.687	13.681	944.399	708.314
149.702	13.487	944.038	707.153
150.716	13.494	942.969	706.323
151.731	13.409	942.154	705.286
152.746	13.573	941.494	705.429
153.760	13.428	941.268	704.580
154.775	13.550	940.945	704.795
155.789	13.643	940.188	704.560
156.804	13.607	939.107	703.535
157.819	13.807	938.128	703.588
158.833	13.761	937.842	703.114
159.848	13.871	937.072	702.939
160.862	13.637	936.238	701.263
161.877	13.722	934.814	700.496
162.892	13.603	934.740	699.872
163.906	13.630	933.453	698.960
164.921	13.649	932.516	698.278
165.935	13.635	931.779	697.607
166.950	13.704	930.798	697.099
167.964	13.752	930.088	696.708
168.979	13.675	928.875	695.414
169.994	13.712	928.411	695.159
171.008	13.718	927.699	694.593
172.023	13.796	926.904	694.262
173.037	13.744	926.473	693.658
174.052	13.749	925.432	692.841
175.067	13.629	925.356	692.222
176.081	13.685	924.246	691.562
177.096	13.762	924.003	691.641
178.110	13.676	923.346	690.730
179.125	13.747	922.700	690.479
180.140	13.781	922.220	690.202
181.154	13.904	922.114	690.573
182.169	13.813	921.401	689.600
183.183	13.794	920.665	688.906
184.198	13.979	919.756	688.934
185.213	13.977	919.154	688.414
186.227	14.015	918.596	688.093
187.242	13.952	918.141	687.429
188.256	13.936	917.178	686.584
189.271	13.921	916.719	686.117
190.286	13.857	915.579	684.940
191.300	13.873	914.884	684.422
192.315	13.780	914.246	683.501
193.329	13.786	913.680	683.043
194.344	13.879	912.988	682.846
195.359	14.127	912.266	683.268
196.373	14.049	911.735	682.489
197.388	13.974	911.594	682.014
198.402	14.090	911.305	682.213
199.417	14.267	910.003	681.903
200.432	14.270	909.946	681.812
201.446	14.240	909.115	681.007
202.461	14.200	908.712	680.481
203.475	14.171	908.580	680.204
204.490	14.104	907.626	679.158
205.504	14.153	906.597	678.525
206.519	14.125	906.054	677.947
207.534	14.253	905.054	677.659
208.548	14.251	904.469	677.153
209.563	14.312	903.760	676.811
210.577	14.318	903.513	676.588
211.592	14.423	902.551	676.235
212.607	14.297	902.070	675.304
213.621	14.419	901.172	675.067
214.636	14.297	900.953	674.349
215.650	14.368	899.782	673.698
216.665	14.317	899.381	673.132
217.680	14.434	898.979	673.245
218.694	14.394	898.074	672.346
219.709	14.420	897.451	671.927
220.723	14.482	896.815	671.639
221.738	14.309	896.616	670.735
222.753	14.484	895.194	670.313
223.767	14.531	894.622	670.014
224.782	14.486	894.345	669.570
225.796	14.450	894.263	669.305
226.811	14.477	893.486	668.772
227.826	14.508	892.576	668.154
228.840	14.499	891.387	667.171
229.855	14.590	890.811	667.046
230.869	14.699	889.840	666.693
231.884	14.528	889.655	665.812
232.899	14.707	888.527	665.624
233.913	14.517	888.298	664.636
234.928	14.563	887.296	664.010
235.942	14.451	887.053	663.324
236.957	14.488	886.439	662.953
237.972	14.587	886.180	663.094
238.986	14.595	885.119	662.273
240.001	14.683	884.639	662.204
241.015	14.603	884.172	661.481
242.030	14.704	883.305	661.170
243.045	14.652	882.504	660.309
244.059	14.629	882.227	659.952
245.074	14.752	881.485	659.824
246.088	14.794	880.763	659.390
247.103	14.738	880.089	658.606
248.117	14.690	879.715	658.081
249.132	14.765	879.487	658.145
250.147	14.858	878.588	657.783
251.161	15.033	877.529	657.617
252.176	15.111	876.806	657.325
253.190	14.874	877.107	656.560
254.205	14.938	876.300	656.151
255.220	15.074	875.338	655.904
256.234	15.084	874.994	655.629
257.249	15.034	874.454	654.972
258.263	15.180	873.442	654.726
259.278	15.288	872.238	654.187
260.293	15.270	871.841	653.761
261.307	15.076	871.864	652.964
262.322	15.160	871.034	652.610
263.336	15.248	869.813	651.980
264.351	15.227	869.598	651.680
265.366	15.310	868.651	651.236
266.380	15.248	868.219	650.611
267.395	15.240	867.407	649.917
268.409	15.120	867.138	649.191
269.424	15.178	866.439	648.837
270.439	15.206	865.439	648.136
271.453	15.369	864.671	648.133
272.468	15.225	864.340	647.271
273.482	15.272	863.780	646.977
274.497	15.385	862.899	646.698
275.512	15.388	862.419	646.292
276.526	15.262	862.143	645.543
277.541	15.298	861.969	645.493
278.555	15.482	860.875	645.325
279.570	15.420	860.190	644.514
280.585	15.347	859.775	643.865
281.599	15.381	858.991	643.354
282.614	15.292	858.497	642.586
283.628	15.562	857.219	642.605
284.643	15.553	856.832	642.224
285.657	15.479	856.302	641.485
286.672	15.470	855.867	641.070
287.687	15.615	855.075	640.972
288.701	15.533	854.735	640.349
289.716	15.569	854.180	640.013
290.730	15.496	853.818	639.406
291.745	15.506	853.034	638.802
292.760	15.622	852.373	638.690
293.774	15.609	851.832	638.178
294.789	15.578	850.749	637.194
295.803	15.546	850.587	636.895
296.818	15.656	849.735	636.618
297.833	15.737	848.793	636.161
298.847	15.648	848.587	635.615
299.862	15.724	847.999	635.407
300.876	15.717	847.655	635.066
301.891	15.660	846.838	634.182
302.906	15.726	845.967	633.723
303.920	15.867	845.622	633.937
304.935	15.975	845.094	633.891
305.949	15.956	844.137	633.046
306.964	15.801	844.068	632.356
307.979	15.973	843.013	632.157
308.993	16.008	842.789	632.065
310.008	15.912	842.363	631.328
311.022	16.023	841.159	630.787
312.037	15.775	841.325	629.926
313.052	15.735	840.558	629.146
314.066	15.837	840.091	629.124
315.081	15.880	839.169	628.537
316.095	15.720	838.997	627.754
317.110	15.912	838.248	627.855
318.125	16.014	837.769	627.819
319.139	15.923	837.471	627.204
320.154	15.872	836.824	626.473
321.168	16.024	836.165	626.490
322.183	15.969	835.525	625.748
323.197	16.099	835.185	625.922
324.212	16.054	834.576	625.243
325.227	16.073	833.984	624.815
326.241	15.880	833.678	623.815
327.256	15.945	833.417	623.805
328.270	15.966	832.658	623.262
329.285	16.078	831.578	622.812
330.300	16.054	831.217	622.396
331.314	16.059	830.859	622.091
332.329	16.151	830.091	621.800
333.343	16.230	829.786	621.809
334.358	16.135	829.612	621.275
335.373	16.092	829.483	620.962
336.387	16.126	828.894	620.594
337.402	16.230	828.647	620.734
338.416	16.185	828.514	620.415
339.431	16.330	827.760	620.329
340.446	16.400	827.487	620.326
341.460	16.429	826.873	619.919
342.475	16.243	826.795	619.120
343.489	16.442	826.278	619.410
344.504	16.543	825.548	619.179
345.519	16.341	825.177	618.106
346.533	16.479	824.780	618.258
347.548	16.519	824.219	617.929
348.562	16.441	823.777	617.257
349.577	16.368	823.488	616.720
350.592	16.262	822.598	615.612
351.606	16.415	822.150	615.779
352.621	16.402	821.708	615.348
353.635	16.480	820.762	614.866
354.650	16.459	820.068	614.216
355.665	16.579	819.323	614.041
356.679	16.598	818.741	613.618
357.694	16.629	818.174	613.250
358.708	16.453	817.236	611.859
359.723	16.531	817.150	612.020
360.738	16.603	816.257	611.559
361.752	16.553	815.978	611.114
362.767	16.616	815.221	610.722
363.781	16.698	815.087	610.862
364.796	16.689	814.473	610.315
365.810	16.979	813.390	610.495
366.825	16.651	813.331	609.217
367.840	16.756	813.239	609.471
368.854	16.813	812.659	609.188
369.869	16.911	811.935	608.941
370.883	16.879	811.882	608.735
371.898	16.715	812.285	608.393
372.913	16.939	810.974	608.161
373.927	16.932	810.313	607.585
374.942	16.891	810.100	607.224
375.956	17.143	809.611	607.708
376.971	16.889	809.447	606.621
377.986	17.131	808.576	606.781
379.000	17.014	808.300	606.101
380.015	17.039	807.831	605.786
381.029	17.036	807.531	605.497
382.044	16.915	806.819	604.478
383.059	17.253	805.922	604.957
384.073	17.152	805.564	604.272
385.088	16.986	805.343	603.464
386.102	16.993	804.606	602.884
387.117	17.191	803.672	602.834
388.132	17.144	803.181	602.244
389.146	17.205	802.926	602.217
390.161	17.125	802.760	601.757
391.175	17.214	801.995	601.444
392.190	17.151	801.441	600.752
393.205	17.102	801.014	600.204
394.219	17.024	800.784	599.702
395.234	17.147	800.363	599.770
396.248	17.135	800.026	599.423
397.263	17.176	799.391	599.038
398.278	17.060	798.789	598.123
399.292	17.268	798.317	598.450
400.307	17.145	798.262	597.923
401.321	17.220	797.653	597.678
402.336	17.492	796.721	597.882
403.350	17.323	796.585	597.133
404.365	17.390	796.110	596.959
405.380	17.488	795.783	597.006
406.394	17.472	794.771	596.138
407.409	17.424	794.959	596.060
408.423	17.353	794.297	595.260
409.438	17.414	794.211	595.356
410.453	17.451	793.798	595.123
411.467	17.416	793.363	594.624
412.482	17.346	793.262	594.249
413.496	17.463	792.499	594.036
414.511	17.541	792.125	593.973
415.526	17.626	791.505	593.750
416.540	17.656	791.256	593.619
417.555	17.630	790.556	592.948
418.569	17.787	790.270	593.228
419.584	17.679	789.839	592.475
420.599	17.720	789.492	592.305
421.613	112.832	1295.265	1479.410
422.628	96.953	1368.936	1479.515
