DTS Sentinel unit serial number:	SN413079Multiplexer serial number:	ORYXHardware model number:	OX4-SRSoftware version number:	ORYX F/W v4.00 Oryx Data Collector v3.7.2.0data status	okinstallation	princeton_trtdifferential loss correction	single-endedforward channel	channel 1reverse channel	N/Adate	2019/09/15time	14:58:35forward acquisition time	60.00reverse acquisition time	0.00gamma	496.2192k internal	0.2292k external	0.2292temperature offset calibration	0.9951default loss term (dB/km)	0.3790temperature slope calibration	1.0000multiplexer offset coefficient	1.0000multiplexer slope coefficient	1.0000fibre end	0.00T internal ref (°C)	40.12T ext. ref 1 (°C)	4.89T ext. ref 2 (°C)	37.55length (m)	temperature (°C)	Stokes	anti-Stokes-747.200	3.881	0.247	0.184
-746.185	45.524	-0.255	0.241
-745.171	800.000	-0.087	0.313
-744.156	366.046	0.274	0.565
-743.142	-200.000	0.000	0.234
-742.127	-200.000	0.061	0.535
-741.112	800.000	0.066	0.276
-740.098	800.000	-0.177	0.625
-739.083	-200.000	0.040	0.304
-738.069	-0.070	-0.190	0.138
-737.054	123.289	0.124	0.160
-736.039	72.400	-0.246	-0.263
-735.025	-200.000	-0.030	0.240
-734.010	-200.000	0.058	0.348
-732.996	30.521	-0.185	-0.161
-731.981	-11.608	-0.237	-0.159
-730.966	-9.966	-0.215	0.146
-729.952	-188.392	-0.400	-0.005
-728.937	-200.000	0.061	0.327
-727.923	-51.726	-0.188	-0.090
-726.908	115.516	-0.136	0.170
-725.894	178.600	-0.241	-0.361
-724.879	-200.000	-0.023	-0.139
-723.864	77.255	-0.080	-0.087
-722.850	225.009	-0.081	0.135
-721.835	-68.948	-0.230	-0.091
-720.821	174.460	-0.128	-0.190
-719.806	-112.602	-0.086	0.017
-718.791	5.886	-0.352	0.266
-717.777	32.494	0.206	0.182
-716.762	-139.117	-0.469	0.052
-715.748	-63.864	0.071	-0.029
-714.733	-144.067	-0.156	-0.015
-713.718	-17.185	-0.281	-0.181
-712.704	16.415	0.396	0.320
-711.689	800.000	0.022	0.071
-710.675	12.516	0.074	0.058
-709.660	204.129	0.020	0.032
-708.645	-94.326	-0.275	-0.077
-707.631	85.428	-0.159	-0.179
-706.616	138.739	-0.221	-0.296
-705.602	-41.094	0.084	-0.045
-704.587	-200.000	-0.059	0.285
-703.572	-200.000	0.042	0.294
-702.558	32.061	-0.147	0.129
-701.543	-200.000	0.029	0.132
-700.529	-4.634	0.180	-0.127
-699.514	800.000	0.073	0.217
-698.499	379.666	0.078	0.163
-697.485	329.137	0.095	0.186
-696.470	51.865	-0.106	-0.103
-695.456	-187.729	-0.447	0.006
-694.441	251.844	0.217	0.378
-693.426	-112.060	-0.172	-0.035
-692.412	-200.000	-0.039	-0.190
-691.397	607.895	0.129	-0.328
-690.383	799.991	0.128	-0.362
-689.368	-200.000	-0.003	0.295
-688.354	61.240	-0.136	-0.138
-687.339	-14.079	-0.186	0.123
-686.324	482.557	0.097	-0.226
-685.310	-187.950	-0.330	0.004
-684.295	610.739	-0.151	-0.386
-683.281	-1.757	-0.218	0.156
-682.266	-1.876	0.122	0.088
-681.251	-155.754	-0.515	-0.034
-680.237	37.624	-0.178	0.161
-679.222	-200.000	0.025	0.128
-678.208	95.340	-0.031	0.037
-677.193	-200.000	-0.027	0.277
-676.178	-94.688	0.179	0.050
-675.164	690.128	0.116	0.309
-674.149	-24.888	-0.108	0.065
-673.135	-174.383	0.205	-0.006
-672.120	191.754	-0.090	-0.139
-671.105	242.267	0.141	0.241
-670.091	37.144	0.072	-0.065
-669.076	-147.021	0.165	0.014
-668.062	-117.484	0.079	0.015
-667.047	651.202	0.126	-0.328
-666.032	-200.000	0.021	-0.250
-665.018	800.000	0.091	-0.274
-664.003	-200.000	-0.066	-0.391
-662.989	132.958	-0.212	0.279
-661.974	-58.180	-0.216	0.096
-660.959	13.857	-0.226	-0.180
-659.945	67.030	0.055	0.057
-658.930	188.122	0.039	0.059
-657.916	-166.175	0.584	0.025
-656.901	-57.135	0.228	-0.103
-655.886	10.705	0.326	0.253
-654.872	-200.000	0.001	0.164
-653.857	-200.000	0.041	0.292
-652.843	-200.000	-0.009	0.184
-651.828	-200.000	0.005	0.091
-650.814	-26.946	-0.369	-0.219
-649.799	-112.075	0.113	0.023
-648.784	686.951	-0.042	0.112
-647.770	366.800	-0.046	-0.095
-646.755	160.360	-0.143	-0.204
-645.741	45.917	-0.355	-0.335
-644.726	-200.000	0.018	-0.104
-643.711	-200.000	0.034	-0.152
-642.697	60.341	0.183	-0.185
-641.682	-200.000	0.004	-0.183
-640.668	800.000	0.021	-0.082
-639.653	28.143	0.105	-0.090
-638.638	142.220	-0.121	0.164
-637.624	-113.513	-0.116	-0.023
-636.609	-74.206	-0.099	-0.036
-635.595	-46.954	0.242	-0.120
-634.580	-34.958	0.258	0.144
-633.565	-181.190	0.029	-0.001
-632.551	-200.000	0.016	-0.499
-631.536	67.087	0.221	-0.229
-630.522	381.213	0.076	0.160
-629.507	190.561	0.184	0.281
-628.492	-122.434	-0.196	0.033
-627.478	-88.280	-0.348	0.106
-626.463	348.971	0.112	0.225
-625.449	-87.890	-0.355	0.109
-624.434	-103.487	0.148	-0.035
-623.419	-175.237	0.133	0.004
-622.405	259.658	-0.134	-0.236
-621.390	-200.000	-0.051	-0.227
-620.376	800.000	-0.073	-0.237
-619.361	-90.251	-0.172	0.051
-618.346	800.000	-0.059	-0.174
-617.332	-118.017	-0.157	0.029
-616.317	35.635	0.282	0.253
-615.303	-8.837	0.339	-0.231
-614.288	-7.308	-0.167	-0.115
-613.273	-154.988	0.060	0.004
-612.259	676.315	-0.076	-0.200
-611.244	-145.167	-0.476	0.044
-610.230	-90.698	-0.306	0.090
-609.215	-128.933	0.227	-0.033
-608.201	121.541	-0.101	-0.128
-607.186	401.000	0.131	-0.280
-606.171	2.492	0.214	-0.158
-605.157	-105.858	-0.377	-0.087
-604.142	110.042	-0.091	-0.111
-603.128	6.800	0.095	-0.072
-602.113	16.182	0.152	0.122
-601.098	800.000	0.044	-0.128
-600.084	77.382	-0.029	-0.032
-599.069	26.180	-0.086	-0.073
-598.055	-79.076	0.105	0.036
-597.040	-200.000	0.059	0.297
-596.025	338.402	0.077	0.152
-595.011	42.659	0.257	0.239
-593.996	-200.000	0.014	0.203
-592.982	703.237	0.079	-0.211
-591.967	101.401	0.102	0.121
-590.952	-61.795	-0.370	0.158
-589.938	800.000	0.047	0.147
-588.923	77.761	0.111	0.120
-587.909	-185.041	0.162	0.003
-586.894	-200.000	-0.030	0.160
-585.879	-143.527	-0.396	-0.038
-584.865	-33.147	0.132	0.075
-583.850	800.000	-0.086	0.271
-582.836	17.541	0.145	-0.118
-581.821	-200.000	0.053	-0.315
-580.806	65.941	-0.291	0.300
-579.792	-138.298	0.083	-0.009
-578.777	-200.000	-0.000	-0.208
-577.763	246.456	0.162	-0.278
-576.748	33.875	-0.079	0.070
-575.733	33.829	0.080	0.071
-574.719	-200.000	0.013	0.165
-573.704	-59.559	-0.446	0.195
-572.690	78.229	0.322	0.349
-571.675	36.993	-0.078	0.070
-570.661	-27.769	0.180	-0.106
-569.646	764.841	-0.123	0.340
-568.631	92.243	-0.190	-0.218
-567.617	502.661	0.101	-0.238
-566.602	7.359	0.347	-0.264
-565.588	237.673	0.027	-0.045
-564.573	800.000	0.096	-0.303
-563.558	124.251	0.097	-0.124
-562.544	94.967	-0.190	0.220
-561.529	-136.861	0.279	0.033
-560.515	133.699	0.136	-0.179
-559.500	-45.598	-0.210	0.106
-558.485	90.464	0.265	0.302
-557.471	-51.101	0.292	-0.139
-556.456	38.306	-0.187	-0.169
-555.442	85.624	0.256	-0.286
-554.427	-136.289	0.121	-0.014
-553.412	206.702	0.119	0.189
-552.398	29.084	-0.078	-0.067
-551.383	249.146	-0.245	-0.422
-550.369	-200.000	-0.014	-0.207
-549.354	795.672	0.016	0.044
-548.339	47.048	0.285	-0.269
-547.325	-200.000	-0.037	-0.228
-546.310	1.001	-0.275	-0.201
-545.296	158.951	0.066	-0.093
-544.281	10.212	-0.261	-0.201
-543.266	796.455	-0.043	0.121
-542.252	63.000	0.155	0.158
-541.237	37.101	-0.201	-0.181
-540.223	345.380	-0.081	0.162
-539.208	-190.362	0.153	0.002
-538.193	-200.000	0.072	-0.328
-537.179	42.670	-0.187	0.173
-536.164	501.703	-0.043	0.100
-535.150	251.342	-0.107	-0.185
-534.135	-86.827	0.246	0.076
-533.121	-159.447	0.022	0.001
-532.106	-81.155	-0.143	-0.048
-531.091	117.190	0.024	0.031
-530.077	233.480	-0.076	-0.127
-529.062	-17.215	-0.303	-0.194
-528.048	-91.219	0.149	-0.043
-527.033	467.270	0.154	-0.350
-526.018	307.894	-0.129	0.244
-525.004	-200.000	-0.162	-0.000
-523.989	800.000	0.060	0.225
-522.975	-115.178	0.270	-0.052
-521.960	-106.782	-0.259	-0.058
-520.945	670.620	-0.022	-0.057
-519.931	375.389	-0.039	0.081
-518.916	-123.615	-0.147	-0.024
-517.902	-26.267	0.187	0.111
-516.887	86.982	-0.198	0.222
-515.872	800.000	-0.076	-0.249
-514.858	-45.496	0.128	-0.065
-513.843	538.199	0.123	-0.296
-512.829	96.774	-0.175	-0.204
-511.814	-144.615	0.306	-0.029
-510.799	-56.051	-0.272	0.123
-509.785	-85.227	-0.150	-0.048
-508.770	-97.230	-0.063	-0.017
-507.756	-200.000	-0.047	-0.259
-506.741	142.793	-0.015	-0.020
-505.726	193.914	0.059	0.091
-504.712	-28.860	-0.128	0.074
-503.697	18.606	0.028	0.023
-502.683	561.508	-0.084	-0.206
-501.668	318.717	-0.128	-0.246
-500.653	224.151	0.123	-0.201
-499.639	-155.066	0.478	-0.032
-498.624	-111.221	0.320	0.066
-497.610	-109.329	0.248	0.053
-496.595	286.499	-0.064	-0.117
-495.581	7.712	0.112	-0.085
-494.566	489.675	-0.033	-0.077
-493.551	-147.406	0.126	-0.011
-492.537	221.487	0.016	-0.027
-491.522	437.883	0.086	0.189
-490.508	-200.000	-0.073	-0.385
-489.493	322.063	-0.034	-0.065
-488.478	-78.085	0.134	-0.047
-487.464	800.000	0.039	0.134
-486.449	-200.000	0.031	0.162
-485.435	800.000	-0.108	-0.478
-484.420	16.471	-0.167	0.134
-483.405	800.000	0.050	-0.155
-482.391	800.000	-0.032	-0.138
-481.376	-34.108	-0.123	-0.069
-480.362	481.412	-0.055	-0.128
-479.347	-24.910	-0.329	0.198
-478.332	-200.000	-0.037	-0.299
-477.318	99.372	-0.078	-0.092
-476.303	145.199	0.042	0.057
-475.289	-200.000	0.019	-0.201
-474.274	-200.000	0.011	0.145
-473.259	-200.000	-0.025	-0.483
-472.245	-87.412	0.209	-0.064
-471.230	-200.000	-0.016	-0.085
-470.216	370.134	-0.074	0.152
-469.201	131.673	-0.115	0.149
-468.186	800.000	-0.054	-0.218
-467.172	-25.584	0.097	0.058
-466.157	-51.534	0.097	-0.046
-465.143	-200.000	0.020	0.140
-464.128	-31.676	-0.229	-0.130
-463.113	-110.906	0.161	0.033
-462.099	-200.000	-0.021	-0.208
-461.084	-146.129	-0.170	0.015
-460.070	-200.000	-0.024	-0.129
-459.055	55.254	-0.101	0.099
-458.040	5.621	0.011	-0.008
-457.026	38.719	0.275	-0.248
-456.011	-200.000	-0.034	-0.163
-454.997	-200.000	0.012	-0.462
-453.982	-91.184	-0.235	-0.068
-452.968	-129.483	0.328	0.046
-451.953	759.250	-0.079	0.216
-450.938	99.516	0.106	0.124
-449.924	-110.647	0.046	0.010
-448.909	-53.073	-0.084	-0.039
-447.895	-200.000	0.007	0.081
-446.880	800.000	0.055	0.205
-445.865	533.669	-0.097	-0.232
-444.851	250.705	-0.087	-0.150
-443.836	-200.000	0.001	0.009
-442.822	242.838	-0.083	-0.141
-441.807	-113.210	-0.121	-0.024
-440.792	94.884	-0.122	-0.141
-439.778	85.389	0.246	0.273
-438.763	-200.000	0.051	0.250
-437.749	601.308	-0.030	0.076
-436.734	322.015	0.097	-0.187
-435.719	23.267	-0.080	0.066
-434.705	-14.214	-0.302	0.197
-433.690	-200.000	0.009	-0.051
-432.676	278.516	0.035	0.064
-431.661	-12.152	0.088	-0.058
-430.646	654.391	0.081	0.211
-429.632	405.622	-0.123	-0.262
-428.617	800.000	0.079	0.316
-427.603	33.120	0.160	0.140
-426.588	159.572	0.103	0.145
-425.573	-37.309	0.019	-0.010
-424.559	-200.000	0.010	-0.064
-423.544	-200.000	-0.030	0.258
-422.530	-200.000	0.057	-0.254
-421.515	-21.042	-0.041	-0.025
-420.500	136.435	0.197	0.260
-419.486	-153.970	-0.242	0.017
-418.471	127.854	-0.146	0.188
-417.457	479.280	0.117	-0.268
-416.442	800.000	0.063	0.250
-415.428	231.603	-0.076	0.126
-414.413	800.000	-0.081	-0.342
-413.398	72.126	0.191	-0.201
-412.384	322.432	-0.116	-0.223
-411.369	-60.424	-0.187	0.080
-410.355	-108.554	0.358	-0.078
-409.340	-81.528	-0.496	0.165
-408.325	36.255	-0.144	-0.128
-407.311	12.870	-0.136	0.106
-406.296	-43.051	-0.089	0.046
-405.282	-50.826	-0.351	-0.167
-404.267	-42.471	-0.033	0.017
-403.252	480.262	-0.105	-0.240
-402.238	329.651	-0.102	-0.197
-401.223	-200.000	-0.079	-0.507
-400.209	508.402	-0.096	0.224
-399.194	-12.177	-0.376	-0.249
-398.179	8.568	0.171	0.130
-397.165	336.102	-0.143	-0.281
-396.150	6.071	0.103	-0.077
-395.136	-19.113	0.111	0.070
-394.121	-148.928	-0.016	-0.001
-393.106	79.108	-0.216	-0.233
-392.092	-200.000	0.021	-0.249
-391.077	15.655	0.201	-0.159
-390.063	-200.000	-0.043	-0.203
-389.048	-200.000	0.006	0.059
-388.033	-200.000	0.091	0.561
-387.019	-122.978	0.287	0.047
-386.004	174.304	-0.202	-0.295
-384.990	-200.000	0.087	0.413
-383.975	800.000	0.074	0.237
-382.960	-14.116	-0.170	0.111
-381.946	-200.000	-0.055	0.262
-380.931	-200.000	-0.002	0.237
-379.917	-34.764	-0.080	0.044
-378.902	-13.273	0.208	-0.136
-377.888	-200.000	-0.027	-0.175
-376.873	1.663	0.238	0.173
-375.858	-149.468	-0.366	0.029
-374.844	90.790	0.217	0.245
-373.829	-200.000	0.011	0.167
-372.815	-71.552	-0.179	0.067
-371.800	57.456	-0.016	-0.016
-370.785	800.000	0.036	0.103
-369.771	630.910	-0.096	-0.246
-368.756	-35.922	0.200	0.109
-367.742	374.580	0.120	-0.247
-366.727	88.731	0.123	0.138
-365.712	65.968	-0.100	-0.102
-364.698	-63.406	0.142	0.059
-363.683	51.105	0.067	-0.064
-362.669	-131.104	0.029	0.004
-361.654	38.107	0.164	0.147
-360.639	76.904	-0.280	-0.300
-359.625	-183.945	0.360	0.006
-358.610	-121.680	0.300	0.050
-357.596	-200.000	-0.023	-0.164
-356.581	118.773	-0.057	0.071
-355.566	309.298	-0.154	0.290
-354.552	-82.808	0.206	0.067
-353.537	-78.600	-0.281	-0.097
-352.523	66.967	0.065	0.067
-351.508	565.784	-0.116	0.283
-350.493	69.259	-0.243	-0.252
-349.479	-14.931	-0.236	0.152
-348.464	302.030	-0.083	0.155
-347.450	86.092	-0.104	0.115
-346.435	-65.479	-0.413	-0.167
-345.420	-24.807	-0.180	-0.108
-344.406	310.593	0.059	0.111
-343.391	-133.504	0.108	0.014
-342.377	322.958	0.045	0.086
-341.362	-200.000	0.014	-0.152
-340.348	92.557	-0.009	-0.010
-339.333	-199.321	-0.305	-0.002
-338.318	33.233	-0.257	-0.224
-337.304	-200.000	0.015	-0.297
-336.289	-66.076	0.497	0.200
-335.275	325.066	-0.054	-0.104
-334.260	107.186	0.193	-0.232
-333.245	324.410	-0.056	0.108
-332.231	27.328	-0.036	0.030
-331.216	476.361	0.069	0.157
-330.202	-112.486	0.253	-0.051
-329.187	-200.000	0.018	0.152
-328.172	-167.214	-0.246	0.010
-327.158	-161.580	0.264	-0.014
-326.143	115.252	-0.132	0.162
-325.129	18.891	0.201	0.162
-324.114	-82.904	0.305	0.099
-323.099	395.718	0.068	-0.142
-322.085	-132.070	0.227	0.030
-321.070	5.603	-0.245	-0.182
-320.056	71.560	0.185	-0.194
-319.041	-103.408	0.428	-0.102
-318.026	278.837	-0.118	-0.211
-317.012	88.753	-0.185	0.207
-315.997	-106.294	0.122	0.028
-314.983	88.473	0.176	-0.197
-313.968	-26.721	0.224	0.132
-312.953	-96.685	0.206	-0.055
-311.939	-5.348	-0.245	-0.169
-310.924	-28.601	-0.303	-0.176
-309.910	318.746	0.059	0.112
-308.895	800.000	-0.138	-0.508
-307.880	800.000	0.063	-0.252
-306.866	800.000	0.080	0.259
-305.851	-16.916	-0.145	-0.092
-304.837	564.417	-0.081	0.199
-303.822	-24.999	-0.204	0.122
-302.807	224.976	0.140	0.227
-301.793	-200.000	-0.021	0.165
-300.778	-115.205	0.299	-0.057
-299.764	152.019	0.152	0.209
-298.749	16.825	0.376	-0.300
-297.735	161.820	0.249	0.351
-296.720	485.451	-0.098	-0.225
-295.705	-200.000	-0.016	0.106
-294.691	-200.000	-0.039	0.253
-293.676	-200.000	-0.032	0.158
-292.662	-200.000	-0.006	-0.033
-291.647	-200.000	0.010	0.062
-290.632	274.964	-0.105	0.187
-289.618	-104.256	0.336	-0.078
-288.603	-159.519	-0.305	-0.017
-287.589	-61.179	0.171	0.072
-286.574	253.898	0.060	0.103
-285.559	-200.000	0.027	-0.398
-284.545	-200.000	-0.009	-0.067
-283.530	-200.000	-0.013	0.066
-282.516	-30.812	-0.379	0.215
-281.501	-200.000	0.001	-0.031
-280.486	-57.330	0.156	-0.069
-279.472	-33.850	0.295	0.163
-278.457	501.588	0.062	0.144
-277.443	-200.000	0.040	0.237
-276.428	-200.000	0.027	0.257
-275.413	800.000	0.068	0.251
-274.399	249.356	-0.099	-0.168
-273.384	800.000	0.027	-0.091
-272.370	-92.838	-0.050	0.014
-271.355	-31.176	0.155	0.088
-270.340	245.479	0.024	0.040
-269.326	-83.511	-0.152	0.049
-268.311	800.000	-0.121	0.366
-267.297	-70.896	-0.225	0.085
-266.282	316.500	0.102	-0.193
-265.267	-200.000	-0.054	0.316
-264.253	-159.052	-0.504	0.029
-263.238	34.337	-0.080	-0.070
-262.224	258.667	-0.192	0.332
-261.209	294.618	-0.155	0.284
-260.195	-67.816	-0.268	-0.105
-259.180	76.884	-0.301	0.321
-258.165	-28.251	-0.226	0.131
-257.151	800.000	-0.100	0.333
-256.136	8.264	0.075	-0.056
-255.122	-108.361	-0.482	0.104
-254.107	-137.080	0.289	0.033
-253.092	-200.000	-0.031	0.202
-252.078	124.463	-0.143	0.180
-251.063	-200.000	0.028	0.163
-250.049	-135.238	0.269	-0.032
-249.034	400.514	-0.082	0.173
-248.019	-73.911	0.124	0.045
-247.005	-125.140	-0.264	0.041
-245.990	181.702	0.150	-0.222
-244.976	574.172	0.059	0.144
-243.961	95.861	0.200	-0.229
-242.946	-200.000	-0.040	-0.267
-241.932	-62.005	0.302	-0.127
-240.917	30.738	-0.171	0.147
-239.903	129.535	-0.121	-0.155
-238.888	-200.000	-0.089	0.445
-237.873	129.542	-0.130	0.166
-236.859	192.517	-0.104	0.158
-235.844	87.817	0.189	-0.210
-234.830	3.132	0.099	-0.073
-233.815	800.000	-0.095	-0.364
-232.800	-117.990	-0.137	0.025
-231.786	-200.000	-0.001	0.082
-230.771	-200.000	-0.003	0.196
-229.757	-15.646	-0.113	-0.072
-228.742	-166.661	-0.048	0.002
-227.727	-89.688	-0.319	-0.094
-226.713	-124.902	0.253	-0.039
-225.698	-112.460	-0.170	-0.034
-224.684	800.000	-0.058	0.244
-223.669	477.106	-0.092	0.209
-222.655	-200.000	0.050	0.226
-221.640	422.458	0.090	0.194
-220.625	-50.621	-0.110	0.052
-219.611	120.535	0.281	-0.350
-218.596	-120.554	0.204	0.035
-217.582	-178.848	0.196	0.004
-216.567	800.000	-0.111	-0.350
-215.552	-200.000	0.002	0.132
-214.538	-13.302	0.177	0.115
-213.523	-58.574	0.307	0.134
-212.509	79.740	-0.173	0.186
-211.494	48.001	0.264	0.248
-210.479	74.077	0.131	0.137
-209.465	247.857	0.149	0.252
-208.450	121.675	0.106	0.133
-207.436	107.127	-0.238	0.283
-206.421	-10.929	-0.185	-0.123
-205.406	393.913	-0.142	0.296
-204.392	800.000	0.073	-0.275
-203.377	-80.231	0.313	0.105
-202.363	278.084	-0.079	-0.141
-201.348	-61.522	-0.225	-0.095
-200.333	-103.124	0.091	-0.021
-199.319	-98.782	-0.235	0.060
-198.304	-39.481	-0.123	0.065
-197.290	800.000	-0.060	0.168
-196.275	-65.769	0.281	-0.113
-195.260	95.000	-0.115	0.131
-194.246	800.000	-0.107	0.336
-193.231	-41.911	0.087	0.045
-192.217	-25.940	0.217	-0.128
-191.202	-36.304	-0.194	0.105
-190.187	-152.257	0.319	0.023
-189.173	-10.746	-0.365	-0.242
-188.158	-117.187	0.151	0.028
-187.144	-200.000	0.012	0.211
-186.129	46.820	0.266	-0.247
-185.114	-98.772	0.051	0.013
-184.100	-135.802	-0.078	0.009
-183.085	354.036	-0.092	0.184
-182.071	236.054	-0.070	0.116
-181.056	-39.291	-0.274	0.144
-180.042	97.790	0.202	-0.233
-179.027	160.006	-0.160	0.224
-178.012	64.504	-0.133	0.134
-176.998	-146.725	0.256	0.022
-175.983	800.000	-0.019	0.075
-174.969	800.000	0.052	0.179
-173.954	-146.254	0.324	0.028
-172.939	88.803	0.094	-0.104
-171.925	-73.271	0.181	0.066
-170.910	800.000	0.074	0.272
-169.896	-61.602	-0.137	-0.057
-168.881	-122.411	-0.055	0.009
-167.866	304.046	0.132	-0.245
-166.852	-55.250	0.187	0.084
-165.837	-200.000	-0.012	-0.119
-164.823	-200.000	0.003	0.018
-163.808	-200.000	0.020	0.140
-162.793	657.047	0.143	0.367
-161.779	800.000	0.059	0.185
-160.764	63.435	0.180	-0.180
-159.750	-78.063	0.231	-0.080
-158.735	379.511	-0.163	0.334
-157.720	-200.000	-0.005	0.153
-156.706	800.000	0.026	-0.115
-155.691	-116.306	0.170	0.032
-154.677	91.774	-0.219	0.247
-153.662	-96.793	0.202	0.053
-152.647	-136.473	0.170	-0.020
-151.633	137.502	-0.169	-0.222
-150.618	-200.000	-0.002	0.167
-149.604	-200.000	0.007	-0.210
-148.589	76.337	-0.039	-0.041
-147.574	800.000	0.152	0.434
-146.560	800.000	0.068	0.230
-145.545	497.770	0.088	0.203
-144.531	800.000	0.067	0.216
-143.516	-9.984	-0.037	0.025
-142.502	-116.550	-0.228	0.042
-141.487	800.000	-0.081	-0.343
-140.472	87.004	-0.319	-0.353
-139.458	-75.629	0.216	-0.077
-138.443	-95.771	0.526	0.140
-137.429	800.000	0.027	0.116
-136.414	123.332	0.088	0.111
-135.399	-200.000	-0.002	0.132
-134.385	-45.536	0.450	0.223
-133.370	625.319	-0.134	-0.339
-132.356	762.149	-0.096	-0.260
-131.341	-42.718	-0.365	-0.186
-130.326	209.504	0.129	-0.203
-129.312	39.087	0.133	0.119
-128.297	21.430	-0.079	-0.064
-127.283	-119.047	0.231	-0.040
-126.268	109.848	-0.095	-0.113
-125.253	800.000	0.112	0.315
-124.239	19.679	-0.247	-0.198
-123.224	57.833	0.206	0.201
-122.210	-93.153	0.336	0.093
-121.195	83.374	0.222	0.241
-120.180	13.513	0.191	-0.148
-119.166	-69.587	0.319	0.122
-118.151	-200.000	0.006	-0.035
-117.137	42.388	-0.121	-0.110
-116.122	53.091	-0.194	0.186
-115.107	381.707	-0.139	0.285
-114.093	800.000	0.063	0.196
-113.078	-11.513	0.201	-0.132
-112.064	-97.457	-0.295	0.077
-111.049	-200.000	0.003	-0.023
-110.034	-200.000	0.042	-0.353
-109.020	-200.000	-0.082	-0.564
-108.005	446.889	-0.013	-0.028
-106.991	446.686	-0.079	0.173
-105.976	317.789	0.126	0.238
-104.962	-200.000	0.002	0.010
-103.947	-135.951	-0.097	-0.011
-102.932	59.880	0.063	-0.062
-101.918	163.270	-0.043	-0.060
-100.903	524.241	-0.095	0.224
-99.889	57.668	0.163	0.159
-98.874	-167.637	0.301	0.012
-97.859	-200.000	0.002	-0.103
-96.845	800.000	-0.050	0.151
-95.830	-72.851	0.189	-0.070
-94.816	-200.000	-0.019	-0.210
-93.801	529.345	-0.115	-0.270
-92.786	-200.000	-0.011	-0.069
-91.772	76.782	0.027	0.028
-90.757	-200.000	0.015	-0.141
-89.743	2.770	0.336	0.243
-88.728	-200.000	0.012	0.407
-87.713	800.000	-0.092	0.383
-86.699	453.181	0.087	0.193
-85.684	-43.360	0.108	-0.054
-84.670	-200.000	0.013	-0.195
-83.655	-14.184	-0.104	-0.067
-82.640	-85.720	0.269	0.083
-81.626	800.000	0.062	-0.239
-80.611	-162.990	-0.429	-0.021
-79.597	-22.876	0.344	0.207
-78.582	116.272	-0.149	-0.182
-77.567	800.000	-0.076	0.325
-76.553	50.225	0.057	0.054
-75.538	42.746	0.174	-0.158
-74.524	-200.000	-0.019	0.097
-73.509	604.757	0.054	-0.134
-72.494	-200.000	0.071	0.355
-71.480	-67.329	0.098	-0.038
-70.465	53.027	-0.138	-0.132
-69.451	-200.000	0.188	-0.001
-68.436	-114.411	-0.102	-0.020
-67.422	-184.586	0.055	-0.001
-66.407	123.993	-0.129	0.162
-65.392	-175.469	0.421	-0.011
-64.378	-98.599	-0.192	-0.049
-63.363	377.728	-0.048	0.098
-62.349	-148.026	0.209	-0.017
-61.334	82.630	-0.694	-0.751
-60.319	140.863	0.263	0.347
-59.305	-200.000	0.051	-0.675
-58.290	60.216	0.555	0.547
-57.276	478.008	0.743	1.676
-56.261	-200.000	76.320	514.002
-55.246	507.620	1342.405	3103.994
-54.232	143.918	2582.033	3429.911
-53.217	116.094	2239.824	2732.641
-52.203	51.994	1682.597	1596.546
-51.188	43.769	1406.522	1282.712
-50.173	40.331	1360.680	1219.734
-49.159	58.899	1396.119	1367.279
-48.144	65.313	1414.931	1425.447
-47.130	44.407	1377.228	1259.757
-46.115	40.189	1360.982	1218.937
-45.100	40.046	1355.761	1213.329
-44.086	39.979	1353.962	1211.266
-43.071	39.915	1351.443	1208.574
-42.057	39.909	1349.283	1206.553
-41.042	40.014	1347.170	1205.258
-40.027	39.928	1346.014	1203.649
-39.013	39.999	1343.994	1202.231
-37.998	40.021	1342.396	1200.884
-36.984	40.080	1340.307	1199.326
-35.969	40.128	1338.552	1198.001
-34.954	40.202	1336.713	1196.756
-33.940	40.174	1335.613	1195.552
-32.925	40.196	1334.412	1194.560
-31.911	40.288	1332.373	1193.243
-30.896	40.237	1331.018	1191.679
-29.881	40.188	1330.046	1190.465
-28.867	40.221	1328.281	1189.033
-27.852	40.152	1327.199	1187.607
-26.838	40.326	1324.943	1186.583
-25.823	40.159	1324.067	1184.749
-24.809	40.263	1322.348	1183.785
-23.794	40.166	1321.660	1182.546
-22.779	40.287	1319.494	1181.284
-21.765	40.149	1318.428	1179.460
-20.750	40.262	1316.698	1178.537
-19.736	40.057	1316.071	1176.711
-18.721	40.085	1314.471	1175.400
-17.706	40.140	1313.030	1174.390
-16.692	40.190	1311.985	1173.707
-15.677	40.161	1310.650	1172.291
-14.663	40.024	1309.733	1170.615
-13.648	39.979	1309.240	1169.863
-12.633	40.080	1307.384	1168.750
-11.619	40.008	1306.767	1167.727
-10.604	40.050	1306.136	1167.366
-9.590	39.991	1305.153	1166.095
-8.575	40.134	1303.485	1165.400
-7.560	40.083	1303.147	1164.750
-6.546	40.039	1302.310	1163.699
-5.531	39.983	1301.505	1162.605
-4.517	40.144	1300.213	1162.349
-3.502	40.177	1299.258	1161.642
-2.487	40.312	1297.834	1161.113
-1.473	40.130	1295.007	1157.474
-0.458	39.401	1280.988	1140.675
0.556	34.527	1262.133	1102.973
1.571	30.251	1265.847	1081.264
2.586	28.533	1280.835	1083.827
3.600	26.731	1268.785	1062.976
4.615	20.070	1192.898	962.447
5.629	10.064	1111.950	844.991
6.644	5.296	1088.424	802.598
7.659	4.973	1084.860	798.247
8.673	4.680	1084.274	796.243
9.688	4.623	1082.653	794.689
10.702	5.185	1081.224	796.442
11.717	10.990	1090.580	833.055
12.731	18.680	1100.751	880.348
13.746	19.678	1100.911	885.511
14.761	17.726	1097.967	873.081
15.775	16.458	1095.314	864.413
16.790	15.459	1093.928	858.138
17.804	14.761	1091.536	852.625
18.819	14.309	1090.460	849.405
19.834	14.068	1089.484	847.342
20.848	13.784	1088.838	845.315
21.863	13.559	1087.725	843.234
22.877	13.393	1087.401	842.063
23.892	13.396	1086.689	841.452
24.907	13.369	1085.830	840.576
25.921	13.535	1084.151	840.045
26.936	13.566	1082.891	839.149
27.950	13.625	1081.506	838.298
28.965	13.688	1080.404	837.691
29.980	13.709	1078.044	835.890
30.994	13.770	1077.160	835.441
32.009	13.762	1076.621	834.909
33.023	13.747	1074.996	833.499
34.038	13.673	1074.022	832.299
35.053	13.621	1073.246	831.363
36.067	13.614	1071.899	830.212
37.082	13.712	1071.282	830.152
38.096	13.640	1070.511	829.116
39.111	13.727	1070.079	829.147
40.126	13.558	1068.628	827.105
41.140	13.454	1067.275	825.463
42.155	13.447	1065.860	824.261
43.169	13.410	1065.245	823.532
44.184	13.322	1064.485	822.432
45.199	13.262	1063.123	821.008
46.213	13.379	1061.975	820.629
47.228	13.544	1060.852	820.509
48.242	13.625	1059.556	819.834
49.257	13.531	1059.054	818.907
50.271	13.626	1057.712	818.267
51.286	13.570	1056.918	817.306
52.301	13.635	1056.078	816.902
53.315	13.432	1055.240	815.181
54.330	13.465	1053.886	814.227
55.344	13.426	1053.111	813.364
56.359	13.381	1052.411	812.531
57.374	13.445	1051.303	811.919
58.388	13.377	1050.347	810.775
59.403	13.275	1049.765	809.752
60.417	13.378	1048.579	809.268
61.432	13.329	1048.222	808.685
62.447	13.351	1046.778	807.606
63.461	13.198	1046.432	806.522
64.476	13.275	1045.602	806.187
65.490	13.256	1045.098	805.631
66.505	13.276	1043.912	804.743
67.520	13.244	1043.351	804.084
68.534	13.395	1042.548	804.128
69.549	13.315	1041.384	802.774
70.563	13.310	1040.704	802.154
71.578	13.233	1039.638	800.886
72.593	13.111	1039.324	799.981
73.607	13.336	1038.311	800.221
74.622	13.241	1037.455	799.029
75.636	13.248	1036.870	798.545
76.651	13.149	1036.189	797.471
77.666	13.166	1035.761	797.154
78.680	13.284	1035.232	797.244
79.695	13.291	1034.467	796.619
80.709	13.250	1033.648	795.719
81.724	13.473	1033.019	796.237
82.739	13.417	1032.436	795.447
83.753	13.661	1031.397	795.749
84.768	13.757	1030.200	795.216
85.782	13.640	1029.805	794.279
86.797	13.597	1028.783	793.213
87.812	13.434	1028.210	791.922
88.826	13.643	1026.689	791.678
89.841	13.583	1025.818	790.652
90.855	13.675	1024.963	790.363
91.870	13.738	1024.071	789.902
92.884	13.757	1023.408	789.413
93.899	13.668	1022.691	788.365
94.914	13.846	1021.390	788.141
95.928	13.892	1020.644	787.711
96.943	13.659	1020.379	786.334
97.957	13.659	1019.166	785.329
98.972	13.698	1018.511	784.941
99.987	13.503	1017.835	783.428
101.001	13.686	1016.394	783.113
102.016	13.662	1015.575	782.299
103.030	13.727	1015.026	782.112
104.045	13.689	1014.061	781.122
105.060	13.509	1013.346	779.653
106.074	13.508	1011.997	778.544
107.089	13.482	1010.948	777.546
108.103	13.450	1010.488	776.972
109.118	13.308	1009.802	775.709
110.133	13.285	1008.925	774.860
111.147	13.467	1007.618	774.639
112.162	13.396	1006.914	773.696
113.176	13.550	1006.119	773.736
114.191	13.566	1005.030	772.905
115.206	13.542	1004.498	772.314
116.220	13.548	1003.501	771.511
117.235	13.513	1002.313	770.367
118.249	13.396	1001.620	769.221
119.264	13.442	1001.176	769.027
120.279	13.431	999.976	767.984
121.293	13.441	999.059	767.257
122.308	13.427	998.055	766.355
123.322	13.452	997.425	765.917
124.337	13.403	996.394	764.834
125.352	13.363	995.387	763.808
126.366	13.385	993.748	762.583
127.381	13.385	993.471	762.304
128.395	13.396	992.361	761.435
129.410	13.415	991.570	760.846
130.424	13.535	990.408	760.441
131.439	13.558	989.840	760.044
132.454	13.529	989.479	759.563
133.468	13.637	988.554	759.285
134.483	13.600	987.713	758.402
135.497	13.616	986.853	757.747
136.512	13.735	985.807	757.417
137.527	13.654	984.744	756.167
138.541	13.598	984.134	755.375
139.556	13.605	983.801	755.084
140.570	13.791	982.932	755.197
141.585	13.838	982.023	754.647
142.600	13.859	980.985	753.879
143.614	13.921	980.233	753.515
144.629	13.910	979.820	753.080
145.643	13.786	979.081	751.884
146.658	13.763	977.217	750.283
147.673	13.751	976.514	749.619
148.687	13.736	976.033	749.118
149.702	13.729	974.788	748.065
150.716	13.612	974.191	747.012
151.731	13.668	973.654	746.787
152.746	13.708	972.665	746.144
153.760	13.787	972.260	746.123
154.775	13.705	971.902	745.411
155.789	13.865	970.724	745.159
156.804	13.873	970.527	744.980
157.819	13.809	969.784	744.054
158.833	13.820	969.021	743.452
159.848	13.939	967.913	743.071
160.862	13.969	966.761	742.256
161.877	13.815	965.965	740.892
162.892	13.876	964.830	740.227
163.906	13.683	964.225	738.837
164.921	13.671	963.129	737.877
165.935	13.785	962.237	737.638
166.950	13.871	961.740	737.573
167.964	13.909	960.651	736.839
168.979	13.767	959.637	735.368
169.994	13.733	958.823	734.527
171.008	13.721	958.317	734.024
172.023	13.916	957.636	734.298
173.037	13.970	956.688	733.743
174.052	13.861	956.444	733.012
175.067	13.754	955.327	731.620
176.081	13.905	954.635	731.692
177.096	13.749	954.624	730.928
178.110	13.783	953.839	730.414
179.125	13.834	953.446	730.271
180.140	13.894	952.849	730.016
181.154	13.965	952.016	729.622
182.169	13.955	952.103	729.582
183.183	14.051	951.340	729.351
184.198	14.156	949.846	728.601
185.213	14.142	949.169	727.956
186.227	14.113	948.626	727.352
187.242	14.012	948.442	726.705
188.256	14.226	947.360	726.746
189.271	14.191	947.130	726.352
190.286	13.985	946.155	724.641
191.300	13.909	945.483	723.732
192.315	13.820	944.776	722.738
193.329	13.817	944.046	722.101
194.344	13.994	943.275	722.219
195.359	14.065	942.773	722.078
196.373	14.105	942.339	721.857
197.388	14.223	941.508	721.668
198.402	14.157	941.321	721.172
199.417	14.294	940.670	721.207
200.432	14.412	940.002	721.141
201.446	14.337	939.805	720.599
202.461	14.395	939.225	720.342
203.475	14.265	938.960	719.514
204.490	14.290	937.572	718.493
205.504	14.346	936.699	718.003
206.519	14.284	936.128	717.233
207.534	14.253	935.499	716.556
208.548	14.268	934.966	716.147
209.563	14.285	934.350	715.687
210.577	14.393	933.338	715.311
211.592	14.550	932.558	715.324
212.607	14.501	931.949	714.582
213.621	14.494	930.883	713.671
214.636	14.574	930.385	713.570
215.650	14.591	929.896	713.204
216.665	14.566	928.983	712.335
217.680	14.597	928.464	712.004
218.694	14.596	927.920	711.522
219.709	14.633	927.314	711.153
220.723	14.491	926.417	709.795
221.738	14.586	925.550	709.475
222.753	14.655	924.940	709.235
223.767	14.639	924.520	708.783
224.782	14.667	924.138	708.546
225.796	14.686	923.463	708.045
226.811	14.653	922.751	707.298
227.826	14.620	922.103	706.599
228.840	14.689	920.961	705.955
229.855	14.719	920.270	705.490
230.869	14.624	919.762	704.633
231.884	14.534	919.330	703.863
232.899	14.564	918.209	703.068
233.913	14.688	917.152	702.720
234.928	14.580	916.451	701.663
235.942	14.451	916.267	700.921
236.957	14.490	915.575	700.491
237.972	14.562	914.740	700.092
238.986	14.580	914.352	699.808
240.001	14.461	913.981	698.965
241.015	14.651	913.267	699.153
242.030	14.697	912.406	698.624
243.045	14.555	912.033	697.682
244.059	14.792	911.350	698.092
245.074	14.719	910.813	697.313
246.088	14.755	909.966	696.753
247.103	14.926	908.476	696.259
248.117	15.034	908.670	696.797
249.132	15.013	908.233	696.313
250.147	15.120	907.695	696.284
251.161	15.157	907.003	695.847
252.176	15.106	906.346	695.068
253.190	15.046	905.980	694.478
254.205	15.321	905.019	694.819
255.220	15.287	904.385	694.129
256.234	15.207	904.141	693.550
257.249	15.292	902.835	692.840
258.263	15.231	901.969	691.862
259.278	15.128	901.726	691.186
260.293	15.411	900.957	691.704
261.307	15.320	900.199	690.687
262.322	15.383	899.892	690.649
263.336	15.488	898.831	690.207
264.351	15.576	898.034	689.895
265.366	15.408	897.429	688.679
266.380	15.368	896.914	688.056
267.395	15.409	896.046	687.501
268.409	15.235	895.666	686.435
269.424	15.325	894.836	686.106
270.439	15.381	893.779	685.465
271.453	15.396	893.082	684.929
272.468	15.318	892.919	684.424
273.482	15.284	892.500	683.903
274.497	15.376	892.033	683.862
275.512	15.317	891.062	682.815
276.526	15.409	890.309	682.554
277.541	15.524	889.820	682.585
278.555	15.545	889.284	682.197
279.570	15.670	888.450	682.006
280.585	15.585	887.887	681.167
281.599	15.440	887.336	680.100
282.614	15.567	886.591	679.982
283.628	15.696	885.541	679.637
284.643	15.608	885.031	678.830
285.657	15.467	884.660	677.916
286.672	15.438	884.134	677.337
287.687	15.541	883.743	677.394
288.701	15.550	882.640	676.522
289.716	15.660	882.071	676.469
290.730	15.643	881.650	676.017
291.745	15.605	881.000	675.308
292.760	15.727	880.270	675.179
293.774	15.869	879.569	675.150
294.789	15.751	879.325	674.431
295.803	15.753	878.463	673.719
296.818	15.660	878.109	673.012
297.833	15.740	877.179	672.562
298.847	15.739	876.365	671.874
299.862	15.737	876.000	671.526
300.876	15.966	875.284	671.832
301.891	15.942	874.745	671.261
302.906	15.922	874.376	670.840
303.920	15.849	874.291	670.424
304.935	16.112	873.061	670.468
305.949	15.965	872.606	669.478
306.964	15.979	871.547	668.661
307.979	16.091	871.457	668.977
308.993	16.076	870.627	668.219
310.008	16.053	870.043	667.623
311.022	16.196	869.305	667.561
312.037	16.012	868.943	666.497
313.052	15.979	868.419	665.904
314.066	15.958	867.882	665.352
315.081	16.027	867.074	664.947
316.095	15.878	866.818	664.104
317.110	15.909	865.929	663.486
318.125	15.973	865.544	663.386
319.139	15.994	865.220	663.161
320.154	16.070	864.474	662.828
321.168	15.984	863.785	661.904
322.183	16.103	863.403	662.018
323.197	16.105	863.062	661.705
324.212	16.100	862.381	661.107
325.227	16.000	862.181	660.502
326.241	16.148	860.891	660.037
327.256	16.189	860.232	659.631
328.270	16.013	860.053	658.749
329.285	15.986	859.538	658.190
330.300	16.099	858.718	657.943
331.314	16.056	858.249	657.359
332.329	16.152	857.837	657.360
333.343	16.224	857.449	657.284
334.358	16.290	857.014	657.149
335.373	16.226	856.894	656.752
336.387	16.309	856.359	656.606
337.402	16.150	856.449	655.998
338.416	16.525	855.385	656.581
339.431	16.453	855.054	655.992
340.446	16.410	855.015	655.737
341.460	16.471	854.569	655.572
342.475	16.647	854.323	656.008
343.489	16.500	853.626	654.845
344.504	16.516	852.988	654.359
345.519	16.661	852.417	654.425
346.533	16.571	851.858	653.590
347.548	16.588	851.559	653.369
348.562	16.397	850.970	652.119
349.577	16.439	850.218	651.650
350.592	16.450	849.473	651.062
351.606	16.466	848.522	650.340
352.621	16.501	848.292	650.239
353.635	16.527	847.420	649.613
354.650	16.473	847.021	649.041
355.665	16.635	846.183	648.965
356.679	16.688	845.553	648.625
357.694	16.685	844.686	647.891
358.708	16.506	844.588	647.075
359.723	16.670	843.967	647.167
360.738	16.704	843.075	646.557
361.752	16.705	842.770	646.271
362.767	16.685	842.364	645.825
363.781	16.828	841.800	645.882
364.796	17.005	840.975	645.863
365.810	16.963	840.601	645.359
366.825	16.936	840.364	645.018
367.840	16.973	839.608	644.521
368.854	16.772	839.594	643.690
369.869	16.827	839.452	643.734
370.883	16.938	838.555	643.408
371.898	16.930	838.142	643.008
372.913	16.926	838.133	642.926
373.927	16.871	837.236	641.974
374.942	17.013	836.657	642.009
375.956	17.011	836.630	641.923
376.971	17.105	836.083	641.805
377.986	17.116	835.361	641.234
379.000	17.184	835.165	641.282
380.015	17.275	834.447	641.019
381.029	17.152	833.788	639.992
382.044	17.354	833.028	640.114
383.059	17.207	832.872	639.384
384.073	17.101	832.453	638.605
385.088	17.259	831.423	638.352
386.102	17.167	830.666	637.370
387.117	17.138	830.188	636.838
388.132	17.088	829.401	635.989
389.146	17.336	828.761	636.370
390.161	17.255	828.643	635.923
391.175	17.220	828.682	635.764
392.190	17.091	827.831	634.572
393.205	17.157	827.127	634.224
394.219	17.158	826.849	633.959
395.234	17.081	826.713	633.509
396.248	16.861	826.125	632.183
397.263	17.071	825.719	632.601
398.278	17.018	825.315	632.038
399.292	17.075	824.587	631.636
400.307	17.077	824.257	631.335
401.321	17.252	823.515	631.360
402.336	17.076	823.789	630.860
403.350	17.185	823.069	630.658
404.365	17.263	822.507	630.462
405.380	17.492	821.767	630.685
406.394	17.576	821.112	630.439
407.409	17.395	820.900	629.551
408.423	17.528	820.876	629.966
409.438	17.398	820.445	629.101
410.453	17.522	820.080	629.226
411.467	17.636	819.501	629.146
412.482	17.634	818.978	628.679
413.496	17.532	818.876	628.170
414.511	17.678	818.545	628.398
415.526	17.777	817.569	627.958
416.540	17.676	817.135	627.197
417.555	17.763	816.534	627.003
418.569	17.760	815.990	626.516
419.584	17.819	815.519	626.315
420.599	17.801	815.195	625.945
421.613	92.922	1268.284	1381.812
422.628	79.758	1334.312	1381.950
