DTS Sentinel unit serial number:	SN413079Multiplexer serial number:	ORYXHardware model number:	OX4-SRSoftware version number:	ORYX F/W v4.00 Oryx Data Collector v3.7.2.0data status	okinstallation	princeton_trtdifferential loss correction	single-endedforward channel	channel 1reverse channel	N/Adate	2019/09/15time	09:58:35forward acquisition time	60.00reverse acquisition time	0.00gamma	496.2192k internal	0.2309k external	0.2309temperature offset calibration	0.9987default loss term (dB/km)	0.3790temperature slope calibration	1.0000multiplexer offset coefficient	1.0000multiplexer slope coefficient	1.0000fibre end	0.00T internal ref (°C)	34.12T ext. ref 1 (°C)	5.01T ext. ref 2 (°C)	29.94length (m)	temperature (°C)	Stokes	anti-Stokes-747.200	800.000	-0.103	-0.301
-746.185	-147.322	-0.454	-0.039
-745.171	602.163	0.109	-0.275
-744.156	800.000	-0.037	0.114
-743.142	5.619	-0.056	0.042
-742.127	49.392	-0.167	0.160
-741.112	-200.000	0.002	0.148
-740.098	750.096	-0.153	0.420
-739.083	-41.244	0.277	0.145
-738.069	-75.208	-0.117	-0.043
-737.054	-126.675	-0.209	-0.031
-736.039	-163.893	-0.390	0.019
-735.025	-36.017	0.093	0.051
-734.010	-100.822	-0.232	0.058
-732.996	-124.608	0.265	0.042
-731.981	86.791	-0.182	0.204
-730.966	371.250	-0.019	-0.038
-729.952	-95.326	-0.148	-0.040
-728.937	-200.000	0.017	-0.102
-727.923	144.967	-0.069	-0.094
-726.908	45.241	-0.160	0.150
-725.894	263.481	-0.071	0.125
-724.879	-25.256	0.313	0.188
-723.864	-105.165	-0.265	0.062
-722.850	-81.080	0.193	0.065
-721.835	-200.000	0.006	-0.292
-720.821	8.828	-0.200	-0.153
-719.806	-200.000	-0.018	-0.224
-718.791	800.000	-0.062	0.227
-717.777	11.067	0.124	-0.096
-716.762	117.966	0.117	-0.146
-715.748	-31.447	-0.092	0.053
-714.733	-200.000	0.021	-0.287
-713.718	-7.692	-0.024	0.016
-712.704	90.314	-0.093	0.105
-711.689	-164.802	0.175	0.008
-710.675	-177.832	-0.079	-0.002
-709.660	-200.000	0.005	-0.044
-708.645	422.822	-0.097	-0.210
-707.631	-71.213	0.243	0.092
-706.616	-59.120	0.182	-0.080
-705.602	-200.000	-0.028	0.414
-704.587	-119.814	-0.286	0.050
-703.572	-200.000	-0.001	0.012
-702.558	-57.339	0.443	0.198
-701.543	-94.236	-0.191	0.053
-700.529	-36.873	0.124	-0.067
-699.514	800.000	-0.056	-0.177
-698.499	418.000	0.109	0.237
-697.485	-6.626	-0.154	0.106
-696.470	-200.000	-0.042	0.194
-695.456	800.000	0.023	0.085
-694.441	58.418	-0.360	0.358
-693.426	86.575	0.062	0.069
-692.412	111.943	-0.090	0.110
-691.397	800.000	0.070	0.236
-690.383	800.000	-0.027	0.100
-689.368	800.000	0.137	-0.491
-688.354	338.360	0.064	-0.127
-687.339	-200.000	-0.029	-0.148
-686.324	304.512	0.128	-0.241
-685.310	-12.607	0.068	0.045
-684.295	120.707	0.148	0.187
-683.281	-200.000	0.008	-0.074
-682.266	-200.000	0.077	-0.430
-681.251	-48.975	-0.200	-0.097
-680.237	12.297	0.241	0.188
-679.222	-178.507	-0.264	0.006
-678.208	-90.835	-0.140	-0.041
-677.193	248.012	-0.187	0.321
-676.178	-37.696	0.219	0.118
-675.164	-126.774	0.331	0.050
-674.149	-66.604	0.095	0.038
-673.135	-146.726	-0.375	0.033
-672.120	73.422	0.065	-0.069
-671.105	-133.168	-0.229	-0.029
-670.091	-174.595	-0.082	-0.002
-669.076	-200.000	0.014	-0.083
-668.062	150.732	-0.111	-0.152
-667.047	260.948	0.154	0.269
-666.032	-200.000	0.041	-0.291
-665.018	-170.362	0.417	0.015
-664.003	-149.527	-0.250	0.020
-662.989	-2.945	-0.083	-0.059
-661.974	-200.000	0.047	-0.328
-660.959	-200.000	0.009	0.137
-659.945	132.604	0.104	0.135
-658.930	-114.854	0.206	-0.040
-657.916	-129.106	0.271	-0.038
-656.901	-169.837	-0.125	0.005
-655.886	74.706	0.140	-0.149
-654.872	-128.180	-0.182	0.026
-653.857	-20.814	-0.101	-0.063
-652.843	206.738	0.081	0.128
-651.828	-200.000	0.037	0.216
-650.814	-156.813	-0.102	0.006
-649.799	0.394	-0.140	-0.101
-648.784	-200.000	-0.017	-0.343
-647.770	187.450	0.162	-0.244
-646.755	800.000	-0.043	-0.154
-645.741	-80.510	-0.233	-0.078
-644.726	-200.000	-0.004	-0.072
-643.711	-200.000	0.039	0.176
-642.697	353.364	0.080	-0.160
-641.682	150.935	-0.083	0.114
-640.668	125.060	0.083	0.105
-639.653	-17.947	-0.149	0.094
-638.638	-200.000	-0.003	0.135
-637.624	800.000	-0.022	0.067
-636.609	-33.220	-0.129	-0.072
-635.595	-67.246	0.345	0.137
-634.580	-200.000	0.005	0.263
-633.565	64.241	-0.196	-0.199
-632.551	-112.663	-0.191	0.039
-631.536	-127.836	0.242	0.035
-630.522	-96.532	-0.064	-0.017
-629.507	800.000	0.078	0.220
-628.492	800.000	0.039	0.118
-627.478	19.158	0.170	0.138
-626.463	-200.000	0.024	-0.147
-625.449	-51.636	0.035	0.016
-624.434	-75.664	-0.260	0.093
-623.419	17.607	0.139	0.112
-622.405	51.967	-0.055	0.053
-621.390	-123.494	0.137	0.022
-620.376	164.243	-0.200	-0.285
-619.361	-84.019	-0.247	-0.079
-618.346	-200.000	0.028	0.215
-617.332	15.216	0.085	-0.068
-616.317	173.273	0.120	0.175
-615.303	164.485	0.241	-0.344
-614.288	800.000	0.052	0.160
-613.273	-157.013	-0.276	0.017
-612.259	-119.724	-0.307	-0.054
-611.244	-142.443	0.154	0.015
-610.230	-23.918	0.167	0.101
-609.215	-9.405	0.179	-0.121
-608.201	56.819	-0.046	0.045
-607.186	247.771	-0.025	0.042
-606.171	-200.000	0.012	-0.153
-605.157	-200.000	-0.005	-0.310
-604.142	-66.688	-0.207	-0.083
-603.128	-200.000	-0.002	0.224
-602.113	-200.000	0.015	-0.481
-601.098	-84.172	-0.018	0.006
-600.084	70.743	-0.164	-0.172
-599.069	28.947	0.227	0.194
-598.055	-130.550	-0.243	-0.033
-597.040	-67.691	0.239	0.095
-596.025	418.263	-0.047	-0.100
-595.011	78.272	-0.190	-0.205
-593.996	272.038	-0.213	-0.379
-592.982	37.459	-0.209	0.187
-591.967	-33.697	-0.219	0.122
-590.952	-110.034	-0.428	-0.090
-589.938	59.276	-0.322	0.321
-588.923	800.000	-0.103	-0.329
-587.909	167.704	-0.230	-0.330
-586.894	219.115	0.071	0.114
-585.879	-58.492	0.240	-0.105
-584.865	378.911	-0.143	0.296
-583.850	-32.833	0.113	-0.063
-582.836	-6.694	-0.070	0.048
-581.821	-150.568	0.184	0.014
-580.806	24.046	0.083	0.069
-579.792	-62.724	-0.082	-0.034
-578.777	-151.231	-0.255	-0.019
-577.763	-46.156	0.215	0.107
-576.748	7.396	-0.314	0.237
-575.733	-40.428	-0.167	0.088
-574.719	384.361	-0.048	-0.100
-573.704	800.000	0.062	0.183
-572.690	-119.116	0.208	0.037
-571.675	800.000	-0.126	0.458
-570.661	-32.111	0.267	0.151
-569.646	-200.000	0.004	-0.394
-568.631	-34.048	-0.049	-0.027
-567.617	-95.130	0.071	0.019
-566.602	152.139	0.115	-0.159
-565.588	154.758	0.221	0.306
-564.573	502.499	0.031	-0.073
-563.558	-109.295	0.172	-0.037
-562.544	-116.747	-0.145	0.027
-561.529	-152.571	0.249	-0.018
-560.515	-200.000	0.013	0.084
-559.500	-117.330	-0.215	-0.039
-558.485	-200.000	0.012	-0.376
-557.471	-29.293	0.117	0.067
-556.456	48.349	0.091	-0.086
-555.442	800.000	0.046	-0.162
-554.427	36.376	-0.252	0.224
-553.412	-73.913	0.282	0.103
-552.398	21.530	-0.223	-0.183
-551.383	-66.783	0.173	0.069
-550.369	-131.459	0.154	-0.020
-549.354	800.000	-0.114	-0.393
-548.339	501.953	-0.032	0.075
-547.325	179.802	-0.066	-0.098
-546.310	23.245	-0.152	0.126
-545.296	-200.000	-0.058	0.380
-544.281	691.209	0.077	0.205
-543.266	-31.496	-0.142	0.081
-542.252	410.273	0.083	-0.177
-541.237	-58.554	0.278	-0.122
-540.223	136.584	-0.189	-0.248
-539.208	245.147	-0.099	-0.168
-538.193	-129.444	0.100	-0.014
-537.179	109.365	-0.015	-0.018
-536.164	-95.913	-0.210	-0.056
-535.150	763.570	0.092	0.253
-534.135	501.316	0.072	0.166
-533.121	-9.381	-0.195	-0.131
-532.106	49.020	0.175	-0.165
-531.091	86.393	0.156	0.174
-530.077	-122.343	0.288	-0.047
-529.062	14.011	-0.128	-0.100
-528.048	-111.794	-0.135	0.028
-527.033	-25.425	0.193	-0.115
-526.018	-200.000	-0.003	0.166
-525.004	215.051	-0.131	0.209
-523.989	23.075	-0.151	0.125
-522.975	-200.000	-0.008	0.306
-521.960	527.945	-0.084	0.199
-520.945	437.786	0.131	0.288
-519.931	106.545	0.058	-0.069
-518.916	-83.100	-0.233	0.076
-517.902	-200.000	-0.013	0.194
-516.887	-54.940	-0.287	0.130
-515.872	-200.000	-0.004	-0.155
-514.858	94.087	-0.061	-0.070
-513.843	228.986	-0.082	-0.135
-512.829	-200.000	0.016	0.146
-511.814	-160.752	-0.231	-0.012
-510.799	-17.774	0.383	-0.242
-509.785	22.659	-0.214	0.176
-508.770	-107.029	-0.123	0.027
-507.756	-147.882	0.292	0.024
-506.741	27.133	0.291	-0.246
-505.726	-162.234	-0.215	-0.011
-504.712	-166.341	0.172	-0.007
-503.697	261.782	0.239	0.417
-502.683	149.504	-0.154	0.210
-501.668	-138.277	0.109	-0.012
-500.653	-200.000	0.006	-0.113
-499.639	800.000	0.034	-0.107
-498.624	800.000	-0.052	0.191
-497.610	605.968	0.098	0.246
-496.595	-106.129	-0.087	0.020
-495.581	-200.000	-0.012	0.093
-494.566	7.543	0.011	-0.008
-493.551	-114.118	-0.043	-0.008
-492.537	-25.051	0.060	-0.036
-491.522	800.000	-0.050	0.172
-490.508	-68.087	0.133	0.052
-489.493	-150.630	-0.101	0.008
-488.478	-200.000	-0.033	-0.398
-487.464	526.290	-0.047	-0.111
-486.449	155.085	0.065	0.090
-485.435	-123.406	-0.439	-0.070
-484.420	-45.913	0.177	0.088
-483.405	6.715	-0.351	-0.263
-482.391	-83.977	0.046	-0.015
-481.376	-125.741	0.150	-0.023
-480.362	-23.240	0.186	-0.112
-479.347	800.000	-0.047	0.153
-478.332	800.000	0.031	0.130
-477.318	98.701	0.103	0.119
-476.303	303.339	-0.183	0.341
-475.289	-130.311	0.158	0.022
-474.274	-142.280	-0.136	0.013
-473.259	58.558	0.251	0.247
-472.245	-200.000	-0.043	0.201
-471.230	420.379	0.062	-0.134
-470.216	444.162	-0.013	-0.029
-469.201	800.000	0.040	-0.162
-468.186	-200.000	0.059	-0.388
-467.172	212.639	-0.103	-0.163
-466.157	800.000	-0.043	0.133
-465.143	-127.847	-0.223	-0.032
-464.128	-200.000	-0.034	-0.157
-463.113	-146.856	0.158	-0.014
-462.099	4.828	-0.071	0.053
-461.084	121.606	0.068	0.085
-460.070	-200.000	0.048	-0.227
-459.055	-5.239	0.093	-0.064
-458.040	-91.891	0.169	0.048
-457.026	-37.585	-0.284	0.152
-456.011	-71.832	0.219	0.082
-454.997	-48.691	0.103	0.050
-453.982	55.584	-0.207	0.201
-452.968	264.467	-0.053	0.093
-451.953	-51.093	-0.410	-0.193
-450.938	17.258	-0.219	-0.175
-449.924	225.687	-0.260	-0.424
-448.909	-8.486	-0.207	-0.139
-447.895	800.000	0.035	-0.114
-446.880	-132.392	0.108	-0.014
-445.865	13.645	-0.192	-0.150
-444.851	83.609	0.212	0.232
-443.836	-200.000	-0.028	-0.128
-442.822	-110.032	0.256	-0.054
-441.807	-24.337	0.102	0.061
-440.792	-110.818	0.212	-0.044
-439.778	-12.698	-0.051	-0.034
-438.763	-115.706	0.310	-0.058
-437.749	-116.163	-0.313	0.058
-436.734	-80.839	0.064	0.021
-435.719	74.680	0.128	0.135
-434.705	234.405	0.095	0.157
-433.690	-52.280	0.163	0.076
-432.676	800.000	0.112	-0.348
-431.661	74.169	0.037	0.039
-430.646	-200.000	0.014	-0.249
-429.632	-33.695	-0.162	-0.089
-428.617	4.240	0.118	0.086
-427.603	-50.869	-0.262	0.124
-426.588	-177.449	-0.139	0.003
-425.573	120.572	0.079	-0.098
-424.559	-13.073	0.144	-0.094
-423.544	-76.957	-0.176	-0.062
-422.530	-88.642	-0.350	-0.104
-421.515	-78.218	-0.256	-0.088
-420.500	0.203	0.129	0.092
-419.486	-116.188	-0.184	-0.034
-418.471	58.680	-0.208	0.205
-417.457	718.173	0.119	0.317
-416.442	-146.257	-0.136	-0.012
-415.428	584.279	0.087	0.214
-414.413	-200.000	0.004	-0.073
-413.398	-80.216	0.133	-0.045
-412.384	-200.000	-0.023	-0.210
-411.369	-89.835	-0.194	0.057
-410.355	-138.422	0.078	0.009
-409.340	507.080	-0.073	-0.170
-408.325	-80.020	-0.097	-0.033
-407.311	104.871	0.076	-0.089
-406.296	152.798	0.066	-0.091
-405.282	314.474	-0.119	-0.225
-404.267	800.000	-0.064	-0.208
-403.252	25.483	-0.197	-0.164
-402.238	-137.185	0.107	0.012
-401.223	-20.184	0.040	0.025
-400.209	23.112	-0.059	0.049
-399.194	-200.000	0.032	0.456
-398.179	122.225	0.371	-0.465
-397.165	149.239	0.239	-0.324
-396.150	-47.706	-0.110	0.053
-395.136	-200.000	0.046	-0.254
-394.121	483.741	-0.102	-0.233
-393.106	-200.000	-0.034	-0.202
-392.092	-1.538	-0.294	-0.207
-391.077	591.237	0.130	-0.321
-390.063	-18.528	-0.138	0.086
-389.048	800.000	-0.027	-0.091
-388.033	-165.224	0.272	0.012
-387.019	16.242	0.374	0.295
-386.004	-67.692	-0.192	0.075
-384.990	89.657	-0.216	-0.241
-383.975	-116.566	-0.326	0.060
-382.960	124.552	-0.184	-0.232
-381.946	183.148	-0.022	0.032
-380.931	-63.673	0.189	-0.077
-379.917	-153.964	-0.011	-0.001
-378.902	-200.000	-0.019	-0.134
-377.888	265.509	0.059	-0.103
-376.873	65.067	0.149	-0.150
-375.858	-59.090	0.174	0.075
-374.844	85.831	-0.114	-0.125
-373.829	800.000	-0.035	0.108
-372.815	138.233	-0.111	-0.145
-371.800	-146.853	-0.268	0.023
-370.785	-200.000	-0.020	0.271
-369.771	-137.435	0.271	0.031
-368.756	287.975	0.123	0.223
-367.742	800.000	-0.035	0.137
-366.727	-121.911	0.343	0.056
-365.712	70.751	0.081	0.084
-364.698	172.264	0.187	0.270
-363.683	-53.589	-0.225	0.103
-362.669	-47.653	-0.250	-0.121
-361.654	-83.901	0.102	0.032
-360.639	-96.243	0.021	0.006
-359.625	202.913	0.114	-0.176
-358.610	-145.354	0.240	-0.022
-357.596	30.337	0.144	-0.123
-356.581	-97.292	0.277	-0.072
-355.566	-200.000	0.001	-0.136
-354.552	-74.689	-0.181	0.065
-353.537	217.463	0.055	0.088
-352.523	800.000	-0.075	-0.307
-351.508	363.726	-0.086	-0.173
-350.493	800.000	0.012	0.044
-349.479	98.340	-0.198	0.228
-348.464	335.069	-0.106	-0.206
-347.450	-172.468	0.262	-0.008
-346.435	-200.000	-0.018	-0.298
-345.420	-42.308	0.115	-0.059
-344.406	-130.120	0.314	-0.043
-343.391	-200.000	-0.033	-0.324
-342.377	-200.000	0.036	-0.204
-341.362	70.396	0.329	0.340
-340.348	280.763	0.079	0.142
-339.333	300.642	-0.100	0.185
-338.318	606.572	0.044	0.109
-337.304	665.757	-0.098	0.254
-336.289	-133.729	-0.150	0.019
-335.275	-200.000	-0.013	0.222
-334.260	-80.844	-0.032	-0.011
-333.245	296.942	0.218	-0.399
-332.231	800.000	0.036	0.123
-331.216	-89.816	0.218	-0.064
-330.202	800.000	-0.095	-0.352
-329.187	-1.409	0.241	0.170
-328.172	-72.109	0.112	-0.041
-327.158	128.907	0.140	0.179
-326.143	-35.167	0.047	-0.026
-325.129	-153.050	0.169	-0.012
-324.114	-94.319	-0.130	-0.036
-323.099	84.200	-0.186	0.203
-322.085	-200.000	-0.008	0.046
-321.070	-174.073	0.127	-0.004
-320.056	580.845	0.202	-0.496
-319.041	-166.361	-0.360	-0.015
-318.026	54.714	-0.171	0.165
-317.012	-103.227	-0.098	-0.023
-315.997	-155.558	-0.134	-0.009
-314.983	-145.922	0.116	0.010
-313.968	800.000	0.056	-0.214
-312.953	63.774	-0.095	0.096
-311.939	-200.000	0.067	0.381
-310.924	-162.693	0.288	-0.014
-309.910	800.000	-0.060	0.217
-308.895	-147.775	-0.220	-0.018
-307.880	40.309	-0.189	0.170
-306.866	-32.258	-0.067	-0.037
-305.851	294.679	0.104	-0.189
-304.837	182.437	-0.165	-0.242
-303.822	-144.788	0.348	0.032
-302.807	800.000	0.017	0.072
-301.793	534.458	-0.103	0.245
-300.778	-200.000	-0.007	-0.162
-299.764	800.000	-0.058	-0.208
-298.749	-176.015	-0.331	-0.009
-297.735	630.786	0.060	-0.152
-296.720	-40.054	0.042	-0.022
-295.705	532.812	-0.101	0.238
-294.691	-141.260	0.327	-0.033
-293.676	-25.632	-0.079	0.047
-292.662	-167.216	-0.249	-0.010
-291.647	24.921	0.183	0.151
-290.632	186.766	0.106	-0.158
-289.618	-82.221	-0.249	0.081
-288.603	800.000	0.068	-0.200
-287.589	54.369	0.056	0.054
-286.574	122.990	0.195	-0.244
-285.559	243.191	-0.047	-0.079
-284.545	-131.910	0.166	-0.022
-283.530	-56.351	-0.147	0.065
-282.516	-78.010	-0.408	0.140
-281.501	-200.000	-0.014	-0.278
-280.486	-38.562	-0.246	0.130
-279.472	-63.287	-0.306	0.126
-278.457	54.454	-0.216	0.208
-277.443	-21.440	-0.215	-0.131
-276.428	-140.247	0.153	-0.016
-275.413	-200.000	0.068	0.304
-274.399	162.953	0.041	0.057
-273.384	-74.986	0.151	0.054
-272.370	82.343	0.066	-0.072
-271.355	-95.366	-0.200	0.054
-270.340	90.412	0.104	-0.116
-269.326	17.492	0.320	-0.254
-268.311	-200.000	0.005	-0.224
-267.297	-150.424	0.219	-0.017
-266.282	-51.455	-0.263	0.122
-265.267	-108.520	0.335	0.072
-264.253	-44.466	0.015	0.007
-263.238	541.082	0.111	-0.264
-262.224	326.796	-0.178	0.340
-261.209	-200.000	-0.070	-0.434
-260.195	800.000	0.026	-0.111
-259.180	175.730	-0.131	0.190
-258.165	800.000	-0.027	0.095
-257.151	-200.000	0.001	0.119
-256.136	-60.314	-0.052	-0.022
-255.122	304.233	0.134	0.247
-254.107	-200.000	0.014	-0.408
-253.092	-55.126	-0.068	0.030
-252.078	800.000	0.085	0.255
-251.063	-104.310	-0.221	-0.051
-250.049	-101.549	-0.228	0.055
-249.034	764.166	0.065	-0.175
-248.019	116.436	0.148	-0.181
-247.005	88.517	-0.222	-0.246
-245.990	-20.983	0.170	0.104
-244.976	98.058	0.094	-0.108
-243.961	292.009	-0.155	0.282
-242.946	800.000	-0.028	-0.100
-241.932	-200.000	0.002	-0.150
-240.917	-200.000	0.041	0.197
-239.903	318.103	0.073	-0.139
-238.888	101.871	-0.243	0.283
-237.873	137.713	-0.122	0.160
-236.859	258.659	0.063	0.108
-235.844	-158.733	0.127	0.007
-234.830	-43.546	-0.023	-0.011
-233.815	-154.777	0.054	-0.004
-232.800	-37.590	-0.274	-0.145
-231.786	-139.135	0.073	-0.008
-230.771	-200.000	0.048	0.507
-229.757	123.328	-0.065	0.081
-228.742	91.998	0.265	0.298
-227.727	-200.000	0.028	-0.283
-226.713	800.000	0.062	-0.236
-225.698	-14.386	0.235	-0.151
-224.684	-102.316	0.278	0.066
-223.669	217.527	-0.052	0.083
-222.655	-111.292	-0.120	-0.024
-221.640	239.928	-0.079	-0.131
-220.625	5.051	0.196	0.144
-219.611	-200.000	-0.005	0.188
-218.596	-200.000	0.097	-0.505
-217.582	175.751	0.138	0.200
-216.567	359.227	0.051	-0.101
-215.552	138.034	0.211	0.275
-214.538	90.698	-0.038	-0.043
-213.523	-101.190	0.271	-0.066
-212.509	-70.791	0.243	-0.091
-211.494	160.965	0.196	-0.272
-210.479	46.907	-0.071	0.066
-209.465	39.351	-0.236	0.210
-208.450	800.000	0.067	0.191
-207.436	800.000	0.055	-0.220
-206.421	40.517	-0.267	0.239
-205.406	-200.000	0.006	-0.134
-204.392	-50.546	0.345	0.162
-203.377	-1.124	0.276	-0.194
-202.363	-146.162	0.240	0.021
-201.348	46.581	0.246	0.227
-200.333	-0.649	-0.106	-0.075
-199.319	-91.809	-0.071	0.020
-198.304	-150.501	0.158	-0.012
-197.290	-18.297	0.184	0.115
-196.275	-143.193	0.237	0.023
-195.260	-62.499	0.167	-0.069
-194.246	-200.000	0.010	0.064
-193.231	-200.000	0.003	0.289
-192.217	29.499	0.032	0.027
-191.202	-200.000	-0.010	-0.118
-190.187	206.545	0.199	-0.307
-189.173	-200.000	0.024	0.282
-188.158	-200.000	-0.041	0.272
-187.144	216.999	-0.037	0.058
-186.129	0.868	-0.066	-0.047
-185.114	-83.288	-0.323	-0.103
-184.100	48.186	-0.248	-0.230
-183.085	50.835	-0.136	-0.128
-182.071	162.781	0.119	-0.166
-181.056	-200.000	-0.027	-0.161
-180.042	-157.295	-0.201	-0.012
-179.027	-47.591	0.180	-0.087
-178.012	91.806	0.068	0.077
-176.998	-200.000	0.062	0.376
-175.983	551.136	0.117	0.280
-174.969	64.447	-0.161	-0.161
-173.954	448.774	-0.137	0.299
-172.939	-200.000	0.012	0.186
-171.925	297.230	0.154	0.281
-170.910	50.425	-0.112	-0.105
-169.896	-200.000	-0.048	0.507
-168.881	175.754	-0.155	0.223
-167.866	800.000	-0.076	0.251
-166.852	800.000	-0.066	0.193
-165.837	-200.000	-0.002	0.219
-164.823	-140.747	0.104	0.011
-163.808	243.322	0.102	0.170
-162.793	-15.816	0.083	-0.052
-161.779	58.102	-0.196	0.191
-160.764	88.069	-0.094	-0.103
-159.750	800.000	-0.052	0.181
-158.735	-98.181	0.246	-0.063
-157.720	269.782	-0.062	-0.108
-156.706	-75.179	-0.185	-0.066
-155.691	175.188	0.137	0.196
-154.677	-42.170	-0.276	-0.140
-153.662	-32.462	0.223	0.124
-152.647	-153.061	-0.185	-0.013
-151.633	227.028	0.155	-0.249
-150.618	-44.871	0.048	-0.024
-149.604	-153.000	0.232	-0.016
-148.589	-10.349	0.063	-0.041
-147.574	-141.747	-0.449	-0.045
-146.560	-38.025	0.065	0.034
-145.545	79.287	-0.205	0.218
-144.531	152.366	-0.159	-0.215
-143.516	244.329	-0.170	0.284
-142.502	800.000	-0.117	0.353
-141.487	800.000	0.054	0.204
-140.472	-200.000	0.021	-0.272
-139.458	-200.000	0.014	0.142
-138.443	-160.627	-0.384	-0.020
-137.429	-80.560	0.367	-0.121
-136.414	-2.301	-0.282	-0.196
-135.399	-142.753	0.242	0.023
-134.385	182.162	-0.089	0.130
-133.370	-68.474	-0.126	0.048
-132.356	-100.595	0.165	0.041
-131.341	-166.885	-0.451	0.018
-130.326	164.142	0.172	0.240
-129.312	600.765	0.101	-0.250
-128.297	-200.000	-0.003	0.025
-127.283	265.512	-0.160	-0.276
-126.268	-91.738	0.166	-0.047
-125.253	-8.157	0.148	-0.099
-124.239	394.213	-0.139	0.287
-123.224	-83.107	0.129	0.041
-122.210	-40.967	-0.049	0.025
-121.195	226.206	0.171	-0.276
-120.180	800.000	-0.100	-0.355
-119.166	-11.827	-0.131	0.085
-118.151	-60.522	0.166	0.070
-117.137	-82.064	0.153	0.050
-116.122	21.346	0.208	-0.167
-115.107	-200.000	-0.030	-0.289
-114.093	-91.693	-0.319	-0.090
-113.078	64.900	0.085	0.085
-112.064	-35.207	-0.293	0.158
-111.049	800.000	-0.032	-0.122
-110.034	78.776	0.224	0.237
-109.020	-2.406	0.121	0.084
-108.005	800.000	-0.068	-0.214
-106.991	-122.102	0.264	-0.043
-105.976	-13.417	0.052	0.034
-104.962	800.000	0.076	0.283
-103.947	800.000	-0.025	-0.087
-102.932	-53.728	0.193	0.087
-101.918	-24.701	-0.221	0.130
-100.903	-89.136	-0.215	-0.063
-99.889	-112.145	0.115	-0.023
-98.874	76.552	0.175	0.184
-97.859	-200.000	-0.099	-0.000
-96.845	123.711	0.063	0.078
-95.830	-200.000	-0.068	0.377
-94.816	800.000	-0.066	0.230
-93.801	-16.723	0.129	0.081
-92.786	299.027	-0.055	-0.099
-91.772	2.500	0.188	0.135
-90.757	-200.000	0.027	0.143
-89.743	17.657	0.278	-0.219
-88.728	471.787	-0.112	-0.250
-87.713	-165.251	-0.289	0.013
-86.699	-60.926	0.347	-0.145
-85.684	25.197	-0.166	0.136
-84.670	-125.347	-0.226	-0.034
-83.655	800.000	-0.048	0.136
-82.640	195.344	-0.048	0.073
-81.626	-5.001	0.087	0.059
-80.611	-200.000	-0.032	0.182
-79.597	217.160	-0.089	0.140
-78.582	-200.000	-0.037	-0.235
-77.567	14.381	-0.151	0.116
-76.553	-200.000	0.058	-0.261
-75.538	800.000	-0.090	0.341
-74.524	-105.752	0.067	-0.015
-73.509	-155.534	0.207	-0.013
-72.494	-179.838	0.232	-0.005
-71.480	252.120	-0.143	0.242
-70.465	-200.000	0.037	0.419
-69.451	-200.000	-0.022	-0.161
-68.436	200.607	0.174	0.264
-67.422	137.617	-0.050	0.065
-66.407	34.693	-0.207	0.179
-65.392	-79.360	-0.381	-0.128
-64.378	220.838	-0.230	-0.365
-63.363	303.991	0.056	0.103
-62.349	-200.000	-0.027	-0.157
-61.334	-8.898	-0.995	-0.660
-60.319	13.952	0.325	0.250
-59.305	-200.000	-0.010	-0.758
-58.290	369.484	0.328	0.657
-57.276	400.318	0.746	1.548
-56.261	-200.000	97.533	575.112
-55.246	619.395	1408.021	3499.265
-54.232	184.857	2616.705	3837.316
-53.217	119.890	2187.078	2681.297
-52.203	45.795	1634.687	1494.579
-51.188	37.564	1368.808	1200.909
-50.173	34.383	1326.019	1144.266
-49.159	56.223	1375.221	1320.681
-48.144	59.903	1392.407	1359.575
-47.130	37.959	1347.275	1184.232
-46.115	34.339	1329.284	1146.635
-45.100	34.155	1324.931	1141.732
-44.086	34.049	1322.578	1139.022
-43.071	33.941	1320.243	1136.324
-42.057	33.927	1318.060	1134.317
-41.042	34.003	1315.973	1132.928
-40.027	34.074	1315.168	1132.610
-39.013	34.006	1313.198	1130.467
-37.998	34.055	1311.117	1128.919
-36.984	34.175	1309.271	1127.998
-35.969	34.147	1307.506	1126.266
-34.954	34.090	1306.020	1124.605
-33.940	34.160	1304.918	1124.026
-32.925	34.174	1303.420	1122.775
-31.911	34.240	1301.736	1121.665
-30.896	34.235	1300.492	1120.518
-29.881	34.203	1298.721	1118.762
-28.867	34.165	1298.065	1117.930
-27.852	34.265	1295.799	1116.521
-26.838	34.295	1294.110	1115.197
-25.823	34.290	1293.305	1114.430
-24.809	34.225	1292.033	1112.905
-23.794	34.230	1290.729	1111.767
-22.779	34.255	1289.097	1110.466
-21.765	34.133	1288.097	1108.849
-20.750	34.295	1286.160	1108.082
-19.736	33.976	1285.500	1105.613
-18.721	34.145	1283.925	1105.197
-17.706	34.079	1282.980	1103.957
-16.692	34.103	1281.670	1102.921
-15.677	34.082	1280.549	1101.794
-14.663	34.098	1279.488	1100.929
-13.648	34.110	1278.595	1100.186
-12.633	34.090	1277.348	1098.956
-11.619	34.020	1277.035	1098.240
-10.604	33.970	1275.983	1097.003
-9.590	34.010	1275.088	1096.420
-8.575	34.036	1273.908	1095.508
-7.560	34.024	1273.430	1094.984
-6.546	34.066	1272.128	1094.066
-5.531	34.042	1271.186	1093.071
-4.517	34.012	1270.390	1092.172
-3.502	34.181	1269.247	1092.116
-2.487	34.007	1268.741	1090.642
-1.473	34.159	1264.370	1087.706
-0.458	32.720	1249.888	1067.069
0.556	27.854	1232.055	1027.506
1.571	24.090	1236.529	1009.843
2.586	23.037	1251.967	1016.305
3.600	22.368	1241.082	1003.566
4.615	17.424	1168.898	918.495
5.629	9.117	1092.663	816.435
6.644	5.270	1071.898	781.630
7.659	4.907	1069.188	777.775
8.673	5.025	1067.703	777.215
9.688	4.838	1066.821	775.570
10.702	5.097	1065.294	775.680
11.717	10.372	1072.499	807.198
12.731	17.622	1082.948	851.347
13.746	19.479	1084.467	861.743
14.761	18.104	1081.727	852.637
15.775	16.996	1079.446	845.249
16.790	15.930	1077.430	838.292
17.804	15.328	1075.856	834.001
18.819	14.865	1074.976	830.946
19.834	14.593	1073.914	828.696
20.848	14.356	1072.943	826.702
21.863	14.129	1071.992	824.769
22.877	14.026	1071.523	823.822
23.892	14.063	1070.370	823.046
24.907	13.994	1069.628	822.061
25.921	14.057	1068.731	821.614
26.936	13.959	1067.748	820.301
27.950	14.119	1066.257	819.870
28.965	14.269	1064.548	819.222
29.980	14.251	1063.122	817.964
30.994	14.251	1062.246	817.220
32.009	14.371	1061.248	816.969
33.023	14.294	1059.768	815.379
34.038	14.273	1058.691	814.376
35.053	14.134	1058.033	813.116
36.067	14.111	1056.957	812.106
37.082	14.070	1056.294	811.324
38.096	14.177	1055.407	811.092
39.111	14.255	1054.570	810.760
40.126	14.090	1053.285	808.897
41.140	13.937	1052.018	807.109
42.155	13.846	1050.966	805.788
43.169	13.850	1050.163	805.121
44.184	13.845	1048.891	804.048
45.199	14.009	1047.309	803.558
46.213	13.970	1046.815	802.917
47.228	14.097	1045.646	802.567
48.242	13.977	1044.863	801.315
49.257	14.093	1043.513	800.768
50.271	14.080	1042.857	800.131
51.286	14.151	1041.922	799.683
52.301	13.966	1041.603	798.477
53.315	14.065	1039.668	797.401
54.330	14.060	1039.437	797.125
55.344	14.035	1038.004	795.838
56.359	14.022	1037.296	795.164
57.374	13.861	1036.382	793.620
58.388	13.807	1035.755	792.812
59.403	13.897	1034.341	792.092
60.417	13.838	1033.757	791.294
61.432	13.783	1033.222	790.550
62.447	13.923	1032.129	790.310
63.461	13.738	1031.721	789.051
64.476	13.791	1030.468	788.273
65.490	13.848	1029.463	787.703
66.505	13.788	1029.093	787.067
67.520	13.927	1028.576	787.261
68.534	13.923	1027.813	786.590
69.549	13.895	1026.928	785.707
70.563	13.849	1025.852	784.597
71.578	13.923	1024.798	784.071
72.593	13.761	1024.382	782.920
73.607	13.811	1023.327	782.282
74.622	13.784	1023.161	781.958
75.636	13.900	1022.384	781.840
76.651	13.838	1021.779	781.016
77.666	13.814	1021.381	780.528
78.680	13.869	1020.444	780.004
79.695	13.816	1019.690	779.111
80.709	14.041	1018.909	779.498
81.724	13.991	1018.684	779.022
82.739	14.013	1017.980	778.517
83.753	14.039	1017.107	777.904
84.768	14.244	1015.837	777.820
85.782	14.274	1015.077	777.313
86.797	14.195	1014.303	776.280
87.812	14.099	1013.951	775.498
88.826	14.168	1012.671	774.770
89.841	14.063	1011.950	773.659
90.855	14.218	1010.621	773.297
91.870	14.209	1010.301	772.940
92.884	14.277	1009.204	772.350
93.899	14.170	1008.909	771.560
94.914	14.307	1007.613	771.135
95.928	14.306	1006.579	770.268
96.943	14.288	1006.001	769.675
97.957	14.125	1005.505	768.476
98.972	14.217	1004.465	768.039
99.987	14.257	1003.559	767.461
101.001	14.291	1002.266	766.560
102.016	14.287	1001.531	765.912
103.030	14.259	1001.141	765.418
104.045	14.182	1000.462	764.478
105.060	14.218	999.132	763.559
106.074	14.023	998.206	761.887
107.089	13.956	997.273	760.803
108.103	14.003	996.259	760.177
109.118	13.909	995.378	759.009
110.133	13.845	994.673	758.113
111.147	13.932	993.524	757.566
112.162	13.876	992.761	756.659
113.176	14.037	992.126	756.844
114.191	14.122	991.549	756.723
115.206	14.184	990.542	756.170
116.220	14.130	989.678	755.199
117.235	14.072	988.798	754.197
118.249	13.978	988.038	753.125
119.264	13.983	987.275	752.497
120.279	14.003	986.640	752.037
121.293	13.953	986.025	751.278
122.308	13.872	984.764	749.886
123.322	13.838	983.683	748.841
124.337	14.010	982.419	748.587
125.352	14.011	981.171	747.573
126.366	13.968	980.749	746.993
127.381	13.915	979.550	745.775
128.395	13.927	978.808	745.202
129.410	14.039	977.679	744.777
130.424	14.078	976.957	744.335
131.439	14.126	976.261	743.954
132.454	14.186	975.483	743.561
133.468	14.118	974.813	742.684
134.483	14.095	973.947	741.855
135.497	14.233	972.546	741.336
136.512	14.025	972.204	740.085
137.527	14.151	971.501	740.045
138.541	14.158	970.499	739.247
139.556	14.152	970.171	738.902
140.570	14.194	969.276	738.345
141.585	14.380	968.553	738.550
142.600	14.368	967.523	737.649
143.614	14.422	966.510	737.050
144.629	14.444	966.069	736.747
145.643	14.271	965.061	735.148
146.658	14.252	964.000	734.191
147.673	14.287	962.747	733.326
148.687	14.166	962.151	732.275
149.702	14.156	961.233	731.466
150.716	14.137	960.348	730.645
151.731	14.239	960.200	730.917
152.746	14.159	959.686	730.106
153.760	14.312	958.296	729.656
154.775	14.366	958.047	729.641
155.789	14.390	957.406	729.193
156.804	14.392	956.599	728.521
157.819	14.392	956.076	728.057
158.833	14.442	955.419	727.713
159.848	14.484	954.968	727.488
160.862	14.333	953.360	725.539
161.877	14.332	952.593	724.888
162.892	14.293	951.492	723.817
163.906	14.260	950.837	723.111
164.921	14.136	949.813	721.730
165.935	14.305	949.012	721.789
166.950	14.346	948.132	721.233
167.964	14.400	947.298	720.768
168.979	14.374	946.174	719.739
169.994	14.231	945.632	718.647
171.008	14.386	944.628	718.489
172.023	14.531	944.002	718.572
173.037	14.486	943.390	717.850
174.052	14.432	942.526	716.895
175.067	14.383	942.165	716.347
176.081	14.339	941.651	715.706
177.096	14.377	940.931	715.259
178.110	14.347	940.534	714.762
179.125	14.456	939.559	714.426
180.140	14.437	939.234	714.033
181.154	14.483	938.712	713.771
182.169	14.550	938.525	713.850
183.183	14.641	937.273	713.226
184.198	14.515	937.019	712.431
185.213	14.687	935.957	712.295
186.227	14.643	935.692	711.840
187.242	14.758	934.723	711.530
188.256	14.750	934.300	711.113
189.271	14.726	933.739	710.522
190.286	14.562	932.520	708.835
191.300	14.351	931.847	707.361
192.315	14.305	931.077	706.520
193.329	14.279	931.206	706.447
194.344	14.477	930.405	706.616
195.359	14.567	929.262	706.068
196.373	14.722	928.604	706.158
197.388	14.775	928.361	706.136
198.402	14.836	927.998	706.053
199.417	14.903	927.516	705.908
200.432	14.932	926.888	705.490
201.446	14.982	925.942	704.918
202.461	14.975	925.524	704.510
203.475	14.958	925.141	704.081
204.490	14.898	923.954	702.866
205.504	14.898	923.351	702.342
206.519	14.743	922.981	701.349
207.534	14.761	922.169	700.745
208.548	14.793	921.390	700.225
209.563	14.879	920.999	700.228
210.577	14.931	920.172	699.753
211.592	15.054	919.164	699.439
212.607	15.143	918.395	699.165
213.621	15.018	917.881	698.191
214.636	15.031	917.209	697.672
215.650	15.135	916.296	697.345
216.665	15.075	915.843	696.692
217.680	15.095	915.415	696.386
218.694	15.137	914.744	695.992
219.709	15.255	914.124	695.945
220.723	15.179	913.097	694.787
221.738	15.202	912.251	694.180
222.753	15.214	911.671	693.724
223.767	15.166	911.335	693.208
224.782	15.222	910.955	693.092
225.796	15.291	910.246	692.777
226.811	15.293	909.376	692.059
227.826	15.391	908.421	691.677
228.840	15.236	908.070	690.709
229.855	15.208	907.364	689.993
230.869	15.210	906.566	689.335
231.884	15.245	905.503	688.611
232.899	15.028	905.077	687.333
233.913	15.101	904.246	686.944
234.928	15.073	903.882	686.491
235.942	15.173	902.998	686.169
236.957	15.132	902.491	685.552
237.972	15.138	901.946	685.104
238.986	15.146	901.245	684.540
240.001	15.312	900.444	684.550
241.015	15.181	900.000	683.620
242.030	15.101	899.584	682.915
243.045	15.171	899.187	682.840
244.059	15.344	898.196	682.732
245.074	15.394	897.516	682.357
246.088	15.447	896.712	681.901
247.103	15.478	896.374	681.710
248.117	15.475	896.165	681.477
249.132	15.622	895.300	681.356
250.147	15.524	894.970	680.647
251.161	15.626	894.150	680.374
252.176	15.730	893.425	680.186
253.190	15.867	892.582	680.037
254.205	15.883	892.293	679.820
255.220	15.755	891.571	678.695
256.234	15.747	890.965	678.141
257.249	15.787	890.148	677.618
258.263	15.836	889.315	677.121
259.278	15.838	888.634	676.552
260.293	15.858	888.394	676.388
261.307	15.943	887.495	675.988
262.322	15.868	886.949	675.211
263.336	15.957	886.389	675.080
264.351	15.997	885.307	674.356
265.366	16.032	884.709	673.981
266.380	16.018	884.520	673.723
267.395	16.028	883.543	672.960
268.409	15.818	883.385	671.942
269.424	15.984	882.248	671.676
270.439	15.841	881.323	670.345
271.453	15.913	881.056	670.371
272.468	15.994	880.326	670.078
273.482	15.839	879.817	669.013
274.497	15.806	879.495	668.579
275.512	15.985	878.430	668.421
276.526	15.914	878.071	667.808
277.541	16.058	877.752	668.074
278.555	16.118	876.973	667.659
279.570	16.220	876.396	667.565
280.585	16.159	875.439	666.538
281.599	16.060	874.485	665.360
282.614	16.066	874.053	664.995
283.628	16.199	873.495	665.036
284.643	16.055	873.256	664.231
285.657	16.107	872.543	663.832
286.672	16.164	871.541	663.235
287.687	16.209	871.176	663.078
288.701	16.126	870.365	662.073
289.716	16.107	870.352	661.932
290.730	16.135	869.822	661.578
291.745	16.234	868.737	661.085
292.760	16.251	868.255	660.725
293.774	16.398	867.509	660.676
294.789	16.312	866.724	659.681
295.803	16.200	866.391	658.935
296.818	16.233	865.781	658.541
297.833	16.363	864.768	658.219
298.847	16.392	863.982	657.675
299.862	16.343	863.498	657.057
300.876	16.467	863.031	657.124
301.891	16.282	862.827	656.194
302.906	16.443	862.414	656.446
303.920	16.630	861.544	656.451
304.935	16.539	861.123	655.718
305.949	16.484	860.420	654.911
306.964	16.514	859.888	654.567
307.979	16.662	859.094	654.477
308.993	16.622	858.662	653.935
310.008	16.570	858.124	653.268
311.022	16.482	857.994	652.769
312.037	16.463	856.869	651.783
313.052	16.461	856.512	651.446
314.066	16.517	855.433	650.785
315.081	16.421	855.322	650.271
316.095	16.418	854.446	649.538
317.110	16.539	853.560	649.270
318.125	16.664	853.086	649.332
319.139	16.667	852.659	648.959
320.154	16.604	852.489	648.533
321.168	16.590	851.910	647.981
322.183	16.517	851.514	647.343
323.197	16.456	850.882	646.572
324.212	16.517	850.635	646.561
325.227	16.589	849.778	646.128
326.241	16.584	849.229	645.631
327.256	16.605	848.538	645.131
328.270	16.598	848.026	644.659
329.285	16.580	847.569	644.184
330.300	16.724	846.761	644.061
331.314	16.636	846.569	643.525
332.329	16.612	845.904	642.871
333.343	16.701	845.774	643.051
334.358	16.697	845.435	642.722
335.373	16.673	844.894	642.163
336.387	16.847	844.370	642.366
337.402	16.826	844.073	642.005
338.416	16.969	843.662	642.177
339.431	17.223	842.953	642.543
340.446	16.984	843.234	641.794
341.460	16.995	842.795	641.447
342.475	17.067	842.416	641.373
343.489	17.101	841.854	641.015
344.504	17.176	841.405	640.900
345.519	17.200	840.796	640.469
346.533	17.071	840.315	639.562
347.548	16.966	839.914	638.805
348.562	16.990	839.295	638.367
349.577	17.075	838.595	638.098
350.592	16.939	838.146	637.188
351.606	16.912	837.101	636.236
352.621	17.061	836.323	636.147
353.635	16.955	835.913	635.380
354.650	17.001	835.161	634.928
355.665	17.123	834.813	635.060
356.679	17.084	834.311	634.479
357.694	17.165	833.704	634.264
358.708	17.080	832.845	633.237
359.723	17.235	832.429	633.440
360.738	17.147	831.552	632.392
361.752	17.204	831.261	632.324
362.767	17.426	830.809	632.751
363.781	17.450	830.114	632.255
364.796	17.417	830.134	632.092
365.810	17.527	829.399	631.883
366.825	17.466	829.330	631.551
367.840	17.498	828.703	631.135
368.854	17.387	828.203	630.285
369.869	17.429	827.502	629.854
370.883	17.302	827.187	629.087
371.898	17.490	827.119	629.674
372.913	17.645	826.507	629.726
373.927	17.671	825.445	628.957
374.942	17.655	825.583	628.950
375.956	17.592	825.269	628.423
376.971	17.719	824.844	628.509
377.986	17.793	823.960	628.052
379.000	17.677	823.592	627.290
380.015	17.760	823.073	627.144
381.029	17.783	822.423	626.678
382.044	17.666	822.367	626.150
383.059	17.750	821.469	625.720
384.073	17.753	820.655	625.055
385.088	17.676	820.295	624.445
386.102	17.592	819.720	623.643
387.117	17.635	819.354	623.465
388.132	17.642	818.552	622.828
389.146	17.710	818.032	622.625
390.161	17.808	817.757	622.718
391.175	17.766	816.965	621.907
392.190	17.843	816.590	621.847
393.205	17.623	816.505	620.924
394.219	17.704	815.587	620.467
395.234	17.642	815.184	619.880
396.248	17.580	814.964	619.431
397.263	17.684	814.431	619.350
398.278	17.585	813.969	618.585
399.292	17.697	813.397	618.502
400.307	17.861	812.902	618.665
401.321	17.648	812.541	617.564
402.336	17.687	811.804	617.090
403.350	17.797	811.648	617.316
404.365	17.839	811.405	617.229
405.380	17.913	810.986	617.122
406.394	18.045	810.218	616.958
407.409	18.058	809.866	616.684
408.423	17.979	810.148	616.557
409.438	18.107	809.346	616.356
410.453	18.192	808.738	616.145
411.467	18.071	808.345	615.355
412.482	18.205	807.611	615.223
413.496	18.154	807.666	615.029
414.511	18.286	807.471	615.299
415.526	18.285	806.736	614.680
416.540	18.169	806.385	613.943
417.555	18.162	805.654	613.306
418.569	18.172	805.411	613.103
419.584	18.296	804.872	613.082
420.599	18.223	804.592	612.553
421.613	153.536	1370.119	1789.952
422.628	133.181	1452.516	1790.044
