DTS Sentinel unit serial number:	SN413079Multiplexer serial number:	ORYXHardware model number:	OX4-SRSoftware version number:	ORYX F/W v4.00 Oryx Data Collector v3.7.2.0data status	okinstallation	princeton_trtdifferential loss correction	single-endedforward channel	channel 1reverse channel	N/Adate	2019/09/12time	17:28:11forward acquisition time	60.00reverse acquisition time	0.00gamma	496.2192k internal	0.2315k external	0.2315temperature offset calibration	1.0099default loss term (dB/km)	0.3790temperature slope calibration	1.0000multiplexer offset coefficient	1.0000multiplexer slope coefficient	1.0000fibre end	0.00T internal ref (°C)	34.67T ext. ref 1 (°C)	2.83T ext. ref 2 (°C)	28.67length (m)	temperature (°C)	Stokes	anti-Stokes-747.200	-100.579	0.129	0.032
-746.185	485.549	-0.073	0.168
-745.171	162.948	-0.031	0.043
-744.156	-200.000	0.045	0.200
-743.142	-126.939	-0.409	-0.061
-742.127	-8.694	-0.297	-0.202
-741.112	13.150	-0.134	0.105
-740.098	-85.580	-0.195	-0.061
-739.083	-200.000	-0.004	0.060
-738.069	63.036	-0.090	0.092
-737.054	-136.371	0.168	0.020
-736.039	1.408	0.034	0.025
-735.025	202.417	0.146	0.228
-734.010	-200.000	-0.028	-0.145
-732.996	150.060	0.133	-0.182
-731.981	39.305	-0.135	0.123
-730.966	-109.953	-0.163	0.035
-729.952	-84.875	0.288	0.091
-728.937	37.737	0.114	-0.102
-727.923	7.911	-0.114	-0.087
-726.908	-135.519	-0.297	-0.036
-725.894	-120.954	-0.243	0.041
-724.879	800.000	0.073	-0.244
-723.864	-200.000	0.077	-0.342
-722.850	-81.837	-0.170	0.057
-721.835	-85.831	-0.134	-0.042
-720.821	-155.686	-0.167	0.011
-719.806	80.235	0.163	0.178
-718.791	-50.470	0.036	-0.017
-717.777	-75.839	0.291	-0.105
-716.762	-92.529	-0.200	0.057
-715.748	-72.570	0.126	0.047
-714.733	-200.000	-0.009	-0.204
-713.718	-90.333	-0.271	-0.080
-712.704	482.657	-0.137	0.316
-711.689	-200.000	0.099	-0.519
-710.675	-149.382	0.253	-0.020
-709.660	800.000	-0.080	-0.253
-708.645	139.177	-0.189	-0.252
-707.631	111.153	0.063	-0.076
-706.616	-200.000	0.009	0.075
-705.602	-200.000	-0.063	-0.349
-704.587	-12.227	-0.535	-0.354
-703.572	-200.000	-0.011	-0.274
-702.558	-200.000	0.037	-0.195
-701.543	724.723	-0.072	-0.194
-700.529	-41.729	-0.094	-0.049
-699.514	-41.848	0.221	0.115
-698.499	-200.000	0.041	-0.449
-697.485	800.000	0.122	-0.359
-696.470	-75.964	-0.171	-0.061
-695.456	5.473	0.213	-0.159
-694.441	800.000	0.054	0.165
-693.426	-29.678	0.184	-0.106
-692.412	-148.186	-0.206	-0.017
-691.397	-200.000	-0.009	-0.113
-690.383	-200.000	0.036	-0.264
-689.368	-51.029	-0.150	-0.071
-688.354	-94.290	-0.279	-0.077
-687.339	-110.409	0.058	-0.012
-686.324	-9.819	0.057	0.039
-685.310	325.949	0.073	-0.141
-684.295	-62.741	0.148	0.062
-683.281	-52.323	0.122	0.057
-682.266	-200.000	-0.027	-0.142
-681.251	536.962	-0.012	0.029
-680.237	4.049	-0.298	0.220
-679.222	82.854	-0.266	-0.292
-678.208	800.000	-0.007	-0.029
-677.193	39.857	0.232	0.210
-676.178	-200.000	0.054	-0.356
-675.164	-108.141	-0.133	0.029
-674.149	139.823	-0.148	0.197
-673.135	-1.061	0.147	0.105
-672.120	237.857	0.153	-0.257
-671.105	800.000	-0.053	-0.188
-670.091	-14.998	-0.016	-0.011
-669.076	800.000	-0.033	-0.100
-668.062	64.864	-0.083	0.085
-667.047	738.892	-0.017	0.045
-666.032	291.264	0.071	-0.131
-665.018	326.122	-0.031	-0.060
-664.003	-99.013	0.069	0.018
-662.989	-200.000	0.007	-0.131
-661.974	-94.823	-0.133	-0.037
-660.959	-138.345	-0.146	0.016
-659.945	119.549	-0.246	0.308
-658.930	98.408	0.224	0.260
-657.916	489.198	-0.084	-0.194
-656.901	341.202	0.219	0.432
-655.886	-148.706	-0.495	0.041
-654.872	-200.000	0.023	0.256
-653.857	-95.068	-0.444	-0.121
-652.843	81.334	-0.130	-0.142
-651.828	-62.903	0.216	-0.090
-650.814	502.320	-0.032	0.074
-649.799	10.709	-0.199	-0.153
-648.784	800.000	-0.079	0.272
-647.770	6.123	-0.338	0.253
-646.755	800.000	0.028	0.085
-645.741	173.990	0.093	0.135
-644.726	144.564	-0.119	0.160
-643.711	-200.000	-0.031	0.308
-642.697	-162.852	-0.415	-0.020
-641.682	-40.095	0.223	-0.118
-640.668	-197.077	0.081	-0.001
-639.653	25.439	-0.159	0.133
-638.638	-123.082	-0.273	-0.044
-637.624	-200.000	0.028	0.143
-636.609	-82.939	0.295	-0.096
-635.595	68.235	0.147	-0.152
-634.580	800.000	0.095	-0.355
-633.565	800.000	0.187	0.581
-632.551	-200.000	0.009	0.059
-631.536	-34.269	-0.155	0.086
-630.522	-48.597	-0.067	-0.033
-629.507	165.650	-0.014	-0.020
-628.492	-135.687	-0.207	-0.025
-627.478	-15.649	-0.296	-0.190
-626.463	104.133	0.129	-0.153
-625.449	85.261	0.185	-0.204
-624.434	6.233	0.366	-0.274
-623.419	-81.244	0.213	-0.071
-622.405	158.823	0.140	0.196
-621.390	3.378	0.295	0.217
-620.376	800.000	-0.060	-0.195
-619.361	-89.081	0.456	0.136
-618.346	800.000	0.038	-0.110
-617.332	16.334	-0.088	-0.070
-616.317	-30.082	-0.155	0.089
-615.303	-200.000	0.017	-0.220
-614.288	800.000	0.017	0.052
-613.273	-126.428	0.467	0.070
-612.259	-50.743	0.262	0.124
-611.244	-89.285	0.109	0.032
-610.230	-200.000	-0.032	-0.260
-609.215	-200.000	0.009	0.067
-608.201	-116.824	-0.102	0.019
-607.186	-129.948	0.303	-0.042
-606.171	-41.801	-0.228	0.118
-605.157	-200.000	-0.058	-0.486
-604.142	-173.040	0.088	0.003
-603.128	-20.224	0.130	-0.081
-602.113	-177.529	0.220	-0.005
-601.098	195.983	0.095	0.145
-600.084	-30.256	-0.208	-0.119
-599.069	403.976	0.155	-0.329
-598.055	-24.530	0.153	0.092
-597.040	-200.000	0.023	-0.565
-596.025	-16.925	-0.023	-0.014
-595.011	695.426	-0.094	-0.248
-593.996	800.000	0.058	0.236
-592.982	-75.340	-0.275	0.099
-591.967	800.000	-0.057	-0.240
-590.952	-75.383	0.072	0.026
-589.938	-137.490	0.181	-0.021
-588.923	181.238	0.083	0.123
-587.909	-98.059	-0.232	-0.060
-586.894	190.332	0.185	0.279
-585.879	-147.555	0.233	-0.020
-584.865	-130.959	0.332	-0.045
-583.850	-18.470	0.089	-0.056
-582.836	196.507	-0.237	-0.363
-581.821	523.711	0.107	-0.254
-580.806	-106.255	-0.110	-0.025
-579.792	20.944	0.099	0.081
-578.777	-67.753	-0.175	0.069
-577.763	-200.000	0.015	0.101
-576.748	-94.339	-0.221	-0.061
-575.733	-200.000	-0.055	-0.418
-574.719	-41.170	0.264	-0.137
-573.704	800.000	0.042	-0.186
-572.690	-200.000	-0.270	-0.000
-571.675	306.106	-0.101	0.189
-570.661	800.000	-0.096	0.349
-569.646	-126.870	0.222	0.033
-568.631	-99.605	0.211	-0.053
-567.617	148.075	0.138	-0.187
-566.602	329.432	-0.093	0.180
-565.588	21.872	-0.301	0.247
-564.573	-200.000	-0.007	0.036
-563.558	-200.000	-0.001	-0.077
-562.544	493.872	0.088	0.204
-561.529	98.094	-0.178	-0.206
-560.515	800.000	0.029	0.085
-559.500	301.377	-0.136	0.253
-558.485	800.000	0.092	0.292
-557.471	-40.931	-0.155	0.081
-556.456	59.850	-0.193	0.191
-555.442	-14.720	0.170	-0.110
-554.427	60.790	0.228	0.228
-553.412	206.696	0.132	0.207
-552.398	7.155	0.199	-0.149
-551.383	-200.000	0.026	0.250
-550.369	-105.226	-0.035	0.008
-549.354	626.016	0.062	0.158
-548.339	-171.456	0.173	-0.006
-547.325	-100.337	0.031	0.008
-546.310	-200.000	-0.058	-0.526
-545.296	-200.000	0.067	-0.324
-544.281	627.343	-0.163	-0.413
-543.266	92.396	-0.140	0.159
-542.252	-155.683	-0.209	0.013
-541.237	-52.470	-0.350	0.163
-540.223	370.692	0.085	-0.174
-539.208	345.299	-0.115	0.227
-538.193	13.303	-0.330	0.257
-537.179	378.699	0.114	0.235
-536.164	65.839	-0.208	-0.211
-535.150	142.136	-0.078	0.104
-534.135	-89.906	-0.230	-0.067
-533.121	-101.727	-0.137	0.033
-532.106	-135.280	0.138	-0.017
-531.091	-200.000	-0.008	-0.148
-530.077	149.645	0.094	-0.129
-529.062	114.962	-0.081	0.099
-528.048	449.365	0.132	-0.293
-527.033	-128.068	-0.250	-0.036
-526.018	103.784	0.187	-0.221
-525.004	-82.869	-0.062	0.020
-523.989	95.378	-0.031	-0.035
-522.975	-200.000	-0.036	-0.340
-521.960	-200.000	-0.028	0.195
-520.945	170.235	-0.038	0.055
-519.931	176.044	0.059	-0.086
-518.916	-58.230	-0.277	0.121
-517.902	-48.938	0.175	0.084
-516.887	-31.106	-0.283	-0.160
-515.872	-200.000	0.020	-0.398
-514.858	-40.737	-0.192	0.100
-513.843	-33.608	-0.137	-0.076
-512.829	-200.000	0.025	-0.143
-511.814	-47.611	-0.130	0.063
-510.799	-53.396	0.288	0.132
-509.785	52.699	0.234	-0.225
-508.770	-83.855	-0.461	-0.147
-507.756	-200.000	-0.045	0.214
-506.741	-63.668	-0.293	-0.121
-505.726	258.469	-0.055	0.095
-504.712	-27.555	0.207	0.121
-503.697	-200.000	0.006	0.110
-502.683	47.371	-0.257	-0.240
-501.668	-109.943	0.108	-0.023
-500.653	-176.452	0.043	0.001
-499.639	-200.000	-0.046	-0.211
-498.624	-200.000	0.052	-0.358
-497.610	34.607	-0.185	0.163
-496.595	-175.129	-0.216	0.006
-495.581	-54.931	-0.368	0.167
-494.566	800.000	-0.018	0.054
-493.551	800.000	-0.084	-0.278
-492.537	-200.000	-0.023	0.207
-491.522	-200.000	0.008	0.060
-490.508	162.958	0.118	-0.166
-489.493	-200.000	-0.023	-0.251
-488.478	-174.316	0.396	0.011
-487.464	-183.329	0.390	-0.007
-486.449	-150.347	0.149	0.011
-485.435	-42.602	-0.207	0.106
-484.420	24.407	-0.068	-0.056
-483.405	343.131	0.035	0.069
-482.391	-3.704	0.141	0.098
-481.376	-88.384	-0.259	-0.077
-480.362	174.115	-0.071	0.103
-479.347	-71.561	-0.143	0.054
-478.332	166.667	-0.065	0.092
-477.318	-81.120	0.378	0.125
-476.303	237.394	-0.101	0.167
-475.289	-49.365	-0.187	-0.090
-474.274	-176.798	0.189	0.005
-473.259	88.104	-0.201	-0.224
-472.245	-139.777	-0.369	0.039
-471.230	-200.000	0.048	-0.319
-470.216	-163.286	0.076	-0.004
-469.201	-136.655	0.031	0.004
-468.186	30.251	-0.130	-0.111
-467.172	-181.513	0.265	0.005
-466.157	800.000	0.072	-0.217
-465.143	-144.823	-0.089	-0.008
-464.128	-95.093	0.131	-0.036
-463.113	-61.869	-0.139	-0.058
-462.099	-200.000	-0.001	-0.015
-461.084	-200.000	-0.005	-0.153
-460.070	264.786	-0.266	-0.465
-459.055	-200.000	-0.013	0.093
-458.040	-84.805	-0.303	0.095
-457.026	800.000	-0.058	-0.168
-456.011	800.000	-0.050	0.173
-454.997	21.057	-0.257	-0.209
-453.982	88.573	-0.362	-0.403
-452.968	-111.810	-0.075	0.015
-451.953	-200.000	-0.003	0.105
-450.938	-179.476	0.244	-0.005
-449.924	-200.000	-0.027	-0.189
-448.909	-17.899	-0.107	0.067
-447.895	-94.775	-0.125	-0.034
-446.880	-50.339	-0.280	0.133
-445.865	-98.422	0.253	0.065
-444.851	-200.000	-0.077	0.353
-443.836	-50.287	0.320	0.151
-442.822	519.469	0.064	0.149
-441.807	-135.829	-0.162	0.019
-440.792	-0.503	-0.174	-0.124
-439.778	-200.000	-0.012	0.248
-438.763	12.425	-0.216	0.167
-437.749	-200.000	0.003	0.207
-436.734	107.356	0.065	0.078
-435.719	140.090	0.179	0.236
-434.705	-200.000	0.006	-0.315
-433.690	-150.227	-0.392	0.030
-432.676	310.645	0.036	-0.067
-431.661	-73.049	-0.212	-0.078
-430.646	800.000	-0.041	0.124
-429.632	-173.992	-0.038	0.001
-428.617	-134.443	-0.264	-0.032
-427.603	-109.587	0.248	-0.052
-426.588	474.353	0.058	0.131
-425.573	-25.441	0.207	-0.122
-424.559	628.474	0.122	-0.309
-423.544	181.922	-0.154	0.227
-422.530	379.772	0.138	-0.283
-421.515	75.464	0.183	0.193
-420.500	-87.790	0.211	-0.064
-419.486	329.789	-0.231	0.445
-418.471	-181.170	-0.141	0.003
-417.457	343.678	-0.173	-0.340
-416.442	800.000	-0.024	-0.072
-415.428	335.627	0.129	0.250
-414.413	369.158	0.109	-0.221
-413.398	-87.450	-0.304	-0.092
-412.384	-133.332	0.238	0.030
-411.369	-162.913	-0.313	0.015
-410.355	-200.000	0.093	0.000
-409.340	25.724	-0.157	0.131
-408.325	143.413	-0.176	-0.234
-407.311	-108.068	0.072	0.016
-406.296	72.094	0.145	-0.151
-405.282	99.470	0.029	0.033
-404.267	-54.024	0.258	-0.117
-403.252	19.081	0.174	0.140
-402.238	477.521	-0.041	-0.093
-401.223	130.371	-0.117	-0.149
-400.209	237.403	-0.156	0.258
-399.194	220.430	-0.116	0.186
-398.179	-200.000	0.074	0.617
-397.165	240.167	-0.059	0.098
-396.150	800.000	0.064	-0.245
-395.136	71.866	-0.169	0.175
-394.121	-200.000	-0.039	0.282
-393.106	-200.000	-0.000	0.064
-392.092	69.045	-0.192	0.197
-391.077	146.453	0.122	-0.163
-390.063	-95.780	0.293	0.078
-389.048	-200.000	-0.003	0.019
-388.033	800.000	-0.047	0.150
-387.019	395.625	-0.086	0.179
-386.004	115.958	0.021	0.026
-384.990	230.060	-0.053	0.086
-383.975	-2.138	-0.150	-0.105
-382.960	161.985	0.080	-0.112
-381.946	50.363	-0.151	-0.142
-380.931	131.503	0.115	0.148
-379.917	-32.445	0.025	-0.014
-378.902	-200.000	-0.083	-0.506
-377.888	126.024	0.090	-0.114
-376.873	-62.478	0.073	-0.030
-375.858	-200.000	0.052	-0.233
-374.844	46.128	-0.267	-0.247
-373.829	141.780	-0.079	-0.105
-372.815	153.465	0.048	0.066
-371.800	-74.508	-0.302	0.109
-370.785	-200.000	0.033	-0.152
-369.771	-71.176	0.340	-0.127
-368.756	-200.000	0.019	-0.301
-367.742	664.209	-0.070	-0.180
-366.727	-22.487	0.265	-0.160
-365.712	-115.704	-0.169	-0.032
-364.698	61.605	0.290	0.288
-363.683	-138.579	0.054	0.006
-362.669	228.934	-0.118	0.191
-361.654	692.455	0.077	-0.203
-360.639	26.258	0.139	-0.116
-359.625	236.231	-0.162	0.268
-358.610	-20.460	0.058	-0.036
-357.596	6.030	0.227	0.168
-356.581	-53.257	0.207	0.095
-355.566	319.220	0.185	-0.349
-354.552	-200.000	0.042	-0.390
-353.537	800.000	0.032	0.122
-352.523	-72.462	-0.460	0.170
-351.508	-61.328	-0.068	0.028
-350.493	-80.621	-0.385	0.128
-349.479	83.002	-0.188	0.204
-348.464	800.000	-0.124	0.514
-347.450	800.000	0.086	-0.332
-346.435	-123.066	0.178	0.029
-345.420	-102.539	0.366	-0.087
-344.406	800.000	0.046	-0.136
-343.391	366.753	-0.064	-0.130
-342.377	-119.575	0.332	-0.057
-341.362	-86.477	0.471	-0.144
-340.348	-1.588	-0.293	0.206
-339.333	403.159	-0.081	0.169
-338.318	-1.949	-0.062	0.043
-337.304	-3.642	0.124	0.086
-336.289	-94.466	-0.267	-0.073
-335.275	-136.666	0.133	-0.015
-334.260	-200.000	-0.016	0.216
-333.245	40.316	0.097	-0.087
-332.231	-71.650	0.123	0.046
-331.216	-117.139	0.250	-0.045
-330.202	-18.738	0.201	0.125
-329.187	86.989	-0.135	0.149
-328.172	-98.157	0.210	-0.054
-327.158	-30.102	0.138	-0.079
-326.143	-200.000	0.026	-0.166
-325.129	-59.959	0.182	0.077
-324.114	-71.513	-0.077	0.029
-323.099	-69.715	-0.042	0.016
-322.085	-200.000	0.002	-0.416
-321.070	-200.000	-0.011	-0.246
-320.056	-12.257	0.071	0.046
-319.041	-152.694	-0.148	0.011
-318.026	-200.000	0.015	0.317
-317.012	-92.183	0.255	-0.072
-315.997	168.326	0.122	0.172
-314.983	-157.380	-0.023	-0.001
-313.968	-200.000	-0.007	-0.233
-312.953	47.844	0.102	-0.095
-311.939	-12.379	-0.120	0.078
-310.924	-70.940	0.157	0.059
-309.910	-200.000	0.087	0.468
-308.895	216.427	0.108	0.171
-307.880	-200.000	0.027	0.273
-306.866	-134.576	-0.300	-0.037
-305.851	-73.915	-0.363	0.131
-304.837	-17.882	0.054	-0.034
-303.822	-96.891	-0.282	0.074
-302.807	84.618	-0.154	-0.167
-301.793	60.941	0.171	-0.169
-300.778	-200.000	-0.007	-0.312
-299.764	39.579	0.296	0.264
-298.749	-142.844	0.337	0.033
-297.735	-8.668	-0.288	-0.192
-296.720	-3.919	-0.093	0.064
-295.705	-200.000	0.003	-0.047
-294.691	444.134	-0.100	-0.217
-293.676	200.084	0.275	-0.420
-292.662	-172.227	-0.228	-0.007
-291.647	800.000	0.056	0.239
-290.632	374.542	-0.094	0.190
-289.618	800.000	-0.061	-0.205
-288.603	43.310	-0.219	0.199
-287.589	653.819	-0.108	0.275
-286.574	-95.078	-0.092	-0.025
-285.559	-94.916	0.053	0.014
-284.545	-148.695	0.268	-0.022
-283.530	-152.370	0.055	0.004
-282.516	186.118	0.083	-0.123
-281.501	499.938	-0.062	0.142
-280.486	-200.000	0.015	0.268
-279.472	-200.000	0.031	0.170
-278.457	71.238	-0.121	0.125
-277.443	-200.000	-0.047	-0.327
-276.428	-200.000	0.023	-0.202
-275.413	-200.000	0.001	-0.119
-274.399	-200.000	0.038	0.261
-273.384	516.896	0.124	0.288
-272.370	49.487	-0.119	0.111
-271.355	-144.976	0.123	0.011
-270.340	360.238	-0.009	-0.017
-269.326	61.790	-0.097	0.097
-268.311	800.000	-0.023	0.086
-267.297	407.786	0.124	0.261
-266.282	202.674	-0.223	0.342
-265.267	-69.642	0.255	-0.097
-264.253	-200.000	-0.004	0.037
-263.238	-19.391	0.118	-0.073
-262.224	-200.000	-0.017	-0.077
-261.209	-108.922	0.182	-0.039
-260.195	80.478	-0.149	-0.160
-259.180	-200.000	-0.042	0.220
-258.165	81.571	-0.425	0.457
-257.151	-14.050	-0.215	-0.138
-256.136	800.000	-0.078	-0.333
-255.122	-200.000	-0.019	0.094
-254.107	211.729	-0.112	0.175
-253.092	-128.194	0.077	0.011
-252.078	1.712	-0.226	-0.162
-251.063	-141.313	0.064	0.006
-250.049	-200.000	0.015	0.174
-249.034	-145.126	0.221	0.020
-248.019	176.565	-0.135	-0.195
-247.005	73.250	-0.173	0.179
-245.990	-90.588	-0.272	-0.078
-244.976	-69.617	0.329	0.125
-243.961	-200.000	0.020	-0.187
-242.946	-35.964	0.375	0.201
-241.932	-200.000	0.002	0.145
-240.917	-200.000	0.015	0.142
-239.903	-28.328	-0.563	0.323
-238.888	112.601	-0.159	-0.191
-237.873	123.178	0.171	-0.213
-236.859	64.278	0.242	-0.242
-235.844	-99.160	0.187	-0.047
-234.830	-4.810	0.261	-0.179
-233.815	39.351	-0.093	-0.083
-232.800	-40.050	0.103	0.053
-231.786	-26.453	-0.180	-0.105
-230.771	20.213	0.111	-0.089
-229.757	380.191	-0.155	-0.315
-228.742	-197.785	-0.480	0.003
-227.727	113.473	0.202	-0.244
-226.713	494.640	-0.176	-0.402
-225.698	-74.566	-0.429	0.153
-224.684	-47.104	0.168	0.081
-223.669	200.860	-0.245	0.374
-222.655	-200.000	0.078	0.507
-221.640	-200.000	0.118	0.531
-220.625	469.689	0.084	-0.187
-219.611	800.000	-0.055	-0.153
-218.596	79.937	0.180	-0.193
-217.582	717.829	0.046	0.122
-216.567	-18.191	-0.297	-0.184
-215.552	-54.643	0.196	-0.088
-214.538	113.431	-0.243	-0.292
-213.523	28.542	0.168	-0.141
-212.509	-195.469	0.254	-0.002
-211.494	10.646	0.210	0.159
-210.479	-41.141	0.089	0.046
-209.465	269.273	-0.046	-0.080
-208.450	-200.000	0.030	0.519
-207.436	59.059	0.214	0.208
-206.421	-133.701	0.111	-0.014
-205.406	-200.000	-0.030	0.138
-204.392	-200.000	-0.089	-0.448
-203.377	287.306	0.146	0.262
-202.363	-21.008	0.406	-0.247
-201.348	800.000	0.031	0.124
-200.333	551.206	0.022	0.053
-199.319	-91.974	-0.336	-0.095
-198.304	-101.455	0.101	-0.024
-197.290	96.223	0.118	0.134
-196.275	-59.586	0.338	-0.144
-195.260	282.547	-0.215	0.382
-194.246	-147.817	0.280	-0.023
-193.231	-142.178	0.157	-0.015
-192.217	176.899	-0.134	0.194
-191.202	-200.000	-0.003	0.230
-190.187	-195.620	0.153	0.001
-189.173	-57.773	-0.146	-0.064
-188.158	140.599	0.096	0.126
-187.144	-200.000	-0.005	0.089
-186.129	-106.319	0.308	0.068
-185.114	323.364	0.143	0.270
-184.100	211.728	0.138	0.215
-183.085	-81.456	-0.359	0.117
-182.071	-12.255	-0.151	0.098
-181.056	-121.318	0.536	-0.089
-180.042	9.444	-0.431	-0.324
-179.027	-156.965	-0.124	0.008
-178.012	-71.900	0.310	0.114
-176.998	800.000	-0.111	0.348
-175.983	57.146	-0.187	-0.181
-174.969	-72.426	0.038	0.014
-173.954	294.870	0.086	-0.155
-172.939	3.752	0.273	0.198
-171.925	-73.476	-0.124	-0.045
-170.910	272.487	-0.005	0.009
-169.896	-28.890	-0.142	0.081
-168.881	-62.357	-0.280	-0.115
-167.866	-38.952	0.301	-0.157
-166.852	131.400	0.193	0.245
-165.837	-200.000	-0.062	0.471
-164.823	-90.028	-0.288	0.083
-163.808	-200.000	0.234	-0.001
-162.793	-41.767	-0.093	-0.047
-161.779	121.290	-0.079	0.098
-160.764	60.675	0.121	-0.118
-159.750	-200.000	0.023	-0.468
-158.735	-108.334	0.154	0.033
-157.720	36.436	-0.144	-0.126
-156.706	-72.201	-0.049	-0.018
-155.691	-200.000	-0.028	-0.341
-154.677	131.550	0.164	0.209
-153.662	-180.460	0.257	-0.005
-152.647	-45.413	0.216	0.106
-151.633	800.000	0.117	-0.486
-150.618	203.374	0.187	-0.287
-149.604	-162.867	-0.180	0.009
-148.589	9.109	-0.209	-0.156
-147.574	-79.794	0.209	-0.070
-146.560	800.000	0.063	0.257
-145.545	385.704	0.112	0.229
-144.531	320.883	0.042	0.078
-143.516	44.789	-0.102	0.093
-142.502	30.099	-0.093	0.079
-141.487	-123.073	-0.295	-0.047
-140.472	-29.528	-0.080	0.045
-139.458	-139.165	-0.409	0.044
-138.443	561.183	0.084	-0.200
-137.429	-53.278	-0.067	-0.030
-136.414	64.301	-0.109	-0.108
-135.399	-28.103	-0.135	-0.077
-134.385	95.500	-0.111	-0.126
-133.370	171.565	-0.136	-0.193
-132.356	800.000	-0.076	0.215
-131.341	-117.946	0.101	-0.018
-130.326	800.000	0.069	-0.284
-129.312	-200.000	0.015	-0.132
-128.297	-31.831	-0.076	0.042
-127.283	59.900	-0.276	-0.269
-126.268	-73.434	-0.234	0.084
-125.253	123.858	0.020	-0.025
-124.239	134.749	0.070	0.090
-123.224	800.000	-0.103	-0.379
-122.210	-114.517	-0.428	-0.081
-121.195	-32.558	-0.237	-0.131
-120.180	-175.126	-0.114	-0.003
-119.166	46.961	-0.243	-0.224
-118.151	800.000	0.027	0.108
-117.137	-173.682	0.199	-0.006
-116.122	-28.927	0.329	-0.187
-115.107	192.577	0.148	-0.221
-114.093	-149.423	-0.208	0.016
-113.078	-84.047	-0.357	0.112
-112.064	800.000	-0.109	-0.363
-111.049	578.565	-0.151	-0.364
-110.034	800.000	0.072	-0.300
-109.020	14.656	-0.125	0.096
-108.005	800.000	0.011	-0.043
-106.991	-200.000	0.015	0.314
-105.976	800.000	0.042	0.175
-104.962	-200.000	-0.036	-0.431
-103.947	300.268	0.105	-0.191
-102.932	35.202	0.155	0.134
-101.918	-88.748	-0.446	-0.131
-100.903	-15.224	0.086	-0.055
-99.889	607.157	0.077	-0.190
-98.874	-74.960	-0.196	-0.069
-97.859	-71.834	0.180	-0.066
-96.845	-200.000	0.048	-0.240
-95.830	-29.085	-0.280	-0.158
-94.816	-129.662	0.358	0.049
-93.801	800.000	-0.061	-0.257
-92.786	800.000	0.125	-0.367
-91.772	-19.199	0.199	-0.122
-90.757	80.709	0.122	0.130
-89.743	-200.000	-0.070	-0.335
-88.728	800.000	0.077	-0.247
-87.713	150.963	-0.149	-0.201
-86.699	146.403	-0.049	0.065
-85.684	254.170	0.224	-0.378
-84.670	14.211	-0.054	-0.041
-83.655	-100.345	0.239	-0.058
-82.640	711.743	-0.034	-0.088
-81.626	50.567	-0.148	0.139
-80.611	-36.527	0.281	0.149
-79.597	800.000	0.144	-0.490
-78.582	800.000	-0.064	0.215
-77.567	211.432	0.091	0.141
-76.553	-22.087	0.233	0.140
-75.538	291.437	0.088	0.159
-74.524	-200.000	-0.001	0.071
-73.509	-44.442	0.146	-0.072
-72.494	-62.319	-0.103	0.042
-71.480	-180.685	0.163	-0.003
-70.465	-68.897	0.106	0.040
-69.451	-200.000	-0.100	0.535
-68.436	-10.507	-0.129	0.084
-67.422	800.000	0.069	0.200
-66.407	-150.621	-0.048	-0.004
-65.392	-158.123	-0.428	0.025
-64.378	-30.030	0.217	0.122
-63.363	26.304	0.068	0.056
-62.349	800.000	0.108	0.296
-61.334	130.373	-0.667	-0.843
-60.319	-200.000	-0.010	0.465
-59.305	178.515	-0.532	-0.767
-58.290	284.980	0.581	1.032
-57.276	800.000	0.522	1.464
-56.261	-200.000	97.213	588.930
-55.246	561.906	1383.777	3300.919
-54.232	155.102	2575.483	3493.508
-53.217	116.447	2153.846	2604.185
-52.203	46.553	1612.369	1475.624
-51.188	38.082	1350.785	1185.041
-50.173	34.793	1308.438	1128.463
-49.159	57.935	1357.347	1310.157
-48.144	61.502	1375.855	1349.353
-47.130	38.390	1330.582	1168.970
-46.115	34.865	1312.676	1132.362
-45.100	34.628	1307.870	1126.770
-44.086	34.617	1305.595	1124.707
-43.071	34.568	1303.217	1122.323
-42.057	34.455	1301.151	1119.832
-41.042	34.471	1299.647	1118.590
-40.027	34.599	1297.993	1117.874
-39.013	34.586	1295.908	1115.956
-37.998	34.561	1294.115	1114.223
-36.984	34.660	1292.685	1113.524
-35.969	34.692	1291.248	1112.430
-34.954	34.665	1289.363	1110.602
-33.940	34.692	1288.196	1109.713
-32.925	34.764	1286.548	1108.667
-31.911	34.787	1285.237	1107.623
-30.896	34.788	1283.764	1106.313
-29.881	34.806	1282.406	1105.207
-28.867	34.798	1281.079	1103.973
-27.852	34.818	1279.894	1103.021
-26.838	34.880	1278.120	1101.810
-25.823	34.820	1276.949	1100.407
-24.809	34.700	1275.743	1098.634
-23.794	34.763	1274.180	1097.606
-22.779	34.737	1273.009	1096.406
-21.765	34.820	1271.737	1095.746
-20.750	34.751	1270.735	1094.441
-19.736	34.657	1269.309	1092.634
-18.721	34.665	1268.081	1091.576
-17.706	34.565	1267.329	1090.313
-16.692	34.688	1265.871	1089.719
-15.677	34.607	1265.016	1088.481
-14.663	34.514	1263.962	1086.997
-13.648	34.642	1262.777	1086.664
-12.633	34.562	1262.003	1085.503
-11.619	34.602	1261.043	1084.858
-10.604	34.601	1259.980	1083.894
-9.590	34.635	1258.820	1083.049
-8.575	34.592	1257.622	1081.730
-7.560	34.546	1257.512	1081.332
-6.546	34.540	1256.358	1080.266
-5.531	34.569	1255.315	1079.488
-4.517	34.689	1254.335	1079.283
-3.502	34.564	1254.064	1078.298
-2.487	34.672	1252.823	1077.796
-1.473	34.500	1248.918	1073.428
-0.458	32.842	1233.500	1050.907
0.556	29.499	1214.895	1008.241
1.571	25.390	1218.624	988.680
2.586	24.110	1233.549	993.564
3.600	23.324	1222.531	980.251
4.615	17.188	1150.078	890.029
5.629	7.428	1073.758	782.936
6.644	3.241	1053.020	747.451
7.659	2.809	1050.264	743.334
8.673	2.578	1049.223	741.414
9.688	2.704	1048.005	741.098
10.702	3.026	1046.121	741.252
11.717	8.816	1055.071	775.623
12.731	18.871	1069.582	835.337
13.746	24.830	1076.552	869.765
14.761	26.162	1078.443	877.698
15.775	26.413	1077.794	878.309
16.790	26.106	1077.261	876.305
17.804	26.045	1076.331	875.176
18.819	26.176	1076.186	875.617
19.834	26.379	1075.499	875.966
20.848	26.440	1074.978	875.757
21.863	26.319	1075.089	875.184
22.877	26.125	1074.336	873.556
23.892	26.245	1073.006	872.979
24.907	26.226	1072.248	872.189
25.921	26.337	1071.274	871.858
26.936	26.237	1070.625	870.768
27.950	26.190	1068.803	868.985
28.965	26.073	1066.742	866.673
29.980	26.078	1065.529	865.631
30.994	26.279	1065.048	866.127
32.009	26.351	1063.710	865.308
33.023	26.055	1062.686	862.982
34.038	26.230	1061.823	863.044
35.053	26.287	1061.241	862.767
36.067	26.270	1060.566	862.061
37.082	26.232	1059.870	861.238
38.096	26.472	1059.148	861.718
39.111	26.642	1058.282	861.744
40.126	26.532	1056.800	859.941
41.140	26.006	1055.411	856.234
42.155	25.837	1054.137	854.327
43.169	25.932	1053.139	853.891
44.184	25.982	1052.203	853.292
45.199	25.828	1051.049	851.552
46.213	26.051	1049.860	851.570
47.228	26.054	1049.950	851.582
48.242	26.064	1049.029	850.805
49.257	26.236	1048.352	850.992
50.271	26.328	1047.584	850.727
51.286	26.285	1046.721	849.748
52.301	26.450	1045.485	849.445
53.315	26.350	1044.613	848.192
54.330	26.191	1043.823	846.729
55.344	26.218	1043.458	846.484
56.359	26.273	1042.059	845.530
57.374	26.017	1041.519	843.822
58.388	25.931	1040.703	842.684
59.403	25.960	1039.591	841.843
60.417	25.951	1038.590	840.915
61.432	25.771	1038.354	839.810
62.447	26.090	1037.716	840.709
63.461	26.134	1036.944	840.211
64.476	25.991	1036.174	838.848
65.490	25.819	1035.411	837.356
66.505	25.894	1034.331	836.762
67.520	25.923	1034.409	836.882
68.534	25.855	1032.756	835.159
69.549	25.428	1032.044	832.527
70.563	25.561	1030.836	832.097
71.578	25.393	1030.129	830.673
72.593	25.370	1029.149	829.706
73.607	25.499	1028.826	829.967
74.622	25.725	1028.548	830.713
75.636	25.909	1027.520	830.658
76.651	25.622	1027.024	828.859
77.666	25.586	1026.126	827.897
78.680	25.734	1025.400	827.915
79.695	25.830	1024.608	827.644
80.709	25.905	1024.270	827.646
81.724	25.850	1022.849	826.170
82.739	25.931	1022.681	826.331
83.753	26.235	1022.091	827.173
84.768	26.519	1021.591	827.995
85.782	26.697	1020.566	827.908
86.797	26.444	1019.882	826.123
87.812	26.443	1018.214	824.695
88.826	26.478	1017.430	824.146
89.841	26.535	1016.912	823.914
90.855	26.509	1015.920	822.916
91.870	26.577	1014.913	822.340
92.884	26.353	1014.007	820.517
93.899	26.432	1012.481	819.566
94.914	26.555	1012.080	819.727
95.928	26.392	1010.626	817.737
96.943	26.127	1009.730	815.743
97.957	25.901	1008.699	813.820
98.972	25.818	1007.766	812.620
99.987	26.062	1007.164	813.164
101.001	26.286	1005.787	812.987
102.016	26.396	1005.052	812.815
103.030	26.126	1004.467	811.055
104.045	26.004	1003.252	809.456
105.060	25.848	1002.360	807.966
106.074	26.034	1002.191	808.590
107.089	26.370	1001.061	809.113
108.103	26.257	1000.223	807.857
109.118	26.132	998.670	805.973
110.133	26.014	998.284	805.065
111.147	25.811	996.676	802.792
112.162	25.674	996.239	801.758
113.176	25.966	995.742	802.585
114.191	25.855	994.799	801.262
115.206	25.531	993.649	798.826
116.220	25.481	993.094	798.089
117.235	25.720	991.973	798.176
118.249	25.831	991.236	798.004
119.264	25.484	990.752	796.009
120.279	25.650	990.012	796.076
121.293	25.703	989.219	795.601
122.308	25.644	988.671	794.832
123.322	25.649	987.035	793.470
124.337	25.540	985.654	791.808
125.352	25.107	984.152	788.625
126.366	25.133	983.342	788.021
127.381	25.855	983.324	791.107
128.395	26.242	982.806	792.320
129.410	26.133	982.809	791.775
130.424	26.209	981.412	790.910
131.439	26.165	980.564	789.965
132.454	26.307	979.316	789.509
133.468	26.214	978.518	788.392
134.483	26.284	977.442	787.759
135.497	26.549	976.923	788.428
136.512	26.479	976.644	787.826
137.527	26.562	975.544	787.232
138.541	26.500	974.929	786.397
139.556	26.540	973.880	785.655
140.570	26.614	973.543	785.635
141.585	26.693	972.414	784.994
142.600	26.526	971.656	783.589
143.614	26.730	970.809	783.722
144.629	26.824	970.515	783.821
145.643	26.701	968.621	781.690
146.658	26.504	967.405	779.791
147.673	26.371	966.476	778.402
148.687	26.250	965.630	777.128
149.702	26.243	964.557	776.169
150.716	26.089	963.631	774.693
151.731	26.359	963.234	775.463
152.746	26.458	962.638	775.339
153.760	26.635	961.873	775.413
154.775	26.742	961.076	775.158
155.789	26.701	960.214	774.221
156.804	26.597	959.089	772.802
157.819	26.543	959.175	772.572
158.833	26.827	958.077	772.827
159.848	26.727	957.090	771.539
160.862	26.520	955.908	769.636
161.877	26.621	954.836	769.137
162.892	26.749	953.936	768.885
163.906	26.635	952.610	767.266
164.921	26.649	951.523	766.381
165.935	26.540	951.043	765.465
166.950	26.746	949.978	765.412
167.964	26.631	949.434	764.420
168.979	26.339	948.250	762.168
169.994	26.293	947.378	761.206
171.008	26.639	947.047	762.329
172.023	26.705	946.154	761.821
173.037	26.472	944.870	759.741
174.052	26.434	943.961	758.782
175.067	26.399	943.363	758.088
176.081	26.497	942.950	758.099
177.096	26.342	942.416	756.956
178.110	26.109	940.930	754.722
179.125	25.838	940.525	753.198
180.140	26.026	940.048	753.533
181.154	26.313	939.712	754.396
182.169	26.418	939.922	754.936
183.183	26.607	939.495	755.314
184.198	26.611	938.469	754.439
185.213	26.690	937.334	753.789
186.227	26.667	936.604	753.039
187.242	26.532	936.184	752.074
188.256	26.728	935.856	752.555
189.271	26.810	934.723	751.920
190.286	26.407	933.805	749.444
191.300	25.657	932.397	745.143
192.315	24.898	930.505	740.427
193.329	24.946	930.144	740.273
194.344	25.892	930.901	744.724
195.359	26.470	930.704	746.885
196.373	26.525	930.425	746.824
197.388	26.415	930.010	745.969
198.402	26.459	929.069	745.331
199.417	26.528	928.668	745.227
200.432	26.334	927.413	743.356
201.446	26.238	926.876	742.464
202.461	26.217	926.245	741.809
203.475	25.343	924.090	736.435
204.490	24.597	922.723	732.225
205.504	25.459	923.127	736.013
206.519	26.221	923.199	739.123
207.534	26.280	922.540	738.773
208.548	26.525	922.642	739.791
209.563	26.284	921.846	738.100
210.577	26.393	920.782	737.630
211.592	26.740	920.752	738.953
212.607	26.701	920.157	738.252
213.621	26.631	919.554	737.419
214.636	26.699	918.798	737.022
215.650	26.624	917.922	735.951
216.665	26.880	917.353	736.470
217.680	26.735	916.879	735.434
218.694	26.244	915.677	732.415
219.709	26.127	914.871	731.234
220.723	26.445	914.330	732.023
221.738	26.523	913.989	732.000
222.753	26.452	913.370	731.154
223.767	26.653	912.958	731.572
224.782	26.883	912.249	731.864
225.796	26.764	911.844	730.995
226.811	26.227	910.241	727.482
227.826	25.535	909.370	723.937
228.840	25.777	908.806	724.400
229.855	25.833	907.955	723.883
230.869	25.479	906.992	721.628
231.884	25.732	907.078	722.649
232.899	26.549	906.986	725.788
233.913	26.320	907.130	724.923
234.928	26.296	906.242	724.051
235.942	26.301	905.133	723.120
236.957	26.022	904.604	721.518
237.972	26.041	904.176	721.188
238.986	26.230	903.246	721.138
240.001	26.180	902.674	720.417
241.015	26.359	902.327	720.791
242.030	26.518	902.005	721.106
243.045	26.461	901.831	720.674
244.059	26.777	901.019	721.221
245.074	26.510	900.264	719.489
246.088	26.155	899.163	717.135
247.103	26.484	899.015	718.261
248.117	26.949	899.327	720.293
249.132	27.324	898.360	720.939
250.147	27.389	898.187	720.997
251.161	27.475	897.980	721.106
252.176	27.341	897.373	720.023
253.190	27.449	896.409	719.613
254.205	27.654	896.020	720.049
255.220	27.707	895.456	719.738
256.234	27.359	894.771	717.755
257.249	27.435	893.866	717.265
258.263	27.372	893.287	716.488
259.278	27.568	892.510	716.570
260.293	27.426	892.244	715.738
261.307	27.460	891.653	715.332
262.322	27.331	890.507	713.845
263.336	26.607	888.592	709.411
264.351	25.467	887.055	703.659
265.366	25.496	886.683	703.415
266.380	26.483	887.564	707.918
267.395	26.959	887.227	709.446
268.409	27.035	886.480	709.083
269.424	27.270	886.140	709.666
270.439	27.183	885.510	708.759
271.453	27.234	885.121	708.584
272.468	27.473	884.823	709.213
273.482	27.497	884.182	708.728
274.497	27.003	883.415	706.130
275.512	26.746	882.292	704.172
276.526	27.143	882.063	705.470
277.541	27.153	882.097	705.474
278.555	26.993	881.081	703.979
279.570	26.879	880.309	702.856
280.585	26.953	879.903	702.758
281.599	26.999	878.835	702.019
282.614	26.483	877.726	699.078
283.628	26.498	876.959	698.465
284.643	26.862	876.847	699.716
285.657	26.343	875.846	696.858
286.672	26.131	875.064	695.357
287.687	26.847	874.639	697.714
288.701	26.955	873.906	697.479
289.716	26.508	873.437	695.326
290.730	26.495	872.816	694.723
291.745	26.206	871.729	692.687
292.760	26.689	871.670	694.429
293.774	27.487	872.302	697.933
294.789	27.848	872.237	699.201
295.803	27.760	871.228	697.993
296.818	27.819	870.621	697.670
297.833	27.423	869.700	695.359
298.847	27.154	869.100	693.790
299.862	27.454	869.072	694.851
300.876	27.836	868.059	695.438
301.891	27.744	867.380	694.481
302.906	27.295	866.748	692.206
303.920	27.454	866.385	692.459
304.935	27.807	866.514	693.841
305.949	27.676	865.667	692.606
306.964	27.297	865.012	690.581
307.979	27.470	864.485	690.755
308.993	27.854	864.068	691.819
310.008	27.920	863.456	691.516
311.022	27.683	862.489	689.783
312.037	27.550	862.220	689.005
313.052	27.253	861.227	687.029
314.066	26.267	859.730	682.055
315.081	25.997	859.116	680.489
316.095	26.864	859.286	683.833
317.110	27.378	859.114	685.571
318.125	26.493	857.933	681.238
319.139	25.423	856.144	675.736
320.154	25.530	855.539	675.600
321.168	26.404	856.231	679.372
322.183	27.083	856.736	682.264
323.197	27.276	855.846	682.219
324.212	27.407	855.974	682.751
325.227	27.467	855.005	682.143
326.241	27.343	854.499	681.215
327.256	27.344	853.818	680.616
328.270	27.182	853.110	679.385
329.285	26.993	852.219	677.911
330.300	26.762	851.622	676.511
331.314	27.061	851.406	677.395
332.329	27.416	851.238	678.526
333.343	27.675	850.942	679.195
334.358	27.506	850.705	678.314
335.373	27.732	850.264	678.746
336.387	28.000	850.030	679.496
337.402	28.051	849.989	679.591
338.416	27.869	849.974	678.844
339.431	28.042	849.786	679.275
340.446	28.212	848.788	679.047
341.460	28.103	848.558	678.399
342.475	27.927	847.914	677.171
343.489	28.019	847.537	677.151
344.504	28.187	847.574	677.744
345.519	28.466	846.837	678.126
346.533	28.531	846.122	677.735
347.548	28.460	845.872	677.212
348.562	28.420	845.433	676.653
349.577	28.320	844.971	675.854
350.592	28.311	844.130	675.089
351.606	28.334	843.081	674.276
352.621	28.223	842.230	673.126
353.635	28.089	841.712	672.161
354.650	27.410	840.310	668.491
355.665	26.415	838.792	663.572
356.679	26.998	838.386	665.331
357.694	27.386	838.291	666.619
358.708	27.368	837.625	665.964
359.723	27.782	837.774	667.538
360.738	28.110	837.048	668.098
361.752	28.136	836.677	667.839
362.767	28.509	836.280	668.824
363.781	28.459	836.518	668.773
364.796	28.853	835.678	669.476
365.810	28.926	835.598	669.618
366.825	28.874	835.042	668.926
367.840	28.647	834.069	667.260
368.854	28.115	833.236	664.602
369.869	28.209	832.791	664.531
370.883	27.987	832.614	663.524
371.898	28.052	832.034	663.241
372.913	28.182	831.896	663.541
373.927	28.325	831.624	663.786
374.942	28.522	830.734	663.728
375.956	28.417	830.699	663.263
376.971	28.575	830.302	663.460
377.986	28.724	829.904	663.622
379.000	28.781	829.331	663.307
380.015	28.473	828.747	661.672
381.029	28.643	827.673	661.368
382.044	28.788	827.351	661.576
383.059	28.800	826.639	660.990
384.073	28.785	826.526	660.788
385.088	28.695	825.833	659.853
386.102	28.585	824.903	658.657
387.117	28.407	824.388	657.546
388.132	28.104	823.116	655.388
389.146	27.634	822.349	653.038
390.161	28.059	822.403	654.544
391.175	28.578	821.903	655.944
392.190	28.259	820.614	653.719
393.205	26.808	819.001	647.201
394.219	25.176	817.254	639.944
395.234	25.347	816.540	639.938
396.248	26.729	818.427	646.296
397.263	28.244	819.517	652.502
398.278	28.203	819.193	652.039
399.292	28.090	818.192	650.784
400.307	27.918	817.772	649.781
401.321	28.047	817.422	649.905
402.336	28.487	817.171	651.210
403.350	28.951	817.042	652.695
404.365	29.236	817.087	653.686
405.380	29.504	816.707	654.275
406.394	29.605	816.252	654.208
407.409	29.401	815.676	652.968
408.423	29.435	815.221	652.667
409.438	29.250	815.309	652.023
410.453	29.544	814.610	652.448
411.467	29.553	813.820	651.790
412.482	29.445	813.465	651.064
413.496	29.531	813.167	651.072
414.511	29.648	812.842	651.165
415.526	29.490	812.252	650.079
416.540	29.145	812.161	648.735
417.555	29.137	810.594	647.398
418.569	29.209	810.501	647.518
419.584	29.064	809.918	646.487
420.599	28.849	809.518	645.355
421.613	109.015	1284.632	1445.448
422.628	94.209	1353.875	1445.560
