DTS Sentinel unit serial number:	SN413079Multiplexer serial number:	ORYXHardware model number:	OX4-SRSoftware version number:	ORYX F/W v4.00 Oryx Data Collector v3.7.2.0data status	okinstallation	princeton_trtdifferential loss correction	single-endedforward channel	channel 1reverse channel	N/Adate	2019/09/13time	18:10:35forward acquisition time	60.00reverse acquisition time	0.00gamma	496.2192k internal	0.2311k external	0.2311temperature offset calibration	1.0137default loss term (dB/km)	0.3790temperature slope calibration	1.0000multiplexer offset coefficient	1.0000multiplexer slope coefficient	1.0000fibre end	0.00T internal ref (°C)	34.44T ext. ref 1 (°C)	4.52T ext. ref 2 (°C)	27.32length (m)	temperature (°C)	Stokes	anti-Stokes-747.200	-145.108	-0.161	-0.015
-746.185	-118.056	0.302	0.055
-745.171	19.120	-0.086	-0.070
-744.156	-53.966	0.035	-0.016
-743.142	-8.154	0.024	-0.016
-742.127	-60.002	0.269	0.117
-741.112	-40.053	0.246	0.130
-740.098	54.468	-0.291	0.285
-739.083	567.456	0.036	0.089
-738.069	7.889	-0.207	0.158
-737.054	56.175	0.135	-0.133
-736.039	449.849	-0.070	0.157
-735.025	-154.988	-0.170	0.011
-734.010	-200.000	0.007	-0.208
-732.996	800.000	-0.064	0.217
-731.981	-200.000	-0.399	-0.001
-730.966	-78.229	0.076	0.026
-729.952	-200.000	-0.019	-0.195
-728.937	800.000	-0.081	0.278
-727.923	12.497	0.084	-0.066
-726.908	-129.982	-0.106	-0.015
-725.894	-181.539	-0.369	-0.007
-724.879	-200.000	0.068	-0.351
-723.864	146.141	0.095	-0.129
-722.850	-0.639	0.227	0.164
-721.835	-85.634	-0.173	0.054
-720.821	-15.948	0.271	-0.175
-719.806	-142.187	-0.192	0.019
-718.791	-200.000	-0.001	0.305
-717.777	1.775	0.030	-0.022
-716.762	-3.306	-0.230	0.162
-715.748	-44.131	-0.085	-0.043
-714.733	169.876	-0.172	-0.250
-713.718	145.486	-0.309	-0.420
-712.704	14.614	-0.045	0.036
-711.689	800.000	0.035	0.120
-710.675	37.907	-0.363	0.328
-709.660	-200.000	0.038	-0.316
-708.645	-37.490	0.059	0.032
-707.631	10.839	-0.013	0.010
-706.616	383.497	-0.085	-0.177
-705.602	-200.000	0.008	0.122
-704.587	-118.895	-0.309	-0.055
-703.572	-126.249	-0.584	-0.088
-702.558	-59.797	0.017	-0.007
-701.543	800.000	-0.092	-0.390
-700.529	-200.000	0.048	-0.238
-699.514	87.330	-0.238	-0.267
-698.499	-136.044	-0.430	0.051
-697.485	-87.651	-0.133	-0.041
-696.470	174.023	-0.119	0.175
-695.456	-200.000	0.002	0.110
-694.441	-107.827	-0.117	-0.026
-693.426	800.000	-0.060	-0.170
-692.412	-86.170	-0.269	-0.084
-691.397	-157.681	-0.233	0.014
-690.383	-59.151	0.132	-0.058
-689.368	44.243	-0.150	0.139
-688.354	83.303	-0.105	-0.116
-687.339	216.504	0.257	0.414
-686.324	775.032	0.057	0.157
-685.310	-18.563	0.262	0.165
-684.295	69.278	0.152	-0.158
-683.281	800.000	0.081	-0.247
-682.266	185.812	0.216	-0.326
-681.251	273.418	-0.093	0.167
-680.237	4.430	-0.331	0.246
-679.222	-200.000	0.026	0.262
-678.208	381.571	-0.130	-0.270
-677.193	472.256	-0.109	-0.249
-676.178	562.215	-0.147	-0.359
-675.164	103.744	0.221	-0.262
-674.149	-82.832	0.203	0.066
-673.135	-10.412	-0.072	-0.048
-672.120	174.470	-0.140	-0.205
-671.105	153.468	0.046	-0.064
-670.091	156.732	-0.254	0.355
-669.076	-86.655	-0.086	0.027
-668.062	-92.411	-0.274	0.078
-667.047	-34.211	0.109	-0.061
-666.032	-166.440	-0.275	0.012
-665.018	-62.910	-0.251	-0.105
-664.003	159.529	-0.164	-0.231
-662.989	800.000	0.030	-0.115
-661.974	-2.079	0.119	0.084
-660.959	-200.000	-0.062	-0.445
-659.945	-39.988	-0.101	0.053
-658.930	-29.689	-0.263	-0.152
-657.916	-200.000	0.024	-0.246
-656.901	-85.552	0.057	0.018
-655.886	71.820	-0.123	0.130
-654.872	310.308	0.077	-0.145
-653.857	800.000	-0.064	0.259
-652.843	-99.389	-0.169	0.043
-651.828	-80.650	0.191	-0.064
-650.814	103.394	0.157	0.186
-649.799	-200.000	-0.029	-0.183
-648.784	-16.766	0.163	-0.104
-647.770	-200.000	-0.032	0.153
-646.755	215.641	0.128	-0.205
-645.741	299.206	0.133	-0.248
-644.726	-71.774	-0.277	0.104
-643.711	-200.000	0.001	-0.110
-642.697	-77.284	0.408	0.143
-641.682	-14.913	0.106	-0.069
-640.668	-132.652	0.161	0.021
-639.653	-200.000	-0.017	-0.267
-638.638	-200.000	0.001	-0.071
-637.624	-200.000	0.008	0.289
-636.609	55.282	-0.181	0.177
-635.595	-71.952	0.045	-0.017
-634.580	281.596	0.221	-0.400
-633.565	800.000	-0.111	-0.462
-632.551	52.273	0.247	-0.238
-631.536	-200.000	0.050	0.448
-630.522	147.460	-0.232	-0.316
-629.507	368.808	0.093	0.189
-628.492	-4.590	-0.164	0.115
-627.478	-41.174	-0.181	-0.094
-626.463	386.739	0.183	-0.383
-625.449	225.956	0.084	-0.138
-624.434	-88.370	-0.377	0.114
-623.419	-83.614	-0.117	0.038
-622.405	42.721	-0.212	0.195
-621.390	-72.590	0.128	0.048
-620.376	-200.000	0.015	-0.238
-619.361	24.538	0.205	0.172
-618.346	156.403	0.052	0.072
-617.332	-149.641	-0.303	-0.024
-616.317	800.000	0.034	0.140
-615.303	6.818	0.054	0.041
-614.288	-32.888	0.080	-0.045
-613.273	-35.260	0.245	0.135
-612.259	21.102	-0.066	0.054
-611.244	-200.000	0.011	-0.270
-610.230	-68.167	-0.110	-0.043
-609.215	-39.680	0.152	0.080
-608.201	-161.114	-0.203	-0.011
-607.186	38.111	0.109	0.098
-606.171	-53.564	-0.170	-0.079
-605.157	800.000	0.142	-0.398
-604.142	750.885	-0.093	-0.253
-603.128	86.164	0.244	0.272
-602.113	8.116	-0.088	-0.066
-601.098	343.157	-0.082	0.162
-600.084	-200.000	-0.023	0.135
-599.069	51.823	-0.068	0.065
-598.055	4.806	-0.178	-0.132
-597.040	-65.544	-0.143	0.058
-596.025	-200.000	0.044	0.230
-595.011	67.693	-0.143	0.147
-593.996	-200.000	0.029	0.149
-592.982	-147.431	0.102	0.009
-591.967	58.745	-0.317	0.315
-590.952	-200.000	-0.012	-0.317
-589.938	-55.859	0.294	-0.133
-588.923	54.114	-0.360	-0.349
-587.909	-124.934	-0.084	-0.013
-586.894	-88.757	-0.329	-0.099
-585.879	-200.000	-0.073	0.367
-584.865	-70.214	0.137	-0.053
-583.850	666.046	-0.018	-0.048
-582.836	217.870	-0.124	0.200
-581.821	-65.516	-0.265	0.107
-580.806	-26.169	-0.228	-0.135
-579.792	-200.000	-0.060	0.296
-578.777	-47.594	-0.038	0.019
-577.763	-33.859	0.170	0.095
-576.748	232.423	0.186	0.308
-575.733	-200.000	-0.034	-0.236
-574.719	7.448	0.201	-0.151
-573.704	800.000	-0.084	-0.262
-572.690	-25.578	0.086	0.051
-571.675	-148.902	-0.368	0.030
-570.661	-200.000	0.014	-0.154
-569.646	-200.000	-0.063	0.334
-568.631	124.405	0.162	0.206
-567.617	328.942	0.122	0.236
-566.602	800.000	0.028	-0.086
-565.588	-200.000	-0.007	0.166
-564.573	-42.261	0.071	-0.036
-563.558	-200.000	0.013	-0.158
-562.544	-200.000	0.008	-0.148
-561.529	-61.629	0.147	-0.062
-560.515	361.986	-0.157	-0.318
-559.500	-200.000	-0.017	-0.098
-558.485	-73.038	-0.207	0.077
-557.471	-99.378	0.143	0.036
-556.456	503.861	-0.134	-0.313
-555.442	169.840	-0.045	-0.064
-554.427	-41.651	0.079	0.041
-553.412	27.154	-0.223	-0.189
-552.398	-77.216	-0.451	0.158
-551.383	-200.000	0.004	0.035
-550.369	26.140	-0.083	0.070
-549.354	70.279	0.215	-0.224
-548.339	-200.000	-0.053	-0.265
-547.325	800.000	0.041	0.167
-546.310	483.357	0.083	0.190
-545.296	38.543	0.210	-0.189
-544.281	-144.093	-0.319	0.030
-543.266	292.388	-0.179	-0.329
-542.252	-200.000	-0.023	-0.444
-541.237	259.561	0.149	-0.260
-540.223	-40.178	0.042	0.022
-539.208	800.000	-0.070	0.210
-538.193	32.802	0.299	0.261
-537.179	114.364	0.177	-0.217
-536.164	737.590	0.058	0.158
-535.150	-173.870	0.110	-0.003
-534.135	-168.282	0.262	0.010
-533.121	-80.476	-0.206	-0.069
-532.106	8.447	0.292	0.221
-531.091	-67.854	0.060	-0.024
-530.077	-200.000	-0.021	-0.213
-529.062	334.001	0.171	-0.334
-528.048	-17.854	-0.194	-0.123
-527.033	752.568	0.100	-0.273
-526.018	-4.668	-0.217	-0.151
-525.004	35.693	0.148	0.131
-523.989	-62.386	-0.230	0.096
-522.975	271.223	0.039	0.068
-521.960	-31.314	0.087	0.049
-520.945	-31.734	0.308	-0.174
-519.931	-200.000	0.022	0.153
-518.916	-33.441	0.166	-0.092
-517.902	-136.096	0.267	-0.032
-516.887	-86.200	0.208	0.065
-515.872	206.883	-0.054	0.085
-514.858	-136.348	-0.138	-0.016
-513.843	-176.376	0.121	-0.003
-512.829	-132.512	0.194	0.025
-511.814	398.282	-0.108	-0.227
-510.799	226.925	0.054	0.088
-509.785	-64.175	-0.443	-0.182
-508.770	193.601	-0.044	-0.068
-507.756	-143.893	0.339	0.032
-506.741	-4.968	0.270	0.187
-505.726	-42.212	-0.332	0.171
-504.712	800.000	-0.036	0.143
-503.697	-70.351	-0.050	-0.019
-502.683	227.347	-0.121	0.198
-501.668	-200.000	0.028	0.315
-500.653	-98.114	0.197	0.051
-499.639	-12.817	-0.238	0.156
-498.624	-176.525	0.389	0.010
-497.610	-90.039	0.391	0.115
-496.595	800.000	0.072	-0.248
-495.581	-64.198	0.187	-0.076
-494.566	-95.476	-0.085	-0.023
-493.551	-200.000	0.014	-0.074
-492.537	800.000	-0.055	0.194
-491.522	7.639	-0.031	-0.023
-490.508	-200.000	-0.041	-0.250
-489.493	88.760	0.234	0.262
-488.478	164.430	0.041	0.057
-487.464	-200.000	0.009	0.286
-486.449	42.668	-0.157	-0.144
-485.435	292.231	0.035	0.063
-484.420	190.202	0.170	0.257
-483.405	-79.174	-0.190	-0.065
-482.391	-101.830	-0.322	0.078
-481.376	800.000	0.053	0.161
-480.362	11.781	-0.276	-0.213
-479.347	-200.000	-0.002	-0.207
-478.332	800.000	0.083	-0.304
-477.318	-200.000	-0.014	-0.084
-476.303	-200.000	0.018	-0.133
-475.289	-200.000	-0.010	0.109
-474.274	-78.294	0.136	0.047
-473.259	-200.000	-0.044	0.319
-472.245	-89.344	0.306	-0.091
-471.230	-66.658	-0.165	0.066
-470.216	162.803	-0.180	-0.254
-469.201	-200.000	0.014	0.236
-468.186	-20.321	-0.136	-0.084
-467.172	59.583	0.199	0.197
-466.157	-12.008	-0.135	-0.089
-465.143	-48.995	-0.139	-0.067
-464.128	-200.000	0.012	0.117
-463.113	-175.227	-0.185	0.005
-462.099	-71.895	0.046	-0.017
-461.084	-200.000	-0.028	-0.275
-460.070	1.518	0.018	0.013
-459.055	-112.913	0.065	-0.013
-458.040	208.209	0.111	-0.174
-457.026	66.851	-0.122	0.124
-456.011	-75.624	-0.275	0.098
-454.997	-133.696	0.157	0.020
-453.982	9.102	-0.189	0.143
-452.968	-200.000	-0.002	-0.093
-451.953	-53.806	-0.169	-0.077
-450.938	-122.025	-0.081	0.013
-449.924	-200.000	-0.022	-0.221
-448.909	-103.853	-0.245	-0.057
-447.895	-200.000	0.009	-0.168
-446.880	-115.177	0.167	-0.032
-445.865	-103.331	-0.366	0.087
-444.851	177.271	0.071	0.104
-443.836	-200.000	0.030	-0.245
-442.822	-34.175	-0.118	-0.065
-441.807	131.196	-0.137	0.177
-440.792	-200.000	0.006	-0.266
-439.778	36.818	0.182	-0.161
-438.763	-200.000	0.030	-0.199
-437.749	-110.277	0.036	-0.007
-436.734	800.000	0.103	0.300
-435.719	-102.577	0.306	-0.073
-434.705	800.000	-0.098	-0.290
-433.690	329.528	-0.138	0.267
-432.676	-200.000	0.074	0.452
-431.661	-200.000	0.011	-0.217
-430.646	10.951	0.048	-0.037
-429.632	64.072	-0.319	0.322
-428.617	-64.761	-0.087	0.035
-427.603	171.472	0.200	-0.288
-426.588	-37.056	0.061	-0.033
-425.573	-113.518	-0.139	0.027
-424.559	-200.000	-0.011	-0.192
-423.544	-12.164	0.177	0.116
-422.530	-34.583	-0.371	-0.204
-421.515	-147.292	-0.235	0.020
-420.500	236.528	0.120	-0.199
-419.486	-83.835	0.385	0.123
-418.471	526.916	0.022	-0.052
-417.457	-23.134	0.258	-0.156
-416.442	-152.525	-0.226	-0.016
-415.428	371.630	-0.113	0.229
-414.413	-111.051	-0.018	-0.004
-413.398	-64.859	-0.210	-0.085
-412.384	-10.767	-0.014	0.009
-411.369	-63.822	-0.213	0.087
-410.355	527.512	0.116	0.274
-409.340	-6.709	-0.037	-0.025
-408.325	524.440	0.086	-0.203
-407.311	56.203	-0.100	0.097
-406.296	800.000	0.070	0.228
-405.282	-114.109	-0.276	-0.053
-404.267	-103.910	-0.226	-0.053
-403.252	13.791	0.090	-0.070
-402.238	-77.170	-0.242	0.084
-401.223	-200.000	0.008	-0.116
-400.209	170.258	-0.047	-0.067
-399.194	-124.137	0.283	0.045
-398.179	-68.825	0.292	0.113
-397.165	-155.520	0.326	0.021
-396.150	-55.322	0.189	0.085
-395.136	-200.000	0.062	0.290
-394.121	78.317	-0.214	0.229
-393.106	-31.697	-0.237	-0.133
-392.092	8.397	0.174	-0.131
-391.077	-41.582	0.168	-0.086
-390.063	-70.470	-0.111	0.042
-389.048	32.465	0.061	-0.053
-388.033	354.836	-0.121	-0.241
-387.019	-200.000	0.129	-0.001
-386.004	0.120	-0.324	0.231
-384.990	346.826	-0.094	-0.185
-383.975	-156.269	-0.254	0.016
-382.960	-85.374	-0.137	-0.043
-381.946	322.463	0.077	-0.147
-380.931	-126.559	0.137	-0.020
-379.917	-200.000	0.007	-0.130
-378.902	433.795	0.094	0.204
-377.888	-110.313	-0.387	-0.081
-376.873	-200.000	-0.199	-0.000
-375.858	800.000	-0.068	0.194
-374.844	-125.335	-0.118	-0.018
-373.829	-115.138	-0.382	-0.072
-372.815	-137.776	0.454	0.051
-371.800	-50.768	-0.277	0.131
-370.785	-90.881	-0.188	-0.054
-369.771	-72.569	0.208	-0.077
-368.756	-131.484	-0.254	-0.034
-367.742	-200.000	0.036	0.326
-366.727	159.777	0.125	0.175
-365.712	-59.963	0.073	-0.031
-364.698	317.520	0.121	0.229
-363.683	544.542	0.071	0.169
-362.669	-61.910	0.039	0.016
-361.654	-149.893	0.118	-0.009
-360.639	345.894	0.053	0.104
-359.625	181.933	0.183	0.269
-358.610	-200.000	-0.017	0.419
-357.596	-122.634	0.127	-0.021
-356.581	-37.242	0.107	-0.057
-355.566	-77.021	0.277	-0.097
-354.552	-93.755	-0.134	0.037
-353.537	-109.944	0.243	-0.051
-352.523	196.072	-0.060	-0.091
-351.508	-26.652	0.069	-0.040
-350.493	-28.152	0.116	-0.067
-349.479	-200.000	-0.002	-0.335
-348.464	159.395	0.093	0.129
-347.450	216.835	-0.096	-0.152
-346.435	-165.632	-0.376	0.016
-345.420	99.267	0.193	-0.223
-344.406	-200.000	0.002	0.317
-343.391	147.679	0.364	0.490
-342.377	-200.000	0.028	0.279
-341.362	-114.330	-0.090	-0.017
-340.348	38.735	0.088	0.079
-339.333	800.000	-0.040	0.131
-338.318	22.431	-0.209	-0.171
-337.304	-200.000	0.001	0.169
-336.289	-81.175	0.239	0.079
-335.275	-74.581	-0.108	0.039
-334.260	-19.235	0.170	0.105
-333.245	800.000	-0.097	-0.319
-332.231	-200.000	0.044	-0.206
-331.216	416.014	-0.240	0.510
-330.202	-200.000	-0.021	0.158
-329.187	-150.488	0.200	-0.015
-328.172	-15.863	-0.122	0.078
-327.158	800.000	0.115	-0.438
-326.143	646.389	0.035	-0.089
-325.129	-59.117	-0.324	-0.140
-324.114	-109.719	-0.063	0.013
-323.099	-180.891	-0.166	0.003
-322.085	-11.261	0.161	-0.106
-321.070	36.399	-0.145	-0.127
-320.056	263.048	-0.127	-0.221
-319.041	-40.774	-0.263	0.136
-318.026	-66.784	0.354	0.140
-317.012	-191.405	-0.123	-0.001
-315.997	-73.688	-0.321	0.117
-314.983	800.000	-0.076	0.235
-313.968	-200.000	-0.019	0.555
-312.953	468.239	0.177	0.396
-311.939	150.389	0.141	0.191
-310.924	387.207	-0.109	-0.225
-309.910	1.500	-0.106	-0.076
-308.895	-115.293	0.348	0.066
-307.880	-144.022	-0.151	-0.014
-306.866	-70.510	0.287	-0.108
-305.851	-200.000	-0.013	0.216
-304.837	429.198	0.108	-0.233
-303.822	104.964	-0.060	-0.070
-302.807	800.000	0.019	-0.079
-301.793	168.490	-0.213	0.302
-300.778	800.000	0.080	0.225
-299.764	800.000	0.087	-0.267
-298.749	74.374	0.283	0.296
-297.735	4.205	-0.153	-0.112
-296.720	800.000	0.074	-0.221
-295.705	554.378	-0.164	0.393
-294.691	-103.975	-0.173	0.040
-293.676	133.928	0.202	-0.260
-292.662	-57.236	0.137	-0.060
-291.647	37.856	-0.100	-0.089
-290.632	-14.561	-0.071	0.045
-289.618	-50.039	0.107	0.050
-288.603	465.169	0.147	0.329
-287.589	-3.878	0.276	0.191
-286.574	800.000	0.050	0.186
-285.559	756.086	0.059	-0.159
-284.545	-200.000	0.025	0.151
-283.530	-143.114	-0.032	0.003
-282.516	800.000	-0.033	-0.137
-281.501	-200.000	-0.002	0.035
-280.486	800.000	0.041	0.124
-279.472	800.000	-0.037	-0.145
-278.457	85.706	0.147	0.161
-277.443	-58.630	-0.094	0.041
-276.428	-200.000	0.003	-0.135
-275.413	88.407	-0.139	-0.154
-274.399	-124.459	0.305	-0.047
-273.384	69.575	-0.234	0.240
-272.370	-200.000	-0.020	-0.143
-271.355	215.117	0.088	0.139
-270.340	-163.234	0.135	0.006
-269.326	800.000	0.026	0.093
-268.311	-200.000	-0.048	0.292
-267.297	80.634	-0.175	0.187
-266.282	-78.006	-0.210	-0.072
-265.267	128.415	0.044	0.056
-264.253	414.657	-0.065	0.138
-263.238	-200.000	-0.034	0.230
-262.224	-5.201	0.089	-0.061
-261.209	14.250	-0.114	-0.089
-260.195	-144.125	0.359	-0.033
-259.180	-200.000	0.014	-0.217
-258.165	341.517	-0.035	-0.069
-257.151	-200.000	0.032	-0.384
-256.136	0.038	-0.065	0.046
-255.122	-200.000	-0.056	-0.331
-254.107	-58.600	-0.018	0.008
-253.092	242.559	-0.147	-0.244
-252.078	-66.021	-0.197	-0.078
-251.063	130.176	0.097	0.124
-250.049	-147.205	-0.121	-0.010
-249.034	800.000	0.094	0.260
-248.019	160.643	0.104	-0.145
-247.005	113.973	0.142	-0.171
-245.990	3.494	-0.060	-0.043
-244.976	-200.000	-0.026	-0.240
-243.961	396.968	-0.082	-0.171
-242.946	-161.932	0.409	0.021
-241.932	107.241	0.209	0.247
-240.917	238.929	-0.074	0.122
-239.903	141.854	-0.148	-0.196
-238.888	-200.000	0.048	-0.229
-237.873	-12.410	0.289	-0.188
-236.859	-10.821	0.115	-0.076
-235.844	75.053	0.143	-0.150
-234.830	-8.886	-0.311	-0.207
-233.815	-200.000	0.010	0.079
-232.800	207.242	0.121	0.187
-231.786	49.899	-0.142	0.133
-230.771	-64.383	0.122	-0.049
-229.757	-200.000	0.014	0.169
-228.742	-40.206	0.170	-0.088
-227.727	-57.740	0.150	0.065
-226.713	-200.000	-0.024	-0.311
-225.698	-35.335	0.210	0.113
-224.684	505.479	0.065	0.149
-223.669	800.000	-0.004	-0.010
-222.655	-200.000	0.025	-0.205
-221.640	-20.915	0.092	-0.056
-220.625	-132.426	-0.382	0.049
-219.611	-28.872	0.236	-0.135
-218.596	291.285	-0.149	-0.270
-217.582	-112.605	-0.247	-0.049
-216.567	800.000	-0.076	-0.308
-215.552	-64.254	-0.221	0.089
-214.538	-190.192	-0.245	-0.003
-213.523	800.000	-0.104	-0.317
-212.509	-200.000	-0.032	-0.174
-211.494	-200.000	0.003	-0.099
-210.479	-200.000	0.025	0.110
-209.465	-47.381	-0.129	0.062
-208.450	-200.000	-0.005	-0.189
-207.436	-55.455	-0.234	-0.104
-206.421	-164.623	-0.185	-0.008
-205.406	-125.883	0.315	-0.047
-204.392	-200.000	-0.001	0.070
-203.377	439.565	0.070	-0.152
-202.363	-83.495	-0.106	0.034
-201.348	57.671	0.152	0.147
-200.333	-200.000	0.049	0.321
-199.319	-108.609	-0.336	0.072
-198.304	589.095	0.066	0.162
-197.290	-104.857	-0.128	0.029
-196.275	-132.834	-0.178	-0.023
-195.260	20.011	0.100	0.080
-194.246	451.524	-0.090	0.197
-193.231	307.307	-0.131	0.242
-192.217	4.100	0.175	0.127
-191.202	145.470	-0.086	-0.115
-190.187	613.652	0.056	0.139
-189.173	17.029	-0.270	0.213
-188.158	-86.503	0.296	0.090
-187.144	-132.061	-0.328	0.042
-186.129	252.650	0.114	0.193
-185.114	150.258	0.171	-0.231
-184.100	-25.625	0.286	0.167
-183.085	-77.320	0.259	-0.089
-182.071	-139.869	-0.206	-0.022
-181.056	-127.722	-0.141	-0.020
-180.042	-129.413	0.156	-0.022
-179.027	-200.000	-0.086	-0.380
-178.012	-19.649	0.291	-0.179
-176.998	339.172	0.053	0.103
-175.983	-200.000	-0.001	-0.305
-174.969	56.785	-0.086	-0.083
-173.954	89.865	-0.202	0.224
-172.939	75.304	0.202	0.211
-171.925	336.009	-0.066	-0.127
-170.910	167.716	0.093	-0.131
-169.896	-122.753	-0.299	-0.048
-168.881	-116.784	-0.115	-0.021
-167.866	137.064	0.178	0.231
-166.852	-9.642	0.010	0.007
-165.837	800.000	-0.070	0.255
-164.823	21.384	0.094	-0.076
-163.808	-92.178	-0.136	-0.038
-162.793	149.658	0.104	0.140
-161.779	-200.000	-0.009	0.351
-160.764	-112.310	0.188	-0.037
-159.750	-50.275	-0.134	-0.063
-158.735	800.000	0.120	-0.334
-157.720	-138.116	0.304	0.034
-156.706	208.509	0.074	-0.114
-155.691	-48.873	0.193	0.092
-154.677	292.663	0.101	0.183
-153.662	-60.026	0.236	0.100
-152.647	-200.000	-0.017	-0.256
-151.633	800.000	-0.095	0.312
-150.618	55.859	-0.190	0.183
-149.604	-142.924	-0.085	-0.008
-148.589	149.226	0.045	-0.060
-147.574	226.745	0.185	-0.298
-146.560	-14.049	-0.135	0.086
-145.545	-158.112	-0.469	0.027
-144.531	159.331	0.231	-0.318
-143.516	-103.526	-0.214	0.050
-142.502	223.630	-0.138	0.220
-141.487	-0.368	0.199	0.140
-140.472	800.000	0.046	-0.135
-139.458	666.104	-0.029	0.074
-138.443	-121.530	-0.463	0.076
-137.429	-60.964	0.247	0.103
-136.414	-56.108	0.303	-0.134
-135.399	800.000	-0.102	-0.326
-134.385	107.498	-0.148	-0.174
-133.370	380.172	-0.125	-0.255
-132.356	640.217	-0.023	-0.059
-131.341	-134.650	0.243	0.029
-130.326	-3.282	-0.184	-0.127
-129.312	-94.247	-0.356	0.096
-128.297	24.492	-0.137	0.112
-127.283	800.000	0.019	0.054
-126.268	159.382	0.115	0.158
-125.253	800.000	-0.035	0.138
-124.239	-47.237	-0.219	-0.106
-123.224	-61.714	0.492	0.204
-122.210	-180.693	0.281	-0.006
-121.195	156.567	0.119	-0.162
-120.180	169.720	-0.087	-0.123
-119.166	800.000	-0.077	-0.260
-118.151	800.000	-0.042	0.148
-117.137	-200.000	0.031	0.176
-116.122	-71.153	-0.381	-0.142
-115.107	27.912	0.075	0.062
-114.093	64.546	-0.184	0.183
-113.078	64.401	-0.210	0.209
-112.064	-200.000	-0.044	0.202
-111.049	-173.013	-0.296	0.009
-110.034	-200.000	-0.008	0.080
-109.020	7.645	-0.158	0.117
-108.005	-64.935	-0.211	0.084
-106.991	21.893	0.254	0.205
-105.976	-113.333	-0.230	-0.045
-104.962	800.000	0.072	-0.308
-103.947	-41.147	-0.099	0.051
-102.932	-44.173	0.201	-0.100
-101.918	-103.138	-0.283	0.066
-100.903	-136.775	0.247	0.028
-99.889	264.638	-0.101	-0.175
-98.874	291.969	0.175	0.315
-97.859	56.164	-0.183	0.176
-96.845	31.855	0.081	0.069
-95.830	-192.451	-0.042	0.000
-94.816	-16.851	0.308	0.193
-93.801	-84.981	0.315	-0.098
-92.786	-65.128	-0.227	-0.090
-91.772	800.000	0.061	0.170
-90.757	100.790	0.298	0.343
-89.743	-25.623	0.089	-0.052
-88.728	107.935	-0.217	0.256
-87.713	49.352	-0.135	-0.126
-86.699	-148.392	-0.155	0.013
-85.684	-93.643	0.077	-0.021
-84.670	-96.426	-0.381	-0.100
-83.655	23.205	-0.296	0.240
-82.640	800.000	-0.128	0.414
-81.626	-200.000	0.026	0.117
-80.611	402.209	-0.100	-0.208
-79.597	-98.722	0.259	-0.065
-78.582	104.535	-0.194	0.226
-77.567	800.000	-0.063	-0.241
-76.553	-200.000	0.054	-0.285
-75.538	94.221	0.119	0.133
-74.524	-40.904	-0.319	0.163
-73.509	-98.883	-0.115	-0.029
-72.494	-200.000	-0.018	-0.080
-71.480	-78.970	0.042	-0.014
-70.465	91.391	0.305	-0.338
-69.451	88.698	-0.185	-0.203
-68.436	-200.000	0.071	0.357
-67.422	-115.854	-0.332	0.061
-66.407	800.000	0.023	-0.092
-65.392	-104.031	-0.285	0.066
-64.378	-127.311	-0.286	0.041
-63.363	800.000	-0.088	0.296
-62.349	-57.002	0.140	-0.061
-61.334	207.242	-0.623	-0.961
-60.319	800.000	-0.134	0.541
-59.305	800.000	-0.198	-0.719
-58.290	208.697	0.451	0.698
-57.276	368.973	0.676	1.351
-56.261	-200.000	97.602	580.657
-55.246	617.321	1404.643	3483.783
-54.232	187.397	2602.714	3836.845
-53.217	119.451	2169.393	2653.906
-52.203	45.921	1622.821	1483.553
-51.188	37.948	1359.093	1193.859
-50.173	34.679	1316.515	1136.988
-49.159	57.027	1363.973	1313.721
-48.144	60.360	1381.803	1350.981
-47.130	38.189	1338.259	1176.827
-46.115	34.561	1320.945	1139.926
-45.100	34.360	1316.107	1134.514
-44.086	34.400	1314.104	1132.978
-43.071	34.179	1311.715	1129.566
-42.057	34.238	1309.479	1127.945
-41.042	34.394	1307.802	1127.375
-40.027	34.443	1305.886	1125.968
-39.013	34.293	1304.465	1123.812
-37.998	34.375	1302.420	1122.490
-36.984	34.403	1300.909	1121.309
-35.969	34.407	1299.006	1119.645
-34.954	34.478	1297.423	1118.656
-33.940	34.409	1296.491	1117.400
-32.925	34.457	1295.029	1116.379
-31.911	34.515	1293.436	1115.301
-30.896	34.537	1291.711	1113.896
-29.881	34.535	1290.411	1112.717
-28.867	34.478	1289.388	1111.465
-27.852	34.519	1287.836	1110.321
-26.838	34.588	1286.413	1109.447
-25.823	34.579	1285.123	1108.241
-24.809	34.491	1283.326	1106.137
-23.794	34.585	1282.053	1105.538
-22.779	34.619	1280.857	1104.660
-21.765	34.459	1280.110	1103.045
-20.750	34.505	1278.452	1101.840
-19.736	34.392	1277.352	1100.197
-18.721	34.515	1275.487	1099.254
-17.706	34.402	1275.015	1098.154
-16.692	34.555	1273.480	1097.667
-15.677	34.413	1272.570	1096.025
-14.663	34.418	1271.499	1095.088
-13.648	34.327	1270.413	1093.584
-12.633	34.428	1269.092	1092.984
-11.619	34.374	1268.765	1092.350
-10.604	34.369	1267.950	1091.577
-9.590	34.388	1266.467	1090.365
-8.575	34.403	1265.459	1089.541
-7.560	34.337	1264.416	1088.219
-6.546	34.294	1263.925	1087.511
-5.531	34.259	1263.029	1086.497
-4.517	34.423	1262.199	1086.672
-3.502	34.347	1261.732	1085.798
-2.487	34.342	1260.732	1084.862
-1.473	34.344	1255.827	1080.609
-0.458	32.228	1239.822	1054.937
0.556	29.004	1219.678	1007.689
1.571	24.058	1224.181	984.054
2.586	22.622	1238.074	987.098
3.600	21.520	1226.298	971.507
4.615	16.076	1155.155	886.519
5.629	8.298	1080.818	790.989
6.644	4.800	1061.089	759.439
7.659	4.518	1058.334	756.032
8.673	4.419	1057.628	754.979
9.688	4.353	1056.761	753.971
10.702	4.731	1054.137	753.861
11.717	8.895	1060.000	778.241
12.731	16.679	1071.476	824.653
13.746	21.073	1076.336	849.774
14.761	21.148	1076.156	849.921
15.775	20.353	1074.123	844.374
16.790	19.290	1072.069	837.526
17.804	18.532	1070.547	832.580
18.819	18.212	1069.919	830.467
19.834	18.049	1069.350	829.160
20.848	17.988	1068.033	827.772
21.863	17.739	1067.444	826.034
22.877	17.711	1066.444	825.052
23.892	17.588	1065.915	823.976
24.907	17.688	1064.828	823.545
25.921	17.650	1064.107	822.729
26.936	17.577	1062.678	821.199
27.950	17.631	1061.290	820.316
28.965	17.756	1059.530	819.484
29.980	17.825	1058.496	818.944
30.994	18.044	1057.279	818.979
32.009	17.866	1056.743	817.636
33.023	17.909	1055.616	816.897
34.038	17.816	1054.448	815.478
35.053	17.702	1053.445	814.088
36.067	17.737	1052.477	813.433
37.082	17.649	1052.006	812.576
38.096	17.867	1051.180	812.906
39.111	17.889	1050.396	812.332
40.126	17.828	1049.147	811.005
41.140	17.437	1047.665	807.932
42.155	17.367	1046.445	806.588
43.169	17.375	1044.734	805.236
44.184	17.423	1044.128	804.924
45.199	17.357	1043.253	803.868
46.213	17.463	1042.539	803.746
47.228	17.627	1041.717	803.816
48.242	17.733	1040.681	803.443
49.257	17.556	1039.987	802.003
50.271	17.757	1038.871	802.017
51.286	17.821	1037.822	801.437
52.301	17.700	1036.937	800.115
53.315	17.508	1036.027	798.443
54.330	17.595	1034.463	797.573
55.344	17.537	1033.778	796.704
56.359	17.521	1032.931	795.903
57.374	17.566	1031.844	795.208
58.388	17.251	1031.388	793.315
59.403	17.320	1030.244	792.687
60.417	17.347	1029.313	792.025
61.432	17.161	1028.911	790.782
62.447	17.059	1028.110	789.623
63.461	16.994	1027.486	788.767
64.476	17.151	1025.993	788.281
65.490	17.203	1024.882	787.601
66.505	17.341	1024.423	787.818
67.520	17.282	1023.807	787.000
68.534	17.151	1023.569	786.142
69.549	17.138	1022.596	785.266
70.563	17.076	1021.783	784.282
71.578	17.045	1020.732	783.263
72.593	17.091	1019.876	782.751
73.607	16.959	1019.437	781.736
74.622	17.064	1018.390	781.350
75.636	17.085	1017.821	780.939
76.651	17.056	1017.297	780.336
77.666	17.123	1016.553	780.003
78.680	17.161	1015.973	779.664
79.695	17.285	1015.198	779.569
80.709	17.354	1015.037	779.690
81.724	17.478	1014.400	779.700
82.739	17.563	1013.308	779.180
83.753	17.745	1013.030	779.730
84.768	17.917	1012.423	779.980
85.782	17.971	1011.674	779.579
86.797	18.062	1009.946	778.595
87.812	17.804	1009.571	777.060
88.826	17.685	1009.232	776.192
89.841	17.837	1007.804	775.717
90.855	17.890	1007.198	775.422
91.870	18.000	1006.393	775.230
92.884	17.976	1005.031	774.007
93.899	17.992	1004.183	773.356
94.914	18.085	1003.609	773.265
95.928	17.951	1002.828	771.992
96.943	17.839	1002.186	770.923
97.957	17.825	1000.839	769.756
98.972	17.972	1000.073	769.759
99.987	17.974	999.545	769.292
101.001	17.881	998.062	767.664
102.016	17.714	998.101	766.876
103.030	17.860	997.146	766.732
104.045	17.941	996.164	766.270
105.060	17.694	995.169	764.331
106.074	17.598	993.842	762.817
107.089	17.388	992.718	760.946
108.103	17.240	991.855	759.556
109.118	17.193	991.149	758.738
110.133	17.229	990.148	758.064
111.147	17.279	989.385	757.636
112.162	17.294	988.558	757.002
113.176	17.470	988.155	757.410
114.191	17.431	987.585	756.734
115.206	17.615	986.147	756.382
116.220	17.405	985.501	754.888
117.235	17.418	984.836	754.370
118.249	17.333	983.886	753.199
119.264	17.189	983.132	751.917
120.279	17.251	982.242	751.443
121.293	17.158	981.384	750.310
122.308	17.161	980.235	749.376
123.322	17.012	979.149	747.827
124.337	17.137	978.035	747.459
125.352	17.160	977.212	746.865
126.366	17.160	976.105	745.952
127.381	17.078	975.354	744.954
128.395	17.227	974.470	744.867
129.410	17.289	973.295	744.172
130.424	17.321	972.640	743.744
131.439	17.544	971.704	743.940
132.454	17.477	971.362	743.319
133.468	17.540	970.596	742.939
134.483	17.582	969.727	742.395
135.497	17.617	968.731	741.718
136.512	17.577	968.032	740.941
137.527	17.560	967.064	740.062
138.541	17.415	966.610	739.021
139.556	17.592	965.946	739.215
140.570	17.715	965.549	739.378
141.585	17.861	964.405	739.068
142.600	17.850	963.721	738.434
143.614	17.967	962.799	738.166
144.629	18.105	961.864	737.978
145.643	17.983	961.088	736.794
146.658	17.822	960.109	735.281
147.673	17.624	958.939	733.471
148.687	17.479	958.334	732.317
149.702	17.533	956.941	731.421
150.716	17.485	956.160	730.556
151.731	17.528	955.773	730.376
152.746	17.622	954.936	730.075
153.760	17.651	954.168	729.547
154.775	17.694	953.667	729.285
155.789	17.781	953.229	729.257
156.804	17.799	952.509	728.722
157.819	17.787	952.300	728.444
158.833	18.151	951.173	729.070
159.848	18.134	950.297	728.262
160.862	18.043	949.312	727.057
161.877	17.617	948.275	724.386
162.892	17.585	947.243	723.395
163.906	17.566	946.088	722.372
164.921	17.606	944.983	721.631
165.935	17.724	944.397	721.622
166.950	17.828	943.483	721.300
167.964	17.692	942.820	720.153
168.979	17.663	941.790	719.179
169.994	17.716	940.726	718.526
171.008	17.794	940.202	718.394
172.023	17.918	939.835	718.571
173.037	18.132	938.659	718.508
174.052	17.715	938.502	716.571
175.067	17.681	937.766	715.803
176.081	17.719	936.853	715.201
177.096	17.639	936.231	714.329
178.110	17.630	936.140	714.157
179.125	17.711	935.167	713.691
180.140	17.769	934.825	713.609
181.154	17.892	934.355	713.703
182.169	17.980	934.007	713.743
183.183	17.827	933.648	712.763
184.198	18.080	932.272	712.704
185.213	18.001	932.014	712.118
186.227	18.133	930.797	711.673
187.242	18.083	930.776	711.385
188.256	18.134	930.605	711.403
189.271	18.226	929.220	710.666
190.286	17.985	928.240	708.851
191.300	17.496	927.378	706.106
192.315	17.600	926.703	705.957
193.329	17.515	926.400	705.312
194.344	17.630	925.750	705.231
195.359	17.866	925.130	705.673
196.373	18.019	924.603	705.839
197.388	18.152	924.563	706.295
198.402	18.090	924.246	705.738
199.417	18.467	922.848	706.160
200.432	18.509	922.985	706.376
201.446	18.572	922.462	706.173
202.461	18.581	921.941	705.749
203.475	18.628	921.285	705.377
204.490	18.286	920.217	703.093
205.504	18.137	919.622	701.965
206.519	18.228	918.472	701.394
207.534	18.138	917.886	700.519
208.548	18.228	917.444	700.488
209.563	18.165	916.943	699.786
210.577	18.162	916.246	699.178
211.592	18.381	915.613	699.528
212.607	18.579	914.572	699.480
213.621	18.430	913.555	698.033
214.636	18.510	912.944	697.829
215.650	18.469	912.400	697.183
216.665	18.555	911.889	697.082
217.680	18.637	911.194	696.824
218.694	18.492	910.453	695.605
219.709	18.631	910.140	695.870
220.723	18.645	909.098	695.067
221.738	18.562	908.431	694.158
222.753	18.538	907.608	693.372
223.767	18.695	907.312	693.719
224.782	18.734	907.217	693.745
225.796	18.712	906.488	693.037
226.811	18.605	906.253	692.362
227.826	18.513	904.953	690.939
228.840	18.497	904.433	690.415
229.855	18.409	903.360	689.179
230.869	18.614	902.318	689.147
231.884	18.392	902.065	688.001
232.899	18.446	901.275	687.555
233.913	18.428	900.315	686.692
234.928	18.439	899.841	686.311
235.942	18.227	899.336	685.016
236.957	18.294	898.659	684.708
237.972	18.346	898.475	684.717
238.986	18.369	897.867	684.284
240.001	18.245	897.301	683.297
241.015	18.346	896.504	683.033
242.030	18.562	895.704	683.226
243.045	18.445	895.543	682.576
244.059	18.597	894.617	682.414
245.074	18.550	894.747	682.265
246.088	18.737	893.364	681.892
247.103	18.856	892.877	681.934
248.117	18.836	893.029	681.910
249.132	19.116	892.157	682.293
250.147	19.231	891.962	682.540
251.161	19.382	891.008	682.346
252.176	19.290	890.515	681.546
253.190	19.363	890.187	681.523
254.205	19.440	889.532	681.266
255.220	19.263	888.705	679.874
256.234	19.286	888.045	679.396
257.249	19.268	887.573	678.907
258.263	19.180	886.909	677.989
259.278	19.341	885.732	677.665
260.293	19.361	885.355	677.395
261.307	19.438	884.462	676.953
262.322	19.522	884.110	676.953
263.336	19.529	883.515	676.467
264.351	19.605	882.485	675.917
265.366	19.509	881.955	675.073
266.380	19.562	881.350	674.758
267.395	19.584	880.843	674.397
268.409	19.431	880.067	673.147
269.424	19.376	879.291	672.279
270.439	19.408	878.263	671.558
271.453	19.120	878.081	670.237
272.468	19.098	877.498	669.647
273.482	19.274	876.555	669.554
274.497	19.134	876.570	668.960
275.512	19.261	875.648	668.691
276.526	19.177	875.297	668.039
277.541	19.323	874.650	668.049
278.555	19.533	874.004	668.311
279.570	19.548	873.567	667.976
280.585	19.521	872.801	667.225
281.599	19.444	871.847	666.140
282.614	19.574	871.124	666.031
283.628	19.570	870.229	665.271
284.643	19.423	870.094	664.546
285.657	19.482	869.449	664.222
286.672	19.447	868.702	663.457
287.687	19.453	868.653	663.383
288.701	19.470	867.825	662.756
289.716	19.426	867.088	661.965
290.730	19.356	866.499	661.189
291.745	19.550	865.938	661.449
292.760	19.671	865.548	661.552
293.774	19.745	865.127	661.458
294.789	19.719	863.985	660.426
295.803	19.540	863.248	659.119
296.818	19.669	862.619	659.072
297.833	19.722	861.518	658.377
298.847	19.504	861.547	657.508
299.862	19.656	860.896	657.535
300.876	19.760	860.547	657.603
301.891	19.865	859.997	657.524
302.906	19.908	859.518	657.263
303.920	20.126	858.940	657.590
304.935	20.077	858.534	657.034
305.949	20.032	857.727	656.190
306.964	19.786	857.487	655.015
307.979	20.051	856.566	655.257
308.993	19.912	856.316	654.481
310.008	20.040	855.542	654.315
311.022	20.063	854.867	653.828
312.037	19.835	854.103	652.329
313.052	19.573	853.612	650.906
314.066	19.666	852.695	650.498
315.081	19.862	852.527	651.054
316.095	19.619	852.177	649.814
317.110	19.790	851.226	649.674
318.125	19.606	850.929	648.699
319.139	19.848	850.182	648.980
320.154	19.612	849.969	647.874
321.168	19.787	849.106	647.815
322.183	19.853	848.415	647.477
323.197	19.865	848.458	647.498
324.212	19.749	848.121	646.748
325.227	19.729	847.283	645.979
326.241	19.755	846.555	645.464
327.256	19.745	846.147	645.059
328.270	19.859	845.424	644.874
329.285	19.662	845.069	643.812
330.300	19.714	844.533	643.539
331.314	19.733	844.160	643.270
332.329	19.792	843.678	643.067
333.343	20.060	843.223	643.658
334.358	20.110	842.847	643.500
335.373	19.927	842.745	642.685
336.387	20.045	842.222	642.668
337.402	20.246	842.014	643.195
338.416	20.224	841.561	642.713
339.431	20.314	841.619	643.033
340.446	20.513	840.822	643.105
341.460	20.542	840.402	642.831
342.475	20.493	839.859	642.178
343.489	20.563	839.404	642.032
344.504	20.579	838.997	641.723
345.519	20.615	838.834	641.675
346.533	20.622	837.882	640.917
347.548	20.464	836.752	639.415
348.562	20.365	836.769	639.004
349.577	20.232	835.936	637.823
350.592	20.187	835.101	636.964
351.606	20.258	834.314	636.570
352.621	20.264	833.921	636.233
353.635	20.226	833.291	635.559
354.650	20.303	832.537	635.210
355.665	20.263	832.143	634.708
356.679	20.380	831.579	634.646
357.694	20.350	831.110	634.122
358.708	20.550	830.069	634.004
359.723	20.479	829.633	633.356
360.738	20.481	829.000	632.821
361.752	20.481	828.954	632.731
362.767	20.580	828.426	632.635
363.781	20.820	827.724	632.912
364.796	20.939	827.200	632.888
365.810	20.968	826.963	632.757
366.825	20.964	826.376	632.237
367.840	20.812	825.909	631.273
368.854	20.808	825.461	630.859
369.869	20.657	825.177	630.040
370.883	20.686	824.836	629.828
371.898	20.825	824.352	629.907
372.913	20.986	824.147	630.277
373.927	20.800	823.523	629.070
374.942	20.860	822.814	628.691
375.956	20.982	822.522	628.851
376.971	21.015	822.034	628.542
377.986	21.187	821.433	628.645
379.000	21.094	821.329	628.175
380.015	21.132	820.822	627.871
381.029	21.104	819.992	627.080
382.044	21.078	819.582	626.618
383.059	21.031	819.188	626.091
384.073	20.941	818.413	625.120
385.088	20.894	817.866	624.478
386.102	20.872	817.073	623.739
387.117	20.798	816.320	622.843
388.132	20.895	815.816	622.753
389.146	20.770	815.642	622.117
390.161	21.061	815.226	622.783
391.175	21.142	814.733	622.640
392.190	21.024	813.761	621.423
393.205	20.845	813.554	620.573
394.219	21.005	812.911	620.598
395.234	20.889	812.337	619.690
396.248	20.664	811.986	618.569
397.263	20.799	811.516	618.636
398.278	20.763	811.092	618.128
399.292	20.663	810.854	617.536
400.307	20.652	810.261	616.993
401.321	20.867	809.551	617.159
402.336	20.931	808.973	616.891
403.350	20.857	809.405	616.904
404.365	21.062	808.851	617.151
405.380	21.124	808.349	616.932
406.394	21.353	807.563	617.087
407.409	21.395	807.344	617.014
408.423	21.373	807.361	616.895
409.438	21.460	806.742	616.672
410.453	21.623	806.503	617.010
411.467	21.528	805.993	616.233
412.482	21.570	805.545	615.981
413.496	21.639	805.300	615.984
414.511	21.675	805.058	615.869
415.526	21.482	804.472	614.690
416.540	21.543	803.754	614.300
417.555	21.583	803.339	614.067
418.569	21.670	802.994	614.054
419.584	21.610	802.499	613.413
420.599	21.663	802.152	613.280
421.613	159.371	1369.932	1789.775
422.628	138.388	1452.671	1789.878
