DTS Sentinel unit serial number:	SN413079Multiplexer serial number:	ORYXHardware model number:	OX4-SRSoftware version number:	ORYX F/W v4.00 Oryx Data Collector v3.7.2.0data status	okinstallation	princeton_trtdifferential loss correction	single-endedforward channel	channel 1reverse channel	N/Adate	2019/09/16time	10:14:35forward acquisition time	60.00reverse acquisition time	0.00gamma	496.2192k internal	0.2311k external	0.2311temperature offset calibration	0.9962default loss term (dB/km)	0.3790temperature slope calibration	1.0000multiplexer offset coefficient	1.0000multiplexer slope coefficient	1.0000fibre end	0.00T internal ref (°C)	34.33T ext. ref 1 (°C)	12.47T ext. ref 2 (°C)	33.17length (m)	temperature (°C)	Stokes	anti-Stokes-747.200	226.416	0.115	0.190
-746.185	333.011	-0.115	0.226
-745.171	18.322	-0.155	0.125
-744.156	-200.000	0.006	0.029
-743.142	-200.000	-0.030	0.226
-742.127	-187.751	0.332	0.004
-741.112	49.949	-0.313	-0.299
-740.098	-200.000	0.001	-0.185
-739.083	215.663	0.153	0.246
-738.069	-200.000	0.080	0.434
-737.054	-82.337	-0.138	-0.046
-736.039	-200.000	0.065	-0.321
-735.025	12.037	0.185	0.144
-734.010	250.336	-0.156	-0.268
-732.996	800.000	0.079	-0.288
-731.981	-200.000	-0.012	-0.159
-730.966	-181.856	0.231	0.004
-729.952	110.814	0.151	-0.184
-728.937	-200.000	0.031	0.243
-727.923	800.000	0.102	-0.392
-726.908	69.419	-0.083	0.087
-725.894	126.690	0.175	-0.225
-724.879	793.385	0.081	-0.227
-723.864	-200.000	0.007	-0.229
-722.850	-89.456	-0.261	-0.078
-721.835	-19.356	-0.226	-0.142
-720.821	-43.092	-0.190	0.098
-719.806	458.461	-0.116	0.262
-718.791	317.650	0.109	0.209
-717.777	800.000	0.100	-0.364
-716.762	-138.798	-0.102	-0.011
-715.748	351.124	0.145	0.290
-714.733	-57.980	0.177	0.079
-713.718	800.000	-0.048	0.174
-712.704	-1.788	0.176	-0.125
-711.689	-51.229	0.534	-0.253
-710.675	-88.534	0.332	-0.100
-709.660	-152.654	-0.189	-0.014
-708.645	-49.713	0.243	-0.117
-707.631	-160.205	-0.316	0.017
-706.616	800.000	-0.105	0.380
-705.602	-31.138	-0.219	0.125
-704.587	-54.414	-0.280	0.129
-703.572	-89.811	-0.083	0.025
-702.558	-54.847	0.127	-0.058
-701.543	46.437	-0.242	-0.228
-700.529	32.990	0.216	-0.190
-699.514	-79.855	0.211	0.072
-698.499	145.999	-0.007	0.009
-697.485	-191.095	-0.153	0.002
-696.470	-39.894	0.253	0.134
-695.456	-54.720	-0.126	0.058
-694.441	157.773	-0.134	-0.188
-693.426	-200.000	-0.005	-0.129
-692.412	112.169	-0.270	-0.331
-691.397	-121.354	0.238	0.040
-690.383	800.000	0.078	0.241
-689.368	43.436	0.274	0.253
-688.354	-200.000	-0.005	0.329
-687.339	140.063	0.035	0.047
-686.324	-200.000	-0.027	0.142
-685.310	-14.343	0.241	0.157
-684.295	-158.729	-0.387	0.022
-683.281	-46.295	-0.207	-0.103
-682.266	-107.016	0.239	-0.053
-681.251	401.135	-0.072	-0.152
-680.237	800.000	0.063	0.274
-679.222	-84.275	0.068	0.022
-678.208	-102.061	-0.157	-0.038
-677.193	13.795	0.189	-0.149
-676.178	-200.000	-0.037	0.273
-675.164	94.167	0.168	-0.193
-674.149	-200.000	-0.010	0.083
-673.135	-200.000	-0.009	-0.312
-672.120	800.000	-0.049	-0.217
-671.105	-19.528	-0.189	-0.118
-670.091	-127.644	0.117	-0.017
-669.076	-9.391	0.256	-0.173
-668.062	-104.199	0.077	0.018
-667.047	-96.963	0.141	-0.037
-666.032	-200.000	-0.028	0.207
-665.018	-147.104	0.226	0.020
-664.003	-159.715	-0.082	-0.005
-662.989	-200.000	-0.062	0.301
-661.974	-200.000	0.064	-0.290
-660.959	-160.760	-0.049	0.003
-659.945	337.918	0.043	-0.084
-658.930	-127.396	-0.309	0.046
-657.916	66.746	0.147	-0.152
-656.901	-88.240	0.114	-0.034
-655.886	-131.530	0.049	-0.007
-654.872	-31.556	-0.112	0.064
-653.857	-200.000	0.005	0.180
-652.843	111.941	-0.102	-0.124
-651.828	800.000	-0.060	-0.252
-650.814	-0.183	-0.274	-0.197
-649.799	220.150	-0.076	-0.124
-648.784	-200.000	-0.005	-0.031
-647.770	145.418	-0.046	-0.063
-646.755	185.570	0.079	-0.119
-645.741	260.765	-0.077	0.135
-644.726	800.000	0.013	0.044
-643.711	129.218	0.153	-0.197
-642.697	-171.620	0.125	-0.004
-641.682	-83.889	0.420	-0.135
-640.668	800.000	0.033	-0.134
-639.653	96.728	-0.267	0.310
-638.638	393.437	-0.076	0.160
-637.624	-129.053	0.390	-0.055
-636.609	67.028	0.181	-0.186
-635.595	-200.000	-0.032	-0.171
-634.580	800.000	-0.107	-0.340
-633.565	-200.000	0.120	-0.607
-632.551	2.043	-0.347	-0.253
-631.536	800.000	0.054	-0.172
-630.522	57.195	0.111	-0.110
-629.507	-68.963	-0.275	-0.107
-628.492	800.000	0.025	0.089
-627.478	-200.000	-0.033	0.200
-626.463	800.000	0.065	-0.221
-625.449	-200.000	0.006	-0.095
-624.434	129.682	-0.148	-0.191
-623.419	-148.753	-0.364	-0.030
-622.405	-20.603	-0.325	0.202
-621.390	-12.299	-0.172	0.114
-620.376	-37.850	-0.391	0.210
-619.361	-0.154	-0.084	0.060
-618.346	109.640	0.127	-0.154
-617.332	22.500	0.128	0.106
-616.317	800.000	-0.096	0.335
-615.303	-159.989	0.145	-0.008
-614.288	-60.092	0.305	0.132
-613.273	461.991	-0.102	0.229
-612.259	-31.387	0.149	-0.084
-611.244	650.744	0.039	0.100
-610.230	-38.718	-0.086	-0.046
-609.215	-14.982	-0.307	0.199
-608.201	378.330	-0.022	-0.045
-607.186	363.416	-0.098	0.200
-606.171	-85.976	-0.133	0.042
-605.157	411.205	0.098	-0.210
-604.142	-64.533	0.166	0.068
-603.128	-87.829	0.177	0.054
-602.113	-98.119	0.059	0.015
-601.098	675.433	-0.060	0.159
-600.084	-103.723	-0.100	-0.024
-599.069	-61.231	-0.395	-0.168
-598.055	-80.714	-0.181	0.061
-597.040	-200.000	-0.007	-0.157
-596.025	61.488	0.162	0.162
-595.011	-200.000	-0.009	-0.101
-593.996	-36.594	0.313	0.170
-592.982	239.371	0.115	-0.193
-591.967	264.158	-0.115	-0.202
-590.952	-200.000	-0.018	-0.169
-589.938	57.579	0.123	-0.121
-588.923	800.000	-0.061	0.205
-587.909	55.879	-0.230	0.225
-586.894	-169.025	-0.358	-0.013
-585.879	-100.767	0.256	0.064
-584.865	-4.195	-0.399	-0.278
-583.850	47.908	-0.262	-0.247
-582.836	-200.000	0.014	0.063
-581.821	-71.836	-0.420	0.158
-580.806	154.073	0.040	-0.055
-579.792	180.218	-0.307	-0.454
-578.777	31.060	-0.226	-0.195
-577.763	9.081	0.066	-0.050
-576.748	658.464	-0.028	0.071
-575.733	725.164	-0.094	0.253
-574.719	57.105	-0.110	0.108
-573.704	-118.923	-0.369	-0.065
-572.690	-200.000	0.028	-0.187
-571.675	-200.000	-0.000	0.141
-570.661	800.000	0.074	0.263
-569.646	100.022	0.085	0.100
-568.631	27.441	-0.320	-0.271
-567.617	-126.135	-0.287	0.043
-566.602	800.000	-0.101	0.379
-565.588	800.000	-0.073	0.242
-564.573	-200.000	0.008	-0.120
-563.558	53.383	-0.354	0.342
-562.544	-200.000	-0.052	0.440
-561.529	-108.369	-0.363	-0.079
-560.515	-173.096	0.104	-0.003
-559.500	-200.000	0.004	-0.145
-558.485	-200.000	-0.013	-0.064
-557.471	-5.853	-0.291	0.201
-556.456	93.374	-0.369	-0.421
-555.442	-91.657	-0.245	0.070
-554.427	-76.811	-0.147	0.052
-553.412	163.071	-0.041	-0.058
-552.398	297.653	-0.046	-0.085
-551.383	-17.871	-0.236	-0.149
-550.369	-111.497	-0.253	-0.052
-549.354	213.007	-0.023	-0.036
-548.339	174.859	-0.110	-0.160
-547.325	130.144	0.179	0.231
-546.310	57.766	0.117	-0.116
-545.296	-200.000	0.038	-0.249
-544.281	-200.000	0.010	0.315
-543.266	-200.000	0.087	-0.420
-542.252	170.645	0.219	-0.316
-541.237	57.186	-0.204	-0.200
-540.223	79.467	-0.175	0.189
-539.208	-200.000	0.351	0.001
-538.193	-200.000	0.022	-0.433
-537.179	102.287	0.070	-0.083
-536.164	57.960	0.153	-0.150
-535.150	15.018	-0.082	-0.065
-534.135	-200.000	-0.019	-0.122
-533.121	-90.600	-0.153	-0.045
-532.106	800.000	-0.047	0.156
-531.091	-79.441	-0.212	-0.072
-530.077	-200.000	0.067	-0.327
-529.062	77.526	0.100	0.107
-528.048	-93.162	0.135	0.038
-527.033	-200.000	0.006	-0.318
-526.018	70.754	0.179	-0.186
-525.004	-36.910	-0.051	0.028
-523.989	34.695	0.126	0.111
-522.975	130.351	-0.106	-0.136
-521.960	-200.000	-0.032	-0.216
-520.945	-29.687	0.155	-0.089
-519.931	-200.000	-0.042	-0.275
-518.916	-200.000	0.037	-0.307
-517.902	-200.000	-0.035	0.170
-516.887	15.644	0.106	0.084
-515.872	157.337	0.184	-0.256
-514.858	-3.076	-0.108	-0.076
-513.843	284.147	0.059	0.107
-512.829	50.038	0.206	-0.196
-511.814	-200.000	0.037	-0.242
-510.799	-200.000	-0.029	-0.169
-509.785	-117.012	0.140	-0.026
-508.770	549.991	-0.149	-0.359
-507.756	-17.729	-0.145	-0.091
-506.741	-51.545	0.119	0.056
-505.726	60.101	-0.132	0.132
-504.712	551.941	0.032	-0.078
-503.697	147.397	-0.066	0.090
-502.683	-179.444	0.308	0.007
-501.668	-72.277	0.436	0.162
-500.653	-125.451	0.119	-0.018
-499.639	38.139	-0.122	-0.109
-498.624	295.704	-0.180	0.332
-497.610	-28.605	-0.233	0.135
-496.595	-200.000	-0.057	0.464
-495.581	-9.959	0.174	-0.116
-494.566	10.922	0.079	0.061
-493.551	204.499	-0.061	0.095
-492.537	800.000	0.082	-0.312
-491.522	-157.101	-0.110	0.007
-490.508	91.051	0.188	0.212
-489.493	-200.000	0.016	0.143
-488.478	15.252	-0.243	0.192
-487.464	-47.121	-0.210	-0.103
-486.449	27.182	-0.040	-0.034
-485.435	-52.517	-0.094	-0.044
-484.420	-56.624	0.098	-0.044
-483.405	45.467	0.094	-0.087
-482.391	415.914	0.021	0.045
-481.376	-128.838	-0.271	0.038
-480.362	647.419	-0.147	-0.377
-479.347	-17.152	-0.062	-0.039
-478.332	800.000	-0.053	0.198
-477.318	-200.000	0.028	-0.162
-476.303	-18.251	-0.110	0.069
-475.289	-142.320	-0.062	0.006
-474.274	173.844	0.132	-0.192
-473.259	-18.451	-0.166	-0.104
-472.245	-86.665	-0.184	0.057
-471.230	-29.385	-0.056	-0.032
-470.216	800.000	0.072	-0.204
-469.201	-134.706	-0.221	-0.027
-468.186	488.826	0.098	0.225
-467.172	-200.000	0.006	0.093
-466.157	28.645	-0.297	-0.252
-465.143	-32.023	0.063	0.036
-464.128	-126.836	0.073	0.011
-463.113	-152.902	0.345	-0.024
-462.099	-200.000	0.048	0.382
-461.084	-103.998	-0.130	0.030
-460.070	710.569	0.071	-0.189
-459.055	-69.250	0.123	-0.048
-458.040	84.454	0.164	-0.180
-457.026	-200.000	-0.006	0.291
-456.011	264.038	0.060	-0.105
-454.997	-200.000	0.064	-0.364
-453.982	-107.519	-0.456	0.100
-452.968	-48.376	0.360	-0.174
-451.953	-100.712	-0.143	0.035
-450.938	35.253	0.207	0.182
-449.924	512.022	0.059	-0.139
-448.909	-125.914	0.291	0.044
-447.895	262.471	0.119	-0.207
-446.880	252.939	-0.063	-0.109
-445.865	-22.469	0.134	0.081
-444.851	-57.281	0.203	-0.090
-443.836	-200.000	-0.052	0.303
-442.822	-200.000	0.032	-0.222
-441.807	118.195	-0.113	0.140
-440.792	16.818	-0.083	0.066
-439.778	-104.208	-0.208	-0.049
-438.763	800.000	-0.026	0.113
-437.749	-100.949	-0.295	-0.073
-436.734	-25.522	0.206	0.122
-435.719	-200.000	0.008	-0.110
-434.705	16.305	-0.370	-0.293
-433.690	-61.292	-0.114	-0.048
-432.676	54.573	-0.097	-0.093
-431.661	-114.279	0.101	0.020
-430.646	231.551	0.127	0.208
-429.632	-200.000	-0.026	-0.291
-428.617	599.408	-0.187	0.466
-427.603	800.000	-0.082	-0.243
-426.588	174.200	0.201	-0.292
-425.573	-128.139	0.099	-0.014
-424.559	635.582	0.017	0.042
-423.544	-30.838	-0.046	0.026
-422.530	800.000	-0.074	0.264
-421.515	231.551	-0.174	-0.285
-420.500	-133.671	0.112	0.014
-419.486	127.140	0.274	-0.348
-418.471	239.756	-0.129	-0.215
-417.457	304.531	-0.057	-0.105
-416.442	466.745	0.078	0.175
-415.428	-200.000	0.015	0.106
-414.413	-97.696	0.177	-0.046
-413.398	551.687	-0.108	0.261
-412.384	800.000	0.071	-0.200
-411.369	-109.765	-0.036	0.008
-410.355	-81.898	-0.287	0.094
-409.340	335.965	0.036	0.070
-408.325	466.468	-0.094	0.210
-407.311	29.909	-0.142	0.121
-406.296	-138.742	-0.119	-0.013
-405.282	-153.969	0.311	-0.021
-404.267	20.617	0.198	0.160
-403.252	-200.000	-0.014	-0.076
-402.238	-50.744	0.189	-0.089
-401.223	341.696	0.196	0.385
-400.209	37.530	-0.183	-0.163
-399.194	-200.000	-0.004	0.073
-398.179	179.999	0.019	0.027
-397.165	800.000	0.074	-0.318
-396.150	-200.000	0.012	0.249
-395.136	-163.821	0.181	-0.008
-394.121	102.968	0.135	-0.159
-393.106	-162.475	0.251	0.012
-392.092	7.312	-0.105	-0.078
-391.077	37.672	0.178	-0.158
-390.063	11.762	0.069	-0.053
-389.048	-200.000	-0.060	-0.292
-388.033	561.976	0.080	-0.194
-387.019	229.454	-0.089	-0.146
-386.004	800.000	0.061	0.245
-384.990	-200.000	-0.013	0.300
-383.975	-136.387	0.416	0.048
-382.960	252.541	-0.068	0.115
-381.946	770.059	0.059	-0.160
-380.931	-19.170	0.033	-0.020
-379.917	-150.500	-0.047	0.004
-378.902	135.191	0.036	0.046
-377.888	58.920	-0.104	0.102
-376.873	237.523	0.153	0.254
-375.858	800.000	-0.033	0.128
-374.844	501.195	0.096	0.221
-373.829	94.223	0.150	-0.171
-372.815	119.589	-0.107	-0.133
-371.800	116.709	-0.105	-0.128
-370.785	-129.186	0.363	0.051
-369.771	-200.000	0.026	-0.253
-368.756	-90.010	-0.235	0.069
-367.742	-57.501	0.147	0.065
-366.727	800.000	-0.039	-0.113
-365.712	-200.000	-0.024	0.372
-364.698	150.825	-0.086	0.116
-363.683	-11.252	0.250	0.165
-362.669	685.925	0.124	0.324
-361.654	-49.268	-0.123	0.059
-360.639	244.731	-0.233	0.392
-359.625	200.424	0.142	0.218
-358.610	436.470	0.022	0.048
-357.596	73.387	-0.177	-0.185
-356.581	-85.875	0.242	-0.075
-355.566	-158.741	-0.107	0.006
-354.552	14.260	0.145	0.113
-353.537	-30.038	-0.166	0.094
-352.523	232.263	0.166	0.272
-351.508	-200.000	-0.112	0.536
-350.493	-200.000	0.043	-0.207
-349.479	-35.592	0.423	-0.229
-348.464	80.249	0.101	-0.109
-347.450	-200.000	0.006	0.272
-346.435	-69.660	-0.153	-0.059
-345.420	111.054	-0.093	0.112
-344.406	-133.458	0.216	0.027
-343.391	-200.000	0.002	-0.096
-342.377	272.820	0.078	0.137
-341.362	348.057	-0.175	0.344
-340.348	30.095	0.140	0.119
-339.333	-83.392	0.079	0.025
-338.318	-16.825	0.153	0.096
-337.304	-200.000	-0.012	-0.482
-336.289	-68.695	-0.303	-0.117
-335.275	182.922	0.091	0.134
-334.260	800.000	0.016	0.054
-333.245	-52.044	-0.031	0.014
-332.231	36.827	0.053	-0.046
-331.216	41.719	0.086	0.078
-330.202	129.372	0.197	0.251
-329.187	800.000	-0.023	0.071
-328.172	247.143	0.017	0.029
-327.158	-182.043	-0.234	-0.004
-326.143	-48.911	-0.256	0.122
-325.129	-11.785	0.273	0.179
-324.114	-53.855	0.153	0.070
-323.099	800.000	0.014	0.055
-322.085	124.687	-0.079	-0.099
-321.070	-105.810	-0.434	0.098
-320.056	-28.168	-0.070	0.040
-319.041	-180.660	-0.089	0.002
-318.026	-49.116	0.499	-0.238
-317.012	-66.053	-0.145	-0.058
-315.997	294.121	0.096	0.175
-314.983	-115.071	-0.467	0.089
-313.968	139.813	-0.026	-0.034
-312.953	-94.452	0.328	-0.089
-311.939	-64.040	0.163	0.066
-310.924	-75.098	-0.113	0.040
-309.910	53.351	0.119	0.114
-308.895	0.062	-0.122	0.087
-307.880	-122.619	-0.381	0.062
-306.866	-200.000	-0.001	0.016
-305.851	89.495	-0.093	0.103
-304.837	800.000	-0.052	-0.163
-303.822	-189.596	0.139	0.002
-302.807	-200.000	0.022	-0.135
-301.793	-114.712	-0.023	-0.004
-300.778	18.944	-0.059	-0.047
-299.764	46.169	-0.145	-0.134
-298.749	-15.129	-0.077	0.049
-297.735	-200.000	-0.029	0.165
-296.720	-200.000	-0.022	0.252
-295.705	-19.003	-0.038	-0.024
-294.691	14.459	-0.260	-0.202
-293.676	78.822	0.050	-0.053
-292.662	-200.000	0.016	-0.153
-291.647	-200.000	-0.024	0.133
-290.632	-200.000	-0.009	0.154
-289.618	-200.000	0.005	0.147
-288.603	52.807	0.211	0.201
-287.589	609.233	0.081	-0.202
-286.574	-91.369	0.370	0.106
-285.559	26.790	-0.148	-0.124
-284.545	-200.000	0.002	-0.021
-283.530	-90.067	-0.361	0.105
-282.516	-200.000	-0.025	-0.280
-281.501	-51.864	0.054	-0.025
-280.486	-200.000	-0.012	0.144
-279.472	-200.000	0.005	0.269
-278.457	152.961	0.172	0.234
-277.443	33.137	-0.153	-0.132
-276.428	32.074	0.086	-0.074
-275.413	-141.109	-0.118	0.012
-274.399	535.805	-0.059	0.139
-273.384	-117.506	0.225	0.040
-272.370	167.328	0.204	-0.289
-271.355	-200.000	0.009	0.057
-270.340	101.195	-0.101	-0.117
-269.326	503.263	0.036	-0.084
-268.311	23.451	0.330	-0.270
-267.297	319.122	0.074	-0.139
-266.282	-74.403	-0.219	-0.079
-265.267	256.192	0.018	0.031
-264.253	582.108	-0.251	0.613
-263.238	-101.515	0.186	0.045
-262.224	-200.000	0.013	-0.196
-261.209	81.802	0.154	-0.166
-260.195	-91.287	0.177	0.051
-259.180	104.759	0.102	0.119
-258.165	-42.814	0.193	0.098
-257.151	800.000	0.054	0.209
-256.136	-24.355	0.098	-0.058
-255.122	-162.486	0.040	-0.002
-254.107	-19.595	-0.126	-0.077
-253.092	-200.000	0.003	-0.270
-252.078	241.343	-0.217	0.361
-251.063	13.255	-0.092	-0.071
-250.049	49.734	-0.166	0.156
-249.034	-53.963	-0.210	-0.095
-248.019	63.563	0.057	0.057
-247.005	118.068	-0.176	0.216
-245.990	-200.000	0.015	-0.134
-244.976	-78.021	0.266	0.091
-243.961	-200.000	-0.019	-0.147
-242.946	-33.749	0.247	-0.136
-241.932	-200.000	-0.057	-0.274
-240.917	67.436	0.085	0.086
-239.903	296.247	0.063	0.115
-238.888	138.368	0.100	0.130
-237.873	67.723	0.116	-0.118
-236.859	800.000	-0.047	0.205
-235.844	-25.032	-0.128	-0.075
-234.830	8.000	0.205	0.153
-233.815	-75.351	0.117	-0.042
-232.800	-140.212	0.172	-0.018
-231.786	-200.000	-0.040	0.253
-230.771	-200.000	-0.028	-0.368
-229.757	-200.000	0.032	-0.175
-228.742	800.000	-0.052	-0.174
-227.727	-96.593	0.410	-0.108
-226.713	-106.787	-0.333	0.073
-225.698	46.502	-0.180	0.166
-224.684	70.340	0.054	0.055
-223.669	-72.287	0.297	0.110
-222.655	800.000	0.055	0.199
-221.640	103.068	-0.042	0.049
-220.625	800.000	0.041	-0.121
-219.611	-8.073	-0.202	0.136
-218.596	-200.000	-0.025	-0.192
-217.582	-75.372	0.321	0.114
-216.567	-4.343	0.094	0.064
-215.552	359.536	0.062	0.123
-214.538	800.000	0.051	0.188
-213.523	-109.109	-0.187	-0.039
-212.509	-36.156	0.171	-0.092
-211.494	800.000	0.077	-0.330
-210.479	-35.303	0.182	0.098
-209.465	-48.967	0.159	0.076
-208.450	800.000	0.080	0.252
-207.436	241.978	-0.130	0.215
-206.421	-105.128	0.386	-0.088
-205.406	187.642	0.148	-0.220
-204.392	-64.707	-0.399	0.161
-203.377	20.340	0.329	0.264
-202.363	-144.291	-0.273	-0.025
-201.348	-111.188	-0.057	-0.012
-200.333	607.030	0.173	0.429
-199.319	-98.948	0.380	-0.096
-198.304	186.884	-0.097	-0.143
-197.290	68.251	0.347	-0.353
-196.275	-200.000	0.078	-0.359
-195.260	264.144	0.072	-0.124
-194.246	-72.299	0.314	-0.116
-193.231	-200.000	0.008	0.053
-192.217	196.985	-0.253	-0.383
-191.202	-200.000	0.014	0.085
-190.187	90.639	-0.079	-0.088
-189.173	-128.998	-0.385	-0.054
-188.158	-200.000	0.024	-0.265
-187.144	7.875	0.137	0.102
-186.129	-12.025	0.092	-0.060
-185.114	800.000	-0.066	0.181
-184.100	-101.051	0.490	0.119
-183.085	67.510	-0.093	0.094
-182.071	93.618	0.147	0.165
-181.056	-148.051	-0.511	-0.042
-180.042	26.025	-0.100	-0.083
-179.027	31.477	-0.096	-0.082
-178.012	484.406	0.051	-0.115
-176.998	-165.618	0.314	0.014
-175.983	-35.724	-0.325	0.175
-174.969	47.719	0.104	0.096
-173.954	-200.000	-0.006	0.259
-172.939	61.436	-0.244	0.241
-171.925	-34.827	0.225	-0.122
-170.910	95.635	0.095	0.108
-169.896	125.179	0.237	-0.296
-168.881	288.770	0.074	-0.133
-167.866	36.093	0.245	-0.215
-166.852	-10.092	0.117	0.077
-165.837	107.519	-0.100	-0.118
-164.823	150.362	0.051	-0.069
-163.808	-113.271	-0.124	-0.024
-162.793	-200.000	-0.011	0.251
-161.779	800.000	0.022	0.090
-160.764	800.000	-0.008	0.036
-159.750	-200.000	-0.031	0.409
-158.735	67.401	0.247	0.250
-157.720	-52.595	-0.220	0.101
-156.706	-17.278	-0.035	0.022
-155.691	800.000	0.168	0.525
-154.677	483.927	-0.124	0.281
-153.662	-200.000	-0.054	0.406
-152.647	39.046	0.228	-0.202
-151.633	125.932	-0.139	-0.174
-150.618	-93.060	0.242	-0.067
-149.604	51.824	0.269	0.254
-148.589	800.000	0.058	-0.187
-147.574	-34.032	0.226	-0.124
-146.560	-59.558	-0.238	0.101
-145.545	-66.923	-0.077	-0.030
-144.531	-200.000	0.003	-0.076
-143.516	723.889	0.080	-0.211
-142.502	-0.988	0.436	0.306
-141.487	53.420	0.245	-0.233
-140.472	800.000	-0.033	0.139
-139.458	483.827	-0.101	0.227
-138.443	-72.371	0.066	-0.024
-137.429	329.871	-0.134	-0.255
-136.414	764.881	0.082	-0.222
-135.399	-200.000	-0.043	-0.249
-134.385	275.207	-0.078	-0.137
-133.370	-91.620	0.351	0.099
-132.356	-108.576	-0.311	-0.066
-131.341	238.511	-0.095	-0.156
-130.326	-90.013	0.277	0.080
-129.312	-9.859	-0.061	-0.041
-128.297	514.735	0.115	0.267
-127.283	248.253	0.123	0.206
-126.268	-27.345	0.210	-0.121
-125.253	40.325	-0.103	-0.092
-124.239	-126.274	-0.024	0.004
-123.224	226.588	-0.043	0.069
-122.210	633.593	0.047	-0.118
-121.195	-56.996	0.260	-0.114
-120.180	799.684	0.045	0.124
-119.166	-76.268	0.276	-0.096
-118.151	-200.000	-0.026	0.219
-117.137	143.831	0.077	0.102
-116.122	278.496	0.062	0.109
-115.107	16.587	0.183	-0.143
-114.093	24.157	-0.187	0.153
-113.078	109.331	-0.138	-0.164
-112.064	422.857	-0.092	-0.196
-111.049	29.162	0.286	0.240
-110.034	170.269	-0.085	0.120
-109.020	291.972	-0.095	0.172
-108.005	86.531	0.119	0.130
-106.991	134.516	0.110	-0.142
-105.976	56.323	-0.220	0.212
-104.962	-200.000	-0.010	-0.210
-103.947	484.093	0.026	-0.059
-102.932	-200.000	-0.014	-0.064
-101.918	77.307	0.208	0.219
-100.903	21.117	-0.064	0.051
-99.889	538.538	-0.143	-0.337
-98.874	-200.000	-0.017	0.131
-97.859	131.632	0.105	0.133
-96.845	-76.398	0.346	-0.120
-95.830	74.597	0.172	-0.179
-94.816	65.141	0.094	0.094
-93.801	-151.015	-0.302	-0.023
-92.786	-28.149	0.123	0.071
-91.772	185.427	-0.174	0.256
-90.757	-108.914	0.296	0.062
-89.743	-88.910	-0.343	-0.100
-88.728	89.046	0.291	0.321
-87.713	118.648	0.206	0.252
-86.699	-129.238	0.223	-0.031
-85.684	-152.379	-0.354	-0.025
-84.670	-1.806	-0.208	0.145
-83.655	421.735	-0.008	-0.017
-82.640	-64.059	0.136	0.055
-81.626	383.707	-0.091	0.186
-80.611	-200.000	-0.001	0.248
-79.597	-32.303	0.147	-0.081
-78.582	800.000	0.129	0.459
-77.567	-200.000	-0.011	0.110
-76.553	66.699	-0.094	-0.095
-75.538	119.121	0.165	-0.201
-74.524	307.788	-0.124	-0.229
-73.509	-114.345	0.246	-0.047
-72.494	-200.000	-0.018	-0.112
-71.480	-183.133	0.134	-0.002
-70.465	-133.148	0.241	0.030
-69.451	60.342	-0.173	0.169
-68.436	12.029	0.145	0.110
-67.422	-200.000	0.036	0.246
-66.407	77.331	0.261	0.274
-65.392	1.753	0.396	0.282
-64.378	800.000	0.004	0.011
-63.363	-130.663	0.230	0.031
-62.349	263.659	0.069	0.118
-61.334	-3.367	-0.881	-0.606
-60.319	39.735	0.494	0.438
-59.305	159.432	-0.627	-0.862
-58.290	38.894	0.817	0.721
-57.276	-200.000	0.282	1.573
-56.261	-200.000	94.355	545.397
-55.246	521.629	1400.684	3247.981
-54.232	146.608	2628.323	3488.850
-53.217	112.238	2221.531	2653.701
-52.203	46.116	1661.901	1520.459
-51.188	37.766	1391.520	1221.000
-50.173	34.528	1347.771	1162.867
-49.159	53.907	1396.013	1325.219
-48.144	57.629	1413.689	1365.056
-47.130	38.120	1368.956	1203.188
-46.115	34.457	1350.867	1164.916
-45.100	34.228	1346.237	1159.484
-44.086	34.249	1343.660	1157.349
-43.071	34.173	1341.301	1154.806
-42.057	34.174	1339.209	1152.969
-41.042	34.191	1337.569	1151.615
-40.027	34.271	1336.048	1150.740
-39.013	34.193	1333.922	1148.395
-37.998	34.135	1332.177	1146.497
-36.984	34.384	1329.930	1146.016
-35.969	34.319	1328.482	1144.331
-34.954	34.463	1326.523	1143.460
-33.940	34.384	1325.382	1141.958
-32.925	34.550	1323.765	1141.512
-31.911	34.484	1322.656	1140.118
-30.896	34.477	1321.335	1138.892
-29.881	34.466	1320.063	1137.688
-28.867	34.421	1318.400	1135.941
-27.852	34.440	1317.009	1134.811
-26.838	34.484	1315.151	1133.423
-25.823	34.371	1314.029	1131.739
-24.809	34.455	1312.703	1131.050
-23.794	34.470	1311.201	1129.802
-22.779	34.396	1309.793	1128.106
-21.765	34.388	1308.417	1126.828
-20.750	34.306	1307.783	1125.756
-19.736	34.336	1305.888	1124.253
-18.721	34.313	1304.958	1123.275
-17.706	34.237	1303.418	1121.456
-16.692	34.328	1302.233	1120.929
-15.677	34.271	1300.984	1119.471
-14.663	34.378	1300.002	1119.215
-13.648	34.194	1298.913	1117.152
-12.633	34.229	1297.609	1116.192
-11.619	34.215	1297.080	1115.605
-10.604	34.288	1296.373	1115.385
-9.590	34.198	1295.095	1113.715
-8.575	34.178	1294.398	1112.954
-7.560	34.161	1293.254	1111.823
-6.546	34.284	1292.156	1111.552
-5.531	34.187	1291.490	1110.371
-4.517	34.156	1290.478	1109.281
-3.502	34.401	1289.179	1109.545
-2.487	34.301	1288.574	1108.396
-1.473	34.448	1284.452	1105.658
-0.458	33.742	1271.048	1090.026
0.556	29.344	1254.202	1056.176
1.571	26.135	1259.965	1042.436
2.586	25.030	1275.182	1048.475
3.600	24.059	1264.412	1033.886
4.615	20.800	1193.912	958.255
5.629	15.473	1120.487	871.658
6.644	12.645	1100.304	841.443
7.659	12.500	1097.776	838.697
8.673	12.442	1096.661	837.473
9.688	12.293	1095.384	835.663
10.702	12.741	1093.741	836.615
11.717	16.252	1098.938	858.399
12.731	20.056	1103.394	881.189
13.746	19.520	1101.401	876.800
14.761	17.750	1098.166	865.175
15.775	16.665	1096.263	858.102
16.790	15.511	1094.175	850.549
17.804	14.664	1092.522	844.907
18.819	14.293	1091.251	841.974
19.834	14.032	1090.302	839.846
20.848	13.739	1089.130	837.390
21.863	13.520	1088.085	835.408
22.877	13.429	1087.251	834.235
23.892	13.364	1087.013	833.653
24.907	13.329	1085.733	832.421
25.921	13.329	1084.916	831.718
26.936	13.431	1083.448	831.030
27.950	13.545	1082.017	830.432
28.965	13.524	1080.454	829.057
29.980	13.567	1078.828	827.948
30.994	13.635	1077.521	827.212
32.009	13.712	1076.789	826.960
33.023	13.654	1075.773	825.819
34.038	13.586	1074.882	824.721
35.053	13.361	1074.348	823.124
36.067	13.620	1072.805	823.154
37.082	13.473	1071.878	821.637
38.096	13.598	1070.849	821.400
39.111	13.549	1070.072	820.488
40.126	13.673	1068.497	819.821
41.140	13.455	1067.312	817.763
42.155	13.344	1066.548	816.555
43.169	13.304	1065.430	815.431
44.184	13.352	1064.463	814.852
45.199	13.390	1063.221	814.017
46.213	13.471	1061.945	813.368
47.228	13.375	1061.406	812.413
48.242	13.503	1059.698	811.661
49.257	13.547	1058.505	810.890
50.271	13.468	1058.011	810.054
51.286	13.464	1057.253	809.379
52.301	13.554	1056.321	809.035
53.315	13.401	1055.145	807.316
54.330	13.429	1054.004	806.508
55.344	13.295	1053.770	805.605
56.359	13.370	1052.362	804.821
57.374	13.436	1051.357	804.305
58.388	13.297	1050.602	802.978
59.403	13.360	1049.559	802.415
60.417	13.258	1048.983	801.409
61.432	13.407	1047.951	801.274
62.447	13.308	1047.088	800.063
63.461	13.209	1046.828	799.314
64.476	13.323	1045.079	798.458
65.490	13.303	1044.451	797.814
66.505	13.262	1044.060	797.245
67.520	13.271	1043.393	796.711
68.534	13.420	1042.470	796.651
69.549	13.328	1041.696	795.544
70.563	13.311	1040.679	794.621
71.578	13.201	1040.079	793.563
72.593	13.221	1039.592	793.218
73.607	13.113	1038.772	792.000
74.622	13.197	1038.294	791.969
75.636	13.241	1037.477	791.488
76.651	13.302	1036.545	790.997
77.666	13.110	1036.217	789.759
78.680	13.258	1035.575	789.908
79.695	13.286	1034.531	789.176
80.709	13.448	1033.789	789.310
81.724	13.361	1033.139	788.330
82.739	13.412	1032.158	787.756
83.753	13.511	1031.519	787.671
84.768	13.428	1031.122	786.903
85.782	13.593	1029.782	786.591
86.797	13.506	1028.851	785.399
87.812	13.508	1027.551	784.345
88.826	13.518	1026.449	783.483
89.841	13.550	1025.821	783.085
90.855	13.548	1025.236	782.560
91.870	13.609	1024.190	781.981
92.884	13.582	1023.212	781.037
93.899	13.648	1022.438	780.690
94.914	13.700	1021.594	780.220
95.928	13.692	1020.748	779.469
96.943	13.649	1019.888	778.540
97.957	13.509	1019.081	777.200
98.972	13.644	1018.245	777.123
99.987	13.610	1017.272	776.155
101.001	13.650	1016.052	775.340
102.016	13.629	1015.748	774.942
103.030	13.654	1014.765	774.242
104.045	13.657	1014.098	773.676
105.060	13.514	1013.176	772.241
106.074	13.342	1012.712	771.018
107.089	13.351	1011.165	769.810
108.103	13.268	1010.506	768.855
109.118	13.400	1009.405	768.564
110.133	13.453	1008.772	768.257
111.147	13.358	1007.680	766.919
112.162	13.357	1006.678	766.083
113.176	13.377	1006.178	765.727
114.191	13.466	1005.218	765.340
115.206	13.523	1004.151	764.725
116.220	13.603	1003.561	764.576
117.235	13.587	1002.313	763.485
118.249	13.498	1001.843	762.649
119.264	13.437	1001.263	761.859
120.279	13.458	999.964	760.903
121.293	13.395	999.525	760.209
122.308	13.339	999.030	759.509
123.322	13.474	997.024	758.537
124.337	13.437	996.145	757.629
125.352	13.412	995.311	756.813
126.366	13.433	994.052	755.887
127.381	13.513	992.985	755.371
128.395	13.477	992.571	754.828
129.410	13.500	991.652	754.166
130.424	13.423	990.938	753.206
131.439	13.621	990.054	753.366
132.454	13.625	989.100	752.591
133.468	13.540	988.483	751.671
134.483	13.626	987.499	751.245
135.497	13.710	986.566	750.849
136.512	13.574	985.765	749.557
137.527	13.599	984.625	748.740
138.541	13.633	984.372	748.633
139.556	13.639	983.498	747.929
140.570	13.725	982.887	747.789
141.585	13.675	982.244	747.004
142.600	13.773	981.086	746.499
143.614	13.721	979.973	745.351
144.629	13.877	979.046	745.284
145.643	13.824	978.010	744.188
146.658	13.754	977.032	743.066
147.673	13.731	975.865	742.010
148.687	13.655	975.238	741.128
149.702	13.542	974.312	739.856
150.716	13.571	974.177	739.814
151.731	13.689	972.881	739.293
152.746	13.740	972.365	739.062
153.760	13.608	971.853	738.019
154.775	13.728	971.408	738.151
155.789	13.902	970.022	737.807
156.804	13.828	969.429	736.963
157.819	13.862	968.745	736.525
158.833	13.941	968.211	736.407
159.848	13.876	967.750	735.699
160.862	13.812	966.880	734.691
161.877	13.744	965.672	733.411
162.892	13.705	964.603	732.362
163.906	13.756	963.612	731.769
164.921	13.714	962.791	730.892
165.935	13.682	961.683	729.847
166.950	13.819	960.497	729.484
167.964	13.725	959.863	728.525
168.979	13.739	959.423	728.191
169.994	13.804	958.328	727.577
171.008	13.796	957.941	727.187
172.023	13.836	957.166	726.706
173.037	14.005	956.171	726.628
174.052	14.093	955.094	726.128
175.067	13.903	954.729	724.957
176.081	13.817	954.190	724.107
177.096	13.738	953.864	723.452
178.110	13.978	952.632	723.501
179.125	13.937	952.024	722.795
180.140	13.916	951.786	722.459
181.154	13.913	951.705	722.321
182.169	14.090	950.733	722.288
183.183	14.008	950.313	721.550
184.198	14.082	948.987	720.799
185.213	14.022	948.932	720.435
186.227	14.113	947.829	719.928
187.242	14.100	947.458	719.526
188.256	14.129	946.840	719.117
189.271	14.132	945.990	718.421
190.286	13.917	945.188	716.821
191.300	13.932	944.060	715.966
192.315	13.880	943.368	715.155
193.329	13.841	943.282	714.857
194.344	14.015	942.361	714.844
195.359	14.016	942.011	714.519
196.373	14.011	941.466	714.022
197.388	14.163	940.730	714.052
198.402	14.220	940.168	713.811
199.417	14.342	939.490	713.754
200.432	14.256	938.935	712.900
201.446	14.316	938.601	712.841
202.461	14.397	938.409	712.976
203.475	14.462	937.495	712.497
204.490	14.376	936.630	711.411
205.504	14.284	935.940	710.431
206.519	14.152	935.359	709.364
207.534	14.367	934.199	709.335
208.548	14.244	933.976	708.580
209.563	14.297	933.308	708.238
210.577	14.356	932.498	707.811
211.592	14.409	932.056	707.639
212.607	14.539	930.966	707.300
213.621	14.260	930.910	706.011
214.636	14.446	929.809	705.900
215.650	14.439	929.145	705.305
216.665	14.574	928.265	705.144
217.680	14.552	927.470	704.386
218.694	14.689	926.556	704.210
219.709	14.705	926.055	703.834
220.723	14.625	925.671	703.142
221.738	14.471	924.957	701.888
222.753	14.578	924.264	701.749
223.767	14.571	923.737	701.257
224.782	14.752	922.743	701.200
225.796	14.784	922.138	700.816
226.811	14.602	921.847	699.770
227.826	14.655	920.975	699.266
228.840	14.632	919.967	698.344
229.855	14.716	919.201	698.050
230.869	14.604	918.496	696.987
231.884	14.713	917.931	696.949
232.899	14.653	917.408	696.242
233.913	14.633	916.064	695.077
234.928	14.513	915.552	694.125
235.942	14.683	915.210	694.515
236.957	14.629	914.817	693.930
237.972	14.686	913.751	693.295
238.986	14.573	913.362	692.469
240.001	14.551	912.875	691.947
241.015	14.734	911.799	691.831
242.030	14.656	911.693	691.366
243.045	14.741	911.210	691.289
244.059	14.705	910.637	690.644
245.074	14.861	909.804	690.596
246.088	14.754	909.174	689.616
247.103	14.914	907.878	689.232
248.117	14.872	907.918	689.027
249.132	15.003	907.451	689.152
250.147	15.093	907.030	689.140
251.161	15.142	906.093	688.569
252.176	15.222	905.331	688.256
253.190	15.106	905.004	687.471
254.205	15.153	904.304	687.072
255.220	15.138	903.752	686.532
256.234	15.238	902.546	685.963
257.249	15.257	902.152	685.679
258.263	15.325	901.325	685.269
259.278	15.306	900.635	684.607
260.293	15.223	900.310	683.962
261.307	15.252	899.584	683.465
262.322	15.270	898.702	682.811
263.336	15.505	897.682	682.929
264.351	15.422	897.057	682.058
265.366	15.312	896.785	681.341
266.380	15.394	895.721	680.805
267.395	15.364	895.189	680.219
268.409	15.426	894.609	679.973
269.424	15.370	893.714	679.002
270.439	15.348	893.034	678.337
271.453	15.319	892.566	677.805
272.468	15.369	892.196	677.666
273.482	15.396	891.716	677.352
274.497	15.447	890.853	676.839
275.512	15.442	890.226	676.284
276.526	15.424	889.747	675.790
277.541	15.483	889.453	675.745
278.555	15.580	888.573	675.405
279.570	15.593	887.822	674.824
280.585	15.556	887.156	674.112
281.599	15.591	886.470	673.672
282.614	15.629	885.532	673.050
283.628	15.573	885.303	672.591
284.643	15.606	884.466	672.030
285.657	15.570	883.660	671.214
286.672	15.699	883.088	671.236
287.687	15.553	882.718	670.311
288.701	15.477	882.788	670.001
289.716	15.566	881.683	669.459
290.730	15.715	880.703	669.251
291.745	15.761	880.245	669.024
292.760	15.715	879.553	668.257
293.774	15.871	878.873	668.301
294.789	15.728	878.573	667.447
295.803	15.813	877.657	667.027
296.818	15.718	877.082	666.155
297.833	15.754	876.285	665.632
298.847	15.784	875.774	665.304
299.862	15.759	875.377	664.845
300.876	15.718	875.001	664.339
301.891	15.841	874.525	664.403
302.906	15.969	873.474	664.051
303.920	16.019	873.485	664.197
304.935	16.090	872.462	663.643
305.949	15.999	871.876	662.778
306.964	15.930	871.135	661.886
307.979	16.013	870.646	661.783
308.993	16.091	869.970	661.514
310.008	15.934	869.840	660.743
311.022	16.122	868.495	660.400
312.037	15.995	868.184	659.606
313.052	16.130	867.307	659.411
314.066	15.968	866.878	658.391
315.081	15.759	866.673	657.363
316.095	16.089	865.728	657.872
317.110	15.999	865.294	657.136
318.125	16.047	865.046	657.075
319.139	16.017	864.366	656.385
320.154	16.154	863.987	656.573
321.168	16.128	863.178	655.799
322.183	16.019	862.541	654.833
323.197	16.115	862.171	654.867
324.212	16.078	861.673	654.289
325.227	16.102	861.104	653.890
326.241	16.116	860.397	653.348
327.256	16.098	859.847	652.803
328.270	16.163	859.262	652.553
329.285	16.163	858.631	652.017
330.300	16.256	858.082	651.902
331.314	16.058	857.553	650.677
332.329	16.165	857.250	650.801
333.343	16.187	856.959	650.610
334.358	16.227	856.236	650.159
335.373	16.321	855.885	650.194
336.387	16.277	855.751	649.868
337.402	16.277	855.526	649.636
338.416	16.437	855.089	649.862
339.431	16.488	854.638	649.659
340.446	16.472	854.335	649.309
341.460	16.392	853.862	648.585
342.475	16.517	853.661	648.857
343.489	16.522	853.220	648.482
344.504	16.545	852.462	647.935
345.519	16.577	852.085	647.713
346.533	16.427	851.613	646.725
347.548	16.643	850.410	646.581
348.562	16.647	850.163	646.349
349.577	16.485	849.728	645.345
350.592	16.557	848.715	644.792
351.606	16.622	848.234	644.617
352.621	16.519	847.419	643.549
353.635	16.506	847.032	643.147
354.650	16.469	846.421	642.486
355.665	16.689	845.359	642.461
356.679	16.607	845.212	641.980
357.694	16.661	844.360	641.479
358.708	16.768	843.646	641.288
359.723	16.673	843.313	640.616
360.738	16.743	842.566	640.257
361.752	16.730	842.187	639.863
362.767	16.729	841.536	639.308
363.781	16.768	840.900	638.916
364.796	16.899	840.767	639.252
365.810	16.818	840.531	638.712
366.825	17.022	839.813	638.876
367.840	16.889	839.334	637.956
368.854	16.848	838.964	637.463
369.869	16.829	838.462	636.955
370.883	16.972	837.649	636.817
371.898	16.953	837.447	636.536
372.913	17.007	837.091	636.413
373.927	16.965	836.714	635.911
374.942	16.903	836.288	635.299
375.956	16.973	836.045	635.319
376.971	17.101	835.558	635.373
377.986	17.256	834.864	635.368
379.000	17.180	834.164	634.495
380.015	17.224	833.557	634.142
381.029	17.347	832.973	634.101
382.044	17.178	832.991	633.428
383.059	17.177	831.995	632.612
384.073	17.159	831.690	632.255
385.088	17.122	830.841	631.419
386.102	17.166	830.380	631.173
387.117	17.123	829.998	630.667
388.132	17.251	828.985	630.319
389.146	17.231	828.471	629.798
390.161	17.250	828.271	629.660
391.175	17.318	827.569	629.322
392.190	17.167	827.277	628.485
393.205	17.216	826.773	628.228
394.219	17.090	826.693	627.644
395.234	17.111	826.194	627.290
396.248	17.355	825.249	627.415
397.263	17.157	825.159	626.563
398.278	17.094	824.814	626.014
399.292	17.256	824.327	626.183
400.307	17.288	823.874	625.904
401.321	17.312	823.019	625.284
402.336	17.233	822.690	624.691
403.350	17.288	822.074	624.370
404.365	17.315	821.808	624.211
405.380	17.354	821.555	624.108
406.394	17.585	820.736	624.274
407.409	17.397	820.284	623.189
408.423	17.594	819.989	623.630
409.438	17.618	819.437	623.241
410.453	17.667	819.309	623.271
411.467	17.632	818.957	622.817
412.482	17.662	818.629	622.622
413.496	17.847	818.010	622.772
414.511	17.671	817.772	621.896
415.526	17.659	817.233	621.385
416.540	17.738	816.502	621.062
417.555	17.603	816.412	620.447
418.569	17.768	815.710	620.461
419.584	17.782	815.121	620.007
420.599	17.924	814.449	619.958
421.613	103.322	1285.879	1440.806
422.628	89.063	1354.562	1440.894
