DTS Sentinel unit serial number:	SN413079Multiplexer serial number:	ORYXHardware model number:	OX4-SRSoftware version number:	ORYX F/W v4.00 Oryx Data Collector v3.7.2.0data status	okinstallation	princeton_trtdifferential loss correction	single-endedforward channel	channel 1reverse channel	N/Adate	2019/09/15time	08:10:35forward acquisition time	60.00reverse acquisition time	0.00gamma	496.2192k internal	0.2324k external	0.2324temperature offset calibration	0.9994default loss term (dB/km)	0.3790temperature slope calibration	1.0000multiplexer offset coefficient	1.0000multiplexer slope coefficient	1.0000fibre end	0.00T internal ref (°C)	30.95T ext. ref 1 (°C)	4.99T ext. ref 2 (°C)	27.67length (m)	temperature (°C)	Stokes	anti-Stokes-747.200	-152.260	-0.254	-0.019
-746.185	-127.659	0.313	0.046
-745.171	88.480	0.109	0.122
-744.156	146.626	-0.216	0.292
-743.142	-200.000	0.075	-0.392
-742.127	-200.000	0.013	-0.252
-741.112	677.332	-0.079	-0.208
-740.098	-70.157	0.279	0.107
-739.083	58.957	-0.137	0.136
-738.069	-75.955	-0.314	-0.112
-737.054	-200.000	0.045	0.372
-736.039	-200.000	-0.052	0.234
-735.025	68.215	0.089	0.092
-734.010	25.515	-0.196	0.164
-732.996	-105.615	0.184	0.042
-731.981	124.023	0.069	0.088
-730.966	800.000	-0.091	0.299
-729.952	-191.208	0.272	0.003
-728.937	41.447	-0.090	0.082
-727.923	330.784	-0.168	-0.327
-726.908	650.183	0.120	-0.309
-725.894	438.216	-0.024	0.052
-724.879	30.512	-0.251	-0.217
-723.864	-167.753	0.346	-0.014
-722.850	800.000	-0.093	-0.299
-721.835	-3.569	0.267	0.187
-720.821	-200.000	0.036	-0.201
-719.806	164.317	-0.013	0.018
-718.791	20.744	-0.134	-0.110
-717.777	70.772	-0.164	0.171
-716.762	-154.223	-0.312	0.021
-715.748	-118.412	-0.258	0.046
-714.733	-168.117	0.405	0.016
-713.718	800.000	-0.078	-0.344
-712.704	96.597	-0.170	-0.197
-711.689	81.670	-0.157	0.172
-710.675	52.344	-0.050	-0.048
-709.660	-29.324	0.274	0.158
-708.645	163.119	-0.209	0.296
-707.631	-36.806	-0.082	0.044
-706.616	-200.000	-0.030	0.403
-705.602	-141.749	0.142	0.014
-704.587	-200.000	0.039	-0.283
-703.572	-53.056	-0.305	0.141
-702.558	421.588	-0.113	0.244
-701.543	-41.070	0.128	0.067
-700.529	-117.337	0.059	0.011
-699.514	130.640	-0.244	0.316
-698.499	73.535	0.256	0.270
-697.485	154.722	-0.136	-0.188
-696.470	-200.000	-0.007	-0.107
-695.456	-180.653	0.166	-0.003
-694.441	-76.709	0.208	-0.073
-693.426	-200.000	0.045	0.000
-692.412	148.691	0.201	-0.273
-691.397	47.401	-0.098	0.092
-690.383	47.195	0.308	0.288
-689.368	-200.000	-0.027	-0.363
-688.354	-182.055	0.195	-0.004
-687.339	-152.737	-0.162	0.012
-686.324	236.971	0.141	-0.235
-685.310	-35.413	-0.126	-0.069
-684.295	800.000	0.065	0.218
-683.281	7.979	0.096	-0.073
-682.266	40.064	-0.298	-0.270
-681.251	563.122	0.137	-0.334
-680.237	-103.571	0.395	0.094
-679.222	-55.907	0.175	-0.079
-678.208	-87.226	-0.173	-0.053
-677.193	-39.176	0.131	0.069
-676.178	-200.000	-0.008	-0.060
-675.164	488.034	0.148	-0.340
-674.149	24.600	-0.118	0.099
-673.135	-200.000	0.131	0.648
-672.120	-47.317	0.239	-0.117
-671.105	402.817	-0.084	-0.178
-670.091	262.792	-0.023	-0.040
-669.076	800.000	-0.031	0.127
-668.062	800.000	0.086	-0.294
-667.047	-31.648	-0.022	-0.013
-666.032	-99.586	-0.268	0.068
-665.018	800.000	0.041	-0.118
-664.003	0.945	0.186	-0.135
-662.989	-94.236	0.099	-0.027
-661.974	445.972	0.088	-0.194
-660.959	514.934	0.120	-0.283
-659.945	-86.027	0.375	0.117
-658.930	-118.731	-0.338	0.060
-657.916	-200.000	-0.052	-0.342
-656.901	88.153	-0.104	0.116
-655.886	-200.000	-0.057	0.274
-654.872	-200.000	0.037	-0.240
-653.857	118.891	0.135	-0.168
-652.843	800.000	0.075	0.231
-651.828	-200.000	-0.012	-0.117
-650.814	-200.000	0.007	0.095
-649.799	-143.133	-0.326	0.032
-648.784	250.295	0.358	-0.612
-647.770	-164.171	0.179	0.008
-646.755	-91.786	-0.203	-0.058
-645.741	800.000	0.124	-0.370
-644.726	253.998	-0.062	-0.107
-643.711	-200.000	0.009	-0.259
-642.697	73.041	-0.066	0.069
-641.682	-200.000	-0.005	-0.060
-640.668	-5.844	-0.271	-0.186
-639.653	800.000	-0.114	-0.412
-638.638	100.605	-0.148	0.173
-637.624	-63.018	0.217	-0.090
-636.609	-78.128	-0.220	-0.076
-635.595	-15.856	-0.119	0.076
-634.580	80.955	0.140	-0.151
-633.565	-109.411	-0.200	0.042
-632.551	15.894	0.140	-0.110
-631.536	800.000	-0.065	0.247
-630.522	-5.420	0.089	0.061
-629.507	-135.889	0.043	0.005
-628.492	-200.000	0.007	0.206
-627.478	-70.765	-0.333	-0.126
-626.463	122.219	-0.180	0.226
-625.449	-200.000	-0.027	-0.129
-624.434	264.590	0.020	-0.035
-623.419	800.000	0.049	0.139
-622.405	-37.250	0.113	-0.061
-621.390	-39.330	0.218	-0.115
-620.376	-142.470	0.143	-0.014
-619.361	89.924	-0.249	-0.280
-618.346	-200.000	0.012	-0.058
-617.332	800.000	0.025	-0.079
-616.317	-98.356	-0.028	-0.007
-615.303	-4.229	0.180	0.125
-614.288	-200.000	0.033	0.212
-613.273	-173.973	0.075	-0.002
-612.259	-96.376	0.147	0.039
-611.244	57.040	0.135	0.132
-610.230	800.000	-0.065	-0.186
-609.215	-200.000	-0.003	-0.168
-608.201	64.970	0.101	-0.103
-607.186	99.784	-0.068	0.080
-606.171	217.860	0.066	0.106
-605.157	800.000	-0.050	-0.158
-604.142	-116.781	-0.235	0.043
-603.128	800.000	0.032	-0.129
-602.113	253.739	0.178	0.306
-601.098	33.583	0.228	0.199
-600.084	83.146	-0.088	-0.096
-599.069	-200.000	-0.018	0.251
-598.055	-94.865	0.120	-0.033
-597.040	118.291	0.148	-0.183
-596.025	800.000	-0.076	-0.242
-595.011	-156.070	-0.393	-0.025
-593.996	-117.042	0.112	0.020
-592.982	-190.565	0.165	-0.002
-591.967	-143.815	-0.186	-0.018
-590.952	614.687	0.193	0.486
-589.938	-74.498	0.258	-0.093
-588.923	455.242	-0.082	-0.183
-587.909	-200.000	-0.065	0.368
-586.894	-102.739	-0.074	0.018
-585.879	-5.911	-0.400	-0.275
-584.865	140.579	0.070	0.093
-583.850	152.919	-0.235	-0.322
-582.836	221.112	0.044	0.071
-581.821	-1.493	-0.267	0.189
-580.806	-200.000	0.015	0.212
-579.792	-101.504	-0.089	-0.022
-578.777	-138.917	0.229	-0.025
-577.763	5.996	-0.138	0.102
-576.748	800.000	-0.113	0.346
-575.733	-29.163	0.412	-0.237
-574.719	-63.286	-0.148	-0.061
-573.704	99.041	-0.098	-0.114
-572.690	-65.638	-0.277	0.111
-571.675	800.000	0.032	0.123
-570.661	163.561	0.156	0.219
-569.646	222.834	-0.029	-0.047
-568.631	-73.436	-0.125	0.046
-567.617	-200.000	0.027	-0.178
-566.602	-69.126	0.128	0.049
-565.588	606.356	-0.112	-0.279
-564.573	-196.989	0.160	0.001
-563.558	313.747	0.029	0.054
-562.544	-128.943	0.409	-0.058
-561.529	800.000	0.029	0.098
-560.515	-131.271	-0.434	-0.058
-559.500	800.000	-0.068	0.248
-558.485	576.646	-0.053	0.130
-557.471	236.709	-0.148	0.246
-556.456	-200.000	-0.034	-0.294
-555.442	-127.733	-0.293	-0.042
-554.427	245.102	0.250	-0.421
-553.412	800.000	0.065	0.239
-552.398	370.767	-0.109	-0.222
-551.383	-137.284	0.098	0.011
-550.369	-99.568	-0.216	-0.054
-549.354	-159.617	0.289	0.016
-548.339	-105.972	-0.157	-0.035
-547.325	104.858	0.100	0.119
-546.310	-28.329	-0.045	0.026
-545.296	43.973	0.261	-0.240
-544.281	8.684	-0.305	-0.230
-543.266	158.176	0.079	0.110
-542.252	139.651	0.132	-0.174
-541.237	136.889	0.164	-0.214
-540.223	-88.559	-0.144	0.043
-539.208	288.991	0.173	0.315
-538.193	0.016	0.117	0.083
-537.179	174.298	0.161	0.234
-536.164	55.521	0.219	-0.212
-535.150	-91.580	0.158	0.045
-534.135	-93.363	-0.418	-0.116
-533.121	-141.730	0.081	-0.008
-532.106	-132.327	-0.188	0.024
-531.091	70.390	0.182	-0.189
-530.077	70.109	0.098	0.101
-529.062	-200.000	-0.034	-0.232
-528.048	-57.598	-0.137	-0.060
-527.033	-167.795	0.169	-0.007
-526.018	-37.905	0.095	-0.050
-525.004	-129.645	-0.286	0.039
-523.989	-4.568	0.175	0.121
-522.975	800.000	-0.051	-0.180
-521.960	-200.000	0.046	-0.279
-520.945	-76.207	0.228	0.081
-519.931	68.662	-0.106	-0.109
-518.916	-34.556	0.285	-0.156
-517.902	28.790	-0.046	-0.039
-516.887	-147.272	-0.269	-0.023
-515.872	-71.904	-0.140	0.052
-514.858	-200.000	-0.036	0.316
-513.843	-133.103	0.208	-0.026
-512.829	173.609	-0.125	-0.181
-511.814	117.730	0.077	-0.095
-510.799	800.000	0.100	0.302
-509.785	-54.271	-0.259	0.117
-508.770	-2.563	-0.091	-0.064
-507.756	-200.000	0.029	0.392
-506.741	800.000	-0.050	0.199
-505.726	800.000	0.188	-0.649
-504.712	-19.433	-0.275	0.170
-503.697	234.674	-0.070	0.115
-502.683	-121.375	-0.364	0.061
-501.668	-24.775	-0.169	-0.100
-500.653	-54.438	-0.348	0.158
-499.639	-122.041	-0.180	0.030
-498.624	-1.779	-0.191	0.134
-497.610	-191.457	0.132	-0.001
-496.595	-118.992	0.209	0.037
-495.581	708.640	-0.174	-0.461
-494.566	-38.499	0.155	-0.082
-493.551	325.642	-0.135	0.259
-492.537	-75.552	-0.314	0.111
-491.522	-58.968	0.045	-0.019
-490.508	800.000	0.041	-0.123
-489.493	163.912	-0.309	0.435
-488.478	-24.979	-0.062	0.037
-487.464	757.772	-0.041	-0.110
-486.449	800.000	-0.017	0.063
-485.435	54.619	0.102	0.098
-484.420	254.414	-0.203	-0.347
-483.405	144.911	-0.061	0.082
-482.391	-200.000	-0.014	0.122
-481.376	-91.795	-0.152	-0.043
-480.362	800.000	0.040	0.127
-479.347	78.088	-0.217	0.231
-478.332	-12.793	-0.153	-0.099
-477.318	329.792	0.023	0.044
-476.303	-200.000	-0.042	-0.260
-475.289	-200.000	0.019	-0.083
-474.274	-43.740	0.103	0.052
-473.259	-6.035	-0.132	0.090
-472.245	-200.000	0.017	-0.113
-471.230	800.000	0.048	0.192
-470.216	705.380	-0.092	0.242
-469.201	-37.697	-0.084	-0.045
-468.186	800.000	0.030	-0.107
-467.172	-57.605	-0.304	-0.133
-466.157	144.629	0.159	-0.213
-465.143	-69.064	0.324	0.125
-464.128	800.000	0.029	-0.103
-463.113	246.118	-0.064	0.108
-462.099	-120.996	0.042	-0.007
-461.084	-86.426	-0.234	0.072
-460.070	-200.000	0.050	0.364
-459.055	-59.120	0.118	-0.051
-458.040	-52.286	-0.076	-0.035
-457.026	-200.000	-0.090	0.405
-456.011	348.963	0.152	0.300
-454.997	28.861	0.215	-0.182
-453.982	627.485	0.189	0.477
-452.968	-92.864	0.143	0.040
-451.953	-97.143	-0.125	0.033
-450.938	115.111	0.274	0.333
-449.924	396.460	-0.142	-0.295
-448.909	58.039	-0.208	-0.204
-447.895	800.000	-0.045	-0.181
-446.880	416.370	-0.178	-0.378
-445.865	-200.000	0.008	0.272
-444.851	172.293	0.038	-0.054
-443.836	800.000	0.079	0.335
-442.822	-200.000	-0.015	-0.118
-441.807	35.841	-0.096	-0.084
-440.792	190.725	0.039	-0.058
-439.778	-138.139	-0.098	-0.011
-438.763	-106.861	0.221	-0.049
-437.749	148.613	-0.240	-0.324
-436.734	-52.937	0.256	-0.117
-435.719	-175.687	-0.287	-0.008
-434.705	383.015	0.066	-0.136
-433.690	33.484	-0.092	-0.079
-432.676	-173.861	0.246	-0.007
-431.661	-113.654	0.229	-0.045
-430.646	-95.415	0.122	-0.033
-429.632	28.428	0.087	-0.074
-428.617	-72.903	0.368	0.135
-427.603	-192.376	-0.268	0.003
-426.588	-200.000	0.018	0.160
-425.573	397.430	0.243	0.507
-424.559	187.970	0.076	-0.114
-423.544	-78.243	-0.373	-0.128
-422.530	152.713	0.254	-0.346
-421.515	58.928	0.138	0.136
-420.500	13.008	-0.190	-0.147
-419.486	-62.399	-0.151	-0.063
-418.471	91.420	0.176	0.197
-417.457	-52.503	0.428	-0.197
-416.442	552.140	-0.083	0.198
-415.428	29.232	-0.057	-0.049
-414.413	-110.527	0.141	-0.029
-413.398	-200.000	-0.007	0.032
-412.384	311.298	-0.146	0.273
-411.369	-137.165	0.182	0.021
-410.355	-139.900	0.221	0.023
-409.340	84.027	-0.176	0.192
-408.325	-200.000	0.009	-0.294
-407.311	-72.265	-0.060	0.022
-406.296	322.722	0.053	0.100
-405.282	6.812	0.136	0.101
-404.267	-9.393	-0.435	0.289
-403.252	-97.297	-0.293	0.076
-402.238	-200.000	-0.012	-0.147
-401.223	-1.593	-0.213	-0.150
-400.209	152.671	-0.193	-0.263
-399.194	-6.756	-0.065	-0.044
-398.179	4.062	0.201	-0.146
-397.165	576.130	-0.108	-0.264
-396.150	-109.711	0.230	-0.048
-395.136	-65.539	-0.088	-0.035
-394.121	28.590	0.300	0.253
-393.106	-162.874	0.386	0.019
-392.092	206.917	-0.102	-0.158
-391.077	-200.000	0.093	0.446
-390.063	-83.505	0.334	0.106
-389.048	-90.966	0.104	0.030
-388.033	-200.000	0.025	0.175
-387.019	-88.894	-0.203	-0.060
-386.004	440.295	-0.111	0.241
-384.990	581.720	0.082	-0.200
-383.975	-72.485	0.171	0.063
-382.960	-23.175	0.072	-0.043
-381.946	-200.000	-0.003	0.285
-380.931	0.399	-0.150	0.107
-379.917	226.252	0.137	-0.222
-378.902	120.055	0.092	0.113
-377.888	125.774	0.351	-0.442
-376.873	25.989	0.255	0.211
-375.858	47.556	-0.183	0.170
-374.844	14.881	0.095	-0.074
-373.829	183.798	0.061	-0.089
-372.815	-200.000	-0.010	-0.357
-371.800	700.682	-0.041	0.107
-370.785	317.945	-0.070	0.131
-369.771	-71.663	-0.141	0.052
-368.756	357.678	-0.030	0.059
-367.742	114.090	-0.299	-0.362
-366.727	74.034	-0.046	-0.048
-365.712	-153.266	-0.165	0.011
-364.698	-6.095	0.296	0.201
-363.683	139.393	0.264	0.346
-362.669	-64.864	-0.284	-0.114
-361.654	-22.075	0.211	0.127
-360.639	-200.000	0.049	0.231
-359.625	180.956	0.133	0.194
-358.610	-200.000	0.046	0.219
-357.596	-3.111	0.132	0.092
-356.581	360.931	-0.127	-0.254
-355.566	-200.000	-0.001	0.157
-354.552	-200.000	-0.019	0.455
-353.537	-152.571	-0.353	-0.025
-352.523	-193.045	0.066	0.001
-351.508	-200.000	0.013	0.144
-350.493	-117.474	0.398	-0.072
-349.479	242.765	0.217	-0.361
-348.464	65.033	0.165	0.165
-347.450	43.659	0.229	0.209
-346.435	-76.947	-0.073	0.025
-345.420	37.344	0.223	-0.196
-344.406	763.281	0.100	0.271
-343.391	180.813	-0.108	0.157
-342.377	-6.951	0.166	-0.112
-341.362	-62.051	-0.151	-0.063
-340.348	800.000	0.108	0.340
-339.333	800.000	0.052	-0.217
-338.318	527.451	0.085	0.200
-337.304	752.416	0.207	-0.555
-336.289	295.899	-0.105	-0.191
-335.275	159.334	-0.121	0.167
-334.260	-81.539	-0.285	0.093
-333.245	-200.000	-0.001	0.169
-332.231	-145.039	0.220	-0.020
-331.216	-152.976	-0.545	0.038
-330.202	-200.000	0.079	0.443
-329.187	154.286	-0.167	-0.228
-328.172	393.872	-0.048	-0.099
-327.158	634.030	-0.149	0.375
-326.143	141.780	-0.051	-0.067
-325.129	-82.682	-0.225	0.072
-324.114	50.558	-0.128	-0.121
-323.099	184.555	0.172	-0.253
-322.085	-200.000	0.001	0.156
-321.070	-25.262	-0.343	-0.201
-320.056	121.921	0.084	-0.104
-319.041	-116.639	0.236	0.043
-318.026	162.715	-0.219	-0.305
-317.012	121.718	-0.239	-0.296
-315.997	-77.085	0.631	-0.218
-314.983	274.807	-0.164	0.288
-313.968	-200.000	0.038	0.180
-312.953	-200.000	-0.015	0.215
-311.939	283.946	0.286	0.510
-310.924	-40.203	-0.201	0.104
-309.910	-200.000	0.002	-0.106
-308.895	192.052	-0.080	0.120
-307.880	51.870	0.178	-0.168
-306.866	-200.000	-0.015	0.235
-305.851	-64.391	-0.183	-0.074
-304.837	-200.000	-0.007	-0.104
-303.822	-200.000	-0.010	-0.273
-302.807	9.944	0.190	0.143
-301.793	-200.000	-0.075	-0.534
-300.778	454.939	0.064	0.141
-299.764	-200.000	0.015	0.290
-298.749	448.530	-0.068	-0.149
-297.735	800.000	-0.054	0.198
-296.720	800.000	0.038	0.142
-295.705	-58.178	-0.130	-0.056
-294.691	-25.551	-0.125	-0.073
-293.676	240.424	0.168	-0.279
-292.662	-200.000	-0.040	-0.190
-291.647	536.038	-0.136	0.320
-290.632	138.162	-0.105	-0.136
-289.618	-73.160	0.343	0.125
-288.603	60.975	-0.203	0.200
-287.589	-44.931	-0.372	-0.184
-286.574	-83.989	-0.153	0.048
-285.559	-31.528	-0.068	-0.038
-284.545	6.646	-0.120	0.088
-283.530	-96.569	0.240	0.063
-282.516	-200.000	-0.018	-0.085
-281.501	504.323	-0.043	0.098
-280.486	-128.057	0.060	-0.008
-279.472	-200.000	-0.036	-0.326
-278.457	263.933	-0.054	0.093
-277.443	-87.157	-0.214	-0.065
-276.428	-197.521	0.338	-0.002
-275.413	-128.905	0.194	-0.027
-274.399	-165.183	0.342	0.015
-273.384	192.382	0.208	0.311
-272.370	482.825	0.103	-0.233
-271.355	739.336	0.070	-0.185
-270.340	-200.000	-0.006	-0.158
-269.326	-58.196	-0.124	-0.054
-268.311	514.545	0.071	0.165
-267.297	43.859	-0.102	-0.092
-266.282	5.981	0.103	-0.076
-265.267	-15.874	0.088	-0.056
-264.253	466.384	0.035	0.078
-263.238	104.178	-0.220	0.256
-262.224	46.056	0.070	-0.064
-261.209	800.000	-0.021	-0.070
-260.195	40.587	-0.155	0.138
-259.180	179.183	0.329	0.477
-258.165	570.116	-0.040	-0.096
-257.151	-45.717	0.284	0.139
-256.136	-200.000	-0.018	-0.143
-255.122	-84.258	0.216	0.068
-254.107	800.000	0.136	0.400
-253.092	20.907	-0.100	0.080
-252.078	-200.000	-0.021	-0.239
-251.063	-147.381	0.235	0.020
-250.049	-19.737	0.109	0.067
-249.034	478.612	-0.322	-0.722
-248.019	-165.058	-0.138	0.006
-247.005	99.236	0.235	-0.269
-245.990	-58.981	0.383	0.164
-244.976	800.000	0.096	0.323
-243.961	-129.449	-0.185	0.025
-242.946	-64.152	0.162	-0.065
-241.932	-200.000	0.040	0.264
-240.917	-107.804	0.129	0.028
-239.903	141.428	-0.074	0.097
-238.888	527.733	-0.073	-0.169
-237.873	-200.000	-0.006	-0.220
-236.859	800.000	0.051	-0.192
-235.844	-51.552	0.191	-0.088
-234.830	683.587	0.110	-0.285
-233.815	-19.503	0.193	0.118
-232.800	612.467	-0.023	-0.056
-231.786	-75.884	-0.128	0.045
-230.771	-200.000	-0.039	0.214
-229.757	-83.353	0.310	-0.098
-228.742	-16.182	-0.175	0.110
-227.727	224.974	0.158	0.254
-226.713	58.165	-0.085	-0.082
-225.698	-184.366	-0.485	-0.008
-224.684	209.583	-0.021	0.033
-223.669	800.000	0.017	-0.052
-222.655	17.071	-0.146	-0.114
-221.640	292.986	-0.107	0.194
-220.625	-200.000	-0.028	0.193
-219.611	71.045	0.065	0.067
-218.596	-186.504	-0.505	0.007
-217.582	-200.000	0.005	0.164
-216.567	18.805	-0.124	0.098
-215.552	-200.000	0.023	-0.214
-214.538	290.295	-0.107	-0.192
-213.523	335.896	-0.049	0.093
-212.509	-83.657	-0.182	0.058
-211.494	1.742	0.070	-0.050
-210.479	-181.572	-0.155	-0.003
-209.465	-200.000	-0.005	0.258
-208.450	484.211	0.155	0.349
-207.436	469.546	-0.100	-0.221
-206.421	-150.153	0.163	0.012
-205.406	611.647	-0.110	-0.271
-204.392	-21.673	0.200	0.120
-203.377	-53.817	-0.092	0.041
-202.363	-200.000	-0.024	-0.200
-201.348	-105.827	-0.221	-0.049
-200.333	32.005	0.296	-0.252
-199.319	-200.000	0.001	-0.046
-198.304	26.818	0.047	-0.039
-197.290	800.000	0.045	0.143
-196.275	-103.854	0.314	-0.072
-195.260	67.930	-0.043	-0.043
-194.246	-200.000	0.028	0.149
-193.231	86.845	-0.169	0.184
-192.217	-57.478	0.188	-0.082
-191.202	-200.000	-0.000	-0.267
-190.187	11.409	-0.177	0.134
-189.173	37.424	0.012	-0.011
-188.158	-43.868	-0.332	-0.165
-187.144	49.568	0.110	0.103
-186.129	555.972	0.127	0.303
-185.114	-14.979	0.055	0.035
-184.100	-150.002	-0.384	-0.030
-183.085	-200.000	0.009	0.238
-182.071	196.931	-0.218	-0.328
-181.056	12.170	0.232	-0.176
-180.042	555.884	-0.078	0.186
-179.027	-110.743	-0.291	0.059
-178.012	-200.000	-0.022	-0.368
-176.998	-200.000	-0.007	0.122
-175.983	10.981	-0.175	-0.132
-174.969	-51.743	-0.046	0.021
-173.954	175.358	0.183	0.261
-172.939	-200.000	0.012	-0.179
-171.925	800.000	-0.076	-0.237
-170.910	-71.532	0.348	-0.128
-169.896	-200.000	-0.027	0.241
-168.881	-200.000	-0.007	-0.031
-167.866	-119.892	0.268	0.046
-166.852	-200.000	0.012	0.114
-165.837	-200.000	-0.027	-0.151
-164.823	674.645	0.163	-0.416
-163.808	262.866	-0.017	-0.028
-162.793	-200.000	-0.025	0.186
-161.779	-74.498	-0.146	-0.052
-160.764	-7.249	0.157	0.105
-159.750	411.271	-0.149	-0.312
-158.735	772.495	-0.073	0.195
-157.720	757.318	0.025	0.066
-156.706	733.654	0.048	0.127
-155.691	-200.000	-0.003	-0.380
-154.677	800.000	-0.041	0.141
-153.662	-113.847	0.133	0.026
-152.647	317.191	0.085	-0.158
-151.633	-200.000	0.030	-0.309
-150.618	-200.000	-0.043	-0.333
-149.604	571.564	-0.109	0.262
-148.589	237.988	0.181	-0.296
-147.574	-21.529	-0.096	0.057
-146.560	1.082	-0.112	-0.079
-145.545	-102.900	0.131	-0.031
-144.531	-8.322	0.228	0.151
-143.516	117.372	0.156	-0.189
-142.502	-107.768	0.039	-0.008
-141.487	117.266	0.049	0.060
-140.472	38.797	-0.231	0.203
-139.458	-200.000	0.404	-0.001
-138.443	-61.281	0.105	-0.044
-137.429	32.696	0.238	0.203
-136.414	-200.000	0.069	0.372
-135.399	670.775	0.090	0.230
-134.385	800.000	0.078	-0.320
-133.370	-119.063	-0.171	0.030
-132.356	-2.766	0.276	0.190
-131.341	-92.245	0.295	0.082
-130.326	-200.000	-0.026	0.193
-129.312	264.833	0.194	0.334
-128.297	-166.862	-0.110	-0.004
-127.283	195.833	0.203	0.305
-126.268	-94.519	0.496	0.133
-125.253	-200.000	0.098	0.439
-124.239	-66.809	0.058	0.023
-123.224	-117.101	0.163	-0.029
-122.210	-200.000	0.054	0.315
-121.195	656.418	0.056	0.142
-120.180	197.899	0.337	0.507
-119.166	800.000	-0.054	0.160
-118.151	-98.515	-0.083	-0.021
-117.137	50.305	-0.115	0.107
-116.122	-200.000	0.013	0.133
-115.107	766.105	0.072	-0.194
-114.093	-10.790	0.193	0.126
-113.078	-46.709	0.124	0.060
-112.064	800.000	0.155	-0.512
-111.049	-117.633	0.083	0.015
-110.034	-4.502	0.057	-0.039
-109.020	-113.192	0.202	-0.039
-108.005	38.028	-0.223	0.196
-106.991	-24.109	0.225	-0.132
-105.976	-141.327	0.123	0.012
-104.962	-13.712	-0.094	0.060
-103.947	-200.000	0.030	0.304
-102.932	-92.583	-0.343	-0.095
-101.918	-60.873	0.360	-0.150
-100.903	-200.000	-0.023	-0.162
-99.889	-141.044	0.113	0.011
-98.874	-200.000	0.005	0.454
-97.859	248.145	0.105	0.174
-96.845	210.150	0.089	0.137
-95.830	-97.660	-0.161	-0.041
-94.816	626.193	0.037	-0.093
-93.801	55.596	0.181	-0.172
-92.786	-8.511	0.143	-0.094
-91.772	-200.000	-0.032	0.246
-90.757	-83.213	-0.192	-0.061
-89.743	-12.598	0.224	-0.144
-88.728	28.582	-0.228	-0.190
-87.713	-109.186	-0.398	-0.083
-86.699	800.000	-0.017	0.047
-85.684	3.874	-0.266	0.191
-84.670	-165.760	-0.189	0.008
-83.655	-143.059	0.378	-0.036
-82.640	131.596	-0.054	-0.068
-81.626	19.017	0.211	-0.167
-80.611	-200.000	-0.010	-0.127
-79.597	337.367	-0.106	-0.202
-78.582	25.422	0.091	-0.074
-77.567	-44.619	0.147	-0.072
-76.553	-183.450	-0.026	0.000
-75.538	-68.518	-0.303	-0.115
-74.524	272.069	0.088	0.152
-73.509	-106.387	0.463	0.102
-72.494	-98.451	-0.331	0.083
-71.480	30.808	-0.075	-0.063
-70.465	-72.384	-0.132	0.048
-69.451	-51.828	-0.054	0.025
-68.436	-200.000	0.010	0.127
-67.422	-200.000	-0.062	-0.273
-66.407	-41.329	0.327	-0.165
-65.392	317.616	0.086	0.159
-64.378	-200.000	-0.047	0.208
-63.363	39.225	0.048	0.042
-62.349	575.393	-0.135	0.324
-61.334	61.795	-0.904	-0.885
-60.319	356.583	0.267	0.523
-59.305	-200.000	-0.292	-1.278
-58.290	260.735	0.826	1.404
-57.276	423.302	0.662	1.399
-56.261	-200.000	99.967	600.572
-55.246	594.420	1407.317	3419.784
-54.232	192.105	2592.240	3841.204
-53.217	118.402	2146.249	2601.754
-52.203	43.252	1596.590	1432.313
-51.188	34.679	1330.841	1142.837
-50.173	31.275	1289.319	1087.356
-49.159	54.228	1338.834	1265.770
-48.144	55.794	1355.510	1290.763
-47.130	34.700	1312.653	1127.164
-46.115	31.108	1294.911	1090.923
-45.100	31.094	1289.548	1086.279
-44.086	30.819	1287.800	1083.164
-43.071	30.835	1285.623	1081.385
-42.057	30.766	1283.247	1078.941
-41.042	30.858	1281.807	1078.225
-40.027	30.828	1280.274	1076.720
-39.013	30.872	1278.243	1075.223
-37.998	30.887	1276.788	1074.039
-36.984	30.865	1274.614	1072.040
-35.969	30.952	1273.221	1071.329
-34.954	30.954	1271.279	1069.662
-33.940	30.994	1270.349	1069.069
-32.925	31.038	1269.356	1068.443
-31.911	31.029	1267.687	1066.943
-30.896	31.030	1266.374	1065.801
-29.881	31.055	1264.505	1064.328
-28.867	31.043	1263.382	1063.272
-27.852	31.176	1262.296	1063.077
-26.838	31.134	1260.773	1061.514
-25.823	31.063	1259.040	1059.605
-24.809	31.018	1258.194	1058.595
-23.794	31.016	1256.684	1057.274
-22.779	31.004	1255.805	1056.422
-21.765	31.107	1254.371	1055.757
-20.750	31.069	1253.012	1054.359
-19.736	30.996	1251.319	1052.478
-18.721	30.914	1250.419	1051.220
-17.706	30.819	1249.210	1049.625
-16.692	30.978	1247.868	1049.351
-15.677	30.885	1247.021	1048.073
-14.663	30.881	1245.967	1047.125
-13.648	30.885	1244.981	1046.274
-12.633	30.944	1243.713	1045.496
-11.619	30.934	1243.034	1044.829
-10.604	30.971	1242.013	1044.137
-9.590	30.866	1241.520	1043.095
-8.575	30.878	1239.967	1041.819
-7.560	30.688	1240.127	1040.847
-6.546	30.828	1238.921	1040.574
-5.531	30.857	1238.049	1039.964
-4.517	30.713	1237.436	1038.606
-3.502	30.930	1236.137	1038.679
-2.487	30.848	1235.145	1037.347
-1.473	30.833	1231.394	1034.074
-0.458	29.784	1216.903	1016.106
0.556	25.665	1200.849	982.399
1.571	22.313	1206.701	968.677
2.586	21.555	1221.928	976.589
3.600	21.050	1210.842	964.851
4.615	16.294	1140.031	883.516
5.629	8.459	1067.970	789.045
6.644	5.194	1048.553	758.784
7.659	4.976	1045.760	755.639
8.673	4.948	1044.672	754.654
9.688	4.823	1043.358	753.031
10.702	5.068	1041.671	752.930
11.717	9.953	1048.364	781.383
12.731	16.916	1057.955	822.343
13.746	19.145	1059.404	834.211
14.761	18.169	1058.230	828.483
15.775	17.077	1055.835	821.257
16.790	16.023	1053.430	814.222
17.804	15.215	1052.507	809.536
18.819	14.926	1051.207	807.071
19.834	14.624	1050.776	805.211
20.848	14.482	1049.548	803.514
21.863	14.243	1048.804	801.722
22.877	14.039	1048.410	800.368
23.892	14.083	1047.463	799.786
24.907	14.136	1046.626	799.332
25.921	14.266	1045.204	798.797
26.936	14.274	1044.101	797.920
27.950	14.084	1043.351	796.369
28.965	14.258	1041.348	795.603
29.980	14.324	1039.925	794.760
30.994	14.385	1038.775	794.099
32.009	14.477	1037.508	793.499
33.023	14.378	1036.954	792.533
34.038	14.204	1036.332	791.164
35.053	14.203	1035.286	790.287
36.067	14.100	1034.331	789.001
37.082	14.258	1033.076	788.721
38.096	14.246	1032.798	788.384
39.111	14.278	1031.916	787.791
40.126	14.242	1030.694	786.620
41.140	14.022	1029.441	784.555
42.155	14.047	1028.229	783.681
43.169	13.911	1027.451	782.375
44.184	13.944	1026.132	781.460
45.199	13.970	1025.310	780.888
46.213	14.167	1023.558	780.407
47.228	14.064	1023.352	779.696
48.242	14.258	1021.938	779.460
49.257	14.215	1021.110	778.557
50.271	14.226	1020.054	777.738
51.286	14.200	1019.203	776.897
52.301	14.093	1018.781	776.006
53.315	14.058	1017.496	774.798
54.330	13.929	1016.351	773.257
55.344	14.121	1015.813	773.671
56.359	14.123	1014.848	772.874
57.374	14.048	1013.699	771.583
58.388	14.043	1012.734	770.758
59.403	14.007	1012.426	770.291
60.417	14.013	1011.661	769.667
61.432	13.996	1010.917	768.954
62.447	13.977	1009.890	768.017
63.461	13.923	1009.174	767.157
64.476	13.909	1008.043	766.163
65.490	13.880	1007.403	765.474
66.505	13.904	1006.717	764.998
67.520	13.868	1006.134	764.323
68.534	14.043	1005.225	764.366
69.549	14.035	1004.568	763.764
70.563	14.021	1003.986	763.188
71.578	13.886	1003.028	761.776
72.593	13.892	1002.407	761.262
73.607	13.911	1001.498	760.593
74.622	13.792	1001.045	759.637
75.636	13.780	1000.704	759.256
76.651	13.872	999.606	758.773
77.666	13.905	999.331	758.649
78.680	13.874	998.246	757.618
79.695	13.959	997.589	757.439
80.709	14.132	996.897	757.633
81.724	13.949	996.824	756.680
82.739	14.012	996.093	756.343
83.753	14.160	995.458	756.470
84.768	14.405	993.868	756.306
85.782	14.392	993.143	755.628
86.797	14.334	992.597	754.882
87.812	14.138	991.653	753.209
88.826	14.223	990.423	752.593
89.841	14.213	990.048	752.197
90.855	14.250	989.087	751.566
91.870	14.372	987.972	751.205
92.884	14.437	987.014	750.700
93.899	14.316	986.434	749.649
94.914	14.486	985.567	749.691
95.928	14.487	984.539	748.845
96.943	14.340	983.821	747.573
97.957	14.345	982.950	746.866
98.972	14.212	982.621	745.953
99.987	14.402	981.135	745.612
101.001	14.418	980.150	744.868
102.016	14.302	979.747	743.979
103.030	14.313	979.040	743.425
104.045	14.290	978.369	742.744
105.060	14.320	977.418	742.091
106.074	14.132	976.555	740.533
107.089	14.072	975.222	739.191
108.103	13.942	974.654	738.119
109.118	14.053	973.473	737.651
110.133	13.996	972.843	736.856
111.147	13.997	971.530	735.798
112.162	14.056	971.065	735.645
113.176	14.194	969.990	735.375
114.191	14.243	969.504	735.157
115.206	14.175	968.775	734.238
116.220	14.041	968.224	733.166
117.235	14.094	967.394	732.708
118.249	14.110	966.520	732.051
119.264	14.175	965.586	731.565
120.279	14.109	965.032	730.788
121.293	13.973	963.962	729.315
122.308	14.011	963.228	728.862
123.322	14.075	962.065	728.199
124.337	14.102	961.084	727.510
125.352	14.148	959.877	726.733
126.366	14.061	958.975	725.607
127.381	13.938	958.156	724.387
128.395	14.124	957.368	724.538
129.410	14.186	956.462	724.058
130.424	14.114	955.877	723.237
131.439	14.227	954.908	722.933
132.454	14.221	953.988	722.143
133.468	14.198	953.098	721.308
134.483	14.232	952.325	720.805
135.497	14.117	951.903	719.926
136.512	14.261	950.563	719.471
137.527	14.171	950.108	718.675
138.541	14.231	949.218	718.197
139.556	14.213	948.685	717.652
140.570	14.296	948.159	717.545
141.585	14.391	947.651	717.508
142.600	14.453	946.201	716.615
143.614	14.491	945.729	716.355
144.629	14.526	945.068	715.943
145.643	14.371	944.249	714.593
146.658	14.260	943.132	713.210
147.673	14.293	942.266	712.632
148.687	14.183	941.399	711.444
149.702	14.289	940.538	711.181
150.716	14.310	939.634	710.527
151.731	14.453	938.499	710.215
152.746	14.354	937.945	709.311
153.760	14.366	937.807	709.195
154.775	14.325	937.183	708.485
155.789	14.544	936.226	708.629
156.804	14.397	935.910	707.705
157.819	14.423	935.412	707.376
158.833	14.522	934.502	707.046
159.848	14.553	933.670	706.481
160.862	14.466	932.743	705.349
161.877	14.428	931.434	704.140
162.892	14.307	930.991	703.228
163.906	14.362	929.801	702.500
164.921	14.313	929.382	701.914
165.935	14.409	928.270	701.418
166.950	14.448	927.449	700.900
167.964	14.514	926.487	700.386
168.979	14.370	925.811	699.212
169.994	14.488	924.766	698.853
171.008	14.461	924.235	698.277
172.023	14.551	923.260	697.855
173.037	14.584	922.952	697.700
174.052	14.600	922.037	697.011
175.067	14.437	921.554	695.905
176.081	14.484	920.672	695.372
177.096	14.445	920.558	695.061
178.110	14.617	919.371	694.822
179.125	14.541	918.778	693.996
180.140	14.536	918.732	693.877
181.154	14.564	918.319	693.621
182.169	14.666	917.695	693.511
183.183	14.760	917.171	693.445
184.198	14.782	916.118	692.680
185.213	14.628	915.516	691.523
186.227	14.630	915.075	691.140
187.242	14.815	914.160	691.151
188.256	14.844	913.930	691.038
189.271	14.876	913.052	690.443
190.286	14.691	911.909	688.757
191.300	14.459	911.441	687.383
192.315	14.399	910.898	686.668
193.329	14.471	910.296	686.449
194.344	14.649	909.533	686.543
195.359	14.531	908.918	685.534
196.373	14.685	908.562	685.840
197.388	14.922	907.979	686.310
198.402	14.914	907.685	685.994
199.417	15.030	906.624	685.608
200.432	14.954	906.594	685.213
201.446	15.083	905.808	685.087
202.461	15.042	905.482	684.612
203.475	15.116	904.768	684.313
204.490	14.945	904.204	683.127
205.504	14.866	903.237	682.016
206.519	14.801	902.609	681.215
207.534	14.855	901.755	680.732
208.548	14.972	900.975	680.557
209.563	14.951	900.916	680.367
210.577	14.960	900.195	679.798
211.592	15.184	899.096	679.818
212.607	15.152	898.330	679.050
213.621	15.060	897.680	678.125
214.636	15.152	897.042	677.955
215.650	15.227	896.232	677.586
216.665	15.144	895.645	676.746
217.680	15.247	895.022	676.631
218.694	15.256	894.250	676.024
219.709	15.181	893.593	675.167
220.723	15.163	893.133	674.685
221.738	15.226	892.214	674.186
222.753	15.232	891.919	673.928
223.767	15.272	891.194	673.480
224.782	15.368	890.630	673.382
225.796	15.427	890.054	673.121
226.811	15.253	889.470	671.923
227.826	15.252	888.662	671.252
228.840	15.204	888.133	670.600
229.855	15.333	887.259	670.394
230.869	15.189	886.809	669.418
231.884	15.273	885.967	669.061
232.899	15.165	885.377	668.125
233.913	15.214	884.546	667.634
234.928	15.163	883.858	666.853
235.942	15.278	883.300	666.831
236.957	15.233	882.840	666.247
237.972	15.192	882.177	665.523
238.986	15.261	881.361	665.124
240.001	15.180	881.212	664.630
241.015	15.222	880.362	664.095
242.030	15.297	879.535	663.708
243.045	15.317	879.325	663.572
244.059	15.387	878.576	663.227
245.074	15.455	877.998	662.997
246.088	15.441	877.156	662.250
247.103	15.453	876.871	662.022
248.117	15.591	876.451	662.191
249.132	15.757	876.066	662.496
250.147	15.725	875.293	661.726
251.161	15.856	874.534	661.610
252.176	15.749	874.123	660.819
253.190	15.913	873.401	660.858
254.205	15.944	872.648	660.351
255.220	15.792	872.237	659.388
256.234	15.852	871.103	658.704
257.249	15.797	871.095	658.426
258.263	15.910	870.028	658.001
259.278	15.877	869.560	657.462
260.293	15.898	868.671	656.813
261.307	15.949	868.223	656.615
262.322	16.082	867.801	656.757
263.336	16.003	866.884	655.698
264.351	16.021	866.270	655.244
265.366	16.176	865.545	655.240
266.380	16.137	865.023	654.635
267.395	16.180	864.339	654.228
268.409	16.018	863.529	652.930
269.424	16.152	862.380	652.518
270.439	16.143	861.835	652.014
271.453	15.958	861.764	651.189
272.468	16.016	861.286	650.996
273.482	16.109	860.228	650.494
274.497	15.924	860.028	649.572
275.512	15.920	859.331	648.973
276.526	16.016	859.112	649.120
277.541	15.992	858.800	648.736
278.555	16.134	857.761	648.439
279.570	16.300	856.923	648.386
280.585	16.126	856.190	647.106
281.599	16.116	855.800	646.715
282.614	16.273	854.863	646.552
283.628	16.194	854.504	645.921
284.643	16.302	853.947	645.857
285.657	16.304	853.020	645.105
286.672	16.217	852.822	644.565
287.687	16.087	852.223	643.560
288.701	16.184	851.630	643.426
289.716	16.298	851.018	643.341
290.730	16.168	850.279	642.231
291.745	16.288	849.962	642.392
292.760	16.404	849.507	642.431
293.774	16.461	848.550	641.866
294.789	16.403	848.274	641.380
295.803	16.223	847.294	639.901
296.818	16.317	846.574	639.658
297.833	16.337	845.900	639.166
298.847	16.312	845.288	638.553
299.862	16.397	845.215	638.763
300.876	16.517	844.361	638.512
301.891	16.451	843.777	637.765
302.906	16.421	843.637	637.490
303.920	16.472	843.131	637.246
304.935	16.654	842.064	637.067
305.949	16.676	841.638	636.769
306.964	16.510	840.985	635.597
307.979	16.688	840.098	635.538
308.993	16.770	839.838	635.592
310.008	16.664	839.353	634.772
311.022	16.711	838.560	634.292
312.037	16.579	837.927	633.263
313.052	16.601	837.232	632.764
314.066	16.538	836.787	632.137
315.081	16.586	836.426	631.986
316.095	16.515	836.005	631.347
317.110	16.533	834.925	630.543
318.125	16.471	834.332	629.809
319.139	16.574	834.080	629.948
320.154	16.716	833.663	630.104
321.168	16.652	833.092	629.379
322.183	16.602	832.845	628.950
323.197	16.572	832.349	628.409
324.212	16.614	831.705	628.024
325.227	16.633	831.130	627.605
326.241	16.639	830.363	626.992
327.256	16.794	829.611	626.942
328.270	16.627	829.493	626.180
329.285	16.587	829.053	625.645
330.300	16.658	828.192	625.200
331.314	16.846	827.484	625.305
332.329	16.822	827.271	625.000
333.343	16.917	826.693	624.860
334.358	16.926	826.349	624.578
335.373	16.647	826.550	623.644
336.387	16.971	826.077	624.427
337.402	16.837	825.979	623.802
338.416	16.962	825.459	623.813
339.431	16.946	825.141	623.462
340.446	17.120	824.652	623.674
341.460	17.109	824.030	623.110
342.475	17.127	823.667	622.846
343.489	17.286	823.164	622.992
344.504	17.223	822.689	622.347
345.519	17.263	821.978	621.901
346.533	17.248	821.707	621.586
347.548	17.137	821.149	620.702
348.562	17.049	820.685	619.976
349.577	17.155	820.112	619.877
350.592	16.961	819.448	618.613
351.606	17.042	818.579	618.195
352.621	17.087	818.126	617.962
353.635	17.054	817.389	617.232
354.650	17.143	816.704	616.983
355.665	17.214	816.149	616.767
356.679	17.245	815.674	616.465
357.694	17.213	815.389	616.078
358.708	17.096	814.807	615.160
359.723	17.237	813.840	614.887
360.738	17.230	813.651	614.666
361.752	17.210	813.113	614.132
362.767	17.237	812.390	613.628
363.781	17.373	812.329	614.018
364.796	17.597	811.322	614.011
365.810	17.519	811.270	613.637
366.825	17.475	810.567	612.890
367.840	17.437	810.430	612.598
368.854	17.587	809.477	612.361
369.869	17.370	809.309	611.402
370.883	17.381	809.045	611.187
371.898	17.600	808.731	611.682
372.913	17.628	808.158	611.296
373.927	17.572	807.839	610.798
374.942	17.596	806.965	610.169
375.956	17.486	807.119	609.838
376.971	17.806	806.204	610.236
377.986	17.854	805.700	609.974
379.000	17.965	805.155	609.904
380.015	17.747	805.284	609.170
381.029	17.782	804.407	608.575
382.044	17.797	803.738	608.069
383.059	17.857	803.182	607.807
384.073	17.903	802.488	607.392
385.088	17.708	802.361	606.549
386.102	17.783	801.794	606.335
387.117	17.721	800.698	605.230
388.132	17.711	800.669	605.120
389.146	17.662	800.053	604.429
390.161	17.803	799.271	604.284
391.175	17.687	799.102	603.693
392.190	17.822	798.262	603.482
393.205	17.867	798.060	603.433
394.219	17.748	798.028	602.936
395.234	17.614	797.663	602.133
396.248	17.700	796.885	601.795
397.263	17.739	796.048	601.248
398.278	17.745	795.981	601.165
399.292	17.735	795.385	600.626
400.307	17.693	795.261	600.331
401.321	17.683	794.581	599.729
402.336	17.847	794.076	599.872
403.350	17.822	793.968	599.651
404.365	17.946	793.280	599.514
405.380	18.004	792.829	599.321
406.394	18.089	792.392	599.236
407.409	18.011	792.242	598.795
408.423	17.953	791.459	597.949
409.438	18.133	791.573	598.613
410.453	18.264	791.206	598.740
411.467	18.355	790.155	598.211
412.482	18.325	789.814	597.795
413.496	18.313	789.791	597.682
414.511	18.237	789.465	597.117
415.526	18.231	788.712	596.475
416.540	18.318	788.194	596.333
417.555	18.274	787.844	595.862
418.569	18.340	787.767	595.980
419.584	18.467	787.102	595.866
420.599	18.368	786.840	595.269
421.613	157.147	1369.657	1794.010
422.628	135.865	1454.582	1794.125
