DTS Sentinel unit serial number:	SN413079Multiplexer serial number:	ORYXHardware model number:	OX4-SRSoftware version number:	ORYX F/W v4.00 Oryx Data Collector v3.7.2.0data status	okinstallation	princeton_trtdifferential loss correction	single-endedforward channel	channel 1reverse channel	N/Adate	2019/09/13time	16:02:35forward acquisition time	60.00reverse acquisition time	0.00gamma	496.2192k internal	0.2306k external	0.2306temperature offset calibration	1.0157default loss term (dB/km)	0.3790temperature slope calibration	1.0000multiplexer offset coefficient	1.0000multiplexer slope coefficient	1.0000fibre end	0.00T internal ref (°C)	34.66T ext. ref 1 (°C)	4.82T ext. ref 2 (°C)	31.47length (m)	temperature (°C)	Stokes	anti-Stokes-747.200	115.189	-0.143	0.177
-746.185	167.287	-0.135	0.196
-745.171	-18.686	0.035	0.022
-744.156	-200.000	-0.017	0.093
-743.142	146.623	-0.084	0.115
-742.127	174.239	-0.240	0.352
-741.112	-138.318	0.265	-0.030
-740.098	-55.400	-0.275	0.125
-739.083	-200.000	-0.026	-0.177
-738.069	159.025	-0.174	0.246
-737.054	26.933	0.278	-0.237
-736.039	308.989	-0.069	0.132
-735.025	-200.000	-0.038	0.246
-734.010	800.000	0.033	-0.122
-732.996	-200.000	-0.032	-0.155
-731.981	-158.853	-0.313	0.018
-730.966	-35.841	0.478	0.263
-729.952	181.028	0.025	-0.037
-728.937	-200.000	-0.007	0.052
-727.923	-200.000	-0.039	-0.227
-726.908	-200.000	-0.006	-0.094
-725.894	7.043	-0.084	0.064
-724.879	-84.593	0.093	0.030
-723.864	800.000	-0.101	0.404
-722.850	-200.000	-0.058	0.258
-721.835	640.202	0.138	0.356
-720.821	-60.241	0.175	0.076
-719.806	-200.000	0.038	-0.228
-718.791	-200.000	-0.373	-0.001
-717.777	-75.256	-0.241	0.088
-716.762	800.000	-0.051	-0.190
-715.748	513.101	-0.162	-0.383
-714.733	-5.479	-0.116	-0.081
-713.718	4.903	-0.137	0.103
-712.704	409.079	0.101	0.217
-711.689	106.201	-0.260	0.312
-710.675	-169.802	0.155	0.006
-709.660	800.000	0.056	-0.217
-708.645	34.442	-0.290	-0.257
-707.631	-85.743	0.191	0.060
-706.616	-200.000	-0.015	-0.419
-705.602	-147.650	-0.141	0.012
-704.587	56.111	0.147	-0.145
-703.572	-91.597	-0.220	-0.064
-702.558	46.767	0.329	0.311
-701.543	143.810	0.084	0.114
-700.529	-122.889	0.277	-0.045
-699.514	424.593	0.117	-0.256
-698.499	-200.000	-0.022	-0.184
-697.485	-172.742	0.190	-0.006
-696.470	669.361	-0.103	0.272
-695.456	-87.758	0.483	-0.148
-694.441	97.234	0.147	-0.172
-693.426	131.824	-0.191	-0.249
-692.412	151.145	0.160	-0.220
-691.397	800.000	-0.037	0.126
-690.383	165.050	0.135	0.194
-689.368	17.424	0.040	-0.032
-688.354	-188.585	-0.486	0.006
-687.339	-162.480	-0.394	0.020
-686.324	-200.000	0.046	-0.421
-685.310	-25.208	0.110	0.066
-684.295	713.626	-0.134	-0.361
-683.281	203.904	0.096	-0.150
-682.266	-87.607	0.038	-0.012
-681.251	222.334	0.078	0.128
-680.237	673.656	-0.080	-0.211
-679.222	800.000	-0.032	-0.095
-678.208	-200.000	0.015	-0.098
-677.193	350.832	-0.074	-0.149
-676.178	-160.770	0.193	-0.010
-675.164	800.000	-0.070	-0.246
-674.149	-99.449	0.258	-0.066
-673.135	-71.809	-0.088	-0.033
-672.120	-64.463	0.096	-0.039
-671.105	362.854	0.035	-0.072
-670.091	-200.000	-0.015	0.285
-669.076	-105.396	-0.229	0.053
-668.062	-200.000	-0.003	-0.223
-667.047	31.535	0.087	0.076
-666.032	-13.885	-0.163	-0.107
-665.018	-34.983	0.135	-0.075
-664.003	80.850	0.157	-0.171
-662.989	265.178	0.075	-0.133
-661.974	94.891	0.255	-0.294
-660.959	190.115	-0.260	-0.396
-659.945	0.415	0.094	0.068
-658.930	800.000	0.004	0.016
-657.916	-200.000	-0.034	-0.252
-656.901	47.700	0.110	0.104
-655.886	800.000	0.042	0.144
-654.872	79.627	0.187	0.203
-653.857	375.415	0.082	0.169
-652.843	800.000	0.099	-0.364
-651.828	617.359	-0.099	-0.251
-650.814	419.868	-0.085	0.184
-649.799	-74.866	-0.344	0.125
-648.784	800.000	-0.076	-0.229
-647.770	230.706	0.042	0.070
-646.755	-100.992	0.248	-0.062
-645.741	380.865	-0.146	0.303
-644.726	-103.902	0.376	0.089
-643.711	800.000	0.042	0.123
-642.697	800.000	-0.034	-0.136
-641.682	-30.167	0.157	-0.090
-640.668	41.223	-0.155	0.142
-639.653	168.624	0.247	-0.356
-638.638	800.000	0.067	0.220
-637.624	-200.000	-0.040	-0.260
-636.609	-200.000	0.058	0.306
-635.595	-143.014	0.167	0.016
-634.580	-155.663	-0.099	0.006
-633.565	-94.192	0.252	0.070
-632.551	136.149	-0.158	0.209
-631.536	-69.581	-0.026	-0.010
-630.522	-140.376	-0.079	0.008
-629.507	-88.652	0.314	0.095
-628.492	-94.328	0.441	-0.122
-627.478	186.791	0.039	-0.058
-626.463	-27.121	-0.070	0.041
-625.449	476.678	0.146	0.335
-624.434	310.811	-0.008	0.016
-623.419	404.341	0.036	-0.077
-622.405	147.343	0.254	-0.347
-621.390	62.564	0.044	0.045
-620.376	589.621	-0.067	0.167
-619.361	203.470	0.133	-0.209
-618.346	371.540	-0.018	-0.036
-617.332	-78.035	-0.110	-0.038
-616.317	-66.257	0.182	0.073
-615.303	800.000	0.082	0.254
-614.288	-200.000	0.102	0.541
-613.273	-123.743	0.239	0.038
-612.259	800.000	-0.031	-0.100
-611.244	-65.414	-0.207	-0.084
-610.230	119.157	0.178	-0.222
-609.215	214.392	-0.104	-0.167
-608.201	-19.838	0.253	0.158
-607.186	91.991	-0.069	-0.078
-606.171	661.798	0.099	-0.258
-605.157	48.574	0.131	-0.124
-604.142	150.866	-0.032	-0.045
-603.128	-104.941	-0.425	-0.098
-602.113	71.376	0.078	-0.082
-601.098	-38.985	-0.263	0.140
-600.084	95.838	0.133	-0.154
-599.069	-125.226	0.131	-0.020
-598.055	204.219	-0.154	-0.241
-597.040	688.987	0.096	-0.254
-596.025	40.228	-0.223	-0.203
-595.011	242.421	-0.211	-0.357
-593.996	-22.931	0.240	0.146
-592.982	-58.106	0.269	0.119
-591.967	-32.506	-0.316	0.178
-590.952	-200.000	0.031	0.254
-589.938	4.201	0.175	0.129
-588.923	-105.491	-0.190	0.044
-587.909	-85.485	-0.118	0.037
-586.894	142.474	-0.255	-0.342
-585.879	-11.926	-0.144	-0.095
-584.865	-30.967	-0.258	-0.147
-583.850	43.393	0.114	-0.106
-582.836	65.095	-0.076	0.078
-581.821	368.538	-0.062	0.126
-580.806	126.580	0.086	-0.111
-579.792	686.690	0.062	-0.164
-578.777	659.843	-0.244	-0.635
-577.763	-0.699	-0.080	-0.057
-576.748	245.352	-0.176	-0.299
-575.733	84.113	-0.070	-0.077
-574.719	665.564	0.063	0.164
-573.704	-127.512	-0.170	-0.025
-572.690	-200.000	-0.071	0.495
-571.675	-200.000	0.034	0.209
-570.661	104.171	0.307	-0.365
-569.646	428.851	-0.110	-0.240
-568.631	-105.557	0.053	0.012
-567.617	-143.464	0.373	-0.036
-566.602	265.114	0.248	0.437
-565.588	800.000	-0.067	-0.280
-564.573	114.802	-0.191	-0.235
-563.558	224.752	0.159	0.259
-562.544	393.376	-0.065	0.137
-561.529	543.105	0.049	0.119
-560.515	102.489	-0.234	-0.277
-559.500	332.101	-0.156	-0.304
-558.485	800.000	-0.060	-0.199
-557.471	-200.000	0.030	-0.202
-556.456	63.420	0.052	0.052
-555.442	236.871	0.080	0.134
-554.427	-97.601	0.249	0.065
-553.412	800.000	-0.029	0.083
-552.398	2.743	-0.079	0.058
-551.383	443.559	-0.096	0.213
-550.369	-50.034	0.173	0.083
-549.354	123.819	-0.107	0.136
-548.339	-144.378	-0.220	0.021
-547.325	-124.772	0.186	-0.029
-546.310	-200.000	0.044	0.220
-545.296	416.803	0.020	-0.043
-544.281	286.382	-0.091	0.166
-543.266	175.797	-0.168	0.246
-542.252	-104.403	-0.422	-0.098
-541.237	-200.000	0.049	0.430
-540.223	800.000	0.091	-0.324
-539.208	364.521	0.077	-0.156
-538.193	64.205	-0.161	0.164
-537.179	-130.172	-0.311	0.043
-536.164	-127.427	0.242	-0.036
-535.150	-200.000	-0.019	-0.230
-534.135	-19.730	0.072	-0.045
-533.121	165.721	-0.163	-0.233
-532.106	719.649	0.062	-0.165
-531.091	-200.000	0.022	0.126
-530.077	57.957	-0.065	-0.064
-529.062	92.800	-0.214	0.244
-528.048	42.120	0.099	-0.090
-527.033	571.102	0.074	0.180
-526.018	800.000	-0.095	0.312
-525.004	86.125	-0.075	-0.084
-523.989	-56.580	-0.307	0.137
-522.975	544.309	0.137	-0.330
-521.960	14.556	0.042	0.033
-520.945	-167.742	-0.066	-0.003
-519.931	142.714	0.049	-0.066
-518.916	800.000	0.076	-0.288
-517.902	216.659	0.088	-0.141
-516.887	325.141	-0.073	0.141
-515.872	37.071	0.242	-0.216
-514.858	-155.048	-0.290	0.019
-513.843	-64.577	-0.138	0.056
-512.829	-200.000	0.019	-0.129
-511.814	201.835	0.094	-0.147
-510.799	49.102	0.137	0.130
-509.785	-162.325	-0.144	-0.007
-508.770	6.695	-0.053	-0.040
-507.756	21.699	-0.170	-0.139
-506.741	191.308	0.093	0.141
-505.726	-200.000	-0.030	-0.140
-504.712	140.861	-0.133	0.177
-503.697	-48.280	0.276	0.134
-502.683	195.719	0.146	0.224
-501.668	-200.000	-0.013	0.168
-500.653	26.525	-0.043	0.036
-499.639	-73.352	0.153	-0.056
-498.624	64.682	0.312	0.317
-497.610	-52.441	0.166	-0.078
-496.595	-136.570	0.270	0.032
-495.581	-38.000	0.135	-0.072
-494.566	354.793	0.153	-0.307
-493.551	800.000	-0.068	0.245
-492.537	31.219	0.312	0.270
-491.522	-62.413	0.252	-0.105
-490.508	-120.659	0.158	0.027
-489.493	-200.000	0.013	0.122
-488.478	-82.701	0.075	0.025
-487.464	-125.145	0.196	0.030
-486.449	230.408	-0.284	-0.468
-485.435	-200.000	0.025	0.307
-484.420	115.463	-0.326	0.401
-483.405	-200.000	0.005	0.151
-482.391	-34.746	-0.242	0.133
-481.376	71.908	-0.104	0.108
-480.362	-93.894	0.021	-0.006
-479.347	279.215	-0.060	-0.108
-478.332	83.118	-0.040	-0.044
-477.318	257.006	-0.127	0.220
-476.303	-158.836	0.242	-0.014
-475.289	-63.429	-0.302	0.125
-474.274	800.000	-0.076	-0.239
-473.259	46.496	0.225	0.210
-472.245	-200.000	0.059	-0.264
-471.230	-0.881	-0.155	-0.110
-470.216	-1.059	0.072	0.051
-469.201	-100.206	-0.371	-0.093
-468.186	338.192	-0.098	0.192
-467.172	173.997	-0.090	0.130
-466.157	680.280	-0.062	-0.163
-465.143	413.723	-0.052	0.112
-464.128	95.178	0.160	-0.183
-463.113	-91.158	-0.122	-0.035
-462.099	269.963	0.076	-0.134
-461.084	-142.819	-0.360	-0.035
-460.070	-200.000	0.005	0.274
-459.055	-200.000	0.019	-0.096
-458.040	-127.829	-0.240	-0.035
-457.026	51.249	-0.020	0.019
-456.011	800.000	0.004	0.016
-454.997	-200.000	0.094	-0.563
-453.982	-18.222	-0.264	-0.166
-452.968	-110.387	-0.145	-0.030
-451.953	-121.342	0.242	0.041
-450.938	14.071	0.333	-0.261
-449.924	656.356	-0.129	-0.334
-448.909	619.379	-0.172	-0.436
-447.895	36.001	-0.184	-0.163
-446.880	-200.000	0.008	0.060
-445.865	297.131	0.032	0.059
-444.851	108.078	-0.282	-0.338
-443.836	-90.777	0.429	0.124
-442.822	-132.883	0.171	-0.022
-441.807	180.561	-0.069	0.102
-440.792	-15.671	0.259	0.166
-439.778	-72.859	0.344	-0.127
-438.763	-200.000	0.004	0.151
-437.749	-141.157	0.244	-0.025
-436.734	-191.390	0.134	0.001
-435.719	-71.585	-0.218	-0.082
-434.705	-66.585	0.177	-0.071
-433.690	-75.695	0.255	0.091
-432.676	351.836	0.143	0.284
-431.661	-149.269	-0.319	-0.026
-430.646	-83.315	0.088	-0.028
-429.632	661.452	-0.049	0.127
-428.617	420.434	-0.186	-0.400
-427.603	-124.495	0.209	-0.033
-426.588	-8.850	0.031	0.021
-425.573	-200.000	0.024	-0.134
-424.559	-200.000	-0.018	0.199
-423.544	-57.762	-0.145	-0.064
-422.530	800.000	-0.072	0.240
-421.515	63.032	-0.148	0.149
-420.500	800.000	-0.050	-0.182
-419.486	-200.000	-0.226	0.000
-418.471	-74.912	0.142	-0.051
-417.457	167.564	0.121	0.172
-416.442	121.804	0.189	-0.237
-415.428	168.102	0.017	0.025
-414.413	561.885	-0.039	-0.095
-413.398	-200.000	0.039	0.178
-412.384	332.142	-0.073	0.141
-411.369	26.529	0.258	0.217
-410.355	-114.776	-0.158	0.030
-409.340	129.967	0.213	-0.273
-408.325	587.129	-0.080	-0.199
-407.311	-81.500	0.213	0.070
-406.296	-197.121	-0.341	-0.002
-405.282	-40.481	-0.131	-0.068
-404.267	-158.594	-0.302	-0.017
-403.252	-200.000	-0.012	-0.141
-402.238	-103.604	0.167	0.039
-401.223	17.801	-0.260	-0.208
-400.209	-32.006	0.464	-0.261
-399.194	-94.215	-0.074	0.020
-398.179	69.625	-0.024	-0.025
-397.165	140.106	0.093	-0.123
-396.150	21.006	-0.103	-0.084
-395.136	768.469	-0.094	0.256
-394.121	35.613	-0.153	0.134
-393.106	-134.365	0.015	-0.002
-392.092	86.032	-0.105	-0.116
-391.077	75.557	-0.130	0.137
-390.063	800.000	-0.071	0.287
-389.048	-163.862	0.220	-0.010
-388.033	193.698	-0.015	-0.023
-387.019	12.628	-0.295	0.229
-386.004	-2.256	0.087	0.061
-384.990	-22.065	-0.191	0.117
-383.975	-120.925	0.126	0.021
-382.960	73.394	-0.093	-0.097
-381.946	-95.434	-0.368	0.099
-380.931	-70.843	-0.114	-0.043
-379.917	-200.000	-0.060	0.303
-378.902	-57.698	-0.064	0.028
-377.888	-108.258	-0.172	0.037
-376.873	-8.911	0.087	-0.058
-375.858	-110.958	0.030	-0.006
-374.844	249.969	0.060	0.102
-373.829	800.000	-0.034	-0.105
-372.815	-115.033	-0.396	-0.075
-371.800	25.463	0.374	-0.312
-370.785	-22.330	0.238	0.145
-369.771	94.004	0.172	0.195
-368.756	373.104	0.077	-0.157
-367.742	10.386	0.235	-0.179
-366.727	31.943	-0.118	0.102
-365.712	-178.989	0.179	0.004
-364.698	42.306	0.178	0.162
-363.683	156.318	-0.129	0.179
-362.669	-124.146	0.060	0.009
-361.654	-106.549	-0.282	0.063
-360.639	-65.567	-0.097	-0.039
-359.625	-1.865	-0.103	-0.073
-358.610	-187.736	0.061	0.001
-357.596	170.214	-0.115	0.165
-356.581	-18.007	-0.060	-0.038
-355.566	-147.763	-0.052	0.004
-354.552	201.967	-0.086	-0.132
-353.537	-200.000	-0.051	0.267
-352.523	28.459	0.187	0.159
-351.508	800.000	0.025	0.096
-350.493	-90.934	0.102	0.029
-349.479	42.509	0.357	0.325
-348.464	-126.927	-0.087	-0.013
-347.450	-13.900	0.297	0.192
-346.435	-171.399	-0.006	0.000
-345.420	-48.040	-0.115	-0.056
-344.406	-19.341	-0.304	-0.189
-343.391	150.864	-0.008	-0.010
-342.377	71.542	0.111	0.116
-341.362	326.358	0.053	-0.102
-340.348	65.466	0.100	0.101
-339.333	15.393	0.233	0.183
-338.318	-122.589	0.075	-0.012
-337.304	-200.000	0.020	0.456
-336.289	-200.000	-0.029	0.437
-335.275	-200.000	0.001	-0.043
-334.260	86.460	0.109	0.120
-333.245	37.189	-0.141	0.125
-332.231	742.654	-0.101	-0.271
-331.216	301.490	0.145	-0.269
-330.202	-200.000	0.001	0.068
-329.187	-200.000	0.043	-0.365
-328.172	120.545	-0.207	-0.258
-327.158	-200.000	0.005	-0.349
-326.143	297.227	0.155	-0.285
-325.129	-2.705	0.096	-0.067
-324.114	-200.000	-0.058	0.367
-323.099	-200.000	0.041	-0.360
-322.085	-200.000	0.018	-0.164
-321.070	-200.000	-0.012	0.072
-320.056	-15.095	-0.147	0.094
-319.041	-200.000	-0.003	-0.048
-318.026	129.139	-0.103	-0.132
-317.012	83.495	0.168	-0.183
-315.997	-92.654	-0.154	0.043
-314.983	-157.834	-0.192	-0.011
-313.968	800.000	0.100	-0.437
-312.953	-200.000	-0.039	-0.213
-311.939	-65.572	0.002	0.001
-310.924	-72.815	-0.162	-0.060
-309.910	-18.715	-0.220	0.137
-308.895	18.671	0.263	0.211
-307.880	749.492	0.024	0.065
-306.866	70.687	0.064	-0.066
-305.851	-82.962	-0.539	0.174
-304.837	7.711	0.255	0.191
-303.822	-180.944	-0.076	0.002
-302.807	-58.643	0.067	0.029
-301.793	800.000	0.058	0.251
-300.778	185.056	-0.089	-0.132
-299.764	-74.117	0.033	-0.012
-298.749	85.160	0.227	0.249
-297.735	59.668	-0.224	-0.221
-296.720	62.322	0.035	0.035
-295.705	-50.698	-0.141	0.066
-294.691	70.088	-0.115	-0.119
-293.676	479.374	0.097	-0.221
-292.662	258.043	-0.005	-0.008
-291.647	-45.263	0.162	-0.080
-290.632	100.509	-0.153	-0.178
-289.618	-106.013	0.035	0.008
-288.603	145.705	0.084	0.113
-287.589	41.251	-0.071	0.064
-286.574	108.967	0.348	0.416
-285.559	75.172	-0.247	0.260
-284.545	53.146	0.105	0.100
-283.530	-64.782	-0.143	-0.058
-282.516	-40.956	0.178	0.092
-281.501	-91.266	0.196	-0.056
-280.486	-129.564	0.073	-0.010
-279.472	181.241	0.243	-0.356
-278.457	-200.000	-0.041	0.316
-277.443	-33.314	0.147	0.081
-276.428	-19.695	-0.274	-0.169
-275.413	395.426	-0.072	0.149
-274.399	489.278	0.015	0.034
-273.384	-2.181	-0.119	-0.083
-272.370	-58.847	-0.137	0.059
-271.355	-200.000	0.023	-0.111
-270.340	-83.790	0.136	0.043
-269.326	-200.000	-0.013	-0.098
-268.311	-102.029	-0.173	-0.042
-267.297	-173.711	0.053	-0.002
-266.282	-200.000	-0.031	-0.282
-265.267	-200.000	0.045	-0.383
-264.253	-77.065	-0.117	-0.041
-263.238	-84.282	-0.128	-0.041
-262.224	81.167	-0.202	0.217
-261.209	223.289	0.143	-0.231
-260.195	131.495	0.309	0.396
-259.180	-131.347	-0.175	-0.023
-258.165	800.000	-0.019	-0.058
-257.151	15.387	0.111	0.087
-256.136	122.640	-0.258	-0.322
-255.122	800.000	-0.177	-0.509
-254.107	105.115	0.109	0.128
-253.092	-200.000	-0.009	-0.128
-252.078	800.000	-0.110	0.348
-251.063	349.239	-0.151	0.297
-250.049	274.788	-0.096	0.169
-249.034	-16.541	-0.338	-0.214
-248.019	-200.000	-0.004	-0.186
-247.005	-121.814	-0.126	0.021
-245.990	-90.821	-0.443	0.127
-244.976	800.000	0.029	0.088
-243.961	800.000	-0.083	0.333
-242.946	118.066	0.241	0.297
-241.932	-55.480	0.287	0.128
-240.917	-107.358	-0.341	0.075
-239.903	-8.616	0.223	0.149
-238.888	-85.448	0.378	0.118
-237.873	15.256	0.120	0.094
-236.859	294.858	-0.202	-0.368
-235.844	-5.859	0.240	0.164
-234.830	-155.143	-0.304	-0.020
-233.815	-200.000	0.000	-0.547
-232.800	14.695	0.063	0.049
-231.786	87.549	-0.104	0.115
-230.771	248.297	0.044	-0.074
-229.757	-200.000	-0.047	-0.273
-228.742	-53.936	0.185	-0.084
-227.727	800.000	-0.036	-0.147
-226.713	280.152	0.140	0.250
-225.698	800.000	0.032	-0.107
-224.684	655.963	0.132	0.337
-223.669	91.038	-0.108	0.121
-222.655	800.000	-0.062	-0.195
-221.640	73.114	0.030	0.031
-220.625	-200.000	0.021	-0.094
-219.611	-43.253	0.029	0.015
-218.596	-200.000	0.010	0.061
-217.582	-117.269	0.413	0.075
-216.567	-200.000	-0.019	-0.128
-215.552	-200.000	0.029	-0.220
-214.538	-129.991	-0.130	0.018
-213.523	525.357	0.090	-0.211
-212.509	486.019	-0.091	-0.206
-211.494	-200.000	0.010	0.174
-210.479	-200.000	-0.012	-0.215
-209.465	639.801	-0.011	0.028
-208.450	-154.189	-0.338	-0.023
-207.436	800.000	0.001	-0.004
-206.421	11.521	-0.302	-0.231
-205.406	23.565	0.068	-0.056
-204.392	-118.372	-0.144	-0.025
-203.377	-45.992	0.068	-0.033
-202.363	-200.000	-0.043	0.232
-201.348	430.999	0.084	0.181
-200.333	-89.850	0.136	0.040
-199.319	-71.030	0.202	0.076
-198.304	-49.424	0.195	-0.093
-197.290	800.000	0.054	0.208
-196.275	1.543	-0.038	0.027
-195.260	-116.155	-0.233	0.043
-194.246	-31.039	0.362	-0.204
-193.231	304.974	0.065	-0.119
-192.217	-200.000	-0.025	0.256
-191.202	149.071	-0.286	0.385
-190.187	49.661	-0.115	0.107
-189.173	-138.978	-0.112	-0.012
-188.158	-107.179	-0.297	0.065
-187.144	-98.317	-0.146	0.037
-186.129	60.804	0.156	-0.154
-185.114	-126.692	0.312	0.046
-184.100	259.796	0.128	0.220
-183.085	-172.115	-0.417	0.013
-182.071	800.000	-0.050	-0.161
-181.056	-143.134	0.174	-0.017
-180.042	411.086	-0.064	0.136
-179.027	-24.861	-0.181	0.107
-178.012	119.281	0.187	-0.230
-176.998	-41.288	-0.314	0.161
-175.983	68.100	0.065	0.066
-174.969	800.000	-0.035	0.119
-173.954	800.000	-0.132	0.487
-172.939	-133.776	0.330	-0.041
-171.925	-200.000	0.001	-0.023
-170.910	120.709	-0.201	-0.249
-169.896	157.155	0.162	0.223
-168.881	-79.973	-0.031	0.010
-167.866	-148.481	0.190	0.015
-166.852	-3.170	-0.395	-0.274
-165.837	52.591	0.209	-0.199
-164.823	-29.395	0.279	-0.159
-163.808	800.000	-0.043	0.151
-162.793	-0.389	0.181	-0.128
-161.779	-141.833	0.509	0.051
-160.764	-43.439	-0.139	-0.070
-159.750	800.000	0.074	0.236
-158.735	-90.181	0.324	0.094
-157.720	-97.554	-0.064	0.017
-156.706	-72.461	-0.187	0.069
-155.691	-35.830	0.092	0.049
-154.677	439.325	-0.163	0.355
-153.662	-12.700	0.232	0.151
-152.647	-200.000	0.026	-0.121
-151.633	167.611	-0.087	-0.123
-150.618	-29.204	-0.210	-0.120
-149.604	16.898	0.215	0.169
-148.589	-0.788	-0.207	-0.146
-147.574	-200.000	-0.002	0.097
-146.560	800.000	-0.081	-0.319
-145.545	-64.647	-0.208	-0.084
-144.531	-110.841	0.362	-0.074
-143.516	53.153	0.158	-0.151
-142.502	-200.000	-0.014	-0.110
-141.487	-0.441	0.056	-0.039
-140.472	800.000	0.141	-0.424
-139.458	800.000	0.069	0.193
-138.443	-111.236	-0.149	-0.030
-137.429	19.812	0.124	0.099
-136.414	-121.732	-0.229	-0.038
-135.399	-200.000	0.014	0.335
-134.385	-94.100	0.509	-0.139
-133.370	142.173	0.166	-0.219
-132.356	83.740	-0.136	-0.147
-131.341	-156.995	-0.248	-0.015
-130.326	740.763	-0.050	0.134
-129.312	41.456	0.052	-0.047
-128.297	-47.285	0.272	0.131
-127.283	-82.840	-0.188	-0.060
-126.268	-53.582	0.249	0.113
-125.253	175.506	-0.216	-0.311
-124.239	118.397	0.091	-0.112
-123.224	177.401	0.083	0.120
-122.210	-200.000	-0.032	0.376
-121.195	800.000	-0.034	0.110
-120.180	45.582	0.158	0.145
-119.166	-42.276	-0.305	-0.155
-118.151	-200.000	-0.005	-0.063
-117.137	-56.558	-0.289	0.127
-116.122	-200.000	0.153	-0.001
-115.107	-200.000	0.033	0.285
-114.093	-165.517	0.083	0.004
-113.078	-33.260	-0.281	-0.155
-112.064	-96.214	0.164	-0.043
-111.049	-75.735	-0.181	0.064
-110.034	-200.000	0.020	0.175
-109.020	228.338	0.065	0.105
-108.005	137.961	0.153	0.199
-106.991	-3.316	-0.088	-0.061
-105.976	-62.299	0.297	0.123
-104.962	454.205	0.140	-0.307
-103.947	-51.183	-0.282	-0.131
-102.932	-200.000	0.044	0.202
-101.918	-15.761	0.089	-0.056
-100.903	-46.855	-0.128	0.062
-99.889	-0.376	0.136	-0.096
-98.874	-49.362	0.290	0.137
-97.859	156.348	0.095	0.130
-96.845	-200.000	-0.029	0.254
-95.830	-102.016	0.199	0.048
-94.816	-126.853	0.265	-0.039
-93.801	-25.360	0.095	0.056
-92.786	-48.880	-0.084	0.040
-91.772	19.707	-0.066	-0.052
-90.757	178.406	0.105	-0.152
-89.743	276.231	0.109	-0.192
-88.728	-6.604	-0.374	0.253
-87.713	-200.000	0.024	-0.231
-86.699	290.592	0.024	0.044
-85.684	63.618	-0.064	0.063
-84.670	141.629	-0.061	0.080
-83.655	654.582	-0.110	-0.280
-82.640	800.000	-0.053	0.205
-81.626	800.000	-0.103	-0.301
-80.611	-100.480	-0.079	0.019
-79.597	11.151	0.108	0.082
-78.582	-30.924	0.242	-0.135
-77.567	227.126	0.051	-0.083
-76.553	72.062	-0.411	-0.424
-75.538	454.212	0.052	0.113
-74.524	-37.167	0.262	-0.139
-73.509	-0.421	-0.206	-0.145
-72.494	-6.026	0.469	-0.317
-71.480	87.676	-0.184	0.202
-70.465	-200.000	-0.003	0.179
-69.451	-76.070	0.077	0.027
-68.436	-200.000	-0.009	0.114
-67.422	98.356	-0.053	0.061
-66.407	-38.309	0.129	-0.068
-65.392	768.912	-0.122	-0.330
-64.378	67.707	0.061	0.061
-63.363	-200.000	0.021	0.335
-62.349	442.501	-0.078	-0.168
-61.334	162.964	-0.565	-0.786
-60.319	160.187	0.209	0.289
-59.305	171.396	-0.661	-0.940
-58.290	283.884	0.641	1.142
-57.276	446.982	0.644	1.403
-56.261	-200.000	97.013	571.850
-55.246	640.074	1385.496	3491.029
-54.232	186.609	2602.010	3836.074
-53.217	122.706	2180.964	2701.109
-52.203	46.690	1633.451	1501.740
-51.188	38.123	1368.773	1205.751
-50.173	34.835	1326.034	1148.348
-49.159	56.683	1375.748	1325.528
-48.144	61.376	1392.827	1370.557
-47.130	38.585	1347.153	1189.327
-46.115	34.806	1329.526	1151.013
-45.100	34.718	1324.432	1146.030
-44.086	34.529	1322.524	1143.198
-43.071	34.430	1320.031	1140.409
-42.057	34.409	1317.945	1138.433
-41.042	34.553	1316.482	1137.988
-40.027	34.645	1314.507	1136.778
-39.013	34.576	1312.779	1134.833
-37.998	34.614	1310.413	1132.964
-36.984	34.700	1308.569	1131.836
-35.969	34.657	1307.687	1130.773
-34.954	34.717	1305.309	1129.027
-33.940	34.631	1304.413	1127.701
-32.925	34.769	1303.403	1127.596
-31.911	34.734	1301.637	1125.818
-30.896	34.730	1300.109	1124.427
-29.881	34.762	1299.238	1123.817
-28.867	34.813	1297.087	1122.216
-27.852	34.960	1295.263	1121.451
-26.838	34.782	1294.093	1119.351
-25.823	34.840	1292.706	1118.445
-24.809	34.690	1292.047	1116.958
-23.794	34.729	1290.575	1115.868
-22.779	34.794	1288.877	1114.731
-21.765	34.764	1287.507	1113.327
-20.750	34.729	1286.696	1112.380
-19.736	34.609	1285.554	1110.652
-18.721	34.624	1284.015	1109.361
-17.706	34.614	1282.937	1108.328
-16.692	34.686	1281.449	1107.417
-15.677	34.584	1280.449	1105.919
-14.663	34.517	1279.362	1104.550
-13.648	34.624	1278.024	1103.966
-12.633	34.543	1277.123	1102.680
-11.619	34.513	1276.754	1102.145
-10.604	34.529	1275.834	1101.396
-9.590	34.529	1274.669	1100.349
-8.575	34.498	1273.856	1099.424
-7.560	34.533	1273.084	1098.916
-6.546	34.542	1272.188	1098.152
-5.531	34.608	1271.121	1097.563
-4.517	34.627	1270.010	1096.669
-3.502	34.601	1269.380	1095.934
-2.487	34.488	1268.043	1094.089
-1.473	34.622	1264.454	1091.717
-0.458	33.547	1250.060	1073.163
0.556	31.897	1231.011	1032.999
1.571	27.836	1234.777	1013.576
2.586	26.194	1248.332	1015.385
3.600	24.340	1236.217	995.110
4.615	18.434	1162.286	904.437
5.629	9.527	1086.024	800.901
6.644	5.307	1064.948	764.670
7.659	4.809	1062.178	760.183
8.673	4.597	1060.810	758.102
9.688	4.560	1059.488	756.913
10.702	5.271	1058.657	759.712
11.717	10.975	1066.713	793.306
12.731	19.256	1077.999	842.276
13.746	22.253	1080.938	859.161
14.761	21.639	1080.003	855.343
15.775	20.819	1078.330	849.943
16.790	19.790	1076.150	843.137
17.804	19.174	1074.414	838.704
18.819	18.813	1073.551	836.198
19.834	18.666	1073.084	835.045
20.848	18.619	1071.971	833.876
21.863	18.297	1071.073	831.539
22.877	18.130	1070.369	830.107
23.892	18.259	1070.043	830.411
24.907	18.082	1068.933	828.617
25.921	18.220	1067.872	828.388
26.936	18.187	1066.762	827.295
27.950	18.129	1065.499	825.964
28.965	18.222	1064.099	825.254
29.980	18.411	1062.104	824.541
30.994	18.534	1061.562	824.639
32.009	18.511	1060.657	823.752
33.023	18.552	1059.329	822.843
34.038	18.312	1058.468	820.951
35.053	18.298	1057.304	819.909
36.067	18.268	1056.329	818.941
37.082	18.275	1055.965	818.616
38.096	18.338	1055.538	818.513
39.111	18.345	1054.337	817.545
40.126	18.166	1053.480	815.953
41.140	18.050	1051.384	813.708
42.155	17.942	1050.210	812.213
43.169	17.753	1049.553	810.735
44.184	17.893	1048.388	810.425
45.199	17.882	1047.714	809.782
46.213	18.133	1046.377	809.868
47.228	18.306	1045.362	809.829
48.242	18.220	1044.705	808.841
49.257	18.256	1043.333	807.874
50.271	18.273	1042.678	807.378
51.286	18.363	1042.023	807.224
52.301	18.217	1040.817	805.529
53.315	18.298	1039.244	804.620
54.330	18.071	1038.414	802.844
55.344	17.971	1037.876	801.887
56.359	18.042	1036.991	801.465
57.374	18.090	1035.752	800.662
58.388	17.752	1035.348	798.693
59.403	17.920	1034.477	798.738
60.417	17.866	1033.634	797.763
61.432	17.905	1032.738	797.184
62.447	17.788	1032.011	796.007
63.461	17.745	1030.955	794.923
64.476	17.676	1030.181	793.935
65.490	17.674	1029.404	793.256
66.505	17.703	1028.637	792.727
67.520	17.810	1027.493	792.273
68.534	17.707	1027.390	791.644
69.549	17.703	1026.701	791.025
70.563	17.615	1025.802	789.854
71.578	17.531	1024.800	788.624
72.593	17.422	1023.986	787.426
73.607	17.467	1023.299	787.033
74.622	17.568	1022.384	786.728
75.636	17.523	1022.057	786.196
76.651	17.541	1021.445	785.743
77.666	17.683	1020.361	785.492
78.680	17.769	1019.570	785.211
79.695	17.688	1019.616	784.803
80.709	17.726	1018.906	784.363
81.724	18.019	1017.876	784.846
82.739	17.987	1017.678	784.476
83.753	18.089	1017.080	784.416
84.768	18.488	1016.179	785.478
85.782	18.651	1015.192	785.391
86.797	18.495	1014.239	783.874
87.812	18.177	1013.837	782.040
88.826	18.284	1012.860	781.704
89.841	18.277	1012.316	781.184
90.855	18.438	1011.324	781.081
91.870	18.492	1010.483	780.611
92.884	18.552	1009.249	779.860
93.899	18.476	1008.430	778.814
94.914	18.600	1007.295	778.431
95.928	18.542	1006.776	777.697
96.943	18.434	1005.560	776.199
97.957	18.339	1005.211	775.433
98.972	18.364	1004.197	774.696
99.987	18.345	1003.192	773.765
101.001	18.454	1001.871	773.169
102.016	18.358	1001.195	772.148
103.030	18.467	1001.053	772.458
104.045	18.399	1000.172	771.404
105.060	18.258	998.949	769.758
106.074	18.140	998.033	768.457
107.089	17.928	996.715	766.423
108.103	17.793	995.784	765.033
109.118	17.639	994.940	763.624
110.133	17.773	993.829	763.303
111.147	17.736	993.035	762.463
112.162	17.784	992.812	762.438
113.176	17.977	991.638	762.332
114.191	18.077	991.119	762.312
115.206	18.020	990.305	761.361
116.220	17.905	989.516	760.178
117.235	17.932	988.609	759.533
118.249	17.970	987.268	758.602
119.264	17.921	986.611	757.816
120.279	17.908	985.904	757.149
121.293	17.817	985.038	756.014
122.308	17.763	984.055	754.950
123.322	17.545	983.344	753.377
124.337	17.568	981.832	752.252
125.352	17.688	981.087	752.142
126.366	17.649	980.166	751.198
127.381	17.735	979.218	750.787
128.395	17.708	978.378	749.956
129.410	17.809	977.473	749.639
130.424	17.828	976.681	749.050
131.439	17.844	976.395	748.834
132.454	18.042	975.266	748.770
133.468	18.045	974.310	747.982
134.483	18.041	973.830	747.529
135.497	18.077	972.902	746.909
136.512	18.017	971.917	745.823
137.527	18.064	971.275	745.471
138.541	18.151	970.426	745.134
139.556	18.200	969.818	744.814
140.570	18.226	969.345	744.496
141.585	18.410	968.502	744.584
142.600	18.591	967.392	744.450
143.614	18.638	966.864	744.184
144.629	18.694	966.058	743.737
145.643	18.522	964.806	741.966
146.658	18.345	963.990	740.507
147.673	18.194	962.902	738.952
148.687	18.135	961.912	737.871
149.702	17.987	961.195	736.618
150.716	18.053	960.026	735.944
151.731	18.019	959.687	735.469
152.746	18.155	958.821	735.325
153.760	18.124	958.301	734.731
154.775	18.254	957.980	734.978
155.789	18.288	957.180	734.444
156.804	18.315	956.618	734.065
157.819	18.363	956.023	733.749
158.833	18.375	955.431	733.282
159.848	18.596	954.706	733.604
160.862	18.466	953.597	732.130
161.877	18.297	951.790	729.958
162.892	18.036	951.003	728.178
163.906	18.066	949.943	727.429
164.921	18.098	948.791	726.621
165.935	18.291	947.912	726.701
166.950	18.197	947.457	725.889
167.964	18.226	946.773	725.425
168.979	18.012	945.920	723.799
169.994	18.172	944.720	723.496
171.008	18.241	944.538	723.583
172.023	18.414	943.647	723.568
173.037	18.551	943.007	723.590
174.052	18.321	942.574	722.225
175.067	18.153	941.785	720.850
176.081	18.066	940.996	719.814
177.096	18.095	940.185	719.250
178.110	18.127	939.797	719.026
179.125	18.262	939.013	718.932
180.140	18.254	938.560	718.487
181.154	18.412	938.149	718.768
182.169	18.623	937.484	719.080
183.183	18.567	937.320	718.657
184.198	18.580	936.601	718.099
185.213	18.560	935.731	717.283
186.227	18.533	935.161	716.670
187.242	18.640	934.623	716.640
188.256	18.847	934.125	717.059
189.271	18.713	933.304	715.807
190.286	18.380	932.391	713.658
191.300	18.091	931.034	711.351
192.315	17.920	930.573	710.225
193.329	18.090	930.302	710.664
194.344	18.207	929.865	710.753
195.359	18.320	928.998	710.498
196.373	18.423	928.853	710.750
197.388	18.737	928.431	711.666
198.402	18.828	927.769	711.473
199.417	18.893	927.191	711.236
200.432	19.024	926.622	711.275
201.446	19.051	926.468	711.206
202.461	19.067	926.251	711.044
203.475	19.056	925.209	710.137
204.490	18.792	924.364	708.338
205.504	18.670	923.864	707.386
206.519	18.710	922.217	706.227
207.534	18.693	921.982	705.917
208.548	18.651	921.393	705.228
209.563	18.657	920.571	704.563
210.577	18.725	920.320	704.589
211.592	18.897	919.850	704.870
212.607	19.118	918.733	704.858
213.621	18.934	918.139	703.587
214.636	18.909	917.325	702.796
215.650	18.984	917.120	702.887
216.665	19.066	916.080	702.362
217.680	19.248	915.420	702.536
218.694	19.214	915.156	702.129
219.709	19.173	914.450	701.359
220.723	19.095	913.438	700.206
221.738	19.140	912.878	699.899
222.753	19.110	912.336	699.296
223.767	19.075	911.904	698.761
224.782	19.151	911.707	698.860
225.796	19.202	910.879	698.369
226.811	19.182	910.192	697.699
227.826	19.061	909.395	696.538
228.840	19.042	908.645	695.825
229.855	18.989	907.777	694.884
230.869	19.086	907.411	694.932
231.884	18.949	906.637	693.727
232.899	18.948	905.794	693.015
233.913	18.925	904.668	691.999
234.928	18.918	903.895	691.321
235.942	18.750	903.415	690.218
236.957	18.886	902.836	690.261
237.972	18.953	902.438	690.161
238.986	18.805	901.672	688.922
240.001	18.793	901.011	688.310
241.015	19.050	900.592	688.956
242.030	19.097	899.788	688.467
243.045	19.020	899.735	688.057
244.059	18.996	899.103	687.420
245.074	19.216	898.137	687.496
246.088	19.273	897.463	687.147
247.103	19.455	896.810	687.310
248.117	19.471	897.149	687.574
249.132	19.634	896.685	687.807
250.147	19.946	895.681	688.218
251.161	19.856	895.169	687.404
252.176	19.824	894.726	686.876
253.190	19.975	893.675	686.610
254.205	19.858	893.163	685.693
255.220	19.927	892.422	685.335
256.234	19.932	891.882	684.880
257.249	19.821	891.209	683.862
258.263	19.897	890.155	683.292
259.278	19.789	889.924	682.628
260.293	19.931	889.405	682.732
261.307	20.146	888.477	682.807
262.322	19.985	888.462	682.100
263.336	20.134	887.185	681.645
264.351	20.120	886.417	680.939
265.366	20.194	885.908	680.780
266.380	20.061	885.755	680.078
267.395	20.020	884.596	678.966
268.409	19.921	883.815	677.920
269.424	19.908	883.160	677.305
270.439	19.890	882.326	676.536
271.453	19.879	881.733	675.980
272.468	19.829	881.291	675.385
273.482	19.836	880.918	675.069
274.497	19.910	880.119	674.684
275.512	19.756	879.561	673.597
276.526	19.781	879.373	673.490
277.541	19.941	878.561	673.430
278.555	19.983	878.380	673.395
279.570	20.311	877.388	673.849
280.585	20.300	876.635	673.169
281.599	19.981	875.613	671.088
282.614	19.858	875.168	670.213
283.628	19.933	874.752	670.125
284.643	19.888	873.815	669.175
285.657	20.010	873.314	669.200
286.672	19.977	872.692	668.540
287.687	20.050	872.044	668.266
288.701	20.147	871.346	668.046
289.716	19.996	871.171	667.269
290.730	20.055	870.641	667.031
291.745	19.997	869.806	666.112
292.760	20.193	869.149	666.303
293.774	20.477	868.638	666.941
294.789	20.447	867.734	666.072
295.803	20.114	867.313	664.412
296.818	20.119	866.523	663.768
297.833	20.136	865.922	663.317
298.847	20.158	865.200	662.788
299.862	20.283	864.417	662.607
300.876	20.245	864.258	662.281
301.891	20.316	863.918	662.234
302.906	20.401	863.711	662.339
303.920	20.529	863.031	662.247
304.935	20.639	862.655	662.317
305.949	20.561	861.247	660.882
306.964	20.422	860.525	659.742
307.979	20.435	860.179	659.470
308.993	20.525	859.909	659.543
310.008	20.487	859.403	658.954
311.022	20.596	858.466	658.589
312.037	20.501	857.845	657.697
313.052	20.201	857.397	656.158
314.066	20.252	856.702	655.763
315.081	20.232	855.822	654.954
316.095	20.228	855.118	654.343
317.110	20.243	854.703	654.025
318.125	20.154	854.453	653.442
319.139	20.178	853.769	652.951
320.154	20.281	853.345	652.954
321.168	20.178	852.998	652.245
322.183	20.368	852.152	652.255
323.197	20.384	851.867	652.038
324.212	20.405	851.568	651.828
325.227	20.329	850.655	650.787
326.241	20.339	850.084	650.332
327.256	20.299	849.488	649.668
328.270	20.317	848.851	649.189
329.285	20.272	848.143	648.425
330.300	20.296	847.859	648.237
331.314	20.258	847.532	647.789
332.329	20.452	846.857	647.940
333.343	20.535	846.574	647.975
334.358	20.469	846.361	647.509
335.373	20.695	845.883	647.926
336.387	20.549	845.339	646.909
337.402	20.607	845.433	647.141
338.416	20.898	845.226	648.006
339.431	20.930	844.339	647.389
340.446	21.012	844.271	647.584
341.460	21.087	844.084	647.663
342.475	21.077	843.586	647.184
343.489	21.040	843.420	646.865
344.504	21.153	842.603	646.600
345.519	21.269	842.345	646.775
346.533	21.123	841.665	645.652
347.548	20.881	840.783	644.024
348.562	20.767	840.351	643.217
349.577	20.707	839.734	642.464
350.592	20.703	838.887	641.744
351.606	20.682	838.037	640.961
352.621	20.690	837.296	640.369
353.635	20.722	836.935	640.152
354.650	20.877	836.237	640.132
355.665	20.860	835.997	639.830
356.679	21.005	835.279	639.756
357.694	21.071	834.165	639.086
358.708	20.894	833.623	637.966
359.723	20.920	833.337	637.786
360.738	20.953	832.781	637.424
361.752	21.039	832.434	637.416
362.767	21.301	831.696	637.754
363.781	21.265	831.586	637.482
364.796	21.244	831.155	637.017
365.810	21.290	830.680	636.762
366.825	21.548	830.358	637.402
367.840	21.521	829.545	636.622
368.854	21.342	829.425	635.824
369.869	21.339	828.707	635.207
370.883	21.255	828.490	634.675
371.898	21.386	827.892	634.638
372.913	21.652	827.218	635.029
373.927	21.489	826.984	634.203
374.942	21.455	826.475	633.636
375.956	21.441	826.077	633.220
376.971	21.758	825.404	633.795
377.986	21.741	825.036	633.395
379.000	21.865	824.202	633.148
380.015	21.636	823.976	632.093
381.029	21.559	823.550	631.431
382.044	21.631	822.914	631.148
383.059	21.606	822.480	630.668
384.073	21.452	821.980	629.676
385.088	21.318	821.250	628.577
386.102	21.329	820.364	627.886
387.117	21.340	820.030	627.611
388.132	21.492	819.136	627.416
389.146	21.544	818.432	627.008
390.161	21.652	818.537	627.419
391.175	21.587	818.171	626.851
392.190	21.565	817.486	626.194
393.205	21.514	817.017	625.595
394.219	21.467	816.511	624.985
395.234	21.322	816.139	624.128
396.248	21.298	815.420	623.435
397.263	21.270	814.716	622.744
398.278	21.253	814.750	622.652
399.292	21.186	814.164	621.913
400.307	21.263	813.530	621.647
401.321	21.261	813.305	621.415
402.336	21.405	812.632	621.357
403.350	21.468	812.808	621.660
404.365	21.666	812.293	621.915
405.380	21.765	811.648	621.714
406.394	21.778	811.360	621.485
407.409	21.799	810.645	620.959
408.423	21.985	810.361	621.344
409.438	22.070	810.212	621.475
410.453	21.982	809.918	620.883
411.467	22.091	809.233	620.689
412.482	22.013	809.389	620.476
413.496	22.210	808.533	620.462
414.511	22.200	808.091	620.032
415.526	22.089	807.969	619.492
416.540	22.061	806.887	618.511
417.555	22.031	806.894	618.356
418.569	22.052	806.200	617.841
419.584	22.206	805.502	617.792
420.599	22.099	805.400	617.284
421.613	158.971	1370.430	1788.494
422.628	138.135	1452.743	1788.611
