DTS Sentinel unit serial number:	SN413079Multiplexer serial number:	ORYXHardware model number:	OX4-SRSoftware version number:	ORYX F/W v4.00 Oryx Data Collector v3.7.2.0data status	okinstallation	princeton_trtdifferential loss correction	single-endedforward channel	channel 1reverse channel	N/Adate	2019/09/12time	01:44:11forward acquisition time	60.00reverse acquisition time	0.00gamma	496.2192k internal	0.2320k external	0.2320temperature offset calibration	1.0075default loss term (dB/km)	0.3790temperature slope calibration	1.0000multiplexer offset coefficient	1.0000multiplexer slope coefficient	1.0000fibre end	0.00T internal ref (°C)	32.87T ext. ref 1 (°C)	2.09T ext. ref 2 (°C)	27.47length (m)	temperature (°C)	Stokes	anti-Stokes-747.200	118.901	0.229	0.286
-746.185	26.005	-0.066	-0.056
-745.171	-21.257	-0.166	0.103
-744.156	-13.401	-0.226	-0.148
-743.142	262.615	0.037	-0.065
-742.127	-200.000	0.033	-0.151
-741.112	800.000	0.026	-0.083
-740.098	120.594	-0.179	0.225
-739.083	-200.000	-0.007	0.170
-738.069	346.750	0.076	0.152
-737.054	-24.421	0.055	0.033
-736.039	-39.409	-0.340	0.180
-735.025	-89.959	-0.227	0.067
-734.010	-3.193	-0.374	-0.263
-732.996	800.000	0.079	-0.267
-731.981	58.959	0.444	-0.441
-730.966	76.261	0.118	0.126
-729.952	84.895	0.095	0.105
-728.937	76.994	0.081	-0.087
-727.923	247.479	-0.134	0.228
-726.908	-121.808	-0.081	0.013
-725.894	-182.082	0.328	0.006
-724.879	-71.744	0.052	0.019
-723.864	-73.413	0.137	0.051
-722.850	-165.496	0.219	0.010
-721.835	-200.000	-0.006	-0.100
-720.821	-104.750	-0.191	0.044
-719.806	800.000	-0.067	0.228
-718.791	509.326	0.115	0.269
-717.777	170.339	0.194	-0.280
-716.762	-41.334	-0.082	-0.043
-715.748	7.987	0.187	-0.142
-714.733	-87.569	-0.103	0.031
-713.718	-200.000	-0.000	-0.257
-712.704	37.172	-0.118	0.105
-711.689	-200.000	0.044	-0.317
-710.675	329.077	-0.043	-0.084
-709.660	258.888	0.160	0.278
-708.645	-139.254	0.094	0.010
-707.631	97.558	-0.049	-0.057
-706.616	0.239	-0.072	-0.052
-705.602	-101.169	0.130	-0.032
-704.587	-149.183	-0.243	-0.020
-703.572	-188.725	0.191	-0.002
-702.558	253.545	0.047	0.080
-701.543	-25.333	0.279	0.167
-700.529	800.000	0.059	0.170
-699.514	138.240	0.130	0.172
-698.499	-85.829	0.259	-0.081
-697.485	-111.318	-0.241	-0.050
-696.470	139.987	0.148	-0.197
-695.456	119.804	0.207	-0.259
-694.441	10.383	-0.322	0.247
-693.426	-51.770	-0.118	0.055
-692.412	-9.632	-0.185	0.124
-691.397	800.000	0.032	-0.103
-690.383	117.474	0.087	-0.108
-689.368	138.759	-0.222	-0.294
-688.354	71.579	-0.073	-0.076
-687.339	-200.000	-0.049	0.329
-686.324	-145.303	-0.091	0.008
-685.310	140.694	0.068	0.090
-684.295	-10.330	-0.318	0.213
-683.281	-15.561	-0.186	-0.119
-682.266	-200.000	0.085	-0.379
-681.251	-89.098	-0.062	-0.018
-680.237	379.941	0.043	0.088
-679.222	124.481	0.400	-0.508
-678.208	-31.253	-0.322	-0.183
-677.193	-31.142	-0.468	0.266
-676.178	-187.366	-0.253	-0.003
-675.164	-200.000	-0.002	-0.127
-674.149	-181.906	0.287	-0.006
-673.135	-113.354	0.081	-0.016
-672.120	376.984	0.077	-0.158
-671.105	-11.026	0.251	-0.167
-670.091	100.974	-0.072	0.084
-669.076	24.535	-0.266	-0.222
-668.062	31.720	-0.180	-0.156
-667.047	-35.611	0.093	-0.051
-666.032	13.606	0.181	0.142
-665.018	-81.344	-0.218	0.073
-664.003	44.894	0.069	0.064
-662.989	88.087	0.044	0.049
-661.974	102.643	-0.200	-0.236
-660.959	-122.391	-0.351	-0.058
-659.945	-200.000	-0.052	0.359
-658.930	-200.000	-0.004	0.107
-657.916	551.145	-0.025	0.061
-656.901	13.192	-0.153	0.119
-655.886	-80.173	-0.324	0.109
-654.872	150.528	0.135	0.185
-653.857	-200.000	0.022	0.247
-652.843	800.000	-0.130	-0.375
-651.828	60.096	0.218	-0.217
-650.814	540.285	0.024	0.057
-649.799	755.675	0.077	0.209
-648.784	-200.000	0.008	0.070
-647.770	-48.946	0.286	-0.138
-646.755	-45.240	0.222	0.111
-645.741	-24.369	0.144	0.086
-644.726	-182.478	0.184	-0.003
-643.711	800.000	0.088	-0.352
-642.697	86.698	0.329	-0.366
-641.682	-53.557	-0.360	0.166
-640.668	-38.036	0.119	-0.064
-639.653	-98.864	0.339	-0.087
-638.638	497.460	-0.084	-0.194
-637.624	13.035	-0.216	-0.168
-636.609	373.868	-0.069	0.141
-635.595	84.393	0.199	0.219
-634.580	731.268	-0.065	0.174
-633.565	-200.000	0.009	-0.081
-632.551	-26.593	-0.214	0.126
-631.536	48.937	-0.186	0.176
-630.522	-125.758	0.289	0.044
-629.507	750.441	-0.134	0.364
-628.492	800.000	-0.026	0.082
-627.478	156.306	-0.044	0.062
-626.463	-33.433	0.438	0.244
-625.449	800.000	0.095	-0.326
-624.434	139.854	-0.191	0.253
-623.419	-6.102	-0.226	-0.156
-622.405	-200.000	0.010	-0.130
-621.390	-4.933	-0.345	-0.239
-620.376	126.597	-0.101	0.129
-619.361	800.000	-0.018	-0.062
-618.346	-200.000	-0.058	-0.442
-617.332	-71.648	-0.173	-0.065
-616.317	133.576	0.071	0.093
-615.303	66.888	0.249	-0.255
-614.288	-200.000	0.004	0.062
-613.273	74.444	-0.185	-0.196
-612.259	-200.000	0.009	-0.317
-611.244	196.632	0.109	0.167
-610.230	-128.314	-0.288	-0.041
-609.215	342.889	0.123	-0.242
-608.201	-4.508	-0.333	0.231
-607.186	-200.000	-0.008	-0.113
-606.171	-26.675	-0.028	0.016
-605.157	79.666	0.005	0.005
-604.142	-131.203	-0.067	-0.009
-603.128	22.133	-0.089	0.073
-602.113	-135.408	-0.359	-0.043
-601.098	40.479	0.079	-0.071
-600.084	331.875	0.068	-0.133
-599.069	-200.000	-0.026	-0.142
-598.055	-13.413	0.012	0.008
-597.040	800.000	-0.110	-0.339
-596.025	715.782	-0.068	-0.181
-595.011	389.822	0.088	-0.183
-593.996	-143.652	0.227	0.022
-592.982	79.419	-0.168	-0.182
-591.967	-200.000	-0.043	-0.619
-590.952	292.672	0.169	-0.310
-589.938	403.364	-0.124	-0.262
-588.923	-200.000	0.022	-0.185
-587.909	-200.000	-0.062	-0.273
-586.894	252.984	-0.176	0.301
-585.879	-11.375	0.396	-0.262
-584.865	-124.974	-0.136	-0.021
-583.850	-156.561	0.117	-0.007
-582.836	800.000	0.008	-0.033
-581.821	19.129	-0.210	0.169
-580.806	-200.000	-0.027	0.436
-579.792	138.518	-0.127	0.168
-578.777	339.067	0.099	0.195
-577.763	19.673	-0.215	-0.174
-576.748	518.644	0.194	-0.455
-575.733	-52.774	-0.186	0.086
-574.719	-200.000	0.009	0.117
-573.704	800.000	-0.056	-0.184
-572.690	-200.000	-0.005	-0.128
-571.675	33.102	-0.095	0.083
-570.661	-200.000	0.083	-0.374
-569.646	800.000	-0.096	0.358
-568.631	-147.526	0.349	0.030
-567.617	115.123	-0.136	-0.166
-566.602	-200.000	-0.020	-0.119
-565.588	69.672	0.029	-0.030
-564.573	224.159	-0.270	0.438
-563.558	-150.476	-0.326	0.025
-562.544	800.000	0.102	0.304
-561.529	800.000	0.015	0.042
-560.515	-200.000	-0.091	-0.449
-559.500	-115.500	0.391	-0.074
-558.485	-200.000	-0.017	0.139
-557.471	-83.830	0.417	-0.133
-556.456	-200.000	-0.043	-0.229
-555.442	-200.000	0.007	-0.193
-554.427	800.000	0.087	0.259
-553.412	-93.853	-0.172	0.048
-552.398	-130.124	0.137	0.019
-551.383	-6.920	-0.099	-0.068
-550.369	195.621	0.033	-0.051
-549.354	-75.202	-0.430	-0.154
-548.339	262.893	-0.115	-0.200
-547.325	-123.962	-0.089	0.014
-546.310	56.258	-0.187	0.182
-545.296	-200.000	-0.071	0.498
-544.281	267.672	0.192	-0.336
-543.266	32.607	0.276	0.239
-542.252	158.152	0.271	0.377
-541.237	-115.319	-0.169	-0.032
-540.223	800.000	-0.047	-0.197
-539.208	-200.000	-0.038	-0.175
-538.193	519.445	0.125	0.294
-537.179	-76.772	0.305	0.107
-536.164	-200.000	-0.047	-0.309
-535.150	424.974	0.171	-0.369
-534.135	153.300	0.151	0.207
-533.121	632.381	0.108	0.276
-532.106	362.976	-0.058	0.116
-531.091	-98.073	0.253	-0.065
-530.077	-200.000	-0.017	0.277
-529.062	90.382	0.268	0.300
-528.048	800.000	0.035	-0.152
-527.033	-63.578	-0.032	-0.013
-526.018	49.090	-0.291	0.274
-525.004	739.052	0.085	-0.228
-523.989	41.679	0.241	-0.219
-522.975	-85.045	0.148	-0.046
-521.960	63.529	-0.179	0.180
-520.945	-53.648	-0.208	-0.095
-519.931	-102.493	-0.295	-0.071
-518.916	-200.000	-0.012	0.079
-517.902	-200.000	-0.279	0.000
-516.887	336.154	0.034	0.066
-515.872	-200.000	0.002	-0.063
-514.858	171.665	0.091	-0.131
-513.843	153.082	-0.038	0.052
-512.829	472.958	0.051	0.115
-511.814	800.000	0.009	0.031
-510.799	26.269	0.290	0.243
-509.785	16.985	-0.159	0.126
-508.770	-87.539	-0.148	-0.045
-507.756	-183.221	-0.364	-0.006
-506.741	800.000	-0.041	0.146
-505.726	2.030	0.085	0.061
-504.712	-200.000	0.011	0.169
-503.697	-80.179	0.150	0.050
-502.683	-200.000	0.004	-0.056
-501.668	377.815	-0.054	0.111
-500.653	800.000	-0.130	0.488
-499.639	-124.631	0.066	0.010
-498.624	325.128	-0.168	-0.321
-497.610	211.846	0.065	0.103
-496.595	800.000	-0.074	-0.251
-495.581	-117.347	0.061	0.011
-494.566	625.224	0.016	-0.040
-493.551	-200.000	-0.001	0.020
-492.537	136.181	-0.093	0.121
-491.522	-200.000	0.004	-0.089
-490.508	195.071	0.134	0.204
-489.493	-152.172	-0.199	-0.014
-488.478	-11.854	0.132	-0.087
-487.464	-180.124	0.217	0.005
-486.449	-20.866	0.207	0.127
-485.435	-78.880	-0.082	-0.028
-484.420	-185.472	0.097	-0.001
-483.405	130.439	-0.176	0.226
-482.391	800.000	0.033	-0.141
-481.376	-200.000	0.032	0.184
-480.362	800.000	0.074	0.255
-479.347	-146.456	-0.299	0.026
-478.332	-60.921	0.149	-0.063
-477.318	-40.440	-0.195	0.101
-476.303	-66.908	0.031	-0.012
-475.289	-82.095	-0.451	-0.147
-474.274	-72.060	0.399	0.148
-473.259	800.000	0.043	0.154
-472.245	617.504	0.038	0.095
-471.230	-15.120	0.456	-0.292
-470.216	-200.000	0.003	-0.026
-469.201	-117.395	0.194	-0.035
-468.186	83.233	0.065	0.070
-467.172	70.092	-0.161	0.166
-466.157	789.327	0.116	0.318
-465.143	196.506	0.044	0.067
-464.128	800.000	-0.067	-0.265
-463.113	-43.722	0.161	0.081
-462.099	297.223	0.084	0.154
-461.084	-163.611	-0.177	-0.008
-460.070	36.390	-0.319	0.281
-459.055	136.878	0.043	0.056
-458.040	161.758	-0.135	-0.189
-457.026	800.000	-0.073	0.243
-456.011	445.218	-0.130	0.285
-454.997	800.000	-0.076	-0.236
-453.982	-200.000	0.024	-0.118
-452.968	68.723	-0.144	0.148
-451.953	23.833	-0.318	-0.262
-450.938	287.111	-0.131	0.236
-449.924	-83.245	0.316	0.101
-448.909	-200.000	0.008	-0.130
-447.895	20.894	-0.187	-0.151
-446.880	-200.000	0.010	-0.167
-445.865	-59.187	0.159	-0.068
-444.851	-156.422	0.312	0.019
-443.836	-21.417	0.323	0.197
-442.822	-2.272	0.109	-0.077
-441.807	-200.000	-0.018	-0.254
-440.792	39.836	-0.076	-0.068
-439.778	-70.450	-0.098	-0.037
-438.763	-112.969	-0.068	0.013
-437.749	-200.000	0.091	0.554
-436.734	-200.000	-0.005	0.155
-435.719	-200.000	0.015	-0.124
-434.705	69.977	0.192	0.198
-433.690	-200.000	-0.088	-0.574
-432.676	23.333	0.041	-0.033
-431.661	-159.697	0.154	0.008
-430.646	-200.000	-0.057	0.289
-429.632	608.212	-0.128	-0.320
-428.617	-43.071	-0.012	0.006
-427.603	-182.068	0.063	0.001
-426.588	771.136	-0.058	-0.159
-425.573	800.000	0.044	0.186
-424.559	-46.219	0.119	-0.059
-423.544	123.037	-0.176	0.221
-422.530	-95.162	0.033	0.009
-421.515	643.482	-0.148	0.377
-420.500	37.175	0.238	0.210
-419.486	5.512	0.023	-0.017
-418.471	120.561	-0.123	0.153
-417.457	123.784	-0.041	-0.051
-416.442	-79.658	0.383	-0.129
-415.428	-180.826	-0.205	-0.004
-414.413	-61.131	0.090	-0.038
-413.398	-200.000	-0.010	0.391
-412.384	800.000	-0.056	0.181
-411.369	81.150	0.307	-0.331
-410.355	-200.000	-0.051	0.233
-409.340	800.000	0.063	-0.249
-408.325	517.128	-0.102	0.238
-407.311	114.608	0.058	-0.070
-406.296	-160.929	0.144	0.008
-405.282	80.336	0.030	0.032
-404.267	74.787	0.183	-0.192
-403.252	-66.746	-0.225	0.089
-402.238	-200.000	0.059	0.302
-401.223	-28.379	0.324	-0.186
-400.209	-42.452	-0.111	0.057
-399.194	-200.000	-0.016	-0.133
-398.179	344.468	0.133	-0.261
-397.165	-200.000	-0.109	-0.541
-396.150	140.911	-0.167	-0.220
-395.136	-121.136	0.131	0.022
-394.121	-57.169	-0.187	0.082
-393.106	387.313	-0.052	-0.107
-392.092	-5.256	-0.174	-0.119
-391.077	256.248	-0.131	-0.224
-390.063	-200.000	-0.025	-0.119
-389.048	-200.000	-0.056	-0.276
-388.033	-94.717	-0.075	0.020
-387.019	-79.527	-0.491	-0.165
-386.004	693.694	0.188	-0.492
-384.990	-4.391	-0.110	-0.076
-383.975	-77.077	0.245	-0.085
-382.960	800.000	-0.067	0.196
-381.946	800.000	-0.134	-0.440
-380.931	800.000	-0.024	0.097
-379.917	7.706	-0.421	0.314
-378.902	-14.235	-0.186	-0.119
-377.888	-41.061	0.132	0.068
-376.873	-21.708	0.247	0.150
-375.858	633.678	0.081	-0.204
-374.844	-200.000	0.039	-0.408
-373.829	-11.421	-0.268	-0.176
-372.815	-4.954	-0.170	0.117
-371.800	70.709	0.047	-0.048
-370.785	-21.257	-0.132	-0.081
-369.771	408.655	0.128	0.269
-368.756	428.800	0.158	-0.339
-367.742	312.619	0.070	-0.130
-366.727	-148.368	0.238	0.019
-365.712	-63.594	-0.108	-0.044
-364.698	-200.000	0.010	0.226
-363.683	800.000	0.116	0.349
-362.669	273.540	0.095	0.168
-361.654	17.079	0.151	0.119
-360.639	800.000	0.014	0.049
-359.625	-64.461	-0.219	-0.089
-358.610	86.090	0.254	-0.278
-357.596	-96.440	0.104	0.027
-356.581	-191.720	-0.210	-0.002
-355.566	800.000	0.076	-0.312
-354.552	37.393	-0.281	0.248
-353.537	186.420	-0.235	-0.349
-352.523	759.484	-0.122	0.328
-351.508	-59.775	-0.241	0.103
-350.493	-38.701	0.247	0.130
-349.479	29.736	0.198	0.168
-348.464	-17.907	-0.267	0.167
-347.450	-66.834	0.225	-0.089
-346.435	-143.265	-0.088	-0.008
-345.420	-115.580	-0.269	-0.050
-344.406	-110.437	0.139	0.029
-343.391	-70.483	0.297	0.112
-342.377	283.828	0.051	0.092
-341.362	-200.000	0.066	-0.306
-340.348	30.690	0.182	0.155
-339.333	800.000	-0.094	0.381
-338.318	66.813	-0.164	0.166
-337.304	76.596	-0.023	-0.024
-336.289	-75.885	-0.102	0.036
-335.275	-104.888	0.237	-0.054
-334.260	442.405	0.171	0.373
-333.245	-145.811	-0.104	0.009
-332.231	-31.028	-0.236	-0.132
-331.216	-49.473	0.161	-0.076
-330.202	800.000	0.042	-0.173
-329.187	524.905	0.051	0.120
-328.172	800.000	-0.111	0.352
-327.158	330.986	-0.028	0.053
-326.143	-9.729	-0.187	-0.124
-325.129	8.532	-0.330	-0.247
-324.114	-27.310	0.113	-0.066
-323.099	-186.047	-0.296	-0.004
-322.085	-105.714	-0.108	-0.024
-321.070	-33.927	-0.128	-0.070
-320.056	224.669	-0.068	0.109
-319.041	326.485	0.129	0.245
-318.026	35.817	-0.151	-0.132
-317.012	-91.732	0.311	0.088
-315.997	38.708	0.054	0.048
-314.983	-107.937	0.133	0.029
-313.968	800.000	0.064	-0.190
-312.953	-169.262	-0.044	0.002
-311.939	118.577	0.219	0.269
-310.924	-172.835	0.095	0.003
-309.910	-144.642	0.264	0.024
-308.895	136.115	-0.208	0.269
-307.880	534.912	-0.136	0.320
-306.866	-84.073	-0.214	-0.067
-305.851	85.957	-0.175	0.192
-304.837	142.837	0.043	-0.057
-303.822	10.206	-0.033	0.025
-302.807	28.132	0.218	0.183
-301.793	-200.000	-0.059	-0.362
-300.778	-126.092	0.186	0.028
-299.764	159.426	0.295	-0.408
-298.749	-200.000	0.009	-0.175
-297.735	106.611	-0.083	-0.097
-296.720	389.069	-0.112	0.230
-295.705	638.103	0.072	0.182
-294.691	45.714	-0.221	0.203
-293.676	0.965	-0.109	-0.078
-292.662	-153.056	-0.107	-0.007
-291.647	332.894	0.125	-0.239
-290.632	800.000	-0.061	-0.181
-289.618	-97.011	0.263	0.068
-288.603	-6.653	0.172	-0.116
-287.589	39.995	0.090	-0.080
-286.574	-65.976	0.101	0.040
-285.559	326.970	0.187	0.356
-284.545	-200.000	0.008	0.521
-283.530	-200.000	-0.031	-0.196
-282.516	-200.000	0.004	-0.029
-281.501	800.000	0.050	-0.207
-280.486	-20.072	0.319	-0.196
-279.472	-123.371	-0.224	-0.035
-278.457	-200.000	0.048	-0.290
-277.443	551.707	0.099	-0.237
-276.428	547.468	0.024	0.057
-275.413	-121.979	-0.236	0.038
-274.399	-85.012	-0.096	0.030
-273.384	-47.730	0.391	-0.188
-272.370	800.000	-0.036	0.142
-271.355	800.000	0.153	0.559
-270.340	244.141	0.167	-0.278
-269.326	77.007	0.062	-0.066
-268.311	-48.754	0.109	0.052
-267.297	57.097	-0.127	0.123
-266.282	68.456	0.254	0.258
-265.267	-59.423	0.132	0.056
-264.253	181.107	0.270	0.393
-263.238	327.080	-0.052	0.099
-262.224	-140.451	-0.209	-0.022
-261.209	-200.000	-0.339	-0.001
-260.195	-200.000	-0.077	0.392
-259.180	800.000	0.095	0.287
-258.165	-95.963	0.064	-0.017
-257.151	-30.964	-0.140	-0.078
-256.136	-200.000	-0.000	0.113
-255.122	169.779	-0.018	-0.026
-254.107	59.057	-0.047	-0.045
-253.092	-200.000	-0.009	0.132
-252.078	190.717	0.067	0.100
-251.063	-67.790	-0.163	-0.063
-250.049	800.000	0.063	0.202
-249.034	81.887	0.146	-0.157
-248.019	-200.000	0.026	-0.382
-247.005	-200.000	-0.011	0.234
-245.990	45.074	0.032	0.029
-244.976	-200.000	-0.015	0.145
-243.961	394.921	-0.016	0.034
-242.946	-34.721	-0.255	-0.138
-241.932	280.128	-0.128	-0.226
-240.917	-40.148	-0.233	0.120
-239.903	152.737	0.188	-0.255
-238.888	232.307	-0.129	-0.211
-237.873	800.000	-0.070	-0.202
-236.859	47.837	-0.099	-0.092
-235.844	402.951	0.183	0.381
-234.830	-63.120	-0.087	-0.036
-233.815	800.000	-0.127	-0.383
-232.800	-198.014	-0.100	-0.001
-231.786	-200.000	-0.048	0.216
-230.771	-200.000	-0.015	0.088
-229.757	60.153	0.111	-0.109
-228.742	15.804	0.169	0.131
-227.727	-3.205	-0.091	0.063
-226.713	205.186	-0.057	-0.088
-225.698	-200.000	-0.076	-0.412
-224.684	-39.942	-0.098	0.051
-223.669	-200.000	-0.009	-0.360
-222.655	260.782	-0.070	-0.120
-221.640	-87.816	-0.351	0.105
-220.625	468.961	0.061	-0.136
-219.611	-200.000	0.013	0.138
-218.596	-200.000	-0.005	-0.115
-217.582	222.668	-0.116	0.185
-216.567	96.978	0.332	-0.377
-215.552	350.728	-0.052	-0.101
-214.538	7.553	-0.191	-0.141
-213.523	-15.923	0.182	-0.115
-212.509	173.210	-0.158	0.225
-211.494	-200.000	-0.033	0.266
-210.479	-61.812	0.168	0.070
-209.465	-200.000	0.003	-0.031
-208.450	-35.965	-0.040	-0.022
-207.436	-150.383	0.472	0.036
-206.421	236.923	0.087	0.143
-205.406	-114.708	-0.226	0.043
-204.392	78.732	0.133	-0.141
-203.377	85.719	-0.334	-0.364
-202.363	-66.847	0.381	0.149
-201.348	-27.205	-0.249	0.143
-200.333	343.291	0.048	-0.093
-199.319	165.543	-0.149	-0.208
-198.304	-88.837	0.440	0.129
-197.290	-10.310	-0.281	0.185
-196.275	109.586	-0.120	0.142
-195.260	-10.266	0.139	-0.091
-194.246	204.329	-0.213	-0.327
-193.231	800.000	-0.048	-0.171
-192.217	800.000	0.049	0.159
-191.202	-126.668	0.360	-0.053
-190.187	405.960	0.121	0.253
-189.173	-200.000	-0.096	-0.435
-188.158	-200.000	-0.012	-0.094
-187.144	-200.000	0.053	0.324
-186.129	-63.937	-0.149	-0.060
-185.114	-93.499	-0.178	-0.049
-184.100	555.113	0.080	-0.191
-183.085	-40.685	-0.044	-0.023
-182.071	194.090	0.231	0.346
-181.056	800.000	-0.081	0.225
-180.042	-166.741	-0.298	0.012
-179.027	-62.258	-0.260	-0.107
-178.012	-22.235	-0.132	-0.079
-176.998	70.344	0.045	0.046
-175.983	-200.000	0.023	0.178
-174.969	128.931	0.169	0.213
-173.954	800.000	-0.078	0.212
-172.939	-111.366	-0.424	-0.086
-171.925	-23.929	0.383	-0.227
-170.910	1.958	-0.111	0.079
-169.896	150.395	-0.132	-0.178
-168.881	718.830	0.010	0.025
-167.866	-3.520	-0.263	-0.181
-166.852	-11.840	0.270	-0.175
-165.837	-60.106	0.244	0.103
-164.823	33.708	0.281	0.241
-163.808	193.958	-0.146	0.219
-162.793	-13.684	0.143	0.092
-161.779	34.608	0.121	0.105
-160.764	87.557	0.191	-0.209
-159.750	-56.896	-0.218	0.095
-158.735	-200.000	0.011	0.074
-157.720	-53.823	-0.347	0.157
-156.706	-99.234	0.380	-0.095
-155.691	-84.267	0.076	-0.024
-154.677	695.100	0.054	0.141
-153.662	-75.291	-0.132	-0.046
-152.647	800.000	0.079	0.264
-151.633	-162.929	0.204	0.010
-150.618	169.365	0.244	0.344
-149.604	48.440	-0.208	0.192
-148.589	-97.674	-0.197	0.050
-147.574	-86.990	0.177	0.053
-146.560	581.391	0.047	-0.115
-145.545	109.566	0.217	0.257
-144.531	-88.696	0.185	-0.054
-143.516	-107.897	0.065	-0.014
-142.502	-200.000	0.009	-0.182
-141.487	-61.656	0.171	0.071
-140.472	-13.889	-0.137	0.087
-139.458	-75.911	-0.138	-0.048
-138.443	-34.200	-0.213	-0.116
-137.429	-134.198	0.161	0.020
-136.414	515.333	-0.035	0.080
-135.399	-43.593	0.170	-0.085
-134.385	-65.063	0.469	-0.187
-133.370	-200.000	-0.019	0.236
-132.356	-200.000	0.015	-0.121
-131.341	-20.783	-0.077	0.047
-130.326	800.000	-0.110	0.335
-129.312	-200.000	-0.060	0.484
-128.297	800.000	-0.034	0.143
-127.283	-200.000	0.032	0.208
-126.268	-92.547	-0.179	0.050
-125.253	-42.771	-0.103	0.052
-124.239	-26.906	0.179	-0.103
-123.224	-200.000	0.003	0.176
-122.210	172.760	0.182	0.259
-121.195	39.392	-0.263	0.232
-120.180	-200.000	0.009	-0.167
-119.166	38.365	-0.357	-0.314
-118.151	800.000	-0.098	0.310
-117.137	800.000	0.085	0.301
-116.122	-19.190	-0.110	-0.067
-115.107	143.876	0.125	0.165
-114.093	145.629	0.134	-0.178
-113.078	-21.250	0.067	0.040
-112.064	-200.000	0.017	-0.102
-111.049	-47.170	0.188	-0.090
-110.034	-76.061	0.115	-0.040
-109.020	-102.601	-0.051	-0.012
-108.005	372.938	0.080	-0.161
-106.991	-56.164	0.237	-0.104
-105.976	261.403	0.103	0.175
-104.962	-126.635	-0.226	0.033
-103.947	-200.000	0.030	0.167
-102.932	168.082	0.044	-0.061
-101.918	-88.228	0.153	0.045
-100.903	-138.236	-0.199	0.022
-99.889	-91.558	0.233	-0.065
-98.874	-200.000	-0.017	0.084
-97.859	139.433	0.073	0.094
-96.845	442.119	-0.094	-0.204
-95.830	-73.918	0.269	0.096
-94.816	-200.000	0.056	-0.279
-93.801	-136.748	-0.432	-0.049
-92.786	800.000	0.085	-0.277
-91.772	-200.000	0.022	0.298
-90.757	-98.669	0.100	-0.025
-89.743	800.000	0.075	0.205
-88.728	-88.808	-0.049	0.014
-87.713	-67.254	0.268	0.104
-86.699	-200.000	0.002	0.127
-85.684	-65.618	0.212	0.084
-84.670	-10.657	0.110	-0.072
-83.655	102.359	-0.035	-0.040
-82.640	-5.545	0.084	0.056
-81.626	-55.723	0.016	-0.007
-80.611	800.000	-0.065	-0.224
-79.597	-1.833	-0.247	0.171
-78.582	13.914	-0.127	-0.097
-77.567	310.985	0.128	0.236
-76.553	574.103	-0.134	0.322
-75.538	-153.607	0.455	-0.031
-74.524	-35.494	-0.431	0.231
-73.509	85.540	-0.201	0.218
-72.494	-200.000	-0.012	0.113
-71.480	800.000	0.054	-0.227
-70.465	212.536	0.102	0.158
-69.451	657.925	0.122	-0.309
-68.436	-164.361	0.115	-0.005
-67.422	800.000	-0.074	0.310
-66.407	164.391	0.197	0.273
-65.392	-98.687	-0.140	0.035
-64.378	-200.000	0.034	-0.388
-63.363	800.000	0.028	0.106
-62.349	-200.000	0.025	-0.123
-61.334	430.167	-0.425	-0.906
-60.319	56.716	0.464	0.445
-59.305	-200.000	-0.045	-1.125
-58.290	329.294	0.611	1.156
-57.276	254.542	0.817	1.375
-56.261	-200.000	96.045	574.684
-55.246	554.945	1375.744	3258.480
-54.232	160.833	2549.716	3504.446
-53.217	112.241	2140.973	2547.476
-52.203	44.474	1604.483	1450.482
-51.188	36.526	1342.460	1165.862
-50.173	33.285	1300.521	1110.413
-49.159	55.459	1347.662	1283.472
-48.144	57.523	1364.672	1311.930
-47.130	36.535	1323.098	1148.914
-46.115	33.003	1305.842	1113.116
-45.100	32.903	1301.140	1108.479
-44.086	32.844	1298.260	1105.638
-43.071	32.692	1296.391	1103.112
-42.057	32.664	1294.317	1101.139
-41.042	32.720	1292.321	1099.722
-40.027	32.843	1290.930	1099.211
-39.013	32.792	1288.996	1097.225
-37.998	32.816	1287.162	1095.759
-36.984	32.801	1285.748	1094.426
-35.969	32.866	1283.914	1093.198
-34.954	32.816	1282.499	1091.663
-33.940	32.908	1280.911	1090.798
-32.925	33.070	1279.251	1090.274
-31.911	32.961	1277.593	1088.193
-30.896	32.929	1276.411	1086.960
-29.881	32.989	1275.052	1086.101
-28.867	32.999	1273.785	1085.036
-27.852	32.986	1271.895	1083.308
-26.838	33.068	1270.324	1082.397
-25.823	33.091	1269.080	1081.428
-24.809	32.979	1267.886	1079.725
-23.794	32.881	1266.989	1078.360
-22.779	32.998	1265.414	1077.643
-21.765	32.901	1264.085	1075.919
-20.750	32.881	1262.878	1074.733
-19.736	32.985	1261.455	1074.073
-18.721	32.839	1260.568	1072.441
-17.706	32.887	1259.802	1072.021
-16.692	32.773	1258.399	1070.135
-15.677	32.865	1257.292	1069.676
-14.663	32.813	1256.256	1068.459
-13.648	32.860	1255.179	1067.764
-12.633	32.672	1254.339	1065.946
-11.619	32.854	1253.211	1065.974
-10.604	32.796	1252.743	1065.204
-9.590	32.930	1251.053	1064.481
-8.575	32.825	1250.388	1063.283
-7.560	32.817	1249.873	1062.754
-6.546	32.675	1249.433	1061.541
-5.531	32.666	1248.389	1060.561
-4.517	32.817	1247.019	1060.200
-3.502	32.790	1246.612	1059.661
-2.487	32.766	1245.544	1058.579
-1.473	32.799	1240.972	1054.837
-0.458	31.290	1226.977	1034.549
0.556	28.327	1209.235	997.361
1.571	24.757	1214.862	982.343
2.586	23.978	1230.120	990.259
3.600	23.576	1219.331	979.271
4.615	17.306	1146.712	888.217
5.629	6.888	1069.849	777.584
6.644	2.518	1049.074	741.297
7.659	2.120	1046.314	737.358
8.673	1.988	1045.279	735.927
9.688	1.717	1044.633	734.099
10.702	2.382	1042.689	735.871
11.717	8.941	1052.454	774.456
12.731	19.173	1066.128	834.268
13.746	24.251	1072.286	863.687
14.761	25.106	1073.651	868.854
15.775	25.139	1073.341	868.683
16.790	24.904	1072.575	866.851
17.804	24.856	1071.748	865.875
18.819	25.107	1071.444	866.767
19.834	25.167	1071.014	866.628
20.848	25.224	1070.699	866.572
21.863	25.237	1070.118	866.093
22.877	25.140	1069.812	865.299
23.892	25.080	1068.947	864.233
24.907	25.221	1068.070	864.129
25.921	25.176	1066.601	862.645
26.936	25.193	1065.503	861.764
27.950	25.012	1063.977	859.585
28.965	25.063	1062.055	858.201
29.980	25.054	1060.863	857.117
30.994	25.305	1060.017	857.557
32.009	25.211	1059.004	856.213
33.023	25.067	1057.485	854.225
34.038	25.166	1057.068	854.282
35.053	25.182	1056.460	853.793
36.067	25.300	1055.551	853.543
37.082	25.332	1054.958	853.137
38.096	25.349	1054.314	852.621
39.111	25.581	1053.474	852.969
40.126	25.378	1051.987	850.727
41.140	24.886	1050.269	846.938
42.155	24.703	1049.329	845.241
43.169	24.766	1048.128	844.496
44.184	24.729	1047.309	843.583
45.199	24.769	1046.156	842.769
46.213	24.865	1045.758	842.825
47.228	25.042	1045.070	843.031
48.242	25.164	1044.106	842.750
49.257	25.177	1043.367	842.142
50.271	25.219	1042.863	841.856
51.286	25.257	1042.017	841.279
52.301	25.307	1041.067	840.670
53.315	25.267	1040.210	839.716
54.330	25.060	1039.146	837.817
55.344	25.163	1038.917	838.041
56.359	25.059	1037.308	836.184
57.374	25.097	1036.707	835.801
58.388	24.945	1035.872	834.345
59.403	24.891	1034.742	833.109
60.417	24.762	1034.301	832.080
61.432	24.777	1033.751	831.636
62.447	24.872	1033.181	831.546
63.461	25.030	1032.366	831.549
64.476	24.924	1031.131	829.989
65.490	24.897	1029.917	828.814
66.505	24.956	1029.785	828.906
67.520	24.963	1029.353	828.516
68.534	24.755	1027.932	826.338
69.549	24.478	1026.991	824.231
70.563	24.555	1025.979	823.699
71.578	24.385	1025.518	822.477
72.593	24.218	1024.337	820.687
73.607	24.350	1024.247	821.150
74.622	24.796	1023.704	822.692
75.636	24.773	1022.936	821.899
76.651	24.676	1021.896	820.545
77.666	24.646	1020.690	819.362
78.680	24.646	1020.373	819.036
79.695	24.666	1019.897	818.674
80.709	24.798	1019.015	818.497
81.724	24.934	1017.986	818.221
82.739	24.922	1017.540	817.736
83.753	25.150	1017.394	818.585
84.768	25.481	1016.032	818.924
85.782	25.595	1015.277	818.765
86.797	25.304	1014.327	816.604
87.812	25.312	1013.041	815.530
88.826	25.283	1012.514	814.905
89.841	25.413	1011.520	814.621
90.855	25.551	1010.402	814.273
91.870	25.460	1009.830	813.331
92.884	25.266	1009.011	811.721
93.899	25.156	1008.040	810.372
94.914	25.351	1007.455	810.709
95.928	25.343	1005.855	809.314
96.943	25.063	1004.884	807.200
97.957	24.758	1003.866	804.935
98.972	24.726	1002.900	803.945
99.987	25.011	1001.661	804.164
101.001	25.068	1001.495	804.213
102.016	25.167	1000.326	803.649
103.030	24.965	999.797	802.248
104.045	25.038	998.551	801.502
105.060	24.859	997.321	799.642
106.074	24.912	997.261	799.761
107.089	25.278	996.643	800.830
108.103	25.145	995.577	799.309
109.118	24.849	994.396	796.975
110.133	24.939	992.964	796.153
111.147	24.731	991.759	794.196
112.162	24.677	990.977	793.259
113.176	24.765	990.814	793.448
114.191	24.761	989.712	792.479
115.206	24.318	989.073	789.932
116.220	24.342	988.478	789.495
117.235	24.557	986.973	789.175
118.249	24.645	985.906	788.639
119.264	24.433	985.467	787.283
120.279	24.564	984.637	787.128
121.293	24.709	984.121	787.286
122.308	24.482	983.448	785.675
123.322	24.430	982.067	784.276
124.337	24.321	981.019	782.889
125.352	23.928	979.153	779.609
126.366	23.963	978.146	778.893
127.381	24.643	978.383	781.990
128.395	25.094	977.667	783.317
129.410	25.242	976.850	783.240
130.424	25.109	976.255	782.116
131.439	25.193	974.819	781.262
132.454	25.044	974.012	779.896
133.468	24.947	974.034	779.423
134.483	25.140	972.850	779.245
135.497	25.239	972.155	779.048
136.512	25.362	971.335	778.855
137.527	25.420	970.135	778.076
138.541	25.443	969.512	777.607
139.556	25.360	968.942	776.723
140.570	25.545	968.072	776.757
141.585	25.506	966.981	775.646
142.600	25.304	966.319	774.172
143.614	25.585	965.633	774.765
144.629	25.770	964.566	774.637
145.643	25.543	963.773	772.956
146.658	25.295	962.811	771.050
147.673	25.288	961.443	769.857
148.687	25.212	960.402	768.630
149.702	25.058	959.475	767.162
150.716	25.161	958.595	766.832
151.731	25.428	957.655	767.148
152.746	25.362	957.530	766.702
153.760	25.757	956.746	767.690
154.775	25.482	956.239	766.041
155.789	25.574	955.221	765.551
156.804	25.559	954.633	764.949
157.819	25.641	953.603	764.404
158.833	25.680	952.898	763.938
159.848	25.579	951.973	762.698
160.862	25.596	950.757	761.731
161.877	25.446	950.168	760.554
162.892	25.465	949.295	759.872
163.906	25.558	947.632	758.863
164.921	25.475	947.184	758.088
165.935	25.557	946.509	757.826
166.950	25.474	945.232	756.389
167.964	25.701	944.258	756.496
168.979	25.310	943.377	754.082
169.994	25.349	942.671	753.614
171.008	25.539	942.606	754.291
172.023	25.714	941.508	754.078
173.037	25.389	939.987	751.435
174.052	25.310	939.403	750.574
175.067	25.292	938.689	749.857
176.081	25.241	938.258	749.235
177.096	25.361	937.766	749.278
178.110	24.935	935.939	745.978
179.125	24.864	935.711	745.435
180.140	24.914	935.307	745.253
181.154	25.181	934.821	745.911
182.169	25.353	935.106	746.787
183.183	25.481	934.568	746.825
184.198	25.454	933.544	745.829
185.213	25.430	932.816	745.082
186.227	25.697	932.149	745.590
187.242	25.578	931.701	744.671
188.256	25.591	930.986	744.088
189.271	25.704	930.086	743.769
190.286	25.378	928.713	741.260
191.300	24.600	927.566	737.071
192.315	23.986	925.910	733.161
193.329	23.882	925.825	732.601
194.344	24.688	926.516	736.403
195.359	25.418	925.870	738.829
196.373	25.499	925.433	738.748
197.388	25.437	924.815	737.935
198.402	25.447	923.944	737.216
199.417	25.587	923.646	737.487
200.432	25.081	922.502	734.434
201.446	25.153	922.090	734.338
202.461	25.010	921.814	733.468
203.475	24.203	919.641	728.377
204.490	23.502	918.007	724.154
205.504	24.448	918.848	728.618
206.519	24.954	918.880	730.644
207.534	25.096	918.180	730.600
208.548	25.571	917.679	732.071
209.563	25.105	917.122	729.667
210.577	25.141	916.640	729.366
211.592	25.612	915.970	730.680
212.607	25.603	915.061	729.856
213.621	25.623	914.669	729.560
214.636	25.564	913.698	728.480
215.650	25.487	912.997	727.545
216.665	25.708	912.669	728.116
217.680	25.644	911.833	727.124
218.694	25.061	911.001	724.042
219.709	24.947	909.779	722.549
220.723	25.370	909.681	724.112
221.738	25.375	908.894	723.441
222.753	25.523	907.861	723.152
223.767	25.550	907.800	723.147
224.782	25.678	907.784	723.586
225.796	25.676	907.259	723.092
226.811	25.082	905.407	719.172
227.826	24.523	904.327	716.008
228.840	24.563	904.000	715.847
229.855	24.811	902.739	715.779
230.869	24.312	902.212	713.302
231.884	24.809	902.230	715.240
232.899	25.511	902.258	718.003
233.913	25.406	901.538	716.948
234.928	25.472	900.849	716.598
235.942	25.362	900.216	715.596
236.957	25.050	899.475	713.699
237.972	25.023	898.978	713.136
238.986	25.006	898.564	712.674
240.001	25.208	897.668	712.704
241.015	25.248	897.352	712.548
242.030	25.368	896.968	712.656
243.045	25.345	896.261	711.940
244.059	25.537	895.755	712.239
245.074	25.461	894.707	711.041
246.088	25.266	893.509	709.256
247.103	25.386	893.526	709.682
248.117	25.997	893.678	712.153
249.132	26.192	893.167	712.449
250.147	26.167	893.029	712.178
251.161	26.339	892.571	712.427
252.176	26.336	891.684	711.646
253.190	26.262	891.396	711.062
254.205	26.526	890.717	711.496
255.220	26.385	890.337	710.576
256.234	26.209	889.714	709.325
257.249	26.175	888.759	708.365
258.263	26.249	888.122	708.085
259.278	26.261	887.550	707.613
260.293	26.427	886.711	707.533
261.307	26.264	886.085	706.331
262.322	26.076	885.136	704.778
263.336	25.374	883.411	700.607
264.351	24.401	881.151	694.964
265.366	24.390	880.975	694.720
266.380	25.471	882.283	699.903
267.395	25.980	881.644	701.315
268.409	25.962	880.647	700.388
269.424	26.083	880.766	700.893
270.439	26.299	879.662	700.790
271.453	26.324	878.830	700.161
272.468	26.360	879.131	700.481
273.482	26.352	878.500	699.883
274.497	25.982	877.249	697.395
275.512	25.607	876.379	695.192
276.526	26.170	876.269	697.217
277.541	26.217	875.860	697.012
278.555	26.062	874.819	695.524
279.570	25.765	874.557	694.109
280.585	26.185	873.762	695.035
281.599	25.999	873.128	693.752
282.614	25.376	871.805	690.245
283.628	25.377	871.094	689.626
284.643	25.885	870.808	691.289
285.657	25.413	869.639	688.491
286.672	25.181	868.912	686.965
287.687	25.724	869.378	689.352
288.701	25.786	868.732	689.019
289.716	25.420	867.766	686.791
290.730	25.471	866.972	686.297
291.745	25.228	866.038	684.568
292.760	25.351	866.322	685.203
293.774	26.285	866.599	688.925
294.789	26.744	866.337	690.404
295.803	26.673	865.656	689.531
296.818	26.792	864.783	689.228
297.833	26.434	863.246	686.581
298.847	26.151	863.254	685.455
299.862	26.392	863.203	686.265
300.876	26.598	862.758	686.633
301.891	26.655	861.757	685.991
302.906	26.241	860.782	683.588
303.920	26.401	860.415	683.842
304.935	26.842	860.098	685.196
305.949	26.619	859.582	683.882
306.964	26.410	858.917	682.504
307.979	26.440	858.738	682.417
308.993	26.839	858.148	683.391
310.008	26.718	857.870	682.654
311.022	26.540	857.073	681.287
312.037	26.272	856.322	679.624
313.052	26.057	855.375	678.001
314.066	25.178	854.002	673.555
315.081	25.020	852.981	672.097
316.095	25.884	853.511	675.698
317.110	26.268	853.024	676.689
318.125	25.535	851.586	672.749
319.139	24.325	850.092	666.984
320.154	24.470	849.768	667.215
321.168	25.251	850.278	670.475
322.183	26.068	849.999	673.244
323.197	26.301	850.085	674.124
324.212	26.365	849.671	673.975
325.227	26.395	849.261	673.701
326.241	26.269	848.258	672.375
327.256	26.271	847.486	671.714
328.270	26.123	847.018	670.734
329.285	25.971	846.462	669.669
330.300	25.762	845.630	668.176
331.314	26.051	845.072	668.745
332.329	26.376	845.218	670.008
333.343	26.670	844.846	670.744
334.358	26.633	844.185	670.020
335.373	26.548	844.060	669.548
336.387	26.859	844.186	670.741
337.402	26.985	844.016	671.012
338.416	27.086	843.023	670.535
339.431	27.171	843.089	670.844
340.446	27.241	842.809	670.818
341.460	27.153	842.276	670.009
342.475	26.868	841.538	668.314
343.489	26.841	841.513	668.136
344.504	27.207	841.239	669.206
345.519	27.427	840.536	669.397
346.533	27.308	840.238	668.661
347.548	27.397	839.787	668.570
348.562	27.228	839.215	667.437
349.577	27.279	838.598	667.075
350.592	27.160	837.997	666.101
351.606	27.221	836.962	665.442
352.621	27.225	836.418	664.965
353.635	27.024	835.589	663.515
354.650	26.448	833.839	659.965
355.665	25.447	832.576	655.258
356.679	25.764	832.748	656.490
357.694	26.287	832.184	657.893
358.708	26.210	831.345	656.891
359.723	26.633	831.329	658.357
360.738	26.989	830.805	659.179
361.752	27.053	830.405	659.036
362.767	27.361	830.293	660.006
363.781	27.629	829.991	660.677
364.796	27.852	829.379	660.940
365.810	27.670	829.500	660.318
366.825	27.755	828.534	659.798
367.840	27.352	828.040	657.891
368.854	26.996	826.916	655.653
369.869	27.094	826.525	655.641
370.883	27.148	825.975	655.341
371.898	27.110	825.781	654.991
372.913	27.106	825.704	654.859
373.927	27.288	824.939	654.848
374.942	27.364	824.516	654.727
375.956	27.450	824.303	654.810
376.971	27.484	823.725	654.413
377.986	27.765	823.384	655.097
379.000	27.542	822.796	653.769
380.015	27.389	822.360	652.818
381.029	27.534	821.727	652.775
382.044	27.646	821.483	652.926
383.059	27.733	820.773	652.614
384.073	27.737	820.191	652.108
385.088	27.607	819.412	650.968
386.102	27.427	818.787	649.772
387.117	27.396	817.990	648.969
388.132	27.040	817.014	646.871
389.146	26.696	816.017	644.799
390.161	26.932	816.229	645.748
391.175	27.430	816.069	647.338
392.190	27.192	814.448	645.149
393.205	25.563	812.922	638.108
394.219	24.045	811.214	631.332
395.234	24.144	810.784	631.294
396.248	25.883	811.956	638.314
397.263	27.273	813.117	644.097
398.278	27.263	812.581	643.580
399.292	27.018	812.507	642.599
400.307	26.807	811.783	641.223
401.321	27.052	811.265	641.623
402.336	27.396	811.204	642.732
403.350	27.890	811.078	644.320
404.365	28.286	810.810	645.445
405.380	28.390	810.672	645.643
406.394	28.550	809.947	645.573
407.409	28.402	809.676	644.779
408.423	28.225	809.378	643.861
409.438	28.335	809.049	643.932
410.453	28.329	808.414	643.347
411.467	28.456	807.618	643.103
412.482	28.369	807.315	642.500
413.496	28.490	807.177	642.758
414.511	28.342	806.899	641.961
415.526	28.277	806.707	641.521
416.540	28.181	805.471	640.147
417.555	28.108	804.688	639.213
418.569	28.029	804.706	638.893
419.584	28.009	803.744	638.003
420.599	27.846	803.204	636.951
421.613	111.123	1285.033	1456.521
422.628	95.967	1355.243	1456.642
