DTS Sentinel unit serial number:	SN413079Multiplexer serial number:	ORYXHardware model number:	OX4-SRSoftware version number:	ORYX F/W v4.00 Oryx Data Collector v3.7.2.0data status	okinstallation	princeton_trtdifferential loss correction	single-endedforward channel	channel 1reverse channel	N/Adate	2019/09/12time	04:36:11forward acquisition time	60.00reverse acquisition time	0.00gamma	496.2192k internal	0.2324k external	0.2324temperature offset calibration	1.0125default loss term (dB/km)	0.3790temperature slope calibration	1.0000multiplexer offset coefficient	1.0000multiplexer slope coefficient	1.0000fibre end	0.00T internal ref (°C)	31.61T ext. ref 1 (°C)	2.87T ext. ref 2 (°C)	26.95length (m)	temperature (°C)	Stokes	anti-Stokes-747.200	-200.000	-0.044	-0.269
-746.185	-200.000	0.077	0.400
-745.171	-70.627	-0.229	-0.087
-744.156	-8.671	-0.269	0.182
-743.142	-176.624	0.178	0.005
-742.127	267.770	-0.108	0.191
-741.112	-58.022	-0.115	-0.051
-740.098	-200.000	-0.005	0.064
-739.083	-200.000	-0.012	0.209
-738.069	800.000	0.061	0.236
-737.054	-33.309	-0.253	0.141
-736.039	21.588	-0.407	-0.334
-735.025	-200.000	0.015	0.301
-734.010	-128.089	-0.345	0.050
-732.996	-82.525	-0.227	0.074
-731.981	419.080	-0.080	-0.172
-730.966	-53.188	-0.148	-0.069
-729.952	-41.488	0.270	-0.140
-728.937	800.000	-0.049	-0.198
-727.923	-157.742	-0.060	-0.004
-726.908	-200.000	-0.031	-0.161
-725.894	59.540	0.135	-0.135
-724.879	-200.000	-0.044	-0.371
-723.864	-200.000	0.100	0.484
-722.850	311.524	-0.041	-0.077
-721.835	18.620	-0.404	-0.326
-720.821	44.230	-0.226	-0.209
-719.806	176.038	0.141	-0.206
-718.791	-134.692	0.100	0.012
-717.777	214.452	-0.066	-0.105
-716.762	62.414	0.181	0.182
-715.748	800.000	0.032	-0.133
-714.733	516.498	-0.176	0.414
-713.718	200.224	-0.042	0.065
-712.704	-27.139	0.289	0.170
-711.689	101.784	0.045	0.053
-710.675	97.577	0.103	-0.119
-709.660	5.228	-0.329	0.245
-708.645	-200.000	0.000	-0.194
-707.631	-200.000	-0.067	-0.369
-706.616	-172.970	0.167	0.005
-705.602	26.806	-0.245	0.207
-704.587	-51.542	-0.198	-0.093
-703.572	342.382	0.097	-0.191
-702.558	-73.160	-0.126	0.046
-701.543	-47.034	0.061	-0.030
-700.529	800.000	0.055	-0.203
-699.514	28.144	0.066	-0.056
-698.499	134.573	-0.059	-0.077
-697.485	-200.000	0.111	-0.496
-696.470	362.296	-0.150	0.303
-695.456	-10.609	-0.163	0.109
-694.441	17.854	0.319	-0.256
-693.426	-24.385	0.132	0.079
-692.412	-18.496	-0.065	-0.041
-691.397	73.851	0.314	-0.332
-690.383	-122.818	-0.157	-0.026
-689.368	329.010	0.123	-0.239
-688.354	-200.000	0.016	0.210
-687.339	-200.000	0.017	0.181
-686.324	-37.048	0.349	0.188
-685.310	-82.656	-0.383	-0.125
-684.295	243.497	-0.114	0.192
-683.281	359.523	-0.085	-0.171
-682.266	-122.426	-0.079	-0.013
-681.251	-53.271	-0.212	-0.098
-680.237	-172.754	0.349	-0.011
-679.222	135.286	0.219	0.286
-678.208	62.706	-0.298	0.300
-677.193	63.491	0.063	0.064
-676.178	-200.000	-0.001	-0.300
-675.164	-107.435	-0.218	-0.048
-674.149	800.000	0.077	-0.243
-673.135	409.333	0.139	-0.297
-672.120	315.593	0.126	-0.239
-671.105	-200.000	0.000	-0.169
-670.091	56.037	0.118	0.116
-669.076	-89.770	0.128	-0.038
-668.062	-200.000	-0.006	0.064
-667.047	654.398	-0.036	-0.093
-666.032	-53.869	0.260	-0.119
-665.018	157.713	-0.058	-0.080
-664.003	-71.602	-0.195	0.073
-662.989	252.351	-0.080	-0.137
-661.974	45.350	-0.117	0.109
-660.959	197.433	-0.069	0.106
-659.945	53.259	-0.228	-0.220
-658.930	-25.778	0.011	0.007
-657.916	-150.621	0.157	-0.012
-656.901	-125.361	-0.395	-0.061
-655.886	-200.000	-0.071	-0.360
-654.872	-176.882	-0.358	-0.009
-653.857	27.132	-0.173	-0.146
-652.843	-200.000	0.045	0.419
-651.828	-4.741	-0.197	-0.137
-650.814	306.903	-0.110	-0.206
-649.799	-200.000	-0.027	0.139
-648.784	65.874	0.170	0.173
-647.770	166.548	-0.348	0.496
-646.755	102.517	-0.171	0.201
-645.741	-200.000	0.029	0.269
-644.726	800.000	0.056	0.227
-643.711	-200.000	-0.004	-0.087
-642.697	-58.753	-0.209	0.091
-641.682	-61.125	-0.383	-0.163
-640.668	-200.000	0.012	-0.228
-639.653	414.685	-0.116	-0.248
-638.638	191.287	-0.308	-0.465
-637.624	22.845	0.090	0.074
-636.609	-77.032	0.223	0.078
-635.595	-103.506	0.134	-0.032
-634.580	-132.976	-0.058	0.007
-633.565	-46.502	0.179	-0.088
-632.551	49.055	-0.149	-0.141
-631.536	-200.000	-0.006	0.046
-630.522	750.386	0.041	0.112
-629.507	-113.010	0.291	-0.058
-628.492	85.552	0.076	0.084
-627.478	273.796	-0.061	0.109
-626.463	89.352	0.234	0.263
-625.449	-200.000	-0.027	-0.293
-624.434	683.618	0.121	-0.318
-623.419	302.573	-0.028	0.053
-622.405	800.000	0.029	0.109
-621.390	347.415	0.132	-0.260
-620.376	777.170	-0.097	-0.267
-619.361	800.000	-0.059	-0.243
-618.346	169.373	-0.103	0.148
-617.332	-200.000	0.024	-0.127
-616.317	-40.791	0.116	-0.060
-615.303	800.000	0.031	-0.110
-614.288	274.781	0.053	-0.094
-613.273	288.248	0.228	-0.414
-612.259	115.321	-0.205	-0.251
-611.244	613.653	-0.044	0.112
-610.230	-200.000	-0.065	0.347
-609.215	-200.000	-0.033	0.378
-608.201	-117.601	0.150	-0.027
-607.186	82.826	-0.176	-0.192
-606.171	199.053	0.159	0.244
-605.157	-200.000	0.013	-0.195
-604.142	363.564	0.090	-0.181
-603.128	77.403	-0.377	0.403
-602.113	-200.000	0.011	0.396
-601.098	800.000	0.083	0.307
-600.084	2.099	0.039	-0.029
-599.069	-54.675	-0.317	0.144
-598.055	-200.000	-0.024	0.243
-597.040	227.847	0.070	-0.115
-596.025	-56.037	0.121	-0.054
-595.011	-200.000	0.035	0.281
-593.996	71.128	0.217	-0.226
-592.982	60.572	-0.282	0.280
-591.967	-86.800	-0.326	-0.100
-590.952	-169.889	-0.326	0.012
-589.938	800.000	0.070	0.289
-588.923	-13.236	-0.196	-0.128
-587.909	177.794	0.146	-0.213
-586.894	77.053	0.155	0.165
-585.879	-96.443	-0.403	0.107
-584.865	134.398	-0.164	0.214
-583.850	459.042	-0.110	-0.244
-582.836	75.696	-0.101	-0.107
-581.821	591.590	0.135	-0.334
-580.806	656.585	-0.091	-0.235
-579.792	544.136	-0.155	-0.372
-578.777	132.215	0.096	0.124
-577.763	-90.477	0.185	-0.054
-576.748	-9.998	-0.199	-0.133
-575.733	85.687	-0.219	-0.241
-574.719	-21.185	0.160	0.098
-573.704	-61.078	0.070	-0.030
-572.690	-97.288	-0.115	-0.030
-571.675	-88.734	-0.165	0.049
-570.661	-200.000	-0.016	-0.166
-569.646	-51.973	0.151	0.070
-568.631	-18.498	-0.356	-0.223
-567.617	-93.633	-0.091	-0.025
-566.602	800.000	-0.054	-0.181
-565.588	-102.842	-0.377	0.090
-564.573	640.949	0.099	0.253
-563.558	25.689	0.144	-0.120
-562.544	144.557	-0.065	-0.087
-561.529	800.000	0.073	-0.296
-560.515	-144.813	0.006	0.001
-559.500	178.694	0.057	-0.083
-558.485	800.000	0.010	-0.033
-557.471	-83.009	-0.113	-0.036
-556.456	-19.853	-0.082	-0.051
-555.442	-100.185	-0.108	-0.027
-554.427	23.985	-0.155	0.128
-553.412	-60.078	0.291	0.125
-552.398	-200.000	-0.020	0.236
-551.383	-80.500	0.191	-0.064
-550.369	75.562	-0.150	0.159
-549.354	-63.247	0.167	0.069
-548.339	108.900	0.245	0.293
-547.325	-17.172	0.117	0.074
-546.310	800.000	-0.159	-0.636
-545.296	-200.000	0.043	-0.293
-544.281	-155.159	-0.182	-0.012
-543.266	-200.000	0.006	0.067
-542.252	-200.000	0.032	0.317
-541.237	-71.658	-0.142	0.053
-540.223	-60.820	-0.175	0.074
-539.208	-53.787	0.296	-0.135
-538.193	-200.000	0.006	-0.079
-537.179	351.932	0.152	0.302
-536.164	59.538	0.076	-0.075
-535.150	-46.919	0.242	0.119
-534.135	110.692	-0.058	0.070
-533.121	800.000	-0.017	0.065
-532.106	800.000	0.041	-0.140
-531.091	94.709	-0.218	-0.248
-530.077	-69.682	0.332	-0.127
-529.062	438.180	-0.144	-0.315
-528.048	99.715	0.133	-0.154
-527.033	800.000	-0.018	-0.064
-526.018	80.825	-0.136	-0.146
-525.004	-47.503	-0.165	0.080
-523.989	-52.974	0.115	0.053
-522.975	128.049	-0.097	-0.124
-521.960	-42.011	-0.196	0.100
-520.945	778.998	0.057	0.156
-519.931	96.643	-0.080	0.092
-518.916	800.000	0.038	0.121
-517.902	483.899	0.104	0.237
-516.887	377.864	-0.127	-0.260
-515.872	800.000	0.098	-0.317
-514.858	474.991	-0.112	0.252
-513.843	-116.868	-0.091	-0.017
-512.829	-200.000	0.045	0.313
-511.814	-200.000	-0.034	0.169
-510.799	365.897	-0.104	0.210
-509.785	765.744	-0.146	0.397
-508.770	-111.304	-0.102	0.021
-507.756	79.257	0.181	-0.194
-506.741	-54.155	-0.149	-0.068
-505.726	2.465	0.112	0.081
-504.712	664.291	0.075	-0.193
-503.697	800.000	0.076	0.229
-502.683	-75.983	0.187	0.066
-501.668	-35.195	0.143	-0.078
-500.653	124.376	0.203	0.256
-499.639	-157.511	0.262	-0.016
-498.624	-96.261	-0.287	0.076
-497.610	470.819	-0.028	0.062
-496.595	49.303	-0.358	-0.336
-495.581	465.031	0.062	-0.138
-494.566	385.182	0.075	-0.154
-493.551	23.901	-0.169	0.139
-492.537	-200.000	-0.035	-0.386
-491.522	97.227	0.113	-0.129
-490.508	-64.007	0.197	-0.081
-489.493	478.700	-0.153	0.346
-488.478	20.756	0.233	0.189
-487.464	168.459	0.141	0.201
-486.449	-200.000	0.000	-0.073
-485.435	-32.965	0.223	-0.124
-484.420	19.094	0.112	-0.090
-483.405	27.323	0.065	0.055
-482.391	682.457	0.021	0.055
-481.376	128.549	0.252	-0.320
-480.362	-74.980	-0.170	0.061
-479.347	72.158	0.017	0.017
-478.332	-200.000	0.017	0.114
-477.318	-200.000	0.032	0.469
-476.303	800.000	-0.084	0.309
-475.289	28.685	0.130	-0.110
-474.274	-59.364	-0.191	-0.082
-473.259	-177.383	0.314	0.008
-472.245	-58.187	-0.260	0.113
-471.230	-114.633	0.262	0.050
-470.216	-20.524	-0.174	-0.107
-469.201	-134.829	0.427	-0.052
-468.186	19.540	-0.302	0.243
-467.172	629.624	0.057	0.145
-466.157	-118.325	-0.169	-0.030
-465.143	-142.613	0.357	0.035
-464.128	-200.000	0.040	-0.293
-463.113	-200.000	0.265	0.001
-462.099	-2.049	-0.340	-0.238
-461.084	631.582	0.152	-0.385
-460.070	-63.791	-0.065	-0.027
-459.055	-200.000	0.023	-0.135
-458.040	800.000	0.038	0.149
-457.026	-109.068	-0.359	0.076
-456.011	-200.000	0.010	0.138
-454.997	-145.342	0.138	0.012
-453.982	320.675	-0.115	0.219
-452.968	-96.980	-0.237	-0.062
-451.953	-171.386	-0.171	-0.006
-450.938	660.053	-0.089	-0.228
-449.924	463.836	0.137	0.305
-448.909	800.000	0.046	0.127
-447.895	731.554	-0.101	0.269
-446.880	-105.711	-0.080	0.018
-445.865	61.472	-0.077	0.076
-444.851	-200.000	0.018	0.111
-443.836	-200.000	-0.020	0.106
-442.822	214.207	-0.069	-0.109
-441.807	-108.084	0.157	0.034
-440.792	-144.457	0.056	0.005
-439.778	-11.564	-0.141	-0.093
-438.763	361.622	0.062	0.124
-437.749	-56.370	0.126	0.056
-436.734	-116.972	-0.134	0.025
-435.719	237.955	-0.160	0.264
-434.705	137.311	0.200	0.261
-433.690	-164.197	-0.482	-0.022
-432.676	110.264	-0.126	-0.151
-431.661	-150.225	0.438	-0.034
-430.646	131.771	-0.155	0.198
-429.632	-28.635	0.183	-0.105
-428.617	515.506	-0.137	-0.320
-427.603	800.000	0.038	-0.148
-426.588	66.443	-0.197	-0.199
-425.573	-19.261	0.097	-0.060
-424.559	-200.000	-0.046	-0.292
-423.544	-150.496	0.090	-0.007
-422.530	15.643	-0.174	-0.136
-421.515	42.391	-0.153	-0.138
-420.500	127.543	-0.105	-0.133
-419.486	12.080	0.070	0.054
-418.471	57.730	-0.085	0.083
-417.457	-73.853	0.232	-0.084
-416.442	-200.000	0.059	0.294
-415.428	564.346	0.100	-0.240
-414.413	29.382	0.082	-0.069
-413.398	-200.000	-0.071	-0.310
-412.384	194.674	-0.055	0.084
-411.369	800.000	0.022	0.064
-410.355	-185.756	0.159	0.002
-409.340	-129.358	-0.170	-0.024
-408.325	-100.882	0.230	-0.056
-407.311	-200.000	-0.027	0.122
-406.296	349.708	0.147	-0.290
-405.282	-70.471	0.370	0.140
-404.267	11.194	0.023	0.017
-403.252	129.560	0.187	-0.238
-402.238	-74.965	0.243	-0.087
-401.223	312.879	0.089	-0.167
-400.209	-11.458	0.297	-0.195
-399.194	-200.000	-0.013	0.088
-398.179	-200.000	0.016	-0.255
-397.165	22.604	-0.111	-0.090
-396.150	110.806	-0.142	-0.170
-395.136	-37.115	0.174	-0.093
-394.121	246.627	-0.037	-0.063
-393.106	716.216	-0.169	-0.446
-392.092	780.092	-0.091	0.248
-391.077	-200.000	0.021	0.171
-390.063	-73.389	-0.087	0.032
-389.048	-89.622	0.353	0.103
-388.033	190.801	0.104	0.155
-387.019	-105.142	0.203	-0.046
-386.004	-200.000	-0.008	-0.143
-384.990	27.959	-0.291	0.244
-383.975	-200.000	0.009	0.059
-382.960	550.025	0.046	-0.111
-381.946	119.421	0.244	0.300
-380.931	76.730	0.069	-0.073
-379.917	800.000	0.029	-0.088
-378.902	-192.604	0.091	0.001
-377.888	0.012	0.150	-0.106
-376.873	32.143	-0.138	0.119
-375.858	800.000	-0.139	-0.432
-374.844	102.115	-0.189	0.220
-373.829	-140.509	-0.210	0.022
-372.815	-200.000	-0.008	0.097
-371.800	-137.587	0.287	-0.032
-370.785	-101.316	-0.187	-0.045
-369.771	800.000	0.072	0.267
-368.756	-200.000	-0.036	0.213
-367.742	800.000	-0.064	0.269
-366.727	26.883	-0.103	0.086
-365.712	-108.275	0.261	0.056
-364.698	421.808	0.063	0.135
-363.683	-71.610	0.093	0.034
-362.669	-200.000	-0.022	0.104
-361.654	800.000	0.081	0.288
-360.639	800.000	-0.111	0.470
-359.625	-66.570	-0.175	0.069
-358.610	-17.983	-0.166	-0.104
-357.596	121.955	-0.086	-0.107
-356.581	-200.000	-0.002	-0.085
-355.566	-25.232	-0.163	-0.096
-354.552	-92.978	-0.133	0.037
-353.537	-200.000	-0.002	0.118
-352.523	-200.000	0.028	-0.159
-351.508	71.591	-0.116	-0.120
-350.493	-135.081	0.283	-0.034
-349.479	102.323	-0.282	-0.327
-348.464	331.340	0.075	-0.144
-347.450	-200.000	-0.018	-0.083
-346.435	-200.000	-0.210	-0.000
-345.420	800.000	-0.038	0.118
-344.406	-200.000	-0.015	0.235
-343.391	-200.000	-0.003	0.119
-342.377	-200.000	-0.019	0.316
-341.362	131.601	-0.069	-0.089
-340.348	110.716	0.311	0.371
-339.333	-23.561	-0.353	-0.211
-338.318	-200.000	-0.002	-0.192
-337.304	0.968	0.170	0.121
-336.289	220.568	-0.101	0.162
-335.275	-200.000	-0.033	-0.211
-334.260	800.000	0.061	0.198
-333.245	-34.962	0.238	-0.129
-332.231	284.007	-0.072	-0.128
-331.216	-152.857	-0.179	-0.013
-330.202	302.946	0.011	0.020
-329.187	-39.928	-0.439	-0.228
-328.172	-90.512	0.314	-0.090
-327.158	-200.000	-0.078	-0.341
-326.143	-81.586	0.164	0.054
-325.129	800.000	0.052	0.200
-324.114	800.000	0.017	0.059
-323.099	-140.971	0.153	0.016
-322.085	-144.329	0.091	0.008
-321.070	-68.863	-0.284	0.109
-320.056	-17.745	0.286	-0.178
-319.041	-200.000	-0.045	0.485
-318.026	-171.536	-0.134	0.004
-317.012	752.647	-0.048	0.128
-315.997	-91.841	0.049	-0.014
-314.983	144.941	0.139	0.185
-313.968	460.969	-0.117	-0.258
-312.953	-97.587	0.170	0.044
-311.939	103.055	0.092	0.106
-310.924	366.639	-0.141	-0.281
-309.910	35.248	0.156	0.136
-308.895	-144.244	-0.377	0.035
-307.880	-144.639	0.574	-0.052
-306.866	-188.348	-0.416	0.005
-305.851	-200.000	-0.041	-0.192
-304.837	-123.779	0.506	0.079
-303.822	-9.764	-0.111	-0.073
-302.807	107.766	-0.103	-0.121
-301.793	-43.080	0.188	-0.095
-300.778	-69.548	-0.281	-0.107
-299.764	-200.000	0.021	0.113
-298.749	34.003	0.176	-0.152
-297.735	253.142	0.105	-0.177
-296.720	800.000	-0.051	0.182
-295.705	30.783	0.068	0.057
-294.691	800.000	0.006	-0.025
-293.676	-50.353	-0.230	0.108
-292.662	-107.758	-0.067	0.014
-291.647	-119.826	-0.068	-0.012
-290.632	209.531	-0.158	-0.246
-289.618	46.481	0.101	0.093
-288.603	191.847	0.265	0.396
-287.589	-200.000	-0.040	0.194
-286.574	-187.492	0.258	0.003
-285.559	-108.883	-0.167	0.035
-284.545	-26.882	0.082	-0.048
-283.530	299.787	-0.173	0.316
-282.516	-166.929	-0.106	-0.004
-281.501	116.396	-0.150	0.182
-280.486	800.000	0.037	-0.129
-279.472	-107.869	-0.337	0.073
-278.457	-200.000	0.046	-0.205
-277.443	-200.000	0.059	-0.280
-276.428	330.722	0.187	0.357
-275.413	800.000	0.101	-0.407
-274.399	-138.192	-0.485	0.053
-273.384	28.978	0.191	-0.161
-272.370	78.474	0.047	0.049
-271.355	96.471	-0.105	0.119
-270.340	-200.000	-0.011	0.201
-269.326	48.542	0.373	-0.346
-268.311	511.770	0.080	0.185
-267.297	-92.181	-0.099	-0.028
-266.282	72.175	0.143	-0.148
-265.267	-41.722	-0.127	0.064
-264.253	-200.000	-0.052	-0.366
-263.238	-47.246	0.136	0.066
-262.224	-44.248	-0.297	-0.147
-261.209	-2.476	0.131	-0.091
-260.195	110.442	-0.233	0.277
-259.180	-30.428	-0.236	0.133
-258.165	-200.000	0.027	-0.250
-257.151	-25.657	0.303	0.177
-256.136	-200.000	0.010	-0.095
-255.122	-59.868	0.349	-0.148
-254.107	133.799	-0.157	-0.202
-253.092	-200.000	-0.061	0.323
-252.078	20.544	-0.071	-0.057
-251.063	-200.000	-0.007	-0.154
-250.049	83.515	-0.027	0.029
-249.034	431.472	0.016	-0.035
-248.019	120.485	0.014	0.017
-247.005	-44.681	-0.065	-0.032
-245.990	-130.309	0.027	-0.004
-244.976	33.899	0.064	0.055
-243.961	83.920	-0.325	0.352
-242.946	-114.910	0.154	-0.029
-241.932	-60.342	-0.220	0.093
-240.917	217.364	-0.136	0.215
-239.903	21.701	-0.292	0.235
-238.888	-200.000	-0.040	-0.182
-237.873	-64.670	-0.121	-0.049
-236.859	-200.000	-0.024	0.297
-235.844	71.200	0.071	0.073
-234.830	-52.090	-0.209	0.096
-233.815	20.583	0.058	-0.046
-232.800	724.460	0.092	0.242
-231.786	-32.960	-0.247	0.135
-230.771	234.414	-0.072	0.118
-229.757	-141.956	0.166	-0.016
-228.742	-125.257	-0.199	0.030
-227.727	800.000	0.029	-0.107
-226.713	-200.000	0.006	-0.259
-225.698	46.230	0.188	0.172
-224.684	-61.213	0.132	-0.055
-223.669	32.456	0.400	-0.342
-222.655	-56.441	-0.232	-0.102
-221.640	-200.000	-0.015	0.076
-220.625	25.002	0.180	-0.148
-219.611	146.702	0.079	0.105
-218.596	-9.110	-0.140	0.093
-217.582	200.591	0.083	-0.127
-216.567	-200.000	-0.013	-0.208
-215.552	80.801	0.149	0.159
-214.538	-200.000	-0.002	-0.035
-213.523	-8.485	0.306	-0.203
-212.509	-71.813	-0.039	0.014
-211.494	54.720	0.062	-0.060
-210.479	-122.410	0.204	0.033
-209.465	-81.034	-0.207	-0.068
-208.450	38.051	0.102	0.089
-207.436	1.116	0.215	-0.152
-206.421	800.000	0.098	-0.304
-205.406	-140.160	0.451	0.047
-204.392	528.598	-0.180	0.421
-203.377	8.859	0.107	-0.080
-202.363	-188.659	0.504	-0.006
-201.348	-90.851	0.021	-0.006
-200.333	220.210	-0.089	0.141
-199.319	-15.865	-0.090	-0.057
-198.304	-24.578	-0.162	0.095
-197.290	800.000	-0.075	0.273
-196.275	250.964	-0.094	0.158
-195.260	50.849	0.149	-0.140
-194.246	47.431	-0.142	0.131
-193.231	31.034	0.102	-0.087
-192.217	276.529	0.154	0.270
-191.202	-86.752	0.223	-0.067
-190.187	188.363	0.047	0.069
-189.173	-40.483	0.354	-0.182
-188.158	-36.051	-0.238	-0.127
-187.144	213.544	-0.202	-0.316
-186.129	800.000	0.040	-0.110
-185.114	-78.069	0.026	0.009
-184.100	-139.560	0.303	-0.032
-183.085	-49.913	0.171	0.080
-182.071	-200.000	0.018	-0.146
-181.056	-182.835	-0.192	-0.003
-180.042	800.000	-0.015	-0.052
-179.027	-53.746	0.257	0.116
-178.012	-34.393	0.022	0.012
-176.998	191.363	0.193	0.288
-175.983	-130.340	-0.182	-0.024
-174.969	-200.000	0.008	0.036
-173.954	-200.000	-0.031	-0.274
-172.939	187.296	0.167	0.246
-171.925	-71.213	-0.176	0.065
-170.910	-154.002	-0.338	0.023
-169.896	-200.000	0.007	-0.283
-168.881	-200.000	0.038	0.183
-167.866	-200.000	-0.057	0.380
-166.852	105.791	0.092	-0.107
-165.837	202.745	0.081	0.124
-164.823	378.463	-0.055	0.111
-163.808	-200.000	0.002	-0.390
-162.793	-88.201	-0.214	-0.063
-161.779	800.000	-0.044	-0.162
-160.764	-200.000	-0.085	0.416
-159.750	-73.020	-0.150	-0.054
-158.735	-156.955	0.334	-0.020
-157.720	-200.000	0.009	-0.553
-156.706	-52.361	-0.116	0.053
-155.691	-200.000	0.044	0.297
-154.677	800.000	0.068	-0.217
-153.662	669.026	-0.044	-0.113
-152.647	-11.884	-0.167	-0.108
-151.633	-6.161	-0.026	-0.017
-150.618	118.242	0.163	-0.198
-149.604	-81.426	-0.321	-0.104
-148.589	57.046	0.156	0.150
-147.574	-200.000	-0.015	-0.071
-146.560	-117.397	-0.345	-0.062
-145.545	800.000	0.094	-0.311
-144.531	40.393	0.123	-0.110
-143.516	-120.925	0.166	-0.028
-142.502	-77.562	-0.222	0.076
-141.487	-67.204	0.224	-0.087
-140.472	249.564	0.162	-0.270
-139.458	68.709	-0.127	0.129
-138.443	252.996	0.040	0.068
-137.429	-198.849	-0.173	-0.001
-136.414	530.866	0.210	-0.489
-135.399	220.854	0.044	0.070
-134.385	493.063	0.081	0.182
-133.370	800.000	0.048	-0.188
-132.356	14.154	-0.173	0.133
-131.341	-55.782	-0.044	0.019
-130.326	-172.760	0.337	-0.010
-129.312	-200.000	0.053	-0.488
-128.297	-155.066	-0.241	0.016
-127.283	-161.973	-0.133	0.007
-126.268	-200.000	-0.009	0.051
-125.253	-97.975	-0.419	0.107
-124.239	-150.622	-0.111	0.008
-123.224	-115.264	0.305	-0.057
-122.210	-200.000	0.028	-0.151
-121.195	-196.889	0.284	-0.002
-120.180	-126.278	-0.535	-0.079
-119.166	-82.316	-0.238	0.076
-118.151	133.067	0.054	-0.069
-117.137	393.976	0.134	0.274
-116.122	-116.562	-0.146	0.027
-115.107	-200.000	0.016	-0.426
-114.093	467.009	-0.028	-0.062
-113.078	-200.000	-0.004	0.330
-112.064	-200.000	-0.011	0.080
-111.049	89.769	-0.115	-0.126
-110.034	652.581	-0.115	-0.291
-109.020	-123.679	0.254	-0.040
-108.005	-187.190	0.188	-0.003
-106.991	305.276	0.059	-0.107
-105.976	-200.000	0.266	0.000
-104.962	410.820	0.138	-0.288
-103.947	263.897	0.141	-0.241
-102.932	-200.000	-0.016	-0.199
-101.918	5.101	-0.079	0.057
-100.903	123.132	0.399	-0.492
-99.889	40.741	-0.047	-0.042
-98.874	376.535	-0.161	-0.323
-97.859	-178.446	-0.286	0.007
-96.845	-37.487	-0.411	-0.216
-95.830	-200.000	-0.016	0.208
-94.816	-200.000	0.063	0.284
-93.801	800.000	-0.130	-0.470
-92.786	800.000	-0.048	0.137
-91.772	-87.157	0.209	0.063
-90.757	-65.979	0.276	0.109
-89.743	101.475	0.132	-0.152
-88.728	434.718	0.084	0.179
-87.713	-5.710	-0.113	0.076
-86.699	-156.419	-0.156	0.010
-85.684	800.000	-0.080	0.268
-84.670	-66.838	-0.199	-0.077
-83.655	-200.000	-0.045	-0.215
-82.640	-200.000	-0.035	0.348
-81.626	10.872	-0.055	-0.041
-80.611	40.696	-0.100	-0.089
-79.597	800.000	0.090	-0.299
-78.582	-155.582	0.048	-0.003
-77.567	-46.065	-0.094	0.045
-76.553	352.762	0.157	0.307
-75.538	504.773	0.064	0.147
-74.524	800.000	0.058	-0.168
-73.509	37.850	-0.062	-0.054
-72.494	387.115	-0.067	0.135
-71.480	97.036	0.047	-0.053
-70.465	189.344	-0.073	-0.108
-69.451	22.928	-0.084	0.068
-68.436	-148.389	-0.111	-0.009
-67.422	-72.792	0.141	-0.051
-66.407	800.000	0.054	0.185
-65.392	-58.265	0.246	0.105
-64.378	183.026	-0.261	0.379
-63.363	-102.879	0.361	0.084
-62.349	40.661	-0.194	-0.172
-61.334	64.863	-0.830	-0.823
-60.319	134.188	0.505	0.643
-59.305	317.901	-0.403	-0.750
-58.290	800.000	0.342	1.096
-57.276	576.348	0.665	1.597
-56.261	-200.000	96.580	595.340
-55.246	547.607	1372.370	3227.688
-54.232	161.862	2550.673	3509.342
-53.217	112.912	2132.913	2539.298
-52.203	43.529	1593.402	1431.353
-51.188	35.162	1331.018	1145.827
-50.173	32.036	1288.920	1091.401
-49.159	54.483	1337.578	1266.019
-48.144	56.740	1354.022	1294.880
-47.130	35.311	1312.222	1130.348
-46.115	31.784	1294.831	1094.763
-45.100	31.697	1289.365	1089.590
-44.086	31.522	1287.419	1086.885
-43.071	31.414	1285.107	1084.267
-42.057	31.503	1283.069	1083.018
-41.042	31.473	1281.372	1081.369
-40.027	31.571	1280.054	1080.780
-39.013	31.547	1277.795	1078.691
-37.998	31.610	1276.188	1077.656
-36.984	31.500	1275.013	1075.985
-35.969	31.538	1272.953	1074.423
-34.954	31.591	1271.046	1073.078
-33.940	31.793	1269.523	1072.907
-32.925	31.631	1268.681	1071.222
-31.911	31.667	1267.163	1070.107
-30.896	31.710	1265.537	1068.936
-29.881	31.727	1264.138	1067.807
-28.867	31.727	1263.157	1066.935
-27.852	31.690	1261.571	1065.343
-26.838	31.748	1260.178	1064.455
-25.823	31.803	1258.196	1063.053
-24.809	31.690	1257.375	1061.674
-23.794	31.621	1256.430	1060.442
-22.779	31.617	1255.035	1059.204
-21.765	31.819	1253.306	1058.843
-20.750	31.643	1252.494	1057.117
-19.736	31.608	1251.135	1055.733
-18.721	31.537	1249.842	1054.199
-17.706	31.648	1248.562	1053.706
-16.692	31.588	1247.368	1052.318
-15.677	31.534	1246.431	1051.179
-14.663	31.589	1244.723	1050.008
-13.648	31.571	1243.780	1049.067
-12.633	31.450	1243.414	1048.041
-11.619	31.548	1242.396	1047.692
-10.604	31.545	1241.512	1046.885
-9.590	31.608	1239.983	1045.909
-8.575	31.531	1239.720	1045.213
-7.560	31.551	1238.644	1044.377
-6.546	31.452	1237.909	1043.163
-5.531	31.519	1237.136	1042.842
-4.517	31.576	1236.016	1042.175
-3.502	31.612	1234.935	1041.426
-2.487	31.576	1234.269	1040.623
-1.473	31.505	1230.019	1036.604
-0.458	30.267	1215.795	1017.791
0.556	28.553	1198.743	983.470
1.571	25.185	1205.021	970.349
2.586	24.610	1220.047	979.212
3.600	23.923	1209.492	966.923
4.615	17.404	1136.113	874.774
5.629	7.300	1060.067	767.441
6.644	3.220	1039.943	733.397
7.659	2.886	1037.630	730.114
8.673	2.707	1036.421	728.348
9.688	2.659	1035.310	727.276
10.702	2.930	1033.789	727.426
11.717	9.048	1042.260	762.463
12.731	19.460	1056.359	822.602
13.746	24.936	1063.527	854.314
14.761	26.207	1064.630	861.188
15.775	26.278	1063.974	860.922
16.790	26.077	1063.278	859.326
17.804	25.980	1062.965	858.532
18.819	26.131	1062.481	858.783
19.834	26.203	1062.285	858.891
20.848	26.278	1061.726	858.721
21.863	26.206	1061.307	857.962
22.877	26.101	1060.680	856.884
23.892	26.046	1060.046	856.033
24.907	26.263	1059.317	856.399
25.921	26.265	1058.004	855.270
26.936	26.207	1056.621	853.801
27.950	26.114	1055.198	852.137
28.965	25.782	1053.755	849.330
29.980	26.076	1051.649	848.944
30.994	26.269	1051.427	849.597
32.009	26.157	1050.321	848.102
33.023	25.956	1049.077	846.080
34.038	26.134	1048.167	846.103
35.053	26.095	1047.946	845.669
36.067	26.246	1046.812	845.387
37.082	26.318	1045.991	844.982
38.096	26.442	1045.490	845.085
39.111	26.612	1044.167	844.732
40.126	26.293	1043.212	842.399
41.140	25.997	1041.439	839.513
42.155	25.897	1040.054	837.859
43.169	25.897	1039.372	837.234
44.184	25.909	1038.639	836.627
45.199	25.641	1037.559	834.439
46.213	25.822	1036.747	834.552
47.228	25.958	1036.268	834.723
48.242	26.115	1035.256	834.557
49.257	26.190	1034.494	834.217
50.271	26.266	1033.735	833.881
51.286	26.405	1032.490	833.444
52.301	26.323	1031.768	832.411
53.315	26.118	1031.186	830.925
54.330	26.136	1030.389	830.291
55.344	26.315	1029.140	830.034
56.359	26.053	1028.701	828.401
57.374	25.970	1027.282	826.806
58.388	25.946	1027.002	826.396
59.403	25.883	1025.613	824.919
60.417	25.798	1024.867	823.858
61.432	25.785	1024.700	823.592
62.447	25.944	1024.055	823.725
63.461	26.032	1023.140	823.318
64.476	25.931	1022.148	821.988
65.490	25.863	1021.162	820.811
66.505	25.980	1020.608	820.827
67.520	25.936	1019.773	819.880
68.534	25.778	1018.367	817.961
69.549	25.356	1017.960	815.644
70.563	25.393	1016.934	814.919
71.578	25.450	1015.958	814.323
72.593	25.390	1014.920	813.150
73.607	25.365	1014.796	812.864
74.622	25.843	1014.143	814.432
75.636	25.781	1013.388	813.472
76.651	25.554	1012.496	811.661
77.666	25.586	1011.966	811.307
78.680	25.622	1011.520	811.037
79.695	25.743	1010.826	810.957
80.709	25.801	1010.159	810.611
81.724	25.653	1009.487	809.332
82.739	25.882	1008.394	809.414
83.753	26.303	1008.065	810.968
84.768	26.561	1007.182	811.345
85.782	26.661	1006.363	811.059
86.797	26.476	1005.602	809.544
87.812	26.382	1004.639	808.279
88.826	26.354	1003.836	807.438
89.841	26.463	1002.866	807.072
90.855	26.455	1002.343	806.543
91.870	26.442	1000.955	805.300
92.884	26.318	999.916	803.838
93.899	26.366	998.815	803.094
94.914	26.424	998.651	803.151
95.928	26.242	997.328	801.210
96.943	26.041	996.480	799.567
97.957	25.744	995.210	797.160
98.972	25.772	993.693	795.999
99.987	26.040	993.329	796.821
101.001	26.236	992.356	796.833
102.016	26.125	991.894	795.902
103.030	26.168	990.644	795.022
104.045	25.990	989.671	793.386
105.060	25.856	988.846	792.064
106.074	26.003	988.452	792.327
107.089	26.303	987.633	792.916
108.103	26.239	986.396	791.573
109.118	25.891	985.599	789.338
110.133	26.031	984.603	789.082
111.147	25.711	983.611	786.821
112.162	25.582	982.850	785.577
113.176	25.759	982.511	786.009
114.191	25.810	981.313	785.203
115.206	25.388	980.119	782.344
116.220	25.441	979.378	781.910
117.235	25.670	978.487	782.129
118.249	25.588	977.689	781.065
119.264	25.601	976.850	780.379
120.279	25.537	976.351	779.633
121.293	25.613	975.650	779.337
122.308	25.569	974.730	778.341
123.322	25.589	973.285	777.204
124.337	25.397	972.191	775.434
125.352	24.849	970.601	771.737
126.366	24.966	969.679	771.439
127.381	25.666	969.747	774.439
128.395	26.107	969.325	775.927
129.410	26.249	968.485	775.797
130.424	26.011	967.852	774.202
131.439	26.100	966.613	773.523
132.454	26.287	964.977	772.945
133.468	26.016	964.823	771.592
134.483	26.233	964.013	771.807
135.497	26.217	963.478	771.239
136.512	26.382	962.411	771.022
137.527	26.291	961.448	769.793
138.541	26.236	960.811	768.981
139.556	26.362	960.216	768.975
140.570	26.468	959.677	768.925
141.585	26.576	958.603	768.453
142.600	26.301	957.677	766.476
143.614	26.518	956.935	766.734
144.629	26.682	956.157	766.738
145.643	26.500	954.703	764.733
146.658	26.411	953.361	763.215
147.673	26.288	952.350	761.823
148.687	26.206	951.846	761.006
149.702	26.137	950.795	759.806
150.716	26.180	949.958	759.254
151.731	26.306	949.038	758.979
152.746	26.455	948.875	759.406
153.760	26.490	948.416	759.118
154.775	26.634	947.680	759.066
155.789	26.667	946.641	758.305
156.804	26.567	945.351	756.788
157.819	26.697	944.474	756.563
158.833	26.634	944.330	756.114
159.848	26.652	943.341	755.332
160.862	26.646	941.862	754.058
161.877	26.527	941.299	753.046
162.892	26.558	939.960	752.035
163.906	26.460	938.932	750.738
164.921	26.505	938.240	750.306
165.935	26.550	937.381	749.739
166.950	26.561	936.773	749.232
167.964	26.563	935.613	748.245
168.979	26.477	934.472	746.911
169.994	26.430	933.563	745.925
171.008	26.673	933.174	746.549
172.023	26.679	932.310	745.819
173.037	26.397	931.430	743.889
174.052	26.326	930.461	742.757
175.067	26.300	930.425	742.557
176.081	26.448	929.717	742.532
177.096	26.209	929.090	740.984
178.110	26.041	927.660	739.092
179.125	25.857	927.211	737.913
180.140	25.949	926.628	737.761
181.154	26.167	926.965	738.857
182.169	26.412	926.805	739.665
183.183	26.571	925.966	739.580
184.198	26.500	925.389	738.766
185.213	26.393	924.715	737.723
186.227	26.614	923.789	737.821
187.242	26.626	922.819	737.031
188.256	26.695	922.211	736.760
189.271	26.650	921.731	736.129
190.286	26.317	920.592	733.803
191.300	25.637	918.681	729.457
192.315	24.759	917.841	725.166
193.329	24.932	917.220	725.315
194.344	25.882	917.938	729.667
195.359	26.325	917.661	731.175
196.373	26.653	916.795	731.746
197.388	26.476	916.202	730.491
198.402	26.300	916.248	729.755
199.417	26.525	915.226	729.781
200.432	26.252	914.373	727.937
201.446	25.899	913.770	725.972
202.461	26.240	912.830	726.532
203.475	25.284	911.059	721.218
204.490	24.406	909.885	716.699
205.504	25.329	910.316	720.683
206.519	26.096	910.171	723.583
207.534	26.180	909.855	723.605
208.548	26.474	909.756	724.640
209.563	26.262	908.428	722.667
210.577	26.239	908.262	722.382
211.592	26.703	907.826	723.822
212.607	26.682	906.918	722.953
213.621	26.536	906.570	722.028
214.636	26.666	905.510	721.637
215.650	26.513	905.214	720.730
216.665	26.788	904.337	721.060
217.680	26.679	903.157	719.623
218.694	26.300	902.090	717.207
219.709	26.143	901.641	716.165
220.723	26.378	901.257	716.725
221.738	26.566	900.684	716.952
222.753	26.326	900.092	715.465
223.767	26.553	899.882	716.137
224.782	26.747	899.498	716.532
225.796	26.812	898.747	716.127
226.811	26.049	897.093	711.736
227.826	25.503	895.928	708.598
228.840	25.738	895.355	709.007
229.855	25.803	894.815	708.774
230.869	25.393	893.623	706.156
231.884	25.776	894.248	708.094
232.899	26.594	894.039	711.079
233.913	26.337	893.530	709.602
234.928	26.413	892.709	709.185
235.942	26.361	892.048	708.394
236.957	25.979	891.025	706.024
237.972	26.099	890.643	706.129
238.986	26.099	890.335	705.823
240.001	26.079	889.864	705.308
241.015	26.289	889.248	705.575
242.030	26.444	888.683	705.671
243.045	26.572	888.154	705.688
244.059	26.412	888.244	705.075
245.074	26.410	886.759	703.822
246.088	26.019	886.018	701.655
247.103	26.406	885.500	702.684
248.117	27.008	885.379	704.864
249.132	27.363	885.098	705.957
250.147	27.283	884.591	705.180
251.161	27.487	884.097	705.512
252.176	27.232	883.987	704.374
253.190	27.361	883.220	704.198
254.205	27.517	882.882	704.471
255.220	27.514	881.809	703.543
256.234	27.356	881.401	702.545
257.249	27.257	881.015	701.794
258.263	27.267	880.014	700.971
259.278	27.377	879.339	700.797
260.293	27.499	878.282	700.361
261.307	27.304	878.056	699.370
262.322	27.227	877.058	698.215
263.336	26.421	875.039	693.458
264.351	25.352	873.487	688.072
265.366	25.410	873.291	688.078
266.380	26.554	873.768	692.774
267.395	26.950	873.788	694.244
268.409	26.830	873.066	693.151
269.424	27.118	872.844	694.016
270.439	27.252	871.610	693.485
271.453	27.298	871.032	693.137
272.468	27.391	871.073	693.463
273.482	27.370	871.080	693.325
274.497	27.080	869.433	690.852
275.512	26.778	867.627	688.209
276.526	27.040	868.482	689.820
277.541	27.201	868.223	690.165
278.555	27.032	866.851	688.376
279.570	26.917	866.227	687.382
280.585	27.082	865.849	687.648
281.599	26.947	864.813	686.254
282.614	26.388	863.421	682.975
283.628	26.323	863.317	682.587
284.643	26.757	863.164	684.046
285.657	26.248	862.327	681.403
286.672	26.062	861.228	679.774
287.687	26.738	861.371	682.371
288.701	26.635	860.839	681.502
289.716	26.376	859.943	679.758
290.730	26.390	859.294	679.236
291.745	26.107	858.297	677.326
292.760	26.473	858.103	678.488
293.774	27.427	858.888	682.625
294.789	27.701	858.363	683.177
295.803	27.638	857.892	682.503
296.818	27.738	857.258	682.314
297.833	27.397	855.947	679.937
298.847	27.344	855.065	678.976
299.862	27.507	855.118	679.567
300.876	27.822	854.892	680.501
301.891	27.608	854.290	679.167
302.906	27.502	852.485	677.276
303.920	27.376	853.094	677.234
304.935	27.676	852.865	678.105
305.949	27.587	852.333	677.292
306.964	27.221	851.287	675.044
307.979	27.596	850.905	676.073
308.993	27.778	850.522	676.381
310.008	27.845	850.465	676.525
311.022	27.543	849.501	674.581
312.037	27.344	849.017	673.399
313.052	27.179	847.873	671.824
314.066	26.220	846.067	666.796
315.081	25.890	845.497	665.070
316.095	26.922	845.713	668.987
317.110	27.382	845.286	670.283
318.125	26.422	844.254	665.874
319.139	25.457	842.702	661.044
320.154	25.462	842.350	660.727
321.168	26.418	842.875	664.593
322.183	26.912	843.340	666.719
323.197	27.127	842.895	667.098
324.212	27.293	842.731	667.517
325.227	27.520	841.479	667.298
326.241	27.409	840.622	666.153
327.256	27.221	840.373	665.209
328.270	27.371	839.556	665.053
329.285	27.003	838.557	662.858
330.300	26.766	838.039	661.525
331.314	27.101	837.844	662.536
332.329	27.404	838.231	663.887
333.343	27.537	837.492	663.727
334.358	27.388	837.215	662.906
335.373	27.510	836.874	663.022
336.387	27.881	836.776	664.235
337.402	27.930	836.579	664.199
338.416	27.905	836.270	663.803
339.431	28.046	835.454	663.608
340.446	28.269	835.166	664.130
341.460	28.021	835.056	663.084
342.475	27.941	834.138	662.008
343.489	28.035	834.000	662.179
344.504	28.274	833.731	662.772
345.519	28.469	833.401	663.159
346.533	28.421	833.204	662.769
347.548	28.428	832.092	661.851
348.562	28.268	831.484	660.732
349.577	28.257	830.912	660.179
350.592	28.155	830.989	659.815
351.606	28.263	829.738	659.152
352.621	28.151	828.927	658.046
353.635	28.124	827.956	657.120
354.650	27.419	826.600	653.457
355.665	26.531	825.187	649.098
356.679	27.026	824.752	650.473
357.694	27.203	824.499	650.847
358.708	27.226	824.017	650.494
359.723	27.820	823.712	652.318
360.738	28.079	823.216	652.792
361.752	28.167	822.915	652.810
362.767	28.461	822.921	653.807
363.781	28.647	822.449	654.034
364.796	28.814	821.756	654.022
365.810	28.804	821.659	653.849
366.825	28.730	821.333	653.271
367.840	28.424	820.849	651.739
368.854	27.935	819.739	649.062
369.869	27.998	819.201	648.804
370.883	28.080	818.855	648.762
371.898	28.009	818.230	647.959
372.913	28.204	817.804	648.253
373.927	28.168	817.723	648.004
374.942	28.437	817.321	648.580
375.956	28.474	817.402	648.719
376.971	28.535	816.852	648.441
377.986	28.617	816.623	648.493
379.000	28.741	815.498	647.979
380.015	28.372	815.066	646.276
381.029	28.492	814.309	646.042
382.044	28.580	814.311	646.296
383.059	28.763	813.317	646.095
384.073	28.655	812.892	645.319
385.088	28.554	812.339	644.467
386.102	28.456	811.580	643.465
387.117	28.413	810.870	642.695
388.132	28.086	809.727	640.587
389.146	27.480	809.158	637.960
390.161	27.876	809.223	639.340
391.175	28.415	808.942	640.946
392.190	28.099	807.853	638.924
393.205	26.734	805.438	632.199
394.219	25.258	803.551	625.521
395.234	25.083	803.706	624.976
396.248	26.727	805.047	631.701
397.263	28.316	805.626	637.637
398.278	28.190	805.522	637.058
399.292	27.874	804.900	635.411
400.307	27.823	804.422	634.801
401.321	28.096	804.196	635.513
402.336	28.486	803.896	636.576
403.350	28.849	804.009	637.868
404.365	29.233	803.668	638.872
405.380	29.413	803.567	639.361
406.394	29.587	802.778	639.278
407.409	29.351	802.515	638.195
408.423	29.231	802.130	637.419
409.438	29.416	801.421	637.438
410.453	29.403	801.259	637.205
411.467	29.241	800.625	636.088
412.482	29.423	800.382	636.465
413.496	29.359	800.027	635.907
414.511	29.361	799.509	635.444
415.526	29.305	799.236	634.980
416.540	29.258	798.562	634.227
417.555	28.942	797.589	632.311
418.569	28.983	797.309	632.173
419.584	29.111	796.845	632.190
420.599	28.849	796.278	630.784
421.613	113.555	1287.311	1461.408
422.628	97.965	1358.814	1461.497
