DTS Sentinel unit serial number:	SN413079Multiplexer serial number:	ORYXHardware model number:	OX4-SRSoftware version number:	ORYX F/W v4.00 Oryx Data Collector v3.7.2.0data status	okinstallation	princeton_trtdifferential loss correction	single-endedforward channel	channel 1reverse channel	N/Adate	2019/09/12time	01:08:11forward acquisition time	60.00reverse acquisition time	0.00gamma	496.2192k internal	0.2319k external	0.2319temperature offset calibration	1.0080default loss term (dB/km)	0.3790temperature slope calibration	1.0000multiplexer offset coefficient	1.0000multiplexer slope coefficient	1.0000fibre end	0.00T internal ref (°C)	33.06T ext. ref 1 (°C)	2.07T ext. ref 2 (°C)	27.51length (m)	temperature (°C)	Stokes	anti-Stokes-747.200	-127.035	-0.168	-0.025
-746.185	15.002	-0.149	0.118
-745.171	255.057	0.069	0.119
-744.156	88.632	-0.102	0.115
-743.142	-200.000	0.023	0.113
-742.127	-200.000	-0.032	-0.234
-741.112	-200.000	-0.008	-0.074
-740.098	298.350	0.255	0.475
-739.083	-122.911	-0.215	-0.035
-738.069	800.000	-0.095	0.319
-737.054	419.771	0.092	0.200
-736.039	108.776	-0.125	-0.151
-735.025	-105.541	0.060	0.014
-734.010	-103.572	-0.290	0.069
-732.996	-200.000	0.006	0.224
-731.981	191.999	-0.129	-0.196
-730.966	-100.898	0.270	-0.067
-729.952	381.744	-0.137	-0.284
-728.937	-200.000	-0.014	-0.250
-727.923	-71.240	0.088	-0.033
-726.908	-48.861	-0.462	-0.224
-725.894	-200.000	-0.012	-0.294
-724.879	-28.261	0.199	-0.116
-723.864	544.639	0.164	-0.395
-722.850	800.000	-0.040	0.145
-721.835	124.492	0.284	-0.361
-720.821	800.000	0.086	-0.301
-719.806	800.000	-0.065	-0.190
-718.791	231.289	0.170	-0.281
-717.777	800.000	0.069	-0.193
-716.762	800.000	0.069	-0.247
-715.748	-54.178	0.125	0.057
-714.733	-79.766	-0.336	-0.114
-713.718	325.629	0.094	-0.182
-712.704	285.295	0.172	-0.314
-711.689	681.373	-0.092	-0.242
-710.675	61.559	-0.059	-0.059
-709.660	-66.384	0.084	-0.034
-708.645	46.420	0.064	-0.060
-707.631	96.806	-0.156	-0.180
-706.616	46.631	0.226	0.212
-705.602	54.505	-0.125	0.122
-704.587	6.338	-0.056	0.042
-703.572	800.000	-0.066	-0.229
-702.558	5.126	-0.160	0.119
-701.543	8.893	-0.112	0.086
-700.529	-65.311	0.256	-0.104
-699.514	514.473	0.233	-0.548
-698.499	55.821	-0.166	0.162
-697.485	-83.693	0.274	-0.088
-696.470	36.148	-0.035	-0.031
-695.456	41.803	0.331	0.303
-694.441	597.268	-0.133	0.332
-693.426	-109.300	0.329	-0.070
-692.412	278.104	-0.091	0.163
-691.397	-44.448	0.131	0.066
-690.383	-38.020	0.104	-0.056
-689.368	-200.000	0.009	0.159
-688.354	-200.000	-0.018	-0.178
-687.339	74.395	0.103	0.109
-686.324	264.648	0.242	-0.426
-685.310	388.306	-0.122	0.255
-684.295	800.000	-0.078	0.265
-683.281	-60.015	-0.100	-0.043
-682.266	38.607	0.229	0.206
-681.251	-176.047	0.185	0.005
-680.237	800.000	-0.010	0.039
-679.222	-137.892	0.177	-0.020
-678.208	-143.360	0.194	0.019
-677.193	4.382	-0.284	-0.210
-676.178	-200.000	0.417	-0.001
-675.164	-117.613	-0.044	-0.008
-674.149	95.192	0.128	-0.147
-673.135	667.655	0.052	-0.136
-672.120	-49.811	0.056	-0.027
-671.105	-172.145	-0.357	0.012
-670.091	383.123	0.225	0.468
-669.076	-143.540	0.322	-0.031
-668.062	-29.481	-0.249	-0.144
-667.047	-121.324	-0.261	0.044
-666.032	-93.607	0.116	0.032
-665.018	248.015	-0.010	0.017
-664.003	-43.941	0.139	0.070
-662.989	116.541	0.169	-0.209
-661.974	113.196	-0.164	-0.201
-660.959	185.816	-0.040	0.060
-659.945	116.554	0.072	0.089
-658.930	-200.000	-0.051	0.448
-657.916	-158.280	-0.186	-0.011
-656.901	141.864	0.061	0.082
-655.886	-63.017	-0.019	0.008
-654.872	371.003	-0.078	-0.160
-653.857	-200.000	-0.003	-0.100
-652.843	-82.911	-0.338	0.110
-651.828	-113.487	0.116	-0.023
-650.814	78.410	-0.175	0.189
-649.799	106.195	-0.041	0.049
-648.784	-67.244	0.365	0.145
-647.770	28.540	-0.162	0.138
-646.755	-95.629	-0.233	0.063
-645.741	800.000	-0.012	-0.040
-644.726	-96.282	-0.129	0.034
-643.711	74.172	-0.142	0.150
-642.697	-45.838	0.141	-0.070
-641.682	281.398	0.080	0.144
-640.668	-9.837	0.330	-0.221
-639.653	-132.319	0.179	-0.023
-638.638	38.446	-0.163	0.147
-637.624	38.544	-0.052	-0.047
-636.609	308.140	0.128	0.242
-635.595	800.000	0.053	0.219
-634.580	-119.981	-0.123	-0.021
-633.565	-18.624	-0.062	-0.039
-632.551	463.296	0.178	-0.402
-631.536	387.924	-0.109	-0.228
-630.522	663.390	0.094	-0.245
-629.507	-181.135	-0.109	-0.002
-628.492	-55.256	-0.227	0.103
-627.478	-8.723	-0.073	0.049
-626.463	23.375	0.207	-0.171
-625.449	458.176	0.031	-0.070
-624.434	107.953	-0.199	-0.239
-623.419	-102.660	0.032	0.008
-622.405	-14.072	-0.097	-0.063
-621.390	58.033	0.162	-0.160
-620.376	23.174	0.157	0.129
-619.361	125.614	-0.070	-0.089
-618.346	-113.038	-0.301	-0.060
-617.332	76.824	-0.198	-0.211
-616.317	112.216	0.156	0.190
-615.303	-59.764	-0.183	0.079
-614.288	31.363	-0.232	-0.200
-613.273	190.479	0.035	0.053
-612.259	317.735	0.134	-0.255
-611.244	-107.170	0.102	0.023
-610.230	395.562	0.119	0.250
-609.215	36.112	0.302	0.268
-608.201	800.000	-0.107	0.406
-607.186	227.485	-0.225	-0.367
-606.171	373.825	-0.076	-0.156
-605.157	1.450	0.056	0.040
-604.142	800.000	-0.033	0.102
-603.128	256.474	-0.200	0.346
-602.113	-170.125	0.282	-0.010
-601.098	583.433	-0.032	-0.080
-600.084	-200.000	-0.028	-0.348
-599.069	-200.000	-0.019	-0.155
-598.055	-200.000	0.000	-0.206
-597.040	-4.798	0.040	-0.028
-596.025	252.735	0.130	-0.222
-595.011	288.401	-0.205	-0.372
-593.996	-52.462	-0.343	0.159
-592.982	-76.165	0.203	0.072
-591.967	8.127	-0.122	-0.092
-590.952	133.030	-0.042	-0.055
-589.938	-200.000	0.015	-0.320
-588.923	404.000	0.094	-0.199
-587.909	-130.347	-0.329	-0.045
-586.894	343.869	-0.208	-0.410
-585.879	800.000	-0.162	0.500
-584.865	-75.451	0.281	-0.101
-583.850	103.113	0.059	-0.069
-582.836	750.801	-0.045	-0.123
-581.821	-130.628	-0.404	0.055
-580.806	23.026	0.115	0.095
-579.792	107.334	0.219	-0.261
-578.777	40.278	-0.015	0.013
-577.763	800.000	-0.058	0.175
-576.748	-142.320	-0.036	-0.004
-575.733	-59.819	0.175	0.075
-574.719	-35.025	-0.145	0.079
-573.704	74.611	-0.233	0.247
-572.690	207.817	-0.170	-0.267
-571.675	163.138	-0.223	0.315
-570.661	-58.822	0.076	-0.033
-569.646	-151.824	-0.230	0.017
-568.631	133.965	0.132	0.172
-567.617	-77.713	-0.118	0.041
-566.602	-66.586	-0.268	0.107
-565.588	-93.695	0.141	-0.039
-564.573	76.466	0.227	-0.241
-563.558	-176.507	-0.171	-0.004
-562.544	-200.000	0.017	0.118
-561.529	80.596	0.129	-0.140
-560.515	-144.173	-0.063	-0.006
-559.500	-200.000	0.042	-0.192
-558.485	-69.756	0.336	-0.129
-557.471	-200.000	0.021	-0.188
-556.456	-45.550	-0.221	-0.110
-555.442	-200.000	0.124	-0.549
-554.427	-59.748	-0.229	-0.099
-553.412	86.420	-0.287	0.318
-552.398	270.429	0.027	0.047
-551.383	-90.554	-0.161	-0.047
-550.369	336.657	-0.237	-0.463
-549.354	103.566	-0.081	0.096
-548.339	-200.000	0.040	-0.320
-547.325	-200.000	0.017	0.164
-546.310	-90.129	-0.090	0.026
-545.296	605.151	-0.050	0.125
-544.281	-43.379	0.094	-0.048
-543.266	55.768	-0.092	-0.090
-542.252	43.003	0.243	0.223
-541.237	-104.762	0.096	0.022
-540.223	334.720	0.073	-0.142
-539.208	10.416	0.056	-0.043
-538.193	-87.405	0.300	-0.091
-537.179	123.433	0.151	-0.191
-536.164	-23.505	0.132	0.080
-535.150	-200.000	0.049	0.334
-534.135	-1.413	0.205	0.145
-533.121	-125.360	-0.102	-0.016
-532.106	-83.915	0.249	0.079
-531.091	63.981	-0.155	-0.156
-530.077	800.000	0.116	-0.376
-529.062	787.703	0.087	-0.240
-528.048	288.814	0.148	0.269
-527.033	19.681	0.238	-0.192
-526.018	45.862	-0.090	-0.084
-525.004	361.638	-0.099	-0.200
-523.989	-110.459	0.457	-0.095
-522.975	132.002	-0.122	0.158
-521.960	219.203	-0.029	-0.047
-520.945	207.573	-0.072	0.113
-519.931	127.442	0.270	0.344
-518.916	81.574	0.210	-0.227
-517.902	29.344	0.067	0.057
-516.887	800.000	0.092	0.260
-515.872	-43.259	-0.309	0.157
-514.858	800.000	-0.104	0.341
-513.843	165.354	0.054	0.077
-512.829	522.907	0.107	-0.251
-511.814	-72.320	-0.174	0.064
-510.799	624.617	0.105	-0.265
-509.785	30.514	-0.125	0.107
-508.770	47.148	-0.061	0.057
-507.756	34.677	-0.106	-0.093
-506.741	-59.845	-0.280	0.120
-505.726	-200.000	0.005	0.208
-504.712	400.120	0.106	-0.223
-503.697	-130.656	-0.118	-0.016
-502.683	406.640	-0.075	0.159
-501.668	131.949	-0.128	0.165
-500.653	-41.792	-0.179	-0.092
-499.639	-53.191	-0.201	0.092
-498.624	-200.000	0.008	0.224
-497.610	367.762	-0.060	0.122
-496.595	-160.086	0.310	-0.017
-495.581	-200.000	-0.009	0.048
-494.566	800.000	0.137	0.408
-493.551	168.257	-0.078	0.111
-492.537	313.875	0.176	-0.331
-491.522	-179.214	-0.554	0.012
-490.508	102.101	0.112	-0.131
-489.493	-11.928	0.186	0.122
-488.478	-3.036	0.279	-0.195
-487.464	800.000	0.042	-0.145
-486.449	33.290	0.050	-0.044
-485.435	-15.797	-0.092	-0.059
-484.420	346.881	0.085	-0.167
-483.405	21.700	0.093	-0.076
-482.391	59.861	-0.260	-0.257
-481.376	-10.576	-0.235	-0.156
-480.362	-200.000	0.007	-0.149
-479.347	-200.000	0.057	-0.313
-478.332	-166.924	0.212	-0.009
-477.318	767.815	-0.079	-0.215
-476.303	17.687	-0.136	-0.108
-475.289	-60.887	0.050	0.021
-474.274	129.331	-0.099	0.126
-473.259	-200.000	0.039	0.213
-472.245	169.801	-0.059	-0.085
-471.230	800.000	-0.035	0.110
-470.216	-124.414	-0.172	0.027
-469.201	31.959	-0.399	-0.344
-468.186	-159.380	0.266	0.015
-467.172	21.353	0.206	-0.167
-466.157	207.024	-0.023	-0.036
-465.143	186.540	-0.163	0.243
-464.128	96.489	0.137	-0.156
-463.113	800.000	0.055	0.194
-462.099	-81.216	0.366	-0.121
-461.084	-125.511	-0.293	0.045
-460.070	-49.236	0.208	0.099
-459.055	800.000	-0.119	-0.374
-458.040	-68.760	0.148	-0.057
-457.026	-132.283	-0.180	-0.023
-456.011	338.285	0.110	-0.215
-454.997	-200.000	0.037	0.316
-453.982	53.229	0.078	0.075
-452.968	-57.859	0.157	0.069
-451.953	342.328	0.087	0.170
-450.938	-169.598	-0.376	0.014
-449.924	-27.618	-0.160	0.093
-448.909	-71.200	-0.354	0.133
-447.895	-52.751	0.133	-0.061
-446.880	205.543	-0.123	-0.191
-445.865	-200.000	-0.023	0.209
-444.851	169.270	0.146	0.208
-443.836	751.130	-0.085	-0.229
-442.822	-76.485	0.086	-0.030
-441.807	-85.431	-0.385	0.120
-440.792	81.990	0.270	0.292
-439.778	536.305	0.034	0.080
-438.763	231.136	0.041	0.067
-437.749	-31.450	-0.060	-0.033
-436.734	-90.630	0.291	0.084
-435.719	113.481	0.105	-0.128
-434.705	78.455	-0.115	0.123
-433.690	-99.242	-0.236	-0.059
-432.676	53.622	0.279	0.267
-431.661	800.000	0.027	-0.104
-430.646	-26.132	0.090	0.053
-429.632	-125.700	0.119	0.018
-428.617	91.174	0.214	0.240
-427.603	-146.925	-0.192	0.016
-426.588	-135.716	-0.212	0.025
-425.573	-135.727	0.210	0.025
-424.559	246.943	-0.141	0.238
-423.544	-200.000	0.011	0.362
-422.530	-78.476	0.268	0.092
-421.515	-100.457	-0.309	-0.077
-420.500	-200.000	-0.021	0.131
-419.486	569.532	-0.051	-0.124
-418.471	595.202	-0.058	0.143
-417.457	-49.504	0.140	-0.067
-416.442	132.574	0.188	0.242
-415.428	92.053	-0.367	-0.413
-414.413	-10.994	0.333	0.219
-413.398	739.652	-0.106	0.285
-412.384	322.280	-0.082	-0.156
-411.369	21.926	0.157	-0.128
-410.355	-153.827	-0.408	0.028
-409.340	-200.000	0.039	0.256
-408.325	-152.654	0.234	0.017
-407.311	-176.526	-0.439	0.011
-406.296	89.512	0.137	-0.152
-405.282	800.000	-0.055	0.202
-404.267	53.492	-0.044	0.042
-403.252	-33.619	-0.061	0.033
-402.238	-200.000	-0.033	-0.154
-401.223	43.314	0.045	0.041
-400.209	552.372	0.116	0.278
-399.194	800.000	0.066	-0.193
-398.179	-179.645	-0.231	-0.005
-397.165	-29.020	-0.043	-0.024
-396.150	231.056	0.119	0.195
-395.136	-77.183	-0.009	-0.003
-394.121	291.539	-0.256	-0.464
-393.106	131.443	0.069	0.089
-392.092	-144.738	-0.286	-0.026
-391.077	194.611	0.076	0.115
-390.063	182.272	0.143	0.210
-389.048	800.000	-0.037	-0.107
-388.033	800.000	0.111	-0.318
-387.019	-200.000	-0.105	-0.478
-386.004	800.000	-0.108	0.436
-384.990	800.000	0.090	-0.254
-383.975	-174.584	-0.463	-0.013
-382.960	-78.798	-0.349	0.119
-381.946	105.813	-0.207	0.245
-380.931	126.947	0.180	-0.228
-379.917	-125.884	0.114	-0.017
-378.902	-40.792	0.041	0.021
-377.888	189.135	0.118	0.176
-376.873	800.000	-0.045	-0.166
-375.858	204.505	0.221	0.341
-374.844	-200.000	-0.003	0.021
-373.829	800.000	-0.058	-0.175
-372.815	365.395	0.077	-0.154
-371.800	-81.415	-0.212	-0.070
-370.785	76.835	0.064	0.067
-369.771	31.464	-0.286	-0.245
-368.756	450.622	0.004	0.009
-367.742	97.594	-0.247	0.283
-366.727	301.363	0.155	0.286
-365.712	179.729	-0.088	-0.129
-364.698	-200.000	0.021	-0.109
-363.683	176.028	-0.101	0.147
-362.669	-3.903	-0.190	0.131
-361.654	-79.998	0.304	-0.102
-360.639	672.171	-0.085	-0.219
-359.625	-109.297	-0.093	-0.020
-358.610	-33.503	0.160	0.088
-357.596	-200.000	-0.013	-0.084
-356.581	-57.549	0.195	0.085
-355.566	-121.456	0.154	0.026
-354.552	-79.584	0.325	-0.109
-353.537	260.140	0.152	-0.262
-352.523	-25.378	0.272	-0.160
-351.508	-106.574	0.243	-0.054
-350.493	67.464	-0.190	0.193
-349.479	560.301	-0.089	0.214
-348.464	-139.459	-0.061	-0.006
-347.450	-71.163	0.277	0.104
-346.435	45.958	-0.264	0.243
-345.420	-200.000	0.004	-0.191
-344.406	30.951	-0.175	-0.149
-343.391	-103.524	0.089	-0.021
-342.377	800.000	-0.050	0.176
-341.362	-200.000	-0.077	-0.375
-340.348	-47.780	0.224	0.108
-339.333	-200.000	-0.045	0.226
-338.318	-183.850	0.513	0.009
-337.304	545.544	0.105	-0.250
-336.289	-160.769	-0.039	-0.002
-335.275	-200.000	0.019	-0.126
-334.260	-37.630	-0.262	0.139
-333.245	-79.636	0.132	0.044
-332.231	-19.386	-0.258	-0.159
-331.216	800.000	0.025	-0.095
-330.202	159.612	-0.158	-0.219
-329.187	-200.000	-0.030	-0.273
-328.172	-52.966	0.306	0.140
-327.158	-200.000	-0.039	-0.183
-326.143	-200.000	-0.008	-0.117
-325.129	-45.898	0.357	0.176
-324.114	800.000	0.093	0.302
-323.099	-133.977	-0.060	-0.007
-322.085	-200.000	0.011	0.377
-321.070	-126.531	-0.283	0.042
-320.056	-167.316	-0.249	0.010
-319.041	-67.087	0.473	0.185
-318.026	375.732	0.039	0.080
-317.012	-200.000	-0.006	0.166
-315.997	-61.739	-0.137	-0.057
-314.983	-98.918	-0.291	-0.073
-313.968	-129.926	-0.183	-0.025
-312.953	51.486	0.151	0.143
-311.939	800.000	0.033	0.127
-310.924	-24.358	-0.395	-0.234
-309.910	-9.023	-0.168	-0.112
-308.895	160.095	-0.150	0.208
-307.880	-200.000	0.045	0.422
-306.866	1.820	0.101	-0.073
-305.851	93.961	0.146	0.165
-304.837	243.608	-0.119	-0.198
-303.822	-195.734	-0.058	-0.000
-302.807	-44.711	0.096	0.048
-301.793	-139.261	-0.378	-0.040
-300.778	450.881	0.109	0.240
-299.764	60.339	0.204	-0.201
-298.749	-200.000	0.005	-0.072
-297.735	-34.714	-0.119	0.065
-296.720	-14.062	-0.210	0.135
-295.705	-4.447	0.320	-0.220
-294.691	-71.664	0.359	0.133
-293.676	146.362	0.168	-0.225
-292.662	37.532	0.158	-0.140
-291.647	800.000	0.086	-0.342
-290.632	800.000	-0.048	-0.136
-289.618	-200.000	0.001	0.501
-288.603	-75.862	0.081	0.028
-287.589	-200.000	0.044	-0.274
-286.574	-56.886	0.086	0.038
-285.559	-96.870	0.113	-0.029
-284.545	-200.000	-0.010	-0.399
-283.530	419.329	-0.088	0.187
-282.516	-167.877	0.166	-0.006
-281.501	800.000	-0.033	-0.102
-280.486	-163.867	-0.185	-0.009
-279.472	-200.000	-0.014	0.096
-278.457	318.505	0.022	0.041
-277.443	-109.590	-0.151	-0.032
-276.428	-101.674	-0.133	-0.032
-275.413	99.310	-0.143	0.164
-274.399	-140.752	0.033	-0.003
-273.384	46.514	0.293	0.270
-272.370	-10.723	0.159	0.104
-271.355	800.000	0.136	-0.467
-270.340	-76.812	-0.083	0.029
-269.326	800.000	-0.078	0.290
-268.311	-86.294	-0.194	-0.059
-267.297	-150.005	0.298	0.023
-266.282	-59.881	0.092	-0.039
-265.267	514.785	-0.048	-0.112
-264.253	-200.000	-0.023	0.132
-263.238	91.138	0.181	0.201
-262.224	-46.740	0.247	0.120
-261.209	83.658	0.120	0.130
-260.195	-100.520	-0.221	0.054
-259.180	202.827	-0.094	0.144
-258.165	628.790	0.047	-0.119
-257.151	-119.656	0.015	0.003
-256.136	373.711	-0.087	-0.176
-255.122	-156.415	0.131	-0.008
-254.107	-99.627	-0.187	-0.047
-253.092	-116.140	-0.144	-0.027
-252.078	84.456	0.159	-0.172
-251.063	-46.666	-0.315	-0.153
-250.049	493.770	-0.092	0.209
-249.034	800.000	-0.070	0.236
-248.019	97.128	-0.017	0.019
-247.005	-200.000	-0.013	0.469
-245.990	64.028	-0.167	0.166
-244.976	-200.000	0.012	-0.213
-243.961	373.401	-0.138	-0.279
-242.946	25.310	0.236	0.195
-241.932	13.382	-0.324	-0.249
-240.917	137.176	-0.163	0.211
-239.903	-79.389	0.074	0.025
-238.888	-164.053	-0.046	0.002
-237.873	800.000	0.089	-0.271
-236.859	228.276	0.200	-0.322
-235.844	-72.295	-0.151	0.056
-234.830	800.000	0.044	0.141
-233.815	-128.907	-0.079	-0.011
-232.800	-176.370	-0.059	0.002
-231.786	225.791	-0.021	0.034
-230.771	-99.589	0.115	-0.029
-229.757	92.664	0.172	0.193
-228.742	-65.074	-0.187	-0.075
-227.727	-200.000	-0.012	0.240
-226.713	80.320	-0.194	0.207
-225.698	-171.449	0.347	0.011
-224.684	-5.836	0.278	0.189
-223.669	-102.512	-0.097	0.023
-222.655	800.000	-0.064	0.194
-221.640	730.229	0.076	-0.202
-220.625	-74.238	0.163	0.058
-219.611	243.254	0.039	0.066
-218.596	31.355	0.227	-0.193
-217.582	109.106	0.113	-0.134
-216.567	-200.000	0.026	0.321
-215.552	497.946	-0.093	0.211
-214.538	419.309	-0.177	0.376
-213.523	-20.317	0.097	0.059
-212.509	177.584	0.118	0.170
-211.494	800.000	-0.062	-0.265
-210.479	744.465	-0.060	-0.159
-209.465	-14.197	-0.087	-0.056
-208.450	-200.000	0.056	0.293
-207.436	-200.000	-0.022	0.317
-206.421	221.346	0.089	-0.142
-205.406	576.952	-0.078	0.189
-204.392	28.711	0.132	0.111
-203.377	-200.000	-0.028	0.225
-202.363	105.206	0.177	-0.207
-201.348	-33.648	0.155	0.085
-200.333	534.424	0.122	0.286
-199.319	800.000	-0.078	-0.299
-198.304	-73.104	0.594	-0.216
-197.290	-200.000	-0.022	0.345
-196.275	-200.000	-0.036	0.378
-195.260	-133.251	-0.090	0.011
-194.246	-200.000	-0.020	-0.143
-193.231	-140.661	0.249	-0.025
-192.217	170.346	0.170	-0.240
-191.202	90.255	0.093	0.103
-190.187	-200.000	-0.009	-0.376
-189.173	480.915	0.071	-0.160
-188.158	-69.432	0.108	0.041
-187.144	186.455	-0.121	0.179
-186.129	-200.000	-0.030	0.430
-185.114	-200.000	-0.044	0.260
-184.100	800.000	-0.010	0.031
-183.085	800.000	0.106	0.317
-182.071	-200.000	0.040	-0.192
-181.056	38.917	-0.153	-0.136
-180.042	800.000	-0.050	0.136
-179.027	-200.000	0.059	0.297
-178.012	-49.330	-0.463	0.219
-176.998	9.944	0.145	-0.109
-175.983	176.761	0.138	-0.199
-174.969	73.605	-0.202	0.210
-173.954	-52.889	-0.317	-0.144
-172.939	180.298	0.325	-0.472
-171.925	-126.397	-0.122	-0.018
-170.910	-130.248	0.210	-0.028
-169.896	46.482	-0.089	0.082
-168.881	-148.237	0.393	0.032
-167.866	370.376	-0.118	-0.236
-166.852	31.166	0.298	-0.253
-165.837	-101.468	-0.298	-0.072
-164.823	-136.764	-0.117	0.013
-163.808	36.115	0.104	-0.090
-162.793	255.431	0.203	-0.344
-161.779	60.538	-0.042	-0.042
-160.764	-200.000	-0.026	-0.296
-159.750	239.238	-0.147	0.241
-158.735	-93.495	-0.294	0.080
-157.720	-200.000	0.008	-0.127
-156.706	-200.000	-0.049	-0.360
-155.691	800.000	0.047	-0.172
-154.677	-124.992	-0.188	-0.029
-153.662	800.000	0.103	0.363
-152.647	-122.449	0.482	-0.078
-151.633	800.000	-0.031	-0.123
-150.618	83.067	-0.023	0.024
-149.604	-31.866	-0.158	0.088
-148.589	800.000	0.036	-0.115
-147.574	-200.000	-0.045	-0.272
-146.560	-200.000	0.281	-0.000
-145.545	-200.000	0.002	-0.072
-144.531	-200.000	-0.023	0.174
-143.516	-139.731	0.385	-0.040
-142.502	-3.279	0.084	-0.058
-141.487	98.683	-0.125	0.142
-140.472	-200.000	-0.063	-0.335
-139.458	201.185	-0.084	-0.128
-138.443	299.161	-0.052	-0.095
-137.429	800.000	0.086	0.296
-136.414	-107.919	0.342	-0.074
-135.399	38.120	-0.117	0.103
-134.385	800.000	0.078	0.281
-133.370	-102.369	0.267	-0.063
-132.356	503.610	-0.031	-0.072
-131.341	-26.635	-0.371	-0.215
-130.326	93.853	-0.209	0.234
-129.312	-56.926	-0.169	-0.074
-128.297	75.311	-0.139	-0.145
-127.283	-200.000	0.003	0.278
-126.268	-46.501	0.280	-0.136
-125.253	-10.050	0.043	-0.028
-124.239	-42.486	0.141	0.071
-123.224	35.594	-0.133	-0.115
-122.210	225.513	-0.144	-0.230
-121.195	65.956	-0.133	-0.133
-120.180	-200.000	0.013	0.269
-119.166	216.011	-0.107	0.167
-118.151	-115.776	0.247	0.046
-117.137	-95.544	-0.143	0.038
-116.122	73.139	-0.284	-0.293
-115.107	800.000	0.092	0.307
-114.093	590.652	0.077	-0.186
-113.078	-200.000	-0.009	0.133
-112.064	19.976	-0.302	0.240
-111.049	-200.000	-0.066	-0.313
-110.034	-87.994	0.141	-0.042
-109.020	164.242	0.239	-0.332
-108.005	-141.579	0.456	0.045
-106.991	-18.054	0.076	0.047
-105.976	800.000	-0.057	0.155
-104.962	-66.580	0.373	0.146
-103.947	-200.000	0.021	0.092
-102.932	-145.533	-0.195	0.017
-101.918	-76.171	0.037	-0.013
-100.903	-76.067	0.099	0.034
-99.889	-154.903	-0.156	0.010
-98.874	800.000	0.078	-0.253
-97.859	529.616	-0.067	0.156
-96.845	16.961	-0.213	0.167
-95.830	0.741	-0.039	0.028
-94.816	254.900	-0.205	-0.345
-93.801	-117.012	0.167	0.030
-92.786	-200.000	-0.014	-0.223
-91.772	117.392	-0.177	-0.215
-90.757	50.299	-0.192	0.179
-89.743	-144.080	-0.176	-0.016
-88.728	-115.278	0.297	0.055
-87.713	-200.000	-0.012	-0.150
-86.699	486.464	0.075	0.168
-85.684	-200.000	-0.435	0.002
-84.670	63.638	0.238	-0.236
-83.655	287.532	0.134	0.239
-82.640	-144.903	0.287	0.026
-81.626	195.074	-0.084	0.126
-80.611	99.397	-0.104	0.119
-79.597	-82.780	0.241	0.077
-78.582	58.734	0.126	0.122
-77.567	800.000	-0.024	0.073
-76.553	42.676	-0.468	-0.420
-75.538	108.180	-0.221	-0.260
-74.524	324.385	0.086	0.161
-73.509	-20.150	0.480	0.291
-72.494	365.324	-0.103	-0.204
-71.480	-113.113	0.138	-0.027
-70.465	800.000	-0.030	0.102
-69.451	-143.194	-0.216	0.021
-68.436	-5.692	0.216	-0.146
-67.422	-17.835	-0.142	0.088
-66.407	800.000	-0.140	0.399
-65.392	-74.162	0.238	0.085
-64.378	-20.405	0.287	0.174
-63.363	-120.006	-0.144	0.024
-62.349	215.303	-0.144	-0.225
-61.334	76.142	-0.882	-0.919
-60.319	-43.028	0.543	0.271
-59.305	762.611	-0.342	-0.914
-58.290	317.671	0.568	1.057
-57.276	738.747	0.636	1.680
-56.261	-200.000	95.828	569.481
-55.246	545.348	1379.127	3245.034
-54.232	159.532	2556.255	3502.893
-53.217	111.598	2142.831	2545.317
-52.203	44.474	1606.113	1452.584
-51.188	36.518	1344.123	1167.761
-50.173	33.275	1302.037	1112.135
-49.159	54.854	1348.771	1281.513
-48.144	57.153	1366.034	1311.601
-47.130	36.550	1324.748	1150.937
-46.115	33.194	1307.057	1115.768
-45.100	33.159	1301.758	1110.994
-44.086	33.019	1299.382	1108.098
-43.071	32.962	1297.313	1105.955
-42.057	32.940	1294.948	1103.771
-41.042	32.879	1293.681	1102.287
-40.027	32.962	1292.564	1101.779
-39.013	32.943	1290.405	1099.780
-37.998	32.949	1288.412	1098.076
-36.984	33.029	1286.769	1097.094
-35.969	33.054	1285.135	1095.803
-34.954	33.132	1283.035	1094.422
-33.940	33.145	1281.744	1093.350
-32.925	33.214	1280.168	1092.366
-31.911	33.105	1279.179	1090.847
-30.896	33.195	1277.857	1090.197
-29.881	33.189	1276.393	1088.870
-28.867	33.217	1274.894	1087.705
-27.852	33.201	1273.208	1086.135
-26.838	33.147	1272.265	1084.975
-25.823	33.234	1270.664	1084.068
-24.809	33.217	1269.491	1082.923
-23.794	33.077	1268.446	1081.189
-22.779	33.144	1266.698	1080.040
-21.765	33.142	1265.507	1078.973
-20.750	33.219	1264.146	1078.205
-19.736	33.065	1263.157	1076.444
-18.721	33.050	1262.097	1075.409
-17.706	33.033	1261.104	1074.427
-16.692	33.058	1259.695	1073.325
-15.677	32.917	1258.968	1071.862
-14.663	32.955	1257.653	1070.913
-13.648	32.918	1256.821	1069.957
-12.633	32.954	1256.043	1069.451
-11.619	32.962	1254.793	1068.392
-10.604	32.952	1253.696	1067.358
-9.590	32.982	1252.998	1066.892
-8.575	33.040	1252.007	1066.335
-7.560	32.948	1251.176	1065.063
-6.546	32.974	1250.575	1064.655
-5.531	32.989	1249.217	1063.541
-4.517	32.905	1248.470	1062.391
-3.502	32.964	1247.914	1062.209
-2.487	33.093	1246.763	1061.912
-1.473	32.896	1242.796	1057.390
-0.458	31.601	1228.069	1037.643
0.556	28.722	1210.900	1000.829
1.571	25.193	1217.483	986.804
2.586	24.589	1232.777	995.750
3.600	24.093	1222.196	984.373
4.615	17.819	1149.424	892.951
5.629	7.183	1072.138	780.653
6.644	2.369	1050.762	741.723
7.659	2.033	1048.561	738.480
8.673	2.000	1046.733	736.967
9.688	1.859	1045.349	735.245
10.702	2.507	1044.496	737.706
11.717	9.246	1054.224	777.187
12.731	19.429	1068.803	837.555
13.746	24.232	1074.594	865.401
14.761	25.320	1075.041	870.968
15.775	25.257	1075.283	870.777
16.790	25.059	1074.175	868.847
17.804	25.053	1073.129	867.894
18.819	25.064	1073.206	867.932
19.834	25.250	1072.544	868.221
20.848	25.379	1072.002	868.326
21.863	25.254	1071.624	867.340
22.877	25.134	1070.906	866.104
23.892	25.157	1070.305	865.652
24.907	25.027	1069.994	864.695
25.921	25.117	1068.754	864.053
26.936	25.145	1067.713	863.270
27.950	25.126	1065.526	861.332
28.965	25.028	1063.905	859.476
29.980	25.102	1062.752	858.821
30.994	25.186	1061.954	858.505
32.009	25.183	1060.797	857.478
33.023	25.029	1059.493	855.614
34.038	25.240	1058.557	855.786
35.053	25.297	1057.949	855.493
36.067	25.251	1057.196	854.586
37.082	25.322	1056.475	854.267
38.096	25.476	1055.815	854.390
39.111	25.540	1054.983	853.944
40.126	25.308	1053.778	851.794
41.140	24.976	1052.128	848.814
42.155	24.790	1050.542	846.579
43.169	24.728	1049.858	845.659
44.184	24.827	1048.925	845.299
45.199	24.796	1048.018	844.349
46.213	24.870	1047.084	843.869
47.228	24.971	1046.579	843.864
48.242	25.097	1045.413	843.441
49.257	25.078	1045.215	843.116
50.271	25.268	1043.648	842.670
51.286	25.378	1043.098	842.670
52.301	25.301	1042.208	841.513
53.315	25.195	1041.160	840.098
54.330	25.151	1040.396	839.201
55.344	25.285	1039.563	839.083
56.359	25.207	1038.391	837.699
57.374	24.985	1037.684	836.017
58.388	24.894	1037.669	835.504
59.403	24.886	1036.245	834.246
60.417	24.673	1035.330	832.443
61.432	24.810	1034.617	832.434
62.447	24.977	1033.987	832.633
63.461	25.027	1033.363	832.289
64.476	24.894	1032.395	830.819
65.490	24.903	1031.776	830.286
66.505	24.880	1030.357	828.965
67.520	24.931	1029.892	828.753
68.534	24.748	1029.068	827.170
69.549	24.552	1027.961	825.302
70.563	24.447	1027.024	823.991
71.578	24.569	1026.176	823.802
72.593	24.213	1025.206	821.311
73.607	24.360	1024.717	821.522
74.622	24.724	1024.375	822.853
75.636	24.696	1024.077	822.409
76.651	24.658	1022.711	821.066
77.666	24.579	1021.891	819.975
78.680	24.627	1021.365	819.699
79.695	24.733	1020.729	819.600
80.709	24.675	1020.413	819.011
81.724	24.706	1019.658	818.473
82.739	24.798	1018.821	818.151
83.753	25.128	1018.200	819.088
84.768	25.426	1017.485	819.797
85.782	25.607	1016.101	819.434
86.797	25.580	1014.817	818.205
87.812	25.285	1014.602	816.616
88.826	25.441	1013.279	816.188
89.841	25.500	1012.498	815.753
90.855	25.472	1011.728	814.935
91.870	25.476	1010.623	813.992
92.884	25.270	1009.624	812.183
93.899	25.255	1008.995	811.539
94.914	25.447	1008.030	811.556
95.928	25.330	1006.677	809.866
96.943	25.047	1005.781	807.801
97.957	24.883	1004.553	806.002
98.972	24.707	1003.429	804.239
99.987	25.013	1002.827	805.059
101.001	25.298	1002.022	805.624
102.016	25.260	1001.152	804.682
103.030	25.008	1000.292	802.790
104.045	24.986	999.357	801.872
105.060	24.696	998.604	799.899
106.074	24.954	997.721	800.272
107.089	25.118	997.834	801.024
108.103	25.158	996.296	799.898
109.118	24.874	994.920	797.456
110.133	24.948	993.738	796.767
111.147	24.719	992.667	794.821
112.162	24.534	992.052	793.437
113.176	24.883	991.258	794.279
114.191	24.833	990.213	793.152
115.206	24.370	989.193	790.214
116.220	24.458	988.781	790.204
117.235	24.560	987.592	789.637
118.249	24.631	987.278	789.627
119.264	24.413	986.300	787.812
120.279	24.543	985.814	787.930
121.293	24.625	984.803	787.415
122.308	24.643	983.839	786.654
123.322	24.561	982.743	785.345
124.337	24.585	981.150	784.110
125.352	23.975	980.335	780.712
126.366	23.793	978.986	778.770
127.381	24.617	979.020	782.338
128.395	25.092	978.337	783.801
129.410	25.112	977.754	783.351
130.424	25.038	977.175	782.494
131.439	25.253	975.558	782.067
132.454	25.080	975.146	780.917
133.468	25.117	974.111	780.179
134.483	25.196	973.437	779.915
135.497	25.450	972.812	780.448
136.512	25.331	972.392	779.522
137.527	25.450	971.341	779.128
138.541	25.437	970.368	778.223
139.556	25.386	969.607	777.323
140.570	25.493	968.810	777.078
141.585	25.395	967.855	775.819
142.600	25.371	967.053	775.005
143.614	25.561	966.319	775.166
144.629	25.742	965.298	775.060
145.643	25.539	964.318	773.330
146.658	25.291	963.122	771.237
147.673	25.305	961.608	770.015
148.687	25.153	960.722	768.587
149.702	25.030	959.549	767.057
150.716	25.079	958.594	766.435
151.731	25.234	958.237	766.744
152.746	25.619	957.757	767.934
153.760	25.638	957.070	767.397
154.775	25.545	956.865	766.767
155.789	25.504	955.619	765.525
156.804	25.507	955.036	765.005
157.819	25.498	954.242	764.264
158.833	25.743	953.395	764.557
159.848	25.721	952.581	763.743
160.862	25.575	951.421	762.127
161.877	25.524	950.231	760.890
162.892	25.575	949.585	760.524
163.906	25.570	948.505	759.570
164.921	25.437	947.449	758.094
165.935	25.542	946.530	757.734
166.950	25.696	945.302	757.333
167.964	25.564	944.646	756.186
168.979	25.578	943.440	755.212
169.994	25.370	942.997	753.918
171.008	25.473	942.588	753.956
172.023	25.673	941.623	753.955
173.037	25.316	940.647	751.615
174.052	25.344	939.477	750.729
175.067	25.225	939.005	749.789
176.081	25.371	938.309	749.776
177.096	25.318	937.629	748.945
178.110	25.042	936.614	746.917
179.125	24.824	935.992	745.448
180.140	25.005	935.569	745.797
181.154	24.900	935.383	745.145
182.169	25.431	934.828	746.848
183.183	25.669	934.893	747.821
184.198	25.523	933.807	746.279
185.213	25.617	932.760	745.769
186.227	25.525	932.653	745.234
187.242	25.541	932.095	744.789
188.256	25.539	931.181	743.986
189.271	25.716	930.478	744.088
190.286	25.306	929.618	741.642
191.300	24.566	927.943	737.186
192.315	23.887	926.242	732.972
193.329	23.924	926.143	732.982
194.344	24.755	926.726	736.803
195.359	25.377	926.316	738.972
196.373	25.547	925.729	739.137
197.388	25.356	925.352	737.988
198.402	25.520	924.135	737.623
199.417	25.394	924.257	737.140
200.432	25.065	923.141	734.836
201.446	24.899	922.586	733.647
202.461	25.134	921.941	734.033
203.475	24.237	919.615	728.449
204.490	23.407	918.633	724.218
205.504	24.414	919.166	728.689
206.519	25.014	918.995	730.940
207.534	25.101	918.393	730.750
208.548	25.595	917.981	732.369
209.563	25.194	917.271	730.106
210.577	25.296	916.686	729.989
211.592	25.684	916.622	731.453
212.607	25.725	915.298	730.497
213.621	25.593	915.246	729.854
214.636	25.652	914.187	729.186
215.650	25.543	913.839	728.403
216.665	25.719	913.069	728.438
217.680	25.640	911.911	727.128
218.694	25.351	910.715	724.944
219.709	24.984	910.681	723.369
220.723	25.346	910.252	724.429
221.738	25.395	909.950	724.318
222.753	25.270	909.320	723.252
223.767	25.599	908.638	723.970
224.782	25.768	908.454	724.437
225.796	25.707	907.573	723.425
226.811	25.065	906.012	719.542
227.826	24.580	904.541	716.365
228.840	24.566	904.725	716.390
229.855	24.650	904.283	716.314
230.869	24.282	902.766	713.578
231.884	24.637	902.598	714.800
232.899	25.420	902.776	718.008
233.913	25.374	901.957	717.111
234.928	25.351	901.560	716.641
235.942	25.255	900.973	715.729
236.957	24.980	900.216	713.967
237.972	25.234	899.099	714.027
238.986	25.106	899.250	713.576
240.001	25.169	898.566	713.221
241.015	25.184	897.946	712.726
242.030	25.327	897.288	712.708
243.045	25.564	896.853	713.238
244.059	25.494	896.583	712.683
245.074	25.322	895.730	711.263
246.088	25.094	894.603	709.403
247.103	25.422	894.425	710.494
248.117	25.751	895.053	712.233
249.132	26.180	894.114	713.116
250.147	26.199	893.868	712.933
251.161	26.341	893.210	712.905
252.176	26.354	892.395	712.241
253.190	26.425	892.108	712.231
254.205	26.488	891.652	712.052
255.220	26.488	891.080	711.533
256.234	26.261	890.301	709.954
257.249	26.149	889.850	709.093
258.263	26.371	888.297	708.662
259.278	26.426	888.058	708.624
260.293	26.466	887.389	708.183
261.307	26.384	886.992	707.482
262.322	26.000	886.286	705.357
263.336	25.355	884.246	701.151
264.351	24.287	882.179	695.290
265.366	24.438	881.982	695.660
266.380	25.426	882.757	700.065
267.395	25.995	882.501	702.011
268.409	25.957	881.661	701.135
269.424	26.163	881.238	701.538
270.439	26.121	880.585	700.791
271.453	26.230	880.053	700.730
272.468	26.368	879.877	701.063
273.482	26.453	879.370	700.928
274.497	25.914	878.089	697.759
275.512	25.644	877.169	695.922
276.526	25.975	877.367	697.297
277.541	26.137	876.953	697.532
278.555	25.942	876.193	696.114
279.570	25.845	874.968	694.703
280.585	26.004	874.575	694.943
281.599	25.856	873.902	693.779
282.614	25.370	872.452	690.695
283.628	25.383	872.295	690.560
284.643	25.750	871.791	691.509
285.657	25.448	870.591	689.337
286.672	25.226	869.839	687.831
287.687	25.609	869.971	689.344
288.701	25.708	869.328	689.151
289.716	25.441	868.242	687.208
290.730	25.321	867.716	686.275
291.745	25.158	866.736	684.815
292.760	25.433	866.924	685.953
293.774	26.595	866.820	690.242
294.789	26.741	866.991	690.873
295.803	26.588	866.551	689.880
296.818	26.807	865.262	689.627
297.833	26.334	864.454	687.122
298.847	26.222	863.707	686.041
299.862	26.458	863.850	686.991
300.876	26.724	863.464	687.633
301.891	26.611	862.708	686.544
302.906	26.193	861.683	684.081
303.920	26.305	861.368	684.198
304.935	26.654	861.247	685.361
305.949	26.653	860.790	684.932
306.964	26.357	860.230	683.308
307.979	26.352	859.297	682.487
308.993	26.940	858.857	684.294
310.008	26.792	858.417	683.328
311.022	26.526	857.924	681.870
312.037	26.424	857.104	680.776
313.052	26.243	855.699	678.917
314.066	25.310	854.587	674.473
315.081	25.006	854.071	672.863
316.095	25.710	854.465	675.758
317.110	26.211	854.282	677.435
318.125	25.494	852.380	673.181
319.139	24.512	850.833	668.229
320.154	24.335	850.816	667.493
321.168	25.380	850.950	671.446
322.183	25.962	851.248	673.800
323.197	26.179	851.268	674.567
324.212	26.319	850.703	674.581
325.227	26.546	849.886	674.720
326.241	26.328	849.207	673.311
327.256	26.409	848.205	672.756
328.270	26.261	847.498	671.586
329.285	25.982	846.740	669.891
330.300	25.770	846.055	668.504
331.314	26.038	846.005	669.399
332.329	26.478	845.987	670.957
333.343	26.383	845.917	670.491
334.358	26.641	845.162	670.788
335.373	26.747	844.491	670.589
336.387	27.000	845.054	671.911
337.402	27.000	844.960	671.776
338.416	26.789	844.340	670.443
339.431	27.078	843.729	670.970
340.446	27.216	843.291	671.070
341.460	27.110	843.258	670.591
342.475	26.889	842.092	668.793
343.489	26.903	842.278	668.932
344.504	27.369	841.533	669.996
345.519	27.546	840.982	670.150
346.533	27.384	841.048	669.546
347.548	27.413	840.127	668.862
348.562	27.279	839.717	667.984
349.577	27.279	839.190	667.504
350.592	27.410	838.279	667.202
351.606	27.302	837.855	666.409
352.621	27.061	837.293	665.021
353.635	27.033	836.292	664.064
354.650	26.495	834.418	660.555
355.665	25.442	833.140	655.646
356.679	26.035	832.888	657.550
357.694	26.250	832.645	658.085
358.708	26.305	832.160	657.843
359.723	26.749	831.844	659.152
360.738	27.158	830.991	659.902
361.752	27.193	830.676	659.721
362.767	27.376	831.212	660.751
363.781	27.688	830.799	661.496
364.796	27.686	830.335	661.061
365.810	27.764	829.896	660.936
366.825	27.663	829.376	660.097
367.840	27.396	828.488	658.366
368.854	27.118	827.728	656.701
369.869	27.070	827.617	656.380
370.883	27.073	827.095	655.920
371.898	26.971	826.572	655.080
372.913	27.103	826.249	655.242
373.927	27.212	825.681	655.123
374.942	27.329	825.446	655.302
375.956	27.345	824.935	654.896
376.971	27.578	824.479	655.312
377.986	27.783	824.140	655.723
379.000	27.599	823.728	654.677
380.015	27.610	822.905	654.002
381.029	27.641	822.097	653.416
382.044	27.640	822.013	653.287
383.059	27.770	821.543	653.319
384.073	27.768	820.696	652.582
385.088	27.576	820.276	651.505
386.102	27.501	819.429	650.507
387.117	27.444	818.805	649.749
388.132	27.058	817.780	647.501
389.146	26.488	816.829	644.664
390.161	27.107	816.542	646.583
391.175	27.286	816.688	647.277
392.190	27.059	815.516	645.486
393.205	25.643	813.426	638.751
394.219	24.073	811.928	631.949
395.234	24.015	811.879	631.649
396.248	25.689	813.221	638.582
397.263	27.126	813.885	644.145
398.278	27.142	813.575	643.900
399.292	26.813	812.844	642.100
400.307	26.795	812.491	641.701
401.321	26.918	812.137	641.802
402.336	27.412	811.751	643.183
403.350	27.998	811.738	645.186
404.365	28.249	811.580	645.889
405.380	28.394	811.451	646.239
406.394	28.362	810.760	645.521
407.409	28.260	810.481	644.882
408.423	28.254	810.094	644.497
409.438	28.283	809.555	644.111
410.453	28.462	809.008	644.247
411.467	28.349	808.040	643.023
412.482	28.483	808.008	643.413
413.496	28.383	808.088	643.069
414.511	28.353	807.670	642.572
415.526	28.488	806.521	642.075
416.540	28.364	805.939	641.121
417.555	28.040	805.284	639.410
418.569	27.934	805.238	638.945
419.584	27.999	804.510	638.540
420.599	27.960	803.735	637.731
421.613	110.871	1284.836	1454.979
422.628	95.753	1354.935	1455.092
