DTS Sentinel unit serial number:	SN413079Multiplexer serial number:	ORYXHardware model number:	OX4-SRSoftware version number:	ORYX F/W v4.00 Oryx Data Collector v3.7.2.0data status	okinstallation	princeton_trtdifferential loss correction	single-endedforward channel	channel 1reverse channel	N/Adate	2019/09/15time	09:02:35forward acquisition time	60.00reverse acquisition time	0.00gamma	496.2192k internal	0.2314k external	0.2314temperature offset calibration	0.9986default loss term (dB/km)	0.3790temperature slope calibration	1.0000multiplexer offset coefficient	1.0000multiplexer slope coefficient	1.0000fibre end	0.00T internal ref (°C)	32.81T ext. ref 1 (°C)	4.98T ext. ref 2 (°C)	29.83length (m)	temperature (°C)	Stokes	anti-Stokes-747.200	-200.000	0.003	-0.234
-746.185	339.532	-0.209	0.413
-745.171	800.000	0.094	-0.273
-744.156	-199.775	-0.065	-0.000
-743.142	-139.051	-0.136	0.015
-742.127	-113.784	-0.332	-0.065
-741.112	459.955	-0.108	0.243
-740.098	158.908	-0.120	0.169
-739.083	244.698	0.128	0.218
-738.069	-200.000	0.022	0.105
-737.054	-52.543	0.234	-0.110
-736.039	-20.580	-0.265	0.165
-735.025	-142.618	-0.033	-0.003
-734.010	241.038	0.052	-0.088
-732.996	-200.000	-0.005	0.320
-731.981	234.548	-0.066	0.110
-730.966	662.749	-0.095	-0.249
-729.952	-156.989	0.137	-0.008
-728.937	241.386	-0.089	-0.150
-727.923	-36.480	-0.183	0.100
-726.908	-177.328	0.263	-0.007
-725.894	-110.130	-0.345	-0.073
-724.879	-108.411	-0.329	0.072
-723.864	-192.540	0.130	-0.001
-722.850	312.875	-0.155	-0.295
-721.835	-66.441	0.376	-0.151
-720.821	800.000	-0.063	-0.182
-719.806	33.571	-0.348	-0.307
-718.791	165.066	0.139	-0.199
-717.777	192.133	0.069	-0.105
-716.762	-171.101	-0.301	0.010
-715.748	-48.268	-0.134	-0.066
-714.733	-91.603	0.066	0.019
-713.718	60.267	-0.076	-0.076
-712.704	653.081	0.117	-0.304
-711.689	-9.965	-0.163	-0.110
-710.675	-110.870	-0.211	-0.044
-709.660	-200.000	-0.020	-0.365
-708.645	-102.605	-0.528	-0.128
-707.631	-120.859	-0.133	-0.023
-706.616	169.044	0.034	-0.049
-705.602	-200.000	0.086	-0.464
-704.587	-86.616	0.182	-0.057
-703.572	-200.000	0.025	-0.114
-702.558	227.221	-0.260	-0.428
-701.543	179.240	0.150	-0.222
-700.529	800.000	-0.108	-0.306
-699.514	-76.880	-0.535	-0.189
-698.499	-200.000	0.044	-0.238
-697.485	8.690	0.140	-0.107
-696.470	239.840	0.179	-0.301
-695.456	10.302	-0.152	-0.117
-694.441	-120.926	-0.115	-0.020
-693.426	158.403	-0.137	-0.192
-692.412	-13.373	-0.255	-0.168
-691.397	-200.000	0.007	0.117
-690.383	800.000	-0.061	0.208
-689.368	-200.000	-0.047	-0.340
-688.354	-200.000	-0.037	0.184
-687.339	-200.000	0.001	0.229
-686.324	-132.055	0.432	0.057
-685.310	-164.264	-0.154	-0.007
-684.295	14.612	0.141	0.111
-683.281	35.252	-0.199	-0.177
-682.266	-121.277	0.176	-0.030
-681.251	262.860	0.128	0.225
-680.237	77.276	-0.080	-0.086
-679.222	800.000	0.055	-0.202
-678.208	699.413	0.106	0.281
-677.193	-115.266	-0.034	-0.007
-676.178	-68.346	0.237	-0.093
-675.164	800.000	0.106	-0.310
-674.149	117.122	-0.084	-0.104
-673.135	-71.703	-0.114	-0.043
-672.120	-1.740	0.075	-0.053
-671.105	490.401	-0.075	0.173
-670.091	113.037	-0.145	-0.177
-669.076	489.450	0.126	0.291
-668.062	285.931	0.175	-0.319
-667.047	-86.620	-0.306	0.095
-666.032	-37.538	-0.152	-0.082
-665.018	-107.525	-0.301	-0.067
-664.003	-66.786	-0.081	-0.033
-662.989	-69.527	0.165	-0.064
-661.974	-53.143	-0.253	0.118
-660.959	112.131	0.195	0.238
-659.945	-200.000	-0.031	0.146
-658.930	-38.408	0.243	0.130
-657.916	-100.497	0.127	-0.032
-656.901	-200.000	0.031	-0.272
-655.886	-200.000	-0.011	0.133
-654.872	390.704	0.169	-0.355
-653.857	-200.000	-0.058	-0.304
-652.843	226.380	0.103	0.169
-651.828	-75.857	-0.285	0.102
-650.814	485.441	-0.023	0.053
-649.799	-178.619	-0.386	-0.009
-648.784	51.468	0.333	-0.320
-647.770	39.792	0.202	-0.183
-646.755	-79.655	0.109	-0.037
-645.741	62.367	0.034	-0.034
-644.726	5.709	0.233	0.174
-643.711	-75.226	-0.196	0.071
-642.697	671.605	0.076	0.198
-641.682	-200.000	0.027	0.128
-640.668	224.857	0.126	-0.207
-639.653	-41.012	-0.317	-0.166
-638.638	243.710	0.235	-0.398
-637.624	-200.000	-0.004	0.226
-636.609	15.494	-0.110	0.087
-635.595	-50.558	0.053	0.025
-634.580	275.316	0.162	-0.290
-633.565	-33.534	-0.138	-0.077
-632.551	90.098	-0.092	-0.104
-631.536	-94.000	-0.176	0.049
-630.522	-143.379	0.158	0.015
-629.507	800.000	-0.093	-0.354
-628.492	-200.000	0.020	0.171
-627.478	115.688	0.084	0.104
-626.463	-200.000	-0.024	-0.138
-625.449	-144.504	-0.373	0.035
-624.434	-200.000	0.057	-0.347
-623.419	-81.333	0.188	-0.063
-622.405	-200.000	0.013	-0.094
-621.390	191.804	-0.079	-0.120
-620.376	89.317	0.113	0.127
-619.361	126.147	-0.057	0.073
-618.346	128.518	-0.146	0.188
-617.332	31.235	0.161	0.140
-616.317	-48.160	-0.114	0.055
-615.303	-103.466	0.214	-0.051
-614.288	9.400	0.192	-0.147
-613.273	-159.279	-0.174	-0.010
-612.259	-200.000	-0.069	0.452
-611.244	-130.524	-0.268	0.036
-610.230	77.252	-0.337	0.362
-609.215	-83.685	-0.225	-0.072
-608.201	-200.000	0.238	-0.000
-607.186	800.000	0.065	0.230
-606.171	182.316	0.079	0.117
-605.157	-200.000	0.001	0.074
-604.142	-123.008	-0.071	-0.011
-603.128	490.167	0.130	-0.299
-602.113	300.627	0.077	-0.143
-601.098	-200.000	0.003	-0.196
-600.084	-200.000	-0.041	-0.259
-599.069	-176.312	-0.235	0.006
-598.055	-111.283	0.260	0.054
-597.040	15.695	-0.389	-0.308
-596.025	800.000	0.027	-0.102
-595.011	-81.982	-0.387	-0.128
-593.996	-32.882	-0.167	-0.094
-592.982	292.497	-0.143	-0.262
-591.967	468.787	-0.164	0.371
-590.952	-11.112	0.192	-0.128
-589.938	142.532	-0.122	-0.163
-588.923	148.803	0.191	-0.260
-587.909	-54.117	-0.076	0.035
-586.894	-52.548	-0.219	0.102
-585.879	308.090	-0.151	0.284
-584.865	-69.663	0.274	-0.105
-583.850	15.248	-0.224	-0.177
-582.836	65.499	-0.253	-0.258
-581.821	191.602	0.154	0.233
-580.806	-113.762	-0.177	0.035
-579.792	-111.653	0.126	-0.026
-578.777	22.789	-0.211	-0.174
-577.763	-39.769	0.084	0.044
-576.748	-166.520	0.139	-0.006
-575.733	153.110	0.249	0.343
-574.719	-47.622	-0.459	-0.224
-573.704	149.426	0.038	0.052
-572.690	-100.291	0.061	0.015
-571.675	800.000	-0.044	-0.145
-570.661	-56.213	-0.150	0.067
-569.646	276.946	-0.097	-0.173
-568.631	-93.905	0.134	0.037
-567.617	-155.373	-0.049	0.003
-566.602	326.348	0.090	-0.173
-565.588	-200.000	-0.001	0.210
-564.573	384.671	0.148	0.308
-563.558	-102.761	0.100	-0.024
-562.544	172.906	-0.204	0.297
-561.529	-127.066	0.139	0.021
-560.515	673.125	0.191	-0.498
-559.500	-2.343	0.155	0.110
-558.485	-200.000	0.018	-0.085
-557.471	133.134	-0.242	-0.314
-556.456	-18.809	0.235	0.147
-555.442	800.000	-0.088	-0.262
-554.427	416.038	0.100	0.215
-553.412	285.981	0.084	-0.152
-552.398	-134.060	-0.119	-0.015
-551.383	-139.219	0.553	0.060
-550.369	-200.000	0.062	-0.425
-549.354	56.856	0.111	0.109
-548.339	-149.747	-0.055	-0.004
-547.325	-71.925	0.153	-0.057
-546.310	44.044	-0.262	-0.242
-545.296	307.801	-0.103	0.193
-544.281	438.671	-0.143	0.313
-543.266	286.920	0.057	-0.103
-542.252	174.724	-0.208	-0.303
-541.237	800.000	0.047	-0.149
-540.223	-25.751	0.009	0.006
-539.208	800.000	0.055	-0.153
-538.193	7.990	0.358	0.270
-537.179	-145.682	0.265	-0.024
-536.164	79.827	0.240	-0.259
-535.150	519.572	-0.147	0.346
-534.135	3.984	-0.254	0.187
-533.121	-200.000	-0.014	0.075
-532.106	1.795	0.069	0.050
-531.091	589.043	0.116	-0.288
-530.077	213.966	-0.113	-0.180
-529.062	29.816	0.313	0.268
-528.048	232.579	-0.121	-0.200
-527.033	-200.000	-0.003	0.023
-526.018	-122.854	0.239	-0.039
-525.004	82.427	-0.174	0.189
-523.989	193.220	-0.023	-0.035
-522.975	-147.225	-0.048	0.004
-521.960	354.678	-0.129	-0.257
-520.945	169.330	0.136	-0.195
-519.931	800.000	-0.027	-0.086
-518.916	117.852	0.025	0.031
-517.902	800.000	0.047	0.130
-516.887	-46.497	-0.279	-0.137
-515.872	-58.474	-0.159	0.069
-514.858	105.249	0.143	-0.170
-513.843	250.922	-0.122	-0.209
-512.829	800.000	-0.085	0.369
-511.814	-154.595	-0.123	0.008
-510.799	742.395	0.012	-0.033
-509.785	301.944	0.132	-0.245
-508.770	92.065	0.083	-0.094
-507.756	83.623	0.261	-0.286
-506.741	507.758	0.088	0.204
-505.726	720.997	-0.159	0.425
-504.712	-70.262	0.288	0.110
-503.697	189.908	0.177	0.266
-502.683	-96.222	-0.160	-0.043
-501.668	-109.426	-0.106	-0.022
-500.653	20.549	0.174	0.141
-499.639	-34.071	-0.046	-0.025
-498.624	-200.000	-0.020	0.256
-497.610	-116.795	0.367	0.068
-496.595	50.497	0.078	-0.074
-495.581	28.138	-0.111	-0.094
-494.566	191.290	0.101	0.153
-493.551	-90.655	0.466	0.135
-492.537	-133.239	-0.133	0.017
-491.522	148.768	0.139	0.188
-490.508	769.169	-0.063	-0.173
-489.493	-61.093	-0.144	0.061
-488.478	-32.576	-0.089	0.050
-487.464	254.411	0.018	-0.030
-486.449	1.739	0.083	0.060
-485.435	-129.494	0.133	0.018
-484.420	161.684	-0.189	0.266
-483.405	-65.803	-0.359	0.144
-482.391	158.066	-0.133	-0.186
-481.376	345.322	0.121	-0.238
-480.362	-148.455	0.239	-0.020
-479.347	-135.633	0.134	0.016
-478.332	-200.000	-0.081	-0.383
-477.318	46.013	0.168	0.156
-476.303	-136.717	0.066	-0.008
-475.289	800.000	0.055	-0.172
-474.274	-15.868	-0.494	0.316
-473.259	-166.493	-0.249	-0.010
-472.245	343.516	0.232	0.457
-471.230	-142.259	-0.230	0.023
-470.216	800.000	-0.068	0.255
-469.201	63.805	0.250	0.252
-468.186	-49.513	-0.308	-0.147
-467.172	54.039	0.142	-0.137
-466.157	-24.713	-0.079	-0.047
-465.143	-89.763	-0.135	0.040
-464.128	110.105	-0.246	0.297
-463.113	695.959	-0.106	0.278
-462.099	111.640	0.122	0.147
-461.084	-200.000	0.111	0.491
-460.070	67.881	0.273	-0.280
-459.055	2.032	0.289	-0.209
-458.040	-200.000	-0.029	-0.294
-457.026	800.000	0.019	-0.066
-456.011	-109.366	-0.151	0.032
-454.997	-200.000	-0.004	0.097
-453.982	15.709	0.125	0.099
-452.968	117.656	-0.129	-0.159
-451.953	779.023	0.088	-0.241
-450.938	800.000	-0.063	0.210
-449.924	351.519	0.087	-0.172
-448.909	-22.944	0.271	0.164
-447.895	-15.681	0.377	0.241
-446.880	22.356	-0.206	0.169
-445.865	-200.000	0.010	-0.274
-444.851	70.481	-0.161	0.166
-443.836	540.311	0.200	0.478
-442.822	215.437	0.142	0.226
-441.807	-17.988	-0.217	-0.136
-440.792	-89.664	0.113	-0.033
-439.778	259.948	-0.052	0.091
-438.763	27.034	-0.109	-0.092
-437.749	117.922	0.237	0.292
-436.734	-96.520	-0.082	-0.022
-435.719	800.000	0.083	-0.291
-434.705	177.654	0.093	0.135
-433.690	-78.028	0.488	0.168
-432.676	-71.288	-0.312	0.117
-431.661	366.519	-0.052	0.105
-430.646	207.321	-0.197	-0.307
-429.632	800.000	-0.099	-0.359
-428.617	29.275	-0.166	0.141
-427.603	-63.528	-0.205	0.084
-426.588	182.064	0.182	0.268
-425.573	-93.590	-0.127	-0.035
-424.559	-101.010	-0.357	0.088
-423.544	-34.343	0.245	-0.135
-422.530	-200.000	-0.001	-0.060
-421.515	-68.178	-0.137	-0.053
-420.500	-153.383	0.295	-0.021
-419.486	800.000	-0.064	-0.251
-418.471	409.743	0.075	0.158
-417.457	142.706	-0.120	0.159
-416.442	189.046	-0.101	0.152
-415.428	-128.587	0.167	0.024
-414.413	-200.000	0.055	-0.264
-413.398	-90.929	-0.178	-0.051
-412.384	-163.294	-0.272	0.013
-411.369	133.029	0.116	-0.150
-410.355	-23.062	0.314	-0.189
-409.340	407.623	0.123	-0.261
-408.325	56.649	0.386	-0.376
-407.311	445.636	0.071	-0.156
-406.296	-102.931	0.048	-0.011
-405.282	282.184	-0.079	0.142
-404.267	27.210	0.036	-0.030
-403.252	-92.405	0.095	-0.027
-402.238	-200.000	-0.075	0.349
-401.223	137.059	0.134	-0.175
-400.209	-200.000	-0.005	-0.087
-399.194	-65.933	0.056	0.022
-398.179	11.370	-0.190	0.146
-397.165	174.444	0.128	0.185
-396.150	51.012	0.158	-0.150
-395.136	3.900	-0.277	-0.203
-394.121	-142.682	0.337	0.033
-393.106	194.331	0.049	0.075
-392.092	-71.689	-0.428	-0.160
-391.077	-200.000	-0.048	0.306
-390.063	31.705	0.365	-0.314
-389.048	-200.000	-0.022	-0.271
-388.033	-23.069	-0.168	-0.101
-387.019	-58.150	-0.105	0.046
-386.004	-29.403	-0.079	0.045
-384.990	-4.844	-0.101	-0.070
-383.975	-130.741	-0.257	0.035
-382.960	-200.000	0.044	-0.259
-381.946	719.188	-0.095	0.251
-380.931	66.954	-0.126	0.129
-379.917	-127.204	0.226	-0.033
-378.902	105.294	0.129	0.153
-377.888	-102.337	0.246	-0.059
-376.873	-200.000	0.019	-0.199
-375.858	800.000	0.055	0.190
-374.844	79.024	-0.228	-0.245
-373.829	-1.468	0.377	-0.266
-372.815	295.974	-0.083	-0.152
-371.800	193.377	-0.131	-0.199
-370.785	-200.000	0.008	0.083
-369.771	543.416	-0.146	0.348
-368.756	32.855	-0.161	0.139
-367.742	-5.224	0.149	0.103
-366.727	82.792	-0.148	0.160
-365.712	103.968	0.102	-0.120
-364.698	196.995	-0.192	0.293
-363.683	-91.268	0.132	0.038
-362.669	-200.000	-0.013	0.060
-361.654	53.370	-0.153	0.147
-360.639	-200.000	-0.004	0.201
-359.625	-33.562	-0.288	-0.159
-358.610	-79.359	0.303	-0.102
-357.596	-105.492	-0.103	0.023
-356.581	800.000	0.044	0.148
-355.566	242.972	-0.264	-0.442
-354.552	-13.991	0.052	0.034
-353.537	-200.000	0.028	0.222
-352.523	800.000	0.131	0.445
-351.508	327.545	0.165	0.316
-350.493	201.153	0.114	-0.176
-349.479	-200.000	0.043	-0.314
-348.464	800.000	0.109	-0.399
-347.450	-85.962	0.176	0.054
-346.435	-124.632	0.230	0.036
-345.420	-126.324	0.143	-0.021
-344.406	102.534	-0.045	0.052
-343.391	-183.972	0.165	0.003
-342.377	-79.805	-0.116	0.039
-341.362	-128.066	0.022	-0.003
-340.348	352.062	0.134	0.266
-339.333	39.010	0.247	0.221
-338.318	-200.000	0.003	-0.159
-337.304	104.151	-0.085	0.099
-336.289	-80.809	0.355	0.118
-335.275	223.451	0.064	0.102
-334.260	-58.890	0.329	0.142
-333.245	-200.000	0.059	0.272
-332.231	-159.694	0.316	-0.017
-331.216	-2.159	-0.155	0.109
-330.202	-75.228	-0.182	-0.065
-329.187	-5.346	-0.088	-0.060
-328.172	475.482	-0.069	-0.156
-327.158	-200.000	-0.013	-0.189
-326.143	-44.412	-0.202	-0.101
-325.129	457.905	-0.028	0.063
-324.114	800.000	-0.027	0.088
-323.099	-180.724	-0.280	-0.006
-322.085	-23.080	-0.213	-0.128
-321.070	-115.985	-0.405	0.075
-320.056	800.000	-0.051	-0.190
-319.041	714.252	0.064	-0.170
-318.026	-132.338	-0.184	0.024
-317.012	-134.378	0.264	0.032
-315.997	800.000	-0.121	-0.514
-314.983	2.735	0.305	-0.220
-313.968	-153.040	-0.318	-0.022
-312.953	800.000	0.019	0.081
-311.939	496.555	-0.063	0.144
-310.924	-8.325	-0.121	0.081
-309.910	800.000	-0.042	-0.147
-308.895	97.823	0.115	0.132
-307.880	501.904	-0.114	-0.263
-306.866	-70.735	-0.249	0.094
-305.851	-112.734	0.098	-0.019
-304.837	268.651	0.111	0.193
-303.822	-200.000	-0.084	0.426
-302.807	-200.000	0.003	-0.106
-301.793	433.680	0.035	0.075
-300.778	-200.000	0.033	0.234
-299.764	-200.000	-0.095	-0.498
-298.749	-71.651	0.120	-0.045
-297.735	7.956	-0.233	0.174
-296.720	800.000	0.067	0.277
-295.705	-119.174	0.186	-0.032
-294.691	287.179	0.007	0.012
-293.676	29.110	-0.238	-0.201
-292.662	-200.000	0.028	-0.181
-291.647	-117.801	-0.184	0.033
-290.632	-200.000	-0.017	0.449
-289.618	572.929	-0.175	0.424
-288.603	224.311	0.269	0.433
-287.589	444.154	0.087	-0.189
-286.574	113.767	-0.016	-0.020
-285.559	-200.000	-0.018	0.143
-284.545	-143.750	-0.347	-0.033
-283.530	159.583	0.095	-0.131
-282.516	-168.290	-0.287	-0.011
-281.501	200.425	-0.184	-0.281
-280.486	6.743	-0.177	0.131
-279.472	-64.894	-0.433	-0.174
-278.457	113.778	-0.242	-0.292
-277.443	26.063	0.150	-0.125
-276.428	163.045	0.095	-0.133
-275.413	54.114	-0.179	-0.171
-274.399	-20.320	-0.199	0.122
-273.384	60.016	-0.172	-0.169
-272.370	-84.914	-0.200	0.063
-271.355	206.865	-0.088	0.136
-270.340	16.092	0.124	0.098
-269.326	178.442	-0.029	-0.043
-268.311	-92.612	-0.164	0.046
-267.297	-128.570	-0.280	-0.040
-266.282	68.905	0.183	0.187
-265.267	800.000	-0.017	-0.069
-264.253	-200.000	-0.028	-0.267
-263.238	328.469	-0.047	0.089
-262.224	284.482	0.038	-0.068
-261.209	-67.189	-0.208	-0.082
-260.195	57.794	0.256	-0.249
-259.180	334.788	-0.105	-0.202
-258.165	782.518	0.036	0.099
-257.151	480.544	0.075	-0.170
-256.136	800.000	0.048	-0.136
-255.122	-60.816	-0.333	-0.140
-254.107	5.768	0.103	-0.076
-253.092	137.143	-0.124	0.162
-252.078	-50.789	0.095	0.044
-251.063	-16.011	-0.224	-0.142
-250.049	-115.811	-0.353	0.066
-249.034	-32.637	-0.256	-0.142
-248.019	-200.000	-0.021	-0.203
-247.005	-144.176	0.183	0.017
-245.990	-9.058	0.282	-0.188
-244.976	-57.934	0.219	0.095
-243.961	-194.452	-0.254	0.002
-242.946	136.903	-0.162	0.211
-241.932	112.830	0.187	0.225
-240.917	800.000	-0.104	0.343
-239.903	-43.867	0.109	-0.055
-238.888	-3.748	-0.263	-0.181
-237.873	267.976	0.076	0.132
-236.859	-106.153	0.255	-0.057
-235.844	201.605	-0.113	0.173
-234.830	771.933	0.061	-0.164
-233.815	207.777	0.155	-0.241
-232.800	112.594	-0.187	0.225
-231.786	113.374	-0.145	-0.174
-230.771	-7.711	-0.186	-0.125
-229.757	-120.849	0.405	-0.068
-228.742	-17.634	0.520	0.324
-227.727	43.147	-0.067	-0.061
-226.713	-146.485	-0.283	-0.025
-225.698	-30.870	0.235	-0.132
-224.684	36.309	0.128	0.112
-223.669	-123.737	0.136	-0.021
-222.655	409.872	-0.159	-0.335
-221.640	65.370	-0.213	0.214
-220.625	-16.409	0.106	-0.067
-219.611	-54.651	-0.112	-0.050
-218.596	-9.845	0.102	-0.068
-217.582	-155.663	0.064	0.004
-216.567	-121.340	0.404	-0.067
-215.552	-200.000	0.005	0.359
-214.538	-144.247	0.240	0.022
-213.523	800.000	-0.003	0.010
-212.509	38.391	-0.099	-0.088
-211.494	-1.834	0.201	0.140
-210.479	-129.061	-0.044	0.006
-209.465	81.053	0.114	0.122
-208.450	20.386	0.066	0.053
-207.436	-105.043	-0.093	0.021
-206.421	-109.431	-0.183	0.038
-205.406	-52.407	0.213	-0.098
-204.392	601.114	0.099	-0.245
-203.377	-36.181	-0.065	-0.035
-202.363	-83.376	0.092	-0.029
-201.348	120.684	0.081	-0.100
-200.333	58.712	-0.241	0.235
-199.319	-200.000	0.009	-0.195
-198.304	800.000	0.041	0.178
-197.290	-192.876	-0.204	-0.002
-196.275	-88.199	-0.074	-0.022
-195.260	196.319	0.101	0.152
-194.246	-200.000	0.019	0.218
-193.231	267.501	0.171	0.298
-192.217	-200.000	-0.031	0.377
-191.202	102.603	-0.144	0.167
-190.187	113.774	-0.068	-0.083
-189.173	-118.955	-0.154	-0.027
-188.158	56.425	-0.211	0.204
-187.144	-113.885	0.198	0.038
-186.129	168.712	-0.150	0.213
-185.114	-200.000	0.037	0.257
-184.100	-0.451	0.066	-0.046
-183.085	116.688	0.111	0.135
-182.071	34.007	-0.089	0.077
-181.056	-78.948	0.160	-0.054
-180.042	-33.888	0.252	0.138
-179.027	132.814	0.035	0.045
-178.012	-20.115	-0.174	0.106
-176.998	-103.071	-0.239	0.056
-175.983	-11.006	0.092	-0.060
-174.969	-200.000	0.027	-0.149
-173.954	-154.007	-0.027	-0.002
-172.939	800.000	-0.061	-0.252
-171.925	-71.639	-0.310	0.115
-170.910	-74.294	0.538	-0.193
-169.896	-176.605	-0.249	0.006
-168.881	800.000	-0.061	0.203
-167.866	9.611	0.209	0.157
-166.852	800.000	0.033	0.122
-165.837	43.750	0.076	-0.069
-164.823	102.814	-0.084	-0.098
-163.808	800.000	-0.069	-0.264
-162.793	206.042	0.276	-0.426
-161.779	800.000	-0.031	-0.113
-160.764	-66.873	-0.212	-0.083
-159.750	-115.025	0.293	-0.055
-158.735	-68.136	0.232	-0.090
-157.720	127.597	0.158	0.199
-156.706	116.513	0.074	0.090
-155.691	-190.870	0.174	-0.002
-154.677	-94.471	0.334	0.090
-153.662	-200.000	-0.012	-0.091
-152.647	-134.420	-0.136	-0.017
-151.633	-200.000	-0.004	0.332
-150.618	278.745	-0.038	-0.067
-149.604	-73.147	0.075	-0.027
-148.589	-125.359	0.292	0.044
-147.574	-146.070	-0.201	-0.018
-146.560	-200.000	-0.032	-0.432
-145.545	-200.000	0.000	-0.143
-144.531	230.175	0.156	0.253
-143.516	266.135	-0.008	0.013
-142.502	10.608	-0.409	-0.309
-141.487	-166.766	0.123	0.005
-140.472	-119.008	-0.177	-0.031
-139.458	800.000	0.076	0.268
-138.443	-74.806	0.216	-0.077
-137.429	-152.284	0.094	-0.007
-136.414	10.518	-0.092	-0.069
-135.399	800.000	-0.088	-0.346
-134.385	-159.952	0.347	-0.019
-133.370	-200.000	-0.005	0.114
-132.356	-149.882	-0.317	-0.025
-131.341	23.143	0.062	0.050
-130.326	-142.425	-0.258	-0.025
-129.312	117.439	0.042	0.052
-128.297	26.313	0.173	-0.143
-127.283	28.567	-0.068	0.057
-126.268	-51.564	-0.084	0.039
-125.253	-70.929	0.240	-0.089
-124.239	800.000	-0.054	0.218
-123.224	-120.940	0.216	0.036
-122.210	-95.274	-0.168	0.045
-121.195	481.439	0.049	-0.110
-120.180	-93.198	-0.099	0.027
-119.166	643.685	0.013	-0.034
-118.151	-60.043	0.164	-0.069
-117.137	-25.794	0.123	0.072
-116.122	444.129	-0.018	0.039
-115.107	-110.334	0.115	0.024
-114.093	-200.000	0.023	-0.207
-113.078	-89.485	-0.101	-0.029
-112.064	-23.677	0.142	-0.084
-111.049	63.598	0.102	0.102
-110.034	195.016	0.118	-0.177
-109.020	100.239	-0.094	0.108
-108.005	-25.071	-0.257	-0.151
-106.991	800.000	0.034	0.112
-105.976	86.246	0.136	-0.148
-104.962	-200.000	-0.026	0.117
-103.947	-83.869	0.222	0.070
-102.932	-0.269	0.271	-0.191
-101.918	154.017	0.174	-0.236
-100.903	-200.000	-0.100	-0.496
-99.889	276.764	-0.161	0.283
-98.874	800.000	-0.059	-0.182
-97.859	93.239	-0.133	-0.149
-96.845	-70.029	-0.173	0.065
-95.830	-56.664	0.108	-0.047
-94.816	-137.238	-0.268	-0.030
-93.801	800.000	0.059	-0.165
-92.786	303.913	0.030	0.055
-91.772	-200.000	-0.072	0.379
-90.757	136.801	-0.163	-0.211
-89.743	-91.607	0.043	0.012
-88.728	44.712	-0.060	0.054
-87.713	-1.856	-0.092	0.064
-86.699	800.000	0.035	0.145
-85.684	-47.781	0.455	-0.218
-84.670	-95.557	-0.207	-0.055
-83.655	-5.163	-0.080	0.054
-82.640	-66.428	0.323	-0.127
-81.626	-29.718	0.111	-0.063
-80.611	-117.759	-0.228	-0.041
-79.597	26.942	0.237	-0.196
-78.582	-58.028	-0.296	-0.128
-77.567	75.336	0.092	0.096
-76.553	-47.131	-0.068	-0.033
-75.538	-35.718	0.203	0.109
-74.524	-200.000	0.039	0.209
-73.509	-12.851	-0.316	0.203
-72.494	800.000	-0.082	0.266
-71.480	-3.208	0.142	-0.097
-70.465	-200.000	0.013	0.058
-69.451	-62.709	-0.489	0.200
-68.436	-38.603	-0.234	-0.122
-67.422	414.364	0.146	-0.307
-66.407	-200.000	-0.031	-0.171
-65.392	643.443	0.112	-0.283
-64.378	-200.000	-0.003	-0.114
-63.363	163.861	0.052	0.072
-62.349	-200.000	0.010	0.093
-61.334	-30.938	-1.256	-0.701
-60.319	-4.359	0.379	0.259
-59.305	304.029	-0.425	-0.778
-58.290	302.574	0.518	0.947
-57.276	-200.000	0.311	1.615
-56.261	-200.000	97.288	596.331
-55.246	627.958	1419.606	3539.393
-54.232	186.381	2613.351	3838.217
-53.217	119.973	2177.727	2665.003
-52.203	44.618	1626.627	1475.602
-51.188	36.378	1360.523	1183.898
-50.173	33.113	1318.117	1127.517
-49.159	56.380	1365.554	1309.618
-48.144	58.837	1382.057	1340.245
-47.130	36.679	1339.944	1167.628
-46.115	32.996	1322.431	1130.332
-45.100	32.745	1317.728	1124.766
-44.086	32.586	1315.544	1121.913
-43.071	32.582	1312.839	1119.536
-42.057	32.585	1310.990	1117.931
-41.042	32.650	1309.320	1116.853
-40.027	32.751	1307.439	1115.797
-39.013	32.710	1306.084	1114.355
-37.998	32.735	1304.252	1112.899
-36.984	32.952	1302.116	1112.305
-35.969	32.838	1300.467	1110.186
-34.954	32.836	1299.753	1109.516
-33.940	32.765	1298.087	1107.638
-32.925	32.912	1296.481	1107.082
-31.911	32.910	1294.945	1105.717
-30.896	32.945	1293.157	1104.353
-29.881	32.909	1291.703	1102.852
-28.867	32.936	1290.214	1101.699
-27.852	33.010	1288.904	1100.967
-26.838	32.941	1287.747	1099.532
-25.823	32.870	1286.520	1098.030
-24.809	33.034	1284.637	1097.330
-23.794	32.918	1283.572	1095.701
-22.779	32.932	1281.965	1094.368
-21.765	32.809	1281.436	1093.162
-20.750	32.942	1279.461	1092.205
-19.736	32.821	1278.628	1090.747
-18.721	32.803	1277.424	1089.573
-17.706	32.707	1276.292	1088.013
-16.692	32.768	1274.812	1087.061
-15.677	32.714	1274.105	1086.099
-14.663	32.703	1273.217	1085.241
-13.648	32.788	1271.535	1084.253
-12.633	32.711	1270.665	1083.023
-11.619	32.711	1269.770	1082.215
-10.604	32.751	1269.280	1081.989
-9.590	32.714	1268.252	1080.852
-8.575	32.790	1266.903	1080.095
-7.560	32.652	1266.467	1078.890
-6.546	32.718	1265.500	1078.404
-5.531	32.591	1264.850	1077.078
-4.517	32.700	1263.937	1076.884
-3.502	32.818	1262.755	1076.506
-2.487	32.774	1261.838	1075.430
-1.473	32.785	1258.205	1072.356
-0.458	31.764	1244.162	1054.601
0.556	27.519	1227.005	1019.389
1.571	24.005	1232.898	1004.395
2.586	23.079	1248.509	1011.727
3.600	22.408	1236.791	998.341
4.615	17.128	1165.205	912.184
5.629	9.072	1089.455	812.195
6.644	5.274	1069.380	778.268
7.659	4.961	1066.633	774.645
8.673	4.844	1066.036	773.562
9.688	4.831	1064.159	772.065
10.702	5.211	1062.562	772.718
11.717	10.348	1069.828	803.471
12.731	17.453	1080.234	846.688
13.746	19.216	1081.813	856.621
14.761	18.178	1079.614	849.654
15.775	16.965	1077.078	841.568
16.790	15.857	1075.739	834.955
17.804	15.189	1073.908	830.148
18.819	14.832	1072.439	827.173
19.834	14.566	1071.473	825.042
20.848	14.411	1070.670	823.583
21.863	14.302	1069.310	821.926
22.877	13.968	1069.304	820.202
23.892	14.035	1068.229	819.633
24.907	14.021	1067.842	819.196
25.921	14.008	1066.568	818.083
26.936	14.028	1065.265	817.110
27.950	14.062	1063.702	816.004
28.965	14.142	1062.021	815.031
29.980	14.289	1060.913	814.833
30.994	14.275	1059.683	813.747
32.009	14.223	1058.774	812.720
33.023	14.309	1057.487	812.081
34.038	14.204	1056.722	810.909
35.053	14.113	1055.771	809.666
36.067	14.156	1054.681	808.966
37.082	14.143	1053.704	808.084
38.096	14.289	1053.018	808.193
39.111	14.270	1052.189	807.396
40.126	14.223	1050.796	806.028
41.140	14.015	1050.027	804.357
42.155	13.995	1048.211	802.803
43.169	13.932	1047.694	802.028
44.184	13.866	1046.945	801.067
45.199	13.981	1045.543	800.477
46.213	14.007	1044.683	799.870
47.228	13.963	1043.808	798.921
48.242	14.134	1042.483	798.657
49.257	14.120	1041.680	797.905
50.271	14.092	1040.962	797.150
51.286	14.191	1039.944	796.773
52.301	14.166	1038.594	795.551
53.315	14.007	1037.870	794.162
54.330	14.049	1036.548	793.283
55.344	14.030	1035.690	792.464
56.359	14.010	1034.773	791.599
57.374	13.927	1034.468	790.898
58.388	13.918	1033.209	789.826
59.403	13.875	1032.330	788.879
60.417	14.001	1031.423	788.712
61.432	13.897	1030.612	787.532
62.447	13.747	1029.736	786.081
63.461	13.765	1029.118	785.626
64.476	13.756	1028.175	784.791
65.490	13.798	1027.732	784.585
66.505	13.904	1027.096	784.530
67.520	13.967	1025.971	783.897
68.534	13.875	1025.498	783.033
69.549	13.903	1024.582	782.397
70.563	13.784	1023.801	781.170
71.578	13.804	1022.795	780.427
72.593	13.714	1021.889	779.244
73.607	13.757	1021.348	778.965
74.622	13.816	1020.633	778.625
75.636	13.683	1020.442	777.789
76.651	13.853	1019.166	777.543
77.666	13.817	1018.732	776.977
78.680	13.858	1017.950	776.500
79.695	13.907	1017.541	776.351
80.709	14.026	1016.473	776.021
81.724	13.920	1016.240	775.280
82.739	14.058	1015.306	775.142
83.753	14.108	1014.803	774.922
84.768	14.139	1013.942	774.341
85.782	14.272	1013.206	774.330
86.797	14.236	1012.350	773.439
87.812	14.141	1011.299	772.126
88.826	14.151	1010.273	771.322
89.841	14.089	1009.785	770.596
90.855	14.322	1008.231	770.418
91.870	14.310	1007.539	769.766
92.884	14.238	1007.082	769.017
93.899	14.209	1005.944	767.944
94.914	14.331	1005.086	767.782
95.928	14.224	1004.767	766.979
96.943	14.368	1003.359	766.500
97.957	14.255	1002.790	765.477
98.972	14.251	1001.661	764.532
99.987	14.129	1001.048	763.433
101.001	14.293	999.746	763.125
102.016	14.281	999.079	762.495
103.030	14.354	998.196	762.088
104.045	14.370	997.507	761.568
105.060	14.150	996.561	759.773
106.074	14.079	995.812	758.809
107.089	14.040	994.445	757.525
108.103	13.977	993.797	756.676
109.118	14.019	992.694	755.958
110.133	13.865	992.380	754.956
111.147	14.039	990.862	754.524
112.162	13.993	990.353	753.857
113.176	14.105	989.330	753.521
114.191	13.991	988.937	752.640
115.206	14.081	988.123	752.360
116.220	14.076	987.195	751.565
117.235	14.037	986.444	750.751
118.249	14.070	985.126	749.830
119.264	14.006	984.809	749.232
120.279	13.963	983.678	748.112
121.293	13.932	982.910	747.322
122.308	13.951	981.949	746.612
123.322	13.936	980.953	745.722
124.337	14.087	979.524	745.247
125.352	14.002	978.926	744.343
126.366	13.857	978.418	743.241
127.381	14.088	976.750	742.942
128.395	13.982	976.034	741.859
129.410	14.016	975.234	741.336
130.424	14.054	974.355	740.770
131.439	14.138	973.410	740.361
132.454	14.138	972.708	739.763
133.468	14.090	972.013	738.953
134.483	13.965	971.552	737.983
135.497	14.138	970.447	737.847
136.512	14.116	969.629	737.061
137.527	14.128	968.827	736.442
138.541	14.079	968.132	735.630
139.556	14.282	967.252	735.793
140.570	14.231	966.559	734.976
141.585	14.410	965.295	734.740
142.600	14.360	965.116	734.317
143.614	14.270	964.584	733.453
144.629	14.292	963.164	732.405
145.643	14.362	962.122	731.854
146.658	14.336	961.092	730.894
147.673	14.208	960.566	729.867
148.687	14.100	959.530	728.539
149.702	14.093	958.915	727.978
150.716	14.106	958.127	727.374
151.731	14.150	957.462	726.998
152.746	14.314	956.664	727.040
153.760	14.309	955.761	726.269
154.775	14.164	955.872	725.658
155.789	14.316	954.871	725.493
156.804	14.414	954.246	725.384
157.819	14.461	953.242	724.760
158.833	14.525	952.728	724.584
159.848	14.575	951.943	724.139
160.862	14.408	951.528	723.033
161.877	14.236	950.267	721.269
162.892	14.242	948.976	720.250
163.906	14.318	947.826	719.640
164.921	14.115	947.244	718.261
165.935	14.326	946.222	718.329
166.950	14.365	945.503	717.887
167.964	14.408	944.536	717.279
168.979	14.244	943.763	715.922
169.994	14.380	943.213	716.026
171.008	14.452	941.963	715.323
172.023	14.538	941.298	715.123
173.037	14.487	941.132	714.714
174.052	14.408	940.102	713.532
175.067	14.426	939.368	712.986
176.081	14.335	938.773	712.082
177.096	14.337	938.430	711.768
178.110	14.366	937.803	711.353
179.125	14.525	937.202	711.514
180.140	14.586	936.412	711.111
181.154	14.422	936.361	710.311
182.169	14.587	935.819	710.540
183.183	14.669	934.761	710.022
184.198	14.677	933.824	709.279
185.213	14.717	933.393	709.060
186.227	14.659	932.933	708.404
187.242	14.762	932.055	708.109
188.256	14.839	931.526	707.973
189.271	14.786	930.963	707.257
190.286	14.545	929.820	705.308
191.300	14.398	929.117	704.092
192.315	14.352	928.721	703.533
193.329	14.456	927.981	703.348
194.344	14.637	926.970	703.282
195.359	14.522	927.033	702.783
196.373	14.582	926.416	702.509
197.388	14.714	926.158	702.806
198.402	14.847	925.286	702.642
199.417	14.868	924.698	702.218
200.432	14.982	924.428	702.430
201.446	14.991	923.705	701.857
202.461	15.001	923.479	701.665
203.475	14.869	922.637	700.409
204.490	14.929	921.607	699.817
205.504	14.910	920.781	699.048
206.519	14.934	920.257	698.690
207.534	14.878	919.582	697.884
208.548	14.775	918.891	696.866
209.563	14.903	918.076	696.718
210.577	15.045	917.030	696.456
211.592	15.075	916.889	696.411
212.607	15.147	915.868	695.873
213.621	15.098	914.931	694.897
214.636	15.179	914.581	694.906
215.650	15.086	913.982	694.003
216.665	15.135	913.559	693.824
217.680	15.128	912.855	693.200
218.694	15.220	911.929	692.817
219.709	15.162	911.497	692.186
220.723	15.054	911.336	691.558
221.738	15.270	909.658	691.111
222.753	15.222	909.217	690.516
223.767	15.131	908.905	689.847
224.782	15.291	908.560	690.180
225.796	15.405	907.698	689.933
226.811	15.272	907.231	688.971
227.826	15.126	906.567	687.806
228.840	15.162	905.194	686.850
229.855	15.111	904.758	686.252
230.869	15.206	904.149	686.115
231.884	15.224	903.054	685.297
232.899	15.218	902.450	684.755
233.913	15.120	902.375	684.236
234.928	15.153	901.718	683.811
235.942	15.121	900.680	682.837
236.957	15.113	900.242	682.412
237.972	15.152	899.589	682.013
238.986	15.081	899.081	681.281
240.001	15.079	898.451	680.733
241.015	15.286	897.728	680.968
242.030	15.252	897.514	680.605
243.045	15.331	896.754	680.291
244.059	15.354	895.996	679.746
245.074	15.392	895.478	679.447
246.088	15.162	895.321	678.339
247.103	15.366	894.339	678.361
248.117	15.462	893.964	678.401
249.132	15.497	893.649	678.246
250.147	15.761	892.403	678.302
251.161	15.664	892.205	677.704
252.176	15.804	891.312	677.527
253.190	15.799	890.608	676.914
254.205	15.736	889.903	676.066
255.220	15.797	889.272	675.769
256.234	15.893	888.192	675.272
257.249	15.853	887.967	674.884
258.263	15.834	887.406	674.323
259.278	15.797	886.519	673.438
260.293	15.886	886.365	673.620
261.307	15.956	885.773	673.389
262.322	16.010	885.237	673.137
263.336	16.042	884.186	672.406
264.351	15.949	883.710	671.614
265.366	15.959	882.948	671.017
266.380	15.984	882.478	670.699
267.395	15.952	881.756	669.964
268.409	15.777	880.976	668.616
269.424	16.027	880.140	668.916
270.439	15.885	879.591	667.875
271.453	15.885	878.899	667.288
272.468	15.910	878.360	666.922
273.482	15.954	877.237	666.182
274.497	15.814	877.192	665.538
275.512	15.988	876.053	665.302
276.526	15.953	876.237	665.243
277.541	16.094	875.637	665.284
278.555	16.039	874.885	664.438
279.570	16.143	874.221	664.284
280.585	16.216	873.287	663.805
281.599	16.064	872.740	662.730
282.614	16.173	871.938	662.491
283.628	16.113	871.285	661.701
284.643	16.112	871.177	661.556
285.657	16.030	870.272	660.488
286.672	16.064	869.723	660.148
287.687	16.129	869.038	659.825
288.701	16.332	868.132	659.870
289.716	16.174	867.709	658.873
290.730	16.055	867.418	658.132
291.745	16.163	866.600	657.873
292.760	16.352	865.970	658.072
293.774	16.360	865.419	657.628
294.789	16.359	864.527	656.886
295.803	16.156	864.035	655.665
296.818	16.296	863.235	655.546
297.833	16.415	862.514	655.401
298.847	16.365	862.078	654.818
299.862	16.277	861.750	654.167
300.876	16.389	861.312	654.212
301.891	16.446	860.667	653.885
302.906	16.689	859.784	654.094
303.920	16.607	859.700	653.656
304.935	16.554	859.231	653.038
305.949	16.461	858.648	652.178
306.964	16.475	857.842	651.561
307.979	16.565	857.006	651.217
308.993	16.630	856.678	651.161
310.008	16.594	856.027	650.471
311.022	16.602	855.452	650.004
312.037	16.639	854.635	649.469
313.052	16.524	854.610	648.950
314.066	16.500	853.903	648.266
315.081	16.453	853.180	647.480
316.095	16.534	852.651	647.331
317.110	16.601	851.818	646.895
318.125	16.552	851.611	646.494
319.139	16.546	851.139	646.055
320.154	16.477	850.677	645.386
321.168	16.454	850.315	644.965
322.183	16.558	849.574	644.742
323.197	16.558	849.213	644.413
324.212	16.674	848.510	644.261
325.227	16.560	847.737	643.184
326.241	16.822	846.849	643.451
327.256	16.505	846.753	642.118
328.270	16.570	845.857	641.628
329.285	16.752	845.169	641.738
330.300	16.635	844.866	641.007
331.314	16.592	844.323	640.375
332.329	16.690	843.731	640.240
333.343	16.825	843.203	640.292
334.358	16.756	843.339	640.078
335.373	16.757	842.730	639.564
336.387	16.801	842.565	639.548
337.402	16.718	842.067	638.803
338.416	16.931	841.676	639.250
339.431	16.921	841.438	638.975
340.446	16.998	840.932	638.824
341.460	16.918	840.748	638.329
342.475	17.155	840.211	638.755
343.489	16.866	840.134	637.553
344.504	17.120	839.097	637.664
345.519	17.019	838.927	637.097
346.533	17.173	838.204	637.073
347.548	17.168	837.435	636.411
348.562	17.003	837.063	635.453
349.577	16.878	836.580	634.564
350.592	17.003	835.844	634.417
351.606	16.977	835.139	633.730
352.621	17.161	834.287	633.711
353.635	16.956	833.725	632.466
354.650	17.002	833.232	632.208
355.665	17.142	832.194	631.883
356.679	17.237	831.887	631.948
357.694	17.167	831.494	631.333
358.708	17.196	830.624	630.726
359.723	17.106	830.445	630.198
360.738	17.090	830.088	629.815
361.752	17.277	829.036	629.653
362.767	17.250	828.586	629.155
363.781	17.313	828.055	628.927
364.796	17.562	827.795	629.597
365.810	17.502	827.426	629.038
366.825	17.698	826.448	628.961
367.840	17.619	826.349	628.540
368.854	17.577	825.951	628.028
369.869	17.343	825.870	627.047
370.883	17.406	825.205	626.717
371.898	17.583	824.549	626.816
372.913	17.628	824.219	626.676
373.927	17.515	823.777	625.868
374.942	17.530	823.174	625.409
375.956	17.531	822.822	625.091
376.971	17.809	822.390	625.728
377.986	17.786	821.911	625.224
379.000	17.732	821.460	624.625
380.015	17.700	821.141	624.212
381.029	17.723	820.547	623.789
382.044	17.636	819.870	622.902
383.059	17.732	819.471	622.894
384.073	17.600	819.214	622.161
385.088	17.643	818.069	621.395
386.102	17.804	817.330	621.364
387.117	17.675	817.079	620.648
388.132	17.639	816.114	619.728
389.146	17.669	816.019	619.712
390.161	17.799	815.422	619.675
391.175	17.853	815.352	619.763
392.190	17.696	815.048	618.906
393.205	17.661	814.231	618.106
394.219	17.641	813.645	617.534
395.234	17.588	813.513	617.187
396.248	17.587	812.788	616.578
397.263	17.625	812.585	616.506
398.278	17.613	811.762	615.783
399.292	17.540	811.644	615.378
400.307	17.737	810.910	615.475
401.321	17.757	810.511	615.190
402.336	17.706	810.316	614.804
403.350	17.827	809.305	614.419
404.365	17.880	809.018	614.337
405.380	17.910	808.955	614.343
406.394	17.973	808.145	613.902
407.409	17.966	807.837	613.589
408.423	17.951	807.469	613.199
409.438	18.183	807.007	613.628
410.453	18.227	806.803	613.574
411.467	18.216	806.174	613.004
412.482	18.197	805.941	612.706
413.496	18.131	805.639	612.184
414.511	18.341	804.840	612.275
415.526	18.363	804.537	612.066
416.540	18.178	804.206	611.102
417.555	18.379	803.584	611.292
418.569	18.282	803.199	610.599
419.584	18.428	802.672	610.665
420.599	18.187	802.494	609.615
421.613	154.210	1371.234	1791.136
422.628	133.693	1454.126	1791.224
