DTS Sentinel unit serial number:	SN413079Multiplexer serial number:	ORYXHardware model number:	OX4-SRSoftware version number:	ORYX F/W v4.00 Oryx Data Collector v3.7.2.0data status	okinstallation	princeton_trtdifferential loss correction	single-endedforward channel	channel 1reverse channel	N/Adate	2019/09/13time	22:18:35forward acquisition time	60.00reverse acquisition time	0.00gamma	496.2192k internal	0.2332k external	0.2332temperature offset calibration	1.0085default loss term (dB/km)	0.3790temperature slope calibration	1.0000multiplexer offset coefficient	1.0000multiplexer slope coefficient	1.0000fibre end	0.00T internal ref (°C)	27.87T ext. ref 1 (°C)	3.24T ext. ref 2 (°C)	22.54length (m)	temperature (°C)	Stokes	anti-Stokes-747.200	-127.771	0.248	-0.036
-746.185	-50.438	-0.392	0.186
-745.171	-8.220	0.300	0.203
-744.156	177.103	0.282	0.412
-743.142	-20.674	-0.109	0.067
-742.127	-177.525	-0.337	-0.008
-741.112	615.447	0.098	0.247
-740.098	-130.031	-0.323	0.044
-739.083	222.300	0.165	-0.267
-738.069	691.006	0.058	0.152
-737.054	349.644	0.059	0.117
-736.039	9.800	0.041	-0.032
-735.025	800.000	-0.145	0.503
-734.010	-62.319	0.121	-0.051
-732.996	-200.000	-0.017	-0.481
-731.981	195.897	-0.194	-0.297
-730.966	-97.265	0.332	0.087
-729.952	174.161	0.052	-0.076
-728.937	36.647	-0.081	-0.072
-727.923	-200.000	0.019	-0.097
-726.908	-26.612	-0.029	-0.017
-725.894	-143.351	-0.023	-0.002
-724.879	-200.000	0.050	-0.235
-723.864	-143.526	-0.347	0.033
-722.850	800.000	-0.015	-0.063
-721.835	48.367	0.195	0.183
-720.821	-29.983	-0.151	0.086
-719.806	-200.000	-0.011	0.091
-718.791	232.466	-0.089	-0.147
-717.777	334.953	-0.133	-0.259
-716.762	-200.000	-0.033	-0.179
-715.748	-44.279	-0.150	-0.076
-714.733	-147.366	0.266	-0.023
-713.718	-80.765	0.137	-0.046
-712.704	-142.717	-0.671	-0.066
-711.689	-97.086	-0.371	0.097
-710.675	-200.000	0.053	-0.385
-709.660	713.310	-0.061	0.162
-708.645	-200.000	-0.011	-0.135
-707.631	-200.000	0.072	0.522
-706.616	79.184	0.094	0.102
-705.602	-200.000	0.030	0.255
-704.587	-200.000	0.003	0.175
-703.572	-27.739	0.190	0.111
-702.558	-91.231	-0.281	0.081
-701.543	203.707	-0.101	0.157
-700.529	9.041	0.049	0.037
-699.514	-81.871	-0.351	-0.115
-698.499	206.272	0.028	-0.043
-697.485	800.000	-0.032	0.138
-696.470	-200.000	0.019	0.089
-695.456	59.472	0.102	-0.101
-694.441	59.048	-0.103	-0.101
-693.426	-200.000	-0.034	-0.169
-692.412	-200.000	-0.005	-0.041
-691.397	800.000	-0.071	0.300
-690.383	729.090	-0.140	-0.376
-689.368	328.567	0.097	-0.187
-688.354	-134.444	0.200	0.025
-687.339	-56.243	0.027	-0.012
-686.324	800.000	0.069	-0.297
-685.310	-15.331	0.204	0.131
-684.295	-200.000	0.033	0.214
-683.281	335.038	-0.032	0.062
-682.266	-26.572	-0.201	-0.118
-681.251	-200.000	-0.016	0.141
-680.237	50.232	0.044	0.042
-679.222	122.115	0.245	-0.307
-678.208	-84.894	0.098	-0.031
-677.193	80.654	-0.176	-0.191
-676.178	212.999	-0.046	-0.073
-675.164	46.434	0.095	0.089
-674.149	800.000	-0.057	-0.186
-673.135	238.757	-0.208	-0.346
-672.120	800.000	0.065	0.208
-671.105	-200.000	-0.009	0.215
-670.091	-12.140	-0.098	0.064
-669.076	548.135	-0.167	0.401
-668.062	-77.656	-0.397	0.138
-667.047	-13.778	0.276	-0.179
-666.032	-178.511	-0.322	0.007
-665.018	53.598	0.085	0.082
-664.003	-200.000	0.034	0.352
-662.989	23.579	-0.161	0.133
-661.974	-68.130	-0.214	-0.084
-660.959	-139.033	0.400	-0.043
-659.945	-157.452	0.240	-0.014
-658.930	-2.452	0.032	0.022
-657.916	235.301	-0.154	0.254
-656.901	-200.000	-0.014	-0.215
-655.886	73.567	-0.216	-0.226
-654.872	-200.000	0.016	-0.239
-653.857	-14.855	-0.144	-0.093
-652.843	126.211	0.102	0.129
-651.828	21.811	0.077	-0.063
-650.814	-136.742	-0.399	0.046
-649.799	-76.300	-0.226	0.080
-648.784	-149.159	0.290	-0.023
-647.770	116.303	0.102	-0.125
-646.755	-200.000	0.026	0.246
-645.741	208.033	-0.165	-0.259
-644.726	101.838	0.235	-0.275
-643.711	-154.505	0.158	0.011
-642.697	-56.929	0.270	-0.119
-641.682	-116.916	0.293	-0.054
-640.668	-127.004	-0.270	-0.040
-639.653	309.766	-0.275	-0.515
-638.638	76.108	0.458	-0.486
-637.624	-200.000	0.029	-0.417
-636.609	-126.380	-0.471	-0.070
-635.595	-200.000	0.017	0.121
-634.580	-103.411	-0.129	0.030
-633.565	-18.984	0.250	-0.156
-632.551	1.665	-0.237	-0.171
-631.536	122.528	-0.175	-0.219
-630.522	12.890	0.120	0.093
-629.507	-200.000	-0.058	-0.376
-628.492	88.763	-0.079	-0.088
-627.478	7.719	0.197	0.147
-626.463	-18.132	-0.035	0.022
-625.449	-154.653	-0.302	0.020
-624.434	-143.358	0.247	-0.024
-623.419	-108.641	0.094	0.020
-622.405	-86.239	-0.159	-0.049
-621.390	77.279	0.179	-0.190
-620.376	-13.244	-0.147	0.096
-619.361	-10.734	-0.205	-0.136
-618.346	-200.000	0.074	-0.418
-617.332	-87.906	-0.342	0.103
-616.317	483.654	-0.136	-0.309
-615.303	-35.665	-0.102	0.055
-614.288	-67.143	0.224	0.088
-613.273	244.465	0.012	0.021
-612.259	-90.270	-0.230	-0.067
-611.244	-200.000	0.040	-0.400
-610.230	-176.090	0.086	0.002
-609.215	19.315	-0.220	0.177
-608.201	126.837	-0.147	0.187
-607.186	4.325	-0.075	-0.055
-606.171	215.426	-0.113	0.179
-605.157	-59.239	-0.070	0.030
-604.142	15.529	-0.050	0.040
-603.128	-200.000	-0.049	-0.304
-602.113	-102.976	0.308	0.073
-601.098	-98.091	0.277	0.071
-600.084	205.117	-0.171	-0.266
-599.069	-38.865	0.107	0.056
-598.055	-200.000	-0.009	0.080
-597.040	-6.790	-0.319	0.217
-596.025	800.000	-0.061	0.214
-595.011	44.592	-0.174	0.160
-593.996	-200.000	-0.014	-0.085
-592.982	292.779	0.053	-0.097
-591.967	443.129	-0.067	0.146
-590.952	-200.000	-0.001	-0.174
-589.938	800.000	-0.054	-0.215
-588.923	-75.261	0.248	0.089
-587.909	465.127	0.060	-0.133
-586.894	94.812	-0.124	0.141
-585.879	-69.524	0.078	0.030
-584.865	-83.348	0.210	0.067
-583.850	11.130	0.241	0.184
-582.836	-200.000	0.070	0.361
-581.821	227.739	0.149	-0.242
-580.806	150.098	-0.116	0.157
-579.792	800.000	-0.032	-0.124
-578.777	-200.000	-0.048	-0.260
-577.763	-200.000	-0.040	0.218
-576.748	270.876	0.131	0.230
-575.733	-190.369	-0.194	0.002
-574.719	62.551	0.052	0.052
-573.704	43.504	0.031	-0.028
-572.690	-200.000	0.004	0.123
-571.675	-76.761	0.091	-0.032
-570.661	100.504	0.212	-0.246
-569.646	71.275	0.054	0.056
-568.631	111.913	0.231	-0.279
-567.617	-200.000	0.015	-0.250
-566.602	-200.000	-0.026	0.197
-565.588	800.000	-0.034	0.121
-564.573	-135.840	-0.256	-0.030
-563.558	-193.274	-0.089	0.001
-562.544	-146.151	-0.144	-0.013
-561.529	-200.000	0.029	-0.148
-560.515	22.105	-0.334	-0.272
-559.500	176.946	-0.167	0.243
-558.485	185.768	0.200	0.297
-557.471	-125.243	-0.257	-0.039
-556.456	-200.000	0.079	-0.408
-555.442	-114.649	-0.127	0.024
-554.427	-33.419	0.372	-0.205
-553.412	-171.928	0.293	0.010
-552.398	-40.151	0.082	-0.043
-551.383	-200.000	-0.044	0.396
-550.369	-131.252	0.182	0.024
-549.354	-49.750	-0.136	-0.064
-548.339	-200.000	-0.030	0.274
-547.325	165.877	0.158	-0.223
-546.310	800.000	0.119	0.339
-545.296	136.335	0.199	0.259
-544.281	-101.384	-0.215	-0.052
-543.266	-38.445	0.235	-0.124
-542.252	-92.906	0.151	0.042
-541.237	-121.024	0.356	0.060
-540.223	-200.000	0.011	-0.058
-539.208	138.601	0.376	0.492
-538.193	68.461	-0.125	0.128
-537.179	-56.499	-0.244	-0.108
-536.164	-10.234	-0.154	0.102
-535.150	-159.031	-0.480	-0.027
-534.135	45.793	-0.082	0.075
-533.121	260.298	-0.100	0.172
-532.106	179.316	-0.067	0.098
-531.091	800.000	0.022	-0.067
-530.077	-33.629	0.304	-0.167
-529.062	-160.956	0.213	0.011
-528.048	54.819	0.140	-0.135
-527.033	218.943	-0.127	-0.202
-526.018	74.607	-0.243	0.255
-525.004	-9.155	-0.130	-0.087
-523.989	800.000	-0.057	0.157
-522.975	155.067	-0.311	0.426
-521.960	-200.000	-0.015	0.330
-520.945	-200.000	0.045	0.249
-519.931	509.808	0.020	0.047
-518.916	-200.000	0.042	0.207
-517.902	-120.111	0.226	0.039
-516.887	-200.000	0.026	0.123
-515.872	1.196	-0.174	0.125
-514.858	-20.728	0.118	0.072
-513.843	14.384	0.106	0.082
-512.829	800.000	0.037	0.160
-511.814	1.506	-0.129	0.093
-510.799	532.015	-0.094	-0.222
-509.785	-200.000	0.010	0.152
-508.770	-37.051	0.238	0.127
-507.756	132.781	-0.159	-0.204
-506.741	-29.724	-0.365	-0.207
-505.726	694.160	-0.089	-0.232
-504.712	-200.000	-0.000	-0.083
-503.697	800.000	0.041	0.177
-502.683	92.801	0.134	0.151
-501.668	-89.590	-0.210	0.062
-500.653	-200.000	-0.009	0.061
-499.639	-200.000	0.046	0.315
-498.624	-79.583	-0.304	-0.102
-497.610	-95.231	-0.111	-0.030
-496.595	108.912	-0.194	0.231
-495.581	10.039	0.365	0.276
-494.566	455.767	0.129	0.284
-493.551	-200.000	0.012	-0.127
-492.537	-101.882	-0.315	0.076
-491.522	-108.856	-0.087	0.019
-490.508	130.842	0.109	-0.139
-489.493	328.720	0.071	-0.135
-488.478	-91.234	0.044	0.013
-487.464	-104.162	0.196	-0.045
-486.449	800.000	0.026	-0.082
-485.435	-33.543	-0.115	0.063
-484.420	158.478	-0.050	-0.069
-483.405	83.605	0.141	-0.154
-482.391	-146.141	0.227	0.020
-481.376	-110.570	0.232	0.048
-480.362	-96.404	-0.139	0.037
-479.347	-149.675	-0.249	-0.020
-478.332	-100.794	0.135	-0.033
-477.318	262.359	0.251	0.433
-476.303	-24.211	-0.191	0.113
-475.289	-81.262	0.115	-0.038
-474.274	-200.000	-0.007	0.216
-473.259	487.418	-0.116	0.263
-472.245	-67.201	0.160	0.063
-471.230	28.607	0.411	0.346
-470.216	-200.000	-0.009	0.337
-469.201	-200.000	0.013	-0.134
-468.186	-61.693	0.277	-0.116
-467.172	62.201	-0.072	-0.072
-466.157	-69.151	-0.152	-0.058
-465.143	-156.294	-0.192	-0.012
-464.128	-60.310	-0.074	0.032
-463.113	800.000	-0.073	-0.315
-462.099	184.905	0.031	0.045
-461.084	800.000	-0.114	-0.409
-460.070	56.974	0.093	-0.091
-459.055	141.648	-0.062	-0.082
-458.040	-200.000	0.014	-0.112
-457.026	-143.457	-0.121	0.011
-456.011	93.702	0.112	0.126
-454.997	-84.026	-0.041	-0.013
-453.982	-143.849	-0.171	0.016
-452.968	-80.542	0.275	0.091
-451.953	-106.140	-0.209	-0.047
-450.938	202.621	-0.254	0.390
-449.924	19.319	0.326	-0.260
-448.909	787.539	0.059	0.162
-447.895	164.236	0.170	0.238
-446.880	185.165	-0.056	0.082
-445.865	-200.000	-0.003	0.385
-444.851	-192.566	-0.283	-0.003
-443.836	-46.198	-0.419	0.205
-442.822	17.663	-0.213	-0.169
-441.807	144.340	-0.217	0.287
-440.792	-200.000	-0.012	-0.126
-439.778	244.975	0.019	-0.031
-438.763	-32.484	0.053	0.030
-437.749	-67.824	0.404	-0.157
-436.734	-80.883	0.220	-0.073
-435.719	-20.946	0.150	0.092
-434.705	-166.831	0.165	0.007
-433.690	583.162	-0.128	0.313
-432.676	800.000	0.031	-0.133
-431.661	-90.237	-0.228	-0.066
-430.646	-200.000	0.005	0.207
-429.632	-35.337	-0.095	0.051
-428.617	130.547	-0.088	-0.112
-427.603	-83.367	0.241	-0.077
-426.588	550.637	0.002	-0.005
-425.573	97.390	0.084	0.095
-424.559	-200.000	-0.015	-0.070
-423.544	28.816	-0.337	-0.283
-422.530	-82.920	0.190	-0.061
-421.515	373.732	-0.081	-0.164
-420.500	-200.000	0.008	0.061
-419.486	414.375	0.041	-0.088
-418.471	5.270	0.336	0.246
-417.457	-119.369	-0.289	0.050
-416.442	1.061	-0.083	0.059
-415.428	800.000	-0.184	-0.508
-414.413	-167.461	-0.454	-0.018
-413.398	-89.985	0.207	-0.060
-412.384	-200.000	0.031	0.196
-411.369	39.036	-0.162	-0.143
-410.355	93.547	0.154	-0.173
-409.340	78.823	-0.158	0.167
-408.325	800.000	0.006	0.023
-407.311	800.000	0.028	-0.089
-406.296	17.815	-0.219	-0.173
-405.282	406.453	-0.063	-0.132
-404.267	85.328	-0.097	-0.106
-403.252	-66.989	-0.227	-0.089
-402.238	-142.198	0.176	0.017
-401.223	374.050	0.125	-0.252
-400.209	-14.156	0.286	0.183
-399.194	800.000	0.111	0.382
-398.179	-200.000	-0.012	0.269
-397.165	6.394	0.208	-0.153
-396.150	95.666	0.120	-0.135
-395.136	-200.000	-0.020	-0.393
-394.121	91.810	0.144	-0.161
-393.106	482.550	0.162	-0.365
-392.092	178.212	0.282	0.409
-391.077	-95.672	0.077	0.021
-390.063	84.679	0.132	0.143
-389.048	2.467	-0.143	-0.103
-388.033	-98.758	-0.081	0.020
-387.019	449.765	0.070	0.153
-386.004	-200.000	-0.022	-0.150
-384.990	-32.875	-0.056	0.031
-383.975	-72.899	-0.187	0.068
-382.960	-113.811	-0.137	-0.027
-381.946	-200.000	0.010	-0.223
-380.931	179.707	0.091	-0.132
-379.917	-69.701	0.357	-0.135
-378.902	-30.302	0.094	0.053
-377.888	-200.000	-0.022	0.213
-376.873	-151.994	0.212	0.015
-375.858	-28.017	0.073	-0.042
-374.844	212.573	0.131	-0.204
-373.829	12.133	0.296	-0.226
-372.815	84.866	0.190	0.206
-371.800	-111.125	-0.140	-0.028
-370.785	83.417	-0.271	0.292
-369.771	123.625	0.117	0.145
-368.756	800.000	-0.054	-0.173
-367.742	800.000	0.096	-0.393
-366.727	250.042	-0.199	-0.335
-365.712	-60.520	0.228	-0.096
-364.698	-200.000	-0.007	-0.103
-363.683	800.000	-0.126	0.389
-362.669	-200.000	0.023	-0.156
-361.654	-200.000	0.004	0.029
-360.639	-130.576	0.267	0.036
-359.625	-200.000	-0.012	-0.330
-358.610	-200.000	0.033	-0.298
-357.596	800.000	0.091	0.291
-356.581	-88.535	-0.440	0.130
-355.566	-37.757	-0.132	0.070
-354.552	-200.000	0.014	-0.099
-353.537	-81.193	-0.218	0.071
-352.523	-200.000	0.010	0.165
-351.508	-67.756	0.145	0.056
-350.493	-102.166	-0.204	-0.048
-349.479	-103.403	-0.437	-0.102
-348.464	150.748	0.148	0.199
-347.450	-183.844	0.216	0.004
-346.435	-100.925	-0.233	0.057
-345.420	-96.182	0.039	-0.010
-344.406	55.117	-0.205	-0.196
-343.391	-200.000	0.041	0.274
-342.377	152.685	-0.140	-0.190
-341.362	800.000	0.011	-0.036
-340.348	-200.000	0.055	0.274
-339.333	18.157	0.195	-0.154
-338.318	201.518	0.221	0.338
-337.304	269.762	-0.198	0.345
-336.289	-81.965	0.060	-0.019
-335.275	-76.368	0.268	-0.093
-334.260	-200.000	0.004	0.043
-333.245	178.536	-0.035	0.050
-332.231	-153.529	0.099	-0.007
-331.216	109.007	0.059	0.070
-330.202	-82.855	-0.200	0.064
-329.187	-89.570	-0.314	-0.091
-328.172	-143.863	-0.315	0.029
-327.158	43.410	0.134	-0.121
-326.143	100.041	-0.134	-0.153
-325.129	17.653	0.279	0.220
-324.114	-200.000	0.067	0.322
-323.099	-200.000	-0.031	0.176
-322.085	57.857	-0.310	-0.300
-321.070	-64.137	-0.295	-0.119
-320.056	-200.000	-0.014	0.087
-319.041	-99.859	-0.153	-0.038
-318.026	-98.139	0.360	-0.092
-317.012	78.696	-0.176	-0.186
-315.997	5.423	0.216	0.158
-314.983	-119.698	-0.253	0.043
-313.968	-200.000	-0.021	0.272
-312.953	-200.000	0.037	-0.275
-311.939	-104.627	0.475	0.108
-310.924	-200.000	0.013	-0.357
-309.910	-135.907	-0.207	-0.024
-308.895	216.832	0.185	0.291
-307.880	44.769	-0.054	0.049
-306.866	-200.000	-0.010	0.130
-305.851	-101.834	-0.131	-0.031
-304.837	699.965	0.050	0.129
-303.822	-69.039	0.159	-0.061
-302.807	-200.000	-0.029	0.207
-301.793	-200.000	0.035	0.468
-300.778	4.199	-0.103	-0.075
-299.764	-200.000	-0.014	0.206
-298.749	320.658	-0.086	0.162
-297.735	-121.287	0.261	0.043
-296.720	235.738	0.132	0.215
-295.705	-107.706	0.212	-0.046
-294.691	-200.000	0.049	-0.428
-293.676	-29.371	-0.339	0.192
-292.662	800.000	-0.066	0.209
-291.647	-175.893	-0.162	-0.004
-290.632	307.744	-0.061	-0.112
-289.618	-200.000	-0.023	-0.211
-288.603	322.195	-0.158	-0.298
-287.589	-84.867	-0.171	0.053
-286.574	-200.000	-0.046	-0.352
-285.559	-200.000	-0.019	-0.150
-284.545	11.610	0.238	-0.180
-283.530	-88.872	0.071	-0.021
-282.516	-58.262	0.193	0.083
-281.501	-200.000	0.018	0.128
-280.486	-133.431	-0.101	0.013
-279.472	-137.610	-0.134	0.015
-278.457	-66.177	-0.122	-0.048
-277.443	-87.010	0.168	0.051
-276.428	-131.531	-0.213	0.028
-275.413	67.518	-0.134	-0.136
-274.399	333.168	-0.174	-0.332
-273.384	-200.000	0.004	-0.116
-272.370	120.554	-0.208	0.256
-271.355	-200.000	0.041	0.201
-270.340	8.661	-0.116	0.086
-269.326	-66.335	-0.117	-0.046
-268.311	636.003	0.017	-0.043
-267.297	-29.579	0.231	-0.130
-266.282	43.013	0.115	-0.104
-265.267	-170.052	0.138	-0.005
-264.253	-85.484	-0.187	0.057
-263.238	370.759	-0.153	-0.307
-262.224	-86.314	0.094	-0.029
-261.209	-102.861	0.126	-0.029
-260.195	81.240	0.147	0.156
-259.180	800.000	-0.051	0.209
-258.165	32.267	0.165	-0.140
-257.151	800.000	0.132	-0.537
-256.136	800.000	-0.153	0.447
-255.122	-62.831	0.215	-0.088
-254.107	-12.710	-0.229	-0.148
-253.092	-136.739	-0.251	-0.029
-252.078	29.587	-0.114	0.096
-251.063	90.130	-0.069	-0.076
-250.049	37.736	0.197	0.173
-249.034	-124.973	-0.188	0.029
-248.019	-156.280	0.344	-0.021
-247.005	-24.783	-0.154	-0.091
-245.990	-200.000	0.020	-0.171
-244.976	93.820	0.102	-0.114
-243.961	-103.318	0.284	-0.066
-242.946	651.046	-0.132	-0.333
-241.932	57.369	0.147	0.141
-240.917	281.041	-0.074	0.131
-239.903	-90.298	0.175	0.050
-238.888	13.363	0.100	-0.076
-237.873	-97.564	0.178	0.045
-236.859	-74.549	0.315	-0.112
-235.844	-45.516	0.213	0.104
-234.830	-200.000	0.053	0.253
-233.815	19.902	-0.178	-0.142
-232.800	-112.659	0.346	-0.068
-231.786	214.119	-0.059	-0.092
-230.771	-200.000	0.046	-0.257
-229.757	380.408	0.100	0.201
-228.742	-158.551	-0.147	0.008
-227.727	-64.483	-0.201	-0.081
-226.713	-149.419	-0.130	-0.010
-225.698	-24.845	-0.114	0.067
-224.684	-157.449	0.573	-0.034
-223.669	-196.517	0.303	-0.002
-222.655	-14.514	-0.159	-0.101
-221.640	-200.000	-0.063	-0.458
-220.625	-200.000	0.062	0.431
-219.611	-56.103	0.125	0.055
-218.596	131.375	0.072	-0.091
-217.582	-60.092	0.034	0.014
-216.567	800.000	-0.007	0.027
-215.552	506.298	-0.030	-0.069
-214.538	124.639	0.099	-0.123
-213.523	-200.000	0.002	-0.206
-212.509	800.000	0.050	-0.137
-211.494	-200.000	-0.009	-0.377
-210.479	-87.193	0.293	0.088
-209.465	-148.900	0.206	-0.016
-208.450	206.457	0.033	0.050
-207.436	-99.169	-0.693	0.173
-206.421	118.292	-0.087	0.106
-205.406	-200.000	-0.005	0.250
-204.392	177.640	-0.204	0.293
-203.377	-200.000	0.001	-0.122
-202.363	216.379	0.067	-0.105
-201.348	-73.595	-0.155	0.056
-200.333	800.000	0.041	0.136
-199.319	299.095	0.043	-0.078
-198.304	-56.912	0.150	0.065
-197.290	143.208	-0.072	-0.094
-196.275	65.780	0.282	-0.282
-195.260	360.816	-0.104	-0.206
-194.246	-65.610	-0.166	-0.065
-193.231	-107.281	0.229	-0.050
-192.217	1.316	0.283	-0.200
-191.202	218.616	-0.086	0.135
-190.187	59.794	0.106	-0.103
-189.173	-122.886	0.377	-0.060
-188.158	28.165	-0.111	0.093
-187.144	-145.208	0.175	0.016
-186.129	490.833	-0.047	0.106
-185.114	-64.676	0.082	0.033
-184.100	-111.932	0.265	0.053
-183.085	274.281	0.076	0.133
-182.071	-200.000	0.006	0.186
-181.056	800.000	0.046	0.163
-180.042	-200.000	-0.060	0.314
-179.027	-82.558	0.191	-0.061
-178.012	-200.000	-0.041	-0.214
-176.998	-86.526	-0.303	0.091
-175.983	-160.125	0.203	0.011
-174.969	29.693	-0.252	0.211
-173.954	-140.823	0.104	0.011
-172.939	-95.669	-0.258	0.068
-171.925	-200.000	-0.018	0.223
-170.910	-91.421	0.305	-0.086
-169.896	-90.180	0.093	0.027
-168.881	-35.989	-0.226	0.120
-167.866	512.324	-0.090	0.207
-166.852	-125.485	-0.323	0.048
-165.837	171.491	-0.049	-0.069
-164.823	-102.524	0.378	0.089
-163.808	-19.812	-0.399	-0.243
-162.793	-167.847	-0.393	-0.015
-161.779	-173.957	-0.319	0.009
-160.764	76.985	0.116	0.121
-159.750	60.165	0.134	-0.130
-158.735	7.353	0.240	-0.176
-157.720	-58.356	-0.316	-0.135
-156.706	18.622	-0.205	0.161
-155.691	-92.839	0.047	0.013
-154.677	63.684	-0.410	-0.405
-153.662	-200.000	-0.002	0.160
-152.647	-140.273	-0.370	-0.038
-151.633	57.748	0.133	0.128
-150.618	-200.000	0.089	-0.419
-149.604	-69.540	0.252	0.095
-148.589	-200.000	0.040	0.262
-147.574	-62.865	-0.330	0.134
-146.560	-95.384	0.196	-0.052
-145.545	-145.349	0.061	0.005
-144.531	-51.691	-0.117	0.054
-143.516	-200.000	-0.013	-0.202
-142.502	800.000	0.080	0.248
-141.487	-200.000	0.009	0.176
-140.472	-2.066	0.161	0.111
-139.458	-49.883	0.098	0.046
-138.443	228.214	-0.117	-0.187
-137.429	44.567	0.103	-0.093
-136.414	-76.058	0.204	-0.071
-135.399	53.578	0.149	0.140
-134.385	88.047	0.089	-0.097
-133.370	76.338	0.102	-0.107
-132.356	145.803	-0.170	0.224
-131.341	-185.703	0.058	-0.001
-130.326	101.061	0.174	0.199
-129.312	-200.000	0.005	0.150
-128.297	-200.000	-0.019	-0.271
-127.283	-200.000	0.031	0.399
-126.268	249.417	-0.039	-0.065
-125.253	151.072	0.070	0.093
-124.239	13.843	0.141	0.108
-123.224	-74.263	0.122	-0.043
-122.210	69.581	0.165	0.167
-121.195	-13.024	0.176	0.112
-120.180	800.000	0.171	0.485
-119.166	-101.862	0.393	0.093
-118.151	-151.522	-0.252	-0.018
-117.137	-108.535	-0.153	0.032
-116.122	800.000	0.122	0.351
-115.107	-200.000	0.041	0.213
-114.093	-200.000	0.046	-0.440
-113.078	31.728	-0.344	-0.291
-112.064	67.236	0.094	0.094
-111.049	-8.855	0.208	-0.137
-110.034	-70.305	0.160	0.060
-109.020	-71.539	0.095	-0.035
-108.005	-177.524	0.145	0.003
-106.991	16.036	-0.159	0.123
-105.976	17.619	0.200	0.156
-104.962	-126.677	0.071	0.010
-103.947	-200.000	-0.019	0.134
-102.932	-33.910	0.105	-0.057
-101.918	-200.000	-0.005	0.177
-100.903	551.657	0.069	-0.161
-99.889	103.069	-0.162	0.187
-98.874	260.088	0.052	0.088
-97.859	332.400	-0.072	0.137
-96.845	-188.688	0.403	-0.005
-95.830	-125.733	-0.161	0.024
-94.816	-200.000	0.057	0.285
-93.801	-200.000	-0.037	0.307
-92.786	202.832	-0.255	0.387
-91.772	-108.509	-0.255	0.054
-90.757	-77.283	-0.100	0.034
-89.743	-192.222	0.245	0.002
-88.728	-5.134	-0.139	-0.094
-87.713	-200.000	-0.053	0.295
-86.699	-200.000	-0.003	-0.144
-85.684	-75.677	-0.269	0.094
-84.670	10.154	-0.206	0.154
-83.655	800.000	0.065	0.239
-82.640	800.000	-0.117	0.334
-81.626	442.816	-0.035	0.076
-80.611	800.000	-0.058	0.227
-79.597	-200.000	-0.007	0.114
-78.582	-124.055	-0.093	0.014
-77.567	280.947	0.049	-0.086
-76.553	-200.000	-0.004	-0.067
-75.538	199.301	0.073	0.110
-74.524	321.000	-0.107	0.199
-73.509	-200.000	0.028	-0.254
-72.494	-11.823	-0.248	0.160
-71.480	-3.794	-0.249	-0.169
-70.465	-113.684	0.203	0.039
-69.451	-99.166	0.078	-0.019
-68.436	-47.246	0.171	-0.082
-67.422	-200.000	0.011	-0.154
-66.407	-35.155	0.092	-0.049
-65.392	-93.038	0.143	0.039
-64.378	-200.000	0.023	-0.188
-63.363	340.052	0.092	-0.176
-62.349	-98.840	0.268	0.067
-61.334	156.589	-0.946	-1.280
-60.319	18.453	0.639	0.500
-59.305	297.538	-0.470	-0.845
-58.290	646.821	0.548	1.372
-57.276	800.000	0.517	1.525
-56.261	-200.000	114.117	661.405
-55.246	549.578	1515.476	3557.167
-54.232	179.442	2681.003	3842.531
-53.217	111.687	2148.891	2539.122
-52.203	39.576	1596.643	1401.304
-51.188	31.261	1343.903	1129.414
-50.173	28.171	1306.286	1079.558
-49.159	55.947	1362.187	1293.572
-48.144	54.763	1376.870	1300.365
-47.130	31.487	1332.037	1120.618
-46.115	27.964	1314.450	1084.903
-45.100	27.858	1309.594	1080.226
-44.086	27.831	1307.110	1077.973
-43.071	27.789	1304.697	1075.694
-42.057	27.701	1303.051	1073.773
-41.042	27.733	1301.214	1072.405
-40.027	27.804	1299.772	1071.596
-39.013	27.749	1298.083	1069.836
-37.998	27.794	1295.775	1068.156
-36.984	27.818	1294.206	1066.960
-35.969	27.881	1292.007	1065.474
-34.954	27.789	1291.051	1064.105
-33.940	27.954	1288.928	1063.271
-32.925	27.952	1287.855	1062.332
-31.911	27.867	1286.614	1060.775
-30.896	27.981	1285.362	1060.363
-29.881	28.050	1284.055	1059.643
-28.867	28.089	1282.501	1058.538
-27.852	27.952	1281.404	1056.804
-26.838	27.982	1280.464	1056.160
-25.823	27.937	1278.753	1054.446
-24.809	27.962	1277.191	1053.257
-23.794	27.935	1275.949	1052.036
-22.779	27.884	1274.557	1050.557
-21.765	28.034	1273.130	1050.199
-20.750	27.996	1271.777	1048.826
-19.736	27.922	1270.590	1047.376
-18.721	27.845	1269.302	1045.835
-17.706	27.833	1268.451	1045.022
-16.692	27.901	1267.300	1044.421
-15.677	27.858	1265.998	1043.062
-14.663	27.808	1265.392	1042.237
-13.648	27.916	1263.710	1041.423
-12.633	27.905	1262.878	1040.634
-11.619	27.761	1262.335	1039.327
-10.604	27.715	1261.641	1038.451
-9.590	27.849	1260.337	1038.101
-8.575	27.858	1259.221	1037.188
-7.560	27.780	1259.241	1036.720
-6.546	27.747	1257.923	1035.410
-5.531	27.678	1257.703	1034.796
-4.517	27.767	1256.325	1034.126
-3.502	27.713	1255.704	1033.268
-2.487	27.761	1254.523	1032.525
-1.473	27.726	1250.399	1028.893
-0.458	26.269	1234.705	1007.820
0.556	23.166	1217.201	969.691
1.571	19.345	1222.674	952.885
2.586	18.293	1237.568	958.519
3.600	18.000	1225.419	947.404
4.615	13.432	1154.426	868.522
5.629	6.440	1082.197	779.609
6.644	3.409	1063.749	751.488
7.659	3.236	1061.818	749.217
8.673	3.092	1060.712	747.667
9.688	3.224	1059.238	747.205
10.702	3.388	1057.421	746.652
11.717	7.431	1062.805	770.045
12.731	15.028	1073.808	815.074
13.746	19.316	1079.053	839.924
14.761	19.869	1079.284	842.721
15.775	19.134	1077.297	837.524
16.790	18.111	1075.132	830.799
17.804	17.403	1074.024	826.429
18.819	17.008	1073.217	823.819
19.834	16.886	1072.285	822.436
20.848	16.748	1071.473	821.071
21.863	16.762	1070.166	820.064
22.877	16.367	1069.760	817.771
23.892	16.380	1069.152	817.294
24.907	16.336	1068.453	816.476
25.921	16.403	1067.331	815.872
26.936	16.493	1065.644	814.940
27.950	16.498	1064.432	813.969
28.965	16.587	1063.076	813.285
29.980	16.714	1061.516	812.628
30.994	16.721	1060.965	812.173
32.009	16.797	1059.580	811.403
33.023	16.844	1058.406	810.658
34.038	16.591	1057.942	809.020
35.053	16.653	1056.359	808.032
36.067	16.575	1055.749	807.124
37.082	16.513	1055.027	806.204
38.096	16.671	1054.865	806.764
39.111	16.743	1053.825	806.238
40.126	16.607	1052.240	804.306
41.140	16.359	1050.754	801.923
42.155	16.265	1049.550	800.487
43.169	16.156	1048.706	799.259
44.184	16.155	1047.924	798.587
45.199	16.185	1046.845	797.833
46.213	16.351	1045.944	797.862
47.228	16.528	1044.836	797.784
48.242	16.567	1043.484	796.863
49.257	16.523	1042.818	796.076
50.271	16.523	1042.262	795.583
51.286	16.562	1040.990	794.724
52.301	16.503	1040.389	793.915
53.315	16.458	1039.045	792.610
54.330	16.203	1038.195	790.695
55.344	16.364	1037.231	790.647
56.359	16.467	1036.330	790.372
57.374	16.315	1035.476	788.942
58.388	16.136	1035.164	787.797
59.403	16.104	1033.917	786.627
60.417	16.241	1032.989	786.489
61.432	16.179	1032.228	785.553
62.447	16.071	1031.279	784.261
63.461	16.041	1030.582	783.520
64.476	16.067	1029.356	782.641
65.490	16.036	1028.819	782.018
66.505	16.081	1028.158	781.654
67.520	16.238	1027.281	781.648
68.534	16.116	1026.902	780.724
69.549	16.003	1026.298	779.672
70.563	16.053	1024.962	778.823
71.578	15.905	1024.123	777.431
72.593	15.964	1023.094	776.851
73.607	15.935	1022.757	776.396
74.622	15.986	1022.507	776.373
75.636	16.034	1021.526	775.778
76.651	15.914	1021.017	774.769
77.666	16.027	1020.494	774.823
78.680	15.992	1019.926	774.164
79.695	16.002	1019.205	773.595
80.709	16.227	1018.425	773.968
81.724	16.260	1017.621	773.440
82.739	16.290	1017.303	773.263
83.753	16.519	1016.224	773.425
84.768	16.818	1015.513	774.181
85.782	16.889	1015.204	774.200
86.797	16.704	1014.230	772.543
87.812	16.529	1013.136	770.845
88.826	16.458	1012.533	769.995
89.841	16.596	1011.331	769.643
90.855	16.769	1010.059	769.390
91.870	16.733	1009.685	768.873
92.884	16.719	1008.582	767.902
93.899	16.752	1007.875	767.445
94.914	16.801	1007.217	767.102
95.928	16.779	1006.206	766.162
96.943	16.714	1005.174	765.016
97.957	16.669	1004.178	763.986
98.972	16.816	1003.248	763.873
99.987	16.751	1002.336	762.820
101.001	16.659	1001.694	761.847
102.016	16.623	1001.017	761.103
103.030	16.731	999.716	760.535
104.045	16.613	999.284	759.609
105.060	16.663	998.023	758.806
106.074	16.357	997.033	756.616
107.089	16.182	995.955	754.947
108.103	16.170	995.017	754.119
109.118	16.092	994.017	752.944
110.133	16.071	992.947	751.973
111.147	16.094	991.881	751.202
112.162	16.089	991.679	750.960
113.176	16.335	991.228	751.648
114.191	16.384	990.393	751.165
115.206	16.337	989.523	750.228
116.220	16.258	988.550	749.075
117.235	16.380	987.276	748.584
118.249	16.110	986.706	746.890
119.264	16.067	985.539	745.749
120.279	16.041	985.397	745.464
121.293	16.007	984.135	744.293
122.308	16.090	983.139	743.836
123.322	16.036	982.200	742.824
124.337	16.045	981.366	742.168
125.352	16.101	979.850	741.203
126.366	16.024	979.087	740.222
127.381	16.084	978.323	739.840
128.395	15.997	977.414	738.705
129.410	16.163	976.451	738.640
130.424	16.141	975.614	737.846
131.439	16.198	975.025	737.585
132.454	16.344	974.327	737.627
133.468	16.312	973.592	736.867
134.483	16.376	972.506	736.259
135.497	16.312	971.289	734.994
136.512	16.317	970.865	734.629
137.527	16.329	970.111	734.046
138.541	16.360	969.483	733.639
139.556	16.366	968.748	733.044
140.570	16.463	967.974	732.817
141.585	16.717	967.206	733.268
142.600	16.676	966.445	732.451
143.614	16.750	965.751	732.179
144.629	16.788	965.115	731.799
145.643	16.820	963.465	730.620
146.658	16.634	962.893	729.319
147.673	16.424	962.073	727.731
148.687	16.346	961.006	726.522
149.702	16.346	960.397	725.997
150.716	16.368	959.114	725.060
151.731	16.352	958.655	724.577
152.746	16.501	957.742	724.461
153.760	16.348	957.446	723.520
154.775	16.590	956.677	723.910
155.789	16.579	956.061	723.332
156.804	16.552	955.268	722.554
157.819	16.655	954.783	722.561
158.833	16.752	954.445	722.657
159.848	16.834	953.177	721.981
160.862	16.681	952.200	720.527
161.877	16.569	951.047	719.116
162.892	16.408	949.680	717.332
163.906	16.346	949.109	716.573
164.921	16.434	948.226	716.220
165.935	16.573	947.101	715.892
166.950	16.636	946.312	715.500
167.964	16.599	945.597	714.739
168.979	16.536	944.743	713.763
169.994	16.536	943.633	712.863
171.008	16.564	943.274	712.649
172.023	16.666	943.095	712.879
173.037	16.845	941.917	712.677
174.052	16.752	941.299	711.758
175.067	16.464	941.085	710.322
176.081	16.449	940.113	709.461
177.096	16.398	939.697	708.871
178.110	16.560	938.823	708.829
179.125	16.589	938.336	708.520
180.140	16.547	938.069	708.081
181.154	16.721	937.603	708.394
182.169	16.878	936.967	708.507
183.183	16.890	936.061	707.807
184.198	16.814	935.460	706.975
185.213	16.815	934.617	706.279
186.227	16.793	933.913	705.591
187.242	16.931	933.525	705.810
188.256	17.077	933.286	706.177
189.271	17.108	931.658	705.011
190.286	16.855	931.070	703.453
191.300	16.403	929.805	700.563
192.315	16.424	929.355	700.246
193.329	16.433	929.108	700.035
194.344	16.535	928.689	700.080
195.359	16.585	928.003	699.708
196.373	16.868	927.226	700.230
197.388	16.979	927.509	700.839
198.402	17.140	926.581	700.743
199.417	17.172	926.164	700.495
200.432	17.324	925.308	700.414
201.446	17.336	925.065	700.216
202.461	17.278	924.762	699.687
203.475	17.181	924.037	698.675
204.490	17.126	922.915	697.540
205.504	17.074	922.005	696.577
206.519	16.977	921.641	695.844
207.534	17.012	920.772	695.270
208.548	17.131	920.003	695.115
209.563	17.124	919.235	694.445
210.577	17.074	918.591	693.691
211.592	17.273	918.173	694.129
212.607	17.272	917.527	693.573
213.621	17.233	916.865	692.855
214.636	17.242	916.009	692.180
215.650	17.159	915.582	691.459
216.665	17.424	914.480	691.645
217.680	17.324	914.282	691.027
218.694	17.401	913.327	690.554
219.709	17.454	912.628	690.181
220.723	17.354	911.994	689.237
221.738	17.396	911.190	688.735
222.753	17.346	910.774	688.159
223.767	17.478	910.290	688.267
224.782	17.611	909.621	688.239
225.796	17.500	909.404	687.562
226.811	17.439	908.660	686.694
227.826	17.409	907.599	685.709
228.840	17.411	906.963	685.176
229.855	17.359	906.209	684.340
230.869	17.190	905.600	683.138
231.884	17.418	904.595	683.234
232.899	17.259	904.156	682.206
233.913	17.279	903.261	681.551
234.928	17.226	902.736	680.882
235.942	17.096	902.305	679.974
236.957	17.208	901.708	679.913
237.972	17.240	900.730	679.242
238.986	17.242	900.175	678.773
240.001	17.269	899.379	678.218
241.015	17.328	899.002	678.113
242.030	17.313	899.058	678.033
243.045	17.330	898.197	677.393
244.059	17.454	897.559	677.344
245.074	17.388	896.763	676.422
246.088	17.554	895.915	676.382
247.103	17.720	895.766	676.867
248.117	17.689	895.341	676.366
249.132	18.041	895.074	677.497
250.147	18.110	894.275	677.107
251.161	18.159	893.545	676.686
252.176	18.123	893.022	676.089
253.190	18.155	892.494	675.756
254.205	18.191	892.046	675.500
255.220	18.089	891.094	674.315
256.234	18.134	890.528	674.007
257.249	18.103	890.101	673.503
258.263	17.991	889.167	672.295
259.278	18.189	888.161	672.251
260.293	18.305	887.761	672.347
261.307	18.260	887.666	672.036
262.322	18.218	886.804	671.162
263.336	18.338	885.936	670.916
264.351	18.337	885.276	670.353
265.366	18.366	884.637	669.920
266.380	18.208	884.173	668.893
267.395	18.364	882.616	668.266
268.409	18.219	882.401	667.479
269.424	18.301	881.298	666.902
270.439	18.057	881.294	665.892
271.453	18.082	880.193	665.097
272.468	18.107	879.801	664.838
273.482	18.072	879.067	664.088
274.497	18.107	878.715	663.902
275.512	18.171	877.859	663.446
276.526	18.163	877.714	663.245
277.541	18.213	877.180	662.977
278.555	18.246	876.913	662.842
279.570	18.484	875.984	663.002
280.585	18.445	874.961	662.018
281.599	18.503	874.044	661.493
282.614	18.190	874.129	660.290
283.628	18.224	873.074	659.564
284.643	18.181	872.592	658.977
285.657	18.191	871.932	658.458
286.672	18.467	871.025	658.776
287.687	18.407	870.427	658.035
288.701	18.398	870.080	657.679
289.716	18.445	869.620	657.455
290.730	18.380	868.910	656.612
291.745	18.437	868.423	656.401
292.760	18.356	867.885	655.628
293.774	18.572	867.496	656.103
294.789	18.567	866.581	655.331
295.803	18.525	865.413	654.231
296.818	18.342	864.906	653.093
297.833	18.486	864.051	652.938
298.847	18.315	864.332	652.440
299.862	18.418	863.495	652.142
300.876	18.605	863.065	652.472
301.891	18.795	862.392	652.628
302.906	18.770	861.669	651.929
303.920	18.824	861.720	652.115
304.935	18.913	861.113	651.933
305.949	18.839	859.950	650.717
306.964	18.841	859.610	650.407
307.979	18.684	858.929	649.241
308.993	18.895	858.169	649.408
310.008	18.926	857.675	649.095
311.022	18.824	857.471	648.497
312.037	18.627	856.369	646.863
313.052	18.524	856.121	646.230
314.066	18.484	855.630	645.654
315.081	18.429	854.709	644.692
316.095	18.566	853.820	644.478
317.110	18.394	853.625	643.628
318.125	18.541	853.194	643.800
319.139	18.571	852.862	643.606
320.154	18.573	852.644	643.392
321.168	18.787	851.249	643.082
322.183	18.562	850.678	641.752
323.197	18.729	850.532	642.211
324.212	18.786	849.901	641.890
325.227	18.748	849.171	641.139
326.241	18.785	848.459	640.683
327.256	18.628	848.205	639.851
328.270	18.593	847.877	639.415
329.285	18.620	846.992	638.791
330.300	18.611	846.327	638.199
331.314	18.625	845.956	637.916
332.329	18.886	845.405	638.415
333.343	18.907	845.266	638.329
334.358	18.916	844.610	637.810
335.373	18.928	844.533	637.741
336.387	19.128	843.801	637.874
337.402	19.079	843.861	637.681
338.416	19.275	843.814	638.314
339.431	19.248	843.025	637.563
340.446	19.225	842.903	637.330
341.460	19.289	842.430	637.151
342.475	19.472	841.899	637.369
343.489	19.279	841.914	636.611
344.504	19.568	841.457	637.275
345.519	19.549	840.856	636.693
346.533	19.373	840.180	635.476
347.548	19.125	839.515	634.005
348.562	19.183	838.866	633.672
349.577	19.128	838.282	632.972
350.592	19.103	837.538	632.264
351.606	18.938	836.813	631.055
352.621	19.123	836.300	631.288
353.635	19.194	835.549	630.926
354.650	19.125	835.161	630.324
355.665	19.212	834.647	630.201
356.679	19.241	833.966	629.738
357.694	19.315	833.194	629.367
358.708	19.404	832.444	629.070
359.723	19.373	831.875	628.472
360.738	19.506	831.124	628.334
361.752	19.330	830.713	627.325
362.767	19.541	830.215	627.661
363.781	19.648	829.388	627.368
364.796	19.571	829.608	627.202
365.810	19.803	829.131	627.627
366.825	19.687	828.945	627.009
367.840	19.873	828.045	626.946
368.854	19.703	827.352	625.751
369.869	19.667	827.269	625.503
370.883	19.680	826.680	625.051
371.898	19.629	826.866	624.951
372.913	19.713	826.408	624.853
373.927	19.702	825.631	624.172
374.942	19.793	825.256	624.159
375.956	19.960	824.638	624.238
376.971	19.846	824.351	623.558
377.986	20.010	823.875	623.730
379.000	20.004	823.240	623.173
380.015	19.847	822.977	622.354
381.029	19.849	822.360	621.842
382.044	20.001	821.422	621.622
383.059	20.123	820.950	621.648
384.073	19.911	820.444	620.448
385.088	19.718	819.854	619.257
386.102	19.703	818.820	618.366
387.117	19.633	818.552	617.861
388.132	19.664	817.818	617.362
389.146	19.861	816.961	617.364
390.161	19.997	817.119	617.912
391.175	19.967	816.536	617.312
392.190	19.745	816.033	616.086
393.205	19.920	815.332	616.124
394.219	19.766	815.146	615.381
395.234	19.783	814.526	614.919
396.248	19.575	814.081	613.788
397.263	19.610	813.641	613.527
398.278	19.719	813.031	613.399
399.292	19.665	813.005	613.134
400.307	19.747	812.259	612.807
401.321	19.674	811.941	612.256
402.336	19.677	811.631	611.978
403.350	19.815	811.145	612.044
404.365	19.838	810.563	611.632
405.380	20.000	810.230	611.900
406.394	20.193	809.493	611.973
407.409	20.180	809.436	611.829
408.423	20.204	809.116	611.615
409.438	20.242	808.863	611.505
410.453	20.288	808.464	611.311
411.467	20.374	807.688	610.972
412.482	20.466	807.782	611.315
413.496	20.442	807.389	610.880
414.511	20.391	807.047	610.386
415.526	20.305	806.394	609.535
416.540	20.474	805.384	609.311
417.555	20.446	805.192	609.014
418.569	20.264	805.246	608.364
419.584	20.539	804.290	608.551
420.599	20.341	803.921	607.526
421.613	161.280	1373.273	1795.920
422.628	140.105	1456.227	1795.981
