DTS Sentinel unit serial number:	SN413079Multiplexer serial number:	ORYXHardware model number:	OX4-SRSoftware version number:	ORYX F/W v4.00 Oryx Data Collector v3.7.2.0data status	okinstallation	princeton_trtdifferential loss correction	single-endedforward channel	channel 1reverse channel	N/Adate	2019/09/12time	19:37:34forward acquisition time	15.00reverse acquisition time	0.00gamma	496.2192k internal	0.2323k external	0.2323temperature offset calibration	1.0137default loss term (dB/km)	0.3790temperature slope calibration	1.0000multiplexer offset coefficient	1.0000multiplexer slope coefficient	1.0000fibre end	0.00T internal ref (°C)	32.12T ext. ref 1 (°C)	3.42T ext. ref 2 (°C)	26.67length (m)	temperature (°C)	Stokes	anti-Stokes-747.200	426.738	-0.194	-0.423
-746.185	-200.000	-0.018	-0.449
-745.171	45.175	-0.366	-0.340
-744.156	166.574	0.457	0.654
-743.142	-200.000	-0.046	-0.230
-742.127	-83.503	-0.630	-0.204
-741.112	-94.919	0.638	-0.174
-740.098	-164.778	-1.441	0.065
-739.083	-200.000	-0.053	0.549
-738.069	-73.466	0.748	0.276
-737.054	104.284	0.578	0.687
-736.039	-30.793	-0.644	-0.368
-735.025	-36.747	0.221	-0.120
-734.010	51.445	-0.757	-0.726
-732.996	-200.000	0.045	-0.364
-731.981	-200.000	-0.109	-0.850
-730.966	250.094	0.567	-0.971
-729.952	-200.000	0.010	-0.172
-728.937	100.311	-0.097	-0.113
-727.923	65.000	-0.139	0.142
-726.908	63.882	-0.627	0.636
-725.894	-131.365	-0.228	-0.030
-724.879	36.602	-0.296	0.264
-723.864	86.371	-0.346	-0.385
-722.850	90.671	0.500	-0.565
-721.835	325.582	0.320	-0.619
-720.821	-28.679	-0.715	-0.415
-719.806	-200.000	-0.030	0.615
-718.791	-114.448	-0.663	0.129
-717.777	51.208	-0.560	0.536
-716.762	-200.000	-0.103	-0.606
-715.748	-200.000	-0.034	-0.758
-714.733	-93.793	-0.658	-0.183
-713.718	-93.702	-0.180	0.050
-712.704	194.230	0.335	0.512
-711.689	-200.000	0.076	-0.465
-710.675	-112.904	-0.580	0.116
-709.660	800.000	0.245	-1.071
-708.645	-129.840	0.307	0.043
-707.631	146.035	-0.223	-0.301
-706.616	249.635	-0.350	0.599
-705.602	800.000	0.161	0.619
-704.587	203.367	0.141	0.221
-703.572	721.977	0.118	-0.318
-702.558	26.493	0.575	0.485
-701.543	757.673	0.304	0.831
-700.529	72.317	-0.206	0.216
-699.514	800.000	-0.087	-0.261
-698.499	-88.631	0.178	-0.053
-697.485	-162.912	0.384	0.019
-696.470	327.805	-0.162	-0.313
-695.456	-91.099	-0.721	0.209
-694.441	467.560	0.140	0.315
-693.426	567.616	0.037	-0.091
-692.412	554.049	0.171	0.414
-691.397	147.410	-0.202	0.275
-690.383	366.769	-0.186	0.377
-689.368	76.846	0.161	-0.173
-688.354	-200.000	0.100	-1.142
-687.339	-200.000	0.032	-0.591
-686.324	377.822	0.260	-0.536
-685.310	239.734	0.296	0.496
-684.295	-31.932	-0.260	0.147
-683.281	200.705	0.237	-0.367
-682.266	-7.930	0.650	-0.442
-681.251	-125.377	0.492	-0.076
-680.237	17.990	0.170	0.137
-679.222	24.361	0.710	0.591
-678.208	403.249	0.122	-0.258
-677.193	96.213	0.106	-0.122
-676.178	-76.645	0.246	-0.087
-675.164	638.325	0.256	-0.654
-674.149	-200.000	0.012	-0.058
-673.135	-133.962	-0.325	0.041
-672.120	-81.166	-0.137	0.046
-671.105	-123.253	0.075	0.012
-670.091	-62.824	0.915	0.381
-669.076	21.123	0.528	-0.431
-668.062	-200.000	-0.162	-0.872
-667.047	-85.232	-0.315	-0.099
-666.032	-200.000	-0.011	-0.186
-665.018	-163.963	0.885	0.041
-664.003	-160.058	0.127	0.007
-662.989	-200.000	0.006	0.123
-661.974	63.664	0.285	-0.288
-660.959	-200.000	0.007	-0.913
-659.945	-10.403	-0.896	-0.598
-658.930	800.000	0.123	0.451
-657.916	108.861	-0.384	0.462
-656.901	-200.000	-0.019	-0.396
-655.886	-200.000	-0.163	-0.727
-654.872	48.355	-0.420	-0.396
-653.857	800.000	0.196	-0.698
-652.843	141.419	-0.572	-0.762
-651.828	317.601	0.040	-0.077
-650.814	-99.400	-0.310	0.079
-649.799	-200.000	-0.047	-0.299
-648.784	-14.496	0.240	-0.156
-647.770	215.713	0.458	0.732
-646.755	-140.167	-1.122	0.119
-645.741	433.691	-0.342	0.746
-644.726	-34.834	-0.250	-0.138
-643.711	-124.254	1.065	0.168
-642.697	-188.155	-0.058	-0.001
-641.682	-102.683	-0.820	-0.197
-640.668	-200.000	-0.020	0.332
-639.653	30.173	-0.387	0.332
-638.638	-131.292	-0.495	-0.066
-637.624	277.696	-0.164	-0.293
-636.609	-68.337	-0.547	-0.214
-635.595	-28.915	-1.123	0.649
-634.580	-126.359	-0.574	0.086
-633.565	324.126	-0.198	-0.380
-632.551	-115.561	-0.841	0.159
-631.536	-42.721	-0.262	0.134
-630.522	78.201	0.107	-0.114
-629.507	-200.000	-0.116	0.908
-628.492	742.142	0.286	-0.774
-627.478	-200.000	0.069	0.325
-626.463	-200.000	-0.052	-0.232
-625.449	-94.853	0.207	-0.056
-624.434	59.809	-0.417	-0.414
-623.419	57.583	0.172	0.169
-622.405	-200.000	-0.075	0.689
-621.390	800.000	0.244	-0.886
-620.376	-49.993	-0.312	-0.149
-619.361	-200.000	0.139	1.142
-618.346	77.063	-0.350	0.374
-617.332	-179.636	0.253	0.006
-616.317	-24.900	-0.888	0.530
-615.303	230.542	0.101	-0.166
-614.288	800.000	-0.100	-0.360
-613.273	-44.596	-0.544	-0.273
-612.259	800.000	-0.150	-0.433
-611.244	11.286	0.178	0.137
-610.230	121.763	-0.355	0.445
-609.215	225.930	-0.386	-0.628
-608.201	-86.649	1.392	0.428
-607.186	223.607	0.262	0.424
-606.171	68.418	-0.269	0.277
-605.157	-79.702	0.193	0.065
-604.142	-200.000	-0.011	-0.615
-603.128	577.322	0.184	-0.451
-602.113	-54.278	-1.118	0.510
-601.098	142.660	0.206	-0.275
-600.084	27.082	0.264	-0.223
-599.069	-200.000	0.062	-0.370
-598.055	-200.000	-0.003	-0.034
-597.040	133.120	-0.533	-0.691
-596.025	800.000	-0.076	-0.325
-595.011	-26.600	-0.837	0.492
-593.996	159.482	0.071	0.099
-592.982	71.054	0.324	-0.338
-591.967	8.316	-0.628	0.474
-590.952	489.237	0.385	-0.884
-589.938	-200.000	0.036	0.338
-588.923	-200.000	0.066	0.664
-587.909	-119.072	0.761	-0.134
-586.894	-18.690	0.749	-0.469
-585.879	468.400	-0.223	-0.503
-584.865	-71.909	-0.811	-0.303
-583.850	800.000	-0.136	0.463
-582.836	-105.953	0.553	0.125
-581.821	127.903	-0.183	-0.234
-580.806	-200.000	0.011	0.122
-579.792	59.068	0.433	-0.428
-578.777	1.326	-0.843	-0.608
-577.763	431.819	-0.510	1.109
-576.748	94.986	0.908	-1.037
-575.733	-0.222	0.260	-0.186
-574.719	800.000	0.322	0.962
-573.704	-39.324	-0.616	0.325
-572.690	-122.109	0.283	-0.047
-571.675	-0.526	0.380	-0.270
-570.661	162.859	0.261	-0.367
-569.646	207.304	-0.471	-0.737
-568.631	114.803	-0.355	0.434
-567.617	29.312	-0.455	-0.387
-566.602	-200.000	0.027	0.201
-565.588	142.987	0.451	-0.602
-564.573	800.000	-0.257	-1.038
-563.558	85.401	0.318	-0.350
-562.544	156.340	0.209	-0.289
-561.529	-45.524	0.651	-0.323
-560.515	-200.000	-0.102	-1.061
-559.500	-15.620	-0.795	-0.508
-558.485	-121.579	-0.527	0.088
-557.471	-46.449	0.582	0.286
-556.456	-200.000	0.003	0.245
-555.442	-64.012	-0.851	0.349
-554.427	-17.023	0.225	0.142
-553.412	148.311	-0.343	0.464
-552.398	23.620	0.530	-0.437
-551.383	230.516	-0.557	0.913
-550.369	800.000	0.063	-0.230
-549.354	107.025	-0.455	0.542
-548.339	369.511	-0.199	0.405
-547.325	17.995	0.229	-0.183
-546.310	117.060	-0.721	-0.888
-545.296	736.526	0.369	0.991
-544.281	-9.482	-0.144	0.096
-543.266	158.225	0.323	-0.449
-542.252	-96.032	0.463	0.123
-541.237	-200.000	-0.029	0.386
-540.223	-200.000	-0.039	-0.195
-539.208	219.910	0.525	0.842
-538.193	-140.158	-0.444	-0.047
-537.179	-69.778	-0.571	-0.218
-536.164	91.190	0.260	-0.293
-535.150	53.626	0.116	-0.112
-534.135	767.576	0.011	0.030
-533.121	-200.000	-0.047	-0.468
-532.106	618.769	-0.122	0.308
-531.091	68.244	-0.338	0.347
-530.077	-142.904	0.733	-0.071
-529.062	390.556	0.215	0.447
-528.048	-64.344	-0.230	0.094
-527.033	213.021	0.038	-0.061
-526.018	56.976	0.438	0.427
-525.004	-22.021	-0.245	0.149
-523.989	-19.755	-0.368	0.228
-522.975	800.000	0.115	-0.433
-521.960	145.149	-0.464	0.622
-520.945	18.609	0.367	0.294
-519.931	-0.530	-0.354	0.251
-518.916	486.773	-0.332	0.758
-517.902	-200.000	-0.006	-0.237
-516.887	8.977	0.663	0.501
-515.872	-96.148	0.476	0.127
-514.858	-111.099	0.820	0.168
-513.843	236.558	-0.197	-0.327
-512.829	800.000	-0.099	0.420
-511.814	164.614	-0.498	-0.702
-510.799	105.702	0.632	0.748
-509.785	-200.000	-0.038	0.469
-508.770	149.451	0.392	0.531
-507.756	58.719	-0.163	0.161
-506.741	157.679	0.589	0.816
-505.726	-200.000	0.066	-0.588
-504.712	-190.485	-0.746	0.008
-503.697	-200.000	0.031	-0.501
-502.683	333.822	0.111	-0.214
-501.668	670.438	0.121	0.314
-500.653	116.580	0.093	-0.114
-499.639	230.413	0.158	0.259
-498.624	366.358	-0.360	0.727
-497.610	-135.064	-0.691	-0.083
-496.595	-200.000	-0.024	0.414
-495.581	354.654	0.186	-0.370
-494.566	-200.000	-0.040	-0.189
-493.551	-150.894	0.783	-0.059
-492.537	-69.044	-0.319	0.123
-491.522	-200.000	-0.008	0.259
-490.508	-146.083	-1.089	0.096
-489.493	217.794	0.388	0.618
-488.478	69.134	0.377	0.388
-487.464	165.389	-0.475	-0.672
-486.449	48.791	-0.199	0.187
-485.435	-100.564	-0.887	-0.219
-484.420	800.000	0.053	0.188
-483.405	-98.947	-0.280	-0.071
-482.391	-112.190	-0.569	0.114
-481.376	103.178	-0.348	0.408
-480.362	-64.914	0.648	-0.262
-479.347	105.323	-0.209	-0.247
-478.332	255.821	-0.231	0.396
-477.318	466.941	-0.182	-0.408
-476.303	692.112	-0.205	0.538
-475.289	-154.861	-0.178	0.012
-474.274	-200.000	0.005	-1.395
-473.259	800.000	0.236	0.935
-472.245	693.159	0.078	0.206
-471.230	-142.947	0.853	-0.083
-470.216	-39.197	0.132	0.069
-469.201	3.206	0.451	0.328
-468.186	22.716	-0.173	0.142
-467.172	-102.201	0.532	-0.128
-466.157	50.729	0.962	0.910
-465.143	51.857	0.548	0.521
-464.128	-200.000	-0.027	0.612
-463.113	-102.389	0.165	-0.039
-462.099	217.756	0.095	0.151
-461.084	-80.437	0.528	0.176
-460.070	19.934	0.793	0.638
-459.055	-67.001	0.853	0.336
-458.040	34.600	0.657	-0.573
-457.026	120.045	-0.203	0.251
-456.011	271.198	-0.148	0.260
-454.997	95.314	0.637	0.724
-453.982	-20.507	0.390	-0.240
-452.968	97.324	0.500	0.573
-451.953	-200.000	-0.033	-0.235
-450.938	25.937	-0.639	-0.532
-449.924	11.514	-0.362	-0.277
-448.909	-19.340	-0.767	0.475
-447.895	509.917	-0.154	-0.357
-446.880	-128.629	-0.424	0.060
-445.865	-200.000	-0.038	0.308
-444.851	-200.000	-0.177	-0.822
-443.836	209.546	-0.224	0.351
-442.822	12.836	0.400	0.308
-441.807	-10.993	-0.834	0.550
-440.792	-52.267	0.391	-0.181
-439.778	-139.929	0.442	-0.047
-438.763	-25.006	-0.623	0.369
-437.749	-200.000	-0.167	-0.763
-436.734	-200.000	0.008	-0.470
-435.719	53.137	0.853	-0.815
-434.705	-200.000	0.079	-0.422
-433.690	-111.773	0.241	0.049
-432.676	-111.732	-0.426	0.086
-431.661	-200.000	-0.038	-0.181
-430.646	195.781	-0.584	-0.886
-429.632	3.357	-0.492	0.358
-428.617	-34.275	-0.489	0.268
-427.603	284.343	-0.197	-0.354
-426.588	105.830	-0.086	-0.101
-425.573	626.818	0.178	0.449
-424.559	-200.000	0.001	0.516
-423.544	-200.000	-0.009	-0.302
-422.530	-123.624	-0.839	0.133
-421.515	-37.347	0.694	-0.370
-420.500	-200.000	0.100	-0.749
-419.486	119.192	-0.416	0.513
-418.471	-200.000	-0.060	-0.654
-417.457	-200.000	-0.006	0.679
-416.442	-105.094	-0.429	0.098
-415.428	-200.000	-0.142	1.096
-414.413	75.426	1.033	1.087
-413.398	800.000	0.150	0.636
-412.384	127.250	-0.402	-0.508
-411.369	548.537	-0.145	0.345
-410.355	800.000	-0.131	0.481
-409.340	-15.648	0.245	-0.156
-408.325	-200.000	-0.037	-0.253
-407.311	-99.607	0.579	-0.145
-406.296	-11.426	0.216	0.142
-405.282	29.620	0.684	-0.580
-404.267	680.119	0.085	0.220
-403.252	112.482	-0.203	0.245
-402.238	-82.425	-0.407	0.132
-401.223	293.003	0.285	-0.518
-400.209	-200.000	0.065	-1.309
-399.194	128.100	0.563	-0.713
-398.179	72.627	0.410	-0.426
-397.165	-116.213	-0.409	0.076
-396.150	133.207	-0.319	-0.410
-395.136	-107.933	-0.728	-0.158
-394.121	-66.477	0.553	0.219
-393.106	650.928	0.111	-0.284
-392.092	108.250	0.085	0.101
-391.077	-200.000	-0.125	0.635
-390.063	30.556	0.541	-0.461
-389.048	-200.000	-0.007	-0.395
-388.033	253.885	0.562	-0.957
-387.019	72.496	0.220	-0.229
-386.004	409.803	-0.154	0.325
-384.990	47.070	-0.334	-0.309
-383.975	22.088	-0.450	0.366
-382.960	800.000	-0.008	-0.024
-381.946	52.350	-0.451	-0.428
-380.931	-166.191	0.407	-0.017
-379.917	-143.325	-0.550	-0.053
-378.902	-56.688	0.713	-0.314
-377.888	-66.864	-0.181	-0.071
-376.873	388.305	0.505	-1.041
-375.858	-120.329	0.002	0.000
-374.844	-124.926	0.270	0.041
-373.829	-64.032	0.410	0.167
-372.815	574.171	-0.224	0.545
-371.800	581.437	0.144	-0.352
-370.785	5.330	-0.382	0.280
-369.771	-41.831	-0.271	0.138
-368.756	-52.005	-0.095	-0.044
-367.742	-139.871	0.269	-0.028
-366.727	661.692	0.196	-0.502
-365.712	50.906	0.182	0.172
-364.698	36.401	0.567	-0.497
-363.683	-200.000	0.111	0.551
-362.669	156.287	-0.248	0.341
-361.654	-4.183	0.888	-0.612
-360.639	218.233	-0.614	0.975
-359.625	4.360	0.229	0.167
-358.610	-200.000	0.072	-0.353
-357.596	-6.065	0.515	-0.350
-356.581	175.664	-0.733	-1.057
-355.566	-200.000	0.003	-0.842
-354.552	-9.848	0.870	0.576
-353.537	-200.000	0.060	-1.186
-352.523	753.051	0.187	0.503
-351.508	104.671	-0.395	0.463
-350.493	-47.194	-0.166	0.081
-349.479	-62.935	-0.151	-0.062
-348.464	-29.990	-0.808	-0.457
-347.450	-200.000	0.037	0.671
-346.435	451.944	-0.080	0.176
-345.420	-161.267	0.371	0.019
-344.406	422.412	-0.138	0.294
-343.391	158.237	-0.421	0.581
-342.377	122.461	0.612	0.760
-341.362	103.287	0.238	0.277
-340.348	800.000	-0.037	0.153
-339.333	87.679	-0.213	-0.235
-338.318	-98.291	0.681	-0.174
-337.304	-200.000	0.047	0.525
-336.289	-125.565	-0.303	0.046
-335.275	87.484	-0.557	-0.613
-334.260	-200.000	0.011	-0.299
-333.245	98.027	0.485	0.555
-332.231	-200.000	-0.108	-0.472
-331.216	-200.000	0.034	-0.462
-330.202	410.160	-0.296	-0.625
-329.187	348.695	-0.274	0.537
-328.172	386.286	0.163	-0.334
-327.158	800.000	-0.188	-0.786
-326.143	800.000	0.144	0.560
-325.129	-51.263	0.563	-0.262
-324.114	-82.055	0.270	-0.088
-323.099	144.023	0.138	-0.183
-322.085	34.578	-0.673	0.584
-321.070	-200.000	0.065	-0.777
-320.056	109.988	-0.159	0.189
-319.041	148.717	-0.148	-0.199
-318.026	27.719	-0.304	0.254
-317.012	70.984	0.406	0.418
-315.997	-60.099	0.550	-0.233
-314.983	225.233	0.386	0.621
-313.968	-147.210	-1.076	-0.091
-312.953	48.707	-0.169	-0.157
-311.939	-91.348	0.779	-0.221
-310.924	353.646	-0.316	0.623
-309.910	-200.000	0.102	0.497
-308.895	30.324	0.343	0.290
-307.880	25.075	0.256	-0.211
-306.866	800.000	0.234	-0.760
-305.851	-38.276	-0.515	0.271
-304.837	225.196	-0.128	0.206
-303.822	-200.000	0.019	-0.788
-302.807	55.647	0.428	-0.412
-301.793	800.000	-0.211	-0.727
-300.778	-120.383	-0.662	-0.112
-299.764	-81.779	-1.127	-0.366
-298.749	-135.172	-0.885	-0.106
-297.735	-130.373	0.741	-0.100
-296.720	-109.000	0.675	-0.143
-295.705	77.218	-0.545	-0.575
-294.691	206.413	-0.138	-0.213
-293.676	800.000	0.091	0.345
-292.662	10.229	0.189	0.143
-291.647	-200.000	0.175	-1.142
-290.632	565.488	0.249	0.598
-289.618	-31.245	0.386	-0.216
-288.603	800.000	0.046	0.143
-287.589	-130.332	-0.670	0.090
-286.574	-97.891	0.834	0.214
-285.559	466.380	-0.266	0.591
-284.545	109.302	0.502	0.597
-283.530	800.000	0.075	-0.299
-282.516	36.418	0.622	0.544
-281.501	800.000	-0.084	-0.281
-280.486	-75.275	-0.119	-0.042
-279.472	800.000	-0.117	-0.428
-278.457	-124.669	0.137	-0.021
-277.443	-200.000	0.077	0.602
-276.428	411.974	-0.250	0.526
-275.413	-116.531	-0.622	-0.114
-274.399	-30.477	0.814	-0.458
-273.384	-91.282	0.415	-0.118
-272.370	640.935	-0.028	0.070
-271.355	-123.073	0.846	0.135
-270.340	-100.081	-0.700	-0.173
-269.326	-200.000	-0.031	-0.456
-268.311	-92.272	-0.788	-0.220
-267.297	213.257	-0.469	-0.734
-266.282	-45.048	0.244	-0.120
-265.267	155.418	0.239	-0.326
-264.253	-63.036	0.713	-0.292
-263.238	-115.006	1.232	-0.232
-262.224	184.297	-0.452	0.663
-261.209	156.002	0.349	0.477
-260.195	-179.549	0.276	-0.006
-259.180	11.442	-0.816	-0.620
-258.165	-200.000	-0.087	0.462
-257.151	45.266	0.122	-0.112
-256.136	-200.000	0.020	0.884
-255.122	-200.000	-0.161	-0.799
-254.107	-14.779	-0.179	-0.114
-253.092	-4.489	0.339	-0.232
-252.078	-59.352	-0.143	-0.061
-251.063	-8.736	0.613	-0.407
-250.049	5.793	-0.551	-0.404
-249.034	445.003	0.052	-0.114
-248.019	-200.000	0.099	0.644
-247.005	535.524	0.069	-0.162
-245.990	-107.358	0.404	0.088
-244.976	-1.148	-0.466	0.326
-243.961	-200.000	-0.089	-0.539
-242.946	-126.055	0.064	-0.010
-241.932	90.250	-0.262	0.290
-240.917	242.441	-0.450	0.746
-239.903	-33.650	-0.177	-0.097
-238.888	208.144	0.289	-0.447
-237.873	501.006	-0.067	0.153
-236.859	-71.300	1.105	0.410
-235.844	800.000	0.481	1.333
-234.830	-58.374	0.486	0.209
-233.815	-35.296	-0.175	0.094
-232.800	78.404	-0.409	0.432
-231.786	-200.000	0.051	0.641
-230.771	-170.344	0.956	0.033
-229.757	-90.881	-0.478	0.136
-228.742	-7.382	0.760	-0.510
-227.727	122.339	0.287	-0.355
-226.713	-200.000	0.163	-0.721
-225.698	348.688	-0.073	-0.143
-224.684	-88.489	0.364	-0.107
-223.669	800.000	-0.362	-1.207
-222.655	-37.893	0.628	0.330
-221.640	-200.000	0.004	0.745
-220.625	97.462	0.379	0.431
-219.611	-141.731	-0.615	0.061
-218.596	-66.745	0.602	-0.236
-217.582	45.077	-0.637	-0.581
-216.567	-200.000	-0.011	-0.895
-215.552	-57.464	-0.180	-0.078
-214.538	-57.462	-0.769	0.334
-213.523	-164.451	0.496	0.022
-212.509	800.000	0.024	0.077
-211.494	800.000	-0.060	-0.254
-210.479	-138.569	0.463	-0.050
-209.465	405.527	-0.185	-0.387
-208.450	-144.022	-0.370	-0.034
-207.436	9.023	0.171	-0.128
-206.421	-157.116	0.129	-0.008
-205.406	93.978	0.244	0.273
-204.392	-200.000	-0.007	-0.109
-203.377	-72.101	0.610	-0.224
-202.363	-200.000	0.020	-0.616
-201.348	-12.869	0.458	-0.295
-200.333	-197.499	-0.357	-0.002
-199.319	-71.681	0.417	-0.154
-198.304	-96.013	-0.620	-0.163
-197.290	42.809	-0.797	0.718
-196.275	-63.418	0.390	0.159
-195.260	33.108	-0.480	0.411
-194.246	472.949	0.044	-0.097
-193.231	-43.223	0.487	0.244
-192.217	199.559	0.275	0.417
-191.202	171.825	-0.095	-0.135
-190.187	236.354	0.130	-0.213
-189.173	128.828	-0.300	0.378
-188.158	-59.234	-0.493	0.210
-187.144	3.923	0.851	0.614
-186.129	648.350	-0.202	-0.510
-185.114	-165.016	-0.633	-0.028
-184.100	-7.725	-0.268	-0.179
-183.085	-94.288	-0.401	-0.108
-182.071	-200.000	-0.011	-0.480
-181.056	295.248	-0.078	-0.141
-180.042	800.000	-0.401	-1.094
-179.027	-15.063	-0.385	-0.243
-178.012	-65.902	0.325	-0.128
-176.998	17.581	-0.368	0.289
-175.983	119.992	0.346	0.424
-174.969	-67.265	0.573	0.223
-173.954	-200.000	0.040	-0.484
-172.939	137.829	-0.366	0.474
-171.925	44.591	0.376	0.341
-170.910	-2.269	0.760	-0.527
-169.896	21.699	-0.702	0.564
-168.881	262.888	0.236	0.405
-167.866	-200.000	-0.071	0.531
-166.852	25.093	0.069	-0.056
-165.837	-200.000	-0.120	-0.652
-164.823	-200.000	-0.135	0.768
-163.808	-105.930	-1.133	0.252
-162.793	800.000	0.118	-0.374
-161.779	774.821	0.167	0.449
-160.764	132.689	-0.681	-0.867
-159.750	-13.537	0.356	-0.228
-158.735	-200.000	0.038	0.493
-157.720	-108.681	-0.499	0.106
-156.706	-112.555	-0.090	0.018
-155.691	-15.319	0.501	0.316
-154.677	-5.993	-0.121	-0.082
-153.662	102.695	0.291	-0.336
-152.647	800.000	-0.187	0.566
-151.633	-115.141	0.471	0.088
-150.618	-138.723	-0.576	-0.062
-149.604	128.542	-0.261	-0.328
-148.589	-52.068	-0.834	-0.382
-147.574	-200.000	0.088	-0.630
-146.560	-200.000	-0.174	0.936
-145.545	-200.000	-0.005	-0.100
-144.531	-127.153	0.768	0.111
-143.516	-70.055	0.150	0.056
-142.502	628.458	0.259	0.645
-141.487	-121.773	-0.463	-0.075
-140.472	-167.376	0.213	0.008
-139.458	69.114	-0.148	-0.150
-138.443	-63.320	0.630	-0.256
-137.429	-116.615	-0.674	0.122
-136.414	-20.460	-0.499	0.303
-135.399	498.820	-0.144	0.326
-134.385	-200.000	0.071	-0.766
-133.370	212.600	-0.365	-0.568
-132.356	-61.410	0.096	-0.040
-131.341	72.919	-1.039	-1.070
-130.326	-200.000	0.105	-0.934
-129.312	-12.045	0.586	0.378
-128.297	511.707	0.186	-0.428
-127.283	-200.000	-0.001	0.716
-126.268	-9.820	-0.696	0.457
-125.253	344.851	0.271	0.524
-124.239	-166.634	0.168	0.007
-123.224	-185.863	0.452	0.007
-122.210	-200.000	0.025	-0.167
-121.195	-200.000	0.008	0.331
-120.180	50.734	-0.162	0.151
-119.166	-107.907	0.361	-0.077
-118.151	-65.170	0.478	0.190
-117.137	562.080	-0.128	-0.305
-116.122	497.361	-0.237	0.537
-115.107	-63.631	-0.464	-0.187
-114.093	-200.000	-0.017	-0.369
-113.078	-31.317	0.157	-0.087
-112.064	-23.123	-0.278	-0.165
-111.049	374.571	-0.493	-0.989
-110.034	32.537	0.635	-0.540
-109.020	8.040	0.634	0.468
-108.005	-200.000	-0.140	0.710
-106.991	300.057	0.130	0.235
-105.976	307.275	0.241	0.443
-104.962	-23.608	-0.350	-0.207
-103.947	235.296	-0.160	0.260
-102.932	-37.328	-0.654	0.344
-101.918	207.836	-0.281	0.433
-100.903	363.808	-0.554	1.096
-99.889	800.000	-0.064	-0.174
-98.874	792.712	0.367	-0.993
-97.859	-28.658	-0.204	-0.116
-96.845	27.595	-0.294	-0.244
-95.830	61.106	0.011	0.011
-94.816	-42.402	-1.034	0.520
-93.801	800.000	0.072	-0.255
-92.786	-74.144	0.142	0.051
-91.772	-200.000	-0.041	-0.276
-90.757	800.000	0.109	-0.338
-89.743	-200.000	0.147	-0.698
-88.728	-128.774	0.460	-0.064
-87.713	477.160	0.158	0.352
-86.699	405.888	-0.303	-0.629
-85.684	295.517	-0.234	0.422
-84.670	-134.334	0.427	-0.052
-83.655	-90.185	0.340	0.097
-82.640	159.313	-0.550	-0.753
-81.626	800.000	-0.190	-0.568
-80.611	94.202	0.634	0.708
-79.597	289.210	0.141	-0.252
-78.582	-140.109	0.354	0.037
-77.567	105.730	0.217	-0.252
-76.553	-12.699	0.971	-0.623
-75.538	-59.304	0.904	0.383
-74.524	28.744	-0.254	0.211
-73.509	202.466	-0.607	-0.922
-72.494	-200.000	-0.085	-0.576
-71.480	800.000	-0.031	-0.086
-70.465	-71.478	-0.035	0.013
-69.451	-37.155	0.284	0.150
-68.436	5.492	-0.367	-0.266
-67.422	-46.718	-1.060	-0.511
-66.407	-200.000	-0.055	-0.890
-65.392	15.596	-0.131	-0.101
-64.378	44.602	0.361	0.326
-63.363	67.448	0.054	0.054
-62.349	253.684	0.230	0.386
-61.334	673.384	-0.623	-1.588
-60.319	203.093	0.366	0.556
-59.305	-200.000	-0.153	-0.799
-58.290	149.574	0.481	0.641
-57.276	259.974	0.504	0.856
-56.261	-200.000	96.212	602.275
-55.246	674.852	1354.135	3455.950
-54.232	204.530	2518.566	3838.996
-53.217	121.107	2117.750	2590.957
-52.203	44.113	1589.618	1432.873
-51.188	35.806	1328.293	1147.966
-50.173	32.516	1288.293	1094.271
-49.159	56.506	1338.985	1279.898
-48.144	57.652	1355.313	1302.228
-47.130	35.761	1312.658	1134.004
-46.115	32.259	1296.059	1099.190
-45.100	32.325	1289.410	1093.888
-44.086	32.281	1287.794	1092.220
-43.071	32.066	1285.202	1088.731
-42.057	32.018	1283.256	1086.763
-41.042	32.229	1280.544	1085.640
-40.027	32.287	1279.638	1085.164
-39.013	32.013	1278.307	1082.412
-37.998	31.893	1277.598	1081.080
-36.984	31.912	1274.635	1078.638
-35.969	31.911	1273.356	1077.508
-34.954	31.958	1271.785	1076.406
-33.940	31.880	1270.288	1074.648
-32.925	32.260	1268.815	1075.532
-31.911	32.364	1266.109	1073.791
-30.896	32.309	1265.937	1073.291
-29.881	32.493	1262.695	1071.545
-28.867	32.225	1263.530	1070.686
-27.852	32.308	1261.404	1069.310
-26.838	32.063	1261.123	1067.639
-25.823	32.444	1258.700	1067.706
-24.809	32.396	1257.215	1066.131
-23.794	32.020	1256.461	1063.320
-22.779	32.250	1254.901	1063.258
-21.765	32.392	1253.345	1062.703
-20.750	31.882	1253.516	1059.921
-19.736	32.447	1250.315	1060.358
-18.721	32.129	1249.563	1057.889
-17.706	32.226	1249.282	1058.153
-16.692	32.019	1248.832	1056.563
-15.677	32.007	1247.533	1055.359
-14.663	32.221	1245.812	1055.060
-13.648	32.213	1244.079	1053.506
-12.633	31.792	1244.408	1051.383
-11.619	32.074	1242.620	1051.407
-10.604	31.914	1241.719	1049.709
-9.590	32.190	1240.334	1050.042
-8.575	31.995	1240.187	1048.786
-7.560	32.212	1238.115	1048.199
-6.546	31.974	1238.331	1047.013
-5.531	32.114	1237.167	1046.771
-4.517	32.339	1236.231	1047.188
-3.502	32.287	1235.200	1045.985
-2.487	32.225	1234.516	1045.021
-1.473	32.149	1230.107	1040.823
-0.458	30.517	1214.201	1018.390
0.556	28.251	1197.379	980.044
1.571	24.263	1203.402	963.380
2.586	23.551	1216.532	969.916
3.600	22.898	1206.440	958.243
4.615	17.277	1133.745	871.681
5.629	8.044	1059.677	770.216
6.644	3.876	1039.856	735.944
7.659	3.295	1037.672	731.571
8.673	3.269	1035.918	730.148
9.688	3.242	1035.361	729.562
10.702	3.869	1031.833	729.972
11.717	9.650	1040.797	763.708
12.731	19.050	1054.310	818.475
13.746	23.985	1059.906	846.284
14.761	24.665	1060.741	850.112
15.775	24.301	1059.583	847.380
16.790	23.665	1057.684	842.765
17.804	23.338	1058.090	841.462
18.819	23.332	1057.233	840.677
19.834	23.695	1056.679	841.883
20.848	23.604	1056.438	841.186
21.863	23.391	1055.917	839.689
22.877	23.447	1054.905	839.071
23.892	23.169	1054.289	837.196
24.907	23.599	1052.192	837.486
25.921	23.330	1052.196	836.144
26.936	23.313	1050.334	834.509
27.950	23.380	1047.724	832.678
28.965	23.373	1047.247	832.191
29.980	23.349	1046.204	831.178
30.994	23.446	1046.563	831.845
32.009	23.276	1044.734	829.524
33.023	23.538	1043.497	829.692
34.038	23.252	1042.753	827.689
35.053	23.270	1041.904	827.026
36.067	23.128	1041.467	825.945
37.082	23.132	1040.277	824.946
38.096	23.441	1039.882	826.001
39.111	23.462	1039.419	825.656
40.126	23.238	1038.184	823.559
41.140	22.960	1036.357	820.747
42.155	22.795	1035.313	819.080
43.169	22.880	1033.258	817.777
44.184	22.529	1033.339	816.143
45.199	22.599	1032.012	815.347
46.213	23.053	1030.985	816.563
47.228	23.619	1030.372	818.612
48.242	23.465	1031.280	818.553
49.257	23.328	1029.855	816.716
50.271	23.439	1029.031	816.503
51.286	23.732	1027.958	816.927
52.301	23.709	1027.293	816.220
53.315	23.412	1027.277	814.771
54.330	23.631	1024.593	813.573
55.344	23.181	1024.655	811.487
56.359	23.164	1023.176	810.166
57.374	23.210	1022.005	809.377
58.388	23.096	1021.966	808.753
59.403	22.932	1020.563	806.822
60.417	22.904	1020.441	806.529
61.432	22.760	1019.328	804.922
62.447	22.538	1019.383	803.878
63.461	22.590	1018.272	803.168
64.476	22.955	1016.619	803.456
65.490	22.183	1017.200	800.329
66.505	22.728	1015.510	801.403
67.520	22.998	1013.929	801.310
68.534	22.525	1013.080	798.427
69.549	22.623	1012.273	798.161
70.563	22.232	1012.169	796.240
71.578	22.205	1010.705	794.896
72.593	21.645	1011.264	792.732
73.607	22.092	1009.620	793.391
74.622	22.015	1009.858	793.158
75.636	22.133	1009.316	793.197
76.651	22.283	1007.453	792.338
77.666	22.672	1007.078	793.723
78.680	22.464	1005.904	791.793
79.695	22.262	1006.495	791.282
80.709	22.768	1004.678	792.054
81.724	22.810	1004.325	791.892
82.739	23.118	1003.940	792.900
83.753	23.503	1003.030	793.834
84.768	23.464	1003.994	794.354
85.782	24.017	1002.990	795.962
86.797	23.830	1002.349	794.550
87.812	23.651	1000.772	792.430
88.826	23.657	1000.330	792.035
89.841	23.746	999.179	791.449
90.855	23.817	997.461	790.335
91.870	23.637	997.108	789.186
92.884	23.799	996.219	789.133
93.899	23.514	995.975	787.605
94.914	23.492	995.133	786.770
95.928	23.679	992.705	785.610
96.943	23.210	993.358	783.977
97.957	22.927	991.675	781.330
98.972	23.413	990.481	782.466
99.987	23.608	989.423	782.421
101.001	23.500	988.810	781.392
102.016	23.408	988.162	780.405
103.030	23.476	987.585	780.178
104.045	23.884	986.387	780.958
105.060	23.527	985.902	778.939
106.074	23.444	984.507	777.399
107.089	23.368	983.556	776.250
108.103	23.104	981.908	773.724
109.118	22.897	980.777	771.858
110.133	22.553	979.342	769.163
111.147	22.513	978.656	768.382
112.162	22.360	978.612	767.610
113.176	22.835	977.586	768.808
114.191	22.915	977.244	768.816
115.206	22.537	976.982	766.898
116.220	22.848	974.977	766.608
117.235	22.754	973.913	765.297
118.249	22.529	973.907	764.246
119.264	22.544	972.230	762.927
120.279	22.533	971.667	762.371
121.293	22.198	970.428	759.886
122.308	22.184	969.994	759.415
123.322	22.194	967.763	757.646
124.337	21.935	968.140	756.756
125.352	22.271	966.462	756.827
126.366	22.154	965.684	755.645
127.381	22.371	966.494	757.146
128.395	22.818	964.576	757.494
129.410	22.777	963.540	756.438
130.424	23.028	963.303	757.259
131.439	22.880	962.391	755.846
132.454	23.229	960.853	756.061
133.468	22.730	960.789	753.813
134.483	22.818	960.864	754.182
135.497	22.991	959.216	753.558
136.512	23.087	958.542	753.368
137.527	23.001	957.288	751.952
138.541	23.241	956.323	752.146
139.556	23.101	957.257	752.221
140.570	23.419	956.291	752.744
141.585	23.604	955.723	753.017
142.600	23.741	953.947	752.130
143.614	23.593	954.819	752.125
144.629	23.937	953.165	752.211
145.643	23.992	951.429	751.007
146.658	23.123	950.274	746.361
147.673	23.263	949.173	746.024
148.687	23.240	948.818	745.578
149.702	22.708	948.186	742.779
150.716	23.040	946.466	742.761
151.731	23.250	946.979	743.979
152.746	23.698	945.817	744.880
153.760	23.386	945.894	743.564
154.775	23.480	944.929	743.134
155.789	23.368	944.175	742.010
156.804	23.371	943.592	741.496
157.819	23.335	943.053	740.859
158.833	23.572	942.792	741.579
159.848	23.828	941.421	741.501
160.862	23.768	940.332	740.330
161.877	23.091	938.487	735.995
162.892	22.897	938.311	734.984
163.906	22.910	936.579	733.617
164.921	22.802	935.289	732.093
165.935	22.929	935.583	732.783
166.950	23.377	934.348	733.608
167.964	23.298	933.808	732.793
168.979	23.326	931.823	731.283
169.994	23.133	930.971	729.756
171.008	23.223	931.471	730.456
172.023	23.484	930.387	730.613
173.037	23.723	930.002	731.232
174.052	23.331	929.433	729.106
175.067	23.166	928.185	727.386
176.081	22.776	927.281	725.012
177.096	22.904	925.657	724.201
178.110	22.561	925.414	722.542
179.125	22.832	924.694	723.025
180.140	22.571	924.784	721.962
181.154	23.241	925.353	725.087
182.169	23.414	924.323	724.923
183.183	23.623	923.902	725.383
184.198	23.620	923.198	724.753
185.213	23.603	922.705	724.234
186.227	23.477	921.289	722.546
187.242	23.185	921.343	721.334
188.256	23.887	920.351	723.351
189.271	24.106	918.874	723.015
190.286	23.316	918.686	719.593
191.300	22.589	917.868	715.940
192.315	22.454	916.151	713.989
193.329	22.528	916.174	714.243
194.344	23.012	916.270	716.218
195.359	23.005	915.607	715.606
196.373	23.272	914.327	715.621
197.388	23.547	914.954	717.162
198.402	24.163	914.664	719.360
199.417	24.097	913.910	718.437
200.432	23.977	913.709	717.729
201.446	24.029	913.292	717.549
202.461	23.832	913.558	716.901
203.475	23.751	911.603	714.978
204.490	23.624	910.657	713.661
205.504	23.396	909.178	711.523
206.519	23.390	909.695	711.841
207.534	23.445	909.368	711.741
208.548	23.965	907.937	712.645
209.563	23.314	907.191	709.387
210.577	23.865	906.192	710.749
211.592	23.924	907.287	711.781
212.607	24.224	905.967	711.880
213.621	24.172	904.649	710.573
214.636	23.886	904.037	708.892
215.650	23.706	903.941	708.034
216.665	23.788	902.378	707.073
217.680	23.854	902.694	707.521
218.694	23.779	901.572	706.282
219.709	23.869	900.190	705.493
220.723	23.470	900.323	703.951
221.738	23.555	899.425	703.524
222.753	23.659	899.097	703.619
223.767	23.487	899.592	703.262
224.782	24.015	898.820	704.688
225.796	24.154	898.188	704.678
226.811	23.506	897.287	701.348
227.826	23.245	896.376	699.542
228.840	23.184	896.166	699.075
229.855	23.586	894.500	699.298
230.869	23.322	893.312	697.268
231.884	23.280	893.607	697.273
232.899	23.155	892.740	696.044
233.913	22.912	892.110	694.537
234.928	23.030	891.053	694.115
235.942	23.160	890.332	694.001
236.957	23.036	890.198	693.349
237.972	22.944	889.003	691.995
238.986	22.767	889.488	691.621
240.001	22.779	888.996	691.222
241.015	22.666	888.502	690.335
242.030	23.455	887.263	692.394
243.045	23.680	886.130	692.327
244.059	23.311	886.154	690.844
245.074	23.145	886.207	690.177
246.088	23.603	885.799	691.581
247.103	23.582	885.803	691.442
248.117	24.133	885.020	692.915
249.132	24.659	885.093	694.955
250.147	24.733	884.766	694.927
251.161	24.962	883.813	695.005
252.176	25.112	882.574	694.551
253.190	24.727	883.250	693.527
254.205	24.622	882.937	692.814
255.220	24.658	881.831	692.025
256.234	24.511	880.699	690.506
257.249	24.481	879.962	689.752
258.263	24.232	879.972	688.735
259.278	24.399	877.819	687.635
260.293	24.764	877.870	689.018
261.307	24.858	877.827	689.285
262.322	24.541	877.649	687.866
263.336	24.426	876.624	686.557
264.351	24.370	875.081	685.074
265.366	24.152	875.255	684.313
266.380	24.804	873.935	685.718
267.395	24.922	873.014	685.388
268.409	24.525	873.118	683.887
269.424	24.546	872.266	683.242
270.439	24.630	872.106	683.378
271.453	24.349	870.365	680.881
272.468	24.440	870.133	680.986
273.482	24.633	869.684	681.308
274.497	24.369	869.290	679.935
275.512	24.284	868.712	679.098
276.526	24.625	868.037	679.807
277.541	24.659	868.484	680.228
278.555	24.533	868.167	679.438
279.570	24.994	867.579	680.671
280.585	24.739	866.449	678.758
281.599	24.510	864.765	676.511
282.614	24.117	863.571	674.028
283.628	23.974	864.414	674.086
284.643	24.316	863.131	674.317
285.657	24.202	862.157	673.067
286.672	24.411	862.362	673.956
287.687	24.612	861.868	674.271
288.701	24.699	861.176	673.999
289.716	24.358	861.285	672.738
290.730	24.479	860.303	672.368
291.745	24.451	859.614	671.664
292.760	24.511	858.852	671.235
293.774	25.279	857.813	673.245
294.789	25.092	857.163	671.975
295.803	24.854	857.175	671.033
296.818	24.319	856.981	668.815
297.833	24.162	855.826	667.264
298.847	24.286	855.693	667.569
299.862	24.346	854.947	667.149
300.876	24.849	853.589	667.910
301.891	24.963	854.387	668.901
302.906	25.403	853.714	669.954
303.920	25.237	853.901	669.426
304.935	25.432	852.540	669.023
305.949	24.707	853.033	666.651
306.964	24.826	850.786	665.276
307.979	24.728	850.448	664.591
308.993	25.062	850.047	665.460
310.008	25.434	848.947	665.918
311.022	25.149	848.935	664.792
312.037	24.402	848.263	661.439
313.052	24.455	847.019	660.606
314.066	24.288	845.687	658.893
315.081	23.966	846.103	657.968
316.095	24.098	845.811	658.171
317.110	24.389	844.957	658.522
318.125	24.295	843.961	657.341
319.139	23.905	843.629	655.588
320.154	24.132	842.804	655.724
321.168	24.067	842.733	655.373
322.183	24.552	841.751	656.331
323.197	24.251	842.303	655.596
324.212	23.946	842.215	654.349
325.227	24.433	841.189	655.283
326.241	24.277	840.150	653.843
327.256	24.055	840.540	653.273
328.270	24.013	838.102	651.168
329.285	23.808	838.601	650.748
330.300	23.851	838.148	650.495
331.314	24.122	837.836	651.188
332.329	24.273	836.834	650.901
333.343	24.542	837.041	651.989
334.358	24.450	837.179	651.700
335.373	24.756	836.255	652.039
336.387	24.795	836.386	652.228
337.402	24.593	836.435	651.472
338.416	25.296	835.439	653.197
339.431	25.221	836.284	653.527
340.446	25.373	836.409	654.121
341.460	25.496	835.406	653.725
342.475	25.590	834.828	653.557
343.489	25.470	834.859	653.088
344.504	25.648	834.302	653.240
345.519	25.942	834.137	654.122
346.533	25.676	832.148	651.541
347.548	25.315	832.057	650.102
348.562	25.519	830.733	649.750
349.577	25.100	829.814	647.459
350.592	25.275	829.296	647.629
351.606	24.944	828.470	645.732
352.621	25.120	827.868	645.842
353.635	24.731	828.018	644.500
354.650	24.471	827.320	642.963
355.665	24.920	825.341	642.980
356.679	25.038	825.498	643.472
357.694	24.749	824.333	641.470
358.708	24.836	824.309	641.707
359.723	24.924	823.813	641.580
360.738	24.899	822.731	640.588
361.752	25.059	822.458	640.891
362.767	25.140	823.208	641.711
363.781	25.450	823.550	643.029
364.796	25.446	822.446	642.095
365.810	25.683	821.617	642.239
366.825	25.715	821.133	641.916
367.840	25.563	820.532	640.848
368.854	25.234	820.584	639.658
369.869	25.087	820.038	638.653
370.883	25.529	818.307	638.820
371.898	25.601	818.474	639.149
372.913	25.544	818.511	638.920
373.927	25.503	817.536	637.958
374.942	25.518	817.181	637.675
375.956	25.569	816.635	637.373
376.971	25.708	817.169	638.228
377.986	25.475	817.451	637.565
379.000	25.921	816.076	638.017
380.015	25.778	814.632	636.324
381.029	25.889	813.547	635.812
382.044	25.882	814.318	636.335
383.059	25.862	814.001	635.959
384.073	25.571	813.256	634.294
385.088	25.480	811.966	632.913
386.102	25.034	810.930	630.478
387.117	24.936	810.709	629.908
388.132	25.229	809.142	629.663
389.146	25.483	808.936	630.337
390.161	25.618	808.342	630.293
391.175	26.075	808.415	631.895
392.190	25.199	808.184	628.590
393.205	25.128	806.809	627.215
394.219	24.918	805.770	625.620
395.234	24.715	806.229	625.211
396.248	25.057	805.627	625.884
397.263	25.238	804.583	625.648
398.278	24.831	804.482	624.096
399.292	24.668	804.427	623.428
400.307	24.659	803.789	622.847
401.321	24.701	803.657	622.835
402.336	24.735	803.781	622.997
403.350	25.775	803.134	626.058
404.365	25.598	802.987	625.270
405.380	26.224	802.390	626.925
406.394	26.230	802.754	627.175
407.409	26.140	802.253	626.415
408.423	25.956	801.380	625.040
409.438	26.014	801.966	625.644
410.453	26.183	800.556	625.072
411.467	26.200	799.913	624.576
412.482	26.102	800.860	624.921
413.496	26.141	799.915	624.260
414.511	25.967	799.050	622.930
415.526	26.440	797.690	623.444
416.540	25.798	798.581	621.870
417.555	25.811	797.643	621.131
418.569	26.109	797.757	622.190
419.584	25.675	796.801	619.898
420.599	26.236	795.402	620.681
421.613	161.796	1370.312	1792.304
422.628	140.336	1454.109	1792.400
