DTS Sentinel unit serial number:	SN413079Multiplexer serial number:	ORYXHardware model number:	OX4-SRSoftware version number:	ORYX F/W v4.00 Oryx Data Collector v3.7.2.0data status	okinstallation	princeton_trtdifferential loss correction	single-endedforward channel	channel 1reverse channel	N/Adate	2019/09/15time	01:30:35forward acquisition time	60.00reverse acquisition time	0.00gamma	496.2192k internal	0.2321k external	0.2321temperature offset calibration	0.9987default loss term (dB/km)	0.3790temperature slope calibration	1.0000multiplexer offset coefficient	1.0000multiplexer slope coefficient	1.0000fibre end	0.00T internal ref (°C)	31.87T ext. ref 1 (°C)	4.51T ext. ref 2 (°C)	26.72length (m)	temperature (°C)	Stokes	anti-Stokes-747.200	119.995	0.074	-0.093
-746.185	-101.633	0.406	0.100
-745.171	800.000	0.063	0.228
-744.156	229.562	-0.162	0.267
-743.142	-127.049	-0.325	0.048
-742.127	709.057	0.034	-0.091
-741.112	-36.383	0.195	0.106
-740.098	50.433	0.053	-0.051
-739.083	100.745	0.066	-0.078
-738.069	7.163	0.160	0.121
-737.054	-200.000	0.017	0.197
-736.039	800.000	-0.017	0.054
-735.025	-123.869	0.498	-0.079
-734.010	-98.443	-0.234	-0.061
-732.996	-39.527	-0.159	-0.084
-731.981	-200.000	-0.037	-0.194
-730.966	-200.000	0.014	-0.432
-729.952	-160.118	-0.259	0.014
-728.937	-200.000	-0.038	0.213
-727.923	-88.660	-0.228	0.069
-726.908	68.906	-0.073	0.076
-725.894	252.714	0.008	0.013
-724.879	20.632	-0.159	0.130
-723.864	-31.288	0.221	0.126
-722.850	-200.000	0.028	-0.191
-721.835	-68.357	-0.281	0.110
-720.821	60.171	0.266	0.266
-719.806	-130.038	0.218	-0.030
-718.791	-43.448	-0.296	0.151
-717.777	-121.562	-0.113	0.019
-716.762	-200.000	0.007	-0.223
-715.748	-3.291	-0.170	-0.119
-714.733	420.297	-0.050	-0.108
-713.718	-200.000	0.050	-0.241
-712.704	-164.651	0.191	0.009
-711.689	800.000	-0.051	-0.208
-710.675	-40.302	0.160	-0.084
-709.660	-166.333	-0.027	0.001
-708.645	-145.239	-0.066	0.006
-707.631	800.000	-0.109	-0.305
-706.616	-200.000	0.324	0.001
-705.602	44.384	-0.373	-0.346
-704.587	-200.000	-0.042	-0.225
-703.572	-100.737	-0.168	-0.042
-702.558	102.081	-0.123	0.145
-701.543	156.521	-0.080	0.111
-700.529	3.047	0.114	-0.084
-699.514	-30.060	-0.287	0.165
-698.499	-54.614	-0.170	0.078
-697.485	-91.430	-0.176	-0.051
-696.470	-107.380	-0.296	-0.065
-695.456	64.971	0.268	0.273
-694.441	2.832	0.375	0.275
-693.426	-200.000	0.054	-0.326
-692.412	-200.000	-0.035	-0.200
-691.397	46.658	-0.075	0.070
-690.383	-200.000	0.040	-0.258
-689.368	-28.827	-0.187	0.108
-688.354	-127.133	0.049	0.007
-687.339	230.915	0.095	0.157
-686.324	83.122	-0.026	-0.028
-685.310	-96.181	0.298	0.080
-684.295	-20.954	0.359	0.222
-683.281	-7.750	-0.088	0.060
-682.266	192.479	0.234	-0.356
-681.251	277.148	-0.102	0.182
-680.237	-76.739	-0.011	-0.004
-679.222	800.000	-0.065	0.204
-678.208	800.000	-0.037	-0.128
-677.193	-0.614	-0.030	-0.021
-676.178	-200.000	-0.032	0.231
-675.164	-100.944	-0.345	-0.085
-674.149	26.988	0.216	-0.183
-673.135	800.000	0.111	-0.471
-672.120	-42.723	-0.071	0.036
-671.105	-112.709	0.333	-0.067
-670.091	-11.213	0.120	0.079
-669.076	-160.405	0.132	-0.007
-668.062	-200.000	0.002	-0.142
-667.047	-170.234	-0.275	0.010
-666.032	-200.000	0.017	0.353
-665.018	-200.000	0.070	-0.335
-664.003	115.052	-0.162	-0.199
-662.989	189.752	0.120	-0.182
-661.974	-200.000	0.003	-0.042
-660.959	98.892	0.061	0.071
-659.945	-92.297	0.194	0.055
-658.930	-200.000	-0.010	0.138
-657.916	-131.003	0.103	0.014
-656.901	100.134	-0.181	-0.212
-655.886	130.624	-0.232	0.299
-654.872	34.950	0.047	0.041
-653.857	-3.694	-0.295	-0.207
-652.843	-200.000	0.049	-0.288
-651.828	13.507	0.156	-0.122
-650.814	110.275	-0.186	0.224
-649.799	-139.556	0.477	-0.051
-648.784	-19.549	-0.203	-0.126
-647.770	-51.964	0.190	-0.089
-646.755	141.859	0.133	0.177
-645.741	-66.570	-0.189	0.075
-644.726	-57.630	-0.074	-0.033
-643.711	800.000	-0.060	0.239
-642.697	557.155	0.064	0.154
-641.682	261.583	-0.056	0.098
-640.668	439.748	-0.191	-0.420
-639.653	800.000	0.052	0.164
-638.638	-169.457	0.154	-0.006
-637.624	186.549	0.072	0.108
-636.609	-200.000	-0.002	0.080
-635.595	-200.000	0.009	0.217
-634.580	800.000	-0.091	-0.253
-633.565	315.513	-0.169	-0.321
-632.551	479.858	-0.083	-0.188
-631.536	12.828	-0.083	0.065
-630.522	-200.000	0.037	-0.286
-629.507	800.000	0.112	-0.349
-628.492	-200.000	-0.029	-0.147
-627.478	-105.359	0.195	-0.045
-626.463	800.000	0.037	-0.156
-625.449	-112.535	0.172	0.035
-624.434	-200.000	0.001	-0.189
-623.419	-93.166	-0.148	-0.041
-622.405	800.000	-0.016	0.049
-621.390	-182.806	0.194	0.004
-620.376	42.771	0.211	0.193
-619.361	130.661	-0.167	0.216
-618.346	-146.702	0.140	-0.012
-617.332	800.000	0.067	-0.187
-616.317	23.326	-0.057	-0.047
-615.303	145.704	0.152	0.205
-614.288	297.333	0.158	-0.292
-613.273	37.442	-0.153	0.136
-612.259	-15.387	-0.157	0.101
-611.244	-138.477	-0.068	0.008
-610.230	38.460	0.081	-0.073
-609.215	-145.945	0.376	0.033
-608.201	114.058	0.171	0.209
-607.186	515.848	-0.065	0.153
-606.171	-56.965	0.419	-0.186
-605.157	-200.000	-0.044	-0.357
-604.142	-15.901	0.031	-0.020
-603.128	-85.148	-0.409	-0.129
-602.113	-90.229	-0.254	-0.074
-601.098	-49.627	0.305	0.146
-600.084	208.575	-0.049	-0.078
-599.069	-200.000	0.019	0.254
-598.055	-200.000	0.012	-0.142
-597.040	41.137	0.266	-0.242
-596.025	800.000	-0.064	-0.283
-595.011	279.362	0.064	0.114
-593.996	-167.451	0.095	0.004
-592.982	267.366	0.232	0.408
-591.967	-200.000	-0.049	0.367
-590.952	800.000	-0.072	0.214
-589.938	-145.944	0.107	-0.010
-588.923	800.000	-0.051	0.184
-587.909	-83.727	-0.403	-0.129
-586.894	-39.704	-0.176	0.093
-585.879	-200.000	-0.016	0.143
-584.865	63.978	-0.125	0.127
-583.850	-36.828	-0.142	0.077
-582.836	59.140	0.089	0.088
-581.821	-52.184	-0.152	0.071
-580.806	118.910	0.167	0.207
-579.792	-200.000	-0.058	-0.299
-578.777	32.250	-0.159	0.137
-577.763	245.488	-0.088	0.148
-576.748	-88.997	0.070	-0.021
-575.733	45.197	0.206	0.191
-574.719	-200.000	-0.010	0.296
-573.704	633.848	-0.048	0.123
-572.690	194.017	-0.139	-0.212
-571.675	174.145	-0.093	-0.135
-570.661	17.284	0.124	-0.099
-569.646	309.353	-0.191	-0.359
-568.631	-18.265	-0.270	0.169
-567.617	-75.907	0.484	-0.172
-566.602	-81.085	-0.272	0.090
-565.588	-200.000	0.015	-0.074
-564.573	199.471	-0.041	-0.064
-563.558	226.957	0.160	0.261
-562.544	-10.280	-0.040	-0.027
-561.529	-119.824	0.099	0.017
-560.515	141.569	-0.090	0.120
-559.500	249.265	0.082	-0.139
-558.485	-200.000	-0.017	-0.079
-557.471	397.505	0.091	-0.191
-556.456	25.814	0.118	-0.099
-555.442	-108.575	-0.216	0.047
-554.427	108.721	-0.335	-0.401
-553.412	800.000	0.062	-0.192
-552.398	-73.858	0.150	-0.055
-551.383	70.667	-0.200	0.207
-550.369	316.131	-0.182	0.345
-549.354	442.563	0.109	0.239
-548.339	345.745	-0.068	-0.135
-547.325	66.667	-0.249	0.254
-546.310	-103.644	0.115	0.027
-545.296	-18.675	0.108	-0.068
-544.281	516.739	-0.031	0.072
-543.266	800.000	-0.020	0.059
-542.252	-62.075	0.233	-0.098
-541.237	271.789	-0.070	-0.125
-540.223	9.425	-0.132	-0.100
-539.208	401.568	0.091	0.191
-538.193	-48.005	-0.141	0.068
-537.179	-200.000	-0.057	0.275
-536.164	-54.199	-0.243	0.111
-535.150	61.770	-0.167	0.167
-534.135	488.425	0.071	-0.163
-533.121	-81.954	-0.118	0.039
-532.106	79.719	-0.199	-0.214
-531.091	-200.000	0.028	0.250
-530.077	800.000	0.011	-0.032
-529.062	-200.000	0.017	-0.104
-528.048	-200.000	0.015	0.149
-527.033	-200.000	0.007	-0.188
-526.018	160.701	0.082	-0.115
-525.004	-200.000	-0.015	0.198
-523.989	-163.331	0.051	-0.002
-522.975	-200.000	-0.021	0.382
-521.960	33.582	0.236	0.206
-520.945	800.000	0.027	0.090
-519.931	11.304	-0.022	-0.017
-518.916	72.128	-0.086	0.090
-517.902	-86.900	0.130	0.040
-516.887	800.000	-0.045	0.189
-515.872	-163.710	0.156	0.007
-514.858	-126.049	-0.164	-0.025
-513.843	-200.000	-0.039	-0.389
-512.829	211.900	0.131	0.207
-511.814	-21.912	-0.106	0.064
-510.799	800.000	-0.064	-0.211
-509.785	800.000	-0.023	-0.097
-508.770	-200.000	-0.060	0.554
-507.756	81.015	0.186	0.201
-506.741	2.832	-0.120	-0.087
-505.726	2.195	0.120	-0.087
-504.712	102.851	-0.103	0.120
-503.697	800.000	-0.096	0.270
-502.683	50.129	0.377	0.356
-501.668	31.756	-0.286	-0.247
-500.653	56.993	-0.157	-0.153
-499.639	-71.479	0.244	0.092
-498.624	-31.877	0.198	0.111
-497.610	-200.000	-0.017	0.252
-496.595	800.000	-0.035	0.105
-495.581	22.926	0.099	0.081
-494.566	105.251	-0.218	-0.257
-493.551	71.906	0.256	-0.267
-492.537	53.254	-0.058	0.055
-491.522	-15.122	-0.091	-0.059
-490.508	-200.000	-0.018	-0.220
-489.493	31.350	0.109	-0.094
-488.478	637.017	0.062	-0.157
-487.464	800.000	0.092	-0.265
-486.449	412.563	0.115	-0.245
-485.435	-200.000	-0.031	0.249
-484.420	800.000	0.038	-0.111
-483.405	25.684	0.169	-0.141
-482.391	205.474	0.126	-0.196
-481.376	-200.000	-0.012	-0.357
-480.362	800.000	0.053	0.215
-479.347	359.515	-0.010	0.019
-478.332	-82.732	-0.017	0.006
-477.318	46.650	0.144	-0.134
-476.303	-8.874	-0.166	-0.111
-475.289	290.024	-0.076	-0.138
-474.274	-153.766	-0.320	0.022
-473.259	22.689	0.103	-0.084
-472.245	56.567	0.198	0.192
-471.230	800.000	-0.021	0.063
-470.216	234.906	-0.144	-0.238
-469.201	123.642	-0.035	0.043
-468.186	233.320	-0.126	-0.208
-467.172	121.282	0.223	0.278
-466.157	-141.120	-0.166	-0.017
-465.143	-200.000	0.005	0.162
-464.128	407.227	0.066	-0.140
-463.113	-116.315	0.302	-0.056
-462.099	-66.770	0.129	-0.051
-461.084	-153.501	0.250	0.017
-460.070	-29.716	0.157	-0.090
-459.055	294.045	-0.032	-0.058
-458.040	34.727	0.140	-0.122
-457.026	98.610	0.085	-0.098
-456.011	-200.000	0.016	-0.146
-454.997	-140.143	0.479	0.050
-453.982	-200.000	0.026	0.159
-452.968	141.739	-0.127	0.168
-451.953	330.500	0.163	0.314
-450.938	67.158	0.120	0.123
-449.924	-74.698	-0.116	0.042
-448.909	171.469	0.089	0.128
-447.895	-200.000	-0.029	-0.257
-446.880	-200.000	-0.023	-0.442
-445.865	-200.000	-0.059	-0.311
-444.851	353.289	0.033	-0.066
-443.836	37.160	-0.191	0.169
-442.822	153.524	0.112	-0.154
-441.807	-200.000	-0.082	0.384
-440.792	800.000	-0.093	0.314
-439.778	257.038	0.087	0.149
-438.763	-185.900	-0.247	0.004
-437.749	131.826	-0.035	-0.044
-436.734	-100.616	0.080	-0.020
-435.719	-200.000	0.032	-0.195
-434.705	-200.000	0.062	-0.293
-433.690	800.000	-0.032	-0.107
-432.676	27.469	-0.145	0.122
-431.661	223.672	-0.128	-0.206
-430.646	-61.482	-0.475	-0.199
-429.632	-24.139	-0.044	-0.026
-428.617	-200.000	0.004	0.165
-427.603	180.025	0.139	-0.203
-426.588	-80.475	-0.147	0.049
-425.573	-122.467	0.116	-0.019
-424.559	43.828	-0.101	0.092
-423.544	800.000	-0.085	0.343
-422.530	-171.869	-0.092	-0.003
-421.515	40.485	0.116	0.104
-420.500	800.000	0.083	0.235
-419.486	-200.000	-0.110	-0.511
-418.471	-200.000	-0.017	-0.109
-417.457	-112.244	0.188	0.038
-416.442	-17.359	-0.050	-0.031
-415.428	-98.809	-0.087	-0.022
-414.413	49.908	-0.294	-0.276
-413.398	-118.013	-0.099	0.018
-412.384	540.912	-0.184	-0.437
-411.369	15.766	0.238	-0.187
-410.355	800.000	-0.090	-0.283
-409.340	-146.054	0.297	-0.026
-408.325	-29.865	-0.215	-0.122
-407.311	-200.000	0.034	0.173
-406.296	-200.000	-0.035	0.173
-405.282	-9.453	-0.151	0.101
-404.267	-47.080	-0.331	-0.161
-403.252	643.845	0.071	-0.181
-402.238	-200.000	0.006	0.094
-401.223	-20.116	-0.242	-0.149
-400.209	-93.869	0.219	-0.060
-399.194	348.913	0.042	-0.082
-398.179	-149.645	-0.093	-0.007
-397.165	-200.000	-0.042	0.303
-396.150	3.438	-0.104	0.075
-395.136	308.047	0.091	0.168
-394.121	800.000	-0.029	-0.115
-393.106	75.665	-0.138	-0.145
-392.092	127.512	0.126	0.159
-391.077	-200.000	-0.001	0.016
-390.063	135.788	-0.198	-0.257
-389.048	800.000	0.061	0.192
-388.033	-111.725	-0.236	0.048
-387.019	-49.683	0.285	-0.135
-386.004	-108.349	-0.243	0.052
-384.990	-11.820	0.153	-0.100
-383.975	-200.000	0.003	0.096
-382.960	-200.000	0.017	0.243
-381.946	189.573	-0.102	-0.153
-380.931	-79.934	-0.560	-0.187
-379.917	128.256	-0.175	-0.222
-378.902	-112.316	-0.267	-0.053
-377.888	-6.581	0.069	-0.047
-376.873	446.568	0.077	-0.169
-375.858	-107.141	0.283	-0.062
-374.844	-16.790	0.115	-0.073
-373.829	-105.921	0.230	0.052
-372.815	155.916	0.107	0.147
-371.800	-149.649	0.190	-0.015
-370.785	800.000	0.115	-0.327
-369.771	31.812	0.460	0.394
-368.756	393.339	0.081	0.168
-367.742	149.877	-0.232	0.313
-366.727	-200.000	-0.021	0.128
-365.712	99.766	-0.118	-0.136
-364.698	115.747	-0.114	-0.139
-363.683	88.423	0.070	-0.077
-362.669	229.035	0.066	0.108
-361.654	800.000	-0.113	0.314
-360.639	104.133	0.076	0.089
-359.625	-156.545	0.248	-0.015
-358.610	800.000	-0.140	-0.451
-357.596	-148.179	0.328	0.027
-356.581	148.475	0.071	0.096
-355.566	-12.086	-0.302	-0.197
-354.552	50.264	0.087	-0.082
-353.537	-125.706	0.322	-0.049
-352.523	-159.606	-0.252	0.014
-351.508	-184.810	0.222	0.004
-350.493	10.815	0.126	0.096
-349.479	-200.000	-0.015	-0.200
-348.464	711.366	-0.156	-0.410
-347.450	246.390	-0.111	0.186
-346.435	800.000	-0.058	0.163
-345.420	-200.000	0.013	-0.212
-344.406	-200.000	-0.023	0.377
-343.391	-59.415	-0.116	-0.049
-342.377	-35.623	0.384	-0.207
-341.362	-200.000	0.004	-0.028
-340.348	6.593	0.204	0.151
-339.333	-70.577	-0.183	-0.069
-338.318	-27.313	0.100	-0.058
-337.304	126.568	0.006	0.007
-336.289	32.456	0.150	0.129
-335.275	-66.438	-0.105	0.041
-334.260	140.577	0.210	-0.276
-333.245	396.511	-0.275	-0.571
-332.231	53.930	-0.160	-0.153
-331.216	800.000	0.053	-0.188
-330.202	-165.045	0.227	0.010
-329.187	-200.000	-0.061	-0.280
-328.172	3.332	0.178	0.129
-327.158	-200.000	-0.004	0.110
-326.143	-13.972	0.138	-0.089
-325.129	505.892	0.033	0.076
-324.114	-32.844	0.217	-0.120
-323.099	395.368	-0.159	-0.329
-322.085	366.218	-0.037	0.075
-321.070	-200.000	-0.002	-0.349
-320.056	-200.000	0.015	-0.330
-319.041	49.343	-0.252	0.236
-318.026	690.428	0.072	-0.187
-317.012	-63.281	0.134	0.055
-315.997	562.974	-0.092	0.220
-314.983	-163.225	0.083	0.004
-313.968	-131.428	-0.214	-0.028
-312.953	-33.134	-0.104	-0.057
-311.939	-118.629	0.137	0.024
-310.924	800.000	-0.046	-0.150
-309.910	645.463	-0.098	-0.248
-308.895	105.279	0.205	0.240
-307.880	259.037	0.026	0.045
-306.866	117.816	-0.154	-0.188
-305.851	-197.462	0.187	0.001
-304.837	67.697	-0.177	-0.180
-303.822	25.621	0.244	0.201
-302.807	512.112	0.102	-0.235
-301.793	-120.033	-0.136	0.023
-300.778	181.099	-0.077	0.112
-299.764	-43.685	0.273	-0.137
-298.749	-31.282	0.359	-0.201
-297.735	120.330	0.069	-0.086
-296.720	73.610	0.194	-0.202
-295.705	-45.205	-0.372	0.183
-294.691	366.333	-0.119	0.238
-293.676	-200.000	-0.011	0.583
-292.662	-200.000	-0.002	-0.313
-291.647	-104.818	-0.203	0.046
-290.632	-155.239	0.205	-0.013
-289.618	-190.404	-0.373	-0.004
-288.603	146.677	0.106	0.142
-287.589	-62.316	0.215	0.089
-286.574	142.081	-0.199	-0.262
-285.559	-62.394	-0.232	-0.096
-284.545	20.319	-0.217	-0.174
-283.530	800.000	0.014	0.048
-282.516	31.741	0.058	0.050
-281.501	-73.275	-0.173	0.063
-280.486	-200.000	-0.043	-0.296
-279.472	475.123	0.139	0.311
-278.457	65.577	0.020	-0.020
-277.443	53.764	-0.208	0.199
-276.428	71.900	-0.178	0.183
-275.413	-200.000	-0.030	0.248
-274.399	800.000	-0.085	0.314
-273.384	-200.000	0.036	0.478
-272.370	2.002	0.053	0.038
-271.355	-200.000	-0.007	0.253
-270.340	-170.006	-0.219	-0.008
-269.326	-148.495	-0.177	0.014
-268.311	-16.969	0.052	-0.033
-267.297	103.536	0.077	-0.090
-266.282	-164.971	-0.485	0.021
-265.267	284.991	0.068	-0.122
-264.253	-130.234	-0.250	0.034
-263.238	800.000	-0.068	0.212
-262.224	800.000	-0.094	0.395
-261.209	24.217	0.154	0.126
-260.195	-94.105	-0.259	-0.071
-259.180	-65.184	0.222	-0.089
-258.165	174.267	-0.391	0.561
-257.151	-59.910	-0.226	-0.096
-256.136	-70.392	-0.156	-0.059
-255.122	-122.436	-0.317	0.051
-254.107	620.551	-0.036	0.089
-253.092	78.510	0.203	-0.215
-252.078	172.121	0.146	-0.208
-251.063	-23.522	0.265	-0.158
-250.049	-200.000	-0.028	-0.205
-249.034	158.583	-0.141	0.194
-248.019	-112.519	0.176	0.035
-247.005	-68.411	0.228	-0.088
-245.990	291.260	-0.136	0.245
-244.976	352.406	-0.033	0.065
-243.961	87.636	-0.151	0.166
-242.946	-103.497	-0.105	-0.025
-241.932	-138.388	-0.320	-0.035
-240.917	-170.629	-0.207	0.007
-239.903	185.337	0.037	-0.054
-238.888	251.812	-0.091	-0.153
-237.873	-200.000	-0.011	-0.119
-236.859	435.200	0.038	-0.083
-235.844	-77.149	0.269	0.093
-234.830	66.439	-0.260	0.262
-233.815	70.907	0.199	0.205
-232.800	-200.000	0.027	-0.247
-231.786	400.922	0.145	-0.302
-230.771	800.000	-0.095	-0.270
-229.757	421.763	-0.185	0.394
-228.742	-168.499	0.087	-0.003
-227.727	9.944	0.358	0.269
-226.713	307.950	-0.100	-0.184
-225.698	-93.801	0.173	0.047
-224.684	-200.000	-0.013	0.061
-223.669	-171.793	0.273	0.009
-222.655	-123.509	-0.128	-0.020
-221.640	-200.000	-0.047	0.275
-220.625	800.000	-0.024	-0.071
-219.611	24.443	-0.183	-0.149
-218.596	557.180	-0.123	0.292
-217.582	125.406	0.163	0.204
-216.567	-34.995	-0.219	0.118
-215.552	-51.875	-0.167	0.077
-214.538	-200.000	0.088	-0.381
-213.523	800.000	-0.051	-0.163
-212.509	-76.363	0.084	-0.029
-211.494	800.000	-0.094	0.290
-210.479	3.541	0.093	0.067
-209.465	64.241	0.254	-0.253
-208.450	-200.000	0.001	0.056
-207.436	-200.000	0.053	-0.268
-206.421	-130.898	-0.098	0.013
-205.406	314.444	0.138	-0.257
-204.392	29.393	-0.183	-0.154
-203.377	-112.519	0.313	-0.062
-202.363	-200.000	-0.024	-0.267
-201.348	234.344	-0.137	0.223
-200.333	458.856	0.054	-0.119
-199.319	-200.000	0.020	0.100
-198.304	-200.000	-0.002	0.204
-197.290	-73.494	-0.221	0.080
-196.275	107.958	-0.214	0.252
-195.260	-200.000	-0.020	-0.131
-194.246	33.266	0.222	-0.190
-193.231	-200.000	-0.029	-0.432
-192.217	54.347	0.225	0.215
-191.202	102.215	0.290	0.336
-190.187	-90.126	0.341	-0.098
-189.173	-9.106	0.120	0.079
-188.158	-4.386	-0.374	0.256
-187.144	104.058	0.173	0.202
-186.129	-200.000	-0.002	0.150
-185.114	-102.117	0.384	-0.091
-184.100	-139.199	0.185	-0.020
-183.085	-125.099	-0.257	0.039
-182.071	-53.097	0.136	-0.062
-181.056	42.346	0.214	-0.192
-180.042	168.493	0.177	-0.249
-179.027	686.885	-0.052	0.135
-178.012	-69.959	-0.043	0.016
-176.998	378.919	0.123	0.248
-175.983	8.187	-0.167	-0.124
-174.969	53.355	-0.233	0.221
-173.954	-113.585	-0.117	-0.023
-172.939	800.000	-0.013	-0.055
-171.925	125.875	-0.065	-0.081
-170.910	204.822	0.063	0.097
-169.896	120.729	-0.099	0.122
-168.881	125.052	0.190	0.237
-167.866	196.804	0.209	0.315
-166.852	230.933	0.136	0.221
-165.837	800.000	-0.075	0.234
-164.823	311.644	0.032	-0.060
-163.808	342.337	0.218	0.421
-162.793	317.705	-0.038	0.072
-161.779	14.168	0.034	0.026
-160.764	-200.000	0.000	-0.059
-159.750	-200.000	-0.035	0.186
-158.735	-68.824	-0.282	-0.107
-157.720	800.000	0.048	-0.173
-156.706	800.000	-0.031	0.112
-155.691	255.849	-0.023	-0.038
-154.677	-7.309	0.327	-0.219
-153.662	95.942	-0.068	-0.076
-152.647	-11.696	-0.274	0.178
-151.633	-83.366	0.189	0.060
-150.618	-62.786	-0.013	-0.005
-149.604	-30.009	-0.137	0.077
-148.589	8.957	0.320	-0.238
-147.574	135.085	0.109	0.140
-146.560	-90.447	-0.191	-0.055
-145.545	-24.311	-0.068	-0.040
-144.531	186.214	-0.126	0.186
-143.516	655.751	-0.058	0.146
-142.502	-67.987	-0.311	-0.120
-141.487	-79.960	-0.172	0.057
-140.472	-200.000	0.052	0.370
-139.458	511.646	0.061	-0.140
-138.443	0.407	-0.235	0.165
-137.429	-93.307	0.324	0.089
-136.414	-122.786	0.099	-0.016
-135.399	160.166	-0.210	-0.289
-134.385	-82.161	0.101	-0.033
-133.370	38.754	0.112	0.099
-132.356	-102.423	0.305	-0.072
-131.341	-163.001	0.457	-0.022
-130.326	-101.279	0.239	-0.058
-129.312	-50.458	0.046	0.022
-128.297	27.673	-0.185	-0.153
-127.283	-145.190	0.194	-0.017
-126.268	-159.579	0.467	-0.026
-125.253	61.864	-0.126	-0.124
-124.239	582.373	-0.067	-0.161
-123.224	42.101	0.084	-0.075
-122.210	-200.000	0.034	0.407
-121.195	82.157	0.173	0.185
-120.180	-200.000	-0.005	-0.330
-119.166	76.248	-0.178	0.185
-118.151	-148.119	-0.137	-0.011
-117.137	-43.534	0.091	-0.045
-116.122	123.750	-0.139	-0.172
-115.107	-127.953	0.284	-0.040
-114.093	-17.106	-0.190	0.118
-113.078	-4.515	0.096	-0.066
-112.064	145.110	0.122	0.161
-111.049	319.407	-0.147	-0.276
-110.034	-9.059	0.297	0.196
-109.020	179.838	0.260	-0.376
-108.005	42.681	0.260	-0.233
-106.991	-200.000	-0.011	0.115
-105.976	-200.000	0.015	-0.067
-104.962	-88.390	0.306	0.090
-103.947	-200.000	0.035	0.153
-102.932	-31.590	-0.113	-0.062
-101.918	-200.000	-0.041	-0.305
-100.903	507.787	0.093	-0.213
-99.889	-200.000	-0.019	0.153
-98.874	-28.721	0.259	-0.147
-97.859	-12.953	0.317	-0.203
-96.845	-131.832	-0.189	0.024
-95.830	577.159	0.016	-0.038
-94.816	247.187	0.203	-0.338
-93.801	-200.000	0.020	-0.088
-92.786	-114.749	0.164	0.031
-91.772	-200.000	-0.032	0.142
-90.757	747.914	-0.065	0.172
-89.743	-41.984	-0.050	0.025
-88.728	-27.816	0.174	-0.099
-87.713	126.830	-0.170	-0.212
-86.699	-97.519	-0.056	-0.014
-85.684	-143.356	-0.134	-0.013
-84.670	-71.545	-0.044	-0.016
-83.655	-88.757	0.172	-0.050
-82.640	515.237	-0.179	-0.411
-81.626	331.621	0.137	0.259
-80.611	61.910	-0.084	-0.083
-79.597	-93.614	0.030	-0.008
-78.582	165.238	0.059	0.082
-77.567	-200.000	0.117	0.509
-76.553	-82.567	0.188	-0.060
-75.538	-200.000	0.043	0.300
-74.524	-112.814	0.108	0.021
-73.509	385.181	0.056	0.115
-72.494	-36.617	0.229	-0.121
-71.480	-5.122	0.228	0.154
-70.465	-72.091	0.354	-0.129
-69.451	252.206	-0.159	0.267
-68.436	352.490	-0.054	0.106
-67.422	-139.087	0.301	-0.032
-66.407	91.268	0.038	0.042
-65.392	-21.033	-0.116	0.070
-64.378	161.018	0.161	0.222
-63.363	-147.113	0.098	-0.008
-62.349	-82.578	0.175	-0.056
-61.334	109.346	-0.873	-1.028
-60.319	82.548	0.362	0.386
-59.305	-200.000	-0.092	-0.869
-58.290	239.447	0.596	0.976
-57.276	800.000	0.411	1.436
-56.261	-200.000	95.960	596.356
-55.246	651.768	1372.743	3460.161
-54.232	199.418	2547.918	3842.771
-53.217	120.299	2137.732	2610.302
-52.203	43.909	1600.616	1442.252
-51.188	35.339	1338.757	1154.932
-50.173	32.205	1296.813	1100.383
-49.159	54.905	1344.253	1276.336
-48.144	57.119	1361.079	1305.430
-47.130	35.642	1319.964	1140.335
-46.115	32.146	1302.254	1104.480
-45.100	31.930	1297.179	1098.864
-44.086	31.804	1294.920	1096.171
-43.071	31.847	1292.590	1094.409
-42.057	31.748	1290.866	1092.325
-41.042	31.750	1288.868	1090.604
-40.027	31.807	1287.191	1089.471
-39.013	31.733	1285.846	1087.860
-37.998	31.822	1283.808	1086.612
-36.984	31.878	1281.774	1085.169
-35.969	31.870	1280.105	1083.667
-34.954	31.881	1278.475	1082.307
-33.940	31.976	1277.273	1081.798
-32.925	31.996	1276.073	1080.852
-31.911	31.981	1273.786	1078.786
-30.896	31.933	1273.124	1077.906
-29.881	31.995	1271.585	1076.916
-28.867	31.933	1270.480	1075.583
-27.852	32.039	1268.663	1074.609
-26.838	32.047	1267.319	1073.475
-25.823	32.047	1266.018	1072.327
-24.809	32.080	1264.572	1071.250
-23.794	31.898	1263.998	1069.680
-22.779	31.992	1262.114	1068.583
-21.765	31.964	1261.127	1067.545
-20.750	31.925	1259.824	1066.174
-19.736	31.924	1258.174	1064.733
-18.721	31.803	1257.551	1063.474
-17.706	31.863	1256.419	1062.819
-16.692	31.923	1254.641	1061.611
-15.677	31.803	1253.729	1060.115
-14.663	31.812	1252.657	1059.220
-13.648	31.813	1251.384	1058.107
-12.633	31.758	1250.667	1057.148
-11.619	31.700	1250.130	1056.323
-10.604	31.764	1249.071	1055.748
-9.590	31.941	1247.380	1055.275
-8.575	31.570	1247.657	1053.377
-7.560	31.736	1246.073	1052.929
-6.546	31.756	1245.186	1052.251
-5.531	31.827	1244.495	1052.024
-4.517	31.777	1243.569	1050.919
-3.502	31.796	1242.614	1050.181
-2.487	31.663	1242.354	1049.173
-1.473	31.701	1237.750	1045.454
-0.458	30.448	1222.883	1025.942
0.556	25.592	1205.875	987.913
1.571	21.952	1211.088	971.973
2.586	21.000	1225.780	978.343
3.600	20.407	1215.227	966.533
4.615	15.557	1144.202	884.487
5.629	7.886	1071.597	790.326
6.644	4.734	1052.344	760.670
7.659	4.418	1050.120	757.453
8.673	4.443	1048.808	756.561
9.688	4.426	1047.327	755.344
10.702	4.565	1045.553	754.672
11.717	8.689	1051.758	779.192
12.731	15.908	1060.857	821.188
13.746	18.678	1064.071	837.136
14.761	17.991	1062.817	832.728
15.775	16.916	1060.669	825.739
16.790	15.890	1058.776	819.202
17.804	15.166	1056.826	814.101
18.819	14.732	1056.163	811.411
19.834	14.611	1054.830	809.730
20.848	14.517	1053.950	808.527
21.863	14.231	1053.289	806.562
22.877	14.178	1052.669	805.760
23.892	14.117	1051.459	804.468
24.907	13.927	1051.228	803.298
25.921	14.099	1049.890	803.039
26.936	14.153	1048.563	802.211
27.950	14.145	1047.174	801.038
28.965	14.182	1045.666	799.995
29.980	14.185	1044.339	798.923
30.994	14.289	1043.673	798.838
32.009	14.296	1042.564	797.955
33.023	14.362	1040.976	796.985
34.038	14.260	1040.091	795.748
35.053	14.206	1039.541	795.000
36.067	14.162	1038.422	793.865
37.082	14.238	1038.124	793.926
38.096	14.154	1037.327	792.846
39.111	14.137	1036.583	792.130
40.126	14.031	1035.203	790.500
41.140	13.979	1033.729	789.057
42.155	13.940	1032.522	787.881
43.169	13.814	1032.266	787.020
44.184	13.878	1030.735	786.084
45.199	13.920	1029.575	785.327
46.213	14.034	1028.565	785.029
47.228	14.102	1027.388	784.379
48.242	14.162	1026.474	783.894
49.257	14.166	1025.604	783.180
50.271	14.152	1024.649	782.317
51.286	14.245	1023.959	782.157
52.301	14.189	1022.693	780.859
53.315	14.079	1021.918	779.684
54.330	14.059	1020.627	778.533
55.344	13.923	1020.378	777.641
56.359	13.943	1019.403	776.921
57.374	13.911	1018.347	775.899
58.388	13.945	1017.109	775.043
59.403	13.962	1016.728	774.767
60.417	13.957	1016.044	774.152
61.432	13.900	1014.889	772.939
62.447	13.853	1014.357	772.244
63.461	13.800	1013.209	771.056
64.476	13.691	1012.959	770.294
65.490	13.791	1011.576	769.635
66.505	13.908	1011.134	769.777
67.520	13.917	1010.570	769.319
68.534	13.949	1009.612	768.670
69.549	13.782	1009.067	767.413
70.563	13.891	1008.376	767.324
71.578	13.814	1007.151	765.969
72.593	13.729	1006.706	765.171
73.607	13.658	1006.381	764.530
74.622	13.790	1005.361	764.294
75.636	13.710	1004.743	763.388
76.651	13.734	1003.948	762.829
77.666	13.674	1003.393	762.064
78.680	13.694	1003.246	761.976
79.695	13.934	1001.970	762.040
80.709	13.880	1001.567	761.416
81.724	13.879	1000.951	760.878
82.739	14.099	1000.199	761.246
83.753	14.179	999.675	761.144
84.768	14.116	998.755	760.091
85.782	14.288	997.702	760.005
86.797	14.295	996.728	759.228
87.812	14.247	995.756	758.203
88.826	14.254	994.422	757.154
89.841	14.154	994.309	756.542
90.855	14.222	993.280	756.002
91.870	14.326	992.458	755.781
92.884	14.220	991.533	754.532
93.899	14.293	990.624	754.102
94.914	14.414	989.994	754.105
95.928	14.216	989.213	752.548
96.943	14.179	988.591	751.840
97.957	14.312	987.339	751.420
98.972	14.273	986.928	750.867
99.987	14.445	985.159	750.229
101.001	14.354	984.571	749.304
102.016	14.252	983.849	748.229
103.030	14.295	983.611	748.178
104.045	14.193	982.647	746.919
105.060	14.228	981.769	746.344
106.074	14.038	980.767	744.666
107.089	13.928	979.672	743.274
108.103	13.960	978.815	742.701
109.118	13.877	978.218	741.814
110.133	13.873	977.137	740.909
111.147	13.948	976.007	740.321
112.162	14.003	975.272	739.944
113.176	14.103	974.326	739.605
114.191	14.128	973.652	739.137
115.206	14.170	972.953	738.728
116.220	14.004	972.209	737.364
117.235	14.031	971.502	736.880
118.249	13.986	970.596	735.929
119.264	14.002	969.704	735.259
120.279	14.064	969.042	734.967
121.293	13.960	967.679	733.409
122.308	13.911	966.924	732.552
123.322	13.951	965.845	731.846
124.337	13.969	965.250	731.414
125.352	13.799	964.258	729.847
126.366	13.836	963.268	729.197
127.381	13.832	962.358	728.427
128.395	13.965	961.045	727.948
129.410	13.954	959.719	726.834
130.424	14.026	959.597	726.991
131.439	14.051	958.344	726.087
132.454	14.044	957.883	725.644
133.468	14.150	957.077	725.432
134.483	14.033	956.361	724.315
135.497	14.039	955.603	723.703
136.512	14.083	954.277	722.825
137.527	14.157	953.823	722.738
138.541	14.062	953.382	721.928
139.556	14.093	952.642	721.437
140.570	14.427	951.508	721.964
141.585	14.254	951.005	720.768
142.600	14.341	950.053	720.360
143.614	14.381	949.463	720.022
144.629	14.382	948.780	719.443
145.643	14.352	947.620	718.370
146.658	14.239	946.580	717.033
147.673	14.234	945.320	715.995
148.687	14.178	944.697	715.215
149.702	14.110	943.809	714.190
150.716	14.234	942.890	713.964
151.731	14.219	941.866	713.058
152.746	14.121	941.849	712.564
153.760	14.307	940.627	712.374
154.775	14.277	940.498	712.083
155.789	14.279	939.724	711.445
156.804	14.339	938.995	711.084
157.819	14.352	938.578	710.761
158.833	14.367	937.741	710.127
159.848	14.432	937.007	709.788
160.862	14.572	935.510	709.184
161.877	14.360	934.584	707.520
162.892	14.221	934.213	706.587
163.906	14.264	933.115	705.876
164.921	14.226	932.391	705.104
165.935	14.371	931.259	704.800
166.950	14.256	930.842	703.934
167.964	14.380	929.753	703.572
168.979	14.406	928.495	702.667
169.994	14.400	928.130	702.305
171.008	14.386	927.058	701.374
172.023	14.517	926.811	701.675
173.037	14.641	925.656	701.261
174.052	14.437	925.494	700.219
175.067	14.414	924.696	699.456
176.081	14.259	924.165	698.341
177.096	14.185	923.946	697.802
178.110	14.361	923.055	697.807
179.125	14.491	921.859	697.387
180.140	14.423	921.817	697.005
181.154	14.520	921.168	696.860
182.169	14.569	920.761	696.695
183.183	14.473	920.221	695.825
184.198	14.678	919.531	696.097
185.213	14.660	918.300	695.029
186.227	14.597	918.374	694.757
187.242	14.663	917.656	694.429
188.256	14.850	916.697	694.420
189.271	14.769	915.712	693.275
190.286	14.389	915.469	691.455
191.300	14.369	914.255	690.392
192.315	14.324	913.208	689.355
193.329	14.364	913.335	689.553
194.344	14.432	912.425	689.087
195.359	14.478	911.950	688.858
196.373	14.522	911.250	688.449
197.388	14.679	910.987	688.837
198.402	14.902	910.395	689.251
199.417	14.887	909.915	688.765
200.432	14.898	909.536	688.460
201.446	14.954	909.215	688.386
202.461	14.894	908.738	687.719
203.475	14.960	907.920	687.310
204.490	14.947	907.276	686.708
205.504	14.874	906.160	685.501
206.519	14.836	905.598	684.861
207.534	14.858	904.806	684.291
208.548	14.752	904.267	683.389
209.563	14.855	903.540	683.202
210.577	14.793	903.005	682.484
211.592	15.061	902.096	682.829
212.607	15.153	901.383	682.603
213.621	15.066	900.890	681.818
214.636	14.930	899.800	680.377
215.650	15.139	899.058	680.604
216.665	15.203	898.385	680.298
217.680	15.185	898.145	679.983
218.694	15.078	897.573	679.052
219.709	15.132	896.828	678.649
220.723	15.281	896.140	678.670
221.738	15.117	895.753	677.655
222.753	15.094	895.072	676.987
223.767	15.198	894.448	676.875
224.782	15.239	894.037	676.669
225.796	15.341	893.392	676.531
226.811	15.281	892.618	675.645
227.826	15.259	891.990	675.022
228.840	15.049	891.438	673.696
229.855	15.108	890.529	673.189
230.869	15.255	889.585	673.007
231.884	15.209	889.036	672.345
232.899	15.143	888.294	671.459
233.913	15.081	887.657	670.673
234.928	15.042	886.838	669.838
235.942	15.048	886.445	669.508
236.957	15.064	886.070	669.228
237.972	15.220	885.082	669.045
238.986	15.176	884.550	668.409
240.001	15.273	883.858	668.214
241.015	15.087	883.622	667.232
242.030	15.224	882.872	667.154
243.045	15.231	882.358	666.735
244.059	15.319	881.956	666.723
245.074	15.356	881.634	666.565
246.088	15.341	881.101	666.044
247.103	15.456	879.927	665.552
248.117	15.530	879.632	665.563
249.132	15.676	878.974	665.587
250.147	15.621	878.703	665.105
251.161	15.684	878.115	664.851
252.176	15.668	877.671	664.392
253.190	15.698	876.490	663.559
254.205	15.843	876.107	663.780
255.220	15.916	874.984	663.157
256.234	15.796	874.778	662.471
257.249	15.846	873.578	661.700
258.263	15.812	872.991	661.063
259.278	15.760	872.692	660.574
260.293	15.944	872.022	660.733
261.307	15.811	871.661	659.877
262.322	15.879	871.048	659.622
263.336	15.992	870.225	659.382
264.351	16.038	869.300	658.803
265.366	16.010	869.021	658.424
266.380	15.974	868.098	657.525
267.395	15.753	867.806	656.384
268.409	16.009	866.391	656.252
269.424	15.954	865.805	655.538
270.439	15.942	865.367	655.101
271.453	15.838	864.748	654.168
272.468	15.848	864.337	653.839
273.482	15.968	863.647	653.726
274.497	15.971	863.139	653.294
275.512	15.906	862.566	652.552
276.526	15.950	861.981	652.220
277.541	15.959	861.705	651.991
278.555	16.052	861.342	652.018
279.570	16.142	860.555	651.712
280.585	16.120	859.489	650.762
281.599	16.176	858.294	650.014
282.614	15.947	857.979	648.837
283.628	16.039	857.612	648.857
284.643	16.119	856.822	648.510
285.657	16.082	856.303	647.917
286.672	16.001	855.971	647.296
287.687	16.090	855.228	647.020
288.701	16.185	854.287	646.613
289.716	16.179	853.921	646.258
290.730	16.267	853.507	646.224
291.745	16.188	852.754	645.293
292.760	16.306	852.185	645.256
293.774	16.334	851.802	645.016
294.789	16.329	850.997	644.332
295.803	16.247	850.516	643.598
296.818	16.149	849.916	642.713
297.833	16.129	849.336	642.142
298.847	16.181	848.540	641.682
299.862	16.396	847.863	641.929
300.876	16.395	847.493	641.586
301.891	16.442	846.787	641.177
302.906	16.524	846.173	640.965
303.920	16.559	845.719	640.697
304.935	16.781	844.893	640.854
305.949	16.550	844.300	639.473
306.964	16.480	844.286	639.142
307.979	16.464	843.613	638.514
308.993	16.529	843.147	638.353
310.008	16.570	842.369	637.862
311.022	16.595	841.888	637.536
312.037	16.566	840.874	636.601
313.052	16.458	840.446	635.814
314.066	16.356	840.149	635.149
315.081	16.549	839.248	635.136
316.095	16.348	838.871	634.040
317.110	16.411	838.290	633.782
318.125	16.477	837.757	633.572
319.139	16.416	837.474	633.074
320.154	16.474	837.014	632.886
321.168	16.593	836.422	632.826
322.183	16.648	835.702	632.431
323.197	16.583	835.430	631.930
324.212	16.643	834.656	631.509
325.227	16.417	834.473	630.471
326.241	16.598	833.516	630.367
327.256	16.590	833.135	629.995
328.270	16.409	832.517	628.799
329.285	16.546	831.843	628.741
330.300	16.554	831.337	628.335
331.314	16.657	830.771	628.235
332.329	16.759	830.288	628.191
333.343	16.633	829.908	627.379
334.358	16.622	829.734	627.154
335.373	16.666	829.496	627.080
336.387	16.670	828.935	626.615
337.402	16.834	829.055	627.257
338.416	16.857	828.657	626.985
339.431	17.072	827.810	627.085
340.446	16.978	827.346	626.330
341.460	17.171	826.817	626.587
342.475	16.988	827.056	626.035
343.489	17.120	826.433	625.997
344.504	17.178	825.894	625.746
345.519	17.117	825.202	624.944
346.533	17.167	824.884	624.831
347.548	17.063	824.257	623.917
348.562	16.928	823.705	622.950
349.577	16.821	823.168	622.094
350.592	16.935	822.397	621.877
351.606	16.897	821.765	621.202
352.621	16.980	821.041	620.905
353.635	16.994	820.318	620.354
354.650	16.975	819.704	619.765
355.665	16.985	819.353	619.481
356.679	17.043	818.689	619.138
357.694	17.044	818.198	618.713
358.708	17.172	817.645	618.707
359.723	17.195	817.150	618.361
360.738	17.056	816.547	617.344
361.752	17.235	816.019	617.542
362.767	17.229	815.661	617.196
363.781	17.436	814.769	617.215
364.796	17.511	814.226	617.023
365.810	17.386	814.469	616.698
366.825	17.390	813.851	616.191
367.840	17.445	812.878	615.596
368.854	17.479	812.768	615.583
369.869	17.410	812.556	615.119
370.883	17.447	811.649	614.511
371.898	17.449	811.742	614.534
372.913	17.533	811.467	614.576
373.927	17.509	810.672	613.832
374.942	17.593	810.308	613.805
375.956	17.606	809.544	613.219
376.971	17.583	809.291	612.888
377.986	17.637	809.201	612.962
379.000	17.770	808.539	612.885
380.015	17.760	807.689	612.149
381.029	17.708	807.254	611.580
382.044	17.675	806.697	610.986
383.059	17.890	806.022	611.190
384.073	17.728	805.716	610.324
385.088	17.557	805.198	609.265
386.102	17.513	804.429	608.474
387.117	17.575	804.036	608.344
388.132	17.709	803.010	607.989
389.146	17.707	802.865	607.820
390.161	17.675	802.829	607.624
391.175	17.777	802.010	607.314
392.190	17.760	801.382	606.724
393.205	17.720	800.823	606.105
394.219	17.662	800.923	605.921
395.234	17.603	800.075	605.018
396.248	17.645	799.987	605.044
397.263	17.532	798.998	603.844
398.278	17.648	798.922	604.143
399.292	17.588	798.451	603.520
400.307	17.396	798.283	602.661
401.321	17.483	797.587	602.391
402.336	17.673	797.323	602.808
403.350	17.754	796.568	602.471
404.365	17.858	796.129	602.453
405.380	18.060	795.564	602.685
406.394	18.071	795.004	602.246
407.409	18.058	794.820	602.008
408.423	18.049	794.830	601.930
409.438	18.164	794.233	601.828
410.453	18.157	793.535	601.221
411.467	18.140	793.474	601.065
412.482	18.152	793.103	600.771
413.496	18.089	793.021	600.435
414.511	18.087	792.393	599.898
415.526	18.088	791.772	599.378
416.540	18.098	791.167	598.902
417.555	18.113	790.799	598.626
418.569	18.057	790.684	598.289
419.584	18.361	789.981	598.768
420.599	18.360	789.685	598.486
421.613	156.338	1371.257	1795.479
422.628	135.205	1455.966	1795.590
