DTS Sentinel unit serial number:	SN413079Multiplexer serial number:	ORYXHardware model number:	OX4-SRSoftware version number:	ORYX F/W v4.00 Oryx Data Collector v3.7.2.0data status	okinstallation	princeton_trtdifferential loss correction	single-endedforward channel	channel 1reverse channel	N/Adate	2019/09/18time	02:54:35forward acquisition time	60.00reverse acquisition time	0.00gamma	496.2192k internal	0.2341k external	0.2341temperature offset calibration	0.9977default loss term (dB/km)	0.3790temperature slope calibration	1.0000multiplexer offset coefficient	1.0000multiplexer slope coefficient	1.0000fibre end	0.00T internal ref (°C)	22.75T ext. ref 1 (°C)	0.16T ext. ref 2 (°C)	16.64length (m)	temperature (°C)	Stokes	anti-Stokes-747.200	-200.000	0.017	-0.162
-746.185	150.064	-0.169	0.230
-745.171	4.456	0.016	0.011
-744.156	9.489	0.206	0.156
-743.142	-4.904	0.179	0.123
-742.127	311.638	-0.229	0.431
-741.112	-200.000	0.011	0.270
-740.098	-160.687	0.091	-0.005
-739.083	-116.900	-0.222	0.041
-738.069	-200.000	-0.007	0.195
-737.054	-46.507	0.111	0.055
-736.039	20.719	-0.305	-0.248
-735.025	745.370	0.087	-0.236
-734.010	800.000	0.014	-0.061
-732.996	-76.555	-0.236	-0.083
-731.981	800.000	0.025	0.084
-730.966	800.000	0.077	-0.320
-729.952	-114.329	-0.452	0.087
-728.937	60.528	-0.151	-0.150
-727.923	-165.947	0.310	-0.013
-726.908	318.743	-0.055	0.104
-725.894	-28.708	-0.211	-0.121
-724.879	-127.780	-0.484	0.070
-723.864	-32.064	0.358	0.201
-722.850	-200.000	-0.033	-0.300
-721.835	-200.000	0.134	0.000
-720.821	-113.825	-0.332	-0.065
-719.806	800.000	-0.077	0.235
-718.791	-85.780	-0.210	-0.065
-717.777	-74.319	-0.266	-0.096
-716.762	95.051	-0.105	-0.119
-715.748	189.858	-0.293	-0.441
-714.733	-92.784	-0.126	-0.035
-713.718	127.770	0.173	-0.220
-712.704	111.823	0.139	-0.168
-711.689	-85.654	0.545	0.169
-710.675	-200.000	0.016	-0.356
-709.660	-200.000	0.010	-0.324
-708.645	-200.000	-0.026	-0.306
-707.631	800.000	0.020	0.068
-706.616	251.313	0.091	-0.155
-705.602	540.623	-0.137	-0.327
-704.587	800.000	-0.039	-0.127
-703.572	1.985	-0.327	0.236
-702.558	-200.000	0.025	0.248
-701.543	800.000	-0.099	-0.350
-700.529	40.604	0.360	-0.325
-699.514	38.886	-0.247	-0.221
-698.499	-149.772	-0.235	-0.018
-697.485	-200.000	-0.079	-0.390
-696.470	81.536	-0.333	-0.360
-695.456	-200.000	-0.014	0.130
-694.441	800.000	0.046	-0.157
-693.426	-77.053	-0.449	0.157
-692.412	128.032	0.282	-0.358
-691.397	72.160	-0.141	-0.147
-690.383	-100.273	-0.252	0.063
-689.368	800.000	0.017	0.067
-688.354	-21.463	-0.391	0.239
-687.339	207.266	-0.144	0.225
-686.324	-11.083	-0.297	0.196
-685.310	2.866	-0.166	0.121
-684.295	-115.635	0.132	-0.025
-683.281	-200.000	0.015	-0.290
-682.266	7.666	0.189	-0.141
-681.251	-123.193	-0.222	-0.036
-680.237	-200.000	0.056	-0.263
-679.222	41.193	-0.261	-0.236
-678.208	139.130	-0.376	-0.494
-677.193	256.244	0.096	0.165
-676.178	404.154	-0.131	-0.277
-675.164	-81.480	0.198	0.065
-674.149	-59.290	-0.221	-0.095
-673.135	-112.898	0.099	0.020
-672.120	135.788	0.030	0.038
-671.105	-200.000	0.028	0.200
-670.091	111.726	0.199	0.239
-669.076	511.081	0.032	-0.075
-668.062	-96.578	-0.526	0.139
-667.047	6.730	-0.319	0.237
-666.032	84.059	-0.241	-0.264
-665.018	404.671	0.074	-0.157
-664.003	-200.000	0.037	-0.238
-662.989	800.000	-0.043	-0.178
-661.974	-2.231	-0.239	-0.167
-660.959	800.000	0.025	-0.111
-659.945	181.186	-0.021	-0.031
-658.930	530.588	0.129	-0.306
-657.916	291.560	0.170	0.308
-656.901	-200.000	-0.003	-0.138
-655.886	-54.445	-0.123	-0.056
-654.872	-65.465	-0.107	0.043
-653.857	86.619	0.137	0.151
-652.843	278.175	-0.069	0.123
-651.828	-27.136	0.102	0.059
-650.814	-200.000	0.002	-0.137
-649.799	-14.815	-0.174	-0.112
-648.784	306.746	-0.236	0.440
-647.770	-14.769	-0.103	0.066
-646.755	-24.132	0.079	-0.047
-645.741	-145.651	-0.021	-0.002
-644.726	-200.000	-0.034	-0.198
-643.711	-200.000	-0.001	-0.230
-642.697	-34.489	0.159	-0.087
-641.682	-19.714	0.169	0.104
-640.668	152.684	0.056	0.077
-639.653	199.828	-0.262	0.402
-638.638	2.829	0.295	0.214
-637.624	-25.799	0.400	0.235
-636.609	-157.057	-0.304	-0.018
-635.595	800.000	0.065	-0.205
-634.580	210.872	0.148	-0.231
-633.565	-103.253	-0.248	0.059
-632.551	671.887	0.039	-0.100
-631.536	-200.000	-0.064	0.313
-630.522	-2.365	-0.279	0.195
-629.507	-200.000	0.043	-0.193
-628.492	-43.797	-0.276	-0.139
-627.478	800.000	0.094	0.303
-626.463	69.619	0.009	0.009
-625.449	455.898	0.092	-0.203
-624.434	-20.669	-0.511	-0.313
-623.419	111.839	-0.325	-0.391
-622.405	800.000	0.009	0.033
-621.390	800.000	0.045	0.169
-620.376	-200.000	-0.002	0.252
-619.361	164.350	0.093	-0.131
-618.346	-63.045	-0.148	-0.061
-617.332	15.424	-0.221	0.173
-616.317	38.563	0.098	0.088
-615.303	-91.258	-0.261	0.075
-614.288	-49.520	-0.218	0.104
-613.273	-200.000	0.005	-0.321
-612.259	253.946	-0.132	-0.226
-611.244	800.000	0.037	-0.141
-610.230	-148.889	-0.356	-0.029
-609.215	-155.542	0.225	0.014
-608.201	-188.256	0.310	0.004
-607.186	68.619	-0.038	0.039
-606.171	-129.744	-0.020	0.003
-605.157	277.186	0.114	-0.203
-604.142	744.426	-0.136	0.366
-603.128	800.000	0.089	-0.309
-602.113	-200.000	0.049	0.283
-601.098	-83.866	-0.162	-0.051
-600.084	-122.811	-0.177	-0.028
-599.069	154.669	-0.059	-0.081
-598.055	0.438	0.311	-0.222
-597.040	-200.000	-0.037	0.290
-596.025	-49.721	-0.151	0.072
-595.011	12.571	-0.125	0.096
-593.996	-37.285	-0.025	-0.013
-592.982	17.782	-0.034	-0.027
-591.967	-200.000	0.002	0.122
-590.952	35.970	-0.219	0.192
-589.938	217.553	-0.038	0.061
-588.923	176.593	-0.059	0.085
-587.909	-200.000	0.012	0.139
-586.894	43.130	0.287	-0.261
-585.879	-2.436	0.229	-0.160
-584.865	485.409	0.086	-0.195
-583.850	-83.224	0.356	0.114
-582.836	92.697	0.013	0.015
-581.821	-130.134	-0.288	0.039
-580.806	800.000	-0.060	-0.230
-579.792	63.620	0.226	-0.226
-578.777	-95.633	-0.248	0.066
-577.763	-45.754	0.075	0.037
-576.748	406.254	-0.149	0.313
-575.733	83.229	0.086	-0.093
-574.719	-200.000	0.008	0.095
-573.704	7.253	0.140	-0.104
-572.690	800.000	0.076	-0.224
-571.675	525.850	-0.093	-0.217
-570.661	-200.000	-0.053	-0.318
-569.646	66.592	-0.160	-0.162
-568.631	-114.879	0.144	0.027
-567.617	83.208	0.193	0.209
-566.602	-161.273	-0.231	-0.012
-565.588	-130.859	-0.546	-0.073
-564.573	-125.192	-0.291	-0.044
-563.558	13.220	-0.293	-0.226
-562.544	659.568	-0.079	0.202
-561.529	-177.673	0.256	-0.006
-560.515	-133.271	0.171	0.021
-559.500	-200.000	-0.010	-0.393
-558.485	46.344	-0.234	-0.216
-557.471	412.573	-0.126	-0.266
-556.456	-86.530	0.125	0.038
-555.442	-197.444	-0.321	0.002
-554.427	800.000	0.063	-0.246
-553.412	800.000	0.058	-0.170
-552.398	-133.546	0.101	-0.013
-551.383	37.547	-0.272	-0.240
-550.369	-145.504	-0.222	0.020
-549.354	-142.451	-0.274	0.027
-548.339	-164.346	-0.217	-0.010
-547.325	-77.355	-0.145	0.050
-546.310	-200.000	-0.011	0.458
-545.296	-0.860	0.203	-0.143
-544.281	800.000	-0.106	0.311
-543.266	-80.479	0.375	0.125
-542.252	-17.713	0.045	0.028
-541.237	-200.000	-0.076	-0.391
-540.223	156.960	-0.165	-0.226
-539.208	800.000	0.101	-0.405
-538.193	-31.882	-0.223	-0.124
-537.179	-200.000	0.083	-0.372
-536.164	-120.024	0.421	0.072
-535.150	-73.555	0.362	-0.131
-534.135	180.157	0.156	-0.227
-533.121	-29.215	-0.211	-0.120
-532.106	41.421	0.066	-0.059
-531.091	-57.666	0.153	0.067
-530.077	466.254	0.169	-0.377
-529.062	-109.987	-0.136	0.028
-528.048	-13.410	-0.098	-0.063
-527.033	-129.023	-0.246	-0.034
-526.018	537.476	-0.187	0.443
-525.004	352.473	0.045	-0.088
-523.989	79.560	-0.103	-0.109
-522.975	800.000	0.068	0.226
-521.960	71.152	0.299	0.308
-520.945	134.879	0.087	-0.112
-519.931	404.860	0.104	-0.218
-518.916	110.224	0.151	-0.180
-517.902	-146.711	-0.122	-0.010
-516.887	14.925	0.052	0.040
-515.872	-49.166	0.185	0.088
-514.858	47.911	-0.214	0.198
-513.843	-118.859	0.260	0.045
-512.829	800.000	-0.072	-0.278
-511.814	36.589	0.179	-0.157
-510.799	91.446	-0.080	0.089
-509.785	-148.454	-0.322	0.026
-508.770	-130.232	-0.277	-0.037
-507.756	203.109	0.088	0.136
-506.741	159.524	0.127	0.175
-505.726	-200.000	0.021	0.114
-504.712	800.000	-0.083	-0.255
-503.697	-14.493	0.161	0.103
-502.683	-140.553	-0.244	0.025
-501.668	78.976	-0.183	0.195
-500.653	-200.000	-0.031	0.189
-499.639	-82.878	0.158	0.051
-498.624	-63.662	0.222	0.090
-497.610	-200.000	-0.040	-0.197
-496.595	-62.888	0.304	-0.125
-495.581	-154.481	0.171	-0.011
-494.566	-94.400	-0.213	-0.058
-493.551	-172.025	0.320	0.010
-492.537	206.132	-0.172	-0.265
-491.522	800.000	0.027	-0.091
-490.508	-77.091	-0.216	-0.075
-489.493	101.002	0.139	-0.160
-488.478	800.000	-0.166	0.525
-487.464	-144.768	0.522	0.048
-486.449	-200.000	0.017	0.115
-485.435	-79.579	0.291	-0.098
-484.420	-88.688	-0.200	0.059
-483.405	81.356	0.086	0.093
-482.391	-105.052	0.321	-0.073
-481.376	800.000	0.090	-0.312
-480.362	192.924	-0.097	-0.145
-479.347	-200.000	-0.004	-0.274
-478.332	-200.000	-0.006	0.309
-477.318	-200.000	0.016	-0.130
-476.303	-154.528	0.205	-0.014
-475.289	230.811	0.112	-0.182
-474.274	800.000	-0.040	0.133
-473.259	-121.907	0.185	0.030
-472.245	-102.161	0.044	-0.010
-471.230	-173.804	0.396	-0.012
-470.216	-83.172	-0.369	0.118
-469.201	-200.000	0.007	0.050
-468.186	-29.518	-0.422	0.239
-467.172	-161.729	0.060	0.003
-466.157	-200.000	-0.030	0.146
-465.143	-66.303	0.251	0.099
-464.128	-119.558	-0.266	0.046
-463.113	-37.421	-0.130	0.069
-462.099	130.274	0.115	0.146
-461.084	-200.000	0.033	0.201
-460.070	800.000	0.072	-0.242
-459.055	-123.331	0.073	0.011
-458.040	443.617	0.097	-0.210
-457.026	60.933	0.141	-0.138
-456.011	-200.000	0.034	-0.259
-454.997	33.375	-0.125	-0.108
-453.982	-200.000	0.048	0.246
-452.968	800.000	-0.016	-0.050
-451.953	800.000	-0.068	0.288
-450.938	236.832	-0.045	-0.074
-449.924	40.895	0.121	-0.108
-448.909	-26.327	-0.163	-0.095
-447.895	-61.849	-0.149	0.062
-446.880	-127.900	-0.166	0.024
-445.865	-76.796	-0.085	0.029
-444.851	746.064	-0.078	-0.208
-443.836	233.316	0.062	0.101
-442.822	33.903	-0.086	0.075
-441.807	800.000	-0.047	0.162
-440.792	-200.000	0.299	0.001
-439.778	113.923	0.049	-0.059
-438.763	25.717	-0.133	0.110
-437.749	-7.152	-0.142	0.096
-436.734	800.000	-0.028	-0.097
-435.719	-57.341	0.353	0.154
-434.705	16.799	0.125	-0.098
-433.690	-32.112	-0.092	0.051
-432.676	-94.334	-0.120	-0.033
-431.661	-79.528	0.221	-0.074
-430.646	-82.247	0.039	-0.013
-429.632	169.368	-0.166	0.235
-428.617	800.000	-0.072	0.207
-427.603	-93.428	0.397	0.109
-426.588	239.497	0.069	0.113
-425.573	800.000	-0.066	0.204
-424.559	192.411	-0.326	-0.488
-423.544	-5.829	0.247	-0.168
-422.530	6.809	-0.214	-0.158
-421.515	-125.286	-0.048	-0.007
-420.500	409.617	-0.140	0.293
-419.486	233.180	-0.107	-0.175
-418.471	800.000	-0.032	0.131
-417.457	-101.047	0.334	-0.081
-416.442	19.291	-0.142	-0.113
-415.428	-98.653	0.289	-0.073
-414.413	297.449	0.175	0.317
-413.398	800.000	-0.039	-0.133
-412.384	-200.000	0.007	0.134
-411.369	-200.000	0.021	0.301
-410.355	-113.825	-0.043	-0.008
-409.340	56.435	0.184	0.177
-408.325	-200.000	0.024	0.288
-407.311	296.562	-0.102	0.185
-406.296	26.362	-0.149	0.123
-405.282	-200.000	0.063	0.307
-404.267	-24.097	-0.226	0.134
-403.252	800.000	-0.086	-0.317
-402.238	-76.758	0.422	0.146
-401.223	136.496	-0.310	0.400
-400.209	74.656	0.195	0.203
-399.194	-81.998	0.449	0.145
-398.179	169.018	-0.129	0.181
-397.165	25.655	0.043	-0.035
-396.150	30.858	-0.400	0.339
-395.136	86.597	0.407	0.444
-394.121	-102.170	-0.099	-0.024
-393.106	-200.000	0.055	0.262
-392.092	-200.000	-0.012	-0.274
-391.077	51.458	0.105	-0.099
-390.063	-94.578	-0.116	-0.031
-389.048	-200.000	-0.023	0.331
-388.033	5.656	-0.165	-0.121
-387.019	-74.702	-0.127	-0.045
-386.004	9.233	-0.074	-0.055
-384.990	-107.783	-0.178	-0.038
-383.975	240.996	0.127	-0.210
-382.960	-51.477	0.146	-0.068
-381.946	-1.353	-0.149	0.104
-380.931	-39.642	0.045	-0.023
-379.917	81.023	0.161	0.171
-378.902	473.479	-0.116	-0.257
-377.888	-93.426	-0.266	0.073
-376.873	-88.368	0.253	-0.075
-375.858	-2.643	0.261	0.181
-374.844	-200.000	-0.015	-0.165
-373.829	-132.714	0.290	0.037
-372.815	-2.390	-0.119	-0.083
-371.800	91.433	0.125	-0.138
-370.785	112.344	0.337	-0.402
-369.771	-200.000	-0.001	0.179
-368.756	-200.000	-0.030	0.149
-367.742	31.558	0.045	0.038
-366.727	120.456	-0.085	0.104
-365.712	583.883	0.038	-0.093
-364.698	196.584	-0.166	0.250
-363.683	-53.363	-0.554	-0.251
-362.669	-124.983	0.133	0.020
-361.654	-4.458	0.244	-0.166
-360.639	3.939	-0.069	-0.049
-359.625	164.487	-0.118	0.165
-358.610	-56.746	0.281	-0.123
-357.596	-103.073	0.336	-0.079
-356.581	-67.997	0.167	0.064
-355.566	-43.529	-0.246	-0.122
-354.552	-84.607	0.168	-0.052
-353.537	70.916	0.086	0.088
-352.523	-136.264	-0.376	0.043
-351.508	272.671	-0.158	-0.275
-350.493	113.612	-0.126	0.151
-349.479	-72.765	0.302	0.110
-348.464	349.817	-0.029	-0.056
-347.450	-109.720	-0.285	-0.059
-346.435	-105.633	-0.335	0.075
-345.420	-39.167	0.190	-0.099
-344.406	-143.473	0.225	-0.021
-343.391	-94.120	0.108	0.029
-342.377	-119.546	0.027	0.005
-341.362	800.000	0.043	0.122
-340.348	800.000	-0.039	0.119
-339.333	342.653	-0.159	-0.307
-338.318	65.237	0.245	-0.245
-337.304	-121.606	0.196	0.032
-336.289	-200.000	-0.017	0.109
-335.275	800.000	0.057	-0.200
-334.260	-93.798	0.238	-0.065
-333.245	12.705	0.066	0.050
-332.231	-76.450	-0.031	-0.011
-331.216	-64.070	-0.214	0.086
-330.202	273.798	0.073	-0.126
-329.187	-38.347	-0.088	0.046
-328.172	-87.700	-0.373	0.111
-327.158	800.000	0.046	-0.144
-326.143	-136.336	0.273	0.031
-325.129	-154.884	-0.131	-0.009
-324.114	-157.850	-0.456	0.027
-323.099	-90.240	-0.466	-0.133
-322.085	199.528	-0.053	-0.080
-321.070	-200.000	-0.010	0.164
-320.056	-200.000	0.032	0.254
-319.041	64.067	0.193	0.192
-318.026	58.356	-0.048	0.046
-317.012	324.623	-0.077	0.145
-315.997	-105.940	-0.340	0.075
-314.983	-55.545	0.197	0.087
-313.968	-200.000	0.003	0.216
-312.953	-61.008	-0.158	0.066
-311.939	-163.541	0.307	-0.014
-310.924	-168.109	-0.381	0.015
-309.910	181.157	-0.052	-0.076
-308.895	40.918	0.008	0.007
-307.880	-95.689	-0.182	0.048
-306.866	-200.000	0.000	0.101
-305.851	-146.077	0.475	-0.041
-304.837	-1.290	-0.165	-0.115
-303.822	5.894	-0.206	-0.150
-302.807	-200.000	0.009	-0.101
-301.793	-200.000	-0.018	0.142
-300.778	155.737	0.232	0.315
-299.764	800.000	0.043	0.168
-298.749	-200.000	-0.000	-0.332
-297.735	0.300	0.203	-0.143
-296.720	-18.871	-0.057	0.035
-295.705	-85.009	-0.084	0.026
-294.691	-200.000	-0.011	0.264
-293.676	-200.000	0.025	-0.111
-292.662	-101.360	-0.154	0.037
-291.647	-120.675	-0.168	-0.028
-290.632	800.000	0.017	0.049
-289.618	-200.000	0.016	0.278
-288.603	-84.500	0.150	0.046
-287.589	9.671	-0.248	0.185
-286.574	161.490	-0.089	-0.122
-285.559	157.943	0.039	-0.053
-284.545	-101.430	-0.207	0.050
-283.530	800.000	0.052	-0.143
-282.516	-200.000	-0.020	0.432
-281.501	-200.000	-0.010	0.241
-280.486	-28.838	0.402	-0.227
-279.472	800.000	-0.063	0.218
-278.457	35.993	0.091	-0.079
-277.443	-14.256	-0.216	0.137
-276.428	-200.000	0.030	-0.179
-275.413	-59.659	-0.200	-0.084
-274.399	-200.000	-0.015	0.132
-273.384	-63.730	-0.216	0.087
-272.370	653.988	-0.169	-0.426
-271.355	350.933	-0.058	0.114
-270.340	-16.006	0.015	-0.009
-269.326	50.905	0.161	0.150
-268.311	-85.956	0.043	0.013
-267.297	77.195	-0.134	-0.140
-266.282	583.533	0.113	0.272
-265.267	130.074	-0.154	0.194
-264.253	800.000	-0.085	0.257
-263.238	214.975	0.067	-0.105
-262.224	651.542	-0.189	-0.475
-261.209	-128.388	-0.109	0.015
-260.195	-200.000	0.046	-0.243
-259.180	-56.273	0.255	0.112
-258.165	-71.619	-0.122	0.045
-257.151	-169.619	0.259	0.009
-256.136	800.000	-0.079	0.276
-255.122	12.522	0.288	-0.218
-254.107	9.319	-0.262	-0.195
-253.092	0.837	0.316	-0.222
-252.078	-22.283	-0.302	0.180
-251.063	-200.000	0.008	-0.133
-250.049	-200.000	0.046	-0.310
-249.034	-89.860	-0.097	-0.028
-248.019	-103.648	-0.159	-0.037
-247.005	-129.168	0.380	0.052
-245.990	800.000	-0.094	0.272
-244.976	189.701	0.096	-0.141
-243.961	496.906	0.121	0.273
-242.946	-82.403	0.245	-0.078
-241.932	126.957	-0.259	0.323
-240.917	800.000	-0.068	-0.196
-239.903	173.712	-0.129	-0.183
-238.888	-200.000	0.005	-0.164
-237.873	-107.851	0.153	0.033
-236.859	114.327	0.095	0.114
-235.844	-200.000	-0.077	-0.344
-234.830	95.865	-0.224	0.251
-233.815	-1.797	0.054	-0.037
-232.800	-200.000	0.052	-0.241
-231.786	-121.770	-0.132	-0.021
-230.771	-69.923	-0.119	-0.045
-229.757	-94.857	-0.145	0.038
-228.742	-200.000	0.012	-0.208
-227.727	77.998	-0.040	-0.042
-226.713	57.653	-0.245	-0.235
-225.698	-122.384	0.079	-0.013
-224.684	418.614	0.236	0.496
-223.669	160.426	-0.026	-0.035
-222.655	-148.256	-0.204	0.017
-221.640	-125.004	0.199	0.030
-220.625	55.190	0.322	-0.306
-219.611	800.000	0.040	0.139
-218.596	-110.738	0.344	-0.070
-217.582	-17.410	0.129	0.079
-216.567	-127.295	0.109	0.016
-215.552	-67.447	-0.360	0.139
-214.538	-145.456	-0.139	-0.012
-213.523	-53.681	0.235	-0.105
-212.509	330.744	0.077	0.145
-211.494	-200.000	-0.056	0.245
-210.479	165.020	0.086	-0.119
-209.465	122.551	-0.185	0.227
-208.450	544.487	-0.135	-0.318
-207.436	-200.000	-0.053	0.248
-206.421	-15.691	0.125	-0.078
-205.406	-200.000	-0.002	-0.060
-204.392	-156.097	0.102	-0.006
-203.377	-53.880	0.330	-0.148
-202.363	-200.000	-0.046	0.338
-201.348	-200.000	0.010	0.319
-200.333	-122.534	-0.170	-0.027
-199.319	800.000	0.083	-0.225
-198.304	165.785	0.188	-0.260
-197.290	-129.052	0.263	-0.036
-196.275	-18.831	0.116	0.071
-195.260	35.800	0.256	0.221
-194.246	149.876	-0.075	-0.100
-193.231	231.766	-0.118	-0.190
-192.217	28.507	0.188	-0.156
-191.202	-10.449	0.163	-0.106
-190.187	-89.190	0.084	0.024
-189.173	-116.217	-0.053	0.010
-188.158	-67.982	0.248	-0.095
-187.144	-200.000	-0.037	0.263
-186.129	-65.422	0.198	-0.078
-185.114	-82.515	0.346	0.110
-184.100	-62.067	-0.090	0.037
-183.085	164.298	0.056	0.077
-182.071	-200.000	-0.041	0.257
-181.056	418.102	-0.154	0.322
-180.042	75.721	-0.050	0.052
-179.027	800.000	0.044	-0.141
-178.012	-146.336	0.179	-0.015
-176.998	-200.000	0.023	-0.358
-175.983	174.139	-0.195	0.276
-174.969	800.000	-0.020	-0.056
-173.954	-200.000	-0.066	-0.582
-172.939	456.694	-0.032	0.070
-171.925	-36.393	0.318	-0.168
-170.910	215.593	0.240	0.374
-169.896	684.421	-0.076	0.194
-168.881	62.018	0.282	-0.276
-167.866	-49.160	-0.167	-0.078
-166.852	49.928	-0.080	-0.074
-165.837	-200.000	0.023	0.145
-164.823	-81.575	-0.140	-0.045
-163.808	-200.000	0.032	0.397
-162.793	-200.000	-0.045	0.300
-161.779	-166.783	-0.351	-0.014
-160.764	-19.145	0.422	-0.257
-159.750	-28.156	-0.041	0.023
-158.735	331.306	-0.110	-0.208
-157.720	-200.000	0.044	-0.214
-156.706	37.534	-0.077	0.067
-155.691	29.800	-0.069	-0.058
-154.677	310.619	0.145	-0.266
-153.662	800.000	0.037	-0.108
-152.647	800.000	0.047	-0.143
-151.633	-20.557	-0.095	0.057
-150.618	7.209	0.196	-0.143
-149.604	-165.856	-0.456	0.019
-148.589	184.330	0.239	-0.346
-147.574	-101.894	-0.213	0.050
-146.560	349.273	0.069	-0.133
-145.545	800.000	0.070	0.199
-144.531	-0.354	-0.123	-0.086
-143.516	-108.339	0.195	0.041
-142.502	-3.550	0.239	0.163
-141.487	233.873	-0.066	0.106
-140.472	-130.948	-0.311	-0.041
-139.458	566.570	0.103	0.245
-138.443	72.632	-0.264	0.270
-137.429	130.985	0.063	0.079
-136.414	-22.352	-0.335	-0.198
-135.399	800.000	0.121	0.445
-134.385	218.690	-0.082	-0.128
-133.370	-200.000	0.007	0.273
-132.356	235.553	0.146	-0.237
-131.341	-200.000	0.033	-0.232
-130.326	-113.888	0.250	0.048
-129.312	-118.997	0.045	-0.008
-128.297	337.123	0.113	0.215
-127.283	565.906	-0.049	-0.116
-126.268	-25.042	-0.040	0.023
-125.253	-145.686	-0.445	0.039
-124.239	-147.824	0.092	-0.007
-123.224	-200.000	-0.038	-0.175
-122.210	-85.307	-0.110	-0.033
-121.195	-200.000	-0.009	-0.087
-120.180	185.370	-0.033	0.048
-119.166	-31.169	-0.144	-0.080
-118.151	800.000	0.042	0.158
-117.137	51.188	-0.175	0.162
-116.122	-200.000	0.045	0.345
-115.107	-200.000	-0.024	-0.207
-114.093	-200.000	0.053	0.260
-113.078	-200.000	0.047	0.314
-112.064	-45.865	-0.063	-0.030
-111.049	49.287	0.116	-0.107
-110.034	28.585	0.233	0.192
-109.020	-200.000	-0.002	0.059
-108.005	90.223	-0.105	0.114
-106.991	-91.845	-0.234	0.065
-105.976	225.840	-0.127	0.201
-104.962	800.000	0.058	0.193
-103.947	-200.000	-0.009	0.518
-102.932	800.000	0.132	-0.398
-101.918	106.545	0.199	-0.230
-100.903	-163.366	0.234	-0.011
-99.889	176.882	0.132	0.188
-98.874	-25.850	-0.123	0.071
-97.859	3.124	0.228	-0.162
-96.845	-200.000	-0.010	-0.260
-95.830	190.127	0.067	-0.099
-94.816	102.334	-0.040	0.046
-93.801	230.010	0.106	-0.170
-92.786	800.000	0.067	0.195
-91.772	30.834	-0.022	-0.018
-90.757	-36.769	0.205	0.107
-89.743	31.023	-0.124	0.104
-88.728	-25.250	0.063	0.037
-87.713	-200.000	0.000	-0.134
-86.699	-5.866	-0.247	0.165
-85.684	-200.000	0.006	-0.151
-84.670	-49.699	0.052	0.024
-83.655	21.131	0.102	0.081
-82.640	800.000	-0.027	0.105
-81.626	-39.776	-0.245	-0.125
-80.611	-146.331	-0.214	0.018
-79.597	-6.769	-0.226	0.150
-78.582	41.031	0.183	0.161
-77.567	5.060	0.405	-0.291
-76.553	87.939	0.044	-0.048
-75.538	800.000	0.112	-0.411
-74.524	12.656	0.373	-0.281
-73.509	-112.076	0.317	-0.062
-72.494	273.570	0.085	0.147
-71.480	104.526	-0.153	0.176
-70.465	-200.000	-0.034	-0.206
-69.451	-36.520	0.169	-0.089
-68.436	-200.000	-0.017	-0.102
-67.422	-110.025	0.470	-0.096
-66.407	317.646	-0.061	-0.112
-65.392	-74.348	0.150	0.053
-64.378	-68.868	-0.112	-0.042
-63.363	140.741	-0.150	0.194
-62.349	46.994	-0.104	0.094
-61.334	65.877	-1.025	-1.014
-60.319	23.829	0.769	0.618
-59.305	420.507	-0.567	-1.185
-58.290	287.186	0.643	1.134
-57.276	747.326	0.595	1.565
-56.261	-200.000	127.999	671.344
-55.246	402.502	1615.501	3313.484
-54.232	137.266	2771.407	3536.142
-53.217	95.595	2165.211	2409.754
-52.203	34.301	1593.729	1356.304
-51.188	25.860	1337.394	1087.421
-50.173	23.541	1299.526	1042.974
-49.159	51.760	1370.538	1271.886
-48.144	48.301	1381.571	1261.175
-47.130	26.142	1328.570	1081.763
-46.115	22.915	1309.009	1046.706
-45.100	22.635	1304.329	1041.268
-44.086	22.719	1301.445	1039.424
-43.071	22.696	1299.075	1037.351
-42.057	22.626	1297.356	1035.531
-41.042	22.568	1295.722	1033.842
-40.027	22.704	1293.988	1033.216
-39.013	22.688	1292.052	1031.532
-37.998	22.753	1290.526	1030.654
-36.984	22.799	1288.761	1029.472
-35.969	22.711	1287.414	1027.840
-34.954	22.674	1285.575	1026.117
-33.940	22.763	1284.099	1025.418
-32.925	22.845	1282.430	1024.520
-31.911	22.771	1280.761	1022.717
-30.896	22.790	1280.271	1022.395
-29.881	22.880	1278.734	1021.650
-28.867	22.850	1277.095	1020.127
-27.852	22.825	1275.863	1018.955
-26.838	22.861	1274.232	1017.820
-25.823	22.961	1273.137	1017.478
-24.809	22.802	1271.751	1015.420
-23.794	22.784	1270.577	1014.338
-22.779	22.858	1269.569	1013.917
-21.765	22.889	1267.935	1012.750
-20.750	22.905	1266.094	1011.328
-19.736	22.746	1265.203	1009.667
-18.721	22.660	1264.299	1008.417
-17.706	22.735	1262.755	1007.570
-16.692	22.640	1262.322	1006.644
-15.677	22.746	1261.085	1006.225
-14.663	22.682	1259.703	1004.713
-13.648	22.816	1258.367	1004.371
-12.633	22.651	1257.908	1003.028
-11.619	22.720	1257.461	1003.021
-10.604	22.721	1256.618	1002.315
-9.590	22.621	1254.939	1000.371
-8.575	22.594	1254.360	999.717
-7.560	22.672	1253.291	999.269
-6.546	22.647	1252.524	998.474
-5.531	22.664	1251.936	998.060
-4.517	22.741	1250.755	997.514
-3.502	22.666	1250.332	996.717
-2.487	22.620	1249.269	995.570
-1.473	22.659	1244.907	992.270
-0.458	21.075	1230.262	971.747
0.556	16.128	1214.923	935.878
1.571	12.733	1223.139	923.125
2.586	12.276	1238.635	932.145
3.600	12.270	1226.450	922.857
4.615	9.021	1154.795	851.643
5.629	2.995	1085.063	770.022
6.644	0.368	1068.021	744.895
7.659	0.012	1066.737	742.175
8.673	0.173	1065.266	741.877
9.688	0.097	1064.173	740.680
10.702	0.258	1061.463	739.518
11.717	4.045	1065.663	761.013
12.731	10.751	1075.131	800.865
13.746	15.506	1081.246	828.875
14.761	16.720	1082.045	835.407
15.775	15.964	1080.939	830.751
16.790	15.040	1078.314	824.116
17.804	14.335	1076.917	819.508
18.819	14.021	1075.879	817.098
19.834	13.779	1075.072	815.226
20.848	13.508	1074.295	813.236
21.863	13.443	1073.181	812.002
22.877	13.294	1072.287	810.520
23.892	13.137	1071.677	809.218
24.907	13.070	1071.316	808.545
25.921	13.220	1070.162	808.338
26.936	13.153	1069.538	807.469
27.950	13.184	1068.388	806.682
28.965	13.297	1067.361	806.383
29.980	13.316	1066.048	805.413
30.994	13.360	1064.791	804.606
32.009	13.368	1063.940	803.929
33.023	13.452	1062.820	803.423
34.038	13.470	1061.443	802.397
35.053	13.374	1060.761	801.345
36.067	13.224	1060.657	800.467
37.082	13.214	1059.582	799.536
38.096	13.310	1059.068	799.542
39.111	13.279	1058.262	798.717
40.126	13.308	1057.028	797.852
41.140	13.135	1055.673	795.925
42.155	13.107	1054.661	794.959
43.169	13.136	1053.399	794.074
44.184	13.114	1052.494	793.217
45.199	13.093	1051.828	792.543
46.213	13.167	1050.511	791.839
47.228	13.171	1049.410	790.956
48.242	13.181	1048.435	790.201
49.257	13.251	1047.414	789.692
50.271	13.326	1046.297	789.140
51.286	13.271	1045.571	788.260
52.301	13.230	1044.715	787.352
53.315	13.285	1043.601	786.705
54.330	13.265	1042.737	785.888
55.344	13.179	1042.040	784.884
56.359	13.068	1041.376	783.787
57.374	13.122	1040.187	783.077
58.388	13.162	1039.170	782.431
59.403	13.115	1038.442	781.591
60.417	13.104	1037.550	780.799
61.432	12.955	1037.095	779.687
62.447	13.035	1036.033	779.197
63.461	13.038	1035.240	778.542
64.476	13.166	1033.773	777.973
65.490	13.021	1033.751	777.206
66.505	13.108	1032.356	776.499
67.520	13.081	1032.111	776.117
68.534	13.044	1031.330	775.288
69.549	13.141	1030.362	774.947
70.563	13.102	1029.501	774.047
71.578	13.150	1028.850	773.716
72.593	13.114	1027.935	772.792
73.607	12.971	1028.008	772.106
74.622	13.011	1027.039	771.498
75.636	12.940	1026.227	770.489
76.651	12.973	1025.076	769.711
77.666	12.999	1024.461	769.301
78.680	12.961	1023.985	768.700
79.695	13.044	1023.344	768.536
80.709	13.134	1022.492	768.247
81.724	13.065	1021.863	767.386
82.739	13.266	1020.495	767.224
83.753	13.143	1020.427	766.535
84.768	13.293	1019.211	766.249
85.782	13.351	1017.835	765.416
86.797	13.276	1017.593	764.819
87.812	13.169	1016.634	763.535
88.826	13.078	1016.059	762.613
89.841	13.377	1014.474	762.738
90.855	13.236	1013.647	761.398
91.870	13.275	1013.046	761.058
92.884	13.318	1011.940	760.356
93.899	13.417	1010.998	760.036
94.914	13.458	1010.797	760.008
95.928	13.446	1009.597	758.982
96.943	13.247	1008.554	757.221
97.957	13.285	1007.994	756.905
98.972	13.458	1006.991	756.878
99.987	13.445	1005.900	755.931
101.001	13.315	1005.149	754.709
102.016	13.249	1004.042	753.507
103.030	13.329	1003.582	753.458
104.045	13.408	1002.708	753.097
105.060	13.310	1002.011	752.060
106.074	13.348	1000.480	751.020
107.089	13.170	1000.155	749.902
108.103	13.271	998.511	749.059
109.118	13.202	998.000	748.296
110.133	13.107	997.382	747.335
111.147	13.182	996.363	746.847
112.162	13.284	995.288	746.437
113.176	13.198	994.677	745.523
114.191	13.302	993.861	745.313
115.206	13.210	993.295	744.410
116.220	13.187	992.484	743.632
117.235	13.223	991.684	743.128
118.249	13.273	990.500	742.399
119.264	13.262	989.679	741.668
120.279	13.225	989.452	741.268
121.293	13.265	988.008	740.302
122.308	13.197	987.286	739.389
123.322	13.215	986.448	738.778
124.337	13.161	985.444	737.719
125.352	13.146	984.344	736.762
126.366	13.262	983.081	736.269
127.381	13.096	982.198	734.802
128.395	13.285	981.490	735.050
129.410	13.123	980.373	733.428
130.424	13.271	979.590	733.436
131.439	13.378	978.658	733.145
132.454	13.280	978.160	732.274
133.468	13.323	977.001	731.534
134.483	13.156	976.275	730.184
135.497	13.288	975.031	729.772
136.512	13.310	974.812	729.643
137.527	13.297	973.441	728.495
138.541	13.260	973.115	728.023
139.556	13.293	971.860	727.165
140.570	13.375	971.544	727.225
141.585	13.488	970.615	726.960
142.600	13.385	969.694	725.756
143.614	13.330	969.439	725.257
144.629	13.349	968.556	724.615
145.643	13.517	967.285	724.336
146.658	13.455	966.261	723.234
147.673	13.232	965.716	721.790
148.687	13.366	964.634	721.501
149.702	13.433	963.515	720.891
150.716	13.380	963.220	720.377
151.731	13.410	962.183	719.667
152.746	13.394	961.735	719.200
153.760	13.468	961.249	719.096
154.775	13.612	960.355	718.984
155.789	13.544	959.796	718.207
156.804	13.533	958.984	717.493
157.819	13.630	958.282	717.321
158.833	13.568	957.780	716.615
159.848	13.644	956.834	716.172
160.862	13.605	955.868	715.216
161.877	13.501	954.956	714.024
162.892	13.507	954.135	713.373
163.906	13.405	953.530	712.416
164.921	13.520	952.512	712.086
165.935	13.581	951.480	711.516
166.950	13.576	950.339	710.576
167.964	13.700	949.621	710.510
168.979	13.653	948.248	709.218
169.994	13.572	948.164	708.745
171.008	13.718	946.929	708.385
172.023	13.615	946.360	707.458
173.037	13.674	946.215	707.538
174.052	13.738	945.275	707.043
175.067	13.543	944.671	705.697
176.081	13.716	944.012	705.882
177.096	13.558	943.718	704.927
178.110	13.731	942.844	704.947
179.125	13.767	942.235	704.582
180.140	13.743	941.431	703.816
181.154	13.677	941.431	703.473
182.169	13.789	940.683	703.329
183.183	13.982	939.417	703.133
184.198	13.984	938.924	702.713
185.213	13.898	938.368	701.871
186.227	13.835	938.020	701.283
187.242	13.850	937.452	700.858
188.256	13.964	936.213	700.353
189.271	13.801	935.630	699.166
190.286	13.821	934.576	698.399
191.300	13.712	934.577	697.880
192.315	13.645	933.823	696.975
193.329	13.773	933.399	697.133
194.344	13.662	933.002	696.312
195.359	14.025	931.797	696.871
196.373	13.975	930.827	695.877
197.388	13.970	930.971	695.902
198.402	14.016	930.624	695.770
199.417	14.094	929.741	695.378
200.432	14.205	928.812	695.085
201.446	14.201	928.436	694.722
202.461	14.277	927.695	694.424
203.475	14.116	927.434	693.499
204.490	14.017	926.890	692.616
205.504	14.056	926.301	692.278
206.519	14.098	925.240	691.596
207.534	14.113	924.702	691.197
208.548	14.048	924.152	690.455
209.563	14.079	923.445	689.992
210.577	14.162	923.017	689.958
211.592	14.101	922.504	689.260
212.607	14.286	921.127	688.934
213.621	14.251	920.543	688.294
214.636	14.143	920.233	687.554
215.650	14.294	919.005	687.200
216.665	14.264	918.733	686.812
217.680	14.271	918.089	686.299
218.694	14.297	917.125	685.622
219.709	14.298	916.835	685.350
220.723	14.340	915.716	684.626
221.738	14.273	914.877	683.662
222.753	14.346	914.232	683.418
223.767	14.366	913.729	683.064
224.782	14.585	913.136	683.460
225.796	14.560	912.560	682.864
226.811	14.510	911.853	682.069
227.826	14.475	911.591	681.673
228.840	14.520	910.644	681.088
229.855	14.444	910.062	680.281
230.869	14.447	908.983	679.428
231.884	14.413	908.682	679.001
232.899	14.464	907.930	678.587
233.913	14.492	907.249	678.135
234.928	14.562	906.535	677.826
235.942	14.515	905.642	676.905
236.957	14.443	905.440	676.402
237.972	14.533	904.581	676.068
238.986	14.501	904.169	675.571
240.001	14.529	903.534	675.148
241.015	14.571	902.912	674.794
242.030	14.589	902.275	674.331
243.045	14.672	901.449	673.987
244.059	14.715	900.741	673.572
245.074	14.567	900.278	672.572
246.088	14.740	899.599	672.700
247.103	14.717	898.929	672.046
248.117	14.787	898.142	671.679
249.132	14.806	897.811	671.448
250.147	14.631	897.290	670.296
251.161	14.948	896.633	671.019
252.176	14.934	895.828	670.301
253.190	14.869	894.936	669.316
254.205	15.022	894.533	669.568
255.220	14.985	893.862	668.856
256.234	14.952	893.528	668.415
257.249	14.977	892.430	667.636
258.263	14.999	891.739	667.148
259.278	14.898	891.208	666.289
260.293	15.007	890.658	666.254
261.307	15.001	889.752	665.493
262.322	15.058	889.542	665.503
263.336	15.154	888.243	664.855
264.351	15.284	887.418	664.693
265.366	15.060	887.159	663.552
266.380	15.159	886.884	663.678
267.395	15.091	885.948	662.649
268.409	15.145	885.090	662.164
269.424	15.201	884.259	661.705
270.439	15.174	883.521	660.988
271.453	15.022	883.106	660.019
272.468	15.092	882.644	659.890
273.482	15.079	882.079	659.361
274.497	15.185	881.249	659.097
275.512	15.216	880.852	658.864
276.526	15.193	880.622	658.543
277.541	15.230	880.072	658.221
278.555	15.449	879.175	658.351
279.570	15.232	878.659	657.053
280.585	15.306	877.605	656.498
281.599	15.412	876.857	656.294
282.614	15.430	876.261	655.860
283.628	15.357	875.896	655.243
284.643	15.416	875.375	655.029
285.657	15.420	874.432	654.280
286.672	15.353	874.071	653.689
287.687	15.436	873.349	653.417
288.701	15.363	873.045	652.845
289.716	15.479	871.948	652.421
290.730	15.542	871.573	652.326
291.745	15.608	870.536	651.748
292.760	15.471	870.399	651.054
293.774	15.626	869.705	651.080
294.789	15.566	869.154	650.377
295.803	15.590	868.089	649.617
296.818	15.660	867.471	649.368
297.833	15.618	866.774	648.625
298.847	15.653	866.172	648.250
299.862	15.635	865.985	647.986
300.876	15.695	865.032	647.447
301.891	15.656	864.738	647.018
302.906	15.743	864.239	646.922
303.920	15.712	863.817	646.432
304.935	15.771	863.062	646.034
305.949	15.657	862.618	645.206
306.964	15.720	861.930	644.876
307.979	15.934	861.247	645.128
308.993	15.818	860.815	644.305
310.008	15.817	859.977	643.617
311.022	15.817	859.465	643.175
312.037	15.863	858.789	642.789
313.052	15.886	858.293	642.448
314.066	15.701	858.071	641.519
315.081	15.829	857.328	641.396
316.095	15.706	856.522	640.267
317.110	15.766	856.325	640.290
318.125	15.823	855.718	639.999
319.139	15.886	855.169	639.772
320.154	15.867	854.435	639.093
321.168	15.875	853.987	638.732
322.183	15.961	853.175	638.395
323.197	15.827	853.360	637.969
324.212	15.933	852.713	637.830
325.227	15.880	852.239	637.217
326.241	15.953	851.357	636.779
327.256	15.961	850.599	636.184
328.270	15.902	850.371	635.733
329.285	15.891	849.869	635.263
330.300	15.894	849.126	634.661
331.314	16.125	848.417	634.945
332.329	16.028	848.272	634.414
333.343	16.004	847.689	633.832
334.358	15.993	847.337	633.470
335.373	16.005	846.931	633.157
336.387	16.138	846.240	633.084
337.402	16.073	846.301	632.831
338.416	16.132	846.043	632.802
339.431	16.198	845.418	632.524
340.446	16.151	845.150	632.093
341.460	16.325	844.739	632.382
342.475	16.312	844.150	631.834
343.489	16.438	843.362	631.660
344.504	16.355	843.098	631.098
345.519	16.411	842.619	630.892
346.533	16.425	841.969	630.401
347.548	16.296	841.745	629.696
348.562	16.294	840.994	629.072
349.577	16.346	840.621	628.932
350.592	16.447	839.926	628.732
351.606	16.292	839.364	627.678
352.621	16.371	838.633	627.371
353.635	16.450	837.835	627.009
354.650	16.525	837.203	626.761
355.665	16.416	836.488	625.766
356.679	16.426	836.377	625.664
357.694	16.328	835.503	624.594
358.708	16.516	834.743	624.664
359.723	16.519	834.691	624.581
360.738	16.572	833.585	623.892
361.752	16.426	833.084	622.924
362.767	16.576	832.469	622.962
363.781	16.579	832.396	622.865
364.796	16.563	831.791	622.296
365.810	16.754	831.164	622.477
366.825	16.793	830.939	622.393
367.840	16.691	830.575	621.692
368.854	16.784	829.858	621.443
369.869	16.719	829.539	620.909
370.883	16.781	828.584	620.368
371.898	16.749	829.017	620.520
372.913	16.791	828.411	620.165
373.927	16.711	827.852	619.399
374.942	16.876	827.453	619.647
375.956	16.766	826.864	618.750
376.971	16.886	826.464	618.837
377.986	17.033	825.872	618.872
379.000	16.982	825.197	618.126
380.015	16.950	825.070	617.861
381.029	16.876	824.496	617.108
382.044	17.056	823.492	616.955
383.059	17.067	823.216	616.732
384.073	17.005	822.809	616.148
385.088	16.923	822.229	615.363
386.102	16.911	821.522	614.736
387.117	17.041	820.908	614.691
388.132	17.118	820.212	614.394
389.146	16.939	820.076	613.591
390.161	16.941	819.970	613.466
391.175	17.096	819.102	613.320
392.190	17.097	818.576	612.876
393.205	16.813	818.472	611.718
394.219	16.957	817.930	611.779
395.234	17.119	817.139	611.716
396.248	17.028	816.681	610.992
397.263	17.038	816.520	610.856
398.278	17.093	816.140	610.713
399.292	17.019	815.580	609.974
400.307	17.057	815.001	609.625
401.321	17.125	814.454	609.404
402.336	17.144	814.209	609.236
403.350	17.132	813.887	608.897
404.365	17.085	813.320	608.254
405.380	17.239	812.557	608.179
406.394	17.307	811.913	607.885
407.409	17.401	811.201	607.636
408.423	17.366	811.815	607.916
409.438	17.404	810.898	607.310
410.453	17.431	810.910	607.362
411.467	17.369	810.256	606.597
412.482	17.411	809.876	606.408
413.496	17.332	809.645	605.901
414.511	17.442	809.098	605.831
415.526	17.431	808.515	605.302
416.540	17.550	808.061	605.332
417.555	17.435	807.752	604.638
418.569	17.444	807.109	604.132
419.584	17.587	807.043	604.539
420.599	17.676	806.558	604.439
421.613	114.106	1299.204	1488.923
422.628	98.559	1370.945	1489.022
