DTS Sentinel unit serial number:	SN413079Multiplexer serial number:	ORYXHardware model number:	OX4-SRSoftware version number:	ORYX F/W v4.00 Oryx Data Collector v3.7.2.0data status	okinstallation	princeton_trtdifferential loss correction	single-endedforward channel	channel 1reverse channel	N/Adate	2019/09/13time	14:26:35forward acquisition time	60.00reverse acquisition time	0.00gamma	496.2192k internal	0.2303k external	0.2303temperature offset calibration	1.0162default loss term (dB/km)	0.3790temperature slope calibration	1.0000multiplexer offset coefficient	1.0000multiplexer slope coefficient	1.0000fibre end	0.00T internal ref (°C)	35.27T ext. ref 1 (°C)	4.63T ext. ref 2 (°C)	30.83length (m)	temperature (°C)	Stokes	anti-Stokes-747.200	-19.960	0.066	-0.041
-746.185	100.137	-0.227	-0.268
-745.171	800.000	-0.032	-0.135
-744.156	8.791	-0.277	0.213
-743.142	-200.000	-0.267	-0.001
-742.127	431.852	-0.017	0.038
-741.112	-119.467	0.385	0.068
-740.098	54.032	-0.169	0.166
-739.083	-157.016	0.132	-0.008
-738.069	800.000	0.024	0.101
-737.054	-200.000	0.003	-0.163
-736.039	198.135	0.173	-0.269
-735.025	-200.000	0.046	-0.321
-734.010	-200.000	-0.030	0.247
-732.996	-68.743	-0.433	-0.171
-731.981	-200.000	-0.028	-0.301
-730.966	4.271	0.151	0.112
-729.952	-120.115	-0.301	0.052
-728.937	-10.176	0.177	-0.120
-727.923	800.000	0.054	-0.231
-726.908	598.125	0.120	-0.302
-725.894	100.119	-0.149	-0.176
-724.879	6.502	-0.332	0.251
-723.864	438.827	-0.066	-0.146
-722.850	-68.570	-0.245	0.097
-721.835	66.178	-0.180	-0.186
-720.821	-63.156	0.299	-0.125
-719.806	-78.828	-0.179	-0.062
-718.791	-87.294	0.099	-0.031
-717.777	280.532	-0.055	-0.100
-716.762	-200.000	0.032	0.188
-715.748	-71.389	0.196	0.075
-714.733	-200.000	-0.059	0.342
-713.718	91.154	0.054	-0.061
-712.704	-181.463	-0.212	0.004
-711.689	279.114	-0.154	-0.280
-710.675	781.654	-0.091	0.253
-709.660	-129.285	-0.256	-0.036
-708.645	71.949	-0.162	0.172
-707.631	137.324	0.286	-0.380
-706.616	188.607	-0.034	0.052
-705.602	132.849	-0.048	-0.063
-704.587	-200.000	0.006	-0.068
-703.572	280.887	-0.132	-0.240
-702.558	115.239	-0.226	-0.281
-701.543	-112.401	-0.099	-0.020
-700.529	132.954	-0.078	-0.103
-699.514	124.921	-0.056	-0.071
-698.499	96.106	-0.191	-0.222
-697.485	-98.654	0.160	0.042
-696.470	136.619	-0.243	-0.322
-695.456	800.000	-0.023	-0.098
-694.441	800.000	0.084	-0.317
-693.426	28.063	-0.080	0.068
-692.412	240.872	-0.029	0.049
-691.397	800.000	-0.068	-0.236
-690.383	-165.946	0.234	0.010
-689.368	800.000	0.058	-0.188
-688.354	-56.435	0.261	-0.118
-687.339	273.918	-0.025	0.045
-686.324	16.286	-0.014	0.012
-685.310	-200.000	-0.021	0.173
-684.295	-161.188	0.187	-0.010
-683.281	800.000	-0.055	0.229
-682.266	-13.837	-0.091	-0.060
-681.251	434.628	-0.044	-0.098
-680.237	-35.786	-0.317	-0.174
-679.222	399.463	0.129	-0.276
-678.208	-53.016	-0.265	0.124
-677.193	-148.598	0.184	-0.015
-676.178	-200.000	-0.007	-0.043
-675.164	-180.348	0.091	-0.002
-674.149	93.899	-0.022	0.026
-673.135	-124.437	0.099	0.016
-672.120	-200.000	0.002	-0.146
-671.105	11.931	-0.105	0.082
-670.091	800.000	0.021	-0.083
-669.076	800.000	-0.074	0.287
-668.062	-200.000	-0.003	0.090
-667.047	281.900	0.080	-0.146
-666.032	-53.673	-0.049	0.023
-665.018	4.228	-0.169	0.126
-664.003	-84.793	-0.265	-0.085
-662.989	577.792	-0.074	-0.183
-661.974	-200.000	-0.006	0.128
-660.959	-182.756	0.210	0.004
-659.945	-36.400	-0.259	-0.142
-658.930	-181.604	0.249	0.005
-657.916	-44.665	-0.160	0.081
-656.901	-9.775	0.162	0.109
-655.886	-166.736	-0.069	0.003
-654.872	-200.000	0.040	0.333
-653.857	-58.082	0.124	0.055
-652.843	150.499	-0.318	0.439
-651.828	-80.232	-0.340	0.116
-650.814	-200.000	0.045	0.201
-649.799	800.000	0.083	0.291
-648.784	800.000	-0.054	0.182
-647.770	-200.000	0.023	-0.167
-646.755	310.119	0.123	-0.233
-645.741	99.178	0.204	0.240
-644.726	800.000	-0.029	-0.099
-643.711	72.582	0.056	0.059
-642.697	-200.000	-0.054	0.613
-641.682	134.392	-0.201	-0.264
-640.668	36.938	-0.195	0.175
-639.653	800.000	0.079	0.232
-638.638	-58.138	-0.330	-0.146
-637.624	-156.711	0.153	0.010
-636.609	-141.901	0.297	0.030
-635.595	-87.052	0.247	-0.076
-634.580	278.545	-0.152	0.276
-633.565	-200.000	-0.002	0.058
-632.551	16.061	-0.230	0.184
-631.536	800.000	-0.043	-0.150
-630.522	49.309	0.215	-0.205
-629.507	-8.461	0.107	0.073
-628.492	-41.355	0.044	-0.023
-627.478	226.709	-0.173	-0.284
-626.463	457.048	0.089	-0.200
-625.449	20.935	-0.013	-0.010
-624.434	68.024	-0.109	0.113
-623.419	-63.342	-0.248	0.103
-622.405	25.659	-0.270	0.228
-621.390	252.613	0.146	-0.252
-620.376	-98.876	0.229	-0.059
-619.361	800.000	0.053	0.168
-618.346	525.357	-0.054	0.128
-617.332	244.529	0.177	-0.302
-616.317	-161.321	0.254	0.013
-615.303	514.996	-0.072	0.170
-614.288	-200.000	0.002	0.011
-613.273	142.332	0.122	0.164
-612.259	-3.476	-0.265	-0.187
-611.244	-60.762	-0.122	0.052
-610.230	-58.981	0.188	0.082
-609.215	-200.000	-0.049	-0.313
-608.201	128.620	0.031	-0.040
-607.186	-77.394	0.226	-0.080
-606.171	49.108	0.160	-0.152
-605.157	-200.000	-0.039	-0.184
-604.142	454.413	-0.138	0.311
-603.128	-81.194	0.257	-0.086
-602.113	202.099	0.181	0.283
-601.098	-102.467	-0.256	0.062
-600.084	65.224	0.070	0.072
-599.069	494.145	0.140	0.326
-598.055	800.000	0.021	0.086
-597.040	-0.389	-0.083	0.060
-596.025	6.697	-0.109	-0.082
-595.011	-142.880	0.248	-0.024
-593.996	-164.412	-0.090	-0.004
-592.982	800.000	-0.070	-0.307
-591.967	-135.753	0.289	-0.035
-590.952	-137.743	0.190	-0.022
-589.938	192.663	-0.068	-0.104
-588.923	91.252	0.072	0.081
-587.909	466.031	0.035	-0.079
-586.894	-34.130	-0.145	0.081
-585.879	-200.000	0.044	-0.221
-584.865	-200.000	0.004	-0.056
-583.850	-30.515	-0.142	0.082
-582.836	-139.087	-0.112	-0.012
-581.821	739.037	-0.057	-0.154
-580.806	-124.566	0.219	-0.034
-579.792	-128.272	-0.152	0.022
-578.777	556.098	0.195	0.475
-577.763	33.489	0.360	0.316
-576.748	157.311	-0.208	0.291
-575.733	-108.960	-0.384	-0.083
-574.719	-200.000	-0.052	0.249
-573.704	301.032	-0.234	0.437
-572.690	-200.000	0.028	-0.210
-571.675	249.272	0.130	-0.224
-570.661	276.756	0.181	-0.325
-569.646	-9.862	0.278	0.188
-568.631	68.998	-0.093	0.097
-567.617	800.000	0.027	-0.103
-566.602	800.000	0.051	0.217
-565.588	-200.000	-0.022	-0.356
-564.573	49.548	-0.144	0.137
-563.558	-39.557	0.178	-0.094
-562.544	287.141	0.041	-0.075
-561.529	-108.596	-0.161	-0.035
-560.515	-132.871	-0.246	0.032
-559.500	-200.000	-0.067	-0.458
-558.485	800.000	-0.048	-0.208
-557.471	61.020	-0.291	0.292
-556.456	134.902	-0.140	0.183
-555.442	-200.000	0.098	-0.444
-554.427	-200.000	0.014	0.113
-553.412	800.000	-0.017	0.054
-552.398	-130.856	-0.140	0.019
-551.383	-82.014	-0.138	0.046
-550.369	800.000	0.020	0.074
-549.354	86.055	0.064	0.071
-548.339	800.000	-0.102	-0.317
-547.325	475.016	-0.151	-0.345
-546.310	244.169	-0.110	-0.187
-545.296	-200.000	-0.049	-0.225
-544.281	-200.000	0.059	-0.336
-543.266	-200.000	0.027	-0.134
-542.252	800.000	0.090	-0.295
-541.237	800.000	-0.020	0.070
-540.223	113.270	-0.184	-0.226
-539.208	-60.627	0.243	0.104
-538.193	44.018	-0.121	-0.112
-537.179	361.319	-0.117	0.237
-536.164	46.882	-0.049	-0.046
-535.150	-9.986	0.442	-0.297
-534.135	224.017	-0.209	-0.341
-533.121	-115.171	0.185	0.035
-532.106	438.323	0.139	0.307
-531.091	147.675	-0.120	0.164
-530.077	186.331	0.121	0.182
-529.062	800.000	-0.013	0.050
-528.048	67.504	-0.184	-0.190
-527.033	164.469	0.157	-0.223
-526.018	120.626	-0.071	-0.089
-525.004	251.031	-0.049	0.084
-523.989	-200.000	0.018	0.112
-522.975	-53.827	0.203	0.094
-521.960	-134.909	0.100	-0.012
-520.945	126.811	0.108	0.139
-519.931	199.012	0.089	0.138
-518.916	-200.000	-0.024	-0.122
-517.902	-103.967	-0.186	-0.044
-516.887	-26.617	-0.089	-0.053
-515.872	68.316	0.125	-0.129
-514.858	656.749	0.109	-0.282
-513.843	363.193	-0.116	-0.236
-512.829	246.540	0.071	0.122
-511.814	52.239	-0.208	0.200
-510.799	-200.000	-0.048	-0.255
-509.785	800.000	0.030	0.114
-508.770	50.155	0.192	-0.183
-507.756	205.789	-0.035	0.056
-506.741	800.000	0.040	0.177
-505.726	147.844	0.208	0.283
-504.712	-62.995	0.194	-0.081
-503.697	60.634	0.304	-0.304
-502.683	-94.555	-0.194	-0.053
-501.668	800.000	-0.121	-0.407
-500.653	163.728	0.119	-0.169
-499.639	-124.923	0.043	-0.007
-498.624	602.156	-0.116	-0.291
-497.610	-19.320	-0.218	-0.137
-496.595	76.007	0.078	0.083
-495.581	175.903	-0.209	0.307
-494.566	379.521	-0.085	-0.175
-493.551	-118.090	-0.223	-0.040
-492.537	-74.079	0.334	0.122
-491.522	29.125	0.186	0.159
-490.508	12.751	-0.078	-0.061
-489.493	800.000	-0.070	0.268
-488.478	-200.000	-0.060	-0.312
-487.464	-200.000	0.011	-0.231
-486.449	-149.704	0.131	-0.010
-485.435	-117.519	0.195	-0.036
-484.420	800.000	0.091	0.293
-483.405	-178.093	-0.264	-0.006
-482.391	205.362	0.088	0.139
-481.376	-9.977	0.279	-0.187
-480.362	-56.777	-0.370	0.165
-479.347	-149.225	0.401	-0.032
-478.332	-200.000	-0.024	-0.291
-477.318	238.367	-0.128	0.214
-476.303	-122.206	0.235	-0.039
-475.289	-200.000	0.057	0.261
-474.274	-45.807	0.132	0.066
-473.259	-139.789	-0.162	-0.017
-472.245	-200.000	-0.015	-0.073
-471.230	-109.532	0.149	-0.032
-470.216	568.049	-0.068	-0.166
-469.201	109.382	-0.166	-0.200
-468.186	800.000	0.099	0.323
-467.172	195.123	0.104	0.159
-466.157	-15.019	0.150	0.097
-465.143	-200.000	-0.028	0.225
-464.128	-200.000	0.003	-0.105
-463.113	-147.915	-0.112	-0.009
-462.099	800.000	-0.085	-0.273
-461.084	-200.000	-0.037	-0.235
-460.070	1.456	0.277	-0.201
-459.055	115.843	-0.210	0.259
-458.040	113.456	-0.062	-0.076
-457.026	-57.904	0.265	-0.117
-456.011	618.433	0.020	0.050
-454.997	800.000	-0.029	-0.105
-453.982	165.937	-0.108	0.154
-452.968	-98.660	0.309	0.079
-451.953	-200.000	-0.010	0.108
-450.938	-200.000	0.073	-0.456
-449.924	-86.107	0.123	-0.038
-448.909	-118.119	0.617	0.111
-447.895	489.309	-0.050	0.115
-446.880	-200.000	0.024	-0.159
-445.865	109.543	0.195	-0.235
-444.851	-200.000	0.015	0.082
-443.836	-166.056	0.322	-0.014
-442.822	-10.730	-0.425	-0.283
-441.807	23.818	-0.135	0.112
-440.792	27.997	0.047	-0.040
-439.778	-118.741	-0.436	0.077
-438.763	-172.275	0.270	-0.009
-437.749	-14.189	-0.203	-0.132
-436.734	800.000	-0.028	-0.090
-435.719	-200.000	0.008	-0.118
-434.705	535.033	0.049	0.118
-433.690	115.580	0.108	0.133
-432.676	190.557	0.134	0.202
-431.661	-3.619	-0.401	-0.280
-430.646	-200.000	0.025	0.184
-429.632	719.087	0.078	-0.208
-428.617	249.597	-0.107	0.183
-427.603	280.341	-0.077	-0.139
-426.588	-60.376	0.128	0.055
-425.573	79.370	0.012	-0.013
-424.559	315.263	-0.123	-0.234
-423.544	118.475	0.111	0.138
-422.530	-137.370	-0.205	0.023
-421.515	392.081	-0.115	0.240
-420.500	-200.000	0.019	0.138
-419.486	439.007	0.077	0.169
-418.471	-60.360	-0.038	-0.016
-417.457	367.416	0.089	-0.181
-416.442	56.244	-0.065	-0.064
-415.428	800.000	0.061	-0.172
-414.413	-96.146	-0.257	0.069
-413.398	286.945	-0.100	-0.181
-412.384	-200.000	0.043	-0.219
-411.369	800.000	-0.058	0.224
-410.355	14.331	-0.114	-0.090
-409.340	-141.918	0.207	-0.021
-408.325	-200.000	-0.027	0.146
-407.311	-61.775	-0.075	0.031
-406.296	26.594	0.386	-0.325
-405.282	-180.346	0.247	-0.005
-404.267	-139.529	0.155	-0.017
-403.252	-69.531	-0.125	0.048
-402.238	-10.134	-0.309	-0.206
-401.223	-63.728	0.134	0.055
-400.209	190.713	0.065	-0.098
-399.194	-200.000	-0.019	0.285
-398.179	170.256	-0.083	-0.119
-397.165	47.319	0.129	0.121
-396.150	156.368	0.211	0.292
-395.136	464.127	-0.040	-0.091
-394.121	-43.382	0.247	-0.125
-393.106	-161.590	0.179	-0.009
-392.092	800.000	-0.069	-0.204
-391.077	8.446	-0.220	0.167
-390.063	16.451	0.074	-0.059
-389.048	-59.437	0.210	0.091
-388.033	-80.258	-0.448	-0.150
-387.019	253.241	0.081	0.139
-386.004	142.953	0.073	0.098
-384.990	-113.522	-0.259	-0.051
-383.975	-200.000	-0.009	0.177
-382.960	271.804	0.109	0.193
-381.946	20.155	-0.164	0.133
-380.931	-200.000	-0.011	0.071
-379.917	-147.986	-0.191	-0.016
-378.902	-200.000	-0.021	-0.154
-377.888	23.907	0.330	0.273
-376.873	24.080	0.023	-0.019
-375.858	-200.000	-0.008	-0.277
-374.844	-39.916	-0.164	-0.086
-373.829	91.361	-0.056	0.063
-372.815	-80.187	0.300	0.101
-371.800	-200.000	-0.003	0.309
-370.785	227.217	0.097	0.158
-369.771	180.274	0.077	0.113
-368.756	72.382	0.229	0.239
-367.742	-200.000	-0.027	0.295
-366.727	366.925	-0.144	0.291
-365.712	-200.000	-0.037	0.250
-364.698	311.771	-0.081	0.152
-363.683	800.000	0.059	-0.238
-362.669	-200.000	-0.061	-0.327
-361.654	381.587	-0.066	0.137
-360.639	92.817	-0.194	0.220
-359.625	-62.406	0.190	-0.079
-358.610	718.555	0.098	-0.262
-357.596	-21.003	0.205	0.126
-356.581	102.787	0.207	0.243
-355.566	-105.165	0.083	0.019
-354.552	-77.286	0.159	-0.055
-353.537	-58.738	-0.164	-0.071
-352.523	800.000	-0.110	-0.384
-351.508	-47.046	-0.076	-0.037
-350.493	800.000	0.080	-0.346
-349.479	752.723	-0.059	0.160
-348.464	768.391	-0.085	0.231
-347.450	32.471	-0.114	-0.099
-346.435	800.000	-0.078	-0.239
-345.420	-77.313	-0.208	-0.073
-344.406	194.999	0.030	0.046
-343.391	-19.595	-0.084	-0.052
-342.377	465.556	-0.032	0.072
-341.362	800.000	-0.049	-0.163
-340.348	-200.000	-0.037	0.293
-339.333	-180.382	0.388	-0.008
-338.318	604.722	-0.024	-0.060
-337.304	50.429	0.048	0.046
-336.289	800.000	-0.031	0.100
-335.275	800.000	-0.024	-0.094
-334.260	16.619	-0.090	0.072
-333.245	-124.822	0.060	0.009
-332.231	800.000	0.072	-0.207
-331.216	302.049	-0.073	0.135
-330.202	646.991	0.073	-0.188
-329.187	761.673	-0.180	0.491
-328.172	-200.000	-0.021	-0.212
-327.158	248.808	-0.072	-0.122
-326.143	-105.288	-0.207	0.047
-325.129	243.839	0.177	0.298
-324.114	41.765	0.255	0.232
-323.099	-173.118	-0.181	-0.006
-322.085	-65.884	0.279	-0.112
-321.070	-34.450	-0.160	0.088
-320.056	-66.571	0.297	0.118
-319.041	-90.331	0.304	0.089
-318.026	800.000	0.038	-0.128
-317.012	-107.779	0.348	0.076
-315.997	-30.868	0.244	-0.138
-314.983	-143.503	-0.173	0.017
-313.968	-109.471	-0.069	-0.015
-312.953	38.834	0.185	0.165
-311.939	-200.000	-0.005	-0.068
-310.924	2.135	0.148	-0.107
-309.910	289.839	-0.102	0.185
-308.895	-137.712	-0.208	0.023
-307.880	-200.000	-0.072	0.398
-306.866	197.839	0.127	-0.195
-305.851	-57.480	0.120	0.053
-304.837	-191.385	-0.388	-0.004
-303.822	-10.071	-0.148	0.099
-302.807	-40.334	0.034	0.018
-301.793	164.299	-0.096	0.136
-300.778	-200.000	0.026	-0.127
-299.764	-153.327	-0.192	0.013
-298.749	19.852	0.312	0.251
-297.735	-48.319	-0.143	0.069
-296.720	-144.554	0.395	0.037
-295.705	-91.919	0.216	-0.061
-294.691	219.553	-0.054	-0.086
-293.676	210.980	-0.030	-0.047
-292.662	-125.474	0.081	-0.012
-291.647	-200.000	-0.018	0.170
-290.632	-138.695	-0.134	0.015
-289.618	-200.000	0.029	0.212
-288.603	-200.000	-0.008	0.118
-287.589	-200.000	-0.014	0.076
-286.574	-200.000	-0.018	0.087
-285.559	403.686	-0.092	-0.194
-284.545	-129.447	-0.277	0.038
-283.530	-40.844	-0.164	-0.085
-282.516	-8.590	0.212	0.142
-281.501	43.661	-0.201	0.184
-280.486	-200.000	0.063	-0.347
-279.472	-87.382	0.151	-0.046
-278.457	-126.872	-0.182	-0.027
-277.443	-200.000	0.004	0.370
-276.428	96.921	0.223	0.255
-275.413	227.849	0.167	0.272
-274.399	-75.572	-0.146	0.052
-273.384	-6.607	0.003	0.002
-272.370	-17.986	-0.356	-0.223
-271.355	-75.529	-0.171	-0.061
-270.340	11.668	-0.115	0.088
-269.326	-153.996	0.118	0.008
-268.311	800.000	0.025	0.077
-267.297	208.167	-0.104	0.162
-266.282	-200.000	-0.012	-0.075
-265.267	130.449	-0.122	0.157
-264.253	-200.000	0.036	-0.231
-263.238	48.407	0.136	0.128
-262.224	-200.000	0.007	-0.047
-261.209	-200.000	0.010	0.315
-260.195	-46.479	0.265	-0.130
-259.180	25.804	0.061	0.051
-258.165	800.000	0.075	0.304
-257.151	-41.096	0.176	-0.091
-256.136	800.000	0.143	-0.417
-255.122	-97.343	0.169	-0.044
-254.107	-9.789	-0.065	-0.043
-253.092	27.898	-0.236	0.199
-252.078	800.000	0.077	-0.264
-251.063	800.000	0.019	-0.071
-250.049	-132.529	-0.308	-0.040
-249.034	-176.712	-0.221	-0.006
-248.019	-200.000	0.009	-0.050
-247.005	210.133	0.167	-0.262
-245.990	-200.000	0.019	0.192
-244.976	-200.000	0.081	0.416
-243.961	447.069	0.094	0.207
-242.946	19.360	0.223	-0.179
-241.932	176.031	0.075	-0.109
-240.917	198.867	-0.089	-0.136
-239.903	435.922	0.059	0.127
-238.888	-78.758	-0.183	0.062
-237.873	133.034	-0.171	-0.221
-236.859	766.846	-0.042	-0.114
-235.844	-30.684	-0.321	0.181
-234.830	-67.169	0.181	0.071
-233.815	268.468	-0.170	0.298
-232.800	323.104	-0.151	-0.288
-231.786	119.449	-0.197	-0.244
-230.771	-200.000	0.037	-0.242
-229.757	57.718	0.025	0.024
-228.742	-165.194	-0.087	-0.004
-227.727	-200.000	-0.051	-0.268
-226.713	800.000	0.135	0.484
-225.698	-63.924	0.045	0.018
-224.684	-32.155	-0.378	-0.211
-223.669	542.514	0.156	0.372
-222.655	-78.816	-0.160	0.054
-221.640	96.824	-0.217	0.248
-220.625	-200.000	-0.056	0.276
-219.611	-200.000	0.010	-0.405
-218.596	530.327	-0.119	-0.281
-217.582	40.963	-0.194	-0.174
-216.567	-200.000	-0.012	-0.090
-215.552	800.000	0.029	0.116
-214.538	-15.780	0.242	-0.154
-213.523	203.099	0.179	0.276
-212.509	-36.148	0.284	0.153
-211.494	-200.000	-0.046	0.253
-210.479	-68.171	-0.097	0.038
-209.465	44.253	-0.357	-0.327
-208.450	-73.884	-0.074	-0.027
-207.436	-59.042	-0.155	-0.067
-206.421	-113.757	0.272	-0.053
-205.406	201.585	-0.137	-0.211
-204.392	445.645	-0.130	-0.284
-203.377	83.433	-0.044	-0.048
-202.363	391.574	0.122	0.252
-201.348	-200.000	-0.027	0.123
-200.333	800.000	0.111	-0.322
-199.319	-191.253	0.225	0.002
-198.304	249.366	0.112	0.189
-197.290	-162.399	0.514	-0.025
-196.275	800.000	-0.069	-0.210
-195.260	9.075	-0.207	0.156
-194.246	288.925	0.069	0.125
-193.231	-51.322	-0.170	0.079
-192.217	-200.000	-0.007	0.111
-191.202	245.865	-0.061	0.102
-190.187	28.019	0.084	-0.070
-189.173	334.928	-0.062	0.120
-188.158	-0.419	0.174	-0.123
-187.144	-63.562	0.075	0.031
-186.129	-42.687	-0.088	-0.045
-185.114	338.350	0.115	-0.223
-184.100	275.475	-0.067	-0.118
-183.085	-200.000	-0.045	-0.368
-182.071	-51.499	-0.438	0.204
-181.056	-161.346	0.252	-0.013
-180.042	-200.000	-0.008	-0.332
-179.027	800.000	-0.028	-0.087
-178.012	768.081	-0.122	-0.331
-176.998	-146.559	0.086	0.007
-175.983	-200.000	-0.005	-0.150
-174.969	-200.000	-0.004	0.123
-173.954	-55.065	-0.211	0.095
-172.939	204.690	0.085	-0.131
-171.925	351.651	0.056	0.110
-170.910	-200.000	0.014	0.210
-169.896	150.217	-0.158	0.214
-168.881	-200.000	0.063	0.378
-167.866	624.428	-0.087	-0.217
-166.852	271.194	0.112	-0.196
-165.837	56.094	-0.186	-0.180
-164.823	-123.647	-0.168	-0.027
-163.808	-102.254	-0.132	0.032
-162.793	107.238	0.093	0.110
-161.779	59.999	0.126	0.124
-160.764	-110.025	-0.377	0.079
-159.750	-45.757	-0.315	0.155
-158.735	-61.749	-0.014	0.006
-157.720	-56.283	0.056	0.025
-156.706	-107.258	-0.192	0.042
-155.691	-148.350	-0.372	0.030
-154.677	800.000	-0.006	-0.016
-153.662	-26.993	-0.314	-0.183
-152.647	-157.810	0.102	-0.006
-151.633	38.789	-0.180	-0.160
-150.618	290.680	0.069	-0.124
-149.604	-121.329	-0.357	0.059
-148.589	800.000	0.018	-0.064
-147.574	-18.685	-0.142	0.088
-146.560	800.000	-0.056	0.202
-145.545	174.414	0.040	-0.058
-144.531	685.774	-0.063	-0.164
-143.516	17.492	0.240	0.189
-142.502	-20.145	-0.044	-0.027
-141.487	142.312	0.072	-0.096
-140.472	-200.000	-0.003	0.057
-139.458	88.747	-0.041	-0.046
-138.443	155.342	0.390	-0.534
-137.429	50.091	0.165	0.155
-136.414	372.582	-0.078	-0.158
-135.399	-122.589	-0.430	-0.069
-134.385	655.728	-0.061	0.155
-133.370	-122.492	0.222	-0.036
-132.356	550.006	0.031	-0.074
-131.341	236.864	0.048	0.080
-130.326	-200.000	-0.013	0.177
-129.312	115.700	0.188	-0.229
-128.297	18.451	0.235	0.187
-127.283	-120.131	0.459	-0.078
-126.268	-9.832	0.120	0.080
-125.253	131.436	-0.169	0.216
-124.239	-200.000	-0.028	-0.190
-123.224	794.734	-0.074	-0.203
-122.210	-43.467	-0.215	-0.108
-121.195	-75.817	-0.291	-0.103
-120.180	559.987	0.093	-0.223
-119.166	-120.116	0.248	-0.042
-118.151	-52.784	0.350	0.160
-117.137	-25.118	-0.239	-0.141
-116.122	-58.503	-0.179	0.077
-115.107	-35.914	-0.231	0.124
-114.093	-200.000	0.023	-0.233
-113.078	-115.888	-0.108	0.020
-112.064	-101.901	0.172	-0.041
-111.049	51.262	-0.208	0.196
-110.034	32.071	0.097	0.084
-109.020	-200.000	-0.029	-0.240
-108.005	-43.493	0.182	0.092
-106.991	800.000	-0.023	0.079
-105.976	-200.000	0.010	-0.141
-104.962	-42.486	-0.290	-0.147
-103.947	644.202	-0.026	-0.066
-102.932	-148.552	-0.293	-0.024
-101.918	-144.106	-0.264	-0.025
-100.903	800.000	-0.029	-0.087
-99.889	-148.104	0.143	-0.012
-98.874	800.000	-0.015	0.056
-97.859	89.411	0.137	-0.152
-96.845	89.142	-0.118	0.131
-95.830	30.737	-0.208	0.177
-94.816	187.060	0.122	0.180
-93.801	656.357	0.073	0.186
-92.786	-200.000	0.048	-0.217
-91.772	48.076	0.145	0.135
-90.757	-180.891	0.185	0.004
-89.743	800.000	-0.011	0.038
-88.728	-125.932	0.251	-0.038
-87.713	-163.597	0.141	0.007
-86.699	-53.322	0.200	0.091
-85.684	-24.921	0.161	-0.095
-84.670	-21.355	-0.213	0.129
-83.655	-100.790	-0.092	0.022
-82.640	-132.937	-0.088	-0.011
-81.626	548.353	0.066	0.158
-80.611	-200.000	0.070	0.376
-79.597	348.575	-0.038	-0.074
-78.582	-52.621	0.177	0.081
-77.567	-49.317	0.260	0.123
-76.553	183.229	0.039	0.057
-75.538	-200.000	-0.009	-0.109
-74.524	800.000	-0.074	-0.271
-73.509	435.385	-0.084	0.180
-72.494	-52.545	-0.223	0.102
-71.480	800.000	0.038	0.162
-70.465	-200.000	-0.090	0.455
-69.451	-148.193	0.407	0.033
-68.436	-42.032	-0.370	0.188
-67.422	-94.670	0.110	0.030
-66.407	211.422	-0.069	-0.107
-65.392	-8.167	0.361	0.241
-64.378	177.884	0.167	0.242
-63.363	12.897	-0.224	-0.172
-62.349	-200.000	-0.043	-0.344
-61.334	113.998	-0.551	-0.665
-60.319	783.054	0.270	0.732
-59.305	453.324	-0.429	-0.941
-58.290	35.588	0.946	0.824
-57.276	241.400	0.677	1.122
-56.261	-200.000	94.871	559.957
-55.246	633.334	1382.745	3475.755
-54.232	185.893	2602.343	3836.414
-53.217	122.992	2194.899	2725.298
-52.203	47.184	1645.106	1518.570
-51.188	38.809	1379.050	1221.076
-50.173	35.352	1336.802	1162.713
-49.159	56.058	1384.731	1332.568
-48.144	60.503	1403.021	1377.498
-47.130	39.121	1357.637	1203.836
-46.115	35.438	1339.035	1164.990
-45.100	35.212	1335.038	1160.101
-44.086	35.074	1332.379	1156.907
-43.071	35.152	1329.801	1155.094
-42.057	35.084	1327.905	1152.995
-41.042	35.073	1326.478	1151.641
-40.027	35.187	1324.567	1150.622
-39.013	35.232	1322.343	1148.910
-37.998	35.265	1320.198	1147.199
-36.984	35.247	1318.929	1145.945
-35.969	35.193	1317.454	1144.293
-34.954	35.365	1315.125	1143.255
-33.940	35.325	1313.627	1141.668
-32.925	35.491	1312.096	1141.277
-31.911	35.415	1311.352	1140.134
-30.896	35.300	1309.937	1138.177
-29.881	35.346	1308.264	1136.948
-28.867	35.450	1306.685	1136.148
-27.852	35.410	1305.210	1134.585
-26.838	35.347	1304.177	1133.272
-25.823	35.500	1302.412	1132.596
-24.809	35.374	1301.013	1130.588
-23.794	35.448	1299.461	1129.631
-22.779	35.279	1298.579	1127.825
-21.765	35.358	1297.211	1127.060
-20.750	35.317	1296.078	1125.788
-19.736	35.250	1294.727	1124.174
-18.721	35.234	1293.637	1123.091
-17.706	35.149	1292.338	1121.419
-16.692	35.227	1290.829	1120.522
-15.677	35.267	1289.875	1119.884
-14.663	35.193	1289.060	1118.699
-13.648	35.103	1288.164	1117.355
-12.633	35.095	1286.800	1116.079
-11.619	35.163	1285.782	1115.545
-10.604	35.177	1284.840	1114.768
-9.590	35.137	1284.281	1114.008
-8.575	35.219	1282.963	1113.296
-7.560	35.068	1282.465	1111.941
-6.546	35.222	1281.244	1111.734
-5.531	35.098	1280.458	1110.287
-4.517	35.173	1279.522	1109.863
-3.502	35.301	1278.592	1109.754
-2.487	35.156	1278.080	1108.427
-1.473	35.278	1273.070	1104.742
-0.458	33.784	1258.244	1083.320
0.556	31.772	1238.482	1039.705
1.571	27.343	1242.362	1018.154
2.586	25.782	1256.373	1020.710
3.600	23.889	1244.411	1000.264
4.615	18.028	1170.453	909.624
5.629	9.241	1093.969	806.201
6.644	4.931	1072.842	769.323
7.659	4.574	1069.849	765.353
8.673	4.506	1068.251	763.807
9.688	4.500	1066.979	762.797
10.702	5.151	1066.243	765.400
11.717	10.801	1074.754	799.300
12.731	19.262	1086.345	849.748
13.746	22.335	1090.058	867.758
14.761	21.854	1088.271	863.891
15.775	20.875	1086.610	857.678
16.790	20.101	1083.859	851.629
17.804	19.330	1082.845	846.971
18.819	18.975	1082.040	844.523
19.834	18.693	1081.449	842.601
20.848	18.666	1080.697	841.813
21.863	18.429	1079.699	839.800
22.877	18.332	1079.079	838.766
23.892	18.186	1078.378	837.434
24.907	18.379	1077.087	837.299
25.921	18.357	1075.894	836.189
26.936	18.487	1074.711	835.833
27.950	18.434	1073.297	834.400
28.965	18.486	1071.699	833.335
29.980	18.685	1070.522	833.312
30.994	18.750	1069.660	832.884
32.009	18.732	1068.447	831.777
33.023	18.713	1067.723	831.049
34.038	18.497	1066.669	829.112
35.053	18.370	1065.911	827.835
36.067	18.364	1065.176	827.161
37.082	18.530	1063.888	826.889
38.096	18.700	1063.489	827.324
39.111	18.724	1062.519	826.613
40.126	18.342	1061.202	823.676
41.140	18.236	1059.311	821.630
42.155	17.987	1058.901	820.044
43.169	17.970	1057.585	818.869
44.184	17.952	1056.555	817.913
45.199	18.063	1055.475	817.537
46.213	18.127	1054.824	817.263
47.228	18.418	1054.229	818.123
48.242	18.392	1052.836	816.846
49.257	18.480	1051.969	816.517
50.271	18.441	1051.262	815.710
51.286	18.480	1050.587	815.299
52.301	18.465	1049.337	814.188
53.315	18.400	1048.491	813.149
54.330	18.131	1047.488	811.024
55.344	18.214	1045.971	810.170
56.359	18.191	1045.432	809.573
57.374	18.158	1044.688	808.771
58.388	18.103	1043.388	807.434
59.403	17.954	1042.784	806.191
60.417	17.979	1042.485	806.006
61.432	17.956	1041.199	804.832
62.447	17.972	1040.229	804.088
63.461	17.812	1039.801	802.932
64.476	17.929	1038.341	802.281
65.490	17.784	1038.121	801.362
66.505	17.887	1037.433	801.242
67.520	17.755	1036.688	799.977
68.534	17.886	1035.799	799.832
69.549	17.891	1034.751	798.975
70.563	17.751	1034.176	797.806
71.578	17.768	1032.617	796.614
72.593	17.826	1031.655	796.072
73.607	17.589	1031.486	794.766
74.622	17.724	1030.977	794.931
75.636	17.736	1030.651	794.666
76.651	17.737	1029.493	793.710
77.666	17.752	1029.241	793.514
78.680	17.895	1028.387	793.451
79.695	17.760	1027.849	792.335
80.709	17.959	1026.936	792.487
81.724	18.063	1026.555	792.607
82.739	18.199	1025.663	792.474
83.753	18.413	1025.474	793.250
84.768	18.560	1025.134	793.599
85.782	18.770	1023.766	793.439
86.797	18.698	1022.557	792.100
87.812	18.464	1021.869	790.419
88.826	18.501	1020.890	789.761
89.841	18.665	1019.768	789.579
90.855	18.662	1019.444	789.244
91.870	18.755	1018.156	788.604
92.884	18.686	1017.331	787.576
93.899	18.683	1016.553	786.893
94.914	18.747	1015.823	786.550
95.928	18.707	1014.791	785.497
96.943	18.602	1013.724	784.124
97.957	18.583	1013.034	783.431
98.972	18.541	1012.448	782.717
99.987	18.596	1011.536	782.196
101.001	18.485	1010.439	780.771
102.016	18.577	1009.314	780.252
103.030	18.647	1008.533	779.898
104.045	18.608	1007.930	779.188
105.060	18.526	1007.149	778.141
106.074	18.199	1005.679	775.457
107.089	18.061	1004.311	773.706
108.103	17.993	1003.928	773.036
109.118	17.858	1002.769	771.463
110.133	17.921	1001.885	770.998
111.147	17.934	1001.011	770.318
112.162	18.026	1000.143	769.999
113.176	18.091	999.653	769.844
114.191	18.258	998.767	769.845
115.206	18.215	997.748	768.797
116.220	18.080	997.164	767.675
117.235	18.044	996.582	766.996
118.249	18.070	995.373	766.117
119.264	17.963	994.759	765.093
120.279	17.958	994.132	764.524
121.293	17.879	993.142	763.342
122.308	17.835	992.222	762.368
123.322	17.794	990.551	760.836
124.337	17.656	990.040	759.758
125.352	17.736	989.063	759.298
126.366	17.808	987.697	758.504
127.381	17.750	986.989	757.634
128.395	17.883	985.669	757.143
129.410	17.991	985.118	757.131
130.424	18.090	984.151	756.762
131.439	18.193	983.576	756.709
132.454	18.201	982.810	756.085
133.468	18.172	982.222	755.439
134.483	18.136	981.467	754.633
135.497	18.335	980.312	754.554
136.512	18.210	979.706	753.474
137.527	18.142	978.899	752.483
138.541	18.181	978.302	752.133
139.556	18.269	977.327	751.703
140.570	18.418	976.754	751.847
141.585	18.638	976.003	752.169
142.600	18.670	974.866	751.367
143.614	18.765	974.712	751.597
144.629	18.749	973.812	750.764
145.643	18.555	973.214	749.393
146.658	18.475	971.959	748.007
147.673	18.343	970.227	746.036
148.687	18.379	969.230	745.360
149.702	18.114	968.498	743.577
150.716	18.006	968.063	742.707
151.731	18.064	967.766	742.665
152.746	18.336	966.202	742.579
153.760	18.263	966.009	742.050
154.775	18.472	965.362	742.391
155.789	18.359	964.955	741.525
156.804	18.461	963.708	740.942
157.819	18.544	963.129	740.788
158.833	18.602	962.780	740.705
159.848	18.845	961.878	740.995
160.862	18.636	961.189	739.498
161.877	18.309	959.457	736.695
162.892	18.320	958.314	735.797
163.906	18.083	957.685	734.231
164.921	18.221	956.837	734.107
165.935	18.313	955.819	733.658
166.950	18.456	955.018	733.588
167.964	18.436	954.217	732.825
168.979	18.393	952.891	731.559
169.994	18.210	952.568	730.463
171.008	18.424	951.671	730.624
172.023	18.535	951.432	730.849
173.037	18.566	950.497	730.195
174.052	18.634	949.340	729.535
175.067	18.310	948.630	727.545
176.081	18.235	947.944	726.638
177.096	18.184	947.567	726.067
178.110	18.269	947.255	726.125
179.125	18.360	946.426	725.811
180.140	18.409	946.058	725.671
181.154	18.505	945.715	725.751
182.169	18.785	945.099	726.398
183.183	18.725	944.431	725.567
184.198	18.816	943.388	725.088
185.213	18.732	942.863	724.266
186.227	18.733	942.198	723.695
187.242	18.854	942.121	724.079
188.256	18.904	941.603	723.827
189.271	18.936	940.589	723.121
190.286	18.447	939.514	720.177
191.300	18.231	938.641	718.537
192.315	18.148	937.671	717.381
193.329	18.276	936.876	717.245
194.344	18.435	936.862	717.835
195.359	18.511	936.068	717.482
196.373	18.582	936.058	717.708
197.388	18.834	935.371	718.174
198.402	19.003	935.216	718.695
199.417	19.012	934.559	718.165
200.432	19.165	933.977	718.293
201.446	19.239	933.617	718.259
202.461	19.219	933.274	717.851
203.475	19.218	932.631	717.288
204.490	18.970	931.508	715.330
205.504	18.855	930.394	713.932
206.519	18.828	929.777	713.286
207.534	18.812	929.036	712.588
208.548	18.911	928.727	712.695
209.563	18.900	927.431	711.594
210.577	19.083	927.019	711.970
211.592	19.161	926.432	711.779
212.607	19.250	925.674	711.503
213.621	19.073	925.302	710.423
214.636	19.064	924.293	709.549
215.650	19.133	923.735	709.343
216.665	19.264	923.087	709.320
217.680	19.327	922.558	709.108
218.694	19.308	921.868	708.438
219.709	19.190	920.950	707.184
220.723	19.182	920.410	706.675
221.738	19.102	919.703	705.741
222.753	19.190	919.294	705.727
223.767	19.320	918.791	705.810
224.782	19.343	918.387	705.532
225.796	19.307	917.760	704.842
226.811	19.433	916.691	704.472
227.826	19.316	915.929	703.345
228.840	19.137	915.611	702.309
229.855	19.225	914.690	701.900
230.869	19.183	913.945	701.093
231.884	19.151	913.237	700.360
232.899	19.058	912.205	699.128
233.913	19.062	911.434	698.493
234.928	18.939	911.056	697.643
235.942	19.051	910.352	697.496
236.957	18.863	910.095	696.474
237.972	19.094	909.104	696.590
238.986	19.015	908.660	695.867
240.001	19.064	907.649	695.232
241.015	19.055	907.456	694.983
242.030	19.218	906.702	695.004
243.045	19.172	906.478	694.583
244.059	19.111	905.538	693.559
245.074	19.367	904.878	694.020
246.088	19.361	904.527	693.668
247.103	19.583	903.894	694.010
248.117	19.666	903.976	694.346
249.132	19.817	903.347	694.410
250.147	20.056	902.401	694.577
251.161	20.147	901.803	694.421
252.176	20.063	901.652	693.908
253.190	20.181	900.676	693.564
254.205	20.058	900.540	692.909
255.220	19.989	899.872	692.056
256.234	19.977	899.193	691.425
257.249	20.153	898.244	691.337
258.263	20.036	897.371	690.139
259.278	20.024	897.001	689.746
260.293	20.123	895.990	689.299
261.307	20.138	895.824	689.169
262.322	20.240	895.221	689.049
263.336	20.226	894.518	688.393
264.351	20.212	893.551	687.531
265.366	20.239	892.951	687.116
266.380	20.277	892.398	686.779
267.395	20.119	891.518	685.418
268.409	20.137	890.635	684.749
269.424	20.033	890.035	683.816
270.439	20.008	889.366	683.144
271.453	20.143	888.288	682.789
272.468	19.879	887.942	681.421
273.482	19.977	887.530	681.431
274.497	20.010	887.159	681.214
275.512	19.994	886.469	680.562
276.526	19.922	885.717	679.644
277.541	19.993	885.533	679.721
278.555	20.182	885.140	680.099
279.570	20.408	884.338	680.307
280.585	20.279	883.558	679.142
281.599	20.126	882.846	677.935
282.614	20.074	881.972	677.002
283.628	20.161	881.094	676.610
284.643	20.166	880.522	676.130
285.657	20.005	880.353	675.311
286.672	20.219	879.204	675.203
287.687	20.164	878.839	674.651
288.701	20.079	878.569	674.052
289.716	20.172	877.795	673.759
290.730	20.202	877.420	673.530
291.745	20.150	876.804	672.794
292.760	20.329	876.203	672.968
293.774	20.442	875.848	673.076
294.789	20.380	874.980	672.108
295.803	20.235	873.951	670.698
296.818	20.079	873.454	669.651
297.833	20.250	872.723	669.694
298.847	20.270	872.163	669.281
299.862	20.331	871.659	669.072
300.876	20.529	871.158	669.390
301.891	20.525	870.872	669.095
302.906	20.671	870.231	669.107
303.920	20.598	870.257	668.786
304.935	20.968	869.123	669.277
305.949	20.618	868.250	667.203
306.964	20.519	867.837	666.447
307.979	20.512	867.613	666.190
308.993	20.643	867.026	666.180
310.008	20.665	866.213	665.581
311.022	20.602	865.347	664.615
312.037	20.542	864.795	663.902
313.052	20.361	864.338	662.805
314.066	20.157	863.820	661.569
315.081	20.313	863.380	661.770
316.095	20.283	862.599	660.997
317.110	20.403	861.896	660.858
318.125	20.267	861.456	659.945
319.139	20.309	861.125	659.789
320.154	20.503	860.082	659.670
321.168	20.578	859.688	659.593
322.183	20.617	859.200	659.309
323.197	20.427	858.915	658.311
324.212	20.573	858.280	658.319
325.227	20.563	857.444	657.582
326.241	20.480	856.933	656.818
327.256	20.539	856.392	656.568
328.270	20.371	856.102	655.655
329.285	20.397	855.114	654.938
330.300	20.351	854.636	654.338
331.314	20.429	854.403	654.397
332.329	20.503	854.110	654.392
333.343	20.633	853.827	654.609
334.358	20.698	853.275	654.370
335.373	20.635	853.348	654.134
336.387	20.724	852.685	653.899
337.402	20.833	852.140	653.836
338.416	20.929	851.999	654.028
339.431	21.042	851.554	654.055
340.446	21.101	851.525	654.196
341.460	21.158	851.076	654.006
342.475	21.154	850.705	653.646
343.489	21.140	850.380	653.287
344.504	21.320	849.918	653.549
345.519	21.383	849.195	653.169
346.533	21.338	848.068	652.076
347.548	21.196	847.702	651.208
348.562	20.999	847.333	650.131
349.577	20.884	846.484	648.995
350.592	20.698	845.841	647.752
351.606	20.854	844.895	647.549
352.621	20.823	844.534	647.101
353.635	20.798	843.891	646.460
354.650	20.879	843.528	646.423
355.665	21.106	842.667	646.549
356.679	21.161	841.705	645.957
357.694	21.129	841.286	645.458
358.708	20.892	840.768	644.130
359.723	20.980	840.244	643.995
360.738	20.934	839.535	643.224
361.752	21.069	839.108	643.340
362.767	21.220	839.118	643.846
363.781	21.198	838.393	643.153
364.796	21.561	837.718	643.913
365.810	21.640	837.461	643.949
366.825	21.673	837.454	644.010
367.840	21.551	836.826	643.019
368.854	21.472	835.768	641.860
369.869	21.479	835.175	641.376
370.883	21.407	835.121	641.011
371.898	21.504	835.040	641.249
372.913	21.734	834.345	641.501
373.927	21.560	833.599	640.232
374.942	21.520	833.370	639.855
375.956	21.622	832.711	639.666
376.971	21.798	832.630	640.189
377.986	21.860	832.306	640.109
379.000	21.844	831.739	639.559
380.015	21.987	830.647	639.184
381.029	21.712	830.363	637.907
382.044	21.799	829.924	637.827
383.059	21.931	829.230	637.719
384.073	21.863	828.419	636.792
385.088	21.617	827.580	635.198
386.102	21.587	826.997	634.584
387.117	21.343	826.857	633.539
388.132	21.437	826.283	633.381
389.146	21.574	825.775	633.434
390.161	21.836	825.152	633.846
391.175	21.715	825.102	633.313
392.190	21.685	824.146	632.415
393.205	21.704	823.630	632.033
394.219	21.590	823.448	631.425
395.234	21.263	823.131	629.946
396.248	21.503	822.045	629.927
397.263	21.355	821.828	629.171
398.278	21.346	821.416	628.766
399.292	21.514	820.505	628.620
400.307	21.369	820.559	628.085
401.321	21.425	820.402	628.108
402.336	21.564	819.540	627.892
403.350	21.679	819.112	627.921
404.365	21.696	818.996	627.836
405.380	21.811	818.208	627.590
406.394	22.090	817.647	628.102
407.409	22.258	817.248	628.338
408.423	22.166	817.706	628.307
409.438	22.256	816.951	627.992
410.453	22.307	816.313	627.627
411.467	22.318	815.668	627.117
412.482	22.333	815.639	627.090
413.496	22.468	815.338	627.283
414.511	22.170	815.258	626.107
415.526	22.189	814.656	625.656
416.540	22.280	813.644	625.149
417.555	22.314	813.291	624.943
418.569	22.304	812.861	624.521
419.584	22.353	812.197	624.128
420.599	22.281	812.160	623.788
421.613	158.849	1369.533	1788.689
422.628	138.281	1450.715	1788.826
