DTS Sentinel unit serial number:	SN413079Multiplexer serial number:	ORYXHardware model number:	OX4-SRSoftware version number:	ORYX F/W v4.00 Oryx Data Collector v3.7.2.0data status	okinstallation	princeton_trtdifferential loss correction	single-endedforward channel	channel 1reverse channel	N/Adate	2019/09/18time	16:46:35forward acquisition time	60.00reverse acquisition time	0.00gamma	496.2192k internal	0.2292k external	0.2292temperature offset calibration	0.9994default loss term (dB/km)	0.3790temperature slope calibration	1.0000multiplexer offset coefficient	1.0000multiplexer slope coefficient	1.0000fibre end	0.00T internal ref (°C)	39.92T ext. ref 1 (°C)	0.85T ext. ref 2 (°C)	35.85length (m)	temperature (°C)	Stokes	anti-Stokes-747.200	800.000	-0.077	-0.260
-746.185	800.000	-0.127	0.502
-745.171	-109.790	-0.111	-0.024
-744.156	800.000	-0.061	-0.184
-743.142	-105.060	0.053	-0.012
-742.127	537.920	-0.080	0.196
-741.112	-171.918	0.120	0.004
-740.098	-200.000	0.007	0.169
-739.083	-105.896	0.443	0.102
-738.069	77.999	0.052	0.057
-737.054	139.079	0.068	0.091
-736.039	-64.646	-0.075	-0.031
-735.025	166.562	-0.160	0.231
-734.010	408.895	0.118	-0.255
-732.996	-91.755	-0.095	-0.028
-731.981	-7.196	-0.319	-0.221
-730.966	-200.000	0.000	-0.097
-729.952	-44.020	-0.044	0.022
-728.937	800.000	-0.027	0.095
-727.923	64.761	0.156	0.161
-726.908	216.112	0.119	0.193
-725.894	-122.806	-0.077	0.013
-724.879	104.463	0.051	-0.061
-723.864	-161.757	-0.274	0.014
-722.850	156.163	-0.056	-0.080
-721.835	164.168	-0.141	0.204
-720.821	12.633	0.167	-0.132
-719.806	87.222	-0.199	0.225
-718.791	294.541	-0.018	-0.034
-717.777	-137.552	-0.446	-0.051
-716.762	800.000	-0.070	-0.293
-715.748	-104.529	0.111	-0.026
-714.733	-143.257	-0.209	-0.021
-713.718	800.000	-0.015	-0.064
-712.704	203.969	0.110	-0.174
-711.689	-47.410	-0.183	0.091
-710.675	68.778	-0.271	-0.284
-709.660	294.768	-0.120	-0.225
-708.645	800.000	0.081	-0.353
-707.631	142.450	-0.024	-0.032
-706.616	-57.609	-0.228	-0.102
-705.602	-200.000	0.028	0.231
-704.587	222.922	0.119	0.196
-703.572	595.952	0.067	0.171
-702.558	-72.620	0.300	0.113
-701.543	-68.354	-0.089	-0.035
-700.529	367.751	0.041	0.085
-699.514	-33.046	-0.139	-0.079
-698.499	-36.484	0.266	-0.146
-697.485	344.033	-0.091	-0.182
-696.470	-8.672	0.197	0.135
-695.456	-200.000	-0.015	-0.216
-694.441	-102.259	0.263	-0.065
-693.426	-68.102	-0.213	-0.085
-692.412	-200.000	-0.028	0.271
-691.397	222.159	0.100	0.165
-690.383	295.430	-0.091	-0.171
-689.368	142.958	0.061	0.083
-688.354	-118.971	0.099	-0.018
-687.339	451.619	0.054	0.122
-686.324	609.037	-0.015	0.037
-685.310	-104.606	0.389	0.092
-684.295	733.116	-0.114	-0.311
-683.281	-200.000	-0.086	0.506
-682.266	-200.000	-0.005	-0.051
-681.251	-88.978	0.062	0.019
-680.237	-26.991	-0.226	0.135
-679.222	800.000	0.063	0.200
-678.208	-26.411	0.181	-0.109
-677.193	493.584	0.210	-0.492
-676.178	485.264	-0.104	-0.241
-675.164	800.000	-0.060	-0.260
-674.149	-163.456	-0.303	0.015
-673.135	-145.458	0.217	0.020
-672.120	800.000	0.104	-0.371
-671.105	800.000	-0.033	0.103
-670.091	127.689	0.033	0.043
-669.076	-7.449	-0.315	0.218
-668.062	-121.619	0.301	0.051
-667.047	-200.000	0.042	0.282
-666.032	-200.000	-0.042	0.223
-665.018	-40.024	0.053	0.028
-664.003	279.585	0.149	0.272
-662.989	632.919	-0.082	0.213
-661.974	-136.868	-0.251	0.029
-660.959	246.374	-0.149	0.256
-659.945	86.873	-0.105	0.119
-658.930	-98.531	-0.069	-0.018
-657.916	250.066	-0.094	-0.163
-656.901	-105.183	-0.316	-0.074
-655.886	351.929	-0.042	0.085
-654.872	-200.000	-0.053	-0.361
-653.857	-55.063	0.060	-0.027
-652.843	-200.000	-0.005	-0.098
-651.828	335.057	0.119	-0.236
-650.814	-142.465	-0.476	-0.048
-649.799	-200.000	-0.037	0.234
-648.784	-200.000	0.019	-0.253
-647.770	-200.000	0.037	-0.347
-646.755	156.449	0.129	0.182
-645.741	166.986	0.058	0.084
-644.726	800.000	0.006	0.023
-643.711	-200.000	-0.061	-0.324
-642.697	-57.985	-0.027	0.012
-641.682	97.615	0.081	0.095
-640.668	382.222	-0.119	0.250
-639.653	-200.000	0.071	-0.532
-638.638	287.779	0.189	-0.349
-637.624	631.135	0.224	0.577
-636.609	800.000	0.069	0.250
-635.595	-76.773	-0.060	0.022
-634.580	-43.752	-0.072	-0.037
-633.565	344.700	-0.033	-0.067
-632.551	-200.000	-0.060	-0.279
-631.536	18.787	-0.123	-0.101
-630.522	-200.000	-0.023	-0.170
-629.507	800.000	-0.155	-0.578
-628.492	223.936	-0.059	-0.098
-627.478	-123.552	-0.392	-0.063
-626.463	302.147	-0.056	0.106
-625.449	-55.312	0.191	-0.087
-624.434	-108.906	0.235	0.051
-623.419	-200.000	0.012	-0.204
-622.405	800.000	0.090	0.358
-621.390	-30.338	-0.202	-0.117
-620.376	37.907	0.153	0.138
-619.361	365.706	-0.050	0.103
-618.346	96.105	-0.235	-0.274
-617.332	373.850	-0.174	-0.360
-616.317	-64.113	0.152	0.063
-615.303	718.787	0.129	0.349
-614.288	-85.922	0.102	-0.032
-613.273	-31.337	0.422	-0.242
-612.259	239.807	-0.093	0.157
-611.244	-121.030	-0.205	0.035
-610.230	-200.000	0.020	0.104
-609.215	800.000	-0.042	0.144
-608.201	78.696	0.237	-0.258
-607.186	-13.172	-0.032	0.021
-606.171	-200.000	0.015	-0.120
-605.157	-184.530	0.172	-0.003
-604.142	-92.577	0.297	-0.085
-603.128	-55.596	0.064	-0.029
-602.113	-200.000	0.040	0.319
-601.098	257.135	0.076	-0.133
-600.084	120.682	0.083	-0.105
-599.069	41.359	-0.225	-0.207
-598.055	-13.423	-0.251	0.166
-597.040	-5.852	-0.113	0.079
-596.025	-200.000	-0.039	-0.225
-595.011	52.185	-0.215	0.208
-593.996	325.829	0.100	-0.194
-592.982	-150.179	-0.336	-0.026
-591.967	800.000	-0.075	-0.237
-590.952	-103.952	-0.084	0.020
-589.938	-200.000	-0.008	0.098
-588.923	-148.146	-0.431	-0.036
-587.909	-160.779	0.265	0.014
-586.894	10.508	-0.246	-0.190
-585.879	24.863	0.146	0.123
-584.865	-200.000	0.032	-0.388
-583.850	-46.022	-0.306	-0.153
-582.836	46.018	0.040	-0.038
-581.821	4.969	-0.164	-0.122
-580.806	-200.000	0.005	0.232
-579.792	-34.314	-0.186	0.104
-578.777	-46.729	-0.393	-0.196
-577.763	414.535	-0.066	0.142
-576.748	141.789	0.067	-0.090
-575.733	-70.236	-0.063	-0.024
-574.719	-130.861	0.507	0.069
-573.704	-82.915	-0.273	0.090
-572.690	134.589	-0.089	0.118
-571.675	-16.605	-0.221	0.142
-570.661	-37.535	0.383	0.208
-569.646	220.150	0.118	0.193
-568.631	-11.651	0.193	0.129
-567.617	-13.553	-0.270	-0.178
-566.602	135.300	0.059	-0.078
-565.588	199.524	0.070	0.109
-564.573	386.706	0.124	0.260
-563.558	144.912	-0.098	0.133
-562.544	263.645	0.045	-0.079
-561.529	-200.000	-0.024	0.268
-560.515	-200.000	0.042	-0.278
-559.500	-31.831	0.027	0.015
-558.485	-53.207	-0.219	-0.102
-557.471	16.006	-0.193	0.155
-556.456	-25.246	-0.122	-0.073
-555.442	-200.000	-0.022	-0.208
-554.427	586.773	-0.117	-0.292
-553.412	-200.000	-0.043	0.265
-552.398	-200.000	-0.021	-0.138
-551.383	259.744	0.190	0.333
-550.369	336.169	-0.104	-0.205
-549.354	134.093	0.096	0.127
-548.339	60.111	0.182	-0.182
-547.325	284.966	-0.096	0.175
-546.310	-200.000	0.014	-0.183
-545.296	-200.000	0.008	0.093
-544.281	-44.000	0.350	-0.179
-543.266	103.165	0.104	0.124
-542.252	800.000	0.070	-0.297
-541.237	-91.367	0.098	0.028
-540.223	-107.151	-0.600	-0.134
-539.208	-84.891	-0.161	-0.051
-538.193	-200.000	-0.011	0.248
-537.179	-200.000	0.006	-0.032
-536.164	-45.856	0.325	0.163
-535.150	547.913	-0.047	-0.113
-534.135	104.701	0.161	-0.193
-533.121	-144.958	-0.345	0.032
-532.106	136.252	-0.033	0.043
-531.091	122.531	0.075	-0.096
-530.077	281.196	-0.070	0.127
-529.062	313.467	0.134	0.256
-528.048	-55.934	-0.442	0.200
-527.033	-39.178	0.160	0.085
-526.018	-70.016	-0.339	0.131
-525.004	312.868	-0.081	0.154
-523.989	-75.527	-0.036	-0.013
-522.975	94.669	-0.157	-0.181
-521.960	800.000	-0.129	0.474
-520.945	-200.000	-0.034	0.000
-519.931	-200.000	0.053	-0.502
-518.916	117.869	0.238	0.298
-517.902	111.394	-0.124	0.152
-516.887	-200.000	-0.000	0.186
-515.872	-89.871	-0.416	0.123
-514.858	272.487	0.097	-0.174
-513.843	229.218	0.032	0.053
-512.829	-80.518	-0.393	0.133
-511.814	-38.382	0.368	0.198
-510.799	771.022	-0.091	0.252
-509.785	-200.000	0.073	0.341
-508.770	88.578	0.099	0.112
-507.756	-55.777	0.138	-0.063
-506.741	-200.000	-0.020	-0.159
-505.726	45.835	0.189	-0.177
-504.712	443.727	-0.045	-0.101
-503.697	72.654	0.153	0.162
-502.683	6.397	-0.340	-0.256
-501.668	-123.839	0.405	0.065
-500.653	-102.908	0.128	-0.031
-499.639	-76.222	0.214	0.077
-498.624	-111.680	-0.157	0.032
-497.610	205.791	-0.155	-0.244
-496.595	31.916	-0.082	0.071
-495.581	73.220	-0.135	0.144
-494.566	-92.824	-0.160	-0.045
-493.551	131.809	0.056	-0.073
-492.537	54.571	-0.225	0.220
-491.522	496.688	0.105	-0.244
-490.508	66.053	-0.195	0.200
-489.493	215.105	-0.092	0.148
-488.478	-0.003	-0.129	0.093
-487.464	-200.000	0.033	0.550
-486.449	-13.048	0.267	-0.176
-485.435	502.582	0.036	-0.085
-484.420	84.624	-0.124	0.138
-483.405	-66.945	-0.239	-0.096
-482.391	-43.228	0.303	-0.156
-481.376	-135.939	0.205	0.024
-480.362	-107.234	0.063	-0.014
-479.347	-200.000	0.009	-0.193
-478.332	-133.001	-0.249	-0.032
-477.318	102.655	-0.200	0.238
-476.303	764.121	0.063	0.173
-475.289	-14.548	0.268	0.174
-474.274	8.836	0.188	0.144
-473.259	-106.115	0.255	-0.058
-472.245	800.000	0.067	0.261
-471.230	-200.000	0.010	-0.146
-470.216	-200.000	0.023	-0.207
-469.201	-96.492	0.135	-0.036
-468.186	-70.356	0.343	0.132
-467.172	100.845	-0.106	0.125
-466.157	-200.000	0.073	-0.386
-465.143	11.067	-0.076	0.059
-464.128	-13.616	0.299	-0.196
-463.113	800.000	0.118	-0.337
-462.099	39.090	-0.169	-0.153
-461.084	4.392	0.405	0.301
-460.070	800.000	-0.027	-0.112
-459.055	800.000	-0.075	-0.254
-458.040	-100.773	0.424	0.106
-457.026	-86.877	0.166	-0.051
-456.011	-27.103	0.264	-0.156
-454.997	-200.000	0.025	-0.177
-453.982	-9.393	-0.035	0.024
-452.968	85.201	-0.086	0.096
-451.953	113.968	0.168	0.207
-450.938	-200.000	0.041	-0.244
-449.924	-80.043	0.199	-0.068
-448.909	344.439	-0.082	0.163
-447.895	-75.524	-0.041	-0.015
-446.880	45.483	0.174	0.162
-445.865	-146.740	0.431	0.038
-444.851	230.559	-0.049	0.081
-443.836	-82.389	0.110	0.036
-442.822	-200.000	0.030	-0.144
-441.807	-66.957	-0.195	0.078
-440.792	-158.860	-0.240	-0.014
-439.778	-128.033	-0.504	0.073
-438.763	-200.000	0.057	0.267
-437.749	203.396	0.077	0.120
-436.734	-119.325	-0.292	0.051
-435.719	-40.916	0.244	0.128
-434.705	-105.691	0.356	-0.082
-433.690	37.258	-0.127	0.114
-432.676	-106.540	0.272	-0.061
-431.661	140.250	-0.161	-0.215
-430.646	-97.623	0.375	0.098
-429.632	-200.000	0.011	-0.368
-428.617	70.408	-0.155	0.161
-427.603	-188.526	0.141	-0.002
-426.588	-200.000	0.063	0.311
-425.573	-134.058	0.259	-0.032
-424.559	113.197	-0.133	0.163
-423.544	-200.000	0.082	-0.362
-422.530	371.394	0.187	-0.383
-421.515	-99.670	0.258	-0.065
-420.500	800.000	-0.045	0.172
-419.486	230.813	0.142	-0.234
-418.471	-119.408	-0.234	-0.041
-417.457	-200.000	0.036	-0.191
-416.442	-103.071	-0.264	0.063
-415.428	144.745	-0.039	-0.052
-414.413	-122.092	-0.152	-0.025
-413.398	-73.340	-0.152	0.056
-412.384	120.756	0.212	-0.267
-411.369	-200.000	0.018	-0.083
-410.355	4.911	-0.417	-0.310
-409.340	59.788	0.175	-0.175
-408.325	-70.715	-0.335	-0.128
-407.311	-152.099	-0.235	0.017
-406.296	-114.430	0.295	-0.057
-405.282	67.916	-0.162	-0.167
-404.267	778.030	0.097	0.267
-403.252	22.893	0.112	-0.093
-402.238	-62.022	-0.219	-0.092
-401.223	18.313	0.323	-0.261
-400.209	-118.036	0.128	-0.023
-399.194	800.000	0.016	0.067
-398.179	142.907	-0.012	-0.016
-397.165	72.080	0.104	0.110
-396.150	-87.824	-0.090	0.027
-395.136	86.281	0.121	-0.135
-394.121	-200.000	0.031	0.137
-393.106	800.000	0.040	-0.154
-392.092	-200.000	-0.004	0.044
-391.077	-146.593	-0.198	0.017
-390.063	800.000	-0.040	0.137
-389.048	135.228	-0.114	0.149
-388.033	-200.000	0.042	0.345
-387.019	800.000	0.110	-0.453
-386.004	-133.632	-0.374	0.047
-384.990	69.283	0.100	0.104
-383.975	-128.570	-0.097	0.014
-382.960	-36.928	-0.307	-0.166
-381.946	-98.007	-0.163	-0.042
-380.931	382.940	-0.112	-0.233
-379.917	674.268	-0.032	-0.084
-378.902	210.353	0.055	0.087
-377.888	-200.000	0.009	-0.129
-376.873	139.642	-0.184	-0.244
-375.858	-55.571	0.402	0.182
-374.844	-46.876	0.258	-0.127
-373.829	114.410	-0.224	-0.275
-372.815	-169.502	-0.174	0.006
-371.800	228.244	-0.121	-0.199
-370.785	-6.384	-0.225	-0.155
-369.771	-65.574	-0.332	0.134
-368.756	-200.000	0.001	0.083
-367.742	86.974	-0.142	-0.158
-366.727	-200.000	0.054	-0.310
-365.712	-200.000	0.033	0.250
-364.698	-74.071	-0.574	0.210
-363.683	19.754	-0.228	-0.185
-362.669	-23.800	-0.154	0.093
-361.654	-29.407	0.110	-0.064
-360.639	-191.265	-0.172	-0.002
-359.625	-104.158	-0.085	-0.020
-358.610	103.518	0.087	0.103
-357.596	-66.879	0.291	0.116
-356.581	-15.368	0.195	-0.126
-355.566	-71.038	0.220	0.083
-354.552	-155.969	0.200	-0.013
-353.537	-1.262	-0.157	-0.112
-352.523	-105.974	0.370	0.084
-351.508	-70.562	-0.181	0.069
-350.493	-159.791	-0.262	-0.015
-349.479	-182.519	0.129	-0.002
-348.464	322.462	-0.127	-0.244
-347.450	187.122	-0.120	-0.181
-346.435	-3.615	-0.082	-0.057
-345.420	491.036	-0.024	-0.055
-344.406	-40.853	-0.029	0.015
-343.391	611.733	-0.030	-0.076
-342.377	-122.104	0.210	0.035
-341.362	-106.112	0.148	0.034
-340.348	-200.000	-0.007	0.129
-339.333	-200.000	-0.000	-0.042
-338.318	172.174	-0.209	-0.303
-337.304	12.294	-0.210	0.163
-336.289	-200.000	-0.060	0.268
-335.275	636.794	-0.026	-0.065
-334.260	-68.156	0.207	0.081
-333.245	277.027	-0.018	-0.033
-332.231	249.358	0.076	0.129
-331.216	59.476	0.189	0.188
-330.202	307.828	-0.108	0.204
-329.187	168.967	0.104	-0.149
-328.172	-65.681	0.016	0.007
-327.158	-51.009	-0.251	0.119
-326.143	39.435	-0.139	-0.126
-325.129	192.719	-0.207	-0.315
-324.114	97.204	-0.077	0.089
-323.099	-173.278	0.243	-0.007
-322.085	-186.376	0.092	-0.001
-321.070	800.000	-0.083	0.250
-320.056	-56.632	0.188	0.084
-319.041	461.802	-0.057	-0.128
-318.026	-200.000	-0.068	-0.339
-317.012	-200.000	-0.021	0.173
-315.997	-97.338	-0.107	0.028
-314.983	-142.735	-0.303	-0.030
-313.968	10.882	0.192	-0.147
-312.953	800.000	0.127	0.373
-311.939	28.216	-0.089	-0.076
-310.924	-16.371	0.026	-0.017
-309.910	124.421	0.022	0.028
-308.895	800.000	-0.019	0.078
-307.880	-25.393	0.211	0.126
-306.866	439.541	0.138	-0.304
-305.851	-103.833	0.452	-0.106
-304.837	447.227	-0.082	0.181
-303.822	-137.904	0.205	-0.023
-302.807	-3.459	0.171	0.120
-301.793	-200.000	0.043	0.245
-300.778	-4.717	0.043	0.030
-299.764	-137.521	0.196	0.022
-298.749	-15.249	-0.385	0.248
-297.735	-43.931	0.313	-0.159
-296.720	63.930	0.213	-0.215
-295.705	-200.000	-0.005	-0.046
-294.691	-32.787	0.168	0.094
-293.676	0.666	0.091	-0.066
-292.662	-200.000	0.029	0.135
-291.647	146.449	-0.125	-0.169
-290.632	-200.000	0.002	0.117
-289.618	77.373	-0.149	-0.160
-288.603	-17.949	-0.440	0.277
-287.589	-1.664	-0.135	0.096
-286.574	-57.488	0.143	-0.063
-285.559	-200.000	0.029	0.233
-284.545	-121.830	-0.108	-0.018
-283.530	-200.000	-0.042	0.302
-282.516	-98.694	0.313	0.080
-281.501	-118.904	0.106	0.019
-280.486	-200.000	0.034	0.232
-279.472	221.123	-0.280	0.452
-278.457	-60.427	0.469	0.200
-277.443	103.975	0.088	0.103
-276.428	-127.381	0.286	0.042
-275.413	-68.958	-0.303	-0.117
-274.399	588.330	0.149	0.368
-273.384	27.760	0.075	0.063
-272.370	-200.000	-0.064	0.298
-271.355	800.000	-0.013	-0.053
-270.340	77.655	0.140	-0.150
-269.326	-24.959	0.222	0.133
-268.311	440.266	-0.115	-0.253
-267.297	202.962	0.252	0.392
-266.282	-61.146	0.188	-0.080
-265.267	27.255	-0.255	-0.215
-264.253	-200.000	0.030	0.339
-263.238	8.693	0.522	0.395
-262.224	-200.000	0.004	0.255
-261.209	24.145	0.275	-0.228
-260.195	46.969	0.261	-0.244
-259.180	225.405	0.109	-0.177
-258.165	325.549	0.047	-0.090
-257.151	87.448	-0.155	-0.172
-256.136	-96.606	-0.208	-0.055
-255.122	-42.238	-0.274	0.140
-254.107	-155.023	-0.318	-0.021
-253.092	376.544	-0.152	-0.312
-252.078	-200.000	-0.002	-0.179
-251.063	-200.000	-0.063	0.357
-250.049	446.631	0.151	0.334
-249.034	-86.102	0.469	0.145
-248.019	378.570	-0.144	0.297
-247.005	-200.000	0.033	-0.205
-245.990	-150.832	0.279	-0.021
-244.976	-200.000	-0.020	-0.146
-243.961	-200.000	0.007	-0.074
-242.946	800.000	0.062	-0.196
-241.932	246.371	0.093	0.157
-240.917	14.422	-0.060	0.047
-239.903	25.482	-0.125	0.104
-238.888	-200.000	-0.003	-0.023
-237.873	186.143	-0.151	-0.226
-236.859	410.257	-0.033	-0.070
-235.844	24.027	0.129	-0.107
-234.830	-122.696	0.329	0.053
-233.815	-200.000	-0.014	-0.215
-232.800	-91.254	-0.093	-0.027
-231.786	61.347	0.333	0.332
-230.771	184.055	-0.135	0.201
-229.757	-58.507	-0.074	0.032
-228.742	484.000	0.052	0.120
-227.727	103.792	-0.286	0.336
-226.713	-90.418	-0.123	0.036
-225.698	531.306	0.075	0.179
-224.684	0.394	-0.348	0.249
-223.669	-83.253	0.141	-0.045
-222.655	36.119	-0.113	0.100
-221.640	-200.000	0.015	-0.237
-220.625	367.884	0.128	0.260
-219.611	800.000	-0.080	-0.344
-218.596	-103.297	-0.414	-0.098
-217.582	800.000	0.074	0.272
-216.567	800.000	0.047	-0.136
-215.552	-54.118	-0.232	-0.106
-214.538	-200.000	0.056	-0.277
-213.523	-105.971	-0.300	-0.068
-212.509	800.000	-0.079	-0.278
-211.494	157.398	0.081	0.113
-210.479	-124.858	-0.021	-0.003
-209.465	-200.000	0.029	0.133
-208.450	259.041	-0.072	-0.125
-207.436	-106.133	-0.254	0.057
-206.421	-6.498	0.062	-0.042
-205.406	-180.653	0.341	-0.007
-204.392	-27.680	-0.404	-0.235
-203.377	-200.000	0.005	-0.330
-202.363	-27.958	-0.044	-0.025
-201.348	-131.271	-0.309	-0.041
-200.333	-115.245	0.339	0.064
-199.319	-66.408	-0.093	0.037
-198.304	-200.000	0.028	-0.389
-197.290	-200.000	0.033	-0.196
-196.275	268.416	-0.063	0.110
-195.260	264.220	0.082	0.143
-194.246	13.109	-0.241	0.187
-193.231	-200.000	-0.002	0.044
-192.217	-98.328	-0.040	0.010
-191.202	800.000	0.055	0.221
-190.187	99.119	-0.103	0.119
-189.173	800.000	0.097	-0.305
-188.158	73.296	0.121	0.127
-187.144	295.932	0.051	0.094
-186.129	71.373	-0.099	0.103
-185.114	66.780	0.377	-0.384
-184.100	-87.610	0.042	0.013
-183.085	-29.167	-0.130	0.075
-182.071	91.039	0.076	0.085
-181.056	-200.000	-0.012	-0.198
-180.042	-122.502	0.262	0.043
-179.027	212.805	0.055	-0.087
-178.012	121.219	-0.081	-0.101
-176.998	159.558	-0.200	0.278
-175.983	-134.451	-0.224	0.027
-174.969	-200.000	-0.037	-0.361
-173.954	-34.501	-0.103	-0.056
-172.939	-175.534	-0.109	0.003
-171.925	800.000	0.039	0.141
-170.910	581.859	0.087	0.214
-169.896	-41.051	-0.232	0.120
-168.881	-200.000	0.000	-0.130
-167.866	-108.429	-0.188	-0.041
-166.852	438.541	0.099	0.215
-165.837	800.000	0.041	-0.160
-164.823	85.416	-0.189	0.208
-163.808	-200.000	0.021	-0.184
-162.793	-200.000	0.184	0.000
-161.779	36.894	0.142	0.126
-160.764	-167.206	0.165	0.007
-159.750	23.210	-0.236	-0.194
-158.735	35.413	0.096	-0.084
-157.720	-200.000	-0.079	0.667
-156.706	171.609	0.061	0.087
-155.691	-200.000	-0.031	-0.201
-154.677	-22.891	0.374	-0.226
-153.662	-110.597	-0.054	-0.011
-152.647	-200.000	0.008	-0.076
-151.633	-55.061	-0.126	-0.057
-150.618	-3.027	-0.154	0.108
-149.604	-79.920	0.273	0.092
-148.589	344.004	-0.061	0.120
-147.574	-1.511	0.285	0.201
-146.560	-7.729	0.225	0.152
-145.545	98.118	0.166	-0.191
-144.531	-101.312	0.385	-0.094
-143.516	800.000	0.074	0.263
-142.502	800.000	0.084	-0.302
-141.487	-98.929	-0.067	-0.017
-140.472	213.197	-0.119	0.188
-139.458	216.415	-0.048	0.076
-138.443	-115.180	0.378	-0.072
-137.429	40.501	-0.186	0.167
-136.414	-55.091	0.374	0.168
-135.399	-124.937	0.516	0.079
-134.385	278.540	-0.043	-0.076
-133.370	800.000	-0.047	0.138
-132.356	-122.998	0.361	-0.058
-131.341	-87.492	0.301	0.091
-130.326	800.000	-0.060	-0.198
-129.312	-200.000	-0.044	-0.331
-128.297	517.900	0.123	-0.289
-127.283	-108.100	-0.071	0.015
-126.268	-200.000	-0.049	0.247
-125.253	333.238	0.074	-0.144
-124.239	800.000	0.037	-0.154
-123.224	-94.985	0.117	-0.032
-122.210	-200.000	0.027	0.194
-121.195	439.007	-0.169	-0.368
-120.180	-76.722	-0.186	0.065
-119.166	-200.000	0.010	-0.216
-118.151	128.743	-0.096	-0.123
-117.137	87.072	-0.382	-0.422
-116.122	435.505	-0.042	0.091
-115.107	-200.000	-0.000	-0.155
-114.093	386.122	-0.118	0.243
-113.078	-200.000	0.050	0.279
-112.064	-200.000	0.006	0.328
-111.049	800.000	0.117	-0.471
-110.034	389.430	-0.065	-0.134
-109.020	-3.357	-0.137	-0.095
-108.005	-200.000	0.025	0.321
-106.991	-152.516	0.264	0.019
-105.976	-147.863	0.321	-0.027
-104.962	79.144	0.252	-0.269
-103.947	132.694	-0.100	-0.129
-102.932	-200.000	-0.030	-0.197
-101.918	-200.000	0.044	0.291
-100.903	-200.000	0.013	-0.193
-99.889	-60.158	-0.157	0.067
-98.874	272.564	-0.090	0.159
-97.859	29.081	-0.023	-0.020
-96.845	-200.000	0.041	-0.533
-95.830	-106.766	0.204	0.045
-94.816	744.099	-0.039	0.106
-93.801	800.000	-0.034	0.110
-92.786	-38.458	-0.270	-0.142
-91.772	150.705	0.246	0.334
-90.757	-200.000	-0.024	0.208
-89.743	53.741	0.142	0.136
-88.728	-200.000	-0.039	-0.289
-87.713	-5.284	0.037	-0.026
-86.699	-200.000	-0.034	0.289
-85.684	193.312	0.173	-0.260
-84.670	-200.000	0.021	-0.161
-83.655	-200.000	0.008	0.250
-82.640	204.309	0.080	-0.124
-81.626	71.116	0.191	0.198
-80.611	-104.385	0.183	0.042
-79.597	41.382	-0.150	-0.136
-78.582	25.134	0.303	-0.251
-77.567	-164.806	0.229	-0.010
-76.553	277.452	-0.117	-0.208
-75.538	-123.968	0.367	0.058
-74.524	-136.151	-0.057	-0.007
-73.509	23.648	-0.278	-0.228
-72.494	-97.923	-0.432	0.111
-71.480	-97.702	-0.177	-0.046
-70.465	800.000	0.054	0.177
-69.451	-89.062	0.264	0.078
-68.436	800.000	-0.062	-0.205
-67.422	-117.741	0.129	-0.023
-66.407	128.576	0.080	-0.101
-65.392	491.387	-0.187	0.426
-64.378	-200.000	-0.002	0.028
-63.363	800.000	0.045	-0.145
-62.349	40.658	0.119	-0.107
-61.334	154.706	-0.660	-0.903
-60.319	16.314	0.303	0.239
-59.305	-200.000	-0.018	-0.516
-58.290	42.048	0.470	0.425
-57.276	612.472	0.648	1.616
-56.261	-200.000	77.220	519.183
-55.246	499.784	1347.316	3095.555
-54.232	141.153	2604.468	3432.589
-53.217	113.672	2268.119	2745.350
-52.203	51.478	1708.626	1617.430
-51.188	43.487	1431.111	1303.411
-50.173	40.035	1384.987	1239.753
-49.159	58.259	1421.397	1388.113
-48.144	64.311	1440.284	1444.782
-47.130	43.990	1402.260	1280.111
-46.115	40.150	1385.399	1240.645
-45.100	39.789	1380.899	1234.305
-44.086	39.718	1378.285	1231.476
-43.071	39.682	1376.254	1229.390
-42.057	39.721	1373.568	1227.183
-41.042	39.855	1371.809	1226.396
-40.027	39.743	1370.898	1224.842
-39.013	39.913	1368.265	1223.492
-37.998	39.910	1366.576	1221.914
-36.984	39.890	1364.634	1220.008
-35.969	39.973	1363.019	1219.028
-34.954	39.932	1360.967	1216.887
-33.940	40.019	1359.411	1215.987
-32.925	40.027	1358.123	1214.832
-31.911	40.047	1356.975	1213.884
-30.896	40.081	1355.193	1212.449
-29.881	39.988	1353.731	1210.520
-28.867	40.041	1352.317	1209.535
-27.852	40.072	1350.680	1208.212
-26.838	40.051	1349.067	1206.589
-25.823	40.021	1347.744	1205.181
-24.809	40.029	1346.546	1204.109
-23.794	40.001	1345.305	1202.782
-22.779	40.051	1343.510	1201.429
-21.765	40.050	1342.110	1200.126
-20.750	40.047	1340.583	1198.692
-19.736	40.011	1339.005	1197.018
-18.721	39.799	1338.253	1195.013
-17.706	39.742	1337.228	1193.708
-16.692	39.806	1335.986	1192.941
-15.677	39.852	1335.264	1192.525
-14.663	39.818	1334.076	1191.209
-13.648	39.887	1332.763	1190.404
-12.633	39.836	1331.265	1188.711
-11.619	39.711	1331.232	1187.885
-10.604	39.785	1330.144	1187.314
-9.590	39.842	1328.873	1186.471
-8.575	39.802	1328.152	1185.541
-7.560	39.833	1326.956	1184.614
-6.546	39.786	1326.200	1183.612
-5.531	39.923	1325.324	1183.601
-4.517	39.894	1324.370	1182.531
-3.502	39.813	1323.747	1181.441
-2.487	39.955	1321.988	1180.676
-1.473	39.943	1318.509	1177.446
-0.458	39.085	1304.364	1159.706
0.556	34.006	1283.182	1113.624
1.571	28.328	1284.777	1081.498
2.586	25.707	1297.547	1076.501
3.600	23.528	1285.048	1053.115
4.615	16.819	1206.204	950.896
5.629	6.380	1122.580	830.109
6.644	1.231	1098.258	785.444
7.659	0.795	1095.598	781.223
8.673	0.732	1094.377	779.958
9.688	0.624	1093.535	778.731
10.702	0.912	1091.917	778.993
11.717	5.911	1099.236	809.993
12.731	14.411	1110.900	862.690
13.746	17.832	1113.997	882.747
14.761	17.542	1112.682	880.129
15.775	16.737	1110.634	874.278
16.790	15.523	1108.834	866.524
17.804	14.803	1107.027	861.325
18.819	14.499	1105.763	858.698
19.834	14.269	1104.553	856.500
20.848	13.990	1103.509	854.179
21.863	13.648	1103.331	852.208
22.877	13.524	1102.259	850.668
23.892	13.538	1101.123	849.788
24.907	13.443	1100.917	849.070
25.921	13.658	1099.610	849.084
26.936	13.578	1099.093	848.203
27.950	13.513	1098.452	847.300
28.965	13.773	1096.417	846.985
29.980	13.735	1095.298	845.849
30.994	13.761	1093.745	844.708
32.009	13.735	1093.635	844.415
33.023	13.712	1092.589	843.418
34.038	13.734	1091.110	842.314
35.053	13.660	1090.772	841.601
36.067	13.630	1089.941	840.732
37.082	13.644	1089.139	840.113
38.096	13.737	1088.118	839.719
39.111	13.663	1087.706	838.952
40.126	13.709	1085.997	837.795
41.140	13.577	1084.608	835.981
42.155	13.638	1083.560	835.406
43.169	13.542	1082.585	834.098
44.184	13.560	1081.647	833.393
45.199	13.523	1080.613	832.337
46.213	13.505	1079.911	831.628
47.228	13.531	1078.538	830.631
48.242	13.451	1077.727	829.531
49.257	13.590	1076.158	828.944
50.271	13.568	1075.498	828.255
51.286	13.655	1074.536	827.876
52.301	13.624	1073.290	826.688
53.315	13.575	1072.267	825.580
54.330	13.654	1071.204	825.083
55.344	13.516	1070.467	823.755
56.359	13.493	1069.950	823.169
57.374	13.538	1068.808	822.441
58.388	13.540	1067.889	821.672
59.403	13.521	1067.108	820.905
60.417	13.420	1066.684	820.007
61.432	13.446	1065.767	819.356
62.447	13.399	1064.656	818.198
63.461	13.362	1063.922	817.380
64.476	13.440	1062.645	816.709
65.490	13.384	1062.207	816.023
66.505	13.426	1061.293	815.459
67.520	13.487	1060.630	815.175
68.534	13.611	1059.437	814.797
69.549	13.499	1059.514	814.233
70.563	13.476	1058.384	813.183
71.578	13.382	1057.552	812.008
72.593	13.350	1056.732	811.151
73.607	13.385	1056.021	810.705
74.622	13.431	1055.480	810.443
75.636	13.439	1054.690	809.802
76.651	13.382	1053.920	808.863
77.666	13.416	1053.477	808.617
78.680	13.369	1052.926	807.890
79.695	13.463	1052.033	807.594
80.709	13.524	1051.232	807.207
81.724	13.526	1050.768	806.789
82.739	13.661	1049.750	806.592
83.753	13.547	1049.128	805.489
84.768	13.694	1048.376	805.552
85.782	13.696	1046.992	804.427
86.797	13.630	1046.406	803.586
87.812	13.620	1045.301	802.618
88.826	13.602	1044.307	801.698
89.841	13.601	1042.992	800.609
90.855	13.657	1041.952	800.014
91.870	13.544	1042.011	799.440
92.884	13.648	1040.622	798.806
93.899	13.834	1039.455	798.737
94.914	13.821	1038.727	798.044
95.928	13.699	1038.277	797.039
96.943	13.804	1036.918	796.432
97.957	13.641	1036.319	795.119
98.972	13.578	1035.947	794.462
99.987	13.675	1034.276	793.575
101.001	13.680	1033.362	792.825
102.016	13.680	1032.660	792.215
103.030	13.701	1032.205	791.898
104.045	13.758	1030.669	790.919
105.060	13.715	1030.387	790.430
106.074	13.684	1029.157	789.270
107.089	13.514	1028.394	787.807
108.103	13.577	1027.564	787.401
109.118	13.517	1026.724	786.403
110.133	13.589	1025.671	785.867
111.147	13.543	1024.872	784.968
112.162	13.558	1024.061	784.345
113.176	13.721	1023.190	784.383
114.191	13.629	1022.465	783.322
115.206	13.595	1021.713	782.514
116.220	13.724	1020.691	782.273
117.235	13.513	1019.863	780.573
118.249	13.700	1018.444	780.298
119.264	13.712	1017.858	779.837
120.279	13.701	1017.187	779.200
121.293	13.737	1016.496	778.770
122.308	13.532	1015.636	777.082
123.322	13.543	1014.547	776.233
124.337	13.505	1014.127	775.667
125.352	13.550	1012.538	774.589
126.366	13.642	1011.152	773.890
127.381	13.669	1010.016	773.078
128.395	13.692	1009.240	772.524
129.410	13.725	1008.477	772.025
130.424	13.701	1007.493	771.095
131.439	13.649	1007.212	770.568
132.454	13.821	1006.373	770.656
133.468	13.782	1005.535	769.768
134.483	13.754	1004.777	768.987
135.497	13.779	1003.834	768.312
136.512	13.773	1002.889	767.496
137.527	13.733	1001.938	766.514
138.541	13.794	1001.504	766.395
139.556	13.792	1000.481	765.538
140.570	13.858	999.778	765.237
141.585	14.005	998.287	764.705
142.600	14.005	997.546	764.065
143.614	14.022	996.792	763.502
144.629	13.985	996.394	762.960
145.643	13.922	995.512	761.924
146.658	13.906	994.238	760.811
147.673	13.881	993.254	759.876
148.687	13.762	992.710	758.848
149.702	13.886	991.587	758.491
150.716	13.817	990.834	757.530
151.731	13.783	990.407	756.984
152.746	13.734	989.804	756.229
153.760	13.739	989.038	755.600
154.775	13.958	988.131	755.839
155.789	13.923	987.768	755.333
156.804	13.888	986.473	754.118
157.819	13.909	985.863	753.682
158.833	14.047	985.371	753.863
159.848	13.828	984.677	752.274
160.862	13.943	983.792	752.052
161.877	14.055	982.477	751.488
162.892	13.907	981.677	750.141
163.906	13.765	981.026	748.935
164.921	13.924	979.940	748.757
165.935	14.009	978.775	748.182
166.950	13.996	978.303	747.695
167.964	13.925	977.362	746.591
168.979	13.980	976.294	745.956
169.994	13.987	975.403	745.241
171.008	14.092	974.562	745.002
172.023	14.119	973.919	744.567
173.037	14.069	973.416	743.893
174.052	14.131	972.462	743.377
175.067	14.120	971.910	742.842
176.081	14.000	971.418	741.862
177.096	14.032	970.927	741.565
178.110	14.067	970.022	740.961
179.125	14.057	969.422	740.393
180.140	14.167	968.958	740.466
181.154	14.155	968.561	740.042
182.169	14.252	967.929	739.924
183.183	14.255	966.966	739.135
184.198	14.280	966.338	738.704
185.213	14.159	965.470	737.435
186.227	14.211	964.975	737.222
187.242	14.451	963.993	737.471
188.256	14.343	963.775	736.762
189.271	14.325	962.962	735.994
190.286	14.173	962.272	734.729
191.300	14.250	961.312	734.273
192.315	14.064	961.035	733.176
193.329	14.257	960.140	733.277
194.344	14.054	959.876	732.118
195.359	14.341	959.062	732.694
196.373	14.311	958.122	731.780
197.388	14.361	957.746	731.648
198.402	14.347	957.335	731.206
199.417	14.433	956.309	730.736
200.432	14.490	955.978	730.666
201.446	14.431	955.898	730.284
202.461	14.593	954.952	730.207
203.475	14.554	954.122	729.338
204.490	14.573	953.411	728.813
205.504	14.560	952.817	728.237
206.519	14.433	952.200	727.144
207.534	14.473	951.415	726.658
208.548	14.452	950.770	726.005
209.563	14.422	949.938	725.176
210.577	14.501	949.386	725.034
211.592	14.513	948.743	724.532
212.607	14.678	947.755	724.428
213.621	14.571	947.213	723.485
214.636	14.628	946.214	722.906
215.650	14.581	945.567	722.146
216.665	14.650	945.179	722.084
217.680	14.813	944.052	721.864
218.694	14.783	943.430	721.195
219.709	14.618	942.996	720.084
220.723	14.814	942.166	720.234
221.738	14.642	941.417	718.859
222.753	14.853	940.652	719.116
223.767	14.813	940.132	718.484
224.782	14.840	939.304	717.904
225.796	14.821	939.057	717.570
226.811	14.927	938.181	717.293
227.826	14.934	937.332	716.607
228.840	14.926	936.635	715.978
229.855	14.868	935.844	715.061
230.869	14.832	935.078	714.260
231.884	14.800	934.490	713.610
232.899	14.843	933.420	712.915
233.913	14.749	932.895	712.050
234.928	14.880	932.226	712.034
235.942	14.879	931.687	711.556
236.957	14.896	931.145	711.151
237.972	14.781	930.282	709.939
238.986	14.764	929.604	709.286
240.001	14.868	929.101	709.282
241.015	14.898	928.421	708.827
242.030	14.868	928.215	708.480
243.045	14.790	927.623	707.635
244.059	14.988	926.499	707.552
245.074	15.006	925.873	707.090
246.088	15.137	925.071	706.967
247.103	15.121	924.464	706.374
248.117	15.056	923.882	705.588
249.132	15.097	923.529	705.430
250.147	15.120	922.800	704.909
251.161	15.273	922.101	704.956
252.176	15.257	921.560	704.413
253.190	15.139	921.113	703.515
254.205	15.226	920.090	703.034
255.220	15.278	919.344	702.618
256.234	15.341	918.810	702.416
257.249	15.427	917.874	701.996
258.263	15.333	917.214	701.037
259.278	15.317	916.445	700.319
260.293	15.423	915.578	700.036
261.307	15.519	915.560	700.363
262.322	15.508	914.673	699.575
263.336	15.401	913.940	698.510
264.351	15.482	913.430	698.395
265.366	15.522	912.332	697.659
266.380	15.420	912.016	696.929
267.395	15.568	911.370	696.991
268.409	15.575	910.022	695.925
269.424	15.580	909.554	695.530
270.439	15.613	908.764	694.999
271.453	15.491	908.352	694.117
272.468	15.712	907.474	694.297
273.482	15.596	907.014	693.406
274.497	15.596	906.474	692.932
275.512	15.633	905.703	692.432
276.526	15.615	905.078	691.818
277.541	15.606	905.052	691.703
278.555	15.718	903.968	691.275
279.570	15.748	903.573	691.031
280.585	15.712	902.601	690.082
281.599	15.729	901.736	689.426
282.614	15.674	901.264	688.781
283.628	15.700	900.875	688.527
284.643	15.807	899.994	688.232
285.657	15.669	899.469	687.208
286.672	15.905	898.500	687.368
287.687	15.903	897.993	686.911
288.701	15.855	897.376	686.182
289.716	15.833	896.843	685.625
290.730	15.860	896.152	685.146
291.745	15.957	895.522	684.999
292.760	15.799	895.106	683.976
293.774	15.904	894.419	683.818
294.789	16.037	893.732	683.772
295.803	15.894	893.012	682.581
296.818	15.866	892.476	681.998
297.833	15.954	891.697	681.697
298.847	16.075	890.762	681.413
299.862	15.979	890.488	680.753
300.876	16.013	889.686	680.220
301.891	16.020	889.173	679.793
302.906	16.099	888.620	679.629
303.920	16.103	887.886	679.025
304.935	16.214	887.566	679.164
305.949	16.120	886.910	678.224
306.964	16.109	886.192	677.572
307.979	16.225	885.532	677.475
308.993	16.093	885.141	676.586
310.008	16.291	883.996	676.444
311.022	16.350	883.636	676.344
312.037	16.289	883.227	675.728
313.052	16.192	882.489	674.716
314.066	16.031	882.272	673.848
315.081	16.254	881.214	673.868
316.095	16.238	880.745	673.386
317.110	16.202	880.312	672.853
318.125	16.241	879.445	672.285
319.139	16.175	879.419	671.943
320.154	16.366	878.650	672.054
321.168	16.306	878.032	671.283
322.183	16.222	877.423	670.428
323.197	16.302	876.972	670.341
324.212	16.255	876.785	669.950
325.227	16.185	876.006	669.019
326.241	16.304	875.392	668.964
327.256	16.373	874.923	668.820
328.270	16.250	874.302	667.797
329.285	16.353	873.533	667.557
330.300	16.374	872.904	667.103
331.314	16.348	872.579	666.692
332.329	16.375	871.907	666.225
333.343	16.520	871.422	666.368
334.358	16.337	871.392	665.564
335.373	16.447	870.592	665.326
336.387	16.411	870.330	664.929
337.402	16.473	869.962	664.831
338.416	16.527	869.745	664.820
339.431	16.466	869.449	664.294
340.446	16.464	869.002	663.887
341.460	16.534	868.710	663.880
342.475	16.641	867.867	663.597
343.489	16.732	867.671	663.743
344.504	16.824	866.892	663.449
345.519	16.861	866.189	662.997
346.533	16.704	865.994	662.174
347.548	16.683	865.225	661.446
348.562	16.747	864.758	661.280
349.577	16.593	864.202	660.198
350.592	16.602	863.759	659.836
351.606	16.726	862.836	659.554
352.621	16.615	862.338	658.682
353.635	16.818	861.288	658.613
354.650	16.810	860.629	658.020
355.665	16.751	860.366	657.531
356.679	16.860	859.493	657.228
357.694	16.798	859.129	656.650
358.708	16.941	858.013	656.293
359.723	16.855	857.944	655.849
360.738	16.950	856.860	655.329
361.752	16.844	856.391	654.504
362.767	16.990	855.638	654.433
363.781	17.101	855.075	654.374
364.796	17.110	854.756	654.106
365.810	17.118	854.163	653.626
366.825	17.081	854.062	653.347
367.840	17.009	853.758	652.778
368.854	17.067	853.001	652.368
369.869	16.787	853.121	651.323
370.883	17.071	852.135	651.604
371.898	17.072	851.757	651.262
372.913	17.109	851.358	651.038
373.927	17.074	851.122	650.667
374.942	17.104	850.336	650.126
375.956	17.211	849.998	650.218
376.971	17.294	849.564	650.146
377.986	17.403	848.790	649.914
379.000	17.340	848.323	649.257
380.015	17.388	847.698	648.904
381.029	17.516	847.051	648.838
382.044	17.422	846.522	648.019
383.059	17.332	846.091	647.289
384.073	17.341	845.437	646.766
385.088	17.295	845.074	646.255
386.102	17.397	844.158	645.885
387.117	17.416	843.678	645.531
388.132	17.419	843.490	645.343
389.146	17.360	843.028	644.708
390.161	17.373	842.388	644.211
391.175	17.602	841.773	644.552
392.190	17.624	840.475	643.582
393.205	17.527	840.412	643.111
394.219	17.428	840.275	642.575
395.234	17.277	840.550	642.157
396.248	17.484	839.778	642.293
397.263	17.357	839.184	641.302
398.278	17.432	838.640	641.114
399.292	17.341	838.670	640.736
400.307	17.486	838.024	640.733
401.321	17.464	836.952	639.774
402.336	17.564	836.606	639.827
403.350	17.570	836.431	639.662
404.365	17.641	835.946	639.500
405.380	17.522	835.622	638.750
406.394	17.647	834.596	638.376
407.409	17.567	834.128	637.661
408.423	17.736	834.253	638.333
409.438	17.667	833.685	637.585
410.453	17.733	833.210	637.413
411.467	17.818	832.690	637.273
412.482	17.835	832.350	637.020
413.496	17.901	831.859	636.835
414.511	17.874	831.570	636.458
415.526	17.927	830.890	636.077
416.540	18.053	830.276	636.020
417.555	17.846	830.274	635.194
418.569	17.899	829.362	634.637
419.584	17.937	829.224	634.614
420.599	17.867	828.802	633.978
421.613	94.150	1270.340	1384.523
422.628	81.234	1334.689	1384.641
