DTS Sentinel unit serial number:	SN413079Multiplexer serial number:	ORYXHardware model number:	OX4-SRSoftware version number:	ORYX F/W v4.00 Oryx Data Collector v3.7.2.0data status	okinstallation	princeton_trtdifferential loss correction	single-endedforward channel	channel 1reverse channel	N/Adate	2019/09/14time	09:46:36forward acquisition time	60.00reverse acquisition time	0.00gamma	496.2192k internal	0.2317k external	0.2317temperature offset calibration	1.0072default loss term (dB/km)	0.3790temperature slope calibration	1.0000multiplexer offset coefficient	1.0000multiplexer slope coefficient	1.0000fibre end	0.00T internal ref (°C)	32.28T ext. ref 1 (°C)	3.92T ext. ref 2 (°C)	30.42length (m)	temperature (°C)	Stokes	anti-Stokes-747.200	800.000	0.044	-0.141
-746.185	205.250	0.092	0.145
-745.171	412.241	0.172	0.369
-744.156	183.717	-0.112	0.168
-743.142	38.049	0.242	0.218
-742.127	14.076	0.203	0.160
-741.112	800.000	-0.053	0.206
-740.098	-85.615	-0.284	0.089
-739.083	-11.610	-0.156	-0.104
-738.069	-151.045	0.114	0.009
-737.054	-115.403	0.252	0.048
-736.039	-7.232	-0.260	-0.178
-735.025	156.821	-0.231	0.323
-734.010	130.796	0.158	0.205
-732.996	-200.000	0.017	-0.110
-731.981	800.000	-0.022	0.076
-730.966	528.668	0.059	0.141
-729.952	-200.000	-0.008	0.085
-728.937	-151.129	0.444	0.034
-727.923	81.989	-0.210	-0.230
-726.908	30.918	0.135	0.117
-725.894	55.238	-0.133	0.130
-724.879	-174.250	0.161	-0.005
-723.864	-118.621	-0.255	-0.046
-722.850	30.006	-0.120	0.103
-721.835	-200.000	0.019	0.243
-720.821	60.937	-0.053	0.054
-719.806	251.828	-0.098	-0.168
-718.791	-48.829	-0.258	-0.125
-717.777	-200.000	-0.028	-0.428
-716.762	-200.000	0.016	-0.119
-715.748	-153.663	-0.118	-0.008
-714.733	85.724	-0.036	-0.040
-713.718	30.599	0.170	-0.147
-712.704	-200.000	0.011	0.176
-711.689	112.437	0.188	-0.230
-710.675	123.689	-0.222	0.281
-709.660	800.000	0.089	-0.294
-708.645	-165.211	0.297	0.013
-707.631	-126.198	0.399	-0.060
-706.616	305.452	-0.090	0.170
-705.602	85.864	-0.231	-0.257
-704.587	166.852	0.070	-0.100
-703.572	-200.000	-0.062	-0.352
-702.558	515.311	0.085	-0.201
-701.543	-30.668	-0.351	0.201
-700.529	-107.478	0.225	0.050
-699.514	92.794	0.191	0.218
-698.499	-68.565	-0.099	-0.039
-697.485	-125.940	-0.240	-0.037
-696.470	800.000	-0.090	0.348
-695.456	-99.675	-0.144	-0.036
-694.441	139.077	-0.109	-0.145
-693.426	-128.076	0.288	0.042
-692.412	-112.622	-0.218	-0.044
-691.397	-200.000	-0.030	-0.259
-690.383	29.618	0.220	-0.189
-689.368	800.000	0.043	0.140
-688.354	-200.000	0.063	-0.356
-687.339	205.950	-0.048	-0.075
-686.324	-91.548	-0.190	0.055
-685.310	-200.000	-0.003	-0.077
-684.295	746.377	0.082	0.222
-683.281	-140.081	-0.242	-0.026
-682.266	56.860	0.134	-0.132
-681.251	-200.000	0.019	-0.303
-680.237	-23.442	0.290	-0.176
-679.222	94.968	-0.167	0.192
-678.208	-178.615	-0.146	-0.003
-677.193	83.695	-0.066	-0.073
-676.178	-64.421	-0.466	-0.192
-675.164	-200.000	-0.021	0.144
-674.149	-130.952	0.139	-0.019
-673.135	100.785	-0.114	-0.134
-672.120	800.000	0.018	0.060
-671.105	162.812	-0.102	0.145
-670.091	287.536	-0.211	-0.386
-669.076	800.000	-0.040	0.144
-668.062	800.000	0.037	-0.146
-667.047	95.285	-0.024	0.028
-666.032	12.490	-0.142	0.111
-665.018	582.532	-0.079	0.195
-664.003	644.250	-0.113	-0.291
-662.989	-43.642	0.343	-0.175
-661.974	151.109	-0.164	0.225
-660.959	-161.855	-0.248	0.013
-659.945	-200.000	-0.001	-0.016
-658.930	146.267	-0.110	-0.149
-657.916	-200.000	0.108	-0.517
-656.901	423.299	0.059	-0.129
-655.886	-144.751	0.209	0.019
-654.872	-200.000	0.003	-0.290
-653.857	270.734	-0.163	-0.290
-652.843	56.662	0.287	-0.281
-651.828	324.297	-0.071	-0.136
-650.814	-142.958	0.173	0.017
-649.799	-44.081	-0.096	0.048
-648.784	-81.755	-0.156	0.051
-647.770	282.578	0.013	0.024
-646.755	-107.719	-0.043	0.009
-645.741	9.806	-0.312	0.239
-644.726	33.659	0.433	-0.380
-643.711	394.978	0.086	0.181
-642.697	119.174	-0.065	-0.081
-641.682	182.455	-0.155	-0.231
-640.668	96.449	0.124	0.143
-639.653	387.612	-0.122	-0.254
-638.638	14.474	-0.247	-0.194
-637.624	-200.000	-0.102	-0.466
-636.609	662.998	-0.029	-0.075
-635.595	117.974	0.078	0.097
-634.580	-200.000	-0.002	0.120
-633.565	97.570	0.019	-0.022
-632.551	59.652	-0.092	0.091
-631.536	-61.646	0.154	-0.065
-630.522	175.034	0.049	-0.071
-629.507	-200.000	-0.008	-0.326
-628.492	-139.440	0.357	0.039
-627.478	-200.000	-0.026	-0.151
-626.463	-16.129	0.179	-0.115
-625.449	-200.000	-0.016	0.078
-624.434	-82.896	-0.255	0.083
-623.419	800.000	-0.080	-0.341
-622.405	329.061	0.103	-0.200
-621.390	167.330	0.157	-0.224
-620.376	800.000	-0.024	-0.096
-619.361	-200.000	0.008	-0.273
-618.346	-200.000	-0.002	0.063
-617.332	-72.342	-0.190	-0.071
-616.317	10.737	0.141	-0.108
-615.303	800.000	0.086	-0.280
-614.288	-75.574	-0.233	-0.084
-613.273	754.256	0.110	-0.299
-612.259	9.496	0.469	-0.357
-611.244	-74.032	-0.170	0.062
-610.230	163.021	0.174	-0.246
-609.215	336.788	0.060	-0.117
-608.201	-200.000	0.015	0.279
-607.186	7.114	-0.242	-0.182
-606.171	-200.000	-0.021	-0.109
-605.157	-200.000	-0.031	0.160
-604.142	-134.175	-0.090	0.011
-603.128	800.000	-0.045	0.149
-602.113	-127.438	-0.158	-0.023
-601.098	-17.058	0.133	0.085
-600.084	128.592	-0.181	0.232
-599.069	-118.257	0.244	-0.044
-598.055	578.586	0.136	-0.336
-597.040	800.000	-0.066	-0.208
-596.025	20.095	-0.080	-0.065
-595.011	209.477	-0.152	0.239
-593.996	-78.778	0.318	0.109
-592.982	-8.670	-0.303	-0.204
-591.967	-7.094	-0.195	0.133
-590.952	800.000	-0.077	-0.336
-589.938	-156.195	-0.182	0.012
-588.923	-7.478	0.544	-0.371
-587.909	-87.109	-0.212	-0.065
-586.894	-160.350	-0.110	0.006
-585.879	-200.000	0.034	-0.179
-584.865	-200.000	0.027	-0.000
-583.850	425.636	-0.269	-0.583
-582.836	221.481	0.095	0.153
-581.821	-200.000	-0.032	0.166
-580.806	800.000	-0.015	-0.043
-579.792	444.776	0.043	0.095
-578.777	-57.305	0.161	-0.071
-577.763	407.547	0.145	0.308
-576.748	77.883	-0.181	-0.194
-575.733	-58.063	-0.233	0.102
-574.719	91.713	-0.059	-0.066
-573.704	-36.639	-0.327	-0.177
-572.690	46.704	-0.099	-0.093
-571.675	-200.000	-0.040	0.229
-570.661	242.198	-0.007	-0.012
-569.646	55.742	0.296	0.289
-568.631	-200.000	0.037	-0.324
-567.617	-111.114	-0.229	0.047
-566.602	-48.235	-0.207	-0.100
-565.588	-50.483	-0.152	-0.072
-564.573	37.057	-0.076	-0.067
-563.558	105.171	-0.056	-0.066
-562.544	-200.000	-0.033	0.311
-561.529	800.000	0.131	0.416
-560.515	-200.000	-0.001	-0.190
-559.500	576.549	-0.043	-0.105
-558.485	-126.116	-0.341	-0.051
-557.471	-200.000	-0.006	0.165
-556.456	180.769	0.240	0.355
-555.442	50.253	-0.080	0.076
-554.427	800.000	0.031	-0.102
-553.412	307.941	-0.123	-0.231
-552.398	800.000	-0.065	-0.231
-551.383	431.563	0.005	0.010
-550.369	427.564	0.146	-0.317
-549.354	38.164	0.140	-0.125
-548.339	-200.000	-0.011	-0.203
-547.325	800.000	-0.073	0.256
-546.310	-85.524	-0.219	0.068
-545.296	-92.442	-0.194	0.055
-544.281	800.000	-0.058	0.233
-543.266	592.733	0.037	0.092
-542.252	127.936	0.098	0.126
-541.237	-12.578	0.400	-0.262
-540.223	502.675	-0.080	-0.186
-539.208	-200.000	-0.008	-0.086
-538.193	365.671	0.153	0.309
-537.179	-133.064	0.269	0.034
-536.164	-33.101	0.047	0.026
-535.150	144.733	0.142	0.191
-534.135	-92.843	-0.001	0.000
-533.121	163.003	-0.124	-0.175
-532.106	47.882	-0.105	0.098
-531.091	-127.557	-0.049	0.007
-530.077	32.989	-0.212	0.184
-529.062	-200.000	-0.001	-0.158
-528.048	309.731	0.105	0.197
-527.033	26.710	0.066	-0.055
-526.018	350.839	0.141	0.281
-525.004	17.320	-0.117	-0.094
-523.989	-200.000	-0.018	-0.147
-522.975	-28.832	-0.189	-0.109
-521.960	-167.472	-0.230	0.009
-520.945	800.000	0.039	0.152
-519.931	-86.916	-0.387	-0.118
-518.916	213.385	-0.034	-0.053
-517.902	109.876	0.067	-0.081
-516.887	249.338	-0.127	0.217
-515.872	338.865	0.128	0.251
-514.858	24.262	-0.172	-0.142
-513.843	399.115	-0.127	-0.267
-512.829	800.000	-0.018	-0.069
-511.814	92.904	-0.103	0.116
-510.799	-200.000	0.105	0.000
-509.785	19.732	-0.398	0.322
-508.770	190.744	0.027	0.041
-507.756	-95.070	0.213	-0.058
-506.741	800.000	-0.016	0.066
-505.726	-200.000	0.004	-0.172
-504.712	800.000	-0.079	0.220
-503.697	47.681	-0.056	-0.052
-502.683	542.107	-0.174	0.416
-501.668	-81.083	0.226	-0.075
-500.653	319.521	0.065	0.123
-499.639	-200.000	0.003	0.274
-498.624	-113.653	-0.224	0.044
-497.610	367.872	-0.170	-0.344
-496.595	130.863	0.083	0.107
-495.581	-49.322	-0.318	-0.152
-494.566	286.505	0.039	0.070
-493.551	-131.697	0.164	0.022
-492.537	-7.797	0.268	0.182
-491.522	-200.000	0.024	0.213
-490.508	45.180	-0.015	-0.014
-489.493	-170.601	0.167	0.006
-488.478	-90.093	0.204	0.060
-487.464	-121.851	-0.112	-0.019
-486.449	27.382	-0.245	0.206
-485.435	-33.289	0.149	-0.083
-484.420	17.024	-0.103	0.082
-483.405	-113.684	0.315	0.062
-482.391	0.608	-0.147	-0.105
-481.376	-38.658	-0.230	0.122
-480.362	536.121	-0.041	0.097
-479.347	-144.023	0.202	0.019
-478.332	-98.155	-0.413	-0.107
-477.318	173.393	-0.085	-0.123
-476.303	-200.000	-0.046	0.236
-475.289	-200.000	0.015	0.176
-474.274	-51.494	0.322	0.151
-473.259	800.000	0.141	0.405
-472.245	-103.124	0.149	-0.035
-471.230	-19.992	-0.337	-0.208
-470.216	-200.000	-0.055	-0.540
-469.201	283.717	0.114	-0.206
-468.186	22.926	-0.132	0.109
-467.172	-85.503	0.379	-0.118
-466.157	-200.000	-0.006	-0.103
-465.143	-200.000	-0.018	-0.098
-464.128	48.014	0.311	-0.291
-463.113	-108.820	0.427	0.092
-462.099	68.402	-0.211	0.217
-461.084	-144.931	-0.329	-0.030
-460.070	-200.000	0.016	-0.122
-459.055	-200.000	-0.019	-0.178
-458.040	151.253	0.103	0.141
-457.026	-80.283	0.244	0.082
-456.011	-200.000	0.034	-0.179
-454.997	-77.046	-0.054	-0.019
-453.982	133.345	-0.276	0.357
-452.968	78.726	-0.194	0.207
-451.953	-38.967	0.083	0.044
-450.938	252.293	-0.104	0.177
-449.924	-122.692	-0.353	0.057
-448.909	-174.916	-0.186	0.005
-447.895	-200.000	-0.050	-0.224
-446.880	-90.008	0.319	0.093
-445.865	261.703	-0.123	-0.213
-444.851	800.000	0.012	0.044
-443.836	-87.840	0.112	0.034
-442.822	-125.829	0.249	0.038
-441.807	-108.748	-0.087	-0.019
-440.792	-159.938	0.100	-0.005
-439.778	-200.000	0.011	0.098
-438.763	315.573	0.065	0.122
-437.749	4.603	0.227	-0.167
-436.734	800.000	-0.065	0.241
-435.719	135.526	-0.108	0.141
-434.705	800.000	-0.090	-0.300
-433.690	735.804	0.083	0.224
-432.676	23.960	0.240	0.198
-431.661	-153.521	-0.113	0.008
-430.646	214.492	0.131	0.208
-429.632	194.630	-0.148	0.225
-428.617	-79.891	-0.215	-0.072
-427.603	-93.960	0.026	-0.007
-426.588	48.154	0.159	-0.149
-425.573	23.461	0.193	0.159
-424.559	99.276	-0.238	-0.275
-423.544	378.076	0.063	-0.130
-422.530	358.076	-0.139	0.277
-421.515	-86.198	0.186	0.057
-420.500	-98.963	0.229	-0.058
-419.486	185.869	-0.138	0.205
-418.471	800.000	-0.046	0.143
-417.457	-42.013	0.020	0.010
-416.442	89.887	-0.209	-0.233
-415.428	-71.896	-0.297	0.111
-414.413	220.722	-0.145	-0.233
-413.398	18.749	-0.344	-0.275
-412.384	265.598	-0.126	-0.219
-411.369	800.000	0.100	0.385
-410.355	61.892	0.107	0.107
-409.340	-200.000	-0.050	0.328
-408.325	264.532	-0.070	-0.122
-407.311	-200.000	-0.080	-0.357
-406.296	-31.664	0.016	-0.009
-405.282	-28.297	0.066	-0.038
-404.267	577.980	-0.028	0.067
-403.252	-200.000	-0.001	0.021
-402.238	57.286	-0.160	0.156
-401.223	268.537	0.074	0.129
-400.209	-63.299	0.178	-0.073
-399.194	53.711	-0.216	0.207
-398.179	771.685	0.086	0.235
-397.165	-25.508	0.109	0.064
-396.150	-26.113	-0.195	0.114
-395.136	-84.385	-0.003	0.001
-394.121	800.000	0.077	0.272
-393.106	-40.263	-0.167	0.087
-392.092	442.771	0.128	0.281
-391.077	141.389	0.018	-0.023
-390.063	-48.953	0.050	-0.024
-389.048	355.040	0.115	-0.228
-388.033	800.000	0.037	0.118
-387.019	-85.945	0.063	-0.019
-386.004	800.000	-0.015	-0.050
-384.990	484.778	-0.148	-0.337
-383.975	-99.777	0.125	-0.031
-382.960	-167.632	-0.159	0.006
-381.946	265.464	0.096	-0.167
-380.931	800.000	-0.042	0.177
-379.917	168.404	0.205	0.292
-378.902	-43.910	-0.029	-0.014
-377.888	128.397	0.189	-0.240
-376.873	56.040	-0.055	-0.053
-375.858	-4.718	0.135	-0.093
-374.844	-143.536	-0.043	-0.004
-373.829	-200.000	-0.035	0.234
-372.815	-22.810	-0.051	0.031
-371.800	-82.260	0.087	-0.028
-370.785	31.089	0.245	-0.210
-369.771	-66.573	0.224	-0.088
-368.756	-200.000	0.001	0.152
-367.742	4.670	-0.120	0.088
-366.727	265.791	0.186	-0.324
-365.712	-13.438	-0.264	0.171
-364.698	-141.756	0.098	-0.010
-363.683	-52.627	0.345	0.159
-362.669	-70.984	0.457	0.172
-361.654	198.508	0.020	-0.030
-360.639	-160.872	-0.213	0.011
-359.625	-57.036	-0.256	-0.113
-358.610	173.581	0.067	0.097
-357.596	-200.000	-0.004	0.188
-356.581	224.490	-0.083	-0.133
-355.566	800.000	-0.137	-0.393
-354.552	800.000	0.037	-0.134
-353.537	800.000	0.022	-0.081
-352.523	149.334	0.183	-0.248
-351.508	-22.704	-0.078	0.047
-350.493	-63.421	0.315	0.129
-349.479	800.000	0.048	-0.144
-348.464	442.992	0.139	0.304
-347.450	-63.818	0.144	0.059
-346.435	29.606	0.117	0.099
-345.420	-200.000	0.018	0.151
-344.406	-29.621	0.182	0.104
-343.391	-51.604	-0.539	-0.251
-342.377	52.840	-0.220	0.210
-341.362	-112.875	-0.179	0.035
-340.348	-20.798	0.300	0.183
-339.333	89.738	0.275	-0.306
-338.318	260.786	-0.275	-0.474
-337.304	-74.551	-0.273	-0.098
-336.289	-171.747	-0.356	-0.012
-335.275	344.476	0.153	0.300
-334.260	462.208	-0.086	0.192
-333.245	-200.000	-0.037	0.207
-332.231	-6.682	-0.199	-0.135
-331.216	28.840	-0.135	-0.114
-330.202	295.242	-0.052	0.096
-329.187	-200.000	0.002	0.267
-328.172	103.296	0.317	-0.370
-327.158	-180.548	0.280	-0.006
-326.143	-200.000	-0.000	-0.093
-325.129	-94.225	0.187	-0.051
-324.114	-200.000	-0.009	0.179
-323.099	-49.422	-0.180	0.085
-322.085	-106.713	0.222	0.049
-321.070	-84.024	-0.231	-0.073
-320.056	597.686	-0.135	0.334
-319.041	-21.888	0.162	0.098
-318.026	-187.735	-0.245	0.003
-317.012	-55.567	0.114	0.051
-315.997	135.540	0.062	-0.080
-314.983	-200.000	-0.009	0.058
-313.968	-200.000	-0.004	0.151
-312.953	-200.000	0.012	0.102
-311.939	-110.935	-0.301	0.062
-310.924	-34.897	-0.201	0.109
-309.910	35.806	0.289	-0.253
-308.895	81.656	-0.251	0.270
-307.880	-200.000	0.016	-0.172
-306.866	-41.757	0.220	0.112
-305.851	336.380	-0.080	-0.155
-304.837	800.000	-0.047	-0.135
-303.822	800.000	-0.117	0.325
-302.807	63.249	-0.166	0.165
-301.793	-167.307	-0.072	-0.003
-300.778	385.032	0.111	0.229
-299.764	800.000	-0.156	0.429
-298.749	-58.011	0.073	0.032
-297.735	-105.920	-0.084	0.019
-296.720	267.108	-0.152	0.264
-295.705	-77.787	0.076	-0.026
-294.691	-66.364	-0.297	0.117
-293.676	-128.693	0.078	0.011
-292.662	-163.812	0.079	-0.004
-291.647	800.000	0.093	-0.327
-290.632	-131.153	0.304	0.040
-289.618	-71.587	0.367	0.137
-288.603	-50.553	0.345	0.162
-287.589	130.440	0.055	-0.070
-286.574	19.435	-0.166	0.132
-285.559	380.464	-0.223	0.454
-284.545	45.253	0.086	0.079
-283.530	47.748	-0.202	0.187
-282.516	14.325	-0.159	-0.124
-281.501	-115.806	-0.240	0.045
-280.486	21.578	-0.266	0.215
-279.472	-11.838	0.034	-0.022
-278.457	800.000	0.081	-0.253
-277.443	-132.944	0.159	0.020
-276.428	132.002	0.204	0.261
-275.413	16.296	-0.024	0.019
-274.399	-87.015	0.125	0.038
-273.384	800.000	0.029	-0.106
-272.370	164.056	0.209	0.293
-271.355	743.840	-0.085	-0.227
-270.340	-150.794	-0.372	-0.028
-269.326	-85.459	-0.060	-0.019
-268.311	-107.021	0.092	-0.020
-267.297	73.012	-0.072	0.075
-266.282	-51.760	0.132	0.061
-265.267	-35.612	-0.055	-0.029
-264.253	105.580	-0.142	-0.167
-263.238	134.007	-0.105	-0.135
-262.224	-112.749	-0.216	0.043
-261.209	-200.000	0.027	-0.141
-260.195	-120.585	-0.071	-0.012
-259.180	471.218	-0.101	-0.226
-258.165	-141.634	-0.052	-0.005
-257.151	142.873	0.200	-0.264
-256.136	366.010	0.078	-0.157
-255.122	-109.816	-0.169	0.035
-254.107	330.906	0.084	-0.161
-253.092	-146.183	-0.081	0.007
-252.078	631.976	0.108	-0.273
-251.063	116.121	-0.123	0.150
-250.049	283.382	0.147	0.262
-249.034	178.963	0.174	-0.253
-248.019	-81.482	-0.064	-0.021
-247.005	86.415	0.041	-0.045
-245.990	4.608	-0.229	-0.167
-244.976	-46.663	0.247	0.120
-243.961	-200.000	-0.001	-0.063
-242.946	-1.539	-0.104	0.073
-241.932	-30.893	-0.169	-0.095
-240.917	-38.357	0.229	0.121
-239.903	-134.428	0.141	0.017
-238.888	129.412	0.260	0.330
-237.873	-200.000	-0.015	0.288
-236.859	771.297	0.115	-0.311
-235.844	-200.000	0.115	0.000
-234.830	171.500	0.064	0.091
-233.815	17.371	-0.124	-0.098
-232.800	-151.322	0.456	-0.034
-231.786	-146.554	0.280	-0.024
-230.771	22.794	-0.165	-0.134
-229.757	479.044	-0.093	-0.210
-228.742	286.440	0.090	-0.160
-227.727	-200.000	0.004	0.185
-226.713	-200.000	0.038	0.237
-225.698	-84.106	0.280	0.088
-224.684	44.378	0.332	-0.302
-223.669	-200.000	0.018	-0.319
-222.655	242.157	-0.160	-0.266
-221.640	-200.000	0.025	0.132
-220.625	-113.958	0.357	-0.069
-219.611	-83.545	-0.129	-0.041
-218.596	-200.000	0.023	-0.231
-217.582	-22.770	0.286	0.171
-216.567	141.899	-0.150	-0.197
-215.552	45.382	0.147	0.135
-214.538	2.643	-0.200	-0.144
-213.523	28.330	-0.151	-0.127
-212.509	-31.258	0.076	0.043
-211.494	800.000	0.132	-0.429
-210.479	87.998	-0.287	0.315
-209.465	-132.874	0.206	0.026
-208.450	477.820	0.173	0.389
-207.436	-120.956	-0.168	0.028
-206.421	272.721	-0.134	-0.235
-205.406	80.577	-0.142	0.152
-204.392	-76.464	0.126	0.044
-203.377	-67.770	0.261	0.101
-202.363	-200.000	-0.024	-0.168
-201.348	-200.000	0.023	-0.142
-200.333	800.000	0.018	-0.074
-199.319	-200.000	0.015	0.217
-198.304	-84.534	-0.200	-0.062
-197.290	-52.392	0.118	-0.054
-196.275	-100.603	-0.204	0.050
-195.260	-67.973	-0.136	0.053
-194.246	-200.000	0.066	-0.302
-193.231	-200.000	-0.026	0.121
-192.217	800.000	-0.053	-0.228
-191.202	-98.565	-0.338	-0.086
-190.187	79.767	0.149	0.159
-189.173	800.000	0.059	0.204
-188.158	-74.616	0.317	0.113
-187.144	800.000	-0.099	0.326
-186.129	-42.552	0.137	-0.069
-185.114	800.000	0.151	-0.420
-184.100	119.525	0.203	-0.248
-183.085	77.412	0.071	-0.074
-182.071	51.882	-0.111	-0.105
-181.056	-164.159	0.293	0.013
-180.042	-200.000	-0.006	-0.101
-179.027	-36.740	0.316	0.168
-178.012	-99.049	0.203	0.051
-176.998	-200.000	0.026	0.119
-175.983	65.936	0.053	0.054
-174.969	-54.571	0.202	0.090
-173.954	-8.717	-0.170	-0.113
-172.939	-136.011	-0.184	0.021
-171.925	-3.993	0.283	-0.194
-170.910	-108.617	-0.055	0.012
-169.896	-109.125	-0.087	0.018
-168.881	279.408	-0.103	0.182
-167.866	-200.000	-0.014	0.142
-166.852	-132.259	-0.181	-0.023
-165.837	-198.651	0.090	-0.001
-164.823	-200.000	0.000	-0.043
-163.808	509.845	0.017	-0.040
-162.793	213.320	0.134	-0.209
-161.779	172.621	0.097	0.138
-160.764	272.055	0.060	0.105
-159.750	483.887	-0.090	0.202
-158.735	-132.717	-0.076	0.010
-157.720	394.342	-0.040	0.083
-156.706	-77.607	0.184	-0.063
-155.691	25.022	0.194	0.159
-154.677	-106.492	-0.033	0.007
-153.662	421.682	-0.128	0.271
-152.647	-152.067	-0.172	0.012
-151.633	-200.000	0.001	-0.218
-150.618	-95.612	0.188	0.050
-149.604	-103.321	-0.128	0.030
-148.589	492.858	-0.043	-0.097
-147.574	-26.436	0.116	0.067
-146.560	800.000	-0.067	-0.240
-145.545	800.000	-0.060	0.178
-144.531	-62.792	-0.176	-0.072
-143.516	-200.000	0.072	-0.469
-142.502	800.000	0.030	0.126
-141.487	119.774	0.189	0.232
-140.472	-200.000	0.012	0.140
-139.458	800.000	0.028	0.119
-138.443	-112.230	-0.204	-0.041
-137.429	2.294	0.175	0.125
-136.414	-130.725	0.286	0.038
-135.399	139.861	-0.126	0.164
-134.385	-194.925	0.289	-0.002
-133.370	-69.072	0.130	0.050
-132.356	800.000	0.094	0.290
-131.341	-27.033	-0.172	-0.099
-130.326	265.259	-0.105	0.181
-129.312	-91.748	0.173	0.049
-128.297	-173.687	0.276	-0.008
-127.283	800.000	0.110	-0.302
-126.268	-200.000	0.025	0.167
-125.253	-31.147	0.099	0.055
-124.239	743.030	0.005	-0.013
-123.224	-86.794	0.157	0.047
-122.210	92.383	0.163	-0.182
-121.195	240.694	0.115	-0.190
-120.180	-12.540	-0.151	-0.098
-119.166	471.379	-0.226	0.503
-118.151	176.281	0.154	-0.221
-117.137	-115.156	-0.188	0.035
-116.122	-200.000	-0.050	0.225
-115.107	-45.474	0.263	0.129
-114.093	-200.000	-0.025	-0.341
-113.078	47.283	0.319	-0.293
-112.064	11.609	0.087	0.066
-111.049	740.661	-0.075	-0.199
-110.034	-200.000	-0.004	0.021
-109.020	-73.626	-0.305	0.110
-108.005	800.000	-0.095	0.320
-106.991	-200.000	-0.006	0.138
-105.976	-81.599	0.283	0.092
-104.962	-100.650	-0.116	0.028
-103.947	68.031	0.205	-0.208
-102.932	-137.722	-0.345	-0.038
-101.918	136.897	-0.208	0.268
-100.903	361.970	-0.074	-0.146
-99.889	800.000	-0.099	-0.333
-98.874	-200.000	-0.017	-0.133
-97.859	-15.513	0.146	0.092
-96.845	212.037	-0.142	0.221
-95.830	800.000	-0.084	-0.245
-94.816	800.000	0.050	-0.172
-93.801	556.940	0.144	0.343
-92.786	177.285	0.144	-0.207
-91.772	-200.000	-0.005	0.087
-90.757	-153.994	0.207	0.014
-89.743	631.630	0.123	0.307
-88.728	-106.451	-0.309	-0.068
-87.713	-200.000	0.017	0.264
-86.699	117.875	-0.277	0.336
-85.684	-96.977	0.302	-0.078
-84.670	299.765	0.143	-0.260
-83.655	-200.000	0.019	0.136
-82.640	-200.000	0.019	0.151
-81.626	-174.357	-0.038	0.001
-80.611	97.861	-0.108	0.122
-79.597	207.163	0.089	-0.136
-78.582	-183.454	-0.231	0.004
-77.567	172.938	0.180	0.256
-76.553	-83.465	0.206	0.065
-75.538	47.827	0.229	-0.211
-74.524	-159.076	-0.324	0.018
-73.509	164.802	0.163	0.227
-72.494	-11.576	-0.143	0.093
-71.480	-58.491	-0.294	0.126
-70.465	800.000	0.032	0.116
-69.451	143.105	-0.106	-0.139
-68.436	672.114	0.107	0.273
-67.422	38.237	-0.065	-0.057
-66.407	75.528	0.294	0.306
-65.392	-97.724	-0.286	0.073
-64.378	-106.572	-0.015	0.003
-63.363	-1.474	-0.144	-0.100
-62.349	-97.997	0.244	0.062
-61.334	60.043	-0.908	-0.885
-60.319	-86.405	0.360	0.109
-59.305	-200.000	-0.066	-0.905
-58.290	416.586	0.476	1.001
-57.276	173.565	0.735	1.046
-56.261	-200.000	97.893	591.334
-55.246	599.361	1436.352	3512.812
-54.232	182.506	2640.641	3838.166
-53.217	119.560	2194.608	2678.835
-52.203	44.411	1635.910	1480.708
-51.188	35.841	1367.752	1185.439
-50.173	32.575	1325.008	1128.813
-49.159	56.157	1371.992	1312.853
-48.144	58.202	1388.759	1341.261
-47.130	36.035	1347.220	1168.632
-46.115	32.549	1329.209	1132.055
-45.100	32.352	1324.228	1126.590
-44.086	32.147	1322.177	1123.570
-43.071	32.189	1319.888	1121.833
-42.057	32.045	1318.001	1119.328
-41.042	32.237	1316.086	1118.798
-40.027	32.190	1314.428	1117.066
-39.013	32.214	1312.539	1115.557
-37.998	32.233	1310.952	1114.275
-36.984	32.366	1308.517	1112.950
-35.969	32.377	1306.867	1111.566
-34.954	32.290	1305.684	1110.002
-33.940	32.383	1303.942	1109.029
-32.925	32.327	1303.159	1107.987
-31.911	32.345	1301.113	1106.307
-30.896	32.334	1300.095	1105.337
-29.881	32.377	1298.393	1104.099
-28.867	32.384	1297.073	1102.970
-27.852	32.474	1295.034	1101.723
-26.838	32.420	1293.843	1100.351
-25.823	32.441	1292.556	1099.333
-24.809	32.342	1291.260	1097.607
-23.794	32.421	1290.090	1097.033
-22.779	32.391	1288.546	1095.502
-21.765	32.301	1287.973	1094.447
-20.750	32.418	1286.359	1093.710
-19.736	32.203	1285.343	1091.557
-18.721	32.253	1283.446	1090.191
-17.706	32.228	1282.497	1089.197
-16.692	32.195	1281.316	1087.960
-15.677	32.247	1280.272	1087.331
-14.663	32.217	1279.149	1086.158
-13.648	32.212	1277.910	1085.038
-12.633	32.279	1277.000	1084.607
-11.619	32.071	1276.350	1082.813
-10.604	32.255	1275.100	1082.768
-9.590	32.201	1274.209	1081.658
-8.575	32.183	1273.672	1081.057
-7.560	32.196	1272.438	1080.044
-6.546	32.116	1271.797	1078.995
-5.531	32.094	1271.104	1078.237
-4.517	32.268	1269.787	1078.073
-3.502	32.295	1268.815	1077.365
-2.487	32.259	1267.935	1076.364
-1.473	32.260	1264.722	1073.603
-0.458	31.436	1250.063	1056.461
0.556	29.039	1233.426	1023.234
1.571	25.720	1239.450	1009.558
2.586	24.804	1254.646	1016.646
3.600	23.389	1242.458	998.708
4.615	17.109	1167.787	905.229
5.629	8.009	1091.301	800.334
6.644	4.065	1070.836	765.784
7.659	3.841	1068.575	762.995
8.673	3.864	1067.197	762.058
9.688	3.910	1065.926	761.309
10.702	4.154	1064.202	761.211
11.717	9.342	1071.794	792.181
12.731	17.618	1083.116	841.515
13.746	20.521	1085.583	857.708
14.761	19.709	1084.571	852.828
15.775	18.695	1082.756	846.327
16.790	17.656	1080.747	839.565
17.804	17.014	1079.054	835.020
18.819	16.734	1078.100	832.831
19.834	16.448	1076.879	830.408
20.848	16.184	1076.531	828.771
21.863	16.031	1075.354	827.040
22.877	15.997	1074.281	825.974
23.892	15.876	1073.749	824.898
24.907	15.971	1072.894	824.636
25.921	15.945	1072.143	823.856
26.936	15.990	1070.776	822.953
27.950	16.012	1069.429	821.955
28.965	16.049	1067.856	820.853
29.980	16.252	1066.384	820.637
30.994	16.201	1065.387	819.548
32.009	16.199	1064.359	818.672
33.023	16.191	1063.414	817.836
34.038	16.190	1061.692	816.435
35.053	16.046	1061.176	815.268
36.067	16.181	1059.951	814.906
37.082	16.079	1059.390	813.911
38.096	16.145	1058.677	813.610
39.111	16.233	1057.971	813.419
40.126	16.109	1056.389	811.536
41.140	15.850	1055.268	809.355
42.155	15.794	1054.024	808.062
43.169	15.726	1052.656	806.618
44.184	15.860	1051.632	806.401
45.199	15.778	1050.616	805.157
46.213	15.816	1049.427	804.357
47.228	15.925	1048.970	804.458
48.242	15.988	1047.610	803.645
49.257	16.024	1046.712	803.056
50.271	16.035	1046.065	802.541
51.286	16.106	1044.872	801.891
52.301	15.872	1044.712	800.587
53.315	16.006	1042.888	799.754
54.330	16.010	1041.752	798.830
55.344	15.882	1041.355	797.847
56.359	15.848	1040.048	796.616
57.374	15.716	1039.521	795.519
58.388	15.613	1038.662	794.302
59.403	15.742	1037.614	794.039
60.417	15.745	1036.815	793.371
61.432	15.628	1035.709	791.904
62.447	15.609	1035.104	791.284
63.461	15.624	1034.222	790.609
64.476	15.608	1033.514	789.920
65.490	15.672	1032.265	789.198
66.505	15.729	1032.023	789.212
67.520	15.717	1031.322	788.548
68.534	15.854	1030.039	788.140
69.549	15.646	1029.829	786.935
70.563	15.762	1028.856	786.667
71.578	15.441	1028.383	784.734
72.593	15.524	1027.462	784.348
73.607	15.447	1026.837	783.441
74.622	15.551	1026.189	783.365
75.636	15.550	1025.325	782.631
76.651	15.554	1024.825	782.197
77.666	15.490	1023.699	780.974
78.680	15.643	1023.147	781.193
79.695	15.523	1022.598	780.145
80.709	15.767	1022.077	780.811
81.724	15.847	1021.463	780.645
82.739	15.894	1020.840	780.320
83.753	16.074	1019.802	780.290
84.768	16.143	1019.284	780.141
85.782	16.197	1018.578	779.783
86.797	16.201	1017.370	778.807
87.812	16.039	1016.644	777.436
88.826	16.078	1015.775	776.882
89.841	16.072	1014.973	776.173
90.855	16.168	1013.766	775.622
91.870	16.088	1013.141	774.706
92.884	16.177	1012.341	774.435
93.899	16.109	1011.582	773.476
94.914	16.162	1010.995	773.200
95.928	16.224	1009.704	772.428
96.943	16.166	1008.828	771.424
97.957	16.092	1008.242	770.569
98.972	16.082	1007.538	769.918
99.987	16.271	1006.204	769.692
101.001	16.250	1005.152	768.724
102.016	16.190	1004.162	767.625
103.030	16.169	1003.811	767.194
104.045	16.182	1002.956	766.535
105.060	16.118	1001.975	765.423
106.074	15.987	1000.699	763.790
107.089	15.835	999.871	762.402
108.103	15.833	998.900	761.585
109.118	15.779	997.871	760.487
110.133	15.750	996.933	759.573
111.147	15.694	996.454	758.891
112.162	15.814	995.385	758.549
113.176	15.947	994.685	758.548
114.191	15.876	994.476	758.003
115.206	15.909	993.372	757.241
116.220	15.847	992.903	756.540
117.235	15.948	991.544	755.890
118.249	15.953	990.488	755.041
119.264	15.898	989.664	754.100
120.279	15.692	989.248	752.792
121.293	15.678	988.388	752.008
122.308	15.720	987.271	751.280
123.322	15.645	986.217	750.079
124.337	15.631	985.297	749.249
125.352	15.732	984.172	748.778
126.366	15.637	983.421	747.716
127.381	15.906	981.825	747.630
128.395	15.734	981.502	746.556
129.410	15.940	980.192	746.408
130.424	15.836	980.019	745.748
131.439	15.942	979.119	745.466
132.454	15.924	978.174	744.599
133.468	15.987	977.310	744.158
134.483	15.919	976.664	743.298
135.497	15.964	975.653	742.659
136.512	15.898	974.937	741.762
137.527	15.984	973.784	741.195
138.541	15.956	973.487	740.780
139.556	15.927	972.629	739.933
140.570	16.139	972.070	740.376
141.585	16.307	971.210	740.391
142.600	16.235	970.257	739.285
143.614	16.339	969.356	738.986
144.629	16.344	968.693	738.439
145.643	16.240	967.841	737.270
146.658	16.183	966.705	736.087
147.673	16.077	965.685	734.784
148.687	15.912	964.999	733.482
149.702	16.135	963.502	733.247
150.716	15.951	962.761	731.817
151.731	15.976	962.385	731.577
152.746	16.117	961.680	731.589
153.760	16.088	960.994	730.874
154.775	16.281	960.064	730.938
155.789	16.121	959.740	729.933
156.804	16.202	958.968	729.635
157.819	16.204	958.351	729.107
158.833	16.269	957.780	728.888
159.848	16.374	956.975	728.664
160.862	16.267	955.845	727.281
161.877	16.208	954.716	726.105
162.892	16.072	953.621	724.622
163.906	15.979	952.666	723.433
164.921	16.089	952.045	723.369
165.935	16.289	950.817	723.229
166.950	16.065	950.446	721.924
167.964	16.095	949.297	721.116
168.979	16.077	948.352	720.256
169.994	16.128	947.453	719.728
171.008	16.037	946.952	718.897
172.023	16.278	946.386	719.428
173.037	16.314	945.873	719.131
174.052	16.241	945.037	718.120
175.067	16.119	943.865	716.647
176.081	16.112	943.459	716.243
177.096	16.062	943.143	715.729
178.110	16.229	942.246	715.696
179.125	16.153	941.464	714.715
180.140	16.179	941.404	714.714
181.154	16.268	940.718	714.507
182.169	16.334	940.578	714.619
183.183	16.540	939.311	714.461
184.198	16.443	938.832	713.625
185.213	16.435	938.091	712.968
186.227	16.548	937.618	713.020
187.242	16.528	937.098	712.478
188.256	16.691	936.279	712.474
189.271	16.597	935.462	711.395
190.286	16.329	934.676	709.611
191.300	16.151	933.712	708.069
192.315	16.171	933.180	707.686
193.329	16.261	932.236	707.286
194.344	16.285	931.975	707.125
195.359	16.370	931.350	706.945
196.373	16.441	931.129	707.008
197.388	16.473	930.501	706.605
198.402	16.650	930.125	706.997
199.417	16.815	929.394	707.067
200.432	16.920	928.792	706.985
201.446	16.849	928.415	706.338
202.461	16.995	928.190	706.712
203.475	16.841	926.868	705.003
204.490	16.691	926.072	703.711
205.504	16.565	925.507	702.698
206.519	16.809	924.433	702.832
207.534	16.687	923.760	701.753
208.548	16.695	923.018	701.160
209.563	16.745	922.508	700.915
210.577	16.619	921.942	699.902
211.592	16.855	921.835	700.737
212.607	16.943	920.936	700.355
213.621	16.872	920.150	699.402
214.636	16.892	919.426	698.870
215.650	16.928	918.512	698.262
216.665	16.986	917.957	698.020
217.680	17.062	917.175	697.673
218.694	17.020	916.347	696.810
219.709	16.980	916.080	696.383
220.723	17.033	915.682	696.237
221.738	16.923	914.831	695.074
222.753	17.030	914.007	694.828
223.767	17.125	913.229	694.560
224.782	17.114	913.068	694.334
225.796	17.194	912.176	693.921
226.811	17.176	911.999	693.649
227.826	17.002	911.164	692.244
228.840	17.015	910.207	691.508
229.855	16.983	909.251	690.591
230.869	17.079	908.446	690.307
231.884	17.114	907.844	689.934
232.899	16.753	907.562	688.192
233.913	16.868	906.248	687.601
234.928	16.945	905.743	687.467
235.942	16.796	905.559	686.664
236.957	16.874	905.073	686.551
237.972	16.996	904.488	686.538
238.986	16.847	903.696	685.277
240.001	16.813	902.982	684.538
241.015	16.884	902.105	684.097
242.030	16.979	901.885	684.251
243.045	17.129	900.897	684.048
244.059	17.046	900.282	683.186
245.074	17.231	899.879	683.563
246.088	17.146	899.374	682.779
247.103	17.251	898.442	682.431
248.117	17.334	898.232	682.545
249.132	17.562	897.573	682.896
250.147	17.512	897.030	682.223
251.161	17.620	896.167	681.940
252.176	17.661	895.737	681.714
253.190	17.645	895.152	681.148
254.205	17.773	894.136	680.822
255.220	17.628	894.106	680.162
256.234	17.739	893.294	679.927
257.249	17.763	892.579	679.419
258.263	17.682	891.763	678.416
259.278	17.720	891.341	678.186
260.293	17.801	890.428	677.751
261.307	17.825	890.345	677.726
262.322	17.912	889.412	677.298
263.336	17.934	888.354	676.522
264.351	17.842	887.930	675.774
265.366	17.920	886.941	675.271
266.380	17.824	886.899	674.799
267.395	17.935	885.804	674.345
268.409	17.926	884.736	673.436
269.424	17.790	884.293	672.503
270.439	17.862	883.316	671.982
271.453	17.732	882.865	671.070
272.468	17.721	882.449	670.652
273.482	17.863	881.636	670.533
274.497	17.718	881.327	669.670
275.512	17.747	880.880	669.381
276.526	17.743	880.403	668.945
277.541	17.991	879.593	669.240
278.555	17.940	879.158	668.651
279.570	18.075	878.822	668.866
280.585	18.027	877.895	667.912
281.599	18.044	877.049	667.276
282.614	17.915	876.191	666.063
283.628	17.969	875.738	665.869
284.643	17.923	875.120	665.162
285.657	18.016	874.500	664.992
286.672	17.965	873.816	664.216
287.687	18.072	873.079	664.013
288.701	18.048	872.683	663.561
289.716	18.149	871.994	663.368
290.730	18.204	871.482	663.134
291.745	18.088	871.114	662.347
292.760	18.085	870.730	661.984
293.774	18.243	869.534	661.626
294.789	18.009	869.321	660.501
295.803	18.186	868.359	660.394
296.818	18.085	867.664	659.417
297.833	18.065	866.939	658.731
298.847	18.002	866.722	658.266
299.862	18.108	866.128	658.165
300.876	18.211	865.553	658.065
301.891	18.433	864.861	658.336
302.906	18.453	864.363	657.977
303.920	18.503	863.982	657.817
304.935	18.469	863.310	657.119
305.949	18.388	862.577	656.191
306.964	18.436	862.129	655.978
307.979	18.302	861.510	654.935
308.993	18.578	860.778	655.375
310.008	18.507	860.390	654.750
311.022	18.541	859.715	654.309
312.037	18.387	859.290	653.341
313.052	18.219	858.783	652.257
314.066	18.215	857.989	651.582
315.081	18.072	857.452	650.571
316.095	18.137	856.939	650.371
317.110	18.335	855.978	650.337
318.125	18.344	855.466	649.924
319.139	18.151	855.261	648.979
320.154	18.302	855.082	649.357
321.168	18.412	853.842	648.775
322.183	18.377	853.695	648.474
323.197	18.480	852.807	648.133
324.212	18.300	853.039	647.570
325.227	18.346	852.106	646.979
326.241	18.451	851.414	646.792
327.256	18.274	851.134	645.855
328.270	18.454	850.156	645.733
329.285	18.286	849.672	644.676
330.300	18.275	849.360	644.341
331.314	18.424	848.429	644.136
332.329	18.585	847.968	644.334
333.343	18.499	847.953	643.944
334.358	18.453	847.297	643.214
335.373	18.717	846.594	643.616
336.387	18.549	846.828	643.107
337.402	18.642	846.610	643.232
338.416	18.816	846.185	643.506
339.431	18.922	845.792	643.546
340.446	19.054	845.073	643.433
341.460	18.900	845.134	642.850
342.475	18.940	844.683	642.599
343.489	18.992	844.060	642.260
344.504	19.045	843.623	642.069
345.519	19.005	843.162	641.514
346.533	19.016	842.368	640.893
347.548	18.970	841.874	640.287
348.562	18.808	841.435	639.297
349.577	18.686	840.791	638.295
350.592	18.548	840.311	637.362
351.606	18.628	839.779	637.201
352.621	18.779	838.638	636.838
353.635	18.781	838.214	636.467
354.650	18.891	837.313	636.131
355.665	18.827	836.927	635.547
356.679	18.936	836.261	635.387
357.694	19.039	835.394	635.052
358.708	19.003	834.871	634.465
359.723	18.881	834.597	633.751
360.738	18.971	833.917	633.511
361.752	19.014	833.470	633.274
362.767	19.077	832.957	633.062
363.781	19.122	832.380	632.730
364.796	19.295	831.715	632.807
365.810	19.334	831.787	632.948
366.825	19.327	831.105	632.346
367.840	19.269	831.006	632.000
368.854	19.390	829.959	631.594
369.869	19.326	829.066	630.624
370.883	19.451	828.855	630.864
371.898	19.404	828.985	630.737
372.913	19.498	828.493	630.650
373.927	19.400	827.875	629.764
374.942	19.324	827.555	629.188
375.956	19.459	827.260	629.401
376.971	19.487	826.652	628.986
377.986	19.739	825.923	629.292
379.000	19.638	825.714	628.708
380.015	19.605	825.329	628.242
381.029	19.532	824.861	627.564
382.044	19.459	824.406	626.896
383.059	19.652	823.647	626.963
384.073	19.474	823.286	625.989
385.088	19.562	822.006	625.277
386.102	19.439	821.578	624.452
387.117	19.285	820.998	623.399
388.132	19.540	820.326	623.753
389.146	19.513	820.038	623.385
390.161	19.590	819.798	623.425
391.175	19.702	819.020	623.181
392.190	19.457	818.593	621.916
393.205	19.459	818.171	621.549
394.219	19.338	817.878	620.835
395.234	19.352	817.680	620.682
396.248	19.207	816.977	619.569
397.263	19.261	816.645	619.460
398.278	19.332	816.076	619.228
399.292	19.332	815.525	618.755
400.307	19.472	814.956	618.771
401.321	19.407	814.657	618.255
402.336	19.480	814.162	618.088
403.350	19.475	814.005	617.893
404.365	19.605	813.379	617.830
405.380	19.837	812.771	618.142
406.394	19.788	812.210	617.485
407.409	19.968	811.851	617.802
408.423	19.904	812.048	617.668
409.438	19.980	811.258	617.283
410.453	19.917	810.787	616.644
411.467	20.080	810.352	616.841
412.482	20.057	810.031	616.458
413.496	20.125	809.631	616.343
414.511	20.076	809.309	615.869
415.526	19.999	808.835	615.178
416.540	19.961	808.494	614.732
417.555	20.140	807.632	614.655
418.569	20.052	807.644	614.299
419.584	20.109	806.816	613.816
420.599	20.112	806.286	613.370
421.613	157.720	1371.459	1790.893
422.628	136.995	1453.824	1790.963
