DTS Sentinel unit serial number:	SN413079Multiplexer serial number:	ORYXHardware model number:	OX4-SRSoftware version number:	ORYX F/W v4.00 Oryx Data Collector v3.7.2.0data status	okinstallation	princeton_trtdifferential loss correction	single-endedforward channel	channel 1reverse channel	N/Adate	2019/09/16time	04:14:35forward acquisition time	60.00reverse acquisition time	0.00gamma	496.2192k internal	0.2332k external	0.2332temperature offset calibration	0.9980default loss term (dB/km)	0.3790temperature slope calibration	1.0000multiplexer offset coefficient	1.0000multiplexer slope coefficient	1.0000fibre end	0.00T internal ref (°C)	27.37T ext. ref 1 (°C)	10.77T ext. ref 2 (°C)	21.42length (m)	temperature (°C)	Stokes	anti-Stokes-747.200	578.717	-0.032	0.078
-746.185	797.058	0.068	0.188
-745.171	-137.007	-0.092	0.011
-744.156	-66.031	-0.121	0.049
-743.142	-103.826	0.217	0.051
-742.127	-200.000	-0.007	0.294
-741.112	4.597	0.326	0.241
-740.098	343.087	0.074	-0.146
-739.083	-200.000	-0.007	0.050
-738.069	38.784	-0.146	-0.131
-737.054	-140.100	0.136	0.014
-736.039	-68.563	0.128	-0.050
-735.025	800.000	0.032	-0.126
-734.010	-85.915	-0.044	-0.014
-732.996	-200.000	0.013	-0.094
-731.981	25.088	-0.085	-0.071
-730.966	133.621	0.136	0.177
-729.952	-109.914	0.055	-0.011
-728.937	-47.816	-0.403	0.196
-727.923	-66.087	0.133	0.054
-726.908	4.851	-0.196	-0.145
-725.894	0.245	0.177	-0.127
-724.879	484.634	-0.021	0.048
-723.864	4.294	-0.403	-0.297
-722.850	232.068	0.043	0.071
-721.835	-200.000	-0.001	-0.146
-720.821	-97.269	-0.256	0.067
-719.806	-109.452	-0.231	0.049
-718.791	150.631	-0.219	0.300
-717.777	-156.330	0.102	-0.006
-716.762	-57.093	0.098	0.044
-715.748	30.954	0.197	-0.169
-714.733	-200.000	0.019	-0.092
-713.718	195.228	0.104	0.159
-712.704	-49.211	0.134	-0.064
-711.689	-200.000	0.014	0.257
-710.675	123.622	-0.145	0.183
-709.660	-67.952	0.307	-0.120
-708.645	-25.994	0.168	-0.099
-707.631	-68.931	0.286	-0.111
-706.616	-23.521	0.299	-0.180
-705.602	800.000	-0.110	-0.415
-704.587	-200.000	0.035	-0.267
-703.572	-32.200	-0.264	-0.148
-702.558	-36.236	-0.108	0.058
-701.543	351.733	-0.276	-0.549
-700.529	45.472	-0.104	-0.096
-699.514	-200.000	-0.000	-0.096
-698.499	-106.441	-0.327	-0.073
-697.485	522.635	0.046	0.110
-696.470	-24.605	0.163	0.097
-695.456	-8.179	0.194	0.131
-694.441	8.598	0.189	-0.143
-693.426	-62.292	0.246	-0.103
-692.412	800.000	0.056	-0.221
-691.397	62.571	-0.249	-0.250
-690.383	55.718	0.116	-0.113
-689.368	-59.961	0.110	-0.047
-688.354	-200.000	0.042	-0.216
-687.339	800.000	0.064	-0.197
-686.324	-25.117	0.271	-0.161
-685.310	-64.236	-0.177	0.072
-684.295	-8.043	-0.079	-0.053
-683.281	40.908	0.042	-0.038
-682.266	165.007	0.134	0.190
-681.251	-143.264	0.127	0.012
-680.237	440.833	-0.185	-0.407
-679.222	524.623	0.150	0.355
-678.208	-200.000	0.011	0.138
-677.193	491.587	0.146	-0.336
-676.178	-200.000	0.007	-0.224
-675.164	-178.548	-0.054	-0.001
-674.149	403.812	-0.082	0.173
-673.135	-0.933	0.032	-0.022
-672.120	81.006	0.104	0.112
-671.105	-200.000	0.001	-0.113
-670.091	-200.000	0.028	0.211
-669.076	-182.005	-0.106	0.002
-668.062	539.793	0.094	0.225
-667.047	-200.000	-0.008	-0.247
-666.032	282.897	-0.167	-0.300
-665.018	-78.345	-0.163	-0.056
-664.003	-200.000	0.000	0.045
-662.989	66.830	0.188	0.192
-661.974	-166.526	0.321	0.013
-660.959	-91.947	-0.180	0.051
-659.945	188.407	0.037	-0.056
-658.930	-111.465	0.170	-0.035
-657.916	149.025	0.192	0.260
-656.901	90.511	-0.034	0.038
-655.886	-200.000	0.033	-0.171
-654.872	465.626	-0.069	0.154
-653.857	-41.531	-0.223	0.115
-652.843	369.799	0.075	0.153
-651.828	-62.084	-0.002	0.001
-650.814	-65.923	-0.068	0.027
-649.799	-135.511	-0.494	0.059
-648.784	-200.000	0.044	0.248
-647.770	-200.000	-0.006	-0.147
-646.755	-103.971	-0.159	0.037
-645.741	426.454	-0.046	-0.100
-644.726	28.218	-0.239	-0.202
-643.711	145.076	0.081	0.109
-642.697	126.037	0.175	0.222
-641.682	-200.000	0.023	0.197
-640.668	261.980	0.042	0.072
-639.653	800.000	-0.109	-0.452
-638.638	-200.000	-0.009	-0.377
-637.624	-115.360	-0.084	-0.016
-636.609	-200.000	0.019	-0.097
-635.595	-16.342	-0.094	0.060
-634.580	623.137	-0.079	-0.199
-633.565	-200.000	-0.026	0.468
-632.551	93.820	-0.131	-0.149
-631.536	-75.500	0.229	0.082
-630.522	106.152	0.144	0.171
-629.507	123.509	0.108	0.135
-628.492	176.317	-0.085	-0.124
-627.478	172.727	0.128	0.184
-626.463	-115.196	-0.068	-0.013
-625.449	75.565	-0.063	0.066
-624.434	311.209	-0.105	0.197
-623.419	-39.567	-0.051	-0.027
-622.405	331.929	-0.155	0.300
-621.390	-200.000	0.005	0.376
-620.376	-153.518	-0.236	-0.016
-619.361	-103.733	0.197	0.046
-618.346	-167.232	0.204	0.008
-617.332	628.683	-0.029	0.074
-616.317	271.007	-0.145	0.256
-615.303	-200.000	-0.003	-0.088
-614.288	-97.116	0.223	-0.058
-613.273	-139.300	-0.263	0.028
-612.259	-172.060	-0.214	0.007
-611.244	117.977	0.250	0.308
-610.230	-54.576	-0.185	0.084
-609.215	153.487	-0.089	-0.122
-608.201	13.980	0.178	-0.139
-607.186	-67.451	0.263	-0.103
-606.171	-50.027	0.333	-0.158
-605.157	-51.792	0.276	-0.129
-604.142	800.000	0.068	-0.272
-603.128	143.160	-0.058	-0.078
-602.113	-200.000	0.001	0.186
-601.098	0.357	0.162	0.116
-600.084	-200.000	0.036	-0.160
-599.069	111.348	-0.079	-0.096
-598.055	-108.944	0.169	0.036
-597.040	-200.000	0.027	-0.285
-596.025	-200.000	0.004	-0.172
-595.011	12.768	0.145	-0.112
-593.996	-200.000	0.050	0.233
-592.982	513.559	0.033	-0.077
-591.967	-63.837	0.167	-0.068
-590.952	-200.000	-0.013	0.140
-589.938	-16.601	-0.075	0.048
-588.923	19.459	0.244	0.196
-587.909	-137.145	0.380	0.043
-586.894	-86.780	0.310	-0.095
-585.879	0.046	-0.175	-0.124
-584.865	-95.216	0.159	-0.043
-583.850	71.462	-0.210	-0.218
-582.836	-150.346	-0.178	-0.014
-581.821	-92.091	0.426	-0.120
-580.806	760.235	-0.075	0.204
-579.792	-200.000	-0.002	-0.083
-578.777	-55.178	-0.130	-0.058
-577.763	-200.000	-0.040	-0.224
-576.748	90.833	0.084	0.094
-575.733	0.603	-0.201	-0.144
-574.719	800.000	-0.060	0.251
-573.704	-52.950	-0.084	0.039
-572.690	267.055	-0.102	-0.178
-571.675	98.078	-0.085	0.097
-570.661	-45.448	0.152	0.075
-569.646	172.862	0.076	-0.110
-568.631	-22.307	0.169	0.102
-567.617	777.737	0.090	0.246
-566.602	800.000	-0.045	0.139
-565.588	-191.058	0.123	0.001
-564.573	-177.634	-0.395	0.010
-563.558	-39.540	-0.254	0.133
-562.544	-200.000	0.020	0.433
-561.529	484.104	-0.083	-0.189
-560.515	-200.000	0.070	-0.425
-559.500	-131.170	-0.055	-0.007
-558.485	-8.659	-0.257	0.172
-557.471	-116.400	-0.225	-0.042
-556.456	580.760	0.074	-0.182
-555.442	-200.000	-0.222	0.000
-554.427	523.611	0.086	-0.203
-553.412	-112.965	-0.180	-0.036
-552.398	800.000	0.049	-0.190
-551.383	-51.109	0.119	0.056
-550.369	-72.986	-0.246	-0.090
-549.354	123.864	0.071	0.088
-548.339	-200.000	-0.009	-0.309
-547.325	195.790	-0.121	0.183
-546.310	753.718	0.107	0.290
-545.296	-79.403	-0.191	0.065
-544.281	76.705	0.030	-0.031
-543.266	192.963	-0.127	-0.192
-542.252	-53.089	0.239	-0.109
-541.237	54.817	-0.255	0.245
-540.223	-200.000	0.027	-0.127
-539.208	40.042	-0.052	0.047
-538.193	-200.000	-0.017	0.101
-537.179	-200.000	-0.026	-0.195
-536.164	108.198	-0.170	-0.202
-535.150	104.183	-0.026	-0.031
-534.135	-200.000	-0.035	-0.179
-533.121	-200.000	0.016	0.181
-532.106	-107.203	0.024	0.005
-531.091	800.000	-0.065	-0.215
-530.077	-88.724	0.183	-0.054
-529.062	-28.912	-0.290	0.166
-528.048	-124.920	-0.496	-0.076
-527.033	800.000	-0.101	-0.409
-526.018	413.746	0.089	-0.188
-525.004	-88.011	-0.292	0.087
-523.989	33.570	-0.100	0.087
-522.975	-155.442	0.432	0.028
-521.960	649.295	0.071	0.181
-520.945	-200.000	-0.001	0.137
-519.931	-5.620	-0.102	0.070
-518.916	21.784	0.230	0.187
-517.902	117.837	0.155	0.190
-516.887	-115.920	0.274	-0.051
-515.872	-53.266	0.224	-0.103
-514.858	-12.169	-0.209	0.137
-513.843	800.000	-0.017	0.051
-512.829	-200.000	0.059	0.499
-511.814	-3.612	-0.058	0.040
-510.799	55.157	-0.017	0.017
-509.785	-200.000	-0.005	-0.114
-508.770	-200.000	-0.024	-0.431
-507.756	-49.131	0.114	-0.054
-506.741	-21.049	-0.175	-0.107
-505.726	396.745	0.058	0.121
-504.712	65.309	-0.289	-0.291
-503.697	-88.989	0.229	0.068
-502.683	110.773	-0.177	0.213
-501.668	-153.146	-0.150	-0.010
-500.653	-200.000	0.018	0.243
-499.639	-65.308	0.353	-0.142
-498.624	800.000	0.030	-0.127
-497.610	800.000	0.043	-0.140
-496.595	-193.229	-0.163	0.001
-495.581	89.844	0.108	-0.120
-494.566	800.000	0.129	-0.534
-493.551	34.274	0.219	-0.190
-492.537	63.393	-0.038	0.038
-491.522	-76.524	0.151	-0.053
-490.508	-105.693	-0.416	-0.094
-489.493	-16.503	-0.204	0.129
-488.478	-62.534	0.240	0.099
-487.464	574.318	-0.007	0.016
-486.449	123.320	0.199	-0.248
-485.435	104.733	0.076	-0.089
-484.420	33.349	0.233	-0.201
-483.405	627.701	0.205	-0.514
-482.391	800.000	0.098	0.387
-481.376	-18.793	0.221	0.137
-480.362	3.297	0.163	-0.118
-479.347	283.626	0.082	-0.146
-478.332	800.000	0.024	-0.085
-477.318	713.152	-0.164	0.434
-476.303	-13.954	0.207	0.133
-475.289	-152.468	-0.047	-0.003
-474.274	800.000	-0.031	-0.130
-473.259	691.317	0.067	-0.175
-472.245	326.653	0.129	0.245
-471.230	800.000	0.053	0.209
-470.216	157.684	0.028	0.038
-469.201	78.618	-0.154	-0.163
-468.186	232.964	-0.038	0.061
-467.172	-88.725	-0.090	-0.026
-466.157	208.505	0.048	-0.074
-465.143	34.139	-0.093	-0.080
-464.128	-89.562	0.248	-0.072
-463.113	-154.291	-0.145	-0.010
-462.099	-33.321	-0.217	0.120
-461.084	16.375	-0.110	0.087
-460.070	-5.790	0.101	-0.068
-459.055	-200.000	0.071	-0.374
-458.040	-192.475	0.150	-0.001
-457.026	100.577	-0.066	-0.076
-456.011	-200.000	0.033	-0.147
-454.997	800.000	-0.086	0.268
-453.982	-200.000	-0.089	-0.402
-452.968	-200.000	0.034	0.183
-451.953	800.000	-0.032	0.092
-450.938	192.394	0.072	0.108
-449.924	287.466	0.139	0.250
-448.909	-117.098	-0.430	0.078
-447.895	-166.129	-0.272	-0.011
-446.880	559.214	-0.043	0.104
-445.865	-123.698	0.314	0.049
-444.851	-21.314	-0.223	0.135
-443.836	165.459	-0.209	-0.293
-442.822	-23.026	0.277	-0.166
-441.807	-200.000	0.049	-0.347
-440.792	-56.090	-0.124	-0.055
-439.778	-86.409	0.114	-0.035
-438.763	-200.000	-0.001	-0.099
-437.749	-36.404	-0.208	0.111
-436.734	-200.000	-0.055	-0.298
-435.719	-53.309	0.257	0.117
-434.705	-101.482	-0.399	0.096
-433.690	-200.000	0.010	0.301
-432.676	800.000	0.112	0.350
-431.661	69.241	-0.186	0.190
-430.646	530.636	0.088	-0.207
-429.632	800.000	-0.045	-0.145
-428.617	414.329	0.146	-0.310
-427.603	-119.893	-0.167	-0.029
-426.588	78.540	0.203	-0.216
-425.573	-106.179	0.309	-0.069
-424.559	-200.000	0.013	0.128
-423.544	-200.000	0.026	-0.185
-422.530	156.925	-0.082	0.112
-421.515	-8.077	0.188	-0.126
-420.500	124.711	0.253	0.316
-419.486	9.919	0.100	0.075
-418.471	-99.108	0.205	-0.051
-417.457	700.755	0.024	-0.063
-416.442	197.787	0.157	-0.239
-415.428	-24.118	0.331	-0.197
-414.413	800.000	0.032	0.101
-413.398	-200.000	-0.010	0.234
-412.384	114.815	0.186	-0.226
-411.369	-200.000	-0.022	-0.118
-410.355	209.975	-0.098	0.153
-409.340	-200.000	-0.020	-0.180
-408.325	-200.000	0.015	-0.216
-407.311	238.965	-0.023	0.038
-406.296	800.000	0.068	0.255
-405.282	642.627	-0.057	0.143
-404.267	176.017	-0.080	0.116
-403.252	419.817	0.113	0.240
-402.238	187.973	-0.063	0.094
-401.223	-157.048	-0.114	-0.007
-400.209	341.685	0.092	0.179
-399.194	800.000	0.150	-0.415
-398.179	-30.707	-0.339	0.191
-397.165	-99.759	0.147	-0.036
-396.150	-88.360	-0.252	-0.075
-395.136	800.000	0.114	-0.335
-394.121	27.543	-0.180	0.151
-393.106	-200.000	0.022	-0.106
-392.092	215.582	0.126	-0.199
-391.077	-200.000	-0.033	0.249
-390.063	191.317	-0.078	0.116
-389.048	-111.533	-0.361	-0.073
-388.033	329.897	-0.222	0.424
-387.019	489.337	-0.089	-0.202
-386.004	160.899	-0.196	-0.272
-384.990	452.004	0.036	-0.078
-383.975	-31.991	0.151	-0.084
-382.960	367.282	-0.151	-0.302
-381.946	702.054	-0.101	0.263
-380.931	-69.081	0.233	0.089
-379.917	-148.533	-0.160	0.013
-378.902	19.097	0.261	-0.208
-377.888	12.964	-0.339	0.260
-376.873	660.959	0.018	0.047
-375.858	800.000	0.074	-0.205
-374.844	108.940	-0.259	-0.307
-373.829	-200.000	-0.039	0.196
-372.815	11.576	-0.178	0.135
-371.800	-200.000	0.028	0.195
-370.785	406.569	-0.141	-0.295
-369.771	3.502	-0.197	0.143
-368.756	-200.000	0.010	0.076
-367.742	-53.375	0.244	0.111
-366.727	63.445	0.095	0.094
-365.712	-40.143	-0.207	-0.107
-364.698	43.481	-0.147	0.134
-363.683	26.560	0.205	-0.170
-362.669	800.000	0.023	0.075
-361.654	-200.000	-0.015	0.164
-360.639	183.843	0.040	0.059
-359.625	-98.271	0.095	-0.024
-358.610	-200.000	0.008	0.061
-357.596	-143.115	0.388	0.037
-356.581	-43.158	-0.113	-0.056
-355.566	435.729	0.154	-0.332
-354.552	-64.661	-0.256	-0.103
-353.537	800.000	-0.094	-0.271
-352.523	191.090	0.181	-0.269
-351.508	-200.000	0.083	-0.531
-350.493	-200.000	-0.039	-0.265
-349.479	-200.000	0.024	0.236
-348.464	201.608	-0.167	0.254
-347.450	-130.592	-0.158	-0.021
-346.435	134.977	-0.064	0.082
-345.420	-164.313	0.237	0.011
-344.406	39.502	0.070	-0.062
-343.391	-200.000	0.004	0.144
-342.377	-115.160	-0.322	-0.060
-341.362	-200.000	-0.032	-0.386
-340.348	800.000	-0.048	0.196
-339.333	-41.117	0.228	0.116
-338.318	197.049	0.130	0.196
-337.304	176.374	-0.090	-0.130
-336.289	167.835	-0.155	0.219
-335.275	-155.607	-0.311	-0.020
-334.260	-200.000	0.017	0.174
-333.245	-91.275	0.087	0.025
-332.231	503.391	0.158	0.362
-331.216	-79.447	-0.434	-0.145
-330.202	-200.000	0.044	0.262
-329.187	708.013	0.111	0.292
-328.172	381.727	-0.044	-0.089
-327.158	347.581	-0.065	-0.127
-326.143	-39.189	0.106	-0.055
-325.129	-81.545	-0.261	-0.085
-324.114	-0.225	-0.146	-0.102
-323.099	-148.418	-0.374	0.030
-322.085	-187.573	-0.253	-0.003
-321.070	194.826	-0.006	-0.009
-320.056	96.621	0.059	-0.067
-319.041	-200.000	-0.014	-0.081
-318.026	-200.000	0.122	-0.738
-317.012	-29.992	0.153	-0.086
-315.997	-96.387	0.077	-0.020
-314.983	-129.926	0.332	-0.045
-313.968	800.000	-0.082	0.224
-312.953	348.511	0.045	0.088
-311.939	315.165	-0.076	-0.142
-310.924	-51.195	0.188	-0.087
-309.910	82.938	-0.148	-0.159
-308.895	-200.000	0.007	0.153
-307.880	-104.335	0.314	0.072
-306.866	-50.011	0.123	0.058
-305.851	48.436	-0.019	0.017
-304.837	-97.719	-0.242	-0.062
-303.822	262.922	-0.053	-0.091
-302.807	-144.347	0.272	-0.025
-301.793	335.705	-0.102	-0.195
-300.778	-200.000	0.045	-0.304
-299.764	83.856	-0.236	-0.254
-298.749	-36.578	0.052	-0.028
-297.735	800.000	-0.066	-0.239
-296.720	-68.989	-0.056	0.021
-295.705	235.552	-0.146	0.239
-294.691	456.833	0.124	-0.273
-293.676	-200.000	0.038	-0.240
-292.662	-86.853	-0.086	0.026
-291.647	-160.943	0.218	-0.011
-290.632	-155.845	-0.345	-0.022
-289.618	131.056	0.037	-0.047
-288.603	-173.255	0.362	-0.011
-287.589	-200.000	-0.007	0.171
-286.574	29.241	-0.148	-0.124
-285.559	-99.072	0.168	-0.042
-284.545	228.077	0.068	0.109
-283.530	103.652	-0.083	0.097
-282.516	86.866	0.032	-0.035
-281.501	-29.283	0.019	-0.011
-280.486	-46.577	-0.063	0.030
-279.472	703.495	0.075	-0.195
-278.457	277.384	0.144	0.254
-277.443	-72.365	0.135	-0.049
-276.428	-133.257	-0.212	-0.026
-275.413	-23.948	0.148	0.087
-274.399	-80.323	0.247	0.081
-273.384	800.000	0.067	0.209
-272.370	150.250	-0.246	-0.330
-271.355	87.575	-0.138	0.151
-270.340	-126.929	-0.151	0.022
-269.326	800.000	-0.066	0.184
-268.311	-118.165	0.062	0.011
-267.297	-125.526	0.313	-0.047
-266.282	-137.856	-0.319	0.035
-265.267	-200.000	-0.048	0.243
-264.253	-170.447	0.148	-0.005
-263.238	-137.851	0.174	-0.019
-262.224	-200.000	-0.046	-0.376
-261.209	393.476	-0.051	0.105
-260.195	-100.232	-0.120	0.029
-259.180	-140.273	-0.090	-0.009
-258.165	-27.262	0.212	-0.122
-257.151	103.482	0.136	0.157
-256.136	-170.451	-0.295	0.010
-255.122	-8.353	-0.192	0.127
-254.107	159.472	0.073	-0.101
-253.092	564.014	-0.075	0.178
-252.078	800.000	0.041	-0.124
-251.063	-54.682	0.328	-0.146
-250.049	358.971	-0.112	0.220
-249.034	749.404	0.059	0.156
-248.019	-200.000	0.004	-0.115
-247.005	-200.000	-0.020	0.092
-245.990	-90.285	-0.150	0.043
-244.976	-200.000	0.023	0.149
-243.961	-186.489	0.078	-0.001
-242.946	150.275	-0.215	0.288
-241.932	92.521	-0.257	-0.286
-240.917	48.177	0.049	0.045
-239.903	366.799	-0.107	0.213
-238.888	-31.266	0.267	0.149
-237.873	-74.585	0.334	0.119
-236.859	-76.659	0.201	0.069
-235.844	800.000	-0.011	-0.031
-234.830	43.679	-0.066	0.059
-233.815	100.467	-0.185	0.211
-232.800	192.614	-0.132	-0.196
-231.786	221.551	-0.157	0.248
-230.771	-200.000	-0.048	0.256
-229.757	-8.993	0.116	-0.077
-228.742	-38.769	0.154	-0.080
-227.727	52.715	0.042	-0.039
-226.713	461.205	-0.235	-0.516
-225.698	-200.000	-0.042	-0.251
-224.684	-23.889	0.209	-0.123
-223.669	-60.668	-0.319	0.133
-222.655	-200.000	0.018	-0.147
-221.640	29.683	-0.225	0.188
-220.625	-46.184	-0.048	0.023
-219.611	41.280	0.183	0.163
-218.596	-54.604	0.135	-0.060
-217.582	-81.450	0.095	0.031
-216.567	-108.839	-0.491	0.103
-215.552	41.443	-0.226	-0.202
-214.538	-200.000	0.003	-0.074
-213.523	88.912	-0.197	-0.216
-212.509	-200.000	-0.002	0.037
-211.494	-112.984	-0.098	-0.019
-210.479	800.000	0.080	0.242
-209.465	212.055	0.139	0.215
-208.450	234.175	-0.048	-0.078
-207.436	-56.024	-0.137	0.060
-206.421	800.000	0.129	0.433
-205.406	-43.484	0.164	0.082
-204.392	199.988	-0.121	0.182
-203.377	467.348	0.272	0.600
-202.363	-200.000	-0.018	0.179
-201.348	703.907	0.090	-0.233
-200.333	-34.872	0.098	-0.052
-199.319	-200.000	0.018	-0.103
-198.304	267.832	0.056	0.096
-197.290	800.000	0.025	0.088
-196.275	-184.612	0.146	0.002
-195.260	-137.114	0.273	0.031
-194.246	-200.000	-0.015	0.444
-193.231	579.039	0.174	0.418
-192.217	67.903	-0.124	0.125
-191.202	35.844	-0.214	0.186
-190.187	117.578	-0.094	0.114
-189.173	-200.000	-0.003	-0.218
-188.158	-139.041	0.197	0.021
-187.144	-200.000	0.014	0.220
-186.129	-159.345	0.112	-0.006
-185.114	384.822	0.093	0.190
-184.100	-200.000	0.021	0.294
-183.085	-34.426	-0.259	-0.140
-182.071	615.638	0.065	0.160
-181.056	-161.807	-0.239	0.012
-180.042	-7.116	0.274	-0.183
-179.027	-113.616	0.063	-0.012
-178.012	472.483	-0.071	0.158
-176.998	649.474	-0.094	-0.237
-175.983	800.000	-0.036	-0.118
-174.969	-31.032	0.203	0.113
-173.954	48.727	0.101	-0.093
-172.939	-177.515	0.152	0.004
-171.925	65.461	0.120	0.119
-170.910	-200.000	-0.037	-0.193
-169.896	170.714	0.187	-0.263
-168.881	-136.787	0.332	-0.038
-167.866	734.996	-0.046	0.121
-166.852	-117.332	0.187	0.033
-165.837	167.779	0.141	0.197
-164.823	187.242	-0.129	-0.189
-163.808	38.331	-0.203	0.177
-162.793	-200.000	0.050	0.226
-161.779	-161.156	0.149	0.008
-160.764	800.000	0.040	0.167
-159.750	69.482	-0.126	-0.128
-158.735	-54.349	-0.156	0.069
-157.720	505.657	-0.075	0.171
-156.706	371.228	-0.082	-0.164
-155.691	-176.001	-0.311	0.008
-154.677	-50.908	0.175	-0.081
-153.662	128.975	-0.049	0.061
-152.647	353.403	0.057	0.112
-151.633	-1.566	0.247	-0.171
-150.618	26.225	0.222	0.183
-149.604	800.000	-0.031	0.102
-148.589	800.000	-0.057	0.159
-147.574	321.743	-0.151	-0.283
-146.560	-115.526	0.033	0.006
-145.545	-200.000	-0.010	0.121
-144.531	175.561	0.197	-0.281
-143.516	-200.000	0.019	0.125
-142.502	-200.000	0.025	0.195
-141.487	4.162	-0.186	-0.134
-140.472	81.631	-0.081	-0.086
-139.458	92.699	-0.313	-0.347
-138.443	-123.187	0.187	0.029
-137.429	79.686	-0.145	-0.153
-136.414	-200.000	-0.007	-0.189
-135.399	800.000	-0.057	0.202
-134.385	-15.904	-0.113	-0.071
-133.370	-77.960	0.173	0.059
-132.356	-53.956	0.220	-0.098
-131.341	113.047	-0.083	0.099
-130.326	-200.000	0.024	0.188
-129.312	800.000	0.042	0.129
-128.297	-26.966	-0.338	-0.194
-127.283	-200.000	-0.001	-0.314
-126.268	-139.686	0.261	0.027
-125.253	154.489	-0.207	0.279
-124.239	392.094	0.044	-0.089
-123.224	446.007	0.015	0.033
-122.210	-200.000	-0.023	-0.280
-121.195	800.000	-0.047	-0.141
-120.180	123.346	0.116	0.142
-119.166	58.176	-0.126	0.121
-118.151	-200.000	-0.007	0.431
-117.137	-200.000	0.016	0.259
-116.122	506.350	0.044	-0.099
-115.107	-32.885	0.336	-0.183
-114.093	-26.395	0.114	0.066
-113.078	168.398	0.137	0.192
-112.064	-200.000	-0.078	-0.376
-111.049	376.067	0.130	-0.261
-110.034	-200.000	-0.000	0.057
-109.020	800.000	-0.095	0.301
-108.005	594.798	0.050	0.121
-106.991	-49.162	-0.175	0.082
-105.976	-114.352	0.441	-0.083
-104.962	659.304	0.003	-0.007
-103.947	-113.915	-0.052	0.010
-102.932	127.587	-0.210	0.262
-101.918	30.443	0.309	-0.259
-100.903	-57.291	0.321	0.138
-99.889	-200.000	-0.038	0.565
-98.874	522.978	0.076	0.176
-97.859	-163.351	0.163	0.008
-96.845	-75.645	0.190	-0.066
-95.830	-94.954	-0.216	-0.057
-94.816	800.000	-0.055	0.220
-93.801	-87.623	-0.225	0.067
-92.786	-176.494	0.243	-0.006
-91.772	800.000	0.019	-0.057
-90.757	55.004	0.156	0.148
-89.743	226.833	0.179	-0.284
-88.728	-77.188	-0.200	0.068
-87.713	480.178	-0.026	-0.058
-86.699	31.821	-0.232	0.196
-85.684	227.118	-0.111	0.177
-84.670	355.983	-0.078	0.152
-83.655	-200.000	-0.024	0.156
-82.640	182.247	0.090	0.130
-81.626	-200.000	0.112	-0.492
-80.611	269.411	0.052	0.089
-79.597	342.369	0.094	0.180
-78.582	-57.592	-0.423	0.182
-77.567	144.653	-0.130	0.170
-76.553	48.986	-0.138	0.127
-75.538	-126.492	0.055	-0.008
-74.524	-200.000	0.061	0.573
-73.509	800.000	0.050	-0.173
-72.494	105.058	0.091	0.105
-71.480	73.288	0.141	0.145
-70.465	-18.527	-0.169	0.103
-69.451	24.648	-0.082	0.066
-68.436	-200.000	0.047	0.317
-67.422	717.146	-0.156	-0.407
-66.407	-96.970	-0.537	-0.138
-65.392	351.586	0.062	-0.120
-64.378	126.214	-0.242	0.300
-63.363	-91.642	-0.091	-0.025
-62.349	800.000	-0.022	0.071
-61.334	103.373	-0.849	-0.975
-60.319	180.837	0.366	0.527
-59.305	352.614	-0.595	-1.156
-58.290	224.244	0.765	1.211
-57.276	800.000	0.527	1.821
-56.261	-200.000	115.110	649.420
-55.246	468.012	1511.179	3319.611
-54.232	147.351	2673.600	3524.690
-53.217	102.930	2151.128	2466.828
-52.203	38.700	1599.135	1397.390
-51.188	30.612	1345.614	1127.027
-50.173	27.778	1307.992	1078.752
-49.159	55.470	1363.237	1291.864
-48.144	54.064	1377.544	1296.928
-47.130	30.978	1333.309	1118.741
-46.115	27.545	1315.738	1083.581
-45.100	27.444	1310.549	1078.668
-44.086	27.279	1308.211	1075.722
-43.071	27.262	1306.087	1073.834
-42.057	27.228	1303.940	1071.824
-41.042	27.282	1302.215	1070.686
-40.027	27.251	1300.570	1069.106
-39.013	27.246	1298.722	1067.514
-37.998	27.230	1297.089	1066.038
-36.984	27.205	1295.542	1064.578
-35.969	27.390	1293.338	1063.803
-34.954	27.404	1291.483	1062.319
-33.940	27.442	1290.634	1061.799
-32.925	27.460	1288.918	1060.451
-31.911	27.480	1287.248	1059.151
-30.896	27.463	1286.267	1058.202
-29.881	27.551	1284.722	1057.399
-28.867	27.491	1283.270	1055.816
-27.852	27.425	1281.873	1054.243
-26.838	27.462	1280.974	1053.675
-25.823	27.495	1279.034	1052.231
-24.809	27.519	1277.713	1051.239
-23.794	27.420	1276.509	1049.634
-22.779	27.332	1275.568	1048.313
-21.765	27.462	1273.767	1047.540
-20.750	27.490	1272.803	1046.864
-19.736	27.344	1271.625	1045.018
-18.721	27.255	1270.510	1043.545
-17.706	27.380	1268.900	1042.901
-16.692	27.391	1268.055	1042.230
-15.677	27.369	1267.101	1041.279
-14.663	27.266	1266.079	1039.809
-13.648	27.294	1264.795	1038.873
-12.633	27.424	1263.528	1038.529
-11.619	27.404	1262.902	1037.858
-10.604	27.315	1261.917	1036.503
-9.590	27.293	1261.454	1035.959
-8.575	27.359	1260.222	1035.280
-7.560	27.303	1259.036	1033.944
-6.546	27.295	1258.470	1033.393
-5.531	27.328	1257.421	1032.676
-4.517	27.257	1256.545	1031.515
-3.502	27.412	1255.987	1031.896
-2.487	27.370	1254.676	1030.538
-1.473	27.310	1250.615	1026.825
-0.458	25.751	1235.526	1005.695
0.556	20.771	1218.856	967.974
1.571	17.060	1225.306	952.229
2.586	16.346	1239.561	959.169
3.600	16.491	1228.690	951.491
4.615	15.155	1162.454	893.000
5.629	12.371	1096.343	828.122
6.644	10.857	1079.879	808.094
7.659	10.794	1077.526	805.951
8.673	10.669	1076.802	804.717
9.688	10.770	1075.061	803.843
10.702	10.823	1073.215	802.653
11.717	12.494	1074.692	811.948
12.731	15.383	1078.476	829.028
13.746	17.439	1080.957	841.035
14.761	17.621	1079.935	841.064
15.775	16.664	1078.498	835.151
16.790	15.611	1075.916	827.890
17.804	14.877	1074.429	823.060
18.819	14.375	1073.464	819.781
19.834	14.121	1072.417	817.659
20.848	13.820	1071.631	815.510
21.863	13.652	1070.569	813.803
22.877	13.614	1069.470	812.709
23.892	13.550	1068.968	811.940
24.907	13.666	1068.392	812.001
25.921	13.608	1067.054	810.626
26.936	13.521	1065.817	809.194
27.950	13.561	1064.800	808.542
28.965	13.659	1063.046	807.618
29.980	13.617	1061.842	806.426
30.994	13.743	1060.569	806.000
32.009	13.789	1058.910	804.891
33.023	13.764	1058.115	804.099
34.038	13.692	1057.046	802.863
35.053	13.582	1056.863	802.120
36.067	13.745	1055.398	801.728
37.082	13.700	1054.739	800.936
38.096	13.754	1053.960	800.537
39.111	13.794	1053.121	800.021
40.126	13.635	1051.828	798.201
41.140	13.599	1050.497	796.946
42.155	13.533	1049.492	795.797
43.169	13.576	1048.258	794.996
44.184	13.431	1047.232	793.454
45.199	13.466	1046.174	792.750
46.213	13.627	1044.755	792.374
47.228	13.593	1044.243	791.753
48.242	13.751	1042.747	791.305
49.257	13.529	1042.016	789.618
50.271	13.558	1041.214	789.082
51.286	13.625	1040.470	788.768
52.301	13.689	1039.296	788.110
53.315	13.593	1038.135	786.706
54.330	13.489	1036.794	785.128
55.344	13.568	1036.476	785.192
56.359	13.635	1035.400	784.621
57.374	13.457	1034.902	783.336
58.388	13.464	1033.739	782.419
59.403	13.555	1032.481	781.825
60.417	13.486	1031.461	780.659
61.432	13.438	1031.279	780.223
62.447	13.405	1030.105	779.113
63.461	13.447	1029.512	778.794
64.476	13.447	1028.400	777.884
65.490	13.344	1027.792	776.871
66.505	13.599	1026.928	777.345
67.520	13.526	1026.295	776.457
68.534	13.482	1025.909	775.889
69.549	13.463	1024.841	774.921
70.563	13.421	1024.143	774.131
71.578	13.452	1023.185	773.483
72.593	13.363	1022.561	772.528
73.607	13.381	1021.990	772.111
74.622	13.190	1021.828	771.028
75.636	13.442	1020.452	771.097
76.651	13.389	1019.971	770.416
77.666	13.386	1019.594	770.053
78.680	13.441	1018.825	769.660
79.695	13.453	1018.202	769.175
80.709	13.485	1017.227	768.519
81.724	13.510	1016.736	768.194
82.739	13.588	1016.079	767.993
83.753	13.638	1015.322	767.586
84.768	13.716	1014.481	767.240
85.782	13.831	1013.716	767.126
86.797	13.668	1012.888	765.678
87.812	13.634	1011.559	764.451
88.826	13.586	1010.922	763.680
89.841	13.585	1010.076	762.971
90.855	13.811	1008.693	762.896
91.870	13.823	1007.850	762.246
92.884	13.725	1007.650	761.577
93.899	13.793	1006.233	760.752
94.914	13.780	1005.814	760.309
95.928	13.710	1005.230	759.479
96.943	13.680	1004.359	758.614
97.957	13.730	1003.193	757.894
98.972	13.809	1002.040	757.320
99.987	13.705	1001.659	756.488
101.001	13.725	1000.458	755.607
102.016	13.692	999.396	754.587
103.030	13.797	998.416	754.255
104.045	13.697	997.799	753.271
105.060	13.715	996.899	752.608
106.074	13.705	995.954	751.779
107.089	13.536	994.793	750.071
108.103	13.388	994.253	748.931
109.118	13.487	993.042	748.397
110.133	13.479	992.200	747.659
111.147	13.494	991.671	747.264
112.162	13.608	990.353	746.721
113.176	13.582	989.906	746.200
114.191	13.705	989.056	746.045
115.206	13.707	987.794	745.035
116.220	13.599	987.243	744.070
117.235	13.630	986.193	743.353
118.249	13.583	985.592	742.620
119.264	13.575	984.590	741.766
120.279	13.415	984.356	740.807
121.293	13.646	982.879	740.662
122.308	13.585	982.087	739.730
123.322	13.491	980.991	738.418
124.337	13.526	980.043	737.794
125.352	13.579	978.512	736.812
126.366	13.604	977.478	736.081
127.381	13.544	976.734	735.189
128.395	13.640	976.049	735.033
129.410	13.601	974.787	733.847
130.424	13.678	974.387	733.819
131.439	13.648	973.515	732.964
132.454	13.762	972.585	732.704
133.468	13.663	971.797	731.611
134.483	13.622	971.063	730.809
135.497	13.574	970.014	729.744
136.512	13.733	968.804	729.469
137.527	13.623	968.436	728.644
138.541	13.653	967.837	728.261
139.556	13.740	966.932	727.898
140.570	13.715	966.690	727.542
141.585	13.865	965.794	727.459
142.600	13.816	964.673	726.337
143.614	13.865	964.103	726.059
144.629	13.775	963.240	724.949
145.643	13.818	962.832	724.768
146.658	13.822	961.552	723.757
147.673	13.830	960.375	722.840
148.687	13.819	959.552	722.111
149.702	13.746	958.814	721.172
150.716	13.841	957.704	720.689
151.731	13.712	957.168	719.662
152.746	13.730	956.921	719.490
153.760	13.730	956.117	718.822
154.775	13.911	955.144	718.810
155.789	13.930	954.850	718.609
156.804	13.859	953.690	717.364
157.819	13.985	953.081	717.386
158.833	13.893	952.614	716.573
159.848	13.897	951.963	716.037
160.862	14.026	950.623	715.522
161.877	13.811	949.504	713.692
162.892	13.802	948.711	712.994
163.906	13.790	947.601	712.048
164.921	13.804	947.369	711.867
165.935	13.803	946.231	710.944
166.950	13.911	945.280	710.630
167.964	13.939	944.086	709.789
168.979	13.952	943.360	709.235
169.994	13.919	942.498	708.384
171.008	14.090	941.815	708.538
172.023	14.032	941.398	707.914
173.037	13.971	940.816	707.156
174.052	14.087	939.880	706.880
175.067	14.051	938.917	705.944
176.081	13.852	939.036	705.124
177.096	14.025	938.139	705.122
178.110	14.007	937.503	704.506
179.125	14.070	936.704	704.109
180.140	14.007	936.434	703.576
181.154	14.134	935.897	703.649
182.169	14.227	935.473	703.662
183.183	14.235	934.882	703.189
184.198	14.105	933.969	701.892
185.213	14.098	933.395	701.369
186.227	14.222	932.709	701.312
187.242	14.224	931.962	700.696
188.256	14.266	931.351	700.352
189.271	14.293	930.674	699.897
190.286	14.144	929.859	698.594
191.300	14.115	928.724	697.558
192.315	14.009	928.536	696.912
193.329	14.000	927.829	696.281
194.344	14.003	927.317	695.848
195.359	14.219	926.316	695.940
196.373	14.175	925.898	695.379
197.388	14.297	925.618	695.619
198.402	14.400	924.848	695.406
199.417	14.407	924.248	694.922
200.432	14.454	923.844	694.753
201.446	14.557	923.179	694.621
202.461	14.568	922.892	694.391
203.475	14.486	922.667	693.817
204.490	14.440	921.264	692.512
205.504	14.413	920.919	692.079
206.519	14.633	919.354	691.752
207.534	14.440	919.267	690.826
208.548	14.408	918.546	690.089
209.563	14.414	918.069	689.697
210.577	14.393	917.404	689.049
211.592	14.523	916.461	688.815
212.607	14.550	915.750	688.332
213.621	14.515	915.169	687.688
214.636	14.605	914.423	687.441
215.650	14.627	913.817	687.013
216.665	14.682	913.137	686.668
217.680	14.686	912.462	686.115
218.694	14.750	911.383	685.506
219.709	14.662	911.367	685.073
220.723	14.655	910.617	684.418
221.738	14.738	909.538	683.887
222.753	14.696	909.001	683.250
223.767	14.872	908.269	683.361
224.782	14.900	907.856	683.103
225.796	14.758	907.493	682.190
226.811	14.907	906.755	682.182
227.826	14.830	905.963	681.212
228.840	14.813	905.284	680.571
229.855	14.798	904.437	679.814
230.869	14.869	903.405	679.269
231.884	14.742	902.898	678.310
232.899	14.838	902.205	678.119
233.913	14.779	901.402	677.215
234.928	14.742	901.169	676.834
235.942	14.778	900.489	676.408
236.957	14.735	900.048	675.843
237.972	14.844	898.973	675.416
238.986	14.790	898.527	674.803
240.001	14.706	897.891	673.925
241.015	14.940	897.051	674.178
242.030	15.033	896.570	674.133
243.045	14.918	896.257	673.373
244.059	14.916	895.391	672.657
245.074	14.950	894.981	672.426
246.088	15.004	894.126	671.941
247.103	15.096	893.030	671.426
248.117	14.940	893.616	671.180
249.132	15.181	892.671	671.380
250.147	15.217	892.087	671.023
251.161	15.382	891.191	670.952
252.176	15.299	890.556	670.080
253.190	15.327	889.931	669.665
254.205	15.449	889.268	669.591
255.220	15.216	888.776	668.235
256.234	15.369	887.906	668.129
257.249	15.387	887.447	667.798
258.263	15.268	886.305	666.407
259.278	15.399	886.041	666.668
260.293	15.494	885.548	666.615
261.307	15.462	884.893	665.935
262.322	15.684	883.818	665.949
263.336	15.572	883.407	665.138
264.351	15.466	882.935	664.301
265.366	15.524	881.892	663.689
266.380	15.558	881.784	663.681
267.395	15.498	880.748	662.608
268.409	15.448	879.831	661.662
269.424	15.510	879.230	661.394
270.439	15.541	878.414	660.847
271.453	15.561	877.460	660.147
272.468	15.524	877.643	660.082
273.482	15.586	876.806	659.638
274.497	15.558	876.446	659.196
275.512	15.491	875.742	658.347
276.526	15.513	875.778	658.404
277.541	15.540	875.073	657.918
278.555	15.613	874.611	657.802
279.570	15.724	873.581	657.403
280.585	15.830	872.377	656.851
281.599	15.677	871.785	655.751
282.614	15.701	871.342	655.451
283.628	15.634	871.233	655.053
284.643	15.728	870.216	654.594
285.657	15.834	869.453	654.373
286.672	15.753	869.017	653.675
287.687	15.864	868.232	653.458
288.701	15.801	867.676	652.734
289.716	15.784	867.179	652.239
290.730	15.821	866.925	652.134
291.745	15.851	865.917	651.433
292.760	15.939	865.349	651.287
293.774	15.872	864.919	650.650
294.789	15.881	864.287	650.151
295.803	15.884	863.428	649.459
296.818	15.861	862.886	648.904
297.833	15.839	862.104	648.173
298.847	15.866	861.817	648.005
299.862	15.995	861.259	648.024
300.876	15.936	860.628	647.266
301.891	15.969	859.969	646.840
302.906	15.997	859.655	646.652
303.920	16.261	858.941	647.070
304.935	16.182	858.363	646.276
305.949	16.199	857.551	645.671
306.964	16.143	857.006	644.989
307.979	16.266	856.355	644.912
308.993	16.359	855.793	644.787
310.008	16.157	855.472	643.717
311.022	16.164	854.996	643.330
312.037	16.064	854.358	642.413
313.052	16.074	853.464	641.720
314.066	16.058	852.905	641.183
315.081	16.230	852.595	641.547
316.095	16.093	851.979	640.507
317.110	16.158	851.499	640.337
318.125	15.980	851.018	639.240
319.139	16.102	850.756	639.451
320.154	16.151	849.928	638.959
321.168	16.226	849.012	638.496
322.183	16.272	848.519	638.243
323.197	16.180	848.275	637.655
324.212	16.285	847.430	637.361
325.227	16.269	847.222	637.088
326.241	16.337	846.568	636.795
327.256	16.363	845.863	636.306
328.270	16.145	845.687	635.296
329.285	16.275	845.196	635.362
330.300	16.259	844.448	634.682
331.314	16.201	844.025	634.088
332.329	16.373	843.255	634.102
333.343	16.265	843.148	633.561
334.358	16.355	842.738	633.534
335.373	16.310	842.543	633.160
336.387	16.432	841.776	632.984
337.402	16.551	841.674	633.297
338.416	16.590	840.998	632.881
339.431	16.587	840.684	632.579
340.446	16.546	840.477	632.211
341.460	16.582	839.896	631.855
342.475	16.727	839.457	632.010
343.489	16.616	839.070	631.247
344.504	16.622	838.608	630.868
345.519	16.852	837.779	631.042
346.533	16.703	837.452	630.186
347.548	16.675	836.733	629.486
348.562	16.616	836.347	628.918
349.577	16.577	835.825	628.325
350.592	16.608	835.203	627.919
351.606	16.596	834.953	627.629
352.621	16.714	833.774	627.124
353.635	16.778	833.090	626.794
354.650	16.791	832.372	626.245
355.665	16.706	831.714	625.382
356.679	16.689	831.286	624.940
357.694	16.838	830.585	624.907
358.708	16.747	829.967	624.054
359.723	16.954	829.235	624.208
360.738	16.897	828.451	623.355
361.752	16.928	828.468	623.426
362.767	16.882	827.751	622.660
363.781	16.949	827.187	622.427
364.796	16.955	827.032	622.278
365.810	17.135	826.468	622.458
366.825	17.104	825.821	621.802
367.840	17.060	825.613	621.431
368.854	17.029	825.338	621.055
369.869	17.042	824.695	620.563
370.883	17.002	824.394	620.137
371.898	17.099	823.955	620.106
372.913	16.973	824.051	619.663
373.927	17.118	823.237	619.525
374.942	17.190	822.641	619.285
375.956	17.254	822.006	618.984
376.971	17.490	821.357	619.299
377.986	17.385	821.189	618.736
379.000	17.359	820.633	618.168
380.015	17.349	820.087	617.666
381.029	17.302	819.613	617.083
382.044	17.347	819.112	616.816
383.059	17.377	818.512	616.416
384.073	17.397	818.282	616.263
385.088	17.340	817.269	615.239
386.102	17.336	817.054	615.009
387.117	17.359	816.317	614.481
388.132	17.362	815.468	613.799
389.146	17.337	815.034	613.327
390.161	17.402	814.722	613.271
391.175	17.256	814.394	612.447
392.190	17.448	813.681	612.545
393.205	17.268	813.081	611.395
394.219	17.311	812.993	611.426
395.234	17.332	812.439	611.031
396.248	17.433	811.999	611.010
397.263	17.196	811.900	610.031
398.278	17.370	811.276	610.133
399.292	17.193	811.085	609.300
400.307	17.360	810.386	609.318
401.321	17.330	809.923	608.809
402.336	17.488	809.433	608.954
403.350	17.360	809.271	608.319
404.365	17.456	808.641	608.133
405.380	17.498	807.840	607.629
406.394	17.572	807.447	607.542
407.409	17.562	807.163	607.239
408.423	17.707	806.784	607.419
409.438	17.753	806.312	607.174
410.453	17.762	805.728	606.710
411.467	17.707	805.368	606.190
412.482	17.767	805.312	606.307
413.496	17.913	804.682	606.298
414.511	17.812	804.282	605.585
415.526	17.850	803.829	605.324
416.540	17.949	803.175	605.128
417.555	17.818	802.914	604.416
418.569	17.827	802.506	604.086
419.584	17.823	802.545	604.050
420.599	17.853	801.937	603.645
421.613	111.738	1294.631	1477.038
422.628	96.323	1366.393	1477.142
