DTS Sentinel unit serial number:	SN413079Multiplexer serial number:	ORYXHardware model number:	OX4-SRSoftware version number:	ORYX F/W v4.00 Oryx Data Collector v3.7.2.0data status	okinstallation	princeton_trtdifferential loss correction	single-endedforward channel	channel 1reverse channel	N/Adate	2019/09/12time	05:12:11forward acquisition time	60.00reverse acquisition time	0.00gamma	496.2192k internal	0.2322k external	0.2322temperature offset calibration	1.0047default loss term (dB/km)	0.3790temperature slope calibration	1.0000multiplexer offset coefficient	1.0000multiplexer slope coefficient	1.0000fibre end	0.00T internal ref (°C)	31.81T ext. ref 1 (°C)	1.63T ext. ref 2 (°C)	27.25length (m)	temperature (°C)	Stokes	anti-Stokes-747.200	-192.425	-0.154	0.001
-746.185	15.425	0.258	0.204
-745.171	-200.000	-0.034	0.223
-744.156	-59.398	-0.140	0.061
-743.142	800.000	0.017	-0.066
-742.127	25.498	0.069	0.058
-741.112	-193.893	0.213	-0.002
-740.098	-89.411	0.381	0.113
-739.083	-116.708	0.150	-0.028
-738.069	7.398	-0.105	0.079
-737.054	60.175	-0.071	0.071
-736.039	443.097	-0.090	-0.199
-735.025	-200.000	0.074	0.506
-734.010	-37.312	-0.278	-0.150
-732.996	-67.549	-0.339	-0.134
-731.981	10.847	0.048	-0.037
-730.966	144.917	0.118	-0.159
-729.952	-142.892	-0.237	0.023
-728.937	-112.223	-0.251	-0.051
-727.923	-200.000	0.026	-0.123
-726.908	-200.000	-0.027	-0.682
-725.894	665.700	0.058	-0.152
-724.879	-121.206	0.532	0.090
-723.864	-200.000	0.064	-0.368
-722.850	-42.887	0.280	-0.143
-721.835	-200.000	0.027	0.161
-720.821	599.737	0.044	0.111
-719.806	-76.268	-0.176	-0.062
-718.791	327.776	-0.100	-0.194
-717.777	800.000	-0.028	0.091
-716.762	800.000	-0.086	0.276
-715.748	-41.550	-0.195	0.101
-714.733	-57.732	0.413	-0.183
-713.718	-200.000	0.039	-0.344
-712.704	14.235	-0.179	0.141
-711.689	329.543	-0.021	0.041
-710.675	42.640	-0.378	-0.347
-709.660	-62.564	-0.135	-0.057
-708.645	-50.269	-0.153	-0.073
-707.631	-177.517	0.206	0.005
-706.616	-119.697	-0.123	0.022
-705.602	-200.000	-0.005	0.382
-704.587	374.521	-0.139	0.285
-703.572	-200.000	0.024	0.317
-702.558	800.000	0.066	0.256
-701.543	439.997	0.080	-0.175
-700.529	129.102	-0.103	-0.133
-699.514	-41.694	0.291	0.151
-698.499	-47.451	0.252	0.124
-697.485	-142.113	-0.146	-0.015
-696.470	-0.027	-0.349	0.251
-695.456	-127.815	0.132	0.019
-694.441	-200.000	0.014	0.141
-693.426	-200.000	0.005	0.120
-692.412	324.133	-0.083	0.160
-691.397	16.280	0.086	-0.068
-690.383	-86.548	-0.339	-0.105
-689.368	-91.677	-0.061	0.017
-688.354	-200.000	-0.007	-0.164
-687.339	106.637	0.237	-0.283
-686.324	-104.108	-0.173	-0.041
-685.310	60.808	-0.172	0.172
-684.295	16.227	-0.215	-0.171
-683.281	-73.036	0.338	-0.125
-682.266	518.573	-0.015	-0.036
-681.251	-117.965	-0.328	-0.059
-680.237	-200.000	0.075	-0.399
-679.222	-200.000	0.007	0.056
-678.208	-200.000	0.061	0.315
-677.193	800.000	-0.080	-0.300
-676.178	-174.384	0.168	0.005
-675.164	800.000	0.117	-0.345
-674.149	-11.784	0.162	-0.107
-673.135	-200.000	-0.075	0.409
-672.120	65.165	-0.208	-0.212
-671.105	-63.537	0.375	0.155
-670.091	414.080	0.127	0.273
-669.076	182.005	-0.150	0.222
-668.062	-94.964	-0.111	-0.030
-667.047	-144.017	-0.158	-0.015
-666.032	513.757	0.093	-0.218
-665.018	800.000	0.088	-0.334
-664.003	749.396	-0.043	-0.116
-662.989	147.898	0.169	-0.230
-661.974	355.444	-0.238	-0.476
-660.959	-74.376	0.324	0.118
-659.945	-199.796	0.179	-0.001
-658.930	-166.806	-0.081	-0.003
-657.916	102.240	0.151	0.178
-656.901	167.640	-0.141	0.202
-655.886	-200.000	0.030	-0.174
-654.872	0.440	-0.048	-0.034
-653.857	427.773	0.031	0.067
-652.843	-84.463	0.478	-0.152
-651.828	-87.909	0.190	-0.057
-650.814	154.417	0.181	0.250
-649.799	282.659	0.050	0.090
-648.784	-24.442	0.170	0.102
-647.770	118.199	-0.112	0.139
-646.755	-64.326	0.117	-0.048
-645.741	172.346	0.052	-0.075
-644.726	-182.227	-0.195	-0.004
-643.711	-129.028	0.498	-0.070
-642.697	75.369	-0.048	-0.051
-641.682	-48.194	0.126	-0.061
-640.668	-200.000	0.094	-0.476
-639.653	-43.657	0.306	0.155
-638.638	-80.150	-0.085	-0.029
-637.624	90.885	-0.104	0.117
-636.609	46.794	-0.068	-0.064
-635.595	-100.307	-0.133	0.033
-634.580	0.773	-0.107	-0.077
-633.565	46.021	-0.057	0.053
-632.551	126.390	0.066	-0.084
-631.536	-9.895	-0.187	0.125
-630.522	-78.187	0.110	0.038
-629.507	800.000	0.043	0.161
-628.492	-200.000	-0.008	0.279
-627.478	439.307	0.069	-0.151
-626.463	-200.000	0.041	-0.207
-625.449	-83.829	-0.188	0.060
-624.434	-200.000	0.040	0.328
-623.419	800.000	0.028	-0.091
-622.405	413.430	0.122	-0.262
-621.390	800.000	-0.114	0.439
-620.376	366.047	0.071	0.143
-619.361	-200.000	0.031	0.268
-618.346	-22.687	-0.119	0.072
-617.332	33.045	0.328	-0.286
-616.317	23.501	-0.296	-0.245
-615.303	-98.252	0.252	0.065
-614.288	4.954	0.148	0.110
-613.273	-186.140	0.143	-0.002
-612.259	-106.591	0.093	-0.021
-611.244	-59.155	0.195	0.084
-610.230	-200.000	-0.001	0.038
-609.215	-145.443	0.337	-0.030
-608.201	-9.036	0.178	-0.120
-607.186	800.000	-0.066	-0.197
-606.171	-30.678	0.155	0.088
-605.157	-200.000	0.004	-0.184
-604.142	60.415	-0.112	-0.111
-603.128	-179.491	-0.255	0.006
-602.113	-91.309	0.278	-0.080
-601.098	-18.605	0.190	0.119
-600.084	77.202	-0.289	0.309
-599.069	-200.000	0.019	0.265
-598.055	788.674	0.021	0.058
-597.040	-46.997	-0.111	-0.055
-596.025	-23.669	-0.276	0.166
-595.011	168.698	0.087	-0.125
-593.996	88.855	0.071	-0.080
-592.982	-166.457	-0.399	0.017
-591.967	218.758	0.153	0.245
-590.952	7.366	-0.225	0.169
-589.938	-69.863	0.256	0.098
-588.923	800.000	0.093	0.349
-587.909	121.713	0.100	-0.125
-586.894	-142.813	-0.462	0.045
-585.879	50.951	0.242	0.231
-584.865	293.947	0.205	-0.375
-583.850	-148.881	-0.172	0.014
-582.836	-157.812	-0.109	0.007
-581.821	-14.719	-0.323	-0.208
-580.806	321.222	0.035	0.066
-579.792	-33.422	-0.254	-0.141
-578.777	800.000	-0.053	0.203
-577.763	294.578	-0.088	-0.162
-576.748	129.089	0.086	0.111
-575.733	115.701	-0.177	-0.217
-574.719	-12.690	0.115	-0.075
-573.704	692.013	-0.012	-0.032
-572.690	211.802	0.079	0.125
-571.675	800.000	0.016	0.047
-570.661	33.910	-0.190	-0.166
-569.646	-200.000	-0.069	0.459
-568.631	-133.150	0.282	0.036
-567.617	-200.000	0.005	0.241
-566.602	800.000	-0.092	-0.276
-565.588	-12.300	-0.057	-0.038
-564.573	72.619	0.304	0.318
-563.558	63.822	0.350	0.352
-562.544	-120.603	0.229	-0.039
-561.529	169.607	0.240	0.343
-560.515	-65.520	0.346	0.139
-559.500	-176.709	-0.225	-0.006
-558.485	198.129	-0.096	0.147
-557.471	-98.941	-0.138	-0.035
-556.456	-103.528	-0.052	-0.012
-555.442	-49.448	0.484	0.232
-554.427	-200.000	0.008	-0.075
-553.412	161.223	0.186	-0.261
-552.398	-200.000	0.023	0.159
-551.383	-200.000	0.019	0.206
-550.369	18.171	-0.302	0.241
-549.354	-115.366	0.238	-0.045
-548.339	59.113	0.164	0.162
-547.325	-200.000	0.017	-0.305
-546.310	501.964	0.123	-0.284
-545.296	150.349	0.057	0.078
-544.281	220.451	-0.184	0.296
-543.266	-200.000	0.007	0.210
-542.252	-25.953	-0.194	0.114
-541.237	-14.916	-0.171	-0.110
-540.223	30.890	-0.086	0.074
-539.208	227.020	0.062	-0.101
-538.193	-200.000	-0.007	-0.238
-537.179	-15.443	-0.043	0.027
-536.164	257.807	-0.128	0.221
-535.150	-74.370	-0.387	-0.140
-534.135	-200.000	0.041	0.262
-533.121	-200.000	-0.005	0.069
-532.106	-164.243	0.100	-0.005
-531.091	-150.555	0.251	-0.019
-530.077	-200.000	0.014	-0.090
-529.062	199.095	-0.159	-0.244
-528.048	-200.000	0.024	-0.416
-527.033	203.356	0.064	-0.100
-526.018	-70.442	0.329	-0.125
-525.004	128.523	-0.269	-0.344
-523.989	226.066	-0.089	0.144
-522.975	182.853	-0.088	-0.131
-521.960	-45.578	-0.192	0.095
-520.945	60.757	-0.189	-0.188
-519.931	-101.732	0.199	0.048
-518.916	-123.781	-0.238	0.038
-517.902	189.190	-0.140	0.209
-516.887	-92.057	0.141	-0.040
-515.872	228.208	-0.052	-0.085
-514.858	66.900	-0.245	0.250
-513.843	130.090	-0.161	-0.207
-512.829	-129.353	-0.290	-0.040
-511.814	146.538	-0.106	-0.142
-510.799	33.755	-0.259	-0.225
-509.785	-200.000	-0.046	0.284
-508.770	-69.219	-0.298	0.115
-507.756	114.920	-0.118	-0.144
-506.741	-13.846	0.218	-0.141
-505.726	-43.838	-0.141	0.071
-504.712	-200.000	-0.010	-0.292
-503.697	800.000	0.071	-0.289
-502.683	-200.000	-0.002	-0.070
-501.668	29.803	0.081	0.069
-500.653	-200.000	-0.080	-0.604
-499.639	56.933	-0.199	-0.194
-498.624	1.534	-0.183	0.132
-497.610	299.360	-0.094	0.173
-496.595	-54.606	0.116	-0.052
-495.581	-101.342	-0.490	0.119
-494.566	57.752	0.232	-0.227
-493.551	-200.000	0.013	0.141
-492.537	57.186	-0.121	0.118
-491.522	-8.231	-0.077	0.052
-490.508	800.000	-0.047	-0.201
-489.493	-35.569	-0.075	0.041
-488.478	49.881	-0.257	-0.242
-487.464	-45.716	-0.070	-0.035
-486.449	-69.917	-0.209	-0.080
-485.435	-16.466	0.136	-0.086
-484.420	-139.568	-0.217	-0.023
-483.405	-4.379	0.048	-0.033
-482.391	-200.000	0.035	-0.212
-481.376	112.566	-0.133	0.161
-480.362	594.827	-0.075	-0.185
-479.347	-41.495	0.011	0.006
-478.332	32.212	0.103	-0.089
-477.318	243.280	0.031	0.052
-476.303	-142.030	-0.261	0.026
-475.289	-200.000	-0.015	-0.426
-474.274	-162.859	0.237	-0.012
-473.259	800.000	-0.035	-0.113
-472.245	-200.000	-0.055	-0.352
-471.230	-87.695	-0.048	0.015
-470.216	-63.795	0.054	0.022
-469.201	459.197	-0.068	-0.152
-468.186	-85.989	-0.290	-0.090
-467.172	-90.015	-0.286	0.083
-466.157	61.800	0.255	0.253
-465.143	-200.000	0.070	-0.321
-464.128	-200.000	-0.033	0.421
-463.113	-188.121	-0.335	0.004
-462.099	-200.000	-0.017	-0.100
-461.084	-124.951	-0.173	0.027
-460.070	20.956	0.355	0.287
-459.055	-101.934	-0.261	0.063
-458.040	-79.945	0.122	0.041
-457.026	-62.065	-0.364	0.152
-456.011	800.000	-0.018	-0.075
-454.997	800.000	-0.061	-0.238
-453.982	-7.005	0.103	0.070
-452.968	-58.262	-0.339	-0.148
-451.953	-105.038	-0.141	-0.032
-450.938	409.143	-0.065	-0.137
-449.924	-73.058	0.091	-0.033
-448.909	800.000	-0.095	-0.294
-447.895	248.731	-0.041	-0.070
-446.880	-106.974	-0.378	0.083
-445.865	708.794	-0.055	-0.147
-444.851	-98.122	0.236	0.061
-443.836	800.000	0.081	-0.304
-442.822	595.094	0.129	-0.319
-441.807	117.893	0.137	-0.168
-440.792	-56.539	0.246	-0.109
-439.778	-182.245	0.385	0.007
-438.763	-93.257	-0.239	0.066
-437.749	-200.000	0.050	0.251
-436.734	27.190	-0.234	0.196
-435.719	-200.000	0.084	-0.409
-434.705	-200.000	0.005	0.244
-433.690	-178.474	0.335	0.008
-432.676	-170.046	0.193	-0.007
-431.661	479.592	0.201	0.455
-430.646	201.346	0.130	0.199
-429.632	-116.868	-0.512	-0.094
-428.617	-48.438	0.218	-0.105
-427.603	161.509	0.162	0.226
-426.588	-200.000	-0.048	0.298
-425.573	265.084	0.143	-0.249
-424.559	800.000	-0.062	-0.251
-423.544	350.516	-0.136	-0.269
-422.530	800.000	0.048	-0.155
-421.515	707.704	0.041	-0.107
-420.500	-113.629	-0.168	0.033
-419.486	-47.821	0.353	0.171
-418.471	348.199	-0.103	0.202
-417.457	-130.533	0.146	-0.020
-416.442	-200.000	0.056	-0.359
-415.428	-7.479	0.114	0.077
-414.413	-55.595	0.192	-0.086
-413.398	117.940	0.136	-0.167
-412.384	-33.278	-0.399	0.220
-411.369	-194.862	-0.130	-0.001
-410.355	203.246	0.060	-0.092
-409.340	391.075	0.011	-0.023
-408.325	589.662	-0.069	-0.171
-407.311	-62.980	0.190	-0.078
-406.296	-95.417	0.292	-0.078
-405.282	-127.866	-0.459	0.066
-404.267	-200.000	-0.066	-0.445
-403.252	-117.468	0.038	-0.007
-402.238	-200.000	0.005	0.189
-401.223	-37.914	-0.246	0.130
-400.209	-44.986	-0.284	-0.141
-399.194	134.574	0.111	-0.143
-398.179	-99.492	0.192	0.048
-397.165	-20.402	0.311	0.191
-396.150	29.699	0.163	-0.138
-395.136	472.289	-0.040	-0.090
-394.121	-200.000	-0.028	0.440
-393.106	-200.000	-0.027	0.181
-392.092	-200.000	0.037	-0.346
-391.077	800.000	0.137	0.378
-390.063	-67.054	-0.116	-0.046
-389.048	-17.642	-0.088	0.055
-388.033	-200.000	-0.006	0.380
-387.019	-117.423	0.105	-0.019
-386.004	48.262	0.122	0.114
-384.990	-155.044	-0.081	-0.005
-383.975	119.035	-0.058	-0.072
-382.960	-160.381	-0.235	-0.013
-381.946	800.000	-0.110	-0.334
-380.931	-36.553	0.365	0.195
-379.917	23.423	0.237	0.194
-378.902	79.974	0.240	0.257
-377.888	125.988	0.122	-0.154
-376.873	-124.021	-0.254	-0.040
-375.858	-21.864	0.252	-0.153
-374.844	38.317	-0.219	0.194
-373.829	68.340	-0.354	0.361
-372.815	362.914	-0.226	0.452
-371.800	-16.295	-0.275	-0.174
-370.785	-117.095	-0.105	0.019
-369.771	32.004	0.247	0.212
-368.756	31.581	-0.155	-0.133
-367.742	-71.398	-0.149	-0.056
-366.727	-200.000	0.011	-0.228
-365.712	-200.000	-0.002	0.240
-364.698	-200.000	-0.048	-0.286
-363.683	800.000	-0.092	-0.305
-362.669	-59.325	0.232	0.099
-361.654	-133.799	0.467	-0.058
-360.639	480.242	-0.121	0.272
-359.625	-42.864	-0.333	-0.168
-358.610	-51.796	-0.319	0.148
-357.596	28.320	0.236	-0.199
-356.581	109.771	-0.084	-0.100
-355.566	-200.000	-0.013	0.252
-354.552	315.140	0.330	0.619
-353.537	68.553	0.249	0.254
-352.523	-80.205	0.256	0.085
-351.508	285.011	0.150	0.269
-350.493	-142.866	-0.340	0.033
-349.479	-59.026	-0.341	0.146
-348.464	-200.000	0.023	-0.227
-347.450	11.983	-0.193	-0.148
-346.435	-20.083	-0.186	-0.114
-345.420	6.351	0.189	0.140
-344.406	115.621	-0.240	0.292
-343.391	289.337	0.224	-0.404
-342.377	35.658	-0.119	-0.104
-341.362	206.221	0.031	0.048
-340.348	-145.280	0.542	0.049
-339.333	9.607	0.203	-0.153
-338.318	248.435	0.225	-0.378
-337.304	-200.000	-0.006	0.114
-336.289	5.991	0.095	-0.070
-335.275	-85.482	-0.154	-0.048
-334.260	124.002	-0.063	0.079
-333.245	-200.000	-0.078	-0.398
-332.231	-169.305	-0.038	0.001
-331.216	-23.831	0.077	0.046
-330.202	-200.000	-0.032	0.232
-329.187	124.217	-0.195	0.243
-328.172	-72.262	0.192	0.071
-327.158	-97.468	-0.300	-0.078
-326.143	94.785	0.238	-0.269
-325.129	348.794	0.072	-0.141
-324.114	532.889	-0.052	-0.123
-323.099	-19.701	0.140	-0.086
-322.085	221.237	-0.027	-0.043
-321.070	10.997	-0.138	0.105
-320.056	100.299	0.157	0.181
-319.041	-185.907	0.411	0.006
-318.026	-157.408	-0.198	-0.012
-317.012	104.175	0.175	0.204
-315.997	-74.703	-0.345	0.123
-314.983	-100.749	0.092	-0.023
-313.968	171.914	-0.003	0.004
-312.953	-200.000	0.432	0.000
-311.939	3.941	-0.110	-0.080
-310.924	-30.377	-0.440	0.248
-309.910	-185.442	0.325	0.005
-308.895	47.667	0.012	0.011
-307.880	-8.900	0.198	0.132
-306.866	800.000	-0.067	0.218
-305.851	102.092	0.245	0.284
-304.837	-200.000	0.007	-0.326
-303.822	-200.000	-0.125	-0.000
-302.807	-70.003	-0.359	-0.136
-301.793	38.166	-0.259	0.229
-300.778	233.452	-0.132	0.215
-299.764	-120.656	0.264	0.044
-298.749	76.531	0.197	-0.207
-297.735	-76.648	-0.191	-0.067
-296.720	38.460	-0.231	-0.205
-295.705	60.438	0.043	0.042
-294.691	82.687	0.061	0.066
-293.676	-24.908	0.103	0.061
-292.662	109.844	0.165	-0.196
-291.647	105.326	-0.178	-0.208
-290.632	-200.000	-0.024	-0.110
-289.618	292.686	0.081	0.147
-288.603	-41.013	0.134	0.069
-287.589	13.253	0.093	-0.071
-286.574	481.320	0.109	-0.246
-285.559	20.613	0.456	-0.366
-284.545	102.801	0.058	-0.068
-283.530	514.419	-0.080	0.185
-282.516	-200.000	0.008	-0.148
-281.501	207.880	-0.208	-0.322
-280.486	-35.381	0.132	-0.071
-279.472	-200.000	-0.098	-0.000
-278.457	272.052	-0.050	-0.087
-277.443	-78.289	0.154	0.052
-276.428	800.000	0.103	0.379
-275.413	51.258	0.156	-0.147
-274.399	-79.299	0.143	-0.048
-273.384	303.197	-0.036	0.066
-272.370	-88.409	-0.026	0.008
-271.355	-200.000	0.027	0.229
-270.340	-76.861	0.395	-0.137
-269.326	53.211	0.133	0.127
-268.311	26.554	-0.112	0.093
-267.297	-58.615	0.239	0.103
-266.282	68.234	-0.140	-0.142
-265.267	-160.492	-0.122	-0.006
-264.253	-157.576	0.292	0.017
-263.238	251.824	0.111	-0.187
-262.224	-105.059	-0.299	0.068
-261.209	540.863	0.066	0.156
-260.195	257.063	-0.115	0.196
-259.180	75.648	-0.228	0.239
-258.165	-83.851	0.099	0.031
-257.151	800.000	0.065	0.227
-256.136	-123.506	-0.054	-0.008
-255.122	188.901	-0.256	0.380
-254.107	360.521	-0.027	-0.053
-253.092	220.416	-0.224	-0.355
-252.078	-156.798	-0.226	0.014
-251.063	160.719	0.049	0.068
-250.049	174.512	0.260	0.372
-249.034	88.743	-0.116	0.127
-248.019	315.753	0.094	-0.176
-247.005	201.459	-0.077	-0.118
-245.990	-200.000	-0.009	0.089
-244.976	-200.000	-0.064	0.346
-243.961	-200.000	0.495	0.001
-242.946	-157.479	-0.127	-0.008
-241.932	-150.842	-0.054	-0.004
-240.917	-52.158	0.176	0.081
-239.903	383.102	-0.131	-0.266
-238.888	0.789	0.366	0.260
-237.873	-118.453	-0.227	0.040
-236.859	-24.324	-0.183	0.108
-235.844	-112.083	0.118	-0.023
-234.830	-80.033	-0.237	0.079
-233.815	-71.982	-0.279	-0.103
-232.800	139.033	0.116	-0.151
-231.786	-200.000	-0.018	-0.224
-230.771	-200.000	0.011	-0.091
-229.757	-110.166	-0.049	0.010
-228.742	-200.000	0.048	-0.277
-227.727	0.015	-0.200	-0.141
-226.713	-200.000	0.017	-0.128
-225.698	-200.000	-0.041	-0.263
-224.684	59.314	0.146	-0.142
-223.669	-200.000	-0.030	-0.145
-222.655	-46.018	-0.274	0.134
-221.640	23.668	0.139	0.113
-220.625	-41.623	-0.118	0.060
-219.611	115.662	0.199	-0.241
-218.596	-200.000	-0.019	-0.109
-217.582	-77.043	0.119	-0.041
-216.567	344.824	-0.149	0.289
-215.552	800.000	0.072	0.274
-214.538	27.495	-0.112	-0.093
-213.523	800.000	0.148	-0.429
-212.509	307.950	-0.070	-0.130
-211.494	800.000	-0.100	-0.281
-210.479	-95.774	-0.159	0.042
-209.465	280.712	0.161	0.284
-208.450	-200.000	-0.014	0.259
-207.436	588.450	0.140	0.342
-206.421	471.951	-0.026	-0.058
-205.406	800.000	-0.032	-0.106
-204.392	43.410	0.084	-0.076
-203.377	-7.117	0.115	0.077
-202.363	213.786	0.158	-0.247
-201.348	431.501	-0.086	0.184
-200.333	122.456	0.305	0.378
-199.319	-110.216	-0.144	0.030
-198.304	-10.335	-0.059	0.039
-197.290	145.316	0.133	0.176
-196.275	800.000	-0.067	-0.201
-195.260	-74.623	0.070	0.025
-194.246	54.998	-0.208	-0.199
-193.231	-9.423	0.101	0.067
-192.217	-56.324	0.117	-0.051
-191.202	107.102	-0.155	0.182
-190.187	297.392	-0.097	0.176
-189.173	270.396	0.014	-0.024
-188.158	-200.000	-0.027	0.270
-187.144	-200.000	0.066	0.370
-186.129	22.088	-0.150	-0.121
-185.114	-144.202	-0.048	-0.004
-184.100	-200.000	0.005	0.037
-183.085	-200.000	-0.028	-0.267
-182.071	800.000	-0.026	0.084
-181.056	-200.000	-0.085	-0.552
-180.042	-32.045	0.055	0.030
-179.027	111.527	0.072	-0.086
-178.012	11.034	0.259	-0.195
-176.998	12.346	0.308	0.235
-175.983	-200.000	0.004	0.390
-174.969	-200.000	-0.029	0.178
-173.954	285.047	0.135	-0.239
-172.939	511.449	-0.123	0.282
-171.925	-200.000	-0.033	0.331
-170.910	-200.000	-0.029	-0.141
-169.896	229.132	0.078	0.125
-168.881	-135.743	0.316	-0.037
-167.866	428.567	0.139	-0.296
-166.852	-51.587	0.063	-0.029
-165.837	-154.422	0.215	-0.014
-164.823	-37.782	0.076	0.040
-163.808	-200.000	-0.043	-0.295
-162.793	-200.000	-0.085	0.386
-161.779	-200.000	-0.022	-0.110
-160.764	800.000	0.084	-0.258
-159.750	-14.218	-0.217	0.138
-158.735	131.618	-0.208	0.264
-157.720	153.141	-0.087	0.117
-156.706	-107.869	-0.283	-0.061
-155.691	-200.000	0.091	-0.408
-154.677	205.301	0.058	0.089
-153.662	178.373	-0.144	-0.208
-152.647	-39.583	0.316	-0.163
-151.633	-77.358	-0.053	-0.018
-150.618	-200.000	-0.105	0.493
-149.604	233.814	0.114	-0.186
-148.589	-85.771	0.233	-0.071
-147.574	-154.402	0.171	0.011
-146.560	310.255	-0.063	-0.116
-145.545	-40.413	-0.207	0.106
-144.531	330.381	0.049	-0.093
-143.516	121.360	0.163	0.200
-142.502	32.053	-0.174	0.148
-141.487	-200.000	0.030	0.343
-140.472	-76.190	-0.188	-0.065
-139.458	-115.758	0.282	0.052
-138.443	-200.000	-0.012	-0.182
-137.429	-0.663	0.089	0.062
-136.414	-64.580	0.252	-0.101
-135.399	88.537	0.147	-0.161
-134.385	-200.000	-0.216	0.000
-133.370	216.969	0.117	0.184
-132.356	107.670	0.184	0.216
-131.341	31.263	0.217	0.184
-130.326	-105.765	-0.272	0.061
-129.312	45.367	-0.338	0.307
-128.297	800.000	0.154	-0.471
-127.283	-132.409	0.185	-0.024
-126.268	99.551	-0.114	-0.130
-125.253	-137.100	0.159	-0.018
-124.239	-200.000	-0.018	-0.184
-123.224	-126.408	0.315	0.046
-122.210	32.084	0.080	-0.068
-121.195	-80.314	0.158	-0.052
-120.180	-200.000	-0.022	0.328
-119.166	732.384	-0.100	-0.263
-118.151	-156.391	-0.256	-0.016
-117.137	-23.987	-0.386	-0.228
-116.122	800.000	0.093	-0.280
-115.107	-200.000	-0.008	0.067
-114.093	-103.243	-0.242	-0.056
-113.078	63.513	0.157	-0.155
-112.064	-135.902	-0.332	0.039
-111.049	-103.048	-0.363	-0.085
-110.034	22.984	-0.096	-0.077
-109.020	800.000	0.082	-0.231
-108.005	-98.701	0.033	-0.008
-106.991	168.585	-0.115	-0.162
-105.976	-200.000	-0.009	-0.065
-104.962	800.000	0.061	-0.206
-103.947	266.445	-0.041	0.071
-102.932	-44.662	0.034	0.017
-101.918	167.659	-0.025	-0.035
-100.903	643.671	-0.086	-0.216
-99.889	-200.000	0.007	-0.197
-98.874	115.696	-0.055	-0.066
-97.859	800.000	0.114	0.326
-96.845	-155.928	-0.329	-0.021
-95.830	638.073	-0.068	0.170
-94.816	198.481	0.178	0.268
-93.801	122.905	0.169	-0.209
-92.786	399.246	0.060	-0.123
-91.772	161.076	0.211	0.291
-90.757	94.484	-0.260	0.291
-89.743	554.632	-0.062	-0.147
-88.728	-106.243	-0.172	-0.038
-87.713	-13.969	-0.256	0.163
-86.699	-200.000	0.036	-0.190
-85.684	-200.000	0.030	0.210
-84.670	-102.970	0.044	-0.010
-83.655	-0.961	-0.032	-0.022
-82.640	547.718	0.111	-0.262
-81.626	-116.295	-0.141	-0.026
-80.611	53.453	0.056	0.052
-79.597	61.312	0.299	0.292
-78.582	-130.339	0.144	-0.019
-77.567	-143.246	0.044	-0.004
-76.553	-11.592	-0.366	-0.237
-75.538	-77.266	0.440	-0.151
-74.524	69.847	0.175	-0.177
-73.509	-118.288	-0.054	-0.010
-72.494	292.540	-0.142	-0.254
-71.480	-200.000	0.039	-0.405
-70.465	-71.982	-0.205	0.075
-69.451	-200.000	-0.009	-0.467
-68.436	-84.276	-0.484	-0.151
-67.422	-13.965	-0.093	0.059
-66.407	30.776	-0.313	-0.263
-65.392	-200.000	0.029	-0.301
-64.378	41.618	0.092	-0.082
-63.363	68.393	0.204	0.206
-62.349	134.602	0.110	0.140
-61.334	6.882	-1.085	-0.795
-60.319	105.989	0.464	0.540
-59.305	-200.000	-0.094	-0.815
-58.290	486.282	0.475	1.065
-57.276	800.000	0.443	1.339
-56.261	-200.000	96.036	596.354
-55.246	559.574	1368.329	3249.298
-54.232	162.168	2546.097	3509.134
-53.217	113.570	2136.925	2552.030
-52.203	43.809	1599.590	1440.246
-51.188	35.428	1336.681	1153.377
-50.173	32.080	1295.565	1098.311
-49.159	54.862	1342.786	1274.364
-48.144	57.030	1359.476	1303.033
-47.130	35.524	1318.319	1137.920
-46.115	31.996	1300.206	1101.580
-45.100	31.759	1296.132	1096.695
-44.086	31.746	1293.462	1094.316
-43.071	31.709	1290.866	1091.861
-42.057	31.680	1288.825	1089.922
-41.042	31.608	1287.232	1088.113
-40.027	31.658	1285.758	1087.114
-39.013	31.703	1284.357	1086.146
-37.998	31.625	1282.176	1083.811
-36.984	31.772	1280.126	1082.884
-35.969	31.777	1278.767	1081.717
-34.954	31.788	1276.942	1080.193
-33.940	31.917	1275.409	1079.602
-32.925	31.845	1274.345	1078.239
-31.911	31.853	1272.531	1076.707
-30.896	31.925	1270.928	1075.725
-29.881	31.859	1270.078	1074.582
-28.867	31.924	1268.539	1073.611
-27.852	31.890	1267.056	1072.116
-26.838	31.999	1265.518	1071.398
-25.823	31.984	1263.882	1069.882
-24.809	31.891	1262.913	1068.492
-23.794	31.914	1261.802	1067.639
-22.779	32.009	1260.228	1066.805
-21.765	31.915	1259.186	1065.348
-20.750	31.959	1257.816	1064.396
-19.736	31.719	1256.825	1062.152
-18.721	31.661	1256.152	1061.217
-17.706	31.749	1254.360	1060.155
-16.692	31.626	1253.532	1058.721
-15.677	31.729	1252.118	1058.063
-14.663	31.868	1250.968	1057.836
-13.648	31.811	1249.811	1056.491
-12.633	31.698	1249.024	1055.149
-11.619	31.750	1248.020	1054.551
-10.604	31.733	1247.119	1053.655
-9.590	31.750	1246.434	1053.130
-8.575	31.740	1244.841	1051.683
-7.560	31.913	1243.619	1051.583
-6.546	31.723	1243.217	1050.134
-5.531	31.834	1242.124	1049.788
-4.517	31.847	1241.472	1049.270
-3.502	31.772	1241.012	1048.421
-2.487	31.784	1240.014	1047.606
-1.473	31.767	1235.703	1043.823
-0.458	30.407	1221.250	1024.083
0.556	27.108	1204.608	988.988
1.571	23.711	1210.588	975.194
2.586	23.148	1225.445	983.945
3.600	22.543	1214.561	971.784
4.615	16.155	1141.002	879.641
5.629	6.020	1065.216	771.571
6.644	2.002	1044.723	737.272
7.659	1.581	1043.244	734.128
8.673	1.459	1041.780	732.446
9.688	1.500	1040.256	731.508
10.702	1.812	1038.669	731.828
11.717	7.763	1046.879	766.288
12.731	17.949	1061.583	826.527
13.746	23.479	1068.607	858.785
14.761	24.913	1069.704	866.532
15.775	24.910	1069.351	866.154
16.790	24.634	1068.675	864.196
17.804	24.560	1068.010	863.224
18.819	24.764	1067.417	863.656
19.834	24.784	1067.294	863.577
20.848	24.920	1066.636	863.624
21.863	24.899	1066.419	863.270
22.877	24.828	1065.898	862.429
23.892	24.778	1065.070	861.442
24.907	24.788	1064.089	860.623
25.921	24.892	1062.666	859.895
26.936	24.896	1061.502	858.894
27.950	24.697	1060.385	856.960
28.965	24.658	1058.615	855.269
29.980	24.730	1056.921	854.169
30.994	24.923	1056.317	854.528
32.009	24.862	1054.887	853.002
33.023	24.711	1053.787	851.317
34.038	24.765	1053.529	851.292
35.053	24.916	1052.479	851.087
36.067	24.859	1051.913	850.281
37.082	25.065	1050.956	850.411
38.096	25.128	1050.176	850.005
39.111	25.045	1050.318	849.651
40.126	24.876	1048.446	847.259
41.140	24.641	1046.301	844.341
42.155	24.483	1044.875	842.372
43.169	24.403	1044.510	841.627
44.184	24.526	1043.153	841.034
45.199	24.422	1042.480	839.928
46.213	24.407	1042.248	839.598
47.228	24.541	1041.617	839.643
48.242	24.581	1040.723	839.039
49.257	24.850	1039.442	839.191
50.271	24.917	1038.534	838.698
51.286	24.906	1038.247	838.344
52.301	24.966	1036.547	837.175
53.315	24.707	1036.468	835.829
54.330	24.743	1035.060	834.788
55.344	24.804	1034.679	834.687
56.359	24.663	1034.242	833.607
57.374	24.559	1032.818	831.900
58.388	24.616	1031.928	831.375
59.403	24.461	1031.339	830.105
60.417	24.396	1030.343	828.930
61.432	24.456	1029.679	828.598
62.447	24.634	1029.115	828.897
63.461	24.651	1027.765	827.818
64.476	24.506	1027.346	826.733
65.490	24.467	1026.422	825.736
66.505	24.493	1025.821	825.299
67.520	24.584	1025.116	825.081
68.534	24.424	1023.927	823.313
69.549	24.195	1022.748	821.235
70.563	24.176	1022.344	820.749
71.578	23.982	1021.564	819.161
72.593	23.970	1020.148	817.897
73.607	24.086	1020.070	818.294
74.622	24.375	1019.639	819.206
75.636	24.328	1019.395	818.720
76.651	24.207	1018.400	817.292
77.666	24.150	1017.452	816.200
78.680	24.207	1016.815	815.879
79.695	24.310	1016.021	815.637
80.709	24.422	1015.514	815.672
81.724	24.395	1014.274	814.482
82.739	24.425	1013.971	814.300
83.753	24.902	1013.319	815.882
84.768	25.062	1012.722	816.055
85.782	25.227	1011.722	815.931
86.797	25.033	1010.707	814.157
87.812	25.031	1009.685	813.253
88.826	25.147	1008.609	812.842
89.841	25.100	1007.596	811.740
90.855	25.166	1006.964	811.454
91.870	25.172	1006.071	810.692
92.884	24.933	1004.887	808.589
93.899	25.043	1003.933	808.246
94.914	25.049	1003.497	807.849
95.928	24.872	1002.410	806.106
96.943	24.711	1001.156	804.303
97.957	24.379	1000.129	801.914
98.972	24.328	998.942	800.661
99.987	24.652	998.196	801.445
101.001	24.778	997.834	801.647
102.016	24.861	996.457	800.845
103.030	24.580	996.230	799.330
104.045	24.525	995.170	798.164
105.060	24.331	994.247	796.489
106.074	24.736	993.012	797.232
107.089	24.759	993.320	797.515
108.103	24.859	991.873	796.725
109.118	24.567	990.430	794.197
110.133	24.573	989.684	793.555
111.147	24.398	988.381	791.664
112.162	24.286	987.617	790.488
113.176	24.612	986.857	791.253
114.191	24.292	986.643	789.595
115.206	24.155	985.155	787.728
116.220	24.153	984.106	786.810
117.235	24.376	983.250	787.041
118.249	24.362	982.520	786.322
119.264	24.116	981.914	784.688
120.279	24.120	981.207	784.069
121.293	24.302	980.408	784.162
122.308	24.304	979.809	783.620
123.322	24.229	978.116	781.872
124.337	24.084	976.991	780.267
125.352	23.532	975.246	776.390
126.366	23.489	974.558	775.585
127.381	24.401	974.676	779.595
128.395	24.831	974.233	781.052
129.410	24.827	973.292	780.210
130.424	24.621	972.529	778.629
131.439	24.706	971.601	778.190
132.454	24.713	970.901	777.590
133.468	24.744	969.549	776.572
134.483	24.659	969.019	775.712
135.497	25.002	968.424	776.655
136.512	25.011	967.653	776.004
137.527	24.934	967.221	775.256
138.541	25.046	966.019	774.709
139.556	24.989	965.244	773.774
140.570	25.056	964.557	773.441
141.585	25.074	963.541	772.638
142.600	25.130	962.646	772.093
143.614	25.147	962.287	771.810
144.629	25.330	961.333	771.761
145.643	25.160	959.822	769.753
146.658	25.110	958.298	768.247
147.673	24.913	957.413	766.625
148.687	24.946	956.286	765.798
149.702	24.699	955.708	764.213
150.716	24.727	954.801	763.538
151.731	24.980	953.888	763.818
152.746	25.219	953.452	764.419
153.760	25.118	953.175	763.702
154.775	25.222	952.596	763.614
155.789	25.229	951.392	762.610
156.804	25.131	950.699	761.570
157.819	25.153	950.078	761.101
158.833	25.413	949.307	761.516
159.848	25.356	948.227	760.340
160.862	25.194	946.716	758.377
161.877	25.097	946.179	757.470
162.892	25.264	944.998	757.163
163.906	25.157	943.939	755.794
164.921	25.206	942.790	755.016
165.935	25.242	942.220	754.642
166.950	25.142	941.613	753.669
167.964	25.156	940.700	752.931
168.979	24.961	939.613	751.177
169.994	24.994	938.604	750.444
171.008	25.084	938.272	750.489
172.023	25.353	937.209	750.696
173.037	25.002	936.595	748.668
174.052	24.749	935.684	746.818
175.067	24.843	934.838	746.470
176.081	25.047	934.269	746.800
177.096	25.027	933.555	746.080
178.110	24.643	932.915	743.903
179.125	24.427	931.909	742.140
180.140	24.591	931.754	742.630
181.154	24.789	931.386	743.094
182.169	24.989	931.249	743.752
183.183	25.150	930.901	744.076
184.198	25.199	929.824	743.353
185.213	25.036	929.048	741.990
186.227	25.196	928.606	742.235
187.242	25.192	928.026	741.688
188.256	25.221	927.597	741.399
189.271	25.241	926.488	740.530
190.286	24.956	925.445	738.453
191.300	24.315	923.794	734.436
192.315	23.408	922.129	729.314
193.329	23.552	922.063	729.789
194.344	24.464	922.563	733.873
195.359	25.052	922.479	736.156
196.373	25.145	922.007	736.097
197.388	24.935	921.262	734.577
198.402	25.112	920.767	734.844
199.417	25.207	919.903	734.476
200.432	24.758	919.211	732.020
201.446	24.649	918.691	731.098
202.461	24.766	917.652	730.683
203.475	23.838	916.384	725.821
204.490	22.967	915.161	721.235
205.504	23.965	915.182	725.260
206.519	24.651	914.828	727.709
207.534	24.754	914.617	727.896
208.548	25.088	914.435	729.047
209.563	24.842	913.581	727.301
210.577	24.773	913.125	726.590
211.592	25.140	912.769	727.736
212.607	25.249	911.405	727.026
213.621	25.353	911.115	727.149
214.636	25.131	910.902	726.016
215.650	25.098	909.759	724.908
216.665	25.327	908.908	725.092
217.680	25.230	908.336	724.177
218.694	24.737	907.150	721.184
219.709	24.585	906.586	720.056
220.723	24.943	906.517	721.379
221.738	25.040	905.634	721.005
222.753	25.040	904.930	720.379
223.767	25.260	904.327	720.720
224.782	25.302	904.435	720.910
225.796	25.265	903.534	719.980
226.811	24.687	901.984	716.368
227.826	24.038	900.771	712.742
228.840	24.201	900.761	713.325
229.855	24.269	899.884	712.840
230.869	23.964	899.018	710.872
231.884	24.398	898.977	712.510
232.899	25.115	898.804	715.168
233.913	25.009	897.999	714.045
234.928	24.856	897.537	713.005
235.942	25.007	896.407	712.642
236.957	24.613	895.916	710.623
237.972	24.630	895.421	710.233
238.986	24.761	894.936	710.309
240.001	24.582	894.761	709.398
241.015	24.795	894.007	709.578
242.030	25.004	893.508	709.950
243.045	25.089	893.036	709.847
244.059	25.259	892.509	710.041
245.074	25.036	891.576	708.354
246.088	24.615	890.871	706.067
247.103	25.104	890.354	707.525
248.117	25.532	890.368	709.162
249.132	25.635	890.349	709.490
250.147	25.872	889.374	709.583
251.161	26.009	888.769	709.577
252.176	25.902	887.940	708.433
253.190	25.923	888.112	708.591
254.205	26.122	887.319	708.675
255.220	26.078	886.573	707.844
256.234	26.042	885.661	706.914
257.249	25.920	885.019	705.860
258.263	25.874	884.595	705.278
259.278	26.081	883.966	705.525
260.293	26.050	883.425	704.908
261.307	25.978	882.902	704.149
262.322	25.779	881.951	702.553
263.336	24.912	879.891	697.474
264.351	24.034	877.948	692.456
265.366	24.067	878.049	692.603
266.380	25.194	878.909	697.608
267.395	25.531	878.576	698.591
268.409	25.378	877.760	697.286
269.424	25.664	877.398	698.047
270.439	25.740	876.468	697.539
271.453	25.778	875.957	697.217
272.468	25.990	875.751	697.812
273.482	26.071	875.086	697.534
274.497	25.687	873.655	694.849
275.512	25.268	873.434	692.996
276.526	25.650	873.439	694.412
277.541	25.976	872.989	695.252
278.555	25.512	872.122	692.710
279.570	25.479	871.041	691.663
280.585	25.723	870.438	692.062
281.599	25.572	869.425	690.613
282.614	24.903	868.517	687.265
283.628	25.157	867.843	687.645
284.643	25.322	867.711	688.112
285.657	25.010	866.356	685.783
286.672	24.742	865.781	684.243
287.687	25.387	865.882	686.729
288.701	25.292	865.499	685.998
289.716	25.102	864.356	684.309
290.730	24.987	863.765	683.342
291.745	24.792	862.798	681.774
292.760	25.083	862.999	682.981
293.774	26.028	863.484	686.904
294.789	26.295	863.254	687.676
295.803	26.360	862.364	687.153
296.818	26.469	861.548	686.857
297.833	25.842	860.725	683.760
298.847	25.787	859.965	682.889
299.862	26.193	859.836	684.266
300.876	26.431	859.653	684.958
301.891	26.194	859.127	683.581
302.906	25.854	857.919	681.277
303.920	25.965	857.700	681.460
304.935	26.316	857.322	682.428
305.949	26.156	856.302	680.951
306.964	25.872	856.125	679.678
307.979	26.073	855.558	679.924
308.993	26.348	855.590	680.926
310.008	26.388	854.828	680.409
311.022	26.198	853.619	678.673
312.037	25.992	853.323	677.604
313.052	25.814	852.091	675.899
314.066	24.813	850.650	670.946
315.081	24.560	850.432	669.763
316.095	25.417	850.752	673.171
317.110	25.958	850.307	674.782
318.125	24.995	848.986	670.074
319.139	24.131	847.026	665.243
320.154	24.048	846.902	664.775
321.168	25.051	847.333	668.804
322.183	25.718	847.656	671.488
323.197	25.917	846.799	671.492
324.212	25.992	846.784	671.699
325.227	26.148	846.189	671.748
326.241	25.934	845.511	670.352
327.256	25.823	844.655	669.203
328.270	25.812	844.282	668.809
329.285	25.512	843.426	666.958
330.300	25.397	842.554	665.783
331.314	25.629	842.209	666.312
332.329	26.038	842.486	667.984
333.343	26.158	842.242	668.176
334.358	26.144	841.545	667.514
335.373	26.226	841.381	667.626
336.387	26.503	840.959	668.257
337.402	26.503	841.001	668.231
338.416	26.619	840.456	668.167
339.431	26.606	840.378	667.999
340.446	26.759	839.893	668.119
341.460	26.683	839.148	667.186
342.475	26.520	838.727	666.192
343.489	26.652	838.485	666.427
344.504	26.904	838.285	667.134
345.519	26.895	838.125	666.916
346.533	26.977	837.443	666.617
347.548	26.983	836.725	666.006
348.562	26.927	836.254	665.366
349.577	26.927	835.420	664.644
350.592	26.828	835.031	663.916
351.606	26.997	833.948	663.611
352.621	26.837	833.592	662.687
353.635	26.644	832.500	661.055
354.650	25.962	831.626	657.816
355.665	25.111	829.687	653.126
356.679	25.538	829.545	654.511
357.694	26.012	829.068	655.799
358.708	25.929	828.419	654.925
359.723	26.247	828.647	656.205
360.738	26.603	828.327	657.186
361.752	26.656	827.656	656.786
362.767	26.966	827.600	657.807
363.781	27.204	827.145	658.249
364.796	27.305	826.662	658.174
365.810	27.391	826.612	658.386
366.825	27.449	826.045	658.086
367.840	27.077	824.904	655.774
368.854	26.758	824.094	653.921
369.869	26.633	823.620	653.040
370.883	26.723	823.306	653.056
371.898	26.478	823.110	651.959
372.913	26.806	822.344	652.477
373.927	26.893	821.907	652.386
374.942	27.159	821.373	652.857
375.956	26.928	821.738	652.261
376.971	27.036	821.225	652.185
377.986	27.240	821.084	652.746
379.000	27.194	820.161	651.789
380.015	27.109	819.552	650.945
381.029	27.158	818.893	650.537
382.044	27.361	818.351	650.776
383.059	27.249	818.157	650.162
384.073	27.264	817.685	649.785
385.088	27.290	816.789	649.107
386.102	27.111	815.633	647.495
387.117	27.013	815.489	646.972
388.132	26.718	814.012	644.695
389.146	26.287	813.211	642.472
390.161	26.508	813.491	643.422
391.175	27.048	813.021	644.910
392.190	26.601	812.008	642.465
393.205	25.207	810.059	635.926
394.219	23.785	808.266	629.431
395.234	23.834	808.045	629.377
396.248	25.355	809.496	635.840
397.263	26.770	810.558	641.632
398.278	26.760	810.037	641.129
399.292	26.500	809.378	639.630
400.307	26.558	808.514	639.093
401.321	26.611	808.352	639.099
402.336	26.956	808.163	640.107
403.350	27.394	808.381	641.768
404.365	27.617	808.294	642.430
405.380	28.095	807.641	643.536
406.394	28.135	807.114	643.201
407.409	27.991	806.726	642.327
408.423	27.949	806.477	641.926
409.438	28.123	805.930	642.043
410.453	28.074	805.609	641.559
411.467	27.906	805.308	640.673
412.482	27.868	804.642	639.954
413.496	28.181	804.437	640.830
414.511	27.828	804.318	639.443
415.526	27.983	803.749	639.476
416.540	27.877	802.803	638.298
417.555	27.615	801.920	636.623
418.569	27.587	801.990	636.524
419.584	27.567	801.095	635.689
420.599	27.561	800.396	635.058
421.613	111.054	1286.729	1461.152
422.628	95.789	1357.586	1461.264
