DTS Sentinel unit serial number:	SN413079Multiplexer serial number:	ORYXHardware model number:	OX4-SRSoftware version number:	ORYX F/W v4.00 Oryx Data Collector v3.7.2.0data status	okinstallation	princeton_trtdifferential loss correction	single-endedforward channel	channel 1reverse channel	N/Adate	2019/09/12time	17:20:11forward acquisition time	60.00reverse acquisition time	0.00gamma	496.2192k internal	0.2315k external	0.2315temperature offset calibration	1.0103default loss term (dB/km)	0.3790temperature slope calibration	1.0000multiplexer offset coefficient	1.0000multiplexer slope coefficient	1.0000fibre end	0.00T internal ref (°C)	34.94T ext. ref 1 (°C)	2.88T ext. ref 2 (°C)	28.79length (m)	temperature (°C)	Stokes	anti-Stokes-747.200	-9.835	0.359	0.242
-746.185	222.894	0.068	0.111
-745.171	-100.037	0.129	0.033
-744.156	48.924	-0.077	0.073
-743.142	190.023	0.112	0.170
-742.127	324.137	-0.099	0.191
-741.112	-103.959	-0.409	-0.097
-740.098	-200.000	-0.015	0.185
-739.083	800.000	0.082	0.286
-738.069	800.000	-0.077	0.240
-737.054	402.579	-0.028	0.061
-736.039	122.905	-0.068	0.086
-735.025	-115.776	0.101	-0.019
-734.010	75.689	-0.187	-0.200
-732.996	-22.550	-0.492	-0.301
-731.981	276.972	0.067	-0.121
-730.966	-200.000	0.021	0.131
-729.952	-115.746	-0.094	-0.018
-728.937	-101.506	0.245	0.060
-727.923	800.000	-0.057	-0.227
-726.908	-88.152	-0.181	-0.055
-725.894	-48.361	0.237	0.116
-724.879	-184.967	0.339	-0.005
-723.864	-104.518	-0.230	0.054
-722.850	9.696	-0.327	0.251
-721.835	-92.977	0.115	0.032
-720.821	-158.132	-0.244	0.014
-719.806	-200.000	0.011	-0.138
-718.791	151.090	-0.068	0.093
-717.777	281.662	0.181	-0.328
-716.762	22.385	-0.148	0.122
-715.748	131.303	-0.134	-0.174
-714.733	474.510	0.071	-0.162
-713.718	-200.000	-0.015	-0.181
-712.704	-94.398	-0.203	-0.056
-711.689	0.464	-0.046	0.033
-710.675	-62.655	-0.088	0.037
-709.660	-43.115	-0.230	-0.118
-708.645	-99.604	0.153	-0.039
-707.631	-133.699	0.232	0.029
-706.616	-83.890	-0.369	0.119
-705.602	132.911	0.031	-0.040
-704.587	-43.321	0.177	-0.091
-703.572	30.909	0.081	-0.071
-702.558	-3.288	0.125	0.088
-701.543	-181.085	0.288	0.006
-700.529	800.000	0.069	-0.234
-699.514	-25.097	-0.259	0.155
-698.499	214.736	-0.055	-0.088
-697.485	63.375	-0.030	0.030
-696.470	800.000	-0.066	0.248
-695.456	-200.000	-0.015	-0.214
-694.441	-97.855	0.142	0.037
-693.426	800.000	-0.058	0.243
-692.412	800.000	-0.045	-0.145
-691.397	-23.907	-0.132	0.080
-690.383	-5.467	-0.241	0.167
-689.368	-200.000	-0.008	0.099
-688.354	285.691	-0.119	0.216
-687.339	-200.000	-0.005	0.037
-686.324	-85.632	-0.219	0.069
-685.310	223.145	-0.110	0.179
-684.295	-200.000	0.008	0.087
-683.281	-57.815	-0.253	0.112
-682.266	-29.141	-0.344	-0.199
-681.251	67.739	0.085	-0.088
-680.237	35.148	-0.309	-0.274
-679.222	-86.094	-0.073	0.023
-678.208	-200.000	-0.018	-0.210
-677.193	-77.405	0.399	0.140
-676.178	-41.222	-0.162	0.085
-675.164	82.965	0.031	-0.035
-674.149	-56.605	0.152	0.068
-673.135	-195.791	0.436	0.003
-672.120	-200.000	-0.018	0.176
-671.105	31.449	0.231	0.200
-670.091	-200.000	0.028	0.170
-669.076	502.203	-0.127	-0.296
-668.062	301.056	0.205	-0.382
-667.047	800.000	0.071	-0.225
-666.032	-200.000	0.001	-0.075
-665.018	92.441	0.320	0.365
-664.003	-200.000	0.012	0.175
-662.989	125.020	0.227	-0.289
-661.974	800.000	-0.040	-0.126
-660.959	-200.000	-0.047	0.229
-659.945	-89.924	-0.232	0.069
-658.930	518.257	-0.197	0.465
-657.916	-200.000	0.081	-0.398
-656.901	-4.270	-0.250	-0.175
-655.886	614.464	0.138	0.349
-654.872	-200.000	-0.022	-0.104
-653.857	2.170	-0.074	-0.054
-652.843	-4.778	-0.429	-0.299
-651.828	59.580	0.152	0.151
-650.814	4.306	0.246	0.182
-649.799	-64.031	-0.225	0.093
-648.784	-18.064	0.210	-0.133
-647.770	-200.000	0.004	0.322
-646.755	800.000	0.045	-0.156
-645.741	-129.439	-0.027	0.004
-644.726	637.184	-0.077	0.197
-643.711	173.986	0.201	-0.293
-642.697	-52.610	0.264	-0.123
-641.682	293.015	0.030	0.055
-640.668	262.750	-0.115	0.202
-639.653	290.264	-0.025	0.046
-638.638	-0.409	-0.288	-0.207
-637.624	-36.651	0.304	0.165
-636.609	0.652	0.094	0.068
-635.595	-60.761	0.171	0.073
-634.580	800.000	-0.022	0.096
-633.565	178.717	-0.079	-0.116
-632.551	276.171	0.167	-0.300
-631.536	-137.015	0.062	-0.007
-630.522	-200.000	-0.010	0.108
-629.507	71.411	0.037	-0.039
-628.492	86.970	0.220	-0.246
-627.478	316.899	-0.116	-0.222
-626.463	105.436	0.205	0.244
-625.449	-12.812	0.239	0.157
-624.434	-32.068	-0.175	0.098
-623.419	-200.000	-0.007	-0.070
-622.405	-200.000	-0.007	-0.239
-621.390	267.355	0.154	0.272
-620.376	175.725	-0.156	0.228
-619.361	18.244	-0.489	0.394
-618.346	-19.776	-0.184	0.115
-617.332	90.244	0.147	-0.166
-616.317	-73.477	0.369	-0.136
-615.303	357.136	-0.054	0.108
-614.288	-116.970	0.402	-0.074
-613.273	91.505	0.221	-0.250
-612.259	-200.000	-0.013	-0.135
-611.244	-145.442	0.066	0.006
-610.230	-200.000	0.025	0.227
-609.215	-66.256	-0.257	0.103
-608.201	800.000	-0.050	-0.166
-607.186	-172.642	-0.298	0.009
-606.171	93.038	0.181	0.206
-605.157	178.661	0.058	-0.085
-604.142	-81.414	-0.055	0.018
-603.128	61.455	-0.140	0.140
-602.113	296.435	-0.089	-0.164
-601.098	-123.827	0.407	0.065
-600.084	800.000	-0.040	0.153
-599.069	-2.156	0.142	0.100
-598.055	105.702	0.059	-0.070
-597.040	53.362	-0.060	-0.058
-596.025	141.238	-0.054	-0.072
-595.011	263.160	0.025	0.044
-593.996	-101.414	0.121	0.030
-592.982	-200.000	-0.001	0.182
-591.967	-200.000	0.009	-0.085
-590.952	111.379	-0.168	0.204
-589.938	34.874	0.257	-0.226
-588.923	-51.704	-0.137	0.064
-587.909	35.665	-0.043	-0.038
-586.894	151.649	0.094	-0.130
-585.879	159.498	-0.184	0.258
-584.865	623.104	0.105	0.267
-583.850	-152.309	0.231	0.017
-582.836	-200.000	0.002	-0.102
-581.821	0.984	0.124	0.089
-580.806	-200.000	-0.013	-0.272
-579.792	-200.000	-0.021	0.096
-578.777	40.809	0.089	-0.081
-577.763	-78.558	-0.233	0.080
-576.748	-85.546	-0.120	0.038
-575.733	51.585	-0.137	-0.131
-574.719	-200.000	0.048	-0.245
-573.704	-78.394	0.147	0.051
-572.690	-200.000	-0.040	-0.303
-571.675	-200.000	0.019	-0.108
-570.661	192.647	-0.122	-0.185
-569.646	-58.382	0.331	-0.145
-568.631	104.714	0.183	-0.217
-567.617	90.474	0.135	-0.152
-566.602	2.531	0.066	-0.048
-565.588	-93.040	-0.283	0.079
-564.573	23.508	-0.177	-0.146
-563.558	-17.055	0.298	0.189
-562.544	800.000	0.090	0.329
-561.529	800.000	0.084	0.261
-560.515	-22.059	-0.136	0.083
-559.500	-200.000	0.009	-0.109
-558.485	-63.353	0.101	-0.042
-557.471	-200.000	0.057	0.276
-556.456	262.986	0.079	-0.137
-555.442	-44.706	0.157	-0.079
-554.427	-200.000	0.032	-0.304
-553.412	281.108	0.117	-0.210
-552.398	-180.853	0.076	-0.002
-551.383	12.809	0.146	0.113
-550.369	-71.034	-0.311	-0.118
-549.354	-126.004	0.161	-0.024
-548.339	-61.393	0.248	-0.105
-547.325	-99.966	0.191	0.048
-546.310	800.000	0.049	-0.147
-545.296	39.612	-0.165	0.149
-544.281	-108.740	-0.071	-0.015
-543.266	-33.684	0.149	0.083
-542.252	117.154	0.144	-0.178
-541.237	-136.391	-0.280	-0.033
-540.223	-200.000	-0.008	-0.252
-539.208	-13.519	0.164	-0.107
-538.193	13.438	0.325	0.253
-537.179	234.092	0.173	0.286
-536.164	464.734	-0.069	-0.156
-535.150	519.450	-0.219	-0.516
-534.135	338.066	-0.078	0.152
-533.121	-93.279	-0.076	0.021
-532.106	237.319	0.084	0.140
-531.091	-200.000	-0.005	0.507
-530.077	631.448	-0.069	0.176
-529.062	-200.000	0.007	-0.199
-528.048	-53.793	-0.310	-0.142
-527.033	13.902	0.049	0.038
-526.018	-21.040	0.262	0.161
-525.004	312.500	-0.098	0.184
-523.989	329.366	0.188	0.364
-522.975	-200.000	0.011	0.322
-521.960	-200.000	0.063	0.400
-520.945	-98.528	-0.277	-0.071
-519.931	95.865	0.245	0.281
-518.916	-155.427	-0.321	-0.021
-517.902	-6.151	0.411	-0.282
-516.887	-200.000	0.022	0.195
-515.872	225.451	0.137	-0.223
-514.858	-60.532	0.064	-0.027
-513.843	-32.635	0.217	-0.122
-512.829	-200.000	0.022	-0.250
-511.814	77.154	0.063	-0.068
-510.799	-200.000	0.141	0.000
-509.785	82.196	0.308	-0.336
-508.770	-25.132	-0.056	-0.034
-507.756	-200.000	-0.009	-0.136
-506.741	164.492	0.098	0.139
-505.726	-49.551	-0.331	0.159
-504.712	-81.204	0.230	0.076
-503.697	149.584	0.112	-0.152
-502.683	-147.684	-0.174	-0.015
-501.668	-36.937	-0.164	0.088
-500.653	800.000	0.083	0.359
-499.639	92.307	0.174	-0.197
-498.624	121.793	0.186	0.233
-497.610	18.477	-0.124	0.099
-496.595	261.155	0.101	-0.176
-495.581	-97.900	0.083	0.021
-494.566	365.649	-0.196	0.396
-493.551	370.267	-0.048	0.098
-492.537	-200.000	0.001	-0.099
-491.522	419.659	0.012	0.026
-490.508	-75.752	-0.108	0.038
-489.493	-94.155	-0.161	0.044
-488.478	264.684	0.107	-0.188
-487.464	469.672	-0.089	-0.200
-486.449	-184.106	0.118	0.002
-485.435	485.712	-0.075	-0.172
-484.420	141.539	0.124	0.165
-483.405	397.710	0.189	-0.397
-482.391	-92.263	0.313	-0.088
-481.376	800.000	-0.039	-0.151
-480.362	13.776	0.101	0.079
-479.347	-200.000	-0.027	-0.228
-478.332	71.140	0.171	-0.178
-477.318	730.923	0.123	0.330
-476.303	685.765	-0.080	0.210
-475.289	-43.218	0.080	0.041
-474.274	-27.291	0.470	0.275
-473.259	-200.000	0.028	0.204
-472.245	7.056	0.202	-0.151
-471.230	-86.491	-0.314	0.097
-470.216	-92.770	-0.077	-0.022
-469.201	142.250	0.112	-0.149
-468.186	-200.000	-0.028	-0.162
-467.172	-200.000	0.003	0.509
-466.157	-1.782	0.248	0.175
-465.143	-78.476	-0.085	0.029
-464.128	-200.000	0.024	0.352
-463.113	793.558	0.037	0.101
-462.099	368.117	-0.158	0.320
-461.084	106.726	-0.239	-0.284
-460.070	-200.000	-0.039	-0.396
-459.055	182.762	0.042	0.063
-458.040	17.690	-0.345	0.275
-457.026	-200.000	-0.033	-0.247
-456.011	84.338	0.302	-0.331
-454.997	2.431	-0.083	0.060
-453.982	-200.000	-0.028	-0.134
-452.968	-34.195	-0.197	0.108
-451.953	-38.426	-0.303	-0.161
-450.938	240.205	0.255	-0.427
-449.924	487.820	0.079	-0.180
-448.909	555.736	-0.054	-0.130
-447.895	219.081	-0.060	0.096
-446.880	-24.534	0.032	-0.019
-445.865	120.150	0.171	0.213
-444.851	800.000	0.086	0.376
-443.836	-68.803	0.076	0.029
-442.822	-200.000	0.010	0.115
-441.807	-57.311	0.195	-0.086
-440.792	-163.879	-0.290	0.014
-439.778	436.656	0.030	0.066
-438.763	-138.874	0.104	-0.011
-437.749	-109.159	-0.152	0.032
-436.734	-200.000	-0.003	0.223
-435.719	-123.083	-0.038	-0.006
-434.705	-100.268	0.131	0.033
-433.690	-36.416	-0.297	0.160
-432.676	42.374	0.177	0.161
-431.661	-78.111	-0.410	-0.141
-430.646	-101.016	-0.396	0.097
-429.632	-60.961	0.353	-0.149
-428.617	-92.895	0.220	-0.061
-427.603	-118.412	0.348	-0.062
-426.588	-112.415	-0.426	-0.085
-425.573	800.000	0.071	0.226
-424.559	140.791	-0.041	-0.054
-423.544	-67.092	0.275	-0.108
-422.530	800.000	0.158	0.517
-421.515	-200.000	-0.003	-0.042
-420.500	96.983	-0.033	0.038
-419.486	-122.938	-0.323	0.052
-418.471	-28.202	0.055	0.032
-417.457	-165.958	0.287	-0.012
-416.442	133.477	0.165	0.214
-415.428	-110.479	0.102	-0.021
-414.413	-115.350	-0.205	0.039
-413.398	-77.048	-0.182	-0.064
-412.384	57.910	-0.235	-0.230
-411.369	-200.000	0.058	0.304
-410.355	-200.000	0.028	0.225
-409.340	70.534	0.219	-0.227
-408.325	-200.000	0.019	-0.091
-407.311	-200.000	0.003	-0.210
-406.296	800.000	0.114	0.366
-405.282	14.100	0.215	0.167
-404.267	-72.779	0.047	0.017
-403.252	608.741	-0.066	-0.164
-402.238	-74.724	0.153	0.055
-401.223	-34.282	-0.274	-0.150
-400.209	800.000	0.079	-0.264
-399.194	-142.615	0.045	-0.004
-398.179	-200.000	0.023	0.175
-397.165	-37.078	0.152	-0.082
-396.150	-151.489	-0.361	-0.027
-395.136	-55.340	-0.294	0.132
-394.121	-106.041	-0.126	0.028
-393.106	11.864	-0.348	0.267
-392.092	100.669	0.122	0.142
-391.077	499.258	0.062	-0.142
-390.063	23.972	-0.066	-0.054
-389.048	47.002	0.089	0.083
-388.033	-119.715	-0.251	-0.043
-387.019	-123.262	0.055	-0.009
-386.004	44.953	0.116	-0.107
-384.990	-95.555	0.092	-0.025
-383.975	472.487	0.083	0.187
-382.960	-26.509	-0.157	-0.092
-381.946	800.000	0.051	-0.152
-380.931	-0.548	0.044	0.031
-379.917	-43.306	-0.065	0.033
-378.902	-96.526	0.144	-0.038
-377.888	1.425	-0.149	0.107
-376.873	610.133	-0.154	-0.385
-375.858	665.416	0.053	0.135
-374.844	-200.000	0.001	-0.215
-373.829	740.948	-0.021	0.057
-372.815	-130.731	0.145	0.019
-371.800	-113.001	-0.281	-0.055
-370.785	397.909	-0.134	0.280
-369.771	800.000	0.131	-0.416
-368.756	-54.713	-0.244	0.110
-367.742	438.270	-0.182	0.397
-366.727	-140.321	-0.213	-0.022
-365.712	140.242	0.063	0.083
-364.698	-85.622	-0.371	-0.115
-363.683	64.549	-0.050	0.050
-362.669	536.543	0.108	-0.257
-361.654	138.424	-0.113	0.148
-360.639	61.108	0.127	0.126
-359.625	-157.516	-0.420	-0.025
-358.610	52.394	0.301	-0.287
-357.596	402.664	-0.091	-0.191
-356.581	-200.000	-0.024	0.342
-355.566	-97.017	0.241	-0.063
-354.552	-107.420	-0.063	-0.014
-353.537	800.000	0.038	-0.122
-352.523	-200.000	-0.015	0.122
-351.508	-88.486	-0.157	-0.047
-350.493	-200.000	0.002	-0.079
-349.479	8.824	-0.164	-0.123
-348.464	-200.000	-0.011	0.309
-347.450	-200.000	0.020	-0.171
-346.435	621.341	-0.061	-0.154
-345.420	-21.055	0.198	0.121
-344.406	-137.502	-0.270	-0.030
-343.391	-56.857	0.065	0.029
-342.377	-70.740	-0.315	0.119
-341.362	490.051	0.047	-0.108
-340.348	5.061	0.094	-0.069
-339.333	-200.000	0.002	-0.318
-338.318	40.394	0.091	0.082
-337.304	36.954	0.106	-0.094
-336.289	800.000	0.110	0.347
-335.275	-200.000	-0.003	0.156
-334.260	-200.000	0.040	-0.176
-333.245	800.000	-0.030	-0.117
-332.231	-38.911	-0.281	-0.148
-331.216	-95.889	-0.221	-0.059
-330.202	308.608	0.098	0.183
-329.187	-200.000	-0.002	-0.190
-328.172	-8.572	0.073	0.049
-327.158	-200.000	-0.096	0.476
-326.143	-200.000	-0.021	0.157
-325.129	-41.302	-0.496	-0.255
-324.114	-200.000	-0.009	0.117
-323.099	137.102	0.175	0.228
-322.085	-29.798	-0.257	0.146
-321.070	524.214	-0.154	-0.362
-320.056	-92.218	0.277	0.078
-319.041	-45.973	-0.188	0.093
-318.026	-25.524	0.295	-0.174
-317.012	-67.354	-0.047	0.018
-315.997	-200.000	0.036	0.184
-314.983	-63.859	0.287	-0.117
-313.968	-200.000	0.009	-0.257
-312.953	292.876	0.092	0.167
-311.939	-61.318	-0.243	0.102
-310.924	-165.055	-0.210	0.009
-309.910	-138.610	0.098	-0.011
-308.895	675.056	0.156	-0.402
-307.880	-20.251	-0.079	0.049
-306.866	-147.897	0.262	0.022
-305.851	-94.104	-0.160	-0.044
-304.837	188.764	-0.107	-0.159
-303.822	115.775	0.037	-0.046
-302.807	481.100	0.017	0.037
-301.793	-200.000	0.001	0.054
-300.778	800.000	0.056	-0.219
-299.764	-45.931	0.366	0.180
-298.749	-200.000	0.025	-0.138
-297.735	-200.000	-0.011	-0.320
-296.720	-53.860	-0.127	-0.058
-295.705	-92.515	-0.031	-0.009
-294.691	-45.887	0.252	0.124
-293.676	141.883	-0.225	0.296
-292.662	-165.892	0.151	-0.006
-291.647	-47.645	-0.097	-0.047
-290.632	39.456	-0.163	0.146
-289.618	583.651	-0.136	0.332
-288.603	-62.996	-0.226	0.093
-287.589	800.000	-0.099	-0.277
-286.574	2.678	0.289	0.209
-285.559	-132.771	0.303	-0.039
-284.545	62.874	-0.265	-0.264
-283.530	-186.815	-0.430	0.006
-282.516	800.000	0.050	-0.191
-281.501	-3.360	0.233	-0.162
-280.486	-22.375	-0.130	0.079
-279.472	-152.079	-0.477	0.034
-278.457	23.201	-0.127	-0.104
-277.443	357.977	-0.103	0.204
-276.428	-200.000	-0.030	-0.223
-275.413	59.030	-0.036	0.035
-274.399	664.697	-0.122	0.312
-273.384	-198.711	-0.447	-0.002
-272.370	-63.586	-0.348	-0.142
-271.355	224.124	0.222	0.357
-270.340	28.164	-0.069	-0.058
-269.326	-200.000	-0.008	0.112
-268.311	-200.000	0.056	-0.363
-267.297	-200.000	0.005	-0.113
-266.282	66.624	-0.229	0.232
-265.267	-37.861	-0.160	0.084
-264.253	-200.000	-0.010	-0.084
-263.238	-68.757	-0.150	0.058
-262.224	-24.655	0.108	0.064
-261.209	147.007	-0.158	-0.211
-260.195	52.853	0.164	0.156
-259.180	800.000	-0.098	-0.292
-258.165	-200.000	0.038	0.304
-257.151	150.098	0.208	0.280
-256.136	249.201	-0.102	-0.172
-255.122	271.160	-0.162	-0.284
-254.107	-94.637	-0.118	-0.032
-253.092	-118.892	-0.277	-0.048
-252.078	-41.259	0.303	0.155
-251.063	-200.000	0.007	-0.120
-250.049	800.000	-0.061	0.260
-249.034	-46.472	-0.184	-0.090
-248.019	153.914	0.245	-0.333
-247.005	520.041	-0.020	0.047
-245.990	-25.542	0.095	0.056
-244.976	703.226	-0.038	0.099
-243.961	99.956	-0.358	0.413
-242.946	581.740	0.055	0.135
-241.932	-200.000	0.019	-0.249
-240.917	34.773	-0.147	0.128
-239.903	800.000	-0.065	0.269
-238.888	-200.000	-0.049	-0.296
-237.873	257.272	0.211	0.361
-236.859	90.174	-0.095	0.105
-235.844	592.508	0.064	0.157
-234.830	-200.000	0.006	-0.101
-233.815	10.982	0.161	-0.122
-232.800	-200.000	-0.010	0.247
-231.786	-200.000	0.051	-0.384
-230.771	-200.000	0.017	-0.217
-229.757	234.133	0.058	-0.094
-228.742	-54.237	0.088	-0.040
-227.727	-104.442	0.119	0.027
-226.713	421.251	-0.009	-0.020
-225.698	70.411	-0.074	0.076
-224.684	-107.350	-0.230	-0.050
-223.669	-7.843	0.095	0.063
-222.655	800.000	-0.047	0.129
-221.640	-181.908	-0.381	-0.007
-220.625	-200.000	-0.057	-0.348
-219.611	-200.000	0.029	-0.209
-218.596	201.563	0.069	-0.105
-217.582	514.810	0.071	-0.164
-216.567	-107.750	0.131	-0.028
-215.552	-61.103	-0.156	-0.065
-214.538	-146.437	-0.359	0.031
-213.523	-200.000	-0.020	0.222
-212.509	800.000	-0.122	0.385
-211.494	130.187	0.053	0.067
-210.479	785.495	0.074	-0.202
-209.465	638.271	-0.108	0.271
-208.450	14.238	0.154	-0.119
-207.436	-200.000	0.066	0.544
-206.421	-31.133	0.224	0.125
-205.406	-124.757	0.231	-0.035
-204.392	131.210	-0.026	-0.033
-203.377	-200.000	-0.014	0.149
-202.363	12.910	0.189	-0.145
-201.348	717.131	-0.027	-0.072
-200.333	-47.973	-0.292	-0.140
-199.319	-14.442	-0.132	0.084
-198.304	-69.084	0.130	-0.050
-197.290	-174.140	0.372	-0.011
-196.275	609.134	-0.045	-0.113
-195.260	-90.182	0.240	-0.069
-194.246	156.222	0.145	0.199
-193.231	-4.680	0.114	-0.078
-192.217	-95.678	0.163	-0.043
-191.202	82.646	-0.227	-0.244
-190.187	-75.520	-0.158	0.056
-189.173	-200.000	-0.019	-0.291
-188.158	-29.744	0.221	-0.125
-187.144	-200.000	-0.003	-0.146
-186.129	-200.000	-0.022	-0.253
-185.114	33.676	0.264	-0.228
-184.100	66.555	-0.205	-0.207
-183.085	-91.912	-0.446	0.125
-182.071	80.609	-0.102	0.109
-181.056	41.054	-0.244	-0.218
-180.042	800.000	0.101	-0.377
-179.027	181.274	-0.066	0.097
-178.012	800.000	0.166	-0.504
-176.998	-192.581	0.122	0.001
-175.983	-132.622	-0.334	-0.042
-174.969	-96.707	0.295	0.077
-173.954	25.014	0.138	0.114
-172.939	145.613	0.139	-0.184
-171.925	-13.941	-0.290	-0.185
-170.910	25.168	0.159	0.131
-169.896	-116.883	-0.022	-0.004
-168.881	-200.000	-0.006	-0.061
-167.866	800.000	-0.079	-0.272
-166.852	-56.949	-0.172	0.075
-165.837	14.361	0.024	0.019
-164.823	-97.901	0.226	0.058
-163.808	-61.009	-0.282	-0.118
-162.793	154.451	-0.174	0.236
-161.779	-200.000	0.044	0.259
-160.764	-117.875	0.149	0.027
-159.750	7.104	-0.140	0.103
-158.735	-138.114	0.109	0.012
-157.720	310.226	0.099	-0.184
-156.706	65.262	-0.021	0.021
-155.691	359.540	0.172	0.340
-154.677	-200.000	0.014	-0.082
-153.662	-120.329	-0.205	0.035
-152.647	-133.316	-0.211	0.026
-151.633	485.294	0.084	-0.189
-150.618	45.536	0.028	-0.026
-149.604	-200.000	0.089	-0.406
-148.589	54.395	-0.301	-0.287
-147.574	165.212	-0.134	0.188
-146.560	-200.000	0.008	-0.316
-145.545	-121.796	-0.129	0.021
-144.531	-200.000	-0.005	-0.163
-143.516	-42.124	0.115	0.058
-142.502	-158.312	0.166	-0.010
-141.487	-159.223	-0.190	0.011
-140.472	-7.708	-0.246	0.164
-139.458	50.448	-0.037	0.035
-138.443	73.224	0.303	-0.314
-137.429	-99.382	-0.028	-0.007
-136.414	-40.224	-0.131	0.067
-135.399	228.729	0.113	0.182
-134.385	55.144	0.226	0.216
-133.370	12.952	-0.140	-0.107
-132.356	800.000	0.054	-0.214
-131.341	600.417	-0.033	0.080
-130.326	85.522	-0.204	0.221
-129.312	-88.200	-0.078	0.023
-128.297	800.000	0.039	-0.145
-127.283	-111.561	0.110	-0.022
-126.268	-120.936	0.180	-0.030
-125.253	-200.000	-0.345	-0.001
-124.239	761.815	0.061	0.164
-123.224	30.810	-0.107	-0.091
-122.210	-49.121	0.234	-0.111
-121.195	211.434	0.208	-0.323
-120.180	-200.000	0.029	0.178
-119.166	-94.604	0.137	-0.037
-118.151	800.000	-0.052	-0.217
-117.137	174.168	0.138	-0.197
-116.122	-200.000	-0.036	-0.179
-115.107	-113.171	0.335	-0.065
-114.093	-99.019	0.441	0.111
-113.078	-200.000	-0.057	-0.288
-112.064	67.188	0.051	0.052
-111.049	9.427	0.065	0.048
-110.034	754.577	-0.162	-0.433
-109.020	-37.419	-0.353	0.186
-108.005	-140.533	-0.327	0.034
-106.991	-29.042	-0.316	-0.179
-105.976	-136.329	0.193	0.022
-104.962	-36.245	0.252	-0.134
-103.947	92.987	-0.169	-0.189
-102.932	55.913	-0.088	-0.085
-101.918	5.506	0.211	0.154
-100.903	190.413	0.080	0.119
-99.889	100.009	0.186	-0.214
-98.874	44.631	0.101	-0.091
-97.859	-200.000	0.009	0.318
-96.845	18.545	-0.209	0.165
-95.830	5.511	0.053	0.039
-94.816	-87.258	0.192	-0.058
-93.801	483.418	-0.153	-0.344
-92.786	-95.835	0.226	-0.060
-91.772	800.000	0.047	0.201
-90.757	-9.123	-0.085	0.056
-89.743	-200.000	-0.020	0.216
-88.728	-200.000	0.051	-0.000
-87.713	352.022	0.117	-0.230
-86.699	-200.000	-0.059	-0.257
-85.684	-200.000	0.024	-0.360
-84.670	316.713	0.081	0.151
-83.655	137.564	-0.052	-0.068
-82.640	-67.059	-0.222	0.087
-81.626	-200.000	0.013	-0.116
-80.611	-92.849	-0.045	-0.012
-79.597	-200.000	0.008	0.120
-78.582	200.404	0.040	-0.061
-77.567	-129.762	0.269	-0.037
-76.553	473.701	-0.162	0.362
-75.538	800.000	0.099	0.300
-74.524	209.479	0.126	-0.195
-73.509	68.436	-0.077	0.078
-72.494	101.464	-0.240	-0.276
-71.480	-200.000	0.050	0.227
-70.465	-20.483	-0.171	-0.104
-69.451	-180.240	0.355	0.007
-68.436	800.000	0.049	-0.179
-67.422	42.889	0.301	-0.271
-66.407	-149.886	0.037	0.003
-65.392	800.000	-0.032	-0.107
-64.378	-83.149	-0.107	-0.034
-63.363	8.679	0.243	0.181
-62.349	437.043	0.188	0.404
-61.334	130.266	-0.639	-0.807
-60.319	-200.000	0.084	0.511
-59.305	-200.000	-0.053	-0.957
-58.290	137.787	0.661	0.855
-57.276	119.415	0.870	1.062
-56.261	-200.000	97.516	589.702
-55.246	564.890	1382.174	3305.079
-54.232	154.696	2576.364	3491.930
-53.217	116.066	2155.536	2603.773
-52.203	46.754	1614.271	1479.251
-51.188	38.424	1352.095	1188.622
-50.173	35.089	1309.753	1131.688
-49.159	58.884	1358.956	1317.741
-48.144	62.448	1377.546	1357.081
-47.130	38.706	1331.703	1172.199
-46.115	35.023	1313.863	1134.668
-45.100	34.962	1308.806	1129.895
-44.086	34.787	1307.020	1127.274
-43.071	34.713	1304.507	1124.631
-42.057	34.732	1302.414	1122.893
-41.042	34.750	1300.718	1121.491
-40.027	34.895	1299.291	1121.062
-39.013	34.824	1297.455	1119.018
-37.998	34.925	1295.423	1117.815
-36.984	34.883	1294.080	1116.365
-35.969	35.111	1292.035	1115.886
-34.954	34.886	1290.558	1113.256
-33.940	35.011	1289.611	1113.120
-32.925	34.984	1287.949	1111.488
-31.911	35.053	1286.708	1110.770
-30.896	35.068	1284.623	1109.014
-29.881	34.971	1283.821	1107.714
-28.867	35.082	1282.364	1107.055
-27.852	35.101	1280.589	1105.590
-26.838	35.003	1279.720	1104.229
-25.823	35.008	1278.341	1103.029
-24.809	35.085	1276.874	1102.157
-23.794	34.991	1275.517	1100.403
-22.779	35.076	1273.691	1099.275
-21.765	35.053	1273.046	1098.545
-20.750	34.984	1271.722	1096.962
-19.736	34.884	1270.525	1095.311
-18.721	34.850	1269.630	1094.302
-17.706	34.856	1268.314	1093.159
-16.692	34.903	1267.006	1092.257
-15.677	34.853	1265.870	1090.950
-14.663	34.927	1264.714	1090.328
-13.648	34.863	1263.636	1088.994
-12.633	34.908	1262.717	1088.412
-11.619	34.887	1262.013	1087.643
-10.604	34.813	1261.048	1086.351
-9.590	34.901	1259.942	1085.853
-8.575	34.924	1258.891	1085.033
-7.560	34.863	1257.846	1083.744
-6.546	34.869	1257.364	1083.321
-5.531	34.701	1256.810	1081.846
-4.517	34.861	1255.573	1081.644
-3.502	34.878	1254.761	1080.998
-2.487	34.784	1254.328	1080.053
-1.473	34.804	1249.763	1076.193
-0.458	33.142	1234.045	1053.367
0.556	29.818	1215.337	1010.212
1.571	25.435	1219.274	989.317
2.586	24.275	1233.351	994.191
3.600	23.506	1222.108	980.790
4.615	17.259	1149.384	889.743
5.629	7.485	1072.799	782.410
6.644	3.213	1052.607	746.918
7.659	2.815	1050.057	743.117
8.673	2.778	1047.970	741.396
9.688	2.706	1046.850	740.188
10.702	3.120	1045.649	741.274
11.717	8.905	1053.963	775.133
12.731	18.947	1068.407	834.673
13.746	24.851	1076.042	869.338
14.761	26.193	1077.651	877.085
15.775	26.300	1077.004	877.000
16.790	26.130	1076.198	875.442
17.804	26.042	1075.521	874.385
18.819	26.199	1075.070	874.704
19.834	26.331	1075.239	875.403
20.848	26.399	1074.636	875.160
21.863	26.491	1073.769	874.825
22.877	26.349	1073.234	873.624
23.892	26.234	1072.266	872.205
24.907	26.206	1071.862	871.663
25.921	26.306	1070.131	870.659
26.936	26.199	1069.500	869.556
27.950	26.285	1067.579	868.327
28.965	26.109	1066.006	866.130
29.980	26.262	1064.478	865.545
30.994	26.413	1063.764	865.607
32.009	26.431	1062.764	864.803
33.023	26.098	1061.909	862.440
34.038	26.092	1061.237	861.792
35.053	26.337	1060.233	862.068
36.067	26.518	1059.285	862.084
37.082	26.328	1058.840	860.738
38.096	26.447	1058.585	861.020
39.111	26.632	1057.646	861.061
40.126	26.429	1056.126	858.783
41.140	26.084	1054.537	855.782
42.155	26.021	1052.985	854.147
43.169	25.927	1052.397	853.150
44.184	25.904	1051.500	852.241
45.199	25.800	1050.605	850.946
46.213	26.017	1049.868	851.300
47.228	26.139	1049.238	851.287
48.242	26.133	1048.448	850.544
49.257	26.302	1047.756	850.705
50.271	26.382	1047.073	850.449
51.286	26.436	1045.918	849.689
52.301	26.414	1045.028	848.788
53.315	26.276	1044.381	847.541
54.330	26.334	1042.869	846.509
55.344	26.309	1042.720	846.197
56.359	26.323	1041.516	845.211
57.374	25.970	1040.987	843.059
58.388	26.040	1040.074	842.567
59.403	25.920	1039.485	841.455
60.417	25.786	1038.498	839.961
61.432	26.006	1037.470	840.079
62.447	26.014	1037.238	839.851
63.461	26.072	1036.378	839.353
64.476	25.984	1035.296	837.992
65.490	25.979	1033.965	836.817
66.505	26.002	1033.464	836.444
67.520	26.118	1033.081	836.599
68.534	25.831	1032.048	834.361
69.549	25.598	1030.573	832.014
70.563	25.598	1030.176	831.623
71.578	25.509	1029.563	830.643
72.593	25.445	1028.403	829.337
73.607	25.562	1027.933	829.426
74.622	25.766	1027.885	830.254
75.636	25.922	1026.743	829.976
76.651	25.696	1025.582	827.923
77.666	25.595	1025.319	827.172
78.680	25.745	1024.622	827.227
79.695	25.907	1023.861	827.283
80.709	25.897	1023.379	826.775
81.724	25.729	1022.780	825.446
82.739	25.986	1021.679	825.663
83.753	26.279	1021.457	826.752
84.768	26.560	1020.588	827.258
85.782	26.744	1019.702	827.306
86.797	26.545	1018.905	825.679
87.812	26.484	1017.443	824.144
88.826	26.517	1017.038	823.893
89.841	26.585	1016.171	823.428
90.855	26.720	1015.173	823.162
91.870	26.654	1014.209	822.005
92.884	26.454	1013.210	820.215
93.899	26.398	1012.233	819.099
94.914	26.518	1011.913	819.312
95.928	26.440	1010.130	817.441
96.943	26.147	1009.162	815.264
97.957	25.815	1008.328	813.020
98.972	25.809	1007.255	812.056
99.987	26.201	1006.173	812.876
101.001	26.353	1005.636	813.053
102.016	26.331	1004.615	812.060
103.030	26.109	1004.221	810.669
104.045	26.059	1002.787	809.220
105.060	25.916	1002.007	807.874
106.074	26.014	1001.188	807.581
107.089	26.431	1000.511	808.828
108.103	26.250	1000.019	807.552
109.118	25.925	998.697	804.963
110.133	25.968	997.855	804.402
111.147	25.726	996.494	802.157
112.162	25.735	995.621	801.426
113.176	26.017	995.306	802.355
114.191	25.859	994.266	800.741
115.206	25.556	993.173	798.448
116.220	25.614	992.081	797.753
117.235	25.718	991.507	797.685
118.249	25.551	991.072	796.523
119.264	25.672	989.635	795.835
120.279	25.793	989.004	795.789
121.293	25.745	988.441	795.055
122.308	25.729	987.919	794.493
123.322	25.662	986.781	793.211
124.337	25.435	985.347	790.991
125.352	25.084	983.759	788.104
126.366	25.013	983.167	787.249
127.381	25.766	982.897	790.267
128.395	26.173	982.983	792.055
129.410	26.365	981.401	791.549
130.424	26.284	980.783	790.626
131.439	26.246	979.797	789.595
132.454	26.196	979.253	788.870
133.468	26.266	978.156	788.222
134.483	26.302	977.843	788.057
135.497	26.648	977.039	788.846
136.512	26.544	976.213	787.654
137.527	26.426	975.545	786.535
138.541	26.417	974.829	785.849
139.556	26.612	973.734	785.741
140.570	26.600	973.039	785.061
141.585	26.499	972.146	783.831
142.600	26.557	971.089	783.162
143.614	26.820	970.198	783.512
144.629	26.850	969.779	783.232
145.643	26.707	968.459	781.480
146.658	26.478	966.923	779.185
147.673	26.350	966.077	777.883
148.687	26.302	964.745	776.538
149.702	26.209	964.083	775.537
150.716	26.132	963.738	774.858
151.731	26.356	962.594	774.831
152.746	26.571	962.063	775.253
153.760	26.743	961.277	775.289
154.775	26.714	960.825	774.733
155.789	26.659	959.760	773.570
156.804	26.741	958.647	772.955
157.819	26.657	958.276	772.230
158.833	26.697	957.743	771.903
159.848	26.931	956.498	771.823
160.862	26.626	955.334	769.521
161.877	26.558	954.465	768.467
162.892	26.719	953.223	768.079
163.906	26.600	952.352	766.806
164.921	26.575	951.517	765.959
165.935	26.756	950.135	765.544
166.950	26.628	949.491	764.418
167.964	26.696	948.722	764.015
168.979	26.362	948.012	761.969
169.994	26.465	947.333	761.789
171.008	26.710	946.661	762.212
172.023	26.712	945.783	761.449
173.037	26.586	944.273	759.638
174.052	26.377	943.672	758.209
175.067	26.377	943.195	757.760
176.081	26.468	942.780	757.740
177.096	26.384	942.183	756.840
178.110	26.284	940.681	755.151
179.125	26.006	939.951	753.335
180.140	26.006	940.047	753.348
181.154	26.210	939.587	753.761
182.169	26.473	939.549	754.764
183.183	26.677	939.156	755.231
184.198	26.525	938.331	753.867
185.213	26.625	937.504	753.550
186.227	26.613	936.669	752.764
187.242	26.673	935.851	752.288
188.256	26.691	935.675	752.156
189.271	26.742	934.499	751.357
190.286	26.442	933.570	749.302
191.300	25.773	932.186	745.354
192.315	24.934	930.666	740.606
193.329	24.954	929.882	739.997
194.344	25.832	930.933	744.401
195.359	26.457	930.548	746.604
196.373	26.672	929.896	746.904
197.388	26.605	929.457	746.209
198.402	26.539	928.743	745.296
199.417	26.590	928.158	744.971
200.432	26.426	926.961	743.271
201.446	26.153	926.575	741.776
202.461	26.184	926.122	741.474
203.475	25.297	924.333	736.337
204.490	24.561	922.653	731.923
205.504	25.400	923.510	735.974
206.519	26.127	923.129	738.581
207.534	26.115	923.094	738.439
208.548	26.631	922.685	740.155
209.563	26.240	921.920	737.879
210.577	26.209	921.449	737.311
211.592	26.722	920.761	738.789
212.607	26.774	919.911	738.254
213.621	26.766	919.132	737.529
214.636	26.924	917.908	737.124
215.650	26.661	917.712	735.834
216.665	26.806	916.923	735.726
217.680	26.895	916.002	735.281
218.694	26.286	915.332	732.210
219.709	26.176	914.829	731.299
220.723	26.556	914.376	732.410
221.738	26.652	913.795	732.268
222.753	26.472	913.381	731.142
223.767	26.589	913.244	731.443
224.782	26.856	912.847	732.137
225.796	26.783	911.960	731.067
226.811	26.046	910.834	727.128
227.826	25.468	909.130	723.379
228.840	25.779	908.594	724.139
229.855	25.887	907.703	723.798
230.869	25.370	907.118	721.191
231.884	25.740	907.281	722.744
232.899	26.562	907.038	725.786
233.913	26.489	906.328	724.858
234.928	26.423	905.785	724.098
235.942	26.336	905.164	723.186
236.957	26.052	904.314	721.309
237.972	26.096	903.761	720.979
238.986	26.197	903.232	720.899
240.001	26.194	902.789	720.470
241.015	26.436	902.119	720.834
242.030	26.428	901.980	720.627
243.045	26.652	901.306	720.918
244.059	26.637	901.023	720.568
245.074	26.576	899.671	719.181
246.088	26.219	898.812	717.013
247.103	26.541	898.533	718.003
248.117	27.026	898.558	719.883
249.132	27.168	898.354	720.219
250.147	27.440	897.747	720.744
251.161	27.473	897.245	720.411
252.176	27.448	896.875	719.949
253.190	27.435	896.529	719.558
254.205	27.550	896.205	719.686
255.220	27.549	895.439	719.004
256.234	27.594	894.518	718.378
257.249	27.443	893.714	717.076
258.263	27.266	893.290	715.976
259.278	27.303	892.705	715.588
260.293	27.396	892.321	715.585
261.307	27.410	891.163	714.648
262.322	27.192	890.585	713.265
263.336	26.418	888.649	708.619
264.351	25.398	886.857	703.136
265.366	25.626	886.280	703.510
266.380	26.762	886.903	708.384
267.395	27.062	886.601	709.250
268.409	26.937	886.058	708.268
269.424	27.153	885.870	708.898
270.439	27.287	884.965	708.631
271.453	27.241	884.576	708.079
272.468	27.522	884.110	708.737
273.482	27.472	883.854	708.274
274.497	27.143	882.486	705.838
275.512	26.728	881.675	703.514
276.526	27.269	881.734	705.599
277.541	27.305	881.668	705.625
278.555	27.132	880.534	703.982
279.570	26.992	879.854	702.835
280.585	27.094	879.053	702.528
281.599	27.147	878.039	701.858
282.614	26.421	877.138	698.276
283.628	26.518	876.293	697.917
284.643	26.826	876.319	699.063
285.657	26.407	875.359	696.622
286.672	26.104	874.298	694.548
287.687	26.785	874.455	697.231
288.701	26.796	873.770	696.666
289.716	26.468	873.215	694.903
290.730	26.277	872.597	693.617
291.745	26.260	871.342	692.492
292.760	26.501	871.139	693.192
293.774	27.439	871.750	697.212
294.789	27.744	871.475	698.096
295.803	27.843	870.751	697.832
296.818	27.890	870.362	697.639
297.833	27.240	869.579	694.471
298.847	27.222	868.881	693.780
299.862	27.591	868.371	694.718
300.876	27.879	867.943	695.412
301.891	27.722	867.321	694.257
302.906	27.302	866.275	691.759
303.920	27.435	866.046	692.021
304.935	27.865	865.724	693.336
305.949	27.598	865.609	692.170
306.964	27.487	864.509	690.807
307.979	27.451	864.176	690.343
308.993	27.969	863.940	692.056
310.008	27.934	863.224	691.288
311.022	27.608	862.788	689.645
312.037	27.575	861.854	688.713
313.052	27.219	860.646	686.344
314.066	26.244	859.428	681.635
315.081	25.950	858.502	679.730
316.095	26.963	858.663	683.616
317.110	27.349	858.968	685.254
318.125	26.513	857.315	680.730
319.139	25.405	855.759	675.270
320.154	25.457	855.522	675.219
321.168	26.401	856.141	679.198
322.183	27.131	855.980	681.747
323.197	27.204	855.748	681.779
324.212	27.405	855.520	682.288
325.227	27.331	854.805	681.382
326.241	27.480	853.749	681.037
327.256	27.296	853.151	679.813
328.270	27.182	852.742	678.999
329.285	26.997	851.930	677.603
330.300	26.781	851.196	676.153
331.314	27.159	850.759	677.154
332.329	27.374	850.761	677.899
333.343	27.594	850.927	678.790
334.358	27.569	850.476	678.276
335.373	27.780	849.768	678.436
336.387	27.931	850.078	679.183
337.402	27.951	850.040	679.169
338.416	28.065	849.118	678.795
339.431	28.221	848.727	679.002
340.446	28.244	848.613	678.935
341.460	28.187	847.444	677.730
342.475	28.061	847.002	676.851
343.489	27.917	846.824	676.112
344.504	28.349	846.793	677.626
345.519	28.514	846.357	677.829
346.533	28.528	845.492	677.128
347.548	28.548	845.315	676.998
348.562	28.299	845.266	675.980
349.577	28.453	844.405	675.801
350.592	28.353	843.383	674.554
351.606	28.506	842.535	674.381
352.621	28.224	842.008	672.864
353.635	28.094	841.218	671.694
354.650	27.515	839.688	668.288
355.665	26.635	838.203	663.824
356.679	27.088	837.956	665.231
357.694	27.433	837.799	666.309
358.708	27.453	837.134	665.793
359.723	27.715	837.057	666.633
360.738	28.032	836.768	667.501
361.752	28.159	836.306	667.538
362.767	28.562	836.077	668.762
363.781	28.650	835.981	668.947
364.796	28.893	835.080	669.052
365.810	28.946	834.775	668.941
366.825	28.876	834.670	668.546
367.840	28.600	833.652	666.667
368.854	28.020	832.765	663.792
369.869	28.082	832.256	663.555
370.883	28.286	831.951	663.991
371.898	28.119	831.558	663.015
372.913	28.232	831.006	662.923
373.927	28.446	830.747	663.432
374.942	28.406	830.348	662.910
375.956	28.505	830.113	663.023
376.971	28.683	829.449	663.077
377.986	28.826	829.700	663.736
379.000	28.678	829.097	662.659
380.015	28.521	828.254	661.363
381.029	28.544	827.787	661.015
382.044	28.799	826.827	661.106
383.059	28.899	826.174	660.885
384.073	28.878	825.684	660.359
385.088	28.757	825.306	659.565
386.102	28.614	824.177	658.089
387.117	28.594	823.745	657.614
388.132	28.279	822.405	655.361
389.146	27.700	822.048	652.947
390.161	27.925	821.836	653.525
391.175	28.402	821.539	654.938
392.190	28.151	820.398	653.074
393.205	26.646	818.878	646.439
394.219	25.249	816.591	639.601
395.234	25.181	816.367	639.125
396.248	26.664	817.788	645.471
397.263	28.339	818.764	652.153
398.278	28.222	818.318	651.323
399.292	28.033	817.818	650.196
400.307	27.937	817.500	649.543
401.321	28.023	817.238	649.585
402.336	28.533	816.890	651.060
403.350	28.913	816.621	652.137
404.365	29.337	816.215	653.258
405.380	29.659	816.059	654.215
406.394	29.545	815.722	653.485
407.409	29.446	814.987	652.488
408.423	29.378	814.773	652.019
409.438	29.602	814.427	652.473
410.453	29.624	813.943	652.106
411.467	29.504	813.239	651.060
412.482	29.628	812.986	651.239
413.496	29.743	812.679	651.339
414.511	29.516	812.440	650.291
415.526	29.500	811.926	649.765
416.540	29.421	811.235	648.877
417.555	29.106	810.428	647.066
418.569	29.164	810.033	646.901
419.584	29.161	809.174	646.144
420.599	29.152	808.611	645.609
421.613	109.079	1283.174	1443.924
422.628	94.270	1352.309	1444.016
