DTS Sentinel unit serial number:	SN413079Multiplexer serial number:	ORYXHardware model number:	OX4-SRSoftware version number:	ORYX F/W v4.00 Oryx Data Collector v3.7.2.0data status	okinstallation	princeton_trtdifferential loss correction	single-endedforward channel	channel 1reverse channel	N/Adate	2019/09/18time	14:54:35forward acquisition time	60.00reverse acquisition time	0.00gamma	496.2192k internal	0.2307k external	0.2307temperature offset calibration	0.9995default loss term (dB/km)	0.3790temperature slope calibration	1.0000multiplexer offset coefficient	1.0000multiplexer slope coefficient	1.0000fibre end	0.00T internal ref (°C)	35.17T ext. ref 1 (°C)	0.72T ext. ref 2 (°C)	30.34length (m)	temperature (°C)	Stokes	anti-Stokes-747.200	-10.185	0.131	-0.088
-746.185	800.000	-0.062	0.248
-745.171	-8.308	-0.180	0.123
-744.156	-200.000	0.019	0.449
-743.142	-28.531	0.063	0.037
-742.127	3.057	0.206	0.152
-741.112	-73.714	0.291	0.108
-740.098	217.838	-0.015	0.025
-739.083	-70.739	0.115	-0.044
-738.069	-200.000	-0.020	-0.138
-737.054	19.178	0.250	0.204
-736.039	-200.000	0.047	0.325
-735.025	626.532	0.026	0.066
-734.010	-153.521	-0.309	-0.022
-732.996	-113.808	0.361	0.071
-731.981	90.339	-0.402	-0.457
-730.966	800.000	-0.103	-0.412
-729.952	-62.590	0.175	-0.074
-728.937	46.957	0.068	-0.065
-727.923	198.874	-0.133	0.207
-726.908	-87.158	0.217	-0.067
-725.894	800.000	-0.114	-0.440
-724.879	800.000	0.062	0.238
-723.864	-16.709	0.138	-0.089
-722.850	-23.888	0.178	-0.108
-721.835	800.000	-0.024	-0.080
-720.821	115.902	0.196	0.244
-719.806	26.077	-0.182	-0.155
-718.791	772.344	-0.161	-0.445
-717.777	-22.440	-0.032	-0.020
-716.762	95.755	0.079	-0.091
-715.748	42.937	-0.221	-0.204
-714.733	-200.000	0.025	0.290
-713.718	-200.000	0.050	-0.361
-712.704	190.535	-0.233	-0.356
-711.689	48.041	0.150	-0.142
-710.675	2.144	0.028	0.021
-709.660	58.075	0.233	-0.232
-708.645	-15.050	-0.228	-0.148
-707.631	627.005	0.131	0.335
-706.616	-200.000	0.032	0.374
-705.602	143.087	0.223	0.301
-704.587	-142.924	0.474	-0.047
-703.572	-200.000	0.034	-0.321
-702.558	-200.000	0.008	-0.079
-701.543	99.263	0.102	-0.120
-700.529	-9.526	0.359	0.243
-699.514	-188.530	-0.206	0.003
-698.499	-122.212	0.112	-0.019
-697.485	-12.896	0.387	0.256
-696.470	-80.009	0.211	0.072
-695.456	-57.886	0.090	0.040
-694.441	800.000	-0.129	-0.377
-693.426	-67.636	0.337	-0.134
-692.412	-88.908	0.283	-0.085
-691.397	191.196	-0.165	-0.252
-690.383	319.336	0.084	-0.162
-689.368	-64.563	-0.056	-0.023
-688.354	-121.277	-0.382	-0.065
-687.339	66.816	-0.284	-0.294
-686.324	-127.220	-0.175	-0.026
-685.310	-108.580	0.083	-0.018
-684.295	-181.487	-0.469	0.009
-683.281	-102.546	0.363	0.088
-682.266	-200.000	0.018	0.257
-681.251	800.000	-0.028	-0.085
-680.237	-139.405	-0.149	-0.016
-679.222	-115.553	0.179	0.034
-678.208	188.869	0.181	-0.274
-677.193	-85.640	-0.159	0.050
-676.178	-200.000	0.010	0.096
-675.164	145.736	0.037	-0.051
-674.149	85.397	0.126	-0.141
-673.135	64.590	0.025	-0.025
-672.120	219.095	0.083	0.134
-671.105	-17.313	-0.132	-0.084
-670.091	-11.018	-0.240	0.160
-669.076	-200.000	-0.023	-0.139
-668.062	-56.936	-0.191	-0.085
-667.047	-73.501	0.098	0.036
-666.032	-200.000	0.007	-0.246
-665.018	-16.707	-0.374	0.240
-664.003	117.107	-0.242	0.302
-662.989	800.000	-0.086	-0.320
-661.974	82.447	-0.097	0.106
-660.959	800.000	0.108	-0.411
-659.945	-48.213	-0.271	-0.132
-658.930	-200.000	-0.052	-0.380
-657.916	-61.286	-0.105	-0.045
-656.901	-200.000	-0.002	0.327
-655.886	-163.939	-0.282	0.013
-654.872	-199.108	0.121	-0.001
-653.857	-64.774	0.157	0.064
-652.843	69.016	-0.134	0.139
-651.828	-163.650	0.206	-0.010
-650.814	-200.000	-0.064	0.297
-649.799	-73.104	0.157	0.058
-648.784	160.250	0.140	-0.198
-647.770	800.000	0.035	0.155
-646.755	800.000	-0.040	0.138
-645.741	-104.290	-0.145	-0.034
-644.726	-80.617	-0.423	0.143
-643.711	353.685	0.044	0.089
-642.697	374.408	0.071	-0.147
-641.682	534.313	0.153	-0.366
-640.668	-38.128	-0.244	-0.131
-639.653	-101.617	-0.245	-0.060
-638.638	-99.441	-0.252	0.064
-637.624	-51.268	0.153	0.072
-636.609	800.000	0.031	0.126
-635.595	38.903	0.258	0.234
-634.580	35.928	0.104	-0.092
-633.565	153.089	0.067	-0.093
-632.551	-200.000	-0.007	0.049
-631.536	-159.316	-0.085	0.005
-630.522	-200.000	0.008	0.196
-629.507	-200.000	-0.013	0.271
-628.492	-64.820	0.167	-0.068
-627.478	-200.000	0.019	-0.171
-626.463	300.323	-0.066	-0.123
-625.449	364.297	-0.135	0.274
-624.434	-30.793	-0.104	-0.060
-623.419	-56.983	0.042	-0.019
-622.405	55.863	0.449	0.440
-621.390	672.002	0.046	-0.121
-620.376	-148.703	-0.246	0.020
-619.361	9.205	-0.356	-0.272
-618.346	-59.110	0.196	0.085
-617.332	-39.531	0.244	-0.130
-616.317	-70.191	-0.224	0.086
-615.303	88.187	-0.209	0.235
-614.288	-72.393	-0.239	-0.089
-613.273	-168.071	0.216	-0.009
-612.259	212.201	0.087	0.139
-611.244	463.606	-0.063	0.143
-610.230	1.540	0.255	-0.186
-609.215	-70.835	0.335	-0.128
-608.201	582.826	-0.087	-0.217
-607.186	-57.297	-0.156	-0.069
-606.171	-105.293	0.158	-0.036
-605.157	-59.824	0.086	-0.037
-604.142	-155.886	-0.367	-0.024
-603.128	-180.746	-0.271	0.006
-602.113	-42.581	0.189	0.098
-601.098	-200.000	-0.064	-0.300
-600.084	128.435	-0.072	-0.092
-599.069	22.913	-0.194	0.161
-598.055	-200.000	0.015	-0.138
-597.040	-27.573	-0.248	0.146
-596.025	-200.000	-0.015	-0.141
-595.011	252.732	-0.163	0.280
-593.996	-51.553	-0.265	-0.125
-592.982	-33.139	0.315	-0.176
-591.967	-200.000	0.093	-0.514
-590.952	-24.656	-0.224	-0.135
-589.938	76.387	-0.069	0.074
-588.923	-123.823	-0.331	-0.053
-587.909	-112.551	-0.169	-0.034
-586.894	-191.289	-0.139	0.001
-585.879	-18.582	-0.181	-0.114
-584.865	148.595	0.038	-0.051
-583.850	-174.111	-0.319	-0.009
-582.836	-200.000	0.016	-0.152
-581.821	-39.113	-0.080	0.043
-580.806	-58.429	-0.434	-0.191
-579.792	-91.649	-0.117	-0.034
-578.777	524.171	0.006	0.014
-577.763	-200.000	0.019	0.215
-576.748	162.675	-0.149	-0.211
-575.733	-200.000	-0.009	0.370
-574.719	-53.383	-0.012	0.006
-573.704	795.504	-0.060	0.166
-572.690	-200.000	-0.011	-0.124
-571.675	-200.000	0.011	0.055
-570.661	800.000	-0.088	0.313
-569.646	-89.497	0.077	0.023
-568.631	-3.219	-0.234	-0.164
-567.617	108.320	-0.128	0.155
-566.602	-87.754	-0.375	-0.114
-565.588	-46.605	0.247	0.122
-564.573	800.000	-0.035	-0.107
-563.558	-123.856	0.338	-0.054
-562.544	-102.413	0.184	0.044
-561.529	-200.000	-0.045	0.239
-560.515	800.000	-0.062	0.260
-559.500	800.000	-0.014	-0.045
-558.485	48.678	0.333	0.316
-557.471	800.000	0.031	0.106
-556.456	33.269	-0.123	0.108
-555.442	108.667	0.145	0.175
-554.427	-200.000	-0.029	-0.141
-553.412	447.621	0.092	0.204
-552.398	21.799	0.186	-0.153
-551.383	-160.178	0.113	0.006
-550.369	800.000	0.050	0.208
-549.354	84.877	0.094	-0.103
-548.339	387.914	0.119	-0.248
-547.325	-164.511	0.192	-0.009
-546.310	-161.508	0.107	-0.006
-545.296	-2.005	-0.036	-0.025
-544.281	-41.219	-0.287	0.149
-543.266	172.811	0.054	-0.078
-542.252	144.348	-0.123	0.166
-541.237	-48.979	-0.201	-0.097
-540.223	32.478	0.116	-0.101
-539.208	613.058	0.171	0.431
-538.193	444.320	-0.064	-0.143
-537.179	-34.879	0.043	-0.024
-536.164	336.714	-0.066	-0.130
-535.150	-200.000	-0.110	-0.562
-534.135	96.293	0.350	-0.404
-533.121	800.000	0.042	-0.173
-532.106	-72.969	0.070	0.026
-531.091	-200.000	0.016	0.162
-530.077	-200.000	-0.298	-0.000
-529.062	18.171	0.178	0.144
-528.048	-102.188	0.154	0.037
-527.033	-71.631	-0.183	0.069
-526.018	369.625	-0.125	0.255
-525.004	248.645	-0.103	-0.176
-523.989	233.805	0.166	0.275
-522.975	-170.147	-0.227	0.008
-521.960	16.332	0.282	0.224
-520.945	-40.367	0.146	-0.076
-519.931	101.093	-0.136	0.159
-518.916	-200.000	-0.043	-0.285
-517.902	-40.527	-0.179	0.094
-516.887	-11.906	-0.382	-0.253
-515.872	-81.835	0.209	0.069
-514.858	425.699	0.071	0.155
-513.843	27.683	-0.254	0.216
-512.829	-123.045	-0.240	0.039
-511.814	92.847	0.115	0.131
-510.799	-200.000	-0.007	0.105
-509.785	-200.000	-0.018	0.243
-508.770	343.287	-0.041	-0.081
-507.756	-43.013	0.104	0.053
-506.741	800.000	-0.093	-0.335
-505.726	61.861	0.039	0.039
-504.712	-56.000	-0.138	0.062
-503.697	120.412	-0.315	0.394
-502.683	-19.084	-0.298	-0.186
-501.668	-44.601	0.344	0.173
-500.653	51.175	-0.210	0.201
-499.639	-200.000	-0.000	0.011
-498.624	-132.974	0.133	0.017
-497.610	146.026	-0.080	0.109
-496.595	138.644	0.137	0.181
-495.581	8.257	0.254	0.192
-494.566	135.968	-0.251	-0.329
-493.551	9.804	-0.116	0.089
-492.537	17.168	0.230	-0.184
-491.522	41.377	0.092	0.083
-490.508	-198.914	-0.176	0.001
-489.493	-61.190	0.571	-0.242
-488.478	-63.407	0.163	0.067
-487.464	314.228	-0.015	-0.028
-486.449	800.000	0.018	0.053
-485.435	800.000	-0.041	-0.118
-484.420	-83.850	-0.207	-0.067
-483.405	104.949	-0.121	-0.144
-482.391	142.193	-0.326	-0.436
-481.376	-200.000	0.021	0.179
-480.362	-200.000	-0.050	-0.249
-479.347	-200.000	-0.012	-0.057
-478.332	-118.778	-0.142	-0.025
-477.318	-113.733	0.114	-0.022
-476.303	207.759	-0.138	0.218
-475.289	-1.768	0.129	0.091
-474.274	-187.563	-0.249	-0.003
-473.259	-200.000	0.018	0.184
-472.245	-200.000	0.036	0.275
-471.230	-21.018	0.229	0.141
-470.216	128.843	0.052	-0.067
-469.201	-37.780	-0.237	0.127
-468.186	101.068	0.136	-0.159
-467.172	107.931	0.053	-0.063
-466.157	46.023	0.153	0.143
-465.143	-200.000	0.026	-0.186
-464.128	800.000	-0.092	-0.369
-463.113	-200.000	0.013	0.106
-462.099	0.885	-0.127	0.092
-461.084	-51.440	-0.237	-0.111
-460.070	-123.500	0.363	0.058
-459.055	800.000	-0.020	0.071
-458.040	105.915	-0.149	0.178
-457.026	158.578	-0.093	-0.130
-456.011	-200.000	-0.014	0.317
-454.997	-57.496	-0.224	-0.099
-453.982	-109.000	0.420	-0.090
-452.968	-200.000	0.030	-0.145
-451.953	-5.123	-0.168	0.116
-450.938	-200.000	0.002	0.173
-449.924	800.000	-0.083	-0.250
-448.909	6.445	0.151	0.113
-447.895	121.610	0.166	0.208
-446.880	800.000	0.027	-0.098
-445.865	35.345	-0.268	-0.236
-444.851	-200.000	0.003	-0.121
-443.836	-150.386	-0.164	0.013
-442.822	-73.310	0.270	-0.099
-441.807	-100.794	0.093	0.023
-440.792	134.315	-0.096	-0.125
-439.778	517.327	-0.053	0.125
-438.763	131.491	-0.207	0.268
-437.749	46.471	0.213	-0.198
-436.734	749.846	-0.060	0.163
-435.719	-200.000	-0.187	0.001
-434.705	800.000	0.086	-0.366
-433.690	-200.000	0.019	-0.102
-432.676	800.000	0.098	-0.387
-431.661	393.653	0.077	0.160
-430.646	-69.564	-0.271	0.104
-429.632	800.000	-0.015	-0.046
-428.617	11.310	0.267	-0.205
-427.603	-68.048	0.113	-0.044
-426.588	-172.852	-0.239	-0.007
-425.573	372.582	0.128	0.262
-424.559	-54.165	-0.207	-0.095
-423.544	-107.541	0.270	0.059
-422.530	-200.000	-0.077	-0.405
-421.515	800.000	0.109	0.318
-420.500	-109.165	-0.335	0.072
-419.486	-0.955	-0.193	-0.137
-418.471	-136.534	-0.193	-0.022
-417.457	-0.916	-0.163	-0.116
-416.442	10.840	-0.172	0.132
-415.428	-45.385	0.272	0.135
-414.413	-98.241	-0.253	-0.065
-413.398	-129.356	0.175	-0.024
-412.384	-32.269	-0.438	-0.245
-411.369	-200.000	-0.015	0.109
-410.355	-200.000	0.009	-0.211
-409.340	-20.714	0.080	0.049
-408.325	110.826	0.198	-0.239
-407.311	-138.885	-0.148	0.016
-406.296	13.289	-0.489	-0.380
-405.282	-200.000	0.001	0.023
-404.267	280.352	-0.074	-0.133
-403.252	-200.000	-0.013	0.142
-402.238	-200.000	-0.107	0.479
-401.223	-200.000	-0.010	0.334
-400.209	151.905	-0.087	-0.119
-399.194	-64.893	-0.240	-0.097
-398.179	-37.864	0.320	0.171
-397.165	-200.000	0.001	0.094
-396.150	-85.976	-0.281	0.087
-395.136	-94.879	0.039	0.010
-394.121	4.799	0.147	0.109
-393.106	800.000	0.050	0.196
-392.092	800.000	0.070	-0.232
-391.077	322.416	0.079	-0.151
-390.063	-135.524	0.152	-0.018
-389.048	175.117	0.083	-0.121
-388.033	94.760	0.224	0.255
-387.019	24.074	-0.276	0.228
-386.004	42.573	0.132	0.121
-384.990	311.592	-0.059	-0.110
-383.975	144.133	0.117	-0.156
-382.960	331.069	-0.088	-0.171
-381.946	-42.259	-0.292	0.150
-380.931	100.514	-0.250	0.292
-379.917	-44.952	0.256	0.128
-378.902	469.158	-0.025	-0.056
-377.888	-34.796	0.247	-0.135
-376.873	-200.000	0.047	-0.240
-375.858	-95.962	0.208	0.055
-374.844	-159.542	-0.175	0.010
-373.829	-200.000	0.040	0.209
-372.815	-46.889	-0.136	-0.067
-371.800	-83.004	0.066	0.021
-370.785	7.903	0.050	-0.037
-369.771	-102.583	-0.353	-0.084
-368.756	139.134	0.054	0.071
-367.742	-200.000	-0.073	-0.385
-366.727	125.314	-0.187	0.236
-365.712	-51.040	-0.114	0.054
-364.698	14.553	-0.187	-0.147
-363.683	-200.000	0.087	0.395
-362.669	388.233	-0.144	0.298
-361.654	-56.353	-0.292	0.130
-360.639	148.092	-0.167	0.225
-359.625	-44.242	0.357	-0.180
-358.610	-200.000	-0.036	-0.252
-357.596	-57.443	-0.258	-0.114
-356.581	80.443	-0.144	0.155
-355.566	-13.472	-0.161	0.105
-354.552	-48.888	-0.304	-0.146
-353.537	-200.000	0.034	0.197
-352.523	234.566	0.099	0.163
-351.508	134.722	0.040	0.051
-350.493	25.125	0.192	0.159
-349.479	-6.957	0.178	-0.121
-348.464	-55.402	0.526	-0.236
-347.450	-51.237	0.213	0.100
-346.435	33.942	0.262	-0.228
-345.420	-200.000	0.025	-0.162
-344.406	-76.736	0.221	-0.078
-343.391	-13.392	-0.296	0.193
-342.377	184.275	-0.101	0.150
-341.362	-93.569	0.085	0.023
-340.348	800.000	0.142	-0.404
-339.333	-0.609	0.066	0.047
-338.318	-200.000	-0.086	0.385
-337.304	-90.237	-0.024	-0.007
-336.289	800.000	0.017	-0.048
-335.275	-114.619	0.167	-0.032
-334.260	-200.000	0.016	-0.105
-333.245	-170.698	0.432	0.015
-332.231	190.618	0.113	0.170
-331.216	242.397	0.142	-0.237
-330.202	-3.833	0.153	0.106
-329.187	183.737	0.146	0.216
-328.172	16.515	0.302	0.238
-327.158	-200.000	-0.008	0.222
-326.143	225.860	-0.200	-0.325
-325.129	272.474	-0.140	-0.247
-324.114	241.826	0.113	-0.189
-323.099	-200.000	0.007	-0.154
-322.085	396.343	-0.222	-0.464
-321.070	78.721	0.155	-0.165
-320.056	-200.000	0.034	-0.226
-319.041	33.831	0.095	-0.083
-318.026	291.788	0.086	0.156
-317.012	-74.634	0.074	-0.026
-315.997	-31.557	0.346	0.194
-314.983	-154.445	-0.171	-0.011
-313.968	800.000	0.143	0.604
-312.953	-17.438	0.159	0.100
-311.939	512.651	0.093	-0.216
-310.924	585.259	-0.061	-0.150
-309.910	43.091	-0.219	0.200
-308.895	-71.416	0.168	0.063
-307.880	-71.718	0.141	-0.052
-306.866	343.081	0.102	-0.200
-305.851	343.026	-0.085	-0.166
-304.837	330.546	-0.048	0.092
-303.822	65.295	-0.260	-0.263
-302.807	8.489	-0.209	0.157
-301.793	468.391	0.092	0.207
-300.778	128.356	-0.030	0.038
-299.764	-200.000	-0.047	0.328
-298.749	47.740	-0.130	-0.121
-297.735	-4.871	-0.143	0.099
-296.720	131.723	0.126	-0.161
-295.705	-49.105	0.238	0.114
-294.691	65.421	0.187	0.189
-293.676	309.407	0.095	-0.178
-292.662	-132.736	0.103	0.013
-291.647	187.935	0.165	-0.247
-290.632	800.000	0.089	-0.277
-289.618	127.895	0.139	-0.176
-288.603	800.000	-0.056	-0.201
-287.589	800.000	0.046	0.152
-286.574	-20.760	0.110	0.067
-285.559	-200.000	-0.025	-0.325
-284.545	-79.552	0.257	-0.087
-283.530	800.000	-0.114	-0.315
-282.516	41.488	0.076	0.068
-281.501	800.000	0.092	-0.321
-280.486	800.000	-0.053	-0.198
-279.472	8.664	0.139	0.105
-278.457	-156.401	-0.351	0.022
-277.443	-85.176	-0.193	-0.060
-276.428	20.093	0.308	0.248
-275.413	39.438	0.382	0.342
-274.399	-141.445	-0.304	-0.031
-273.384	-200.000	0.017	0.365
-272.370	-200.000	0.128	0.001
-271.355	-136.338	-0.400	0.047
-270.340	-73.921	0.150	-0.055
-269.326	112.894	-0.242	0.292
-268.311	800.000	-0.024	-0.073
-267.297	-146.649	0.370	0.032
-266.282	-136.643	0.312	-0.036
-265.267	800.000	-0.055	-0.219
-264.253	19.459	0.034	0.027
-263.238	253.510	-0.148	-0.252
-262.224	800.000	-0.036	-0.136
-261.209	95.646	0.152	-0.173
-260.195	301.146	0.115	-0.212
-259.180	-13.146	-0.097	0.063
-258.165	15.683	0.070	0.055
-257.151	594.510	-0.064	-0.157
-256.136	41.053	0.267	-0.241
-255.122	-200.000	0.016	0.079
-254.107	234.692	-0.263	-0.433
-253.092	61.152	-0.092	0.091
-252.078	-139.825	-0.060	0.006
-251.063	-158.652	-0.227	0.013
-250.049	-16.595	-0.296	0.187
-249.034	144.542	0.286	-0.381
-248.019	160.532	0.192	-0.268
-247.005	-200.000	0.021	0.332
-245.990	-200.000	0.009	0.223
-244.976	340.258	0.024	-0.048
-243.961	-200.000	-0.017	-0.238
-242.946	-110.799	0.192	0.039
-241.932	-200.000	0.013	0.512
-240.917	-154.755	0.174	-0.011
-239.903	800.000	0.062	-0.198
-238.888	-120.695	0.051	-0.009
-237.873	-200.000	0.008	0.129
-236.859	-179.006	-0.275	0.006
-235.844	800.000	0.084	0.298
-234.830	-200.000	-0.020	-0.123
-233.815	-200.000	0.003	-0.044
-232.800	-200.000	-0.007	0.144
-231.786	-200.000	0.029	-0.269
-230.771	-200.000	0.027	-0.141
-229.757	-58.168	0.284	-0.123
-228.742	615.501	0.023	-0.057
-227.727	-86.586	0.053	-0.016
-226.713	-182.576	0.281	0.005
-225.698	-5.615	-0.516	0.352
-224.684	-82.621	0.049	-0.016
-223.669	39.171	0.143	-0.127
-222.655	298.312	0.126	0.231
-221.640	-26.078	0.167	-0.098
-220.625	674.347	0.025	0.064
-219.611	-72.782	-0.091	-0.033
-218.596	65.071	0.088	0.089
-217.582	660.489	0.038	-0.097
-216.567	136.030	0.192	0.249
-215.552	-44.846	-0.079	-0.039
-214.538	39.397	0.284	-0.253
-213.523	65.168	0.131	0.132
-212.509	1.075	-0.346	0.247
-211.494	-156.731	0.250	0.015
-210.479	800.000	-0.038	-0.157
-209.465	-172.644	-0.178	0.006
-208.450	-109.102	0.352	-0.075
-207.436	-200.000	-0.082	0.448
-206.421	-170.905	-0.276	-0.009
-205.406	-113.795	-0.203	0.039
-204.392	-200.000	0.248	0.000
-203.377	-200.000	-0.040	0.214
-202.363	448.929	0.049	0.108
-201.348	-121.028	0.240	-0.040
-200.333	93.631	0.178	0.201
-199.319	-45.040	-0.138	-0.068
-198.304	107.628	0.155	-0.184
-197.290	-200.000	0.009	0.072
-196.275	24.016	-0.140	-0.115
-195.260	-131.365	0.109	0.014
-194.246	671.803	-0.213	0.550
-193.231	-126.594	-0.264	0.039
-192.217	800.000	0.090	-0.366
-191.202	-200.000	0.052	-0.229
-190.187	176.594	0.171	0.247
-189.173	-90.273	0.293	0.085
-188.158	-4.749	0.160	-0.110
-187.144	197.237	-0.162	-0.246
-186.129	67.762	0.155	-0.158
-185.114	72.655	-0.079	0.082
-184.100	310.576	-0.074	0.137
-183.085	123.142	-0.061	-0.076
-182.071	-72.743	-0.192	-0.071
-181.056	218.303	-0.038	0.061
-180.042	-74.300	-0.100	-0.036
-179.027	-12.427	0.130	0.085
-178.012	-17.989	-0.315	-0.197
-176.998	-25.859	-0.196	-0.115
-175.983	-132.081	0.258	0.033
-174.969	370.573	0.189	0.380
-173.954	94.227	-0.137	-0.155
-172.939	-200.000	0.014	0.218
-171.925	-64.070	0.343	-0.139
-170.910	-13.574	-0.309	0.199
-169.896	15.953	-0.069	0.054
-168.881	800.000	-0.094	-0.341
-167.866	800.000	0.045	-0.160
-166.852	-137.292	0.279	0.032
-165.837	-78.077	0.120	-0.041
-164.823	510.075	0.045	0.105
-163.808	-108.762	-0.211	0.045
-162.793	-128.243	-0.145	0.021
-161.779	23.926	0.253	0.207
-160.764	-148.494	0.357	0.029
-159.750	75.400	0.316	0.331
-158.735	-44.392	0.107	0.053
-157.720	-102.099	-0.191	-0.046
-156.706	800.000	-0.036	0.124
-155.691	-61.705	0.144	0.060
-154.677	-200.000	0.000	-0.176
-153.662	800.000	-0.149	-0.536
-152.647	-26.183	-0.077	-0.045
-151.633	800.000	-0.076	0.224
-150.618	-67.928	-0.210	0.081
-149.604	-69.073	0.248	0.095
-148.589	15.186	0.101	0.079
-147.574	11.063	-0.104	-0.079
-146.560	-161.789	0.169	0.009
-145.545	71.368	-0.121	0.125
-144.531	61.055	0.014	-0.014
-143.516	-200.000	0.038	0.316
-142.502	-119.719	-0.101	0.017
-141.487	-37.166	-0.270	-0.144
-140.472	-43.656	-0.233	-0.117
-139.458	-200.000	0.025	-0.126
-138.443	4.845	-0.192	-0.140
-137.429	164.447	0.044	0.062
-136.414	-200.000	0.018	0.116
-135.399	800.000	0.030	0.095
-134.385	-200.000	0.015	0.137
-133.370	322.249	-0.166	0.313
-132.356	800.000	-0.038	-0.117
-131.341	574.886	0.133	-0.322
-130.326	-200.000	-0.006	-0.229
-129.312	-26.809	0.671	0.389
-128.297	-200.000	-0.016	0.227
-127.283	163.718	-0.134	-0.187
-126.268	800.000	0.054	-0.169
-125.253	265.812	-0.135	0.233
-124.239	573.830	0.041	-0.099
-123.224	-200.000	0.012	0.302
-122.210	-143.771	0.168	0.016
-121.195	-200.000	-0.012	-0.177
-120.180	-64.519	-0.189	0.076
-119.166	128.587	-0.112	0.142
-118.151	-200.000	-0.019	0.344
-117.137	-62.928	-0.036	-0.015
-116.122	52.166	-0.041	-0.039
-115.107	105.007	0.316	0.370
-114.093	124.123	-0.081	-0.101
-113.078	800.000	-0.048	0.137
-112.064	-200.000	0.016	-0.077
-111.049	-200.000	0.031	0.264
-110.034	-200.000	0.026	0.332
-109.020	-61.389	0.075	-0.031
-108.005	-200.000	0.060	-0.321
-106.991	-157.644	-0.254	-0.015
-105.976	184.074	0.045	-0.066
-104.962	-112.835	0.166	-0.033
-103.947	67.888	-0.136	-0.138
-102.932	-101.244	0.346	0.084
-101.918	38.436	0.069	-0.061
-100.903	-39.301	0.192	-0.100
-99.889	800.000	-0.048	0.198
-98.874	-25.252	-0.210	0.124
-97.859	-79.245	-0.133	0.045
-96.845	-27.355	0.214	0.124
-95.830	58.896	0.147	0.143
-94.816	-110.273	0.159	-0.033
-93.801	7.470	-0.098	0.073
-92.786	17.951	0.111	0.088
-91.772	-174.640	-0.133	-0.004
-90.757	435.211	0.051	0.109
-89.743	-119.526	-0.041	0.007
-88.728	-200.000	0.032	0.295
-87.713	339.316	-0.169	0.327
-86.699	800.000	-0.072	0.289
-85.684	-170.590	-0.342	-0.012
-84.670	800.000	0.032	0.120
-83.655	800.000	-0.130	0.503
-82.640	321.490	-0.146	0.275
-81.626	179.260	-0.015	-0.022
-80.611	285.728	-0.112	0.200
-79.597	397.751	0.064	-0.132
-78.582	13.950	0.421	0.325
-77.567	-6.361	0.133	0.090
-76.553	582.599	-0.012	0.030
-75.538	-200.000	-0.009	0.367
-74.524	430.994	-0.101	0.217
-73.509	-200.000	0.013	0.146
-72.494	433.829	0.095	0.205
-71.480	-149.700	0.096	0.008
-70.465	800.000	0.076	0.303
-69.451	141.143	-0.124	0.163
-68.436	800.000	-0.063	-0.232
-67.422	-29.465	0.230	0.130
-66.407	52.488	-0.021	0.020
-65.392	65.123	-0.261	0.261
-64.378	187.578	0.177	0.262
-63.363	-200.000	0.013	0.345
-62.349	-78.654	0.234	-0.079
-61.334	31.707	-0.871	-0.742
-60.319	68.963	0.561	0.571
-59.305	-200.000	0.001	-0.851
-58.290	187.085	0.536	0.791
-57.276	307.483	0.799	1.475
-56.261	-200.000	94.678	553.024
-55.246	518.349	1408.429	3263.535
-54.232	145.667	2630.015	3488.282
-53.217	112.825	2222.526	2665.020
-52.203	46.899	1664.858	1531.800
-51.188	38.589	1396.262	1232.611
-50.173	35.288	1353.129	1174.308
-49.159	54.903	1400.777	1338.356
-48.144	58.508	1419.428	1378.603
-47.130	38.835	1373.500	1213.845
-46.115	35.280	1355.758	1176.356
-45.100	35.222	1350.440	1171.342
-44.086	35.042	1348.470	1168.485
-43.071	34.994	1345.790	1165.826
-42.057	35.076	1343.529	1164.318
-41.042	35.100	1342.287	1163.340
-40.027	35.009	1341.059	1161.678
-39.013	35.056	1338.878	1160.027
-37.998	34.991	1337.145	1158.086
-36.984	35.191	1334.757	1157.179
-35.969	35.244	1333.221	1156.122
-34.954	35.269	1331.126	1154.409
-33.940	35.252	1330.074	1153.349
-32.925	35.268	1328.616	1152.137
-31.911	35.249	1327.226	1150.774
-30.896	35.287	1325.685	1149.620
-29.881	35.236	1324.466	1148.213
-28.867	35.359	1322.698	1147.369
-27.852	35.400	1321.173	1146.247
-26.838	35.207	1319.976	1144.009
-25.823	35.312	1318.402	1143.226
-24.809	35.277	1317.424	1142.123
-23.794	35.244	1315.777	1140.451
-22.779	35.172	1314.556	1138.924
-21.765	35.339	1313.244	1138.734
-20.750	35.180	1312.102	1136.752
-19.736	35.198	1310.523	1135.448
-18.721	35.106	1309.522	1133.987
-17.706	35.082	1307.972	1132.458
-16.692	35.207	1306.131	1131.562
-15.677	35.085	1305.871	1130.569
-14.663	35.122	1304.611	1129.648
-13.648	35.056	1303.548	1128.295
-12.633	35.041	1302.721	1127.446
-11.619	35.097	1301.623	1126.783
-10.604	35.114	1300.812	1126.137
-9.590	35.137	1299.887	1125.424
-8.575	35.003	1299.389	1124.162
-7.560	35.084	1298.172	1123.542
-6.546	35.114	1297.230	1122.855
-5.531	35.094	1295.776	1121.434
-4.517	34.997	1295.330	1120.438
-3.502	35.078	1294.700	1120.324
-2.487	35.132	1293.467	1119.526
-1.473	35.136	1289.166	1115.780
-0.458	33.864	1274.214	1095.470
0.556	28.783	1254.851	1051.947
1.571	23.890	1259.451	1027.512
2.586	22.092	1273.014	1027.974
3.600	20.785	1261.078	1010.669
4.615	15.330	1185.387	920.075
5.629	5.973	1104.985	809.540
6.644	1.113	1082.880	768.675
7.659	0.579	1081.242	764.739
8.673	0.626	1079.321	763.552
9.688	0.563	1078.452	762.553
10.702	0.860	1076.446	762.561
11.717	6.154	1083.595	794.365
12.731	14.542	1094.877	845.232
13.746	17.783	1098.086	864.078
14.761	17.406	1096.844	861.116
15.775	16.515	1095.554	855.519
16.790	15.600	1092.770	848.650
17.804	14.779	1091.488	843.439
18.819	14.510	1090.438	841.196
19.834	14.158	1089.538	838.651
20.848	13.874	1088.530	836.371
21.863	13.616	1087.912	834.524
22.877	13.569	1086.759	833.327
23.892	13.339	1086.109	831.598
24.907	13.506	1085.268	831.720
25.921	13.511	1084.654	831.204
26.936	13.625	1083.401	830.738
27.950	13.619	1082.624	830.041
28.965	13.603	1081.609	829.109
29.980	13.712	1080.090	828.419
30.994	13.646	1078.968	827.151
32.009	13.652	1078.114	826.457
33.023	13.762	1077.386	826.372
34.038	13.652	1076.009	824.696
35.053	13.641	1075.278	824.007
36.067	13.723	1074.371	823.645
37.082	13.574	1073.887	822.465
38.096	13.662	1073.048	822.186
39.111	13.738	1072.197	821.838
40.126	13.633	1071.064	820.377
41.140	13.636	1069.311	818.974
42.155	13.495	1068.357	817.475
43.169	13.445	1067.704	816.656
44.184	13.412	1066.672	815.633
45.199	13.450	1065.542	814.882
46.213	13.494	1064.627	814.329
47.228	13.615	1063.039	813.635
48.242	13.576	1062.011	812.587
49.257	13.518	1061.052	811.496
50.271	13.578	1060.145	811.023
51.286	13.514	1059.560	810.192
52.301	13.619	1058.372	809.722
53.315	13.583	1057.333	808.682
54.330	13.510	1056.113	807.323
55.344	13.628	1055.133	807.077
56.359	13.607	1054.064	806.084
57.374	13.579	1053.507	805.450
58.388	13.416	1052.863	804.096
59.403	13.486	1052.117	803.795
60.417	13.542	1050.999	803.143
61.432	13.530	1050.285	802.466
62.447	13.443	1049.027	801.012
63.461	13.491	1048.222	800.560
64.476	13.363	1047.488	799.311
65.490	13.439	1046.801	799.080
66.505	13.574	1045.740	798.851
67.520	13.429	1045.250	797.711
68.534	13.552	1044.439	797.613
69.549	13.471	1044.034	796.839
70.563	13.514	1043.067	796.241
71.578	13.348	1042.529	794.959
72.593	13.374	1041.443	794.189
73.607	13.362	1041.394	794.022
74.622	13.316	1040.432	792.999
75.636	13.373	1039.384	792.402
76.651	13.392	1038.914	792.065
77.666	13.300	1038.873	791.521
78.680	13.340	1037.683	790.736
79.695	13.378	1037.043	790.359
80.709	13.408	1036.539	790.052
81.724	13.565	1035.352	789.822
82.739	13.464	1035.065	789.055
83.753	13.665	1033.489	788.739
84.768	13.659	1032.597	787.958
85.782	13.678	1032.117	787.616
86.797	13.466	1031.625	786.164
87.812	13.604	1029.986	785.496
88.826	13.615	1029.018	784.745
89.841	13.705	1028.156	784.439
90.855	13.797	1026.934	783.875
91.870	13.600	1026.573	782.597
92.884	13.692	1025.518	782.158
93.899	13.609	1024.626	781.021
94.914	13.785	1023.762	781.120
95.928	13.789	1023.118	780.578
96.943	13.665	1022.347	779.340
97.957	13.650	1021.529	778.575
98.972	13.671	1020.552	777.860
99.987	13.714	1019.294	777.034
101.001	13.740	1018.230	776.277
102.016	13.707	1017.651	775.613
103.030	13.748	1016.749	775.047
104.045	13.600	1016.207	773.873
105.060	13.734	1015.341	773.772
106.074	13.689	1014.592	772.923
107.089	13.539	1013.599	771.397
108.103	13.597	1012.345	770.643
109.118	13.675	1011.205	770.073
110.133	13.630	1010.304	769.109
111.147	13.575	1009.484	768.164
112.162	13.495	1008.902	767.279
113.176	13.748	1007.527	767.338
114.191	13.635	1006.971	766.323
115.206	13.527	1006.618	765.489
116.220	13.582	1005.655	764.940
117.235	13.601	1004.647	764.195
118.249	13.596	1003.723	763.400
119.264	13.608	1002.950	762.800
120.279	13.601	1002.007	761.985
121.293	13.710	1001.011	761.658
122.308	13.607	1000.667	760.857
123.322	13.587	999.961	760.163
124.337	13.549	998.313	758.668
125.352	13.703	997.434	758.637
126.366	13.621	996.207	757.265
127.381	13.598	995.237	756.355
128.395	13.555	994.745	755.716
129.410	13.652	993.790	755.367
130.424	13.714	992.714	754.765
131.439	13.684	992.486	754.388
132.454	13.722	991.510	753.753
133.468	13.781	990.660	753.305
134.483	13.758	989.944	752.589
135.497	13.716	988.811	751.472
136.512	13.724	987.982	750.814
137.527	13.547	987.420	749.520
138.541	13.781	986.075	749.489
139.556	13.808	985.145	748.837
140.570	13.814	984.855	748.577
141.585	13.902	983.838	748.135
142.600	13.850	982.820	747.061
143.614	13.755	981.976	745.924
144.629	13.809	981.630	745.838
145.643	13.773	980.662	744.877
146.658	13.760	979.331	743.743
147.673	13.803	978.485	743.225
148.687	13.864	977.778	742.896
149.702	13.819	976.690	741.802
150.716	13.683	976.302	740.836
151.731	13.727	975.436	740.308
152.746	13.720	974.779	739.710
153.760	13.851	973.899	739.562
154.775	13.857	973.162	738.966
155.789	13.950	972.430	738.756
156.804	13.897	971.868	738.028
157.819	13.847	971.041	737.114
158.833	13.914	970.270	736.762
159.848	14.111	969.441	736.937
160.862	13.848	968.892	735.290
161.877	13.906	967.731	734.602
162.892	13.974	966.978	734.267
163.906	13.755	966.146	732.603
164.921	13.892	965.176	732.404
165.935	13.982	963.982	731.833
166.950	13.974	963.425	731.310
167.964	14.038	962.377	730.732
168.979	13.912	961.612	729.530
169.994	13.839	960.810	728.539
171.008	13.870	959.982	727.980
172.023	14.142	958.845	728.248
173.037	14.015	958.500	727.362
174.052	14.165	957.940	727.530
175.067	14.034	957.032	726.205
176.081	13.983	956.848	725.778
177.096	13.989	956.109	725.179
178.110	14.035	955.267	724.677
179.125	14.045	954.902	724.379
180.140	14.064	954.280	723.925
181.154	14.166	953.324	723.579
182.169	13.956	953.789	722.954
183.183	14.161	952.398	722.729
184.198	14.131	951.594	721.924
185.213	14.168	951.014	721.579
186.227	14.299	950.339	721.574
187.242	14.220	949.766	720.730
188.256	14.225	949.517	720.499
189.271	14.267	948.528	719.868
190.286	14.122	947.525	718.415
191.300	14.004	947.032	717.471
192.315	14.148	946.160	717.366
193.329	13.956	946.119	716.441
194.344	14.155	945.136	716.493
195.359	14.251	944.356	716.249
196.373	14.417	943.774	716.463
197.388	14.220	943.685	715.484
198.402	14.361	942.634	715.226
199.417	14.402	941.996	714.855
200.432	14.418	941.934	714.815
201.446	14.386	941.262	714.104
202.461	14.434	940.806	713.900
203.475	14.451	940.280	713.511
204.490	14.432	939.339	712.652
205.504	14.402	938.485	711.811
206.519	14.377	937.999	711.275
207.534	14.523	936.816	710.938
208.548	14.535	936.370	710.587
209.563	14.497	935.944	710.040
210.577	14.625	935.028	709.825
211.592	14.652	934.059	709.142
212.607	14.602	933.546	708.478
213.621	14.650	932.764	708.026
214.636	14.665	931.971	707.424
215.650	14.672	931.208	706.812
216.665	14.625	930.768	706.216
217.680	14.704	930.049	705.941
218.694	14.686	929.402	705.312
219.709	14.726	928.851	704.999
220.723	14.776	928.101	704.579
221.738	14.663	927.715	703.748
222.753	14.635	927.065	703.075
223.767	14.730	926.455	702.950
224.782	14.837	925.466	702.589
225.796	14.894	924.869	702.313
226.811	14.852	924.520	701.808
227.826	14.899	923.476	701.150
228.840	14.898	922.718	700.507
229.855	14.725	922.181	699.317
230.869	14.753	921.270	698.681
231.884	14.822	920.406	698.251
232.899	14.675	919.822	697.133
233.913	14.775	919.234	697.044
234.928	14.869	918.119	696.525
235.942	14.798	918.084	696.144
236.957	14.789	917.218	695.387
237.972	14.798	916.800	695.045
238.986	14.687	916.209	694.076
240.001	14.856	915.282	694.015
241.015	14.828	914.868	693.522
242.030	14.942	914.350	693.542
243.045	14.941	913.693	692.975
244.059	14.944	913.016	692.413
245.074	14.991	912.287	691.993
246.088	14.939	911.681	691.260
247.103	15.015	911.545	691.408
248.117	15.135	910.281	690.882
249.132	15.067	910.208	690.488
250.147	15.186	909.469	690.353
251.161	15.053	909.061	689.436
252.176	15.190	908.036	689.163
253.190	15.230	907.567	688.908
254.205	15.167	906.959	688.128
255.220	15.323	905.794	687.822
256.234	15.349	905.284	687.479
257.249	15.225	904.698	686.468
258.263	15.353	903.877	686.308
259.278	15.350	903.310	685.805
260.293	15.415	902.531	685.418
261.307	15.507	901.784	685.168
262.322	15.513	901.380	684.822
263.336	15.471	900.607	684.002
264.351	15.483	900.187	683.672
265.366	15.694	899.060	683.615
266.380	15.490	898.826	682.546
267.395	15.485	897.890	681.754
268.409	15.458	897.236	681.086
269.424	15.504	896.812	680.892
270.439	15.579	895.702	680.296
271.453	15.477	894.962	679.259
272.468	15.404	894.787	678.769
273.482	15.475	894.187	678.542
274.497	15.575	893.379	678.274
275.512	15.630	892.666	677.894
276.526	15.600	892.619	677.678
277.541	15.592	891.782	676.950
278.555	15.549	891.496	676.499
279.570	15.749	890.794	676.713
280.585	15.742	889.826	675.887
281.599	15.746	888.796	675.063
282.614	15.810	888.222	674.822
283.628	15.716	887.770	674.042
284.643	15.638	887.042	673.119
285.657	15.789	886.294	673.093
286.672	15.797	885.544	672.497
287.687	15.826	885.133	672.240
288.701	15.881	884.340	671.800
289.716	15.819	884.062	671.283
290.730	15.817	883.168	670.536
291.745	15.895	882.848	670.545
292.760	15.797	882.031	669.473
293.774	15.869	881.620	669.391
294.789	15.921	880.786	668.903
295.803	15.947	879.995	668.349
296.818	15.837	879.597	667.550
297.833	15.840	878.682	666.808
298.847	15.995	878.048	666.883
299.862	15.938	877.347	666.063
300.876	15.916	877.046	665.689
301.891	16.138	876.031	665.737
302.906	16.055	876.028	665.347
303.920	16.134	875.186	664.963
304.935	16.226	874.615	664.831
305.949	16.240	873.735	664.158
306.964	16.055	873.466	663.166
307.979	16.066	872.768	662.620
308.993	16.206	872.108	662.610
310.008	16.117	871.576	661.799
311.022	16.222	870.992	661.711
312.037	16.102	870.492	660.801
313.052	16.218	869.357	660.336
314.066	16.124	869.191	659.782
315.081	16.067	869.015	659.368
316.095	16.183	867.869	658.894
317.110	16.142	867.710	658.554
318.125	16.065	867.220	657.822
319.139	16.148	866.518	657.556
320.154	16.239	866.062	657.508
321.168	16.313	865.480	657.293
322.183	16.271	864.966	656.683
323.197	16.150	864.258	655.617
324.212	16.303	863.751	655.770
325.227	16.267	863.093	655.069
326.241	16.198	862.794	654.518
327.256	16.400	861.854	654.529
328.270	16.212	861.659	653.595
329.285	16.454	860.333	653.468
330.300	16.401	860.086	653.018
331.314	16.386	859.755	652.652
332.329	16.292	859.268	651.860
333.343	16.327	858.704	651.510
334.358	16.504	858.296	651.823
335.373	16.276	858.086	650.727
336.387	16.591	857.537	651.469
337.402	16.592	857.454	651.353
338.416	16.568	856.813	650.716
339.431	16.555	856.550	650.408
340.446	16.695	855.837	650.347
341.460	16.582	855.937	649.932
342.475	16.679	855.072	649.590
343.489	16.749	854.458	649.332
344.504	16.750	854.124	649.024
345.519	16.724	853.777	648.603
346.533	16.681	853.036	647.820
347.548	16.657	852.770	647.469
348.562	16.634	852.416	647.055
349.577	16.676	851.667	646.591
350.592	16.747	850.690	646.063
351.606	16.727	850.097	645.478
352.621	16.721	849.558	644.988
353.635	16.704	848.958	644.410
354.650	16.651	848.312	643.662
355.665	16.837	847.320	643.558
356.679	16.928	846.983	643.592
357.694	16.916	846.315	642.982
358.708	16.905	845.743	642.447
359.723	16.866	844.998	641.676
360.738	16.704	844.763	640.830
361.752	16.908	844.044	640.999
362.767	16.929	843.262	640.427
363.781	16.932	843.109	640.264
364.796	16.983	842.222	639.730
365.810	16.994	842.279	639.756
366.825	16.999	841.849	639.393
367.840	17.114	841.396	639.426
368.854	17.150	840.725	638.992
369.869	17.009	840.558	638.280
370.883	17.081	839.931	638.018
371.898	17.149	839.804	638.118
372.913	17.074	839.312	637.408
373.927	17.151	838.557	637.066
374.942	17.170	838.028	636.679
375.956	17.246	837.563	636.555
376.971	17.202	836.889	635.820
377.986	17.145	836.552	635.295
379.000	17.224	836.086	635.183
380.015	17.356	835.602	635.252
381.029	17.207	835.458	634.530
382.044	17.346	834.378	634.171
383.059	17.383	833.743	633.771
384.073	17.426	833.289	633.527
385.088	17.398	832.544	632.803
386.102	17.347	832.259	632.341
387.117	17.324	831.573	631.677
388.132	17.341	831.039	631.278
389.146	17.261	830.550	630.554
390.161	17.472	830.068	630.914
391.175	17.424	829.979	630.615
392.190	17.423	829.279	630.021
393.205	17.464	828.596	629.597
394.219	17.405	828.271	629.078
395.234	17.432	828.049	628.955
396.248	17.329	827.543	628.133
397.263	17.462	826.688	627.920
398.278	17.400	826.835	627.747
399.292	17.532	826.185	627.687
400.307	17.412	825.660	626.790
401.321	17.370	825.172	626.209
402.336	17.587	824.381	626.351
403.350	17.519	824.304	625.986
404.365	17.586	823.919	625.884
405.380	17.447	823.473	624.980
406.394	17.631	822.836	625.115
407.409	17.768	822.333	625.180
408.423	17.704	821.756	624.454
409.438	17.602	821.849	624.093
410.453	17.671	821.422	623.967
411.467	17.763	820.903	623.856
412.482	17.893	820.329	623.838
413.496	17.911	819.949	623.560
414.511	17.914	819.217	622.959
415.526	17.923	819.005	622.774
416.540	17.898	818.418	622.182
417.555	17.915	817.805	621.723
418.569	17.944	817.331	621.415
419.584	18.049	817.223	621.659
420.599	18.021	816.826	621.201
421.613	103.675	1285.673	1440.224
422.628	89.463	1353.994	1440.332
