DTS Sentinel unit serial number:	SN413079Multiplexer serial number:	ORYXHardware model number:	OX4-SRSoftware version number:	ORYX F/W v4.00 Oryx Data Collector v3.7.2.0data status	okinstallation	princeton_trtdifferential loss correction	single-endedforward channel	channel 1reverse channel	N/Adate	2019/09/11time	23:32:11forward acquisition time	60.00reverse acquisition time	0.00gamma	496.2192k internal	0.2318k external	0.2318temperature offset calibration	1.0064default loss term (dB/km)	0.3790temperature slope calibration	1.0000multiplexer offset coefficient	1.0000multiplexer slope coefficient	1.0000fibre end	0.00T internal ref (°C)	34.19T ext. ref 1 (°C)	1.86T ext. ref 2 (°C)	28.50length (m)	temperature (°C)	Stokes	anti-Stokes-747.200	-200.000	0.007	-0.063
-746.185	44.186	-0.268	0.249
-745.171	274.378	0.070	-0.126
-744.156	800.000	-0.067	0.282
-743.142	558.700	-0.085	0.208
-742.127	-125.786	0.291	0.045
-741.112	-28.412	0.053	-0.031
-740.098	-73.895	-0.187	0.069
-739.083	516.409	-0.153	0.363
-738.069	-119.901	-0.264	-0.046
-737.054	657.768	0.067	-0.176
-736.039	342.501	-0.066	-0.131
-735.025	8.894	0.307	0.234
-734.010	-200.000	0.066	-0.331
-732.996	-91.861	0.089	-0.026
-731.981	163.209	-0.204	-0.290
-730.966	-18.778	-0.183	0.116
-729.952	-200.000	0.088	-0.626
-728.937	800.000	-0.010	-0.034
-727.923	39.965	0.094	-0.085
-726.908	46.679	-0.110	-0.104
-725.894	-83.395	-0.163	-0.053
-724.879	800.000	-0.042	0.139
-723.864	-63.597	-0.098	0.041
-722.850	126.951	0.193	-0.248
-721.835	-200.000	-0.037	0.374
-720.821	-7.742	-0.143	-0.098
-719.806	2.526	0.224	-0.164
-718.791	272.945	-0.098	-0.175
-717.777	781.843	-0.084	-0.232
-716.762	147.805	-0.102	0.139
-715.748	-56.616	0.120	0.054
-714.733	-158.881	-0.116	0.007
-713.718	523.221	-0.078	0.186
-712.704	-200.000	0.029	0.243
-711.689	-43.644	0.206	0.105
-710.675	193.241	-0.215	-0.329
-709.660	92.482	-0.232	-0.264
-708.645	-15.708	0.121	-0.078
-707.631	-114.458	0.155	0.030
-706.616	-115.191	0.375	0.072
-705.602	800.000	0.054	-0.199
-704.587	-200.000	0.005	-0.239
-703.572	57.567	-0.072	0.071
-702.558	34.750	-0.176	0.156
-701.543	182.215	-0.097	-0.145
-700.529	-17.210	0.092	-0.059
-699.514	800.000	0.053	0.172
-698.499	-200.000	0.001	-0.064
-697.485	197.479	0.075	-0.115
-696.470	-200.000	-0.017	-0.409
-695.456	9.820	0.129	0.099
-694.441	-141.557	0.438	0.045
-693.426	-84.282	0.468	-0.150
-692.412	-30.576	0.137	-0.078
-691.397	441.388	-0.100	-0.220
-690.383	-5.027	-0.332	-0.231
-689.368	518.081	0.117	0.276
-688.354	54.442	0.256	-0.249
-687.339	-200.000	-0.041	-0.278
-686.324	-200.000	0.013	0.186
-685.310	-17.395	-0.167	0.106
-684.295	-92.942	0.405	-0.114
-683.281	-40.982	0.342	-0.178
-682.266	-147.714	-0.154	-0.013
-681.251	-26.353	-0.311	-0.184
-680.237	5.493	-0.237	-0.177
-679.222	-128.813	0.201	0.029
-678.208	173.056	0.048	-0.069
-677.193	146.890	-0.116	-0.157
-676.178	4.414	-0.104	0.077
-675.164	-112.126	0.168	0.034
-674.149	276.948	-0.128	0.230
-673.135	-95.739	-0.289	0.078
-672.120	-48.969	0.299	0.144
-671.105	-200.000	0.009	-0.174
-670.091	-172.315	-0.069	-0.002
-669.076	135.891	0.150	-0.197
-668.062	-131.094	0.382	0.051
-667.047	-200.000	-0.264	-0.001
-666.032	56.134	0.115	0.112
-665.018	131.186	0.066	-0.086
-664.003	103.220	0.135	-0.160
-662.989	-200.000	-0.070	-0.324
-661.974	263.942	-0.173	0.304
-660.959	-200.000	0.028	0.243
-659.945	46.783	0.233	-0.219
-658.930	-73.384	0.140	0.052
-657.916	-200.000	-0.025	-0.289
-656.901	800.000	-0.087	-0.367
-655.886	532.942	0.207	-0.494
-654.872	705.100	0.173	-0.460
-653.857	-131.936	0.116	0.015
-652.843	-74.952	-0.214	0.077
-651.828	-45.387	0.135	0.067
-650.814	-21.377	0.123	-0.076
-649.799	-200.000	-0.040	-0.329
-648.784	-75.182	0.217	0.078
-647.770	-200.000	0.010	-0.101
-646.755	99.732	0.118	0.138
-645.741	-109.551	-0.634	0.135
-644.726	-54.408	-0.248	0.114
-643.711	800.000	0.047	-0.171
-642.697	18.090	-0.134	-0.108
-641.682	-200.000	-0.007	0.210
-640.668	228.693	0.193	-0.317
-639.653	800.000	-0.043	-0.188
-638.638	281.710	0.107	-0.194
-637.624	-200.000	-0.080	-0.581
-636.609	-9.043	0.321	0.216
-635.595	-131.093	-0.196	0.026
-634.580	-63.064	-0.255	-0.106
-633.565	242.011	0.078	-0.132
-632.551	-71.822	-0.210	0.079
-631.536	800.000	0.056	-0.235
-630.522	800.000	0.073	0.230
-629.507	-18.018	0.045	0.029
-628.492	9.088	-0.262	0.199
-627.478	-119.837	-0.319	-0.055
-626.463	-72.979	-0.168	-0.062
-625.449	57.807	0.151	0.149
-624.434	32.897	0.182	0.159
-623.419	591.522	-0.138	-0.343
-622.405	520.896	0.059	-0.139
-621.390	-200.000	0.036	-0.294
-620.376	43.268	-0.137	0.126
-619.361	188.265	0.173	0.261
-618.346	-3.507	-0.120	0.084
-617.332	439.112	-0.080	0.177
-616.317	-200.000	0.007	0.188
-615.303	-156.400	-0.325	-0.020
-614.288	-58.983	-0.170	0.074
-613.273	-80.597	0.486	0.163
-612.259	800.000	0.048	0.175
-611.244	-65.782	0.161	0.065
-610.230	48.848	0.290	-0.274
-609.215	499.595	-0.120	-0.278
-608.201	-200.000	-0.026	-0.428
-607.186	-47.666	-0.398	-0.195
-606.171	6.262	0.105	0.079
-605.157	-127.555	-0.120	0.018
-604.142	-93.759	0.163	0.045
-603.128	-200.000	0.026	-0.220
-602.113	-30.823	-0.392	0.223
-601.098	-200.000	0.017	-0.118
-600.084	157.498	-0.297	0.414
-599.069	-130.435	-0.290	0.039
-598.055	383.173	-0.135	-0.280
-597.040	-92.328	0.166	0.047
-596.025	-54.504	-0.316	-0.144
-595.011	-65.987	-0.105	-0.042
-593.996	-53.720	-0.241	-0.111
-592.982	13.218	-0.095	0.074
-591.967	-151.734	0.290	-0.021
-590.952	86.003	-0.182	0.202
-589.938	-200.000	-0.010	0.218
-588.923	62.706	0.208	-0.209
-587.909	800.000	-0.064	0.193
-586.894	-90.220	0.105	-0.031
-585.879	-94.123	0.278	0.077
-584.865	152.323	0.264	0.362
-583.850	-159.056	0.264	0.015
-582.836	800.000	0.054	-0.198
-581.821	-62.332	-0.325	-0.136
-580.806	56.082	-0.064	0.062
-579.792	509.324	-0.039	-0.092
-578.777	-200.000	0.109	-0.545
-577.763	-132.465	0.130	0.017
-576.748	-72.447	-0.085	0.031
-575.733	-200.000	0.003	-0.083
-574.719	-101.948	-0.350	-0.085
-573.704	-32.251	0.131	-0.074
-572.690	-200.000	0.013	-0.062
-571.675	800.000	-0.022	-0.068
-570.661	173.826	-0.068	0.099
-569.646	-41.098	-0.063	0.033
-568.631	-91.652	-0.255	0.073
-567.617	-200.000	-0.028	0.172
-566.602	-94.955	0.273	-0.074
-565.588	-51.915	-0.102	-0.048
-564.573	139.092	0.178	-0.235
-563.558	-30.800	0.361	0.205
-562.544	29.118	-0.151	-0.129
-561.529	800.000	0.080	-0.258
-560.515	158.120	0.102	0.142
-559.500	-71.046	-0.159	-0.060
-558.485	653.176	-0.098	0.254
-557.471	-150.242	-0.165	0.013
-556.456	565.464	0.167	-0.406
-555.442	-86.535	-0.019	0.006
-554.427	-23.695	0.202	-0.122
-553.412	-65.154	-0.183	-0.074
-552.398	-58.331	-0.110	-0.048
-551.383	-102.182	0.065	0.016
-550.369	-45.830	-0.174	0.087
-549.354	-42.816	0.056	0.029
-548.339	83.007	-0.113	-0.124
-547.325	70.507	-0.144	-0.150
-546.310	800.000	0.085	-0.327
-545.296	-200.000	0.021	0.267
-544.281	800.000	-0.022	-0.078
-543.266	-63.558	-0.246	-0.101
-542.252	593.251	0.130	-0.322
-541.237	-115.877	0.164	-0.031
-540.223	-126.553	-0.225	0.034
-539.208	85.555	0.174	0.192
-538.193	-200.000	-0.025	-0.570
-537.179	128.295	-0.188	-0.240
-536.164	-200.000	-0.004	0.134
-535.150	-25.293	0.343	0.204
-534.135	362.771	-0.138	0.278
-533.121	-200.000	-0.004	-0.175
-532.106	18.609	0.150	0.120
-531.091	49.572	-0.104	-0.099
-530.077	-200.000	0.007	-0.121
-529.062	800.000	0.085	-0.257
-528.048	-200.000	0.065	0.317
-527.033	8.291	0.090	-0.068
-526.018	800.000	0.135	0.430
-525.004	315.458	0.170	-0.322
-523.989	800.000	-0.050	0.204
-522.975	-86.454	0.366	-0.113
-521.960	210.992	-0.021	-0.034
-520.945	-200.000	-0.060	0.299
-519.931	-114.925	0.246	0.047
-518.916	-61.610	-0.332	-0.140
-517.902	379.337	0.151	-0.310
-516.887	-94.822	0.349	-0.095
-515.872	454.108	-0.168	0.374
-514.858	31.499	-0.133	-0.115
-513.843	-179.582	0.265	-0.006
-512.829	-200.000	0.022	0.394
-511.814	-14.441	-0.146	0.094
-510.799	206.652	0.097	0.152
-509.785	-119.322	0.305	-0.053
-508.770	235.812	-0.075	0.124
-507.756	-101.799	-0.278	-0.067
-506.741	-149.205	0.207	-0.017
-505.726	429.728	-0.080	0.173
-504.712	17.068	0.199	0.158
-503.697	-71.255	-0.231	0.087
-502.683	-71.798	0.122	-0.046
-501.668	800.000	-0.052	0.205
-500.653	-200.000	0.012	0.054
-499.639	258.047	0.120	-0.207
-498.624	-54.829	0.297	-0.134
-497.610	-123.220	0.360	-0.058
-496.595	-200.000	-0.036	-0.459
-495.581	-26.964	-0.083	0.049
-494.566	36.385	0.187	0.165
-493.551	283.770	0.089	0.160
-492.537	-200.000	0.016	0.102
-491.522	800.000	-0.016	0.068
-490.508	-146.946	-0.223	0.019
-489.493	21.779	0.115	0.094
-488.478	-62.300	-0.390	-0.163
-487.464	-0.966	-0.026	-0.019
-486.449	610.293	0.135	-0.339
-485.435	-47.271	0.368	0.180
-484.420	124.258	0.216	-0.272
-483.405	-151.734	0.230	0.017
-482.391	-80.163	0.160	0.054
-481.376	132.199	0.146	0.189
-480.362	-26.794	0.145	-0.085
-479.347	571.900	0.024	0.059
-478.332	16.399	0.267	-0.211
-477.318	-137.511	-0.047	-0.005
-476.303	-152.672	-0.160	-0.011
-475.289	-67.798	-0.101	-0.039
-474.274	8.068	-0.294	-0.221
-473.259	-99.021	0.175	-0.044
-472.245	-200.000	-0.023	-0.159
-471.230	-200.000	0.026	0.399
-470.216	-196.241	-0.070	0.000
-469.201	-132.841	-0.135	0.017
-468.186	800.000	-0.106	0.339
-467.172	-22.928	-0.213	-0.129
-466.157	-65.169	0.032	0.013
-465.143	-200.000	0.001	-0.033
-464.128	-55.599	0.129	0.058
-463.113	-27.672	0.175	0.102
-462.099	-83.375	-0.012	-0.004
-461.084	179.055	0.144	-0.210
-460.070	-98.322	-0.266	0.068
-459.055	217.780	0.132	-0.211
-458.040	-93.478	-0.273	-0.076
-457.026	-64.806	0.073	0.029
-456.011	-58.822	0.122	-0.053
-454.997	800.000	0.046	0.151
-453.982	215.445	-0.267	-0.424
-452.968	-200.000	0.025	-0.124
-451.953	-63.631	0.492	0.202
-450.938	-141.444	0.346	-0.035
-449.924	-200.000	-0.063	0.324
-448.909	-36.756	0.126	-0.068
-447.895	-2.686	-0.106	0.074
-446.880	-78.886	0.188	-0.064
-445.865	4.846	-0.345	0.254
-444.851	173.139	-0.094	-0.135
-443.836	219.916	-0.174	-0.279
-442.822	63.818	-0.227	0.228
-441.807	-90.473	-0.127	0.037
-440.792	-44.686	0.318	0.159
-439.778	48.238	-0.155	0.145
-438.763	-39.435	0.190	-0.100
-437.749	-126.567	-0.242	0.036
-436.734	-153.105	0.146	0.010
-435.719	56.805	-0.122	-0.119
-434.705	102.059	0.029	0.034
-433.690	-200.000	0.034	0.221
-432.676	195.981	0.101	0.153
-431.661	800.000	-0.080	-0.261
-430.646	-93.932	-0.143	0.039
-429.632	584.793	0.076	0.188
-428.617	174.321	-0.096	-0.138
-427.603	16.996	-0.064	0.050
-426.588	93.150	-0.103	0.117
-425.573	466.605	0.187	0.419
-424.559	373.624	-0.042	-0.085
-423.544	-200.000	0.016	0.171
-422.530	-200.000	-0.020	-0.215
-421.515	169.313	-0.111	-0.158
-420.500	-200.000	0.009	-0.123
-419.486	-70.235	-0.285	-0.108
-418.471	7.797	-0.048	0.036
-417.457	-139.622	-0.331	-0.035
-416.442	73.306	0.145	-0.152
-415.428	-200.000	-0.002	-0.036
-414.413	800.000	0.056	-0.173
-413.398	115.484	0.053	0.064
-412.384	800.000	-0.005	-0.018
-411.369	-157.434	0.303	-0.018
-410.355	566.078	0.214	0.519
-409.340	259.310	0.224	0.386
-408.325	159.346	-0.056	-0.078
-407.311	-54.653	0.014	-0.006
-406.296	-112.151	0.474	0.095
-405.282	-17.002	-0.156	0.099
-404.267	-200.000	0.339	0.001
-403.252	800.000	0.046	-0.149
-402.238	800.000	0.049	0.214
-401.223	451.443	-0.059	-0.130
-400.209	412.081	-0.105	0.223
-399.194	61.184	-0.074	0.073
-398.179	29.778	-0.036	-0.031
-397.165	-140.918	0.368	-0.038
-396.150	250.371	-0.022	-0.037
-395.136	12.379	-0.172	0.132
-394.121	-5.670	-0.091	0.062
-393.106	-200.000	0.012	-0.299
-392.092	-106.419	-0.427	-0.095
-391.077	-33.329	0.083	0.046
-390.063	79.013	-0.276	-0.295
-389.048	-137.383	-0.119	-0.013
-388.033	-60.995	0.195	0.082
-387.019	-200.000	-0.004	0.139
-386.004	-43.083	-0.274	0.138
-384.990	51.005	-0.024	-0.022
-383.975	-181.844	-0.226	-0.004
-382.960	-200.000	-0.012	0.322
-381.946	26.458	0.118	0.099
-380.931	152.953	-0.314	-0.429
-379.917	-41.234	0.165	-0.085
-378.902	-30.017	0.369	-0.210
-377.888	20.523	0.091	-0.074
-376.873	258.452	-0.168	0.289
-375.858	639.796	0.057	0.145
-374.844	2.825	-0.263	-0.191
-373.829	23.316	-0.158	-0.130
-372.815	156.778	-0.097	-0.134
-371.800	-150.637	0.435	-0.033
-370.785	-111.967	-0.011	-0.002
-369.771	27.733	-0.149	-0.125
-368.756	-200.000	0.044	0.406
-367.742	242.677	-0.089	0.148
-366.727	31.176	0.180	-0.154
-365.712	-119.424	0.107	-0.019
-364.698	-93.476	-0.200	-0.055
-363.683	-26.122	0.154	-0.091
-362.669	-200.000	0.071	-0.316
-361.654	173.381	-0.087	0.125
-360.639	-200.000	-0.029	0.205
-359.625	-24.731	0.029	-0.017
-358.610	800.000	-0.077	-0.264
-357.596	-133.441	-0.133	-0.017
-356.581	-11.081	0.177	0.116
-355.566	52.030	-0.036	0.034
-354.552	-8.296	0.115	0.077
-353.537	-47.996	-0.199	0.096
-352.523	72.114	0.137	0.142
-351.508	-159.960	0.221	0.012
-350.493	115.743	-0.098	-0.119
-349.479	639.581	0.062	0.156
-348.464	94.386	-0.111	0.126
-347.450	-140.659	0.076	0.008
-346.435	489.870	0.074	-0.169
-345.420	-200.000	-0.009	-0.352
-344.406	-92.755	0.047	-0.013
-343.391	-48.571	0.113	0.054
-342.377	158.785	-0.166	0.229
-341.362	-41.658	-0.080	-0.041
-340.348	-102.474	0.486	0.116
-339.333	-69.308	-0.110	0.042
-338.318	-200.000	0.004	-0.132
-337.304	55.079	0.244	0.235
-336.289	800.000	0.006	-0.022
-335.275	12.984	0.149	0.114
-334.260	102.277	-0.092	0.107
-333.245	-200.000	-0.011	-0.210
-332.231	-65.905	-0.257	0.102
-331.216	-108.469	0.178	0.038
-330.202	216.529	0.105	0.166
-329.187	19.203	-0.078	-0.062
-328.172	1.328	0.423	-0.303
-327.158	4.545	0.336	0.245
-326.143	-200.000	-0.328	-0.000
-325.129	-200.000	0.041	0.319
-324.114	134.028	-0.188	-0.242
-323.099	93.970	-0.232	-0.262
-322.085	109.619	-0.198	-0.236
-321.070	-25.468	-0.098	0.058
-320.056	-76.533	0.161	0.056
-319.041	68.602	0.087	0.088
-318.026	-138.015	0.247	0.027
-317.012	7.048	-0.046	-0.034
-315.997	800.000	0.066	0.201
-314.983	-95.051	-0.045	-0.012
-313.968	800.000	-0.036	-0.106
-312.953	800.000	0.049	-0.187
-311.939	28.255	-0.146	-0.122
-310.924	-141.390	-0.160	0.016
-309.910	-72.308	0.169	0.062
-308.895	-106.575	0.163	0.036
-307.880	124.368	0.056	-0.070
-306.866	-200.000	-0.035	-0.263
-305.851	-120.007	0.239	0.041
-304.837	-200.000	-0.025	-0.113
-303.822	-5.616	0.139	0.095
-302.807	1.572	0.192	0.138
-301.793	-149.352	0.186	0.015
-300.778	205.415	-0.041	0.064
-299.764	-200.000	0.010	-0.160
-298.749	-134.370	0.073	-0.009
-297.735	-127.042	-0.308	0.045
-296.720	-145.615	-0.102	0.009
-295.705	-67.281	0.198	-0.077
-294.691	103.438	-0.140	0.163
-293.676	-25.198	-0.420	0.247
-292.662	-98.782	-0.334	0.085
-291.647	-200.000	0.036	-0.157
-290.632	-200.000	0.004	-0.019
-289.618	78.787	-0.101	-0.108
-288.603	-3.992	0.095	-0.065
-287.589	800.000	-0.035	-0.144
-286.574	-28.994	-0.032	-0.018
-285.559	-97.358	0.114	-0.029
-284.545	-51.062	-0.221	0.103
-283.530	-200.000	0.016	-0.331
-282.516	553.362	0.016	0.038
-281.501	-200.000	0.033	-0.244
-280.486	800.000	-0.225	-0.644
-279.472	800.000	0.035	-0.112
-278.457	-200.000	0.040	0.249
-277.443	358.559	-0.138	-0.275
-276.428	-144.273	0.293	0.027
-275.413	203.860	0.034	0.052
-274.399	-55.819	-0.178	-0.079
-273.384	-169.242	0.330	-0.012
-272.370	-200.000	0.033	-0.239
-271.355	171.943	-0.173	-0.247
-270.340	87.209	-0.253	0.278
-269.326	319.297	0.030	-0.057
-268.311	394.586	0.225	0.466
-267.297	-136.304	0.245	0.028
-266.282	-123.472	-0.344	0.054
-265.267	-41.463	0.345	-0.176
-264.253	-22.004	0.182	-0.110
-263.238	21.799	0.164	0.133
-262.224	-103.630	0.096	-0.022
-261.209	34.981	-0.242	0.211
-260.195	108.102	-0.124	-0.147
-259.180	-85.997	0.248	0.076
-258.165	800.000	0.024	-0.086
-257.151	-90.574	-0.212	0.061
-256.136	242.252	-0.121	0.201
-255.122	223.799	0.074	0.119
-254.107	-116.662	-0.155	0.028
-253.092	-126.848	-0.267	0.039
-252.078	-61.188	-0.089	0.037
-251.063	-200.000	-0.008	0.075
-250.049	131.735	-0.108	0.138
-249.034	-34.793	0.185	0.101
-248.019	-77.999	0.290	0.099
-247.005	-27.240	-0.178	0.103
-245.990	461.190	-0.101	0.223
-244.976	126.335	-0.092	-0.115
-243.961	43.005	-0.216	-0.196
-242.946	-21.537	0.251	0.152
-241.932	-200.000	-0.001	-0.011
-240.917	-29.558	0.117	-0.066
-239.903	-79.489	0.204	-0.068
-238.888	20.446	0.100	-0.080
-237.873	-200.000	-0.021	-0.375
-236.859	-200.000	-0.020	-0.156
-235.844	-62.523	0.021	-0.009
-234.830	-47.063	0.301	0.146
-233.815	-200.000	-0.058	0.265
-232.800	-200.000	0.015	-0.077
-231.786	-84.588	-0.148	0.046
-230.771	-200.000	-0.036	0.166
-229.757	25.389	-0.165	0.136
-228.742	-98.098	0.207	0.053
-227.727	800.000	-0.072	-0.252
-226.713	-200.000	0.032	0.224
-225.698	53.321	-0.160	-0.152
-224.684	-200.000	-0.003	-0.036
-223.669	-200.000	-0.039	0.224
-222.655	-120.019	-0.052	0.009
-221.640	-200.000	0.038	0.199
-220.625	-106.655	0.213	0.047
-219.611	127.322	-0.167	-0.210
-218.596	-6.007	0.048	-0.032
-217.582	-49.436	-0.308	-0.146
-216.567	213.150	-0.137	-0.215
-215.552	-81.644	0.371	0.121
-214.538	800.000	-0.044	-0.145
-213.523	-146.801	-0.295	-0.025
-212.509	-168.555	0.087	0.003
-211.494	-26.374	-0.131	-0.076
-210.479	-81.194	-0.135	-0.044
-209.465	242.257	-0.037	0.062
-208.450	-200.000	-0.003	-0.203
-207.436	-91.212	-0.066	0.019
-206.421	800.000	0.054	-0.228
-205.406	-200.000	-0.056	0.308
-204.392	95.732	0.167	0.189
-203.377	-187.938	0.116	-0.001
-202.363	71.122	-0.133	-0.137
-201.348	-62.856	0.373	0.153
-200.333	-114.560	0.142	-0.027
-199.319	125.640	0.062	-0.078
-198.304	129.024	0.132	0.167
-197.290	449.781	-0.069	0.152
-196.275	761.628	-0.039	0.104
-195.260	800.000	0.108	0.296
-194.246	-134.374	-0.220	-0.027
-193.231	279.245	-0.021	-0.038
-192.217	-200.000	0.003	0.019
-191.202	85.550	0.179	-0.195
-190.187	-56.336	-0.485	0.213
-189.173	359.117	-0.069	0.137
-188.158	800.000	0.102	0.440
-187.144	-99.561	-0.168	-0.042
-186.129	88.172	-0.155	-0.171
-185.114	380.194	-0.096	0.195
-184.100	800.000	0.030	0.100
-183.085	-59.215	-0.030	0.013
-182.071	773.399	-0.036	-0.098
-181.056	39.219	-0.094	-0.083
-180.042	-52.287	-0.178	-0.081
-179.027	53.202	0.197	-0.187
-178.012	109.589	0.155	-0.184
-176.998	-200.000	0.058	0.260
-175.983	-200.000	-0.013	0.139
-174.969	151.941	-0.106	-0.143
-173.954	-5.507	-0.171	0.116
-172.939	105.026	-0.301	0.351
-171.925	402.781	-0.065	0.135
-170.910	-139.994	0.129	0.014
-169.896	800.000	0.070	0.206
-168.881	185.265	0.074	-0.109
-167.866	-27.657	0.402	0.231
-166.852	79.103	0.194	0.206
-165.837	-65.608	-0.099	0.039
-164.823	-200.000	0.020	0.314
-163.808	133.336	-0.089	-0.114
-162.793	192.167	0.040	0.060
-161.779	-13.819	-0.091	0.059
-160.764	491.642	-0.066	-0.150
-159.750	228.990	0.066	0.107
-158.735	592.652	0.047	-0.114
-157.720	-44.851	-0.288	-0.142
-156.706	14.563	0.068	-0.052
-155.691	77.461	0.319	0.335
-154.677	80.650	-0.146	-0.155
-153.662	150.765	-0.180	0.242
-152.647	-143.141	-0.128	-0.012
-151.633	52.115	-0.045	-0.043
-150.618	53.440	-0.247	0.234
-149.604	476.828	-0.158	-0.352
-148.589	19.439	-0.151	-0.120
-147.574	-116.615	-0.054	-0.010
-146.560	-185.959	0.152	-0.002
-145.545	225.927	0.065	0.104
-144.531	-20.038	-0.205	0.125
-143.516	-125.556	0.307	-0.046
-142.502	-106.119	0.465	0.103
-141.487	-200.000	-0.098	0.436
-140.472	14.757	0.361	0.279
-139.458	165.694	0.216	-0.302
-138.443	130.599	0.210	-0.266
-137.429	-62.523	-0.052	0.021
-136.414	76.009	0.249	0.260
-135.399	-81.743	-0.184	0.060
-134.385	225.233	0.153	0.245
-133.370	-200.000	-0.018	0.223
-132.356	-200.000	0.235	0.001
-131.341	-20.875	0.296	-0.179
-130.326	-96.585	0.261	0.068
-129.312	28.026	-0.286	-0.239
-128.297	22.349	-0.172	0.139
-127.283	-200.000	0.074	0.338
-126.268	233.721	0.190	0.310
-125.253	-52.589	-0.277	0.126
-124.239	-200.000	0.020	0.428
-123.224	98.992	-0.143	0.163
-122.210	-77.676	0.340	0.116
-121.195	-97.916	-0.282	0.072
-120.180	-145.335	0.268	0.024
-119.166	-154.314	-0.060	-0.004
-118.151	-40.154	-0.153	0.079
-117.137	125.995	0.188	-0.235
-116.122	-11.313	0.246	-0.160
-115.107	800.000	0.023	-0.076
-114.093	588.022	0.144	0.350
-113.078	-14.964	-0.121	0.076
-112.064	37.775	-0.150	0.131
-111.049	-85.003	-0.030	0.009
-110.034	144.845	0.138	0.183
-109.020	114.561	-0.152	-0.183
-108.005	800.000	0.047	0.173
-106.991	7.030	0.193	-0.142
-105.976	659.187	0.034	0.086
-104.962	306.814	0.057	0.105
-103.947	437.427	-0.099	0.212
-102.932	-34.004	0.205	0.111
-101.918	-119.150	0.372	-0.064
-100.903	-131.996	0.116	0.015
-99.889	-200.000	-0.046	0.324
-98.874	36.562	-0.187	0.163
-97.859	498.034	-0.115	0.262
-96.845	37.353	0.111	-0.097
-95.830	-16.895	0.134	0.083
-94.816	-18.921	0.146	-0.090
-93.801	800.000	-0.130	0.377
-92.786	-77.755	-0.076	-0.026
-91.772	28.162	0.397	0.331
-90.757	660.027	0.010	-0.025
-89.743	339.286	0.037	-0.072
-88.728	74.716	-0.099	-0.103
-87.713	800.000	-0.009	-0.027
-86.699	185.135	0.048	0.070
-85.684	-140.850	-0.263	-0.027
-84.670	-200.000	-0.000	-0.243
-83.655	-9.994	-0.147	0.096
-82.640	778.880	-0.086	-0.232
-81.626	104.452	0.178	-0.207
-80.611	342.776	-0.060	-0.115
-79.597	-74.512	0.221	-0.079
-78.582	296.237	-0.089	0.161
-77.567	663.841	0.098	-0.250
-76.553	800.000	0.045	-0.133
-75.538	-200.000	0.012	0.370
-74.524	-149.195	0.074	0.006
-73.509	-154.241	0.455	0.030
-72.494	-73.885	0.203	-0.073
-71.480	800.000	0.052	-0.207
-70.465	69.729	-0.245	-0.249
-69.451	-169.196	-0.187	-0.007
-68.436	398.151	-0.121	0.249
-67.422	11.597	0.253	-0.191
-66.407	-102.166	0.275	-0.065
-65.392	-144.518	0.156	0.014
-64.378	182.973	0.117	-0.171
-63.363	-180.659	0.110	0.002
-62.349	-67.242	0.237	0.092
-61.334	84.780	-0.929	-1.003
-60.319	-17.474	0.590	0.366
-59.305	-200.000	0.090	-0.913
-58.290	89.428	0.654	0.719
-57.276	138.616	0.755	0.976
-56.261	-200.000	98.448	590.559
-55.246	548.255	1396.747	3295.310
-54.232	153.698	2590.772	3496.842
-53.217	114.151	2155.897	2584.078
-52.203	45.762	1612.332	1468.222
-51.188	37.696	1349.260	1179.998
-50.173	34.440	1307.115	1123.937
-49.159	57.311	1355.984	1303.638
-48.144	60.859	1374.404	1342.537
-47.130	37.827	1329.681	1163.470
-46.115	34.442	1311.468	1127.512
-45.100	34.202	1306.845	1122.079
-44.086	34.032	1304.763	1119.247
-43.071	34.066	1302.396	1117.371
-42.057	34.048	1300.224	1115.357
-41.042	33.992	1298.575	1113.574
-40.027	34.032	1297.241	1112.618
-39.013	34.128	1295.141	1111.333
-37.998	34.060	1293.290	1109.305
-36.984	34.195	1291.623	1108.616
-35.969	34.207	1289.519	1106.840
-34.954	34.203	1287.896	1105.377
-33.940	34.311	1286.643	1104.888
-32.925	34.307	1285.668	1103.982
-31.911	34.285	1284.272	1102.613
-30.896	34.368	1282.757	1101.746
-29.881	34.406	1281.402	1100.756
-28.867	34.393	1280.137	1099.554
-27.852	34.196	1278.808	1097.234
-26.838	34.213	1277.223	1095.925
-25.823	34.421	1275.793	1095.854
-24.809	34.284	1274.459	1093.876
-23.794	34.314	1273.080	1092.820
-22.779	34.329	1271.745	1091.717
-21.765	34.223	1270.691	1090.162
-20.750	34.254	1269.278	1089.083
-19.736	34.112	1268.558	1087.610
-18.721	34.073	1266.972	1085.989
-17.706	34.063	1265.613	1084.722
-16.692	34.187	1264.267	1084.232
-15.677	34.087	1263.597	1083.043
-14.663	34.177	1262.420	1082.507
-13.648	34.117	1261.317	1081.174
-12.633	34.128	1260.421	1080.426
-11.619	34.048	1259.815	1079.412
-10.604	34.096	1258.852	1078.813
-9.590	34.091	1257.570	1077.645
-8.575	34.174	1256.643	1077.278
-7.560	34.028	1255.956	1075.817
-6.546	34.094	1254.866	1075.214
-5.531	34.023	1254.441	1074.409
-4.517	34.157	1253.016	1073.903
-3.502	34.100	1252.474	1073.069
-2.487	34.101	1251.648	1072.326
-1.473	34.138	1247.418	1068.868
-0.458	32.609	1233.042	1048.011
0.556	29.273	1215.472	1009.845
1.571	25.780	1220.781	994.906
2.586	24.883	1236.887	1002.920
3.600	24.360	1225.942	991.051
4.615	17.881	1152.171	897.384
5.629	7.046	1073.649	782.804
6.644	2.160	1051.952	743.185
7.659	1.792	1049.355	739.499
8.673	1.712	1048.012	738.101
9.688	1.757	1046.627	737.274
10.702	2.265	1045.585	738.932
11.717	8.967	1055.521	778.505
12.731	19.200	1070.137	839.332
13.746	24.029	1075.587	867.123
14.761	24.855	1076.314	871.656
15.775	24.969	1076.129	871.985
16.790	24.670	1074.990	869.533
17.804	24.635	1074.543	868.922
18.819	24.662	1074.537	868.972
19.834	24.820	1073.817	869.081
20.848	24.918	1072.950	868.777
21.863	24.841	1072.841	868.237
22.877	24.782	1072.098	867.273
23.892	24.736	1071.327	866.351
24.907	24.769	1070.790	865.999
25.921	24.817	1069.351	864.993
26.936	24.720	1068.444	863.713
27.950	24.649	1067.033	862.154
28.965	24.625	1065.190	860.472
29.980	24.639	1063.599	859.177
30.994	24.821	1063.004	859.494
32.009	24.817	1061.684	858.334
33.023	24.688	1060.721	856.860
34.038	24.777	1060.106	856.712
35.053	24.865	1059.174	856.306
36.067	24.877	1058.469	855.720
37.082	24.944	1057.797	855.420
38.096	24.925	1057.940	855.370
39.111	25.184	1056.291	855.196
40.126	24.953	1055.165	853.106
41.140	24.501	1053.274	849.351
42.155	24.526	1051.462	847.934
43.169	24.366	1050.790	846.559
44.184	24.265	1050.506	845.778
45.199	24.329	1048.742	844.583
46.213	24.429	1048.261	844.596
47.228	24.586	1047.874	844.950
48.242	24.770	1046.487	844.626
49.257	24.833	1045.843	844.331
50.271	24.916	1045.396	844.286
51.286	24.954	1044.617	843.760
52.301	24.929	1043.354	842.548
53.315	24.749	1042.973	841.319
54.330	24.788	1041.869	840.540
55.344	24.805	1040.980	839.828
56.359	24.749	1040.113	838.789
57.374	24.550	1039.048	836.925
58.388	24.666	1038.447	836.912
59.403	24.581	1037.621	835.772
60.417	24.488	1036.152	834.082
61.432	24.468	1036.104	833.873
62.447	24.470	1035.552	833.366
63.461	24.579	1034.571	833.010
64.476	24.489	1033.574	831.714
65.490	24.346	1032.818	830.366
66.505	24.509	1032.105	830.481
67.520	24.619	1031.277	830.249
68.534	24.476	1029.781	828.311
69.549	24.070	1029.165	825.860
70.563	24.172	1028.184	825.470
71.578	24.192	1027.168	824.674
72.593	23.935	1026.326	822.739
73.607	23.979	1026.241	822.800
74.622	24.311	1026.136	824.176
75.636	24.337	1025.478	823.698
76.651	24.290	1023.980	822.204
77.666	24.263	1022.991	821.211
78.680	24.296	1022.632	821.003
79.695	24.431	1021.875	820.944
80.709	24.506	1021.189	820.664
81.724	24.457	1020.617	819.906
82.739	24.372	1020.113	819.041
83.753	24.793	1019.193	820.158
84.768	25.155	1018.503	821.187
85.782	25.287	1017.349	820.792
86.797	25.103	1016.782	819.421
87.812	24.883	1016.182	817.859
88.826	24.968	1015.011	817.229
89.841	25.084	1014.168	817.009
90.855	25.095	1013.277	816.269
91.870	25.067	1012.286	815.271
92.884	25.052	1010.927	814.037
93.899	24.801	1010.694	812.637
94.914	25.026	1009.779	812.847
95.928	24.890	1008.760	811.343
96.943	24.682	1006.833	808.778
97.957	24.481	1006.083	807.197
98.972	24.181	1005.276	805.119
99.987	24.601	1004.192	806.077
101.001	24.716	1003.647	806.085
102.016	24.731	1002.899	805.483
103.030	24.681	1002.081	804.531
104.045	24.566	1001.013	803.084
105.060	24.498	999.904	801.815
106.074	24.558	999.664	801.824
107.089	24.751	999.340	802.357
108.103	24.748	997.983	801.183
109.118	24.675	996.392	799.511
110.133	24.611	995.533	798.462
111.147	24.216	994.311	795.649
112.162	24.245	993.152	794.782
113.176	24.312	993.202	795.047
114.191	24.489	991.528	794.427
115.206	24.182	990.625	792.268
116.220	24.017	990.239	791.158
117.235	24.514	988.924	792.243
118.249	24.307	988.529	790.937
119.264	24.124	987.836	789.503
120.279	24.220	986.997	789.185
121.293	24.210	986.261	788.482
122.308	24.245	985.367	787.854
123.322	24.274	984.158	786.945
124.337	24.113	982.915	785.171
125.352	23.601	981.125	781.419
126.366	23.567	980.598	780.780
127.381	24.388	980.561	784.294
128.395	24.781	980.163	785.632
129.410	24.692	979.635	784.748
130.424	24.838	978.063	784.057
131.439	24.795	977.020	782.967
132.454	24.728	976.693	782.340
133.468	24.745	975.573	781.448
134.483	24.781	975.156	781.204
135.497	24.999	974.335	781.426
136.512	25.050	973.504	780.913
137.527	25.125	972.261	780.175
138.541	25.074	971.921	779.610
139.556	24.892	971.162	778.140
140.570	25.081	970.697	778.522
141.585	25.139	969.542	777.777
142.600	25.013	968.694	776.484
143.614	25.340	967.424	776.809
144.629	25.345	966.796	776.261
145.643	25.286	965.447	774.854
146.658	24.937	964.507	772.526
147.673	24.934	963.126	771.338
148.687	24.791	962.517	770.167
149.702	24.794	961.003	768.898
150.716	24.794	960.341	768.302
151.731	24.919	959.904	768.420
152.746	25.100	959.662	768.935
153.760	25.256	958.646	768.722
154.775	25.265	958.115	768.266
155.789	25.139	957.401	767.086
156.804	25.161	956.184	766.137
157.819	25.214	955.404	765.673
158.833	25.216	955.160	765.418
159.848	25.187	954.176	764.437
160.862	25.094	952.724	762.810
161.877	25.221	951.537	762.331
162.892	25.223	950.874	761.741
163.906	25.111	949.839	760.369
164.921	24.962	949.161	759.129
165.935	25.225	948.158	759.373
166.950	25.196	947.547	758.694
167.964	25.116	946.705	757.615
168.979	24.967	945.318	755.807
169.994	24.934	944.228	754.729
171.008	25.300	943.711	755.792
172.023	25.262	943.194	755.151
173.037	25.155	941.980	753.661
174.052	24.905	940.903	751.684
175.067	24.851	940.685	751.218
176.081	25.023	939.786	751.153
177.096	24.994	938.941	750.293
178.110	24.736	937.967	748.368
179.125	24.441	937.464	746.666
180.140	24.565	937.408	747.072
181.154	24.572	937.106	746.796
182.169	24.967	936.847	748.172
183.183	25.196	936.452	748.747
184.198	25.059	935.410	747.279
185.213	25.196	934.255	746.858
186.227	25.234	933.772	746.565
187.242	25.162	933.464	745.954
188.256	25.226	933.016	745.797
189.271	25.209	932.494	745.240
190.286	25.036	930.664	742.995
191.300	24.261	929.253	738.591
192.315	23.543	927.973	734.538
193.329	23.492	927.726	734.068
194.344	24.517	927.649	738.180
195.359	25.045	927.632	740.283
196.373	25.104	927.102	740.040
197.388	25.062	926.389	739.234
198.402	25.111	925.939	739.010
199.417	25.063	925.294	738.233
200.432	24.944	923.933	736.590
201.446	24.699	923.183	734.922
202.461	24.572	923.463	734.557
203.475	23.867	921.008	729.645
204.490	23.030	919.649	725.074
205.504	24.040	919.931	729.373
206.519	24.707	919.658	731.823
207.534	24.816	919.186	731.829
208.548	25.095	919.520	733.173
209.563	25.007	918.331	731.799
210.577	24.861	918.131	730.976
211.592	25.407	917.432	732.584
212.607	25.369	916.613	731.713
213.621	25.312	916.332	731.192
214.636	25.296	915.256	730.203
215.650	25.362	914.195	729.557
216.665	25.349	913.911	729.215
217.680	25.267	912.997	728.087
218.694	24.828	911.731	725.235
219.709	24.877	911.131	724.890
220.723	24.923	910.793	724.746
221.738	24.972	910.444	724.604
222.753	24.938	910.007	724.053
223.767	25.184	909.192	724.334
224.782	25.505	908.782	725.239
225.796	25.356	908.538	724.379
226.811	24.754	907.040	720.696
227.826	24.044	905.776	716.770
228.840	24.186	905.436	717.007
229.855	24.452	904.196	717.032
230.869	23.919	903.676	714.416
231.884	24.471	903.514	716.439
232.899	25.075	903.738	718.977
233.913	24.995	903.076	718.068
234.928	25.008	902.673	717.734
235.942	24.916	901.544	716.406
236.957	24.632	900.966	714.747
237.972	24.704	900.107	714.292
238.986	24.751	899.772	714.149
240.001	24.789	899.241	713.814
241.015	24.947	898.242	713.588
242.030	24.959	898.345	713.656
243.045	25.127	897.721	713.765
244.059	25.264	897.046	713.712
245.074	24.969	896.333	711.906
246.088	24.702	895.447	710.080
247.103	25.045	895.026	711.046
248.117	25.506	895.442	713.142
249.132	25.800	894.700	713.655
250.147	25.821	894.650	713.633
251.161	25.940	894.194	713.679
252.176	26.026	893.038	713.032
253.190	25.969	892.557	712.360
254.205	26.248	891.915	712.887
255.220	26.150	891.285	711.933
256.234	26.097	890.259	710.843
257.249	25.814	890.196	709.615
258.263	25.820	889.179	708.764
259.278	26.027	888.862	709.262
260.293	26.129	888.199	709.071
261.307	26.010	887.109	707.673
262.322	25.737	886.357	705.940
263.336	24.836	884.811	701.118
264.351	23.994	882.704	696.092
265.366	24.124	882.631	696.483
266.380	25.080	883.609	700.933
267.395	25.399	883.031	701.658
268.409	25.493	882.394	701.457
269.424	25.556	881.928	701.270
270.439	25.647	881.347	701.101
271.453	25.877	880.614	701.353
272.468	25.976	880.255	701.387
273.482	26.008	879.820	701.102
274.497	25.595	878.587	698.455
275.512	25.325	877.587	696.551
276.526	25.567	877.781	697.584
277.541	25.579	877.789	697.575
278.555	25.489	876.967	696.508
279.570	25.511	875.437	695.320
280.585	25.809	875.268	696.274
281.599	25.680	874.125	694.808
282.614	25.123	872.766	691.515
283.628	25.028	872.411	690.809
284.643	25.484	872.203	692.340
285.657	24.910	871.366	689.403
286.672	24.698	870.429	687.786
287.687	25.319	870.425	690.111
288.701	25.391	869.805	689.836
289.716	24.993	869.063	687.659
290.730	25.006	868.441	687.156
291.745	24.694	867.643	685.268
292.760	24.881	867.536	685.837
293.774	25.890	868.141	690.120
294.789	26.394	867.445	691.436
295.803	26.312	867.246	690.903
296.818	26.338	866.301	690.188
297.833	25.942	864.919	687.514
298.847	25.700	864.843	686.469
299.862	26.184	864.358	687.869
300.876	26.448	864.146	688.644
301.891	26.181	863.416	686.987
302.906	25.664	862.558	684.278
303.920	25.881	862.145	684.714
304.935	26.236	862.131	685.989
305.949	26.240	861.050	685.084
306.964	26.091	860.117	683.717
307.979	26.143	860.109	683.846
308.993	26.475	859.754	684.762
310.008	26.382	859.122	683.847
311.022	26.170	858.157	682.216
312.037	26.004	857.660	681.136
313.052	25.702	856.785	679.240
314.066	24.851	855.355	674.840
315.081	24.569	854.496	673.039
316.095	25.510	854.738	676.713
317.110	25.968	854.297	678.027
318.125	25.160	852.664	673.636
319.139	24.201	851.477	669.043
320.154	24.048	851.149	668.152
321.168	25.034	851.544	672.102
322.183	25.653	851.611	674.417
323.197	25.837	851.462	674.929
324.212	26.013	850.943	675.117
325.227	26.039	850.618	674.895
326.241	25.912	850.114	673.960
327.256	25.693	849.352	672.479
328.270	25.698	848.587	671.833
329.285	25.569	847.604	670.513
330.300	25.382	846.644	668.999
331.314	25.621	846.645	669.832
332.329	25.992	846.611	671.127
333.343	26.177	846.273	671.486
334.358	26.230	845.630	671.112
335.373	26.279	845.250	670.936
336.387	26.358	845.405	671.290
337.402	26.534	845.203	671.725
338.416	26.479	844.889	671.210
339.431	26.680	844.240	671.381
340.446	26.852	844.103	671.849
341.460	26.570	843.625	670.365
342.475	26.316	843.547	669.305
343.489	26.531	842.598	669.288
344.504	26.854	842.224	670.125
345.519	26.991	841.849	670.273
346.533	26.833	841.888	669.662
347.548	27.003	841.060	669.570
348.562	26.924	840.428	668.718
349.577	26.808	840.224	668.069
350.592	26.957	839.444	667.936
351.606	26.876	838.567	666.882
352.621	26.801	837.707	665.864
353.635	26.673	836.746	664.572
354.650	26.215	834.992	661.445
355.665	25.162	833.695	656.506
356.679	25.599	833.586	657.960
357.694	26.084	833.285	659.437
358.708	25.919	832.679	658.297
359.723	26.353	832.829	659.943
360.738	26.640	832.514	660.683
361.752	26.751	831.703	660.383
362.767	27.091	831.698	661.560
363.781	27.199	831.423	661.673
364.796	27.227	830.771	661.201
365.810	27.495	830.273	661.718
366.825	27.335	829.946	660.817
367.840	27.185	828.850	659.342
368.854	26.460	828.748	656.574
369.869	26.601	828.311	656.679
370.883	26.634	827.452	656.061
371.898	26.578	827.129	655.545
372.913	26.773	826.551	655.734
373.927	26.874	826.528	656.021
374.942	26.988	825.760	655.766
375.956	26.995	825.818	655.780
376.971	27.137	825.533	656.007
377.986	27.228	825.066	655.907
379.000	27.337	823.964	655.366
380.015	27.100	823.752	654.285
381.029	27.125	823.011	653.729
382.044	27.235	822.984	654.047
383.059	27.481	821.771	653.907
384.073	27.285	821.569	652.983
385.088	27.374	820.949	652.754
386.102	27.090	820.121	651.019
387.117	27.137	819.343	650.514
388.132	26.661	818.350	647.964
389.146	26.229	817.261	645.502
390.161	26.557	817.446	646.764
391.175	27.055	817.472	648.504
392.190	26.774	816.074	646.337
393.205	25.329	814.027	639.515
394.219	23.867	812.015	632.680
395.234	23.769	812.207	632.423
396.248	25.470	813.787	639.659
397.263	26.831	814.767	645.219
398.278	26.801	814.126	644.548
399.292	26.653	813.588	643.538
400.307	26.682	812.748	642.920
401.321	26.648	812.627	642.645
402.336	27.251	812.273	644.448
403.350	27.404	812.742	645.306
404.365	27.889	811.906	646.301
405.380	27.998	811.883	646.612
406.394	28.226	811.070	646.714
407.409	27.942	811.005	645.601
408.423	27.995	810.245	645.124
409.438	28.164	810.162	645.597
410.453	28.066	809.908	644.993
411.467	27.937	809.081	643.822
412.482	27.883	808.885	643.418
413.496	28.036	808.681	643.737
414.511	28.107	807.773	643.208
415.526	28.090	807.664	643.006
416.540	27.825	807.084	641.557
417.555	27.600	806.165	639.979
418.569	27.700	805.769	639.958
419.584	27.728	804.982	639.376
420.599	27.662	804.446	638.663
421.613	109.436	1282.834	1448.877
422.628	94.487	1352.510	1448.967
