DTS Sentinel unit serial number:	SN413079Multiplexer serial number:	ORYXHardware model number:	OX4-SRSoftware version number:	ORYX F/W v4.00 Oryx Data Collector v3.7.2.0data status	okinstallation	princeton_trtdifferential loss correction	single-endedforward channel	channel 1reverse channel	N/Adate	2019/09/13time	11:22:35forward acquisition time	60.00reverse acquisition time	0.00gamma	496.2192k internal	0.2316k external	0.2316temperature offset calibration	1.0150default loss term (dB/km)	0.3790temperature slope calibration	1.0000multiplexer offset coefficient	1.0000multiplexer slope coefficient	1.0000fibre end	0.00T internal ref (°C)	32.50T ext. ref 1 (°C)	4.39T ext. ref 2 (°C)	29.64length (m)	temperature (°C)	Stokes	anti-Stokes-747.200	59.374	0.041	0.041
-746.185	-82.594	0.207	-0.068
-745.171	-135.759	0.111	0.013
-744.156	800.000	0.061	0.204
-743.142	-128.934	-0.199	0.028
-742.127	59.488	-0.209	0.209
-741.112	-200.000	-0.023	0.320
-740.098	13.099	-0.015	-0.011
-739.083	-121.481	0.345	-0.058
-738.069	68.930	0.185	0.193
-737.054	474.496	-0.124	-0.284
-736.039	-96.042	-0.242	-0.065
-735.025	-135.894	0.181	0.022
-734.010	29.502	-0.286	-0.246
-732.996	-7.702	-0.074	0.050
-731.981	-33.509	0.180	0.101
-730.966	28.355	-0.175	-0.150
-729.952	-88.099	-0.386	0.117
-728.937	64.120	-0.051	0.052
-727.923	-200.000	-0.010	0.109
-726.908	-77.907	0.144	0.050
-725.894	-90.896	0.263	-0.077
-724.879	71.672	-0.124	0.131
-723.864	-67.747	0.228	-0.090
-722.850	-146.252	-0.454	0.040
-721.835	6.131	0.087	-0.065
-720.821	-76.888	0.075	-0.026
-719.806	-200.000	0.004	-0.297
-718.791	-107.887	-0.322	-0.071
-717.777	154.250	-0.154	0.213
-716.762	-200.000	0.026	0.147
-715.748	-200.000	-0.004	-0.117
-714.733	568.288	0.028	0.069
-713.718	324.032	0.118	0.228
-712.704	800.000	0.052	0.177
-711.689	-200.000	-0.002	0.117
-710.675	222.602	-0.152	-0.248
-709.660	1.419	0.221	-0.160
-708.645	-19.789	-0.159	0.099
-707.631	-143.974	-0.195	0.019
-706.616	800.000	0.063	-0.197
-705.602	377.790	0.154	-0.319
-704.587	457.206	0.072	-0.161
-703.572	-152.289	-0.173	0.013
-702.558	230.355	0.238	0.394
-701.543	-142.438	0.137	0.014
-700.529	-200.000	-0.032	-0.203
-699.514	343.144	-0.034	-0.067
-698.499	48.800	-0.342	-0.325
-697.485	69.293	0.030	-0.031
-696.470	-33.036	-0.160	-0.090
-695.456	-27.095	0.255	-0.151
-694.441	-128.817	-0.077	-0.011
-693.426	-64.305	0.280	0.115
-692.412	289.747	-0.062	0.113
-691.397	77.551	-0.181	-0.195
-690.383	-79.207	-0.253	-0.087
-689.368	185.477	0.179	-0.269
-688.354	-200.000	0.005	0.060
-687.339	611.455	0.044	0.111
-686.324	306.575	0.068	-0.128
-685.310	10.381	-0.223	0.172
-684.295	19.200	-0.165	-0.134
-683.281	131.157	-0.093	0.120
-682.266	-200.000	-0.021	0.149
-681.251	265.564	0.100	0.176
-680.237	122.574	0.240	0.304
-679.222	-150.398	-0.067	-0.005
-678.208	-116.181	-0.158	0.030
-677.193	665.002	0.023	-0.061
-676.178	-200.000	-0.034	0.161
-675.164	204.718	-0.078	0.122
-674.149	-83.080	0.096	0.031
-673.135	-200.000	0.020	0.143
-672.120	567.710	0.150	0.368
-671.105	800.000	0.095	-0.298
-670.091	333.870	0.086	0.167
-669.076	-6.885	0.252	0.173
-668.062	-200.000	-0.027	-0.148
-667.047	48.475	-0.317	-0.299
-666.032	156.327	0.116	0.162
-665.018	114.175	0.126	0.155
-664.003	-185.035	-0.266	0.004
-662.989	9.957	0.126	0.097
-661.974	102.063	-0.302	0.356
-660.959	-178.283	0.307	-0.007
-659.945	-73.528	0.207	0.076
-658.930	530.820	-0.088	0.209
-657.916	-2.867	0.247	0.174
-656.901	150.625	0.101	-0.138
-655.886	-200.000	-0.004	-0.298
-654.872	49.937	-0.100	0.095
-653.857	-16.484	-0.094	0.060
-652.843	373.663	-0.127	-0.260
-651.828	128.095	-0.167	-0.215
-650.814	-200.000	-0.089	-0.413
-649.799	543.852	-0.128	-0.309
-648.784	16.146	-0.112	0.089
-647.770	-28.396	-0.162	0.095
-646.755	-16.470	0.062	-0.040
-645.741	-112.861	0.190	0.038
-644.726	-87.579	-0.398	0.121
-643.711	-44.243	-0.085	0.043
-642.697	347.385	-0.085	0.169
-641.682	-61.307	-0.132	0.056
-640.668	-200.000	-0.021	-0.120
-639.653	-131.973	-0.266	0.035
-638.638	193.894	0.115	-0.175
-637.624	-6.583	-0.100	0.069
-636.609	26.508	0.235	-0.198
-635.595	800.000	-0.152	-0.502
-634.580	338.523	-0.132	-0.259
-633.565	-18.016	0.158	-0.100
-632.551	-200.000	-0.036	-0.280
-631.536	220.469	-0.128	0.207
-630.522	-66.847	-0.102	0.041
-629.507	266.217	-0.202	0.356
-628.492	47.206	0.143	0.134
-627.478	-107.349	0.135	-0.030
-626.463	-84.748	0.338	-0.107
-625.449	-30.406	-0.241	-0.138
-624.434	-73.193	0.340	-0.126
-623.419	65.859	-0.191	0.195
-622.405	282.566	-0.069	0.126
-621.390	332.478	-0.029	-0.057
-620.376	800.000	-0.073	-0.277
-619.361	116.441	-0.026	-0.032
-618.346	-56.890	-0.385	-0.172
-617.332	653.544	-0.085	0.219
-616.317	-65.000	0.065	0.026
-615.303	675.717	-0.079	0.207
-614.288	-95.152	0.230	0.063
-613.273	-98.672	0.159	0.041
-612.259	-200.000	0.010	-0.468
-611.244	-42.329	-0.227	-0.117
-610.230	-23.043	0.110	-0.067
-609.215	-14.143	-0.031	-0.020
-608.201	482.688	0.095	-0.218
-607.186	800.000	0.054	-0.181
-606.171	30.181	-0.149	0.128
-605.157	282.299	0.199	0.360
-604.142	26.800	-0.106	-0.089
-603.128	92.083	-0.296	0.336
-602.113	508.947	0.089	0.209
-601.098	188.944	-0.079	0.119
-600.084	800.000	-0.056	0.167
-599.069	-87.311	-0.189	0.058
-598.055	-158.387	0.074	-0.004
-597.040	-33.749	0.064	0.036
-596.025	-86.935	0.329	-0.101
-595.011	800.000	0.025	0.107
-593.996	-103.925	0.092	-0.022
-592.982	36.398	-0.123	0.109
-591.967	-166.536	0.212	0.009
-590.952	33.283	-0.208	-0.181
-589.938	-48.293	-0.482	0.234
-588.923	26.309	0.015	-0.013
-587.909	800.000	0.007	0.029
-586.894	196.998	0.124	0.191
-585.879	-130.599	-0.048	0.007
-584.865	86.000	0.098	0.109
-583.850	-200.000	-0.007	0.039
-582.836	-30.944	-0.212	0.121
-581.821	-102.733	0.181	0.044
-580.806	-200.000	-0.038	0.233
-579.792	-200.000	0.013	0.295
-578.777	54.029	0.094	0.091
-577.763	107.209	-0.144	-0.172
-576.748	109.874	-0.183	-0.220
-575.733	146.380	-0.082	0.110
-574.719	-200.000	-0.002	0.207
-573.704	123.579	0.055	0.070
-572.690	-200.000	-0.004	0.099
-571.675	210.931	0.061	-0.096
-570.661	366.663	-0.046	0.094
-569.646	45.757	-0.245	0.227
-568.631	-72.027	0.150	-0.056
-567.617	-200.000	-0.004	-0.105
-566.602	-200.000	-0.012	-0.163
-565.588	-50.394	0.244	-0.116
-564.573	-103.247	0.105	0.025
-563.558	647.745	0.041	-0.105
-562.544	-52.447	-0.157	0.073
-561.529	800.000	-0.050	0.147
-560.515	-53.785	-0.368	-0.169
-559.500	91.861	-0.043	-0.048
-558.485	-55.286	-0.298	-0.135
-557.471	292.343	-0.069	-0.126
-556.456	13.110	0.508	0.396
-555.442	-99.502	0.282	-0.071
-554.427	-37.854	-0.118	-0.063
-553.412	-174.843	0.226	0.006
-552.398	45.388	0.342	0.317
-551.383	-84.642	0.241	-0.076
-550.369	-98.260	-0.224	0.058
-549.354	-200.000	-0.024	0.167
-548.339	-111.495	0.210	0.043
-547.325	14.021	0.134	0.105
-546.310	20.000	-0.093	-0.075
-545.296	18.003	0.024	0.020
-544.281	800.000	-0.062	0.221
-543.266	77.392	-0.223	-0.238
-542.252	-200.000	0.075	-0.440
-541.237	-200.000	-0.022	-0.304
-540.223	-69.345	0.380	-0.147
-539.208	21.339	0.050	-0.041
-538.193	-115.306	-0.064	0.012
-537.179	-100.421	-0.177	0.044
-536.164	-51.883	0.107	-0.050
-535.150	250.423	-0.025	0.043
-534.135	-200.000	0.025	0.344
-533.121	-200.000	0.004	0.130
-532.106	-200.000	0.018	-0.217
-531.091	43.821	-0.050	0.046
-530.077	-200.000	-0.035	0.187
-529.062	-152.556	0.033	0.002
-528.048	173.495	0.269	-0.389
-527.033	-48.077	0.404	-0.196
-526.018	-103.394	0.096	-0.023
-525.004	204.633	-0.175	0.272
-523.989	-136.300	-0.073	0.009
-522.975	-200.000	-0.003	0.208
-521.960	226.202	-0.036	0.058
-520.945	16.897	-0.163	0.129
-519.931	24.047	-0.137	0.114
-518.916	-3.544	0.209	0.146
-517.902	77.556	-0.087	-0.094
-516.887	-51.426	-0.235	-0.110
-515.872	800.000	0.091	0.346
-514.858	-67.875	0.364	-0.143
-513.843	-200.000	-0.024	-0.131
-512.829	-153.507	-0.246	-0.017
-511.814	118.074	-0.223	-0.275
-510.799	-142.064	-0.442	0.044
-509.785	800.000	-0.049	0.169
-508.770	728.493	0.041	-0.109
-507.756	800.000	0.053	-0.213
-506.741	-159.129	-0.126	-0.007
-505.726	8.811	-0.175	-0.133
-504.712	-77.748	-0.170	-0.059
-503.697	0.370	0.249	-0.178
-502.683	195.863	-0.213	-0.325
-501.668	800.000	0.038	-0.136
-500.653	-200.000	-0.007	0.044
-499.639	-50.083	0.261	-0.124
-498.624	-154.543	0.208	-0.014
-497.610	-200.000	-0.041	-0.449
-496.595	60.871	0.084	-0.083
-495.581	129.120	0.220	-0.281
-494.566	-94.793	0.256	0.070
-493.551	-37.469	-0.208	0.111
-492.537	376.851	0.109	0.223
-491.522	273.133	-0.103	-0.183
-490.508	-104.891	0.086	0.020
-489.493	73.136	0.082	-0.086
-488.478	495.109	-0.050	0.116
-487.464	-20.993	-0.080	0.049
-486.449	234.156	-0.106	-0.175
-485.435	40.242	0.328	-0.296
-484.420	-200.000	0.039	-0.257
-483.405	36.653	-0.180	-0.159
-482.391	800.000	0.030	-0.083
-481.376	-116.900	-0.094	-0.017
-480.362	-19.226	0.078	-0.048
-479.347	-97.632	0.177	-0.046
-478.332	800.000	0.083	-0.257
-477.318	-74.740	-0.148	0.053
-476.303	-187.227	-0.131	0.002
-475.289	107.210	0.283	0.337
-474.274	-112.235	0.225	0.045
-473.259	244.680	-0.110	-0.185
-472.245	-200.000	-0.012	-0.190
-471.230	42.470	0.231	0.211
-470.216	-200.000	0.014	0.131
-469.201	256.055	-0.040	-0.069
-468.186	800.000	-0.132	-0.389
-467.172	86.035	-0.233	0.257
-466.157	800.000	-0.046	0.154
-465.143	6.258	0.259	-0.192
-464.128	242.861	0.087	0.145
-463.113	35.213	-0.077	-0.068
-462.099	800.000	0.078	-0.226
-461.084	10.663	-0.049	0.037
-460.070	495.635	-0.090	-0.208
-459.055	-200.000	0.028	0.166
-458.040	800.000	-0.041	0.150
-457.026	83.614	-0.125	-0.136
-456.011	-86.643	0.153	0.047
-454.997	-161.549	-0.045	-0.002
-453.982	-45.066	-0.177	0.088
-452.968	-126.426	-0.108	0.016
-451.953	187.730	0.066	0.098
-450.938	141.771	-0.062	0.083
-449.924	198.202	0.106	-0.163
-448.909	399.254	-0.171	-0.359
-447.895	800.000	0.027	-0.100
-446.880	-135.506	-0.394	0.047
-445.865	427.352	-0.072	0.155
-444.851	182.647	-0.058	-0.085
-443.836	-85.468	-0.090	0.028
-442.822	-77.193	-0.302	0.105
-441.807	-200.000	0.056	-0.309
-440.792	-78.873	-0.162	0.055
-439.778	-44.625	0.220	-0.110
-438.763	-152.266	0.128	0.009
-437.749	-200.000	0.073	0.423
-436.734	144.525	-0.036	-0.049
-435.719	2.315	-0.175	0.127
-434.705	-150.486	-0.160	-0.012
-433.690	-200.000	0.012	-0.060
-432.676	25.279	-0.075	0.062
-431.661	277.903	0.094	0.168
-430.646	302.563	-0.058	-0.107
-429.632	-200.000	-0.012	0.123
-428.617	127.387	0.204	0.259
-427.603	373.472	-0.172	0.351
-426.588	-200.000	0.029	-0.191
-425.573	140.185	-0.093	-0.123
-424.559	-114.011	0.317	-0.061
-423.544	-54.792	0.212	0.096
-422.530	361.087	-0.049	-0.099
-421.515	26.402	-0.482	-0.403
-420.500	-49.702	0.213	-0.101
-419.486	-141.389	0.379	0.038
-418.471	-57.213	-0.238	0.105
-417.457	354.238	0.143	0.283
-416.442	-28.913	-0.114	0.066
-415.428	205.853	0.091	0.142
-414.413	-75.097	-0.115	-0.041
-413.398	34.927	0.063	0.055
-412.384	23.335	-0.072	0.059
-411.369	-91.057	-0.143	-0.041
-410.355	290.084	0.105	0.190
-409.340	-125.579	-0.678	0.103
-408.325	-62.023	-0.125	0.052
-407.311	110.418	-0.337	0.405
-406.296	-137.441	0.246	0.028
-405.282	13.646	-0.288	-0.224
-404.267	800.000	0.027	-0.111
-403.252	-80.665	-0.319	0.106
-402.238	-111.534	0.111	-0.023
-401.223	800.000	-0.037	0.104
-400.209	-130.204	-0.191	0.026
-399.194	-87.705	-0.083	-0.025
-398.179	249.961	-0.071	0.121
-397.165	-32.938	-0.304	0.169
-396.150	-31.117	0.174	0.098
-395.136	511.488	0.086	0.201
-394.121	-186.300	0.222	-0.003
-393.106	214.507	0.062	-0.098
-392.092	335.668	0.072	0.140
-391.077	-81.811	0.277	-0.091
-390.063	160.558	0.058	0.081
-389.048	80.596	-0.260	0.280
-388.033	373.146	0.109	-0.221
-387.019	800.000	-0.092	-0.265
-386.004	-88.577	0.192	-0.057
-384.990	-200.000	0.041	0.222
-383.975	461.389	0.205	-0.456
-382.960	30.794	0.169	0.145
-381.946	-4.789	0.190	0.131
-380.931	219.543	0.161	-0.257
-379.917	17.495	0.118	0.093
-378.902	77.688	-0.175	0.186
-377.888	-85.891	-0.182	0.056
-376.873	230.996	0.181	-0.296
-375.858	-120.617	0.057	0.010
-374.844	-58.390	0.167	0.073
-373.829	204.205	0.062	0.096
-372.815	-135.642	-0.411	0.049
-371.800	800.000	0.134	0.423
-370.785	309.451	-0.047	-0.088
-369.771	78.193	-0.155	0.166
-368.756	800.000	0.109	-0.321
-367.742	7.522	0.151	-0.113
-366.727	-42.564	0.169	-0.086
-365.712	-200.000	0.007	0.269
-364.698	-95.217	-0.159	-0.043
-363.683	-200.000	0.025	0.170
-362.669	-55.669	0.168	0.075
-361.654	-200.000	-0.016	-0.133
-360.639	649.868	0.037	-0.095
-359.625	800.000	0.049	-0.183
-358.610	91.909	-0.185	-0.207
-357.596	116.893	-0.152	-0.186
-356.581	110.244	-0.155	-0.186
-355.566	-200.000	-0.003	0.145
-354.552	35.907	0.109	-0.096
-353.537	-49.293	0.065	-0.031
-352.523	-200.000	-0.004	0.111
-351.508	-200.000	0.004	-0.106
-350.493	61.673	0.183	0.182
-349.479	-157.467	0.175	-0.010
-348.464	10.110	-0.131	-0.099
-347.450	15.089	-0.097	-0.076
-346.435	192.482	-0.213	-0.321
-345.420	144.453	0.073	0.097
-344.406	800.000	-0.069	0.251
-343.391	-71.676	0.241	0.090
-342.377	800.000	-0.057	0.171
-341.362	800.000	-0.063	-0.242
-340.348	48.530	-0.215	-0.201
-339.333	-200.000	0.011	-0.245
-338.318	-200.000	-0.020	-0.312
-337.304	-200.000	0.010	-0.240
-336.289	800.000	0.110	0.336
-335.275	-200.000	-0.051	0.237
-334.260	-118.392	-0.278	0.049
-333.245	402.829	0.034	-0.070
-332.231	800.000	-0.046	-0.188
-331.216	-6.248	0.029	-0.019
-330.202	20.863	-0.157	0.127
-329.187	185.765	-0.000	-0.000
-328.172	-47.653	0.315	0.153
-327.158	-140.840	0.108	0.011
-326.143	800.000	-0.029	-0.106
-325.129	5.624	0.213	-0.156
-324.114	153.511	0.078	0.106
-323.099	180.841	0.028	0.042
-322.085	-110.302	0.268	0.056
-321.070	-11.431	0.364	0.238
-320.056	-125.188	0.195	0.030
-319.041	-200.000	-0.009	-0.139
-318.026	-44.976	0.053	-0.026
-317.012	-200.000	0.067	0.494
-315.997	379.290	0.009	-0.018
-314.983	415.877	0.154	-0.327
-313.968	230.443	-0.120	-0.196
-312.953	288.063	-0.108	0.195
-311.939	-99.768	0.238	0.059
-310.924	55.567	-0.061	0.059
-309.910	-18.565	-0.112	0.070
-308.895	-66.946	-0.094	-0.037
-307.880	460.468	0.034	0.076
-306.866	-48.292	0.175	-0.084
-305.851	338.135	0.080	0.154
-304.837	-151.072	0.182	-0.014
-303.822	-75.983	-0.044	0.016
-302.807	-200.000	-0.003	-0.355
-301.793	800.000	-0.064	-0.254
-300.778	15.711	-0.128	-0.100
-299.764	-200.000	0.017	-0.305
-298.749	58.848	0.196	0.192
-297.735	424.552	0.252	0.540
-296.720	-69.287	0.099	0.038
-295.705	68.126	-0.336	0.343
-294.691	17.816	0.275	0.218
-293.676	4.171	-0.152	0.111
-292.662	-200.000	-0.007	-0.264
-291.647	800.000	-0.048	0.150
-290.632	-200.000	-0.156	-0.000
-289.618	-80.866	0.496	0.164
-288.603	158.209	-0.094	0.130
-287.589	-200.000	-0.042	0.258
-286.574	10.281	0.045	-0.034
-285.559	-17.671	-0.073	0.046
-284.545	-71.389	0.075	0.028
-283.530	-200.000	0.032	0.344
-282.516	-35.191	0.122	-0.066
-281.501	-59.536	0.331	0.141
-280.486	298.730	0.133	0.244
-279.472	-177.076	0.197	0.005
-278.457	-25.423	0.084	-0.049
-277.443	-35.803	-0.140	-0.075
-276.428	251.214	-0.020	0.033
-275.413	800.000	0.088	0.365
-274.399	-91.171	0.279	0.080
-273.384	22.599	-0.256	-0.208
-272.370	36.341	-0.181	-0.159
-271.355	17.062	-0.321	-0.253
-270.340	-77.955	0.576	-0.197
-269.326	-11.718	-0.077	0.050
-268.311	800.000	0.069	0.274
-267.297	-80.529	-0.157	-0.052
-266.282	-111.598	-0.109	0.022
-265.267	-7.607	-0.468	-0.314
-264.253	-47.841	-0.112	-0.054
-263.238	-28.229	-0.339	-0.194
-262.224	-78.849	-0.207	-0.070
-261.209	105.875	0.083	0.097
-260.195	-200.000	0.027	0.142
-259.180	-120.892	0.116	-0.019
-258.165	128.560	0.075	-0.095
-257.151	631.267	0.042	-0.107
-256.136	-127.116	-0.168	0.024
-255.122	238.437	0.214	-0.353
-254.107	-86.123	-0.065	0.020
-253.092	-83.307	-0.341	0.109
-252.078	-200.000	-0.021	0.278
-251.063	-136.413	0.302	0.035
-250.049	800.000	-0.044	-0.173
-249.034	-200.000	0.012	-0.159
-248.019	82.174	0.076	-0.082
-247.005	-153.599	-0.180	-0.012
-245.990	58.196	0.058	-0.057
-244.976	25.487	-0.199	-0.165
-243.961	800.000	0.099	-0.333
-242.946	98.343	0.169	0.193
-241.932	-172.735	0.199	-0.006
-240.917	-200.000	-0.007	0.288
-239.903	469.954	0.079	-0.177
-238.888	-200.000	-0.033	-0.245
-237.873	-47.323	0.102	-0.049
-236.859	511.584	-0.029	-0.067
-235.844	-9.649	-0.106	-0.070
-234.830	-200.000	0.067	-0.326
-233.815	2.144	0.050	0.036
-232.800	652.569	-0.185	0.472
-231.786	92.936	0.036	-0.041
-230.771	39.282	0.156	0.138
-229.757	21.212	0.105	0.084
-228.742	800.000	-0.081	0.347
-227.727	494.813	0.037	0.084
-226.713	65.859	-0.137	0.137
-225.698	-98.930	-0.189	-0.048
-224.684	68.800	0.127	-0.129
-223.669	-200.000	0.008	0.104
-222.655	37.600	0.388	0.342
-221.640	127.377	-0.184	0.231
-220.625	-200.000	-0.034	-0.305
-219.611	542.121	0.149	-0.351
-218.596	-200.000	0.015	0.105
-217.582	-119.750	-0.145	0.025
-216.567	141.380	-0.039	-0.052
-215.552	-60.457	-0.109	0.046
-214.538	800.000	0.123	0.371
-213.523	-200.000	-0.021	-0.100
-212.509	-72.886	0.205	0.075
-211.494	800.000	-0.072	-0.258
-210.479	-56.215	0.217	-0.096
-209.465	-200.000	0.019	-0.162
-208.450	-200.000	0.004	-0.301
-207.436	-139.080	-0.513	-0.055
-206.421	15.633	0.098	-0.076
-205.406	258.142	0.145	0.248
-204.392	95.297	0.099	-0.112
-203.377	800.000	-0.077	-0.212
-202.363	25.380	0.285	-0.235
-201.348	82.979	0.134	-0.144
-200.333	-53.874	-0.096	0.044
-199.319	-200.000	-0.004	0.149
-198.304	800.000	-0.037	0.109
-197.290	-105.776	0.539	0.121
-196.275	-200.000	0.009	-0.042
-195.260	150.963	0.225	0.303
-194.246	-55.779	0.229	-0.102
-193.231	-200.000	0.021	-0.423
-192.217	-22.499	-0.155	-0.093
-191.202	800.000	0.010	-0.033
-190.187	246.330	0.116	-0.194
-189.173	-200.000	-0.012	0.104
-188.158	-76.852	0.045	0.016
-187.144	-123.578	-0.241	-0.038
-186.129	-0.034	-0.347	-0.245
-185.114	800.000	0.023	-0.071
-184.100	107.500	-0.228	-0.269
-183.085	-69.528	-0.236	-0.090
-182.071	-158.497	0.267	-0.015
-181.056	-109.027	-0.226	-0.048
-180.042	138.732	0.124	0.162
-179.027	-18.729	-0.196	0.121
-178.012	292.528	0.078	0.142
-176.998	113.710	0.172	0.208
-175.983	-105.091	-0.225	0.051
-174.969	15.124	-0.292	0.227
-173.954	-65.198	0.134	0.053
-172.939	-200.000	-0.012	-0.111
-171.925	-116.245	0.150	0.028
-170.910	-101.138	-0.155	0.037
-169.896	-102.361	0.178	-0.042
-168.881	155.703	-0.119	-0.162
-167.866	-31.504	0.295	0.164
-166.852	800.000	-0.067	0.201
-165.837	617.798	-0.149	0.370
-164.823	-200.000	0.009	0.101
-163.808	-133.462	-0.315	-0.039
-162.793	-67.970	0.224	0.087
-161.779	47.561	0.155	0.143
-160.764	800.000	0.055	0.213
-159.750	-200.000	0.053	-0.251
-158.735	217.492	0.050	-0.079
-157.720	800.000	-0.030	0.125
-156.706	-162.421	-0.195	0.010
-155.691	-200.000	-0.006	0.198
-154.677	0.963	-0.137	-0.097
-153.662	454.171	0.053	-0.116
-152.647	-16.165	-0.128	0.081
-151.633	112.597	0.026	0.032
-150.618	-70.390	0.221	0.083
-149.604	544.977	0.124	-0.292
-148.589	150.271	0.141	-0.189
-147.574	94.656	-0.223	0.251
-146.560	154.898	0.179	-0.243
-145.545	-73.790	0.440	0.158
-144.531	-54.862	0.079	-0.035
-143.516	753.672	-0.023	0.063
-142.502	-12.129	-0.057	0.037
-141.487	327.712	-0.055	-0.104
-140.472	123.219	0.256	0.317
-139.458	205.762	-0.071	0.109
-138.443	-200.000	-0.015	0.091
-137.429	-90.701	0.082	0.023
-136.414	35.701	0.225	0.196
-135.399	132.302	0.191	-0.243
-134.385	777.782	-0.067	0.181
-133.370	800.000	-0.058	-0.213
-132.356	-32.522	0.081	0.045
-131.341	6.036	-0.181	-0.133
-130.326	61.963	-0.110	0.108
-129.312	245.106	-0.144	-0.239
-128.297	73.290	0.162	0.167
-127.283	649.292	-0.104	0.263
-126.268	128.921	0.238	-0.300
-125.253	5.842	-0.211	-0.154
-124.239	-162.744	-0.327	0.016
-123.224	224.726	0.062	0.099
-122.210	86.821	0.097	0.106
-121.195	-129.027	0.221	0.031
-120.180	167.753	-0.202	0.284
-119.166	-115.502	0.327	-0.061
-118.151	-155.076	0.100	-0.006
-117.137	4.853	0.106	0.077
-116.122	-41.895	0.319	-0.161
-115.107	21.844	-0.179	0.144
-114.093	-10.785	-0.155	0.102
-113.078	23.579	-0.265	0.216
-112.064	-101.418	-0.244	-0.059
-111.049	14.088	0.241	0.186
-110.034	-54.395	0.040	-0.018
-109.020	-200.000	0.351	0.000
-108.005	84.376	-0.222	0.240
-106.991	-200.000	0.033	0.207
-105.976	-200.000	-0.011	-0.192
-104.962	170.412	-0.148	-0.209
-103.947	-200.000	0.007	0.183
-102.932	-200.000	0.071	-0.336
-101.918	117.259	0.274	0.333
-100.903	-200.000	0.004	-0.152
-99.889	79.881	0.168	0.179
-98.874	-120.407	0.207	0.035
-97.859	-37.902	0.137	-0.072
-96.845	558.981	0.068	-0.163
-95.830	-200.000	0.012	-0.068
-94.816	260.257	-0.195	0.333
-93.801	113.076	0.148	-0.177
-92.786	-144.258	0.292	0.027
-91.772	-200.000	0.015	-0.067
-90.757	-138.008	0.207	0.023
-89.743	-200.000	-0.009	-0.061
-88.728	-105.285	0.166	0.037
-87.713	20.525	-0.064	-0.051
-86.699	101.251	0.319	-0.367
-85.684	-200.000	-0.060	-0.294
-84.670	800.000	-0.063	-0.201
-83.655	-126.245	0.104	-0.015
-82.640	-200.000	0.034	0.350
-81.626	43.153	-0.299	0.269
-80.611	113.011	-0.207	0.248
-79.597	637.855	-0.043	-0.109
-78.582	280.890	0.011	0.019
-77.567	-54.531	0.268	-0.120
-76.553	-88.256	-0.200	-0.059
-75.538	-200.000	0.066	-0.000
-74.524	-161.972	0.045	-0.002
-73.509	552.829	0.070	0.165
-72.494	21.509	-0.123	0.098
-71.480	7.014	0.196	-0.144
-70.465	-183.417	0.147	-0.003
-69.451	669.583	0.112	-0.285
-68.436	20.742	0.258	0.206
-67.422	-169.409	-0.121	0.004
-66.407	-102.287	0.146	-0.035
-65.392	50.623	0.242	0.226
-64.378	-51.647	-0.062	-0.028
-63.363	184.087	0.157	0.230
-62.349	154.336	-0.115	0.156
-61.334	30.757	-1.016	-0.857
-60.319	239.763	0.247	0.406
-59.305	-200.000	-0.163	-0.812
-58.290	418.575	0.289	0.609
-57.276	800.000	0.516	1.567
-56.261	-200.000	97.250	588.055
-55.246	611.677	1422.289	3507.068
-54.232	186.250	2618.209	3840.588
-53.217	119.777	2183.430	2667.818
-52.203	44.587	1630.129	1477.178
-51.188	36.084	1363.589	1183.661
-50.173	32.714	1320.793	1126.376
-49.159	56.192	1367.572	1309.207
-48.144	57.833	1384.669	1335.458
-47.130	36.302	1342.875	1166.813
-46.115	32.755	1325.664	1130.593
-45.100	32.503	1320.679	1124.790
-44.086	32.450	1317.961	1122.114
-43.071	32.435	1315.604	1119.976
-42.057	32.285	1313.976	1117.653
-41.042	32.389	1312.467	1116.943
-40.027	32.417	1310.587	1115.467
-39.013	32.331	1309.427	1113.922
-37.998	32.469	1307.464	1113.029
-36.984	32.504	1305.082	1111.160
-35.969	32.557	1303.310	1109.923
-34.954	32.585	1301.974	1108.905
-33.940	32.604	1300.588	1107.792
-32.925	32.554	1299.203	1106.276
-31.911	32.555	1297.672	1104.935
-30.896	32.650	1295.683	1103.750
-29.881	32.572	1294.922	1102.604
-28.867	32.639	1293.336	1101.599
-27.852	32.631	1291.776	1100.181
-26.838	32.667	1290.135	1098.951
-25.823	32.572	1289.087	1097.463
-24.809	32.649	1287.663	1096.654
-23.794	32.610	1286.536	1095.424
-22.779	32.700	1284.645	1094.290
-21.765	32.584	1283.584	1092.674
-20.750	32.602	1282.577	1091.877
-19.736	32.417	1281.792	1090.094
-18.721	32.466	1280.203	1088.978
-17.706	32.571	1278.624	1088.202
-16.692	32.467	1277.911	1086.951
-15.677	32.463	1276.325	1085.535
-14.663	32.400	1275.386	1084.330
-13.648	32.487	1274.513	1084.043
-12.633	32.349	1273.523	1082.366
-11.619	32.396	1272.940	1082.100
-10.604	32.427	1272.101	1081.520
-9.590	32.359	1270.640	1079.846
-8.575	32.372	1269.945	1079.287
-7.560	32.406	1269.261	1078.860
-6.546	32.358	1268.162	1077.604
-5.531	32.261	1267.864	1076.753
-4.517	32.374	1266.803	1076.458
-3.502	32.453	1265.703	1075.929
-2.487	32.461	1264.625	1075.016
-1.473	32.606	1260.635	1072.411
-0.458	31.516	1245.686	1053.514
0.556	29.535	1227.560	1013.521
1.571	25.729	1231.559	995.725
2.586	24.440	1245.982	1000.077
3.600	23.015	1232.902	981.585
4.615	17.221	1159.495	892.709
5.629	8.532	1084.486	792.014
6.644	4.628	1064.500	758.339
7.659	4.350	1061.910	755.077
8.673	4.347	1060.416	753.935
9.688	4.215	1058.736	752.034
10.702	4.791	1057.363	753.778
11.717	10.288	1065.206	786.053
12.731	18.653	1077.060	835.636
13.746	22.025	1081.084	855.134
14.761	21.890	1079.876	853.446
15.775	21.006	1078.210	847.761
16.790	19.924	1076.602	841.163
17.804	19.266	1075.018	836.657
18.819	18.999	1074.293	834.726
19.834	19.084	1073.033	834.085
20.848	18.853	1072.455	832.444
21.863	18.627	1071.854	830.807
22.877	18.529	1071.096	829.672
23.892	18.480	1070.194	828.662
24.907	18.397	1069.570	827.705
25.921	18.553	1068.513	827.569
26.936	18.475	1066.894	825.866
27.950	18.435	1065.767	824.725
28.965	18.525	1064.448	824.067
29.980	18.757	1062.890	823.900
30.994	18.869	1061.684	823.428
32.009	18.841	1061.240	822.876
33.023	18.856	1059.857	821.806
34.038	18.693	1059.016	820.299
35.053	18.611	1058.067	819.101
36.067	18.509	1056.948	817.678
37.082	18.634	1056.277	817.679
38.096	18.779	1055.280	817.529
39.111	18.779	1055.008	817.245
40.126	18.489	1053.554	814.666
41.140	18.282	1051.913	812.345
42.155	18.146	1050.724	810.709
43.169	18.191	1049.446	809.864
44.184	18.137	1048.601	808.883
45.199	18.245	1047.641	808.582
46.213	18.337	1047.054	808.492
47.228	18.522	1045.963	808.452
48.242	18.599	1045.145	808.109
49.257	18.541	1044.015	806.891
50.271	18.683	1042.958	806.669
51.286	18.605	1042.834	806.139
52.301	18.602	1041.639	805.129
53.315	18.461	1040.604	803.597
54.330	18.376	1039.255	802.084
55.344	18.231	1038.739	800.937
56.359	18.456	1037.692	801.109
57.374	18.248	1036.793	799.374
58.388	18.195	1036.062	798.495
59.403	18.084	1035.396	797.392
60.417	18.125	1034.640	796.931
61.432	18.025	1033.417	795.451
62.447	17.920	1032.519	794.202
63.461	18.007	1031.743	793.941
64.476	17.963	1030.642	792.816
65.490	17.885	1030.130	791.992
66.505	18.081	1029.399	792.267
67.520	18.014	1028.798	791.423
68.534	18.053	1027.748	790.725
69.549	18.067	1026.846	790.029
70.563	17.953	1025.854	788.670
71.578	17.861	1025.262	787.720
72.593	17.751	1024.471	786.535
73.607	17.685	1024.008	785.803
74.622	17.837	1023.192	785.811
75.636	17.805	1022.782	785.278
76.651	17.858	1021.874	784.753
77.666	17.884	1021.413	784.449
78.680	17.992	1020.822	784.423
79.695	17.855	1020.537	783.506
80.709	18.136	1019.655	784.048
81.724	18.114	1019.103	783.454
82.739	18.416	1017.999	783.918
83.753	18.530	1018.036	784.398
84.768	18.768	1017.243	784.804
85.782	18.990	1016.433	785.124
86.797	18.896	1015.242	783.709
87.812	18.680	1014.399	782.001
88.826	18.700	1013.643	781.441
89.841	18.761	1012.439	780.720
90.855	18.770	1011.696	780.122
91.870	18.818	1011.302	779.965
92.884	18.742	1010.212	778.711
93.899	18.786	1009.354	778.179
94.914	18.842	1008.125	777.419
95.928	18.801	1007.577	776.739
96.943	18.797	1006.354	775.712
97.957	18.707	1005.719	774.747
98.972	18.837	1004.306	774.178
99.987	18.861	1003.902	773.902
101.001	18.811	1002.466	772.502
102.016	18.653	1002.311	771.606
103.030	18.671	1001.637	771.100
104.045	18.766	1001.077	771.025
105.060	18.636	999.678	769.297
106.074	18.290	998.852	767.044
107.089	18.245	997.178	765.488
108.103	18.142	996.401	764.366
109.118	18.106	995.674	763.577
110.133	18.022	994.673	762.367
111.147	18.199	993.827	762.441
112.162	18.084	993.176	761.364
113.176	18.310	992.682	761.924
114.191	18.308	991.698	761.092
115.206	18.344	990.684	760.405
116.220	18.193	990.363	759.420
117.235	18.252	989.012	758.579
118.249	18.193	988.703	758.013
119.264	18.044	987.978	756.733
120.279	17.964	986.805	755.414
121.293	18.020	985.974	754.957
122.308	17.978	984.967	753.932
123.322	17.890	984.123	752.832
124.337	17.733	983.020	751.229
125.352	17.886	982.184	751.199
126.366	17.900	980.916	750.226
127.381	17.904	979.681	749.229
128.395	17.888	979.535	748.982
129.410	18.057	978.094	748.556
130.424	18.204	977.733	748.855
131.439	18.262	977.110	748.566
132.454	18.226	976.519	747.891
133.468	18.282	975.520	747.305
134.483	18.293	974.585	746.570
135.497	18.272	973.844	745.842
136.512	18.200	973.231	744.995
137.527	18.306	972.491	744.824
138.541	18.321	971.468	744.040
139.556	18.408	970.764	743.810
140.570	18.656	970.319	744.480
141.585	18.832	969.190	744.311
142.600	18.888	968.582	744.022
143.614	18.888	967.926	743.452
144.629	18.874	967.654	743.115
145.643	18.861	966.287	741.944
146.658	18.559	965.394	739.889
147.673	18.495	964.267	738.687
148.687	18.360	963.215	737.232
149.702	18.250	962.412	736.081
150.716	18.272	961.622	735.505
151.731	18.329	961.196	735.360
152.746	18.423	960.064	734.831
153.760	18.548	959.341	734.751
154.775	18.535	959.668	734.877
155.789	18.523	958.678	734.002
156.804	18.665	957.740	733.830
157.819	18.721	957.319	733.678
158.833	18.836	956.598	733.551
159.848	18.717	956.440	732.861
160.862	18.768	955.095	731.979
161.877	18.487	953.729	729.675
162.892	18.295	952.742	728.036
163.906	18.276	951.507	726.948
164.921	18.354	950.587	726.512
165.935	18.560	949.940	726.825
166.950	18.513	949.316	726.084
167.964	18.647	948.405	725.891
168.979	18.413	947.381	724.055
169.994	18.408	946.445	723.256
171.008	18.468	946.069	723.154
172.023	18.647	945.627	723.511
173.037	18.845	944.780	723.632
174.052	18.727	943.998	722.473
175.067	18.420	942.801	720.199
176.081	18.420	942.280	719.742
177.096	18.452	941.499	719.214
178.110	18.387	941.497	718.875
179.125	18.485	940.740	718.645
180.140	18.674	939.898	718.731
181.154	18.684	939.830	718.655
182.169	18.728	939.537	718.551
183.183	18.829	939.377	718.791
184.198	18.830	938.033	717.700
185.213	18.871	937.606	717.481
186.227	18.811	936.976	716.688
187.242	18.984	936.168	716.725
188.256	19.303	935.237	717.277
189.271	19.129	935.034	716.334
190.286	18.789	933.642	713.791
191.300	18.215	932.789	710.695
192.315	18.252	931.950	710.144
193.329	18.298	931.421	709.869
194.344	18.417	931.255	710.171
195.359	18.540	930.774	710.253
196.373	18.725	930.182	710.504
197.388	18.895	929.662	710.747
198.402	19.082	929.378	711.240
199.417	19.099	928.593	710.648
200.432	19.291	928.201	711.077
201.446	19.394	928.032	711.308
202.461	19.551	927.443	711.443
203.475	19.307	926.572	709.705
204.490	19.149	925.691	708.319
205.504	18.984	924.790	706.888
206.519	18.901	923.920	705.820
207.534	18.916	923.334	705.373
208.548	19.043	922.574	705.250
209.563	19.005	922.198	704.744
210.577	19.103	921.464	704.520
211.592	19.379	920.629	704.946
212.607	19.372	919.931	704.324
213.621	19.312	919.482	703.670
214.636	19.161	918.818	702.485
215.650	19.182	918.104	701.964
216.665	19.467	917.296	702.444
217.680	19.514	917.097	702.418
218.694	19.423	916.308	701.384
219.709	19.460	915.375	700.757
220.723	19.351	914.911	699.898
221.738	19.366	913.809	699.056
222.753	19.428	913.330	698.878
223.767	19.352	913.388	698.552
224.782	19.568	912.557	698.728
225.796	19.673	912.133	698.768
226.811	19.418	911.767	697.394
227.826	19.353	910.236	695.900
228.840	19.320	909.802	695.371
229.855	19.363	909.236	695.051
230.869	19.224	908.319	693.730
231.884	19.217	907.747	693.203
232.899	19.211	906.663	692.292
233.913	19.114	906.082	691.397
234.928	19.106	905.748	691.046
235.942	19.025	904.773	689.917
236.957	19.033	904.094	689.372
237.972	19.132	903.772	689.459
238.986	19.122	903.024	688.788
240.001	19.050	902.665	688.167
241.015	19.223	901.798	688.135
242.030	19.297	901.396	688.061
243.045	19.335	900.779	687.682
244.059	19.487	900.321	687.878
245.074	19.366	899.908	687.019
246.088	19.433	899.440	686.868
247.103	19.634	898.739	687.073
248.117	19.790	898.584	687.513
249.132	20.046	897.916	687.959
250.147	20.220	897.491	688.262
251.161	20.174	897.078	687.700
252.176	20.351	895.753	687.325
253.190	20.399	895.813	687.500
254.205	20.305	895.454	686.793
255.220	20.090	894.364	685.044
256.234	20.287	893.219	684.886
257.249	20.353	892.938	684.868
258.263	20.281	891.859	683.697
259.278	20.293	891.272	683.237
260.293	20.363	891.139	683.349
261.307	20.389	890.510	682.906
262.322	20.427	889.696	682.372
263.336	20.396	889.008	681.661
264.351	20.485	888.292	681.402
265.366	20.351	888.048	680.631
266.380	20.362	887.458	680.159
267.395	20.270	886.583	679.069
268.409	20.255	885.657	678.241
269.424	20.115	885.136	677.235
270.439	20.284	884.286	677.184
271.453	20.102	883.427	675.759
272.468	20.077	883.170	675.403
273.482	20.052	882.647	674.846
274.497	20.076	881.979	674.369
275.512	19.967	881.696	673.669
276.526	20.163	881.109	673.922
277.541	20.222	880.710	673.789
278.555	20.377	880.416	674.106
279.570	20.544	879.711	674.153
280.585	20.590	878.586	673.411
281.599	20.343	877.724	671.735
282.614	20.196	877.037	670.580
283.628	20.349	876.483	670.687
284.643	20.164	876.184	669.685
285.657	20.169	875.617	669.212
286.672	20.287	874.678	668.892
287.687	20.383	874.060	668.727
288.701	20.272	873.597	667.887
289.716	20.335	872.878	667.520
290.730	20.270	872.488	666.916
291.745	20.442	871.709	666.919
292.760	20.517	871.259	666.805
293.774	20.801	870.634	667.358
294.789	20.543	870.235	666.001
295.803	20.452	869.230	664.826
296.818	20.334	868.312	663.614
297.833	20.369	867.776	663.280
298.847	20.343	867.497	662.909
299.862	20.416	867.305	662.980
300.876	20.532	866.526	662.769
301.891	20.685	865.778	662.721
302.906	20.792	865.499	662.855
303.920	20.984	864.848	663.030
304.935	21.066	864.341	662.893
305.949	20.878	863.460	661.445
306.964	20.651	863.296	660.402
307.979	20.799	862.356	660.183
308.993	20.845	861.903	659.953
310.008	20.983	861.314	659.965
311.022	20.713	860.866	658.542
312.037	20.675	859.961	657.647
313.052	20.519	858.865	656.165
314.066	20.346	858.623	655.266
315.081	20.371	858.029	654.852
316.095	20.384	857.409	654.369
317.110	20.409	856.820	653.957
318.125	20.445	856.525	653.807
319.139	20.437	855.830	653.191
320.154	20.482	855.386	652.960
321.168	20.485	854.896	652.542
322.183	20.598	853.988	652.213
323.197	20.737	853.485	652.294
324.212	20.694	853.321	651.950
325.227	20.644	852.556	651.120
326.241	20.619	851.917	650.479
327.256	20.431	851.261	649.221
328.270	20.508	851.063	649.299
329.285	20.374	850.269	648.137
330.300	20.472	849.747	648.044
331.314	20.558	849.408	648.049
332.329	20.670	848.975	648.080
333.343	20.709	848.506	647.809
334.358	20.958	848.096	648.365
335.373	20.695	848.275	647.467
336.387	20.834	847.712	647.496
337.402	20.935	847.782	647.869
338.416	21.110	847.076	647.919
339.431	21.220	846.782	648.047
340.446	21.274	846.362	647.868
341.460	21.235	845.940	647.342
342.475	21.356	845.708	647.557
343.489	21.474	844.907	647.324
344.504	21.478	844.760	647.168
345.519	21.596	844.222	647.136
346.533	21.425	843.521	645.910
347.548	21.108	842.916	644.220
348.562	21.178	841.881	643.628
349.577	21.021	841.607	642.784
350.592	20.974	840.704	641.862
351.606	20.791	840.101	640.674
352.621	20.986	839.275	640.704
353.635	21.099	838.676	640.604
354.650	21.030	838.228	639.951
355.665	21.090	837.744	639.745
356.679	21.231	837.254	639.831
357.694	21.225	836.501	639.176
358.708	21.196	835.975	638.614
359.723	21.256	835.350	638.299
360.738	21.266	834.944	637.969
361.752	21.315	834.245	637.558
362.767	21.428	833.845	637.606
363.781	21.541	833.308	637.550
364.796	21.643	833.209	637.790
365.810	21.827	832.733	638.038
366.825	21.852	832.238	637.693
367.840	21.535	831.868	636.201
368.854	21.636	830.903	635.776
369.869	21.666	830.743	635.704
370.883	21.710	830.418	635.559
371.898	21.700	829.909	635.076
372.913	21.772	829.893	635.271
373.927	21.668	828.877	634.058
374.942	21.668	828.376	633.620
375.956	21.834	828.287	634.097
376.971	21.810	828.289	633.956
377.986	22.019	827.255	633.862
379.000	21.985	827.169	633.617
380.015	21.881	826.673	632.806
381.029	21.808	826.032	631.997
382.044	21.925	825.315	631.815
383.059	21.943	824.658	631.321
384.073	21.792	824.025	630.237
385.088	21.701	823.000	629.069
386.102	21.627	822.253	628.177
387.117	21.577	821.685	627.510
388.132	21.573	821.243	627.102
389.146	21.636	820.856	626.978
390.161	21.833	820.775	627.563
391.175	21.945	820.025	627.335
392.190	21.802	819.708	626.527
393.205	21.599	818.945	625.164
394.219	21.707	818.333	625.025
395.234	21.629	817.628	624.155
396.248	21.449	817.482	623.344
397.263	21.528	816.907	623.131
398.278	21.386	816.473	622.243
399.292	21.429	816.195	622.127
400.307	21.429	815.795	621.767
401.321	21.320	815.346	620.985
402.336	21.692	814.854	621.876
403.350	21.754	814.346	621.651
404.365	21.917	813.811	621.764
405.380	21.969	813.965	622.013
406.394	21.993	813.321	621.549
407.409	22.141	812.697	621.541
408.423	22.263	812.306	621.618
409.438	22.308	812.089	621.559
410.453	22.353	811.559	621.255
411.467	22.386	811.226	621.060
412.482	22.594	810.889	621.484
413.496	22.392	810.807	620.653
414.511	22.524	810.258	620.641
415.526	22.426	809.793	619.886
416.540	22.316	809.268	619.042
417.555	22.482	808.527	619.005
418.569	22.343	808.172	618.188
419.584	22.344	808.014	618.017
420.599	22.474	807.112	617.728
421.613	161.770	1368.927	1793.434
422.628	140.750	1450.802	1793.536
