DTS Sentinel unit serial number:	SN413079Multiplexer serial number:	ORYXHardware model number:	OX4-SRSoftware version number:	ORYX F/W v4.00 Oryx Data Collector v3.7.2.0data status	okinstallation	princeton_trtdifferential loss correction	single-endedforward channel	channel 1reverse channel	N/Adate	2019/09/12time	16:12:11forward acquisition time	60.00reverse acquisition time	0.00gamma	496.2192k internal	0.2300k external	0.2300temperature offset calibration	1.0085default loss term (dB/km)	0.3790temperature slope calibration	1.0000multiplexer offset coefficient	1.0000multiplexer slope coefficient	1.0000fibre end	0.00T internal ref (°C)	38.36T ext. ref 1 (°C)	2.54T ext. ref 2 (°C)	31.20length (m)	temperature (°C)	Stokes	anti-Stokes-747.200	35.724	-0.090	0.081
-746.185	-200.000	-0.047	0.433
-745.171	79.638	-0.128	0.140
-744.156	-56.846	0.032	-0.014
-743.142	246.625	-0.037	0.063
-742.127	-119.831	-0.098	0.017
-741.112	-128.909	0.293	-0.042
-740.098	292.176	-0.123	0.228
-739.083	-7.367	-0.150	-0.104
-738.069	275.784	-0.078	0.141
-737.054	-62.760	-0.294	0.124
-736.039	-200.000	0.037	0.449
-735.025	116.902	-0.188	0.236
-734.010	-200.000	0.031	-0.168
-732.996	-38.496	0.197	0.106
-731.981	-57.721	-0.134	-0.060
-730.966	-14.961	-0.429	-0.280
-729.952	-85.049	0.082	0.026
-728.937	800.000	-0.076	0.294
-727.923	-35.842	-0.279	-0.154
-726.908	800.000	-0.026	-0.097
-725.894	-200.000	0.030	-0.252
-724.879	-200.000	0.017	-0.086
-723.864	-200.000	0.025	0.181
-722.850	1.063	0.045	0.033
-721.835	-136.708	-0.168	-0.020
-720.821	-17.255	0.105	-0.067
-719.806	-81.569	0.150	-0.050
-718.791	-155.516	-0.029	-0.002
-717.777	-22.806	-0.082	-0.050
-716.762	-104.753	-0.333	-0.078
-715.748	-200.000	0.028	-0.235
-714.733	470.532	0.151	0.347
-713.718	-200.000	-0.180	-0.001
-712.704	-1.838	0.171	-0.122
-711.689	150.674	0.066	-0.092
-710.675	-100.492	0.423	0.107
-709.660	100.609	-0.114	-0.135
-708.645	-200.000	0.002	-0.059
-707.631	-31.294	0.250	-0.143
-706.616	-191.349	-0.124	-0.001
-705.602	800.000	-0.110	0.371
-704.587	800.000	0.063	-0.246
-703.572	268.991	0.110	-0.197
-702.558	800.000	0.026	-0.094
-701.543	100.997	-0.106	-0.126
-700.529	-52.857	-0.118	-0.055
-699.514	-4.542	-0.117	0.082
-698.499	-137.902	-0.062	0.007
-697.485	106.312	-0.125	-0.150
-696.470	-136.591	-0.226	-0.027
-695.456	58.800	0.167	0.167
-694.441	241.139	0.083	0.140
-693.426	-200.000	-0.079	0.567
-692.412	334.860	0.092	0.180
-691.397	491.729	0.065	0.152
-690.383	0.805	0.127	-0.092
-689.368	-89.432	0.321	0.096
-688.354	84.172	0.202	-0.225
-687.339	-8.979	-0.065	-0.044
-686.324	-200.000	-0.004	0.034
-685.310	-45.107	-0.209	-0.106
-684.295	17.093	0.071	-0.057
-683.281	-200.000	-0.064	0.347
-682.266	24.853	0.192	0.162
-681.251	-100.063	0.187	0.048
-680.237	-200.000	0.057	-0.364
-679.222	-200.000	0.032	0.237
-678.208	66.711	-0.127	0.131
-677.193	-69.045	0.394	0.154
-676.178	-67.863	0.104	0.041
-675.164	52.103	-0.144	-0.139
-674.149	43.365	-0.085	-0.079
-673.135	40.635	0.076	0.069
-672.120	-70.410	0.182	0.070
-671.105	-40.628	-0.067	0.035
-670.091	-160.186	-0.502	0.028
-669.076	-87.113	0.201	0.062
-668.062	65.171	0.111	-0.114
-667.047	800.000	-0.103	-0.396
-666.032	-79.586	-0.458	-0.157
-665.018	-89.425	-0.220	-0.066
-664.003	254.167	0.101	-0.176
-662.989	373.103	-0.073	-0.150
-661.974	39.521	-0.280	-0.255
-660.959	39.482	-0.130	0.119
-659.945	302.787	0.053	0.100
-658.930	-112.472	0.373	0.076
-657.916	-80.599	-0.283	-0.096
-656.901	102.335	0.083	-0.099
-655.886	410.295	-0.030	0.064
-654.872	-8.206	-0.435	-0.298
-653.857	-200.000	0.044	-0.462
-652.843	-200.000	-0.001	0.261
-651.828	778.017	-0.052	-0.145
-650.814	-36.366	0.093	-0.051
-649.799	79.416	0.147	-0.160
-648.784	609.075	-0.146	0.369
-647.770	142.894	0.090	0.121
-646.755	446.089	-0.107	-0.238
-645.741	-200.000	0.009	-0.072
-644.726	-200.000	0.012	0.070
-643.711	800.000	-0.026	0.095
-642.697	-114.999	0.588	0.114
-641.682	-200.000	-0.157	0.000
-640.668	72.763	0.055	0.059
-639.653	-132.849	0.228	0.030
-638.638	-35.056	-0.213	-0.118
-637.624	175.893	0.027	0.040
-636.609	800.000	-0.107	0.396
-635.595	707.137	-0.055	-0.148
-634.580	29.582	0.216	-0.186
-633.565	-60.501	-0.195	0.084
-632.551	-115.825	-0.317	0.060
-631.536	-200.000	0.000	-0.094
-630.522	135.093	0.072	-0.094
-629.507	-145.120	-0.067	-0.006
-628.492	-25.857	-0.155	0.093
-627.478	316.657	-0.103	-0.198
-626.463	97.677	0.153	-0.178
-625.449	800.000	0.042	-0.184
-624.434	479.319	-0.103	0.238
-623.419	237.732	-0.186	0.313
-622.405	150.159	-0.210	0.289
-621.390	-200.000	0.007	-0.093
-620.376	-149.374	0.155	0.012
-619.361	-2.252	-0.277	-0.197
-618.346	83.480	-0.124	0.137
-617.332	-200.000	0.007	0.089
-616.317	103.053	0.089	-0.106
-615.303	385.951	-0.215	0.449
-614.288	226.592	0.073	0.121
-613.273	42.883	-0.134	-0.124
-612.259	-200.000	-0.015	0.292
-611.244	-128.236	0.158	0.023
-610.230	800.000	-0.069	-0.231
-609.215	318.466	0.120	0.230
-608.201	-31.206	-0.300	-0.171
-607.186	-14.666	-0.240	0.156
-606.171	-200.000	-0.010	0.055
-605.157	-98.394	0.262	0.068
-604.142	-169.609	0.378	-0.014
-603.128	52.170	-0.232	-0.224
-602.113	37.693	-0.144	-0.130
-601.098	-123.508	-0.358	-0.058
-600.084	90.874	-0.084	-0.095
-599.069	-200.000	-0.009	0.122
-598.055	-200.000	0.029	-0.176
-597.040	-98.501	-0.228	-0.059
-596.025	744.897	0.118	0.323
-595.011	416.065	0.125	0.271
-593.996	120.221	0.133	0.168
-592.982	160.268	0.247	0.350
-591.967	-200.000	0.042	0.378
-590.952	-50.236	0.082	-0.039
-589.938	800.000	-0.097	-0.354
-588.923	800.000	-0.037	-0.108
-587.909	-200.000	-0.045	0.000
-586.894	-173.102	-0.041	-0.001
-585.879	25.819	0.114	-0.097
-584.865	557.942	0.207	0.507
-583.850	-200.000	0.005	-0.182
-582.836	800.000	0.030	-0.088
-581.821	5.519	0.049	0.037
-580.806	294.381	-0.081	-0.151
-579.792	357.624	-0.187	-0.378
-578.777	335.351	0.102	0.200
-577.763	800.000	0.085	0.255
-576.748	-90.890	-0.207	0.060
-575.733	227.683	0.124	0.205
-574.719	-24.836	0.062	-0.037
-573.704	-99.341	0.426	-0.109
-572.690	-13.959	0.149	-0.097
-571.675	-100.866	0.056	-0.014
-570.661	-200.000	0.002	0.131
-569.646	-200.000	-0.017	-0.086
-568.631	50.256	0.084	0.081
-567.617	-122.598	0.221	0.036
-566.602	-200.000	0.015	0.180
-565.588	-76.314	0.179	-0.064
-564.573	-200.000	0.010	0.136
-563.558	-58.802	0.226	-0.099
-562.544	-200.000	0.037	0.359
-561.529	76.179	0.086	0.092
-560.515	-200.000	0.082	-0.459
-559.500	45.819	-0.092	-0.087
-558.485	-88.240	-0.174	0.053
-557.471	-68.800	0.229	-0.089
-556.456	-143.919	-0.093	-0.009
-555.442	-74.752	-0.133	-0.048
-554.427	-128.781	-0.076	0.011
-553.412	-74.722	0.042	-0.015
-552.398	-44.296	-0.085	0.043
-551.383	227.262	0.050	-0.083
-550.369	48.077	0.217	0.206
-549.354	-33.272	-0.255	-0.143
-548.339	-125.475	0.229	-0.035
-547.325	-64.946	-0.211	0.087
-546.310	-107.255	0.440	0.098
-545.296	-53.620	-0.314	0.145
-544.281	-70.683	0.208	0.080
-543.266	-200.000	-0.073	-0.349
-542.252	-78.457	0.308	-0.107
-541.237	-200.000	0.034	0.156
-540.223	-54.883	0.412	-0.188
-539.208	-103.691	0.208	0.049
-538.193	-21.113	-0.432	-0.268
-537.179	-160.711	-0.230	0.012
-536.164	800.000	0.053	0.176
-535.150	144.969	0.224	0.303
-534.135	-75.980	0.138	0.049
-533.121	-44.076	0.302	0.153
-532.106	176.164	0.091	-0.134
-531.091	-48.727	0.339	0.165
-530.077	112.851	0.084	0.103
-529.062	-155.026	-0.268	-0.018
-528.048	-54.852	-0.112	-0.051
-527.033	78.719	0.088	0.095
-526.018	77.436	-0.044	-0.047
-525.004	-101.887	0.122	-0.030
-523.989	7.667	-0.104	0.079
-522.975	-200.000	0.018	0.281
-521.960	-128.476	0.121	0.017
-520.945	48.946	-0.217	0.206
-519.931	20.581	0.270	-0.221
-518.916	-57.317	0.126	-0.056
-517.902	492.531	-0.226	-0.525
-516.887	800.000	-0.140	-0.428
-515.872	-125.477	0.179	-0.028
-514.858	162.499	0.215	0.305
-513.843	145.860	-0.169	0.229
-512.829	800.000	0.042	0.172
-511.814	372.558	0.148	0.305
-510.799	176.794	0.216	-0.317
-509.785	157.991	0.104	0.145
-508.770	763.807	0.079	-0.218
-507.756	173.821	-0.269	0.392
-506.741	6.416	-0.138	-0.103
-505.726	57.903	0.165	-0.163
-504.712	-200.000	0.003	0.060
-503.697	-200.000	-0.031	-0.215
-502.683	426.152	-0.082	0.179
-501.668	-156.625	0.385	0.024
-500.653	-85.285	-0.158	-0.050
-499.639	260.313	-0.073	-0.128
-498.624	114.616	-0.267	0.329
-497.610	-89.482	0.241	-0.071
-496.595	-88.733	0.176	0.053
-495.581	-165.190	0.547	-0.024
-494.566	-119.676	0.209	-0.036
-493.551	191.370	-0.036	0.054
-492.537	17.474	-0.215	-0.173
-491.522	374.971	0.131	-0.269
-490.508	-158.279	-0.290	0.017
-489.493	-40.676	0.312	0.163
-488.478	14.045	0.403	-0.317
-487.464	800.000	0.007	-0.024
-486.449	72.576	-0.110	-0.116
-485.435	-15.856	-0.484	-0.311
-484.420	268.917	-0.077	-0.137
-483.405	111.620	0.162	-0.197
-482.391	573.911	0.084	-0.207
-481.376	129.106	-0.174	-0.224
-480.362	148.241	-0.084	0.115
-479.347	-200.000	0.008	-0.222
-478.332	-143.139	0.355	-0.035
-477.318	-106.077	-0.187	-0.043
-476.303	-80.148	0.317	0.107
-475.289	-200.000	0.052	0.278
-474.274	-56.311	0.024	-0.011
-473.259	72.463	0.274	0.289
-472.245	-172.400	-0.292	0.009
-471.230	613.204	0.093	0.234
-470.216	171.808	0.087	-0.126
-469.201	-73.696	0.310	-0.114
-468.186	-100.812	-0.176	0.044
-467.172	71.964	0.070	0.074
-466.157	-123.568	0.230	0.037
-465.143	100.639	-0.110	0.129
-464.128	-87.494	-0.203	0.062
-463.113	-200.000	-0.070	0.545
-462.099	-65.381	0.279	-0.113
-461.084	434.212	0.094	-0.207
-460.070	-200.000	0.009	-0.426
-459.055	65.359	-0.052	0.053
-458.040	-74.900	-0.223	0.081
-457.026	800.000	0.036	-0.156
-456.011	-181.421	-0.009	0.000
-454.997	-58.153	-0.096	0.042
-453.982	96.143	0.097	0.111
-452.968	190.519	0.141	0.214
-451.953	-89.263	-0.172	-0.051
-450.938	-200.000	0.057	-0.517
-449.924	-166.745	0.268	0.011
-448.909	-43.302	0.205	0.105
-447.895	-129.662	-0.120	0.017
-446.880	524.964	-0.049	0.115
-445.865	-34.981	-0.215	0.118
-444.851	-61.459	0.323	0.137
-443.836	-200.000	0.011	-0.104
-442.822	-80.851	-0.269	-0.090
-441.807	-160.651	-0.208	0.011
-440.792	152.987	0.192	-0.264
-439.778	425.700	0.109	0.237
-438.763	800.000	-0.069	-0.193
-437.749	-200.000	-0.019	0.186
-436.734	344.400	-0.086	0.170
-435.719	257.966	-0.062	0.107
-434.705	245.852	-0.236	-0.401
-433.690	41.326	0.165	-0.151
-432.676	-46.346	-0.194	0.096
-431.661	31.763	0.258	0.223
-430.646	284.041	0.181	-0.327
-429.632	178.473	-0.168	-0.247
-428.617	800.000	0.073	-0.245
-427.603	275.625	-0.048	-0.086
-426.588	-123.004	0.338	0.055
-425.573	250.094	-0.051	-0.087
-424.559	128.811	-0.027	-0.035
-423.544	86.219	0.117	0.130
-422.530	166.305	0.107	-0.152
-421.515	311.675	0.080	0.152
-420.500	390.242	-0.143	0.299
-419.486	-200.000	0.032	0.222
-418.471	-146.132	0.302	-0.027
-417.457	-200.000	-0.017	-0.350
-416.442	-115.845	0.219	0.041
-415.428	-25.492	-0.328	0.195
-414.413	49.327	0.074	0.070
-413.398	-54.355	-0.317	-0.145
-412.384	-200.000	0.011	0.207
-411.369	50.790	0.082	-0.078
-410.355	-200.000	-0.015	0.277
-409.340	96.396	0.126	0.145
-408.325	-200.000	0.057	0.348
-407.311	156.476	-0.187	-0.260
-406.296	778.314	-0.072	-0.199
-405.282	-70.888	0.434	0.165
-404.267	-154.974	-0.362	0.024
-403.252	401.335	-0.010	-0.022
-402.238	-89.271	0.128	0.038
-401.223	-200.000	0.027	-0.241
-400.209	-61.476	-0.183	-0.077
-399.194	15.650	0.233	0.184
-398.179	223.159	-0.082	0.133
-397.165	-200.000	-0.003	-0.294
-396.150	216.620	0.040	-0.065
-395.136	800.000	0.044	0.145
-394.121	-200.000	0.002	-0.060
-393.106	-78.980	-0.320	0.110
-392.092	-17.547	-0.075	-0.047
-391.077	243.050	-0.177	-0.299
-390.063	-115.552	-0.115	-0.022
-389.048	90.500	0.111	0.125
-388.033	-200.000	-0.003	0.099
-387.019	233.961	-0.092	-0.152
-386.004	-74.482	0.274	-0.099
-384.990	255.259	0.125	0.215
-383.975	-123.178	0.168	0.027
-382.960	-146.656	-0.284	-0.025
-381.946	-200.000	0.013	-0.144
-380.931	294.455	-0.081	0.150
-379.917	760.388	0.076	-0.208
-378.902	-200.000	0.019	-0.135
-377.888	-177.966	-0.299	0.007
-376.873	-200.000	0.087	0.391
-375.858	-99.312	-0.093	-0.024
-374.844	-23.267	-0.143	-0.087
-373.829	178.239	-0.085	-0.125
-372.815	-49.748	-0.304	-0.145
-371.800	0.794	0.090	-0.064
-370.785	800.000	-0.072	-0.290
-369.771	-29.594	0.095	0.055
-368.756	-111.184	0.189	-0.039
-367.742	-121.150	-0.227	0.038
-366.727	-200.000	-0.029	0.210
-365.712	-59.412	0.098	-0.042
-364.698	-14.558	-0.147	-0.095
-363.683	-133.276	-0.100	0.013
-362.669	-178.488	0.279	-0.007
-361.654	-200.000	0.037	-0.256
-360.639	308.352	0.056	-0.106
-359.625	800.000	-0.014	0.042
-358.610	-14.908	-0.097	-0.062
-357.596	-27.222	-0.296	-0.174
-356.581	4.879	-0.052	0.038
-355.566	800.000	-0.042	-0.136
-354.552	-76.074	-0.161	0.057
-353.537	-103.001	-0.173	-0.041
-352.523	-0.159	-0.353	-0.252
-351.508	199.753	0.065	-0.100
-350.493	255.345	-0.168	0.290
-349.479	-45.914	-0.282	0.140
-348.464	-200.000	0.007	-0.197
-347.450	36.866	-0.177	-0.157
-346.435	747.193	-0.066	-0.178
-345.420	63.221	-0.254	0.256
-344.406	94.464	0.182	-0.208
-343.391	800.000	-0.040	-0.155
-342.377	155.205	0.124	0.171
-341.362	617.866	0.066	-0.165
-340.348	33.714	-0.162	0.141
-339.333	78.653	0.235	0.253
-338.318	-65.729	0.120	0.048
-337.304	-89.225	-0.119	0.035
-336.289	-10.965	-0.157	0.104
-335.275	-87.196	0.071	0.022
-334.260	-200.000	-0.019	0.185
-333.245	38.263	-0.209	-0.187
-332.231	800.000	0.133	0.439
-331.216	415.444	-0.013	-0.028
-330.202	8.481	0.238	0.180
-329.187	68.460	-0.274	-0.282
-328.172	-134.158	-0.105	-0.013
-327.158	-53.005	-0.281	0.130
-326.143	-200.000	0.031	0.169
-325.129	-131.711	0.190	-0.025
-324.114	-200.000	0.016	0.125
-323.099	-151.555	-0.123	0.009
-322.085	-200.000	0.037	-0.184
-321.070	800.000	-0.157	-0.553
-320.056	42.920	-0.178	-0.163
-319.041	117.885	-0.210	-0.259
-318.026	11.603	-0.168	0.129
-317.012	-155.095	-0.374	-0.025
-315.997	49.265	0.198	-0.186
-314.983	96.131	-0.359	-0.411
-313.968	180.348	-0.124	-0.182
-312.953	-200.000	0.060	0.304
-311.939	57.932	-0.135	-0.133
-310.924	-200.000	-0.007	-0.240
-309.910	800.000	0.049	-0.145
-308.895	-38.822	-0.148	-0.078
-307.880	550.828	0.107	0.258
-306.866	422.144	0.070	-0.151
-305.851	511.924	0.040	0.094
-304.837	-113.562	0.083	0.016
-303.822	-10.450	-0.140	-0.093
-302.807	-50.808	0.191	-0.090
-301.793	-7.720	0.283	-0.192
-300.778	-83.591	-0.241	-0.077
-299.764	12.218	0.268	0.207
-298.749	-49.308	-0.128	-0.061
-297.735	467.726	-0.134	0.300
-296.720	48.380	-0.103	-0.096
-295.705	-24.368	0.143	-0.085
-294.691	-79.468	-0.035	0.012
-293.676	119.264	-0.089	-0.110
-292.662	262.107	0.210	-0.365
-291.647	-70.664	-0.242	0.092
-290.632	199.371	0.010	-0.016
-289.618	-20.686	-0.293	-0.180
-288.603	-113.694	-0.100	0.020
-287.589	5.144	-0.283	0.209
-286.574	-200.000	0.028	0.131
-285.559	800.000	-0.063	0.269
-284.545	111.011	-0.250	-0.302
-283.530	-200.000	0.015	0.226
-282.516	649.577	-0.145	0.372
-281.501	800.000	-0.031	0.103
-280.486	-122.912	0.088	0.014
-279.472	-48.248	0.098	0.048
-278.457	800.000	-0.017	-0.064
-277.443	-200.000	0.020	-0.119
-276.428	24.004	-0.097	0.080
-275.413	-121.780	0.291	-0.048
-274.399	407.738	-0.113	-0.239
-273.384	18.229	-0.172	-0.137
-272.370	43.109	-0.106	-0.097
-271.355	43.381	0.169	-0.154
-270.340	209.670	-0.126	-0.198
-269.326	450.448	0.107	-0.237
-268.311	-9.250	0.066	-0.044
-267.297	198.373	-0.029	-0.045
-266.282	-144.429	-0.135	0.013
-265.267	-100.575	0.140	0.035
-264.253	-200.000	0.012	0.288
-263.238	252.973	0.051	-0.087
-262.224	800.000	-0.052	-0.224
-261.209	269.071	-0.039	0.069
-260.195	-200.000	-0.000	-0.029
-259.180	275.791	0.239	-0.424
-258.165	-200.000	0.049	-0.268
-257.151	-186.874	-0.225	0.003
-256.136	-69.191	0.250	-0.096
-255.122	-140.403	-0.105	-0.011
-254.107	800.000	-0.070	-0.214
-253.092	800.000	0.060	0.210
-252.078	-182.739	-0.306	0.006
-251.063	-35.661	0.207	-0.113
-250.049	-8.810	0.221	0.148
-249.034	454.089	-0.069	-0.152
-248.019	-22.886	0.141	-0.085
-247.005	-65.175	-0.289	0.117
-245.990	-137.386	-0.052	0.006
-244.976	2.949	-0.077	-0.056
-243.961	-35.593	0.252	0.137
-242.946	-200.000	-0.021	0.145
-241.932	-200.000	-0.005	0.693
-240.917	800.000	0.061	-0.178
-239.903	-157.405	0.125	-0.008
-238.888	-114.462	-0.093	0.018
-237.873	256.366	-0.078	0.134
-236.859	47.221	-0.193	-0.179
-235.844	-200.000	0.009	0.060
-234.830	-17.326	0.334	-0.210
-233.815	-60.380	0.202	-0.086
-232.800	141.184	-0.107	0.142
-231.786	673.596	0.060	-0.157
-230.771	604.502	0.134	-0.334
-229.757	-73.868	-0.319	-0.116
-228.742	800.000	-0.040	-0.152
-227.727	405.105	0.089	-0.187
-226.713	345.353	0.057	0.112
-225.698	800.000	-0.077	0.228
-224.684	-56.409	0.041	0.018
-223.669	31.603	0.131	0.113
-222.655	-14.072	-0.081	0.052
-221.640	76.141	0.048	0.050
-220.625	159.648	-0.076	0.105
-219.611	-200.000	0.004	-0.120
-218.596	60.724	-0.072	-0.071
-217.582	339.025	0.172	-0.335
-216.567	-110.521	0.173	0.036
-215.552	-39.965	-0.171	-0.089
-214.538	-100.178	-0.244	0.061
-213.523	27.840	0.203	0.171
-212.509	-2.908	-0.099	0.069
-211.494	372.999	-0.153	0.311
-210.479	800.000	0.026	0.097
-209.465	544.323	-0.079	0.189
-208.450	-36.620	0.216	0.116
-207.436	282.151	-0.072	0.130
-206.421	800.000	0.009	-0.034
-205.406	-200.000	0.017	-0.359
-204.392	-200.000	-0.031	-0.179
-203.377	314.495	0.066	-0.124
-202.363	800.000	-0.086	0.252
-201.348	-200.000	-0.023	0.232
-200.333	252.870	0.053	-0.091
-199.319	-159.438	-0.134	0.007
-198.304	-200.000	-0.007	-0.094
-197.290	800.000	-0.046	-0.158
-196.275	-29.566	-0.164	0.094
-195.260	-117.533	-0.233	0.042
-194.246	302.310	0.131	-0.242
-193.231	-200.000	0.080	0.425
-192.217	32.208	0.137	0.118
-191.202	800.000	-0.042	0.172
-190.187	7.185	-0.019	0.014
-189.173	-200.000	0.035	-0.287
-188.158	-96.583	-0.217	0.057
-187.144	800.000	-0.096	0.381
-186.129	-7.368	0.209	0.141
-185.114	-46.083	-0.022	0.011
-184.100	-17.200	-0.202	-0.127
-183.085	-200.000	0.075	0.333
-182.071	417.161	0.125	0.266
-181.056	470.773	-0.096	0.215
-180.042	671.394	0.056	0.145
-179.027	-174.205	0.177	-0.005
-178.012	-20.444	-0.113	0.069
-176.998	219.120	0.075	-0.120
-175.983	13.956	-0.059	-0.046
-174.969	17.377	-0.160	0.127
-173.954	-189.241	0.166	0.002
-172.939	-200.000	-0.003	0.267
-171.925	-133.994	-0.258	0.032
-170.910	-200.000	0.069	0.343
-169.896	4.082	0.288	-0.210
-168.881	390.118	-0.096	-0.199
-167.866	-3.591	0.154	0.107
-166.852	-121.670	0.286	-0.047
-165.837	377.354	-0.055	-0.112
-164.823	289.295	-0.149	0.270
-163.808	199.072	-0.143	-0.218
-162.793	-143.384	0.258	-0.025
-161.779	-92.067	-0.313	0.088
-160.764	-131.652	0.222	0.029
-159.750	-83.294	-0.089	0.029
-158.735	-49.461	0.162	0.077
-157.720	-200.000	0.074	-0.340
-156.706	-103.766	-0.075	0.018
-155.691	38.353	0.103	-0.092
-154.677	342.410	-0.054	0.106
-153.662	-60.218	0.170	0.072
-152.647	800.000	0.098	0.314
-151.633	63.827	0.057	0.057
-150.618	-200.000	0.014	0.159
-149.604	800.000	-0.033	0.093
-148.589	-71.246	0.106	-0.040
-147.574	-124.128	0.125	0.020
-146.560	-49.468	0.388	0.184
-145.545	130.428	0.251	0.320
-144.531	49.896	0.156	0.146
-143.516	193.467	0.198	0.299
-142.502	5.730	0.315	0.232
-141.487	28.421	0.335	0.282
-140.472	-70.166	0.242	0.092
-139.458	371.604	-0.122	-0.247
-138.443	8.612	0.057	0.043
-137.429	-40.236	0.096	0.050
-136.414	-28.481	-0.137	-0.079
-135.399	-115.214	0.364	0.069
-134.385	-32.326	-0.023	-0.013
-133.370	-95.071	0.334	-0.090
-132.356	713.896	0.046	-0.121
-131.341	-161.177	-0.206	0.011
-130.326	147.885	-0.053	0.072
-129.312	-189.885	0.116	-0.001
-128.297	580.296	-0.079	0.193
-127.283	-79.770	0.488	-0.163
-126.268	359.074	-0.047	0.094
-125.253	-200.000	0.035	-0.235
-124.239	-93.980	0.367	0.100
-123.224	-200.000	-0.042	0.207
-122.210	103.632	-0.259	-0.302
-121.195	193.278	-0.042	0.064
-120.180	-200.000	0.002	0.351
-119.166	-119.630	0.205	-0.035
-118.151	270.502	0.055	0.097
-117.137	-200.000	0.008	-0.197
-116.122	-200.000	-0.075	0.344
-115.107	-63.443	-0.295	-0.121
-114.093	-12.371	-0.080	0.052
-113.078	-200.000	0.019	0.307
-112.064	-122.054	0.224	0.037
-111.049	-145.479	-0.271	0.024
-110.034	-200.000	-0.010	-0.173
-109.020	81.561	0.319	-0.344
-108.005	-102.406	0.298	0.071
-106.991	4.923	0.141	0.103
-105.976	-175.870	0.305	-0.008
-104.962	29.396	-0.049	-0.041
-103.947	-109.741	-0.171	-0.036
-102.932	225.494	-0.130	-0.210
-101.918	30.952	-0.237	-0.202
-100.903	300.341	-0.100	0.184
-99.889	800.000	0.060	0.225
-98.874	293.469	0.223	0.405
-97.859	58.323	-0.197	0.193
-96.845	267.038	0.154	0.268
-95.830	-115.069	-0.216	0.041
-94.816	108.450	0.075	0.089
-93.801	56.999	-0.182	-0.176
-92.786	-200.000	-0.076	0.432
-91.772	572.675	-0.101	-0.246
-90.757	591.961	0.099	-0.244
-89.743	11.939	0.092	-0.070
-88.728	-82.118	0.094	-0.031
-87.713	-200.000	-0.033	0.179
-86.699	2.740	0.159	-0.115
-85.684	-153.906	0.281	-0.019
-84.670	2.930	0.139	-0.100
-83.655	57.043	-0.177	0.172
-82.640	-54.109	-0.350	0.158
-81.626	96.868	0.262	-0.299
-80.611	-200.000	0.023	0.214
-79.597	204.275	-0.075	-0.115
-78.582	800.000	-0.044	-0.158
-77.567	168.093	0.142	0.201
-76.553	-81.105	-0.349	-0.115
-75.538	-200.000	-0.020	-0.096
-74.524	132.924	0.286	-0.367
-73.509	119.298	-0.130	0.160
-72.494	28.703	-0.257	-0.216
-71.480	636.411	-0.024	0.061
-70.465	-200.000	0.016	-0.090
-69.451	-109.934	-0.060	0.013
-68.436	-56.358	-0.069	-0.031
-67.422	29.130	0.327	-0.276
-66.407	262.541	-0.101	-0.174
-65.392	800.000	0.064	0.232
-64.378	-27.759	0.294	0.169
-63.363	-66.102	0.221	0.087
-62.349	800.000	-0.021	-0.089
-61.334	177.279	-0.610	-0.882
-60.319	-40.226	0.477	0.246
-59.305	-200.000	-0.129	-0.872
-58.290	338.382	0.340	0.658
-57.276	800.000	0.557	1.726
-56.261	-200.000	87.093	503.997
-55.246	483.152	1372.926	3099.270
-54.232	148.383	2583.101	3462.910
-53.217	114.038	2202.989	2660.394
-52.203	49.279	1658.902	1548.626
-51.188	41.806	1392.723	1253.476
-50.173	38.387	1349.445	1193.655
-49.159	57.169	1392.764	1348.702
-48.144	62.060	1411.687	1397.265
-47.130	42.152	1368.908	1233.974
-46.115	38.391	1351.642	1195.430
-45.100	38.223	1346.649	1189.944
-44.086	38.248	1344.151	1187.843
-43.071	38.133	1341.712	1184.940
-42.057	38.186	1339.688	1183.432
-41.042	38.246	1337.766	1182.046
-40.027	38.223	1336.374	1180.633
-39.013	38.282	1334.456	1179.247
-37.998	38.283	1332.638	1177.599
-36.984	38.288	1331.150	1176.270
-35.969	38.328	1328.988	1174.550
-34.954	38.360	1327.573	1173.446
-33.940	38.419	1325.755	1172.145
-32.925	38.456	1324.214	1170.957
-31.911	38.376	1323.098	1169.445
-30.896	38.546	1321.491	1168.995
-29.881	38.438	1320.145	1167.115
-28.867	38.463	1318.785	1166.015
-27.852	38.386	1317.809	1164.650
-26.838	38.448	1316.204	1163.553
-25.823	38.527	1314.271	1162.265
-24.809	38.446	1313.057	1160.664
-23.794	38.414	1311.633	1159.173
-22.779	38.551	1309.994	1158.486
-21.765	38.572	1308.369	1157.129
-20.750	38.365	1307.696	1155.267
-19.736	38.404	1306.172	1154.102
-18.721	38.392	1304.978	1152.934
-17.706	38.350	1303.798	1151.594
-16.692	38.265	1303.314	1150.620
-15.677	38.185	1302.162	1149.086
-14.663	38.336	1300.882	1148.803
-13.648	38.339	1299.555	1147.599
-12.633	38.235	1298.817	1146.295
-11.619	38.302	1297.585	1145.555
-10.604	38.227	1296.610	1144.208
-9.590	38.205	1295.881	1143.387
-8.575	38.336	1294.907	1143.254
-7.560	38.367	1293.676	1142.301
-6.546	38.255	1293.383	1141.344
-5.531	38.318	1291.849	1140.308
-4.517	38.370	1290.654	1139.511
-3.502	38.290	1290.414	1138.791
-2.487	38.427	1289.375	1138.629
-1.473	38.306	1284.988	1134.004
-0.458	36.359	1269.370	1109.009
0.556	32.197	1248.790	1060.004
1.571	27.476	1251.377	1035.344
2.586	26.030	1266.469	1039.411
3.600	25.158	1254.493	1024.514
4.615	18.191	1179.655	925.742
5.629	7.675	1099.334	809.331
6.644	2.876	1077.138	768.933
7.659	2.466	1074.115	764.656
8.673	2.426	1072.692	763.377
9.688	2.383	1070.881	761.810
10.702	2.679	1069.812	762.449
11.717	9.200	1078.681	801.318
12.731	19.539	1094.522	865.083
13.746	25.041	1100.875	897.676
14.761	26.000	1102.160	903.451
15.775	25.962	1102.035	903.078
16.790	25.829	1100.675	901.219
17.804	25.701	1100.325	900.211
18.819	25.823	1100.005	900.481
19.834	26.000	1099.529	900.893
20.848	25.938	1099.203	900.240
21.863	26.024	1098.182	899.750
22.877	25.909	1097.981	898.933
23.892	25.883	1097.020	897.939
24.907	25.958	1096.109	897.483
25.921	25.925	1095.065	896.386
26.936	25.890	1093.981	895.246
27.950	25.799	1092.257	893.306
28.965	25.696	1090.427	891.218
29.980	25.792	1088.938	890.398
30.994	25.944	1088.348	890.586
32.009	25.945	1087.084	889.479
33.023	25.723	1085.860	887.306
34.038	25.871	1084.814	887.103
35.053	25.977	1084.458	887.254
36.067	25.900	1083.832	886.285
37.082	25.910	1083.248	885.775
38.096	26.077	1082.614	886.000
39.111	26.214	1081.682	885.834
40.126	26.023	1079.949	883.398
41.140	25.634	1078.605	880.317
42.155	25.422	1077.140	878.008
43.169	25.490	1076.285	877.566
44.184	25.532	1075.117	876.743
45.199	25.437	1074.363	875.586
46.213	25.492	1073.521	875.089
47.228	25.743	1073.204	875.977
48.242	25.795	1071.922	875.103
49.257	25.844	1071.125	874.615
50.271	25.889	1070.681	874.392
51.286	25.981	1070.011	874.216
52.301	26.115	1068.499	873.550
53.315	25.907	1067.651	871.774
54.330	25.901	1066.781	870.955
55.344	25.814	1066.506	870.236
56.359	25.901	1065.181	869.498
57.374	25.641	1064.285	867.436
58.388	25.720	1063.079	866.754
59.403	25.659	1062.504	865.915
60.417	25.530	1061.519	864.415
61.432	25.525	1061.080	863.959
62.447	25.743	1060.473	864.436
63.461	25.646	1059.937	863.453
64.476	25.592	1058.909	862.285
65.490	25.577	1057.891	861.307
66.505	25.549	1057.439	860.727
67.520	25.702	1056.296	860.454
68.534	25.474	1055.110	858.324
69.549	25.105	1054.480	855.972
70.563	25.155	1053.552	855.382
71.578	25.120	1052.914	854.619
72.593	24.970	1051.846	852.962
73.607	25.179	1051.158	853.323
74.622	25.394	1051.241	854.341
75.636	25.366	1050.026	853.143
76.651	25.216	1049.372	851.825
77.666	25.165	1048.534	850.828
78.680	25.270	1048.019	850.834
79.695	25.236	1047.550	850.215
80.709	25.396	1047.044	850.485
81.724	25.388	1045.854	849.406
82.739	25.551	1045.114	849.500
83.753	25.823	1044.465	850.182
84.768	26.125	1043.885	851.057
85.782	26.193	1043.009	850.588
86.797	26.099	1042.286	849.481
87.812	25.990	1041.185	847.999
88.826	26.016	1040.332	847.349
89.841	26.041	1039.361	846.601
90.855	26.206	1038.126	846.296
91.870	26.114	1036.978	844.854
92.884	26.044	1036.121	843.751
93.899	25.909	1035.168	842.272
94.914	26.247	1034.295	843.063
95.928	26.026	1033.108	840.992
96.943	25.731	1032.146	838.761
97.957	25.531	1030.779	836.644
98.972	25.381	1029.774	835.056
99.987	25.711	1028.686	835.631
101.001	25.876	1028.111	835.857
102.016	25.803	1027.534	834.974
103.030	25.621	1027.010	833.632
104.045	25.564	1025.899	832.392
105.060	25.513	1024.413	830.880
106.074	25.707	1023.965	831.337
107.089	25.993	1023.435	832.153
108.103	25.849	1022.413	830.587
109.118	25.616	1021.247	828.492
110.133	25.521	1020.624	827.477
111.147	25.314	1018.916	825.067
112.162	25.399	1017.474	824.216
113.176	25.682	1017.353	825.342
114.191	25.446	1016.482	823.479
115.206	25.179	1015.225	821.168
116.220	25.065	1014.433	819.932
117.235	25.321	1014.164	820.812
118.249	25.322	1013.172	819.945
119.264	25.095	1012.455	818.256
120.279	25.189	1011.601	817.919
121.293	25.308	1010.756	817.707
122.308	25.384	1009.695	817.122
123.322	25.215	1008.561	815.364
124.337	25.052	1007.525	813.714
125.352	24.582	1006.014	810.292
126.366	24.561	1004.813	809.156
127.381	25.380	1004.947	812.904
128.395	25.713	1004.622	814.073
129.410	25.943	1003.433	814.078
130.424	25.797	1002.704	812.753
131.439	25.675	1002.006	811.567
132.454	25.819	1000.851	811.209
133.468	25.741	1000.022	810.112
134.483	25.788	999.490	809.822
135.497	26.093	998.526	810.338
136.512	26.090	997.920	809.764
137.527	26.050	996.875	808.663
138.541	26.092	996.242	808.269
139.556	26.152	995.388	807.772
140.570	26.034	994.897	806.771
141.585	26.212	993.598	806.445
142.600	26.169	992.378	805.188
143.614	26.392	991.769	805.617
144.629	26.349	991.260	804.940
145.643	26.345	989.492	803.419
146.658	26.037	988.357	801.059
147.673	26.003	987.249	799.936
148.687	26.017	985.868	798.808
149.702	25.831	985.117	797.307
150.716	25.853	984.306	796.678
151.731	25.872	984.037	796.474
152.746	26.165	983.046	796.893
153.760	26.221	982.526	796.647
154.775	26.158	982.300	796.118
155.789	26.266	980.968	795.444
156.804	26.235	980.036	794.480
157.819	26.264	979.224	793.880
158.833	26.394	978.640	793.907
159.848	26.434	977.470	793.061
160.862	26.236	976.549	791.380
161.877	26.217	975.442	790.329
162.892	26.241	974.319	789.452
163.906	26.079	973.523	788.029
164.921	26.180	972.064	787.220
165.935	26.176	971.718	786.853
166.950	26.244	970.683	786.242
167.964	26.253	969.549	785.290
168.979	26.074	968.600	783.675
169.994	26.067	967.675	782.828
171.008	26.277	967.202	783.288
172.023	26.163	966.734	782.347
173.037	26.214	965.061	781.145
174.052	25.831	964.474	778.942
175.067	25.871	964.043	778.699
176.081	25.963	963.496	778.584
177.096	25.928	962.994	777.961
178.110	25.621	961.942	775.717
179.125	25.435	961.035	774.115
180.140	25.654	960.719	774.734
181.154	25.655	960.802	774.736
182.169	26.121	960.600	776.513
183.183	26.226	959.452	775.965
184.198	26.172	958.434	774.843
185.213	26.133	958.184	774.407
186.227	26.210	957.588	774.184
187.242	26.245	956.985	773.779
188.256	26.290	956.210	773.275
189.271	26.327	955.874	773.097
190.286	26.029	954.060	770.287
191.300	25.349	952.647	766.178
192.315	24.466	951.397	761.340
193.329	24.461	950.999	760.933
194.344	25.359	951.236	764.881
195.359	25.913	951.780	767.612
196.373	26.018	951.135	767.471
197.388	26.093	950.036	766.837
198.402	26.180	949.539	766.734
199.417	26.208	948.677	766.089
200.432	25.796	948.031	763.753
201.446	25.584	947.349	762.240
202.461	25.757	946.759	762.430
203.475	24.921	944.939	757.362
204.490	24.112	943.425	752.662
205.504	25.048	943.663	756.741
206.519	25.663	943.928	759.484
207.534	25.718	943.431	759.248
208.548	26.077	943.213	760.519
209.563	25.943	941.829	758.773
210.577	25.901	941.484	758.249
211.592	26.267	941.491	759.727
212.607	26.117	940.720	758.408
213.621	26.251	939.947	758.281
214.636	26.284	938.953	757.550
215.650	26.154	938.262	756.381
216.665	26.508	937.493	757.174
217.680	26.171	936.847	755.178
218.694	25.907	935.507	752.927
219.709	25.657	935.264	751.623
220.723	25.936	934.932	752.455
221.738	26.149	933.945	752.481
222.753	26.076	933.251	751.549
223.767	26.005	933.611	751.478
224.782	26.413	933.064	752.669
225.796	26.248	932.476	751.443
226.811	25.717	930.293	747.412
227.826	25.066	928.916	743.539
228.840	25.248	928.811	744.145
229.855	25.347	927.706	743.605
230.869	25.099	926.736	741.737
231.884	25.380	927.204	743.205
232.899	26.135	926.712	745.867
233.913	25.922	926.576	744.812
234.928	25.968	925.861	744.363
235.942	25.897	925.278	743.532
236.957	25.606	924.482	741.628
237.972	25.593	923.966	741.096
238.986	25.604	923.419	740.639
240.001	25.785	922.420	740.514
241.015	25.810	922.086	740.284
242.030	26.043	921.346	740.580
243.045	26.094	921.480	740.833
244.059	26.260	920.571	740.718
245.074	26.052	919.789	739.170
246.088	25.767	918.982	737.287
247.103	26.084	918.538	738.166
248.117	26.599	918.659	740.301
249.132	26.715	918.432	740.530
250.147	26.746	917.960	740.210
251.161	27.111	916.964	740.826
252.176	26.936	916.383	739.579
253.190	27.123	915.750	739.765
254.205	27.043	915.776	739.394
255.220	27.036	915.058	738.720
256.234	26.998	914.060	737.697
257.249	26.966	913.376	736.949
258.263	26.952	912.424	736.057
259.278	27.000	911.970	735.821
260.293	27.069	911.488	735.647
261.307	26.921	911.041	734.623
262.322	26.787	909.787	733.003
263.336	26.067	908.116	728.687
264.351	24.900	906.337	722.489
265.366	24.951	906.187	722.511
266.380	26.038	906.884	727.389
267.395	26.637	906.052	729.067
268.409	26.615	905.308	728.318
269.424	26.782	904.978	728.657
270.439	26.808	904.473	728.293
271.453	26.760	904.137	727.765
272.468	26.996	903.666	728.266
273.482	27.113	902.796	727.968
274.497	26.725	901.771	725.528
275.512	26.142	901.258	722.717
276.526	26.712	901.104	724.808
277.541	26.928	900.397	725.041
278.555	26.612	899.954	723.356
279.570	26.490	899.049	722.077
280.585	26.652	898.435	722.168
281.599	26.718	897.309	721.461
282.614	25.862	896.511	717.349
283.628	25.951	896.032	717.256
284.643	26.325	896.071	718.713
285.657	25.881	894.696	715.784
286.672	25.612	893.936	714.045
287.687	26.233	893.937	716.445
288.701	26.302	893.179	716.049
289.716	26.048	891.980	714.020
290.730	25.897	891.734	713.159
291.745	25.699	890.771	711.545
292.760	25.991	890.589	712.489
293.774	27.060	891.004	716.982
294.789	27.385	890.603	717.876
295.803	27.220	890.439	717.031
296.818	27.332	889.582	716.720
297.833	26.958	888.087	713.979
298.847	26.722	887.621	712.613
299.862	27.184	887.297	714.106
300.876	27.405	887.120	714.769
301.891	27.229	886.706	713.681
302.906	26.778	885.597	710.956
303.920	27.002	885.002	711.296
304.935	27.370	884.944	712.626
305.949	27.189	884.324	711.356
306.964	26.993	883.323	709.721
307.979	26.939	883.185	709.337
308.993	27.429	882.887	710.947
310.008	27.340	882.311	710.074
311.022	27.215	881.392	708.785
312.037	26.910	880.680	706.961
313.052	26.808	879.443	705.508
314.066	25.911	877.979	700.786
315.081	25.526	877.409	698.774
316.095	26.583	877.913	703.219
317.110	26.878	877.614	704.063
318.125	26.035	875.669	699.173
319.139	25.100	874.491	694.552
320.154	25.037	874.017	693.870
321.168	26.014	874.425	697.914
322.183	26.603	874.736	700.381
323.197	26.719	874.786	700.806
324.212	26.996	874.082	701.251
325.227	27.088	873.300	700.915
326.241	26.900	872.431	699.434
327.256	26.771	872.442	698.884
328.270	26.755	871.325	697.863
329.285	26.580	870.303	696.311
330.300	26.280	869.470	694.429
331.314	26.690	869.400	695.887
332.329	27.089	869.233	697.224
333.343	27.077	869.020	696.947
334.358	27.181	868.485	696.854
335.373	27.205	868.463	696.868
336.387	27.539	867.794	697.545
337.402	27.545	868.023	697.692
338.416	27.630	867.114	697.226
339.431	27.709	867.307	697.621
340.446	27.819	866.928	697.676
341.460	27.740	866.057	696.612
342.475	27.440	865.425	694.895
343.489	27.614	865.325	695.419
344.504	27.762	865.391	695.974
345.519	27.953	864.883	696.232
346.533	27.946	864.509	695.840
347.548	28.015	863.796	695.470
348.562	27.893	863.276	694.523
349.577	27.823	862.660	693.704
350.592	27.736	861.851	692.661
351.606	27.986	860.609	692.546
352.621	27.701	859.809	690.764
353.635	27.620	859.243	689.943
354.650	26.898	858.008	686.159
355.665	25.995	856.241	681.276
356.679	26.520	856.352	683.286
357.694	26.992	855.803	684.571
358.708	26.755	855.428	683.314
359.723	27.155	855.522	684.835
360.738	27.505	855.137	685.785
361.752	27.645	854.261	685.550
362.767	28.014	854.234	686.853
363.781	28.185	853.803	687.089
364.796	28.395	853.054	687.212
365.810	28.522	852.925	687.523
366.825	28.359	852.375	686.411
367.840	28.064	851.710	684.706
368.854	27.609	850.813	682.224
369.869	27.615	850.570	681.993
370.883	27.722	849.786	681.704
371.898	27.672	849.246	681.022
372.913	27.731	849.232	681.171
373.927	27.886	848.616	681.193
374.942	28.043	848.162	681.355
375.956	28.191	847.572	681.374
376.971	28.017	847.434	680.552
377.986	28.268	847.285	681.307
379.000	28.331	846.457	680.816
380.015	28.003	846.123	679.266
381.029	28.110	845.448	679.063
382.044	28.221	845.148	679.175
383.059	28.431	844.084	679.039
384.073	28.362	843.457	678.217
385.088	28.231	842.966	677.278
386.102	28.037	842.136	675.833
387.117	27.896	841.438	674.693
388.132	27.734	840.187	673.032
389.146	27.202	839.488	670.454
390.161	27.549	839.381	671.585
391.175	27.954	839.390	673.027
392.190	27.781	837.914	671.147
393.205	26.325	836.071	664.265
394.219	24.785	834.108	656.996
395.234	24.687	834.193	656.645
396.248	26.141	835.611	663.047
397.263	27.816	836.268	669.660
398.278	27.728	835.961	669.031
399.292	27.393	835.210	667.145
400.307	27.426	835.011	667.048
401.321	27.731	834.204	667.462
402.336	27.999	834.591	668.693
403.350	28.288	834.349	669.494
404.365	28.758	834.180	671.019
405.380	29.006	834.003	671.721
406.394	28.973	833.385	671.044
407.409	29.076	832.597	670.727
408.423	28.948	832.363	670.011
409.438	29.007	832.041	669.908
410.453	29.076	831.783	669.891
411.467	29.043	830.991	669.076
412.482	28.964	830.673	668.471
413.496	29.019	830.464	668.447
414.511	29.053	830.331	668.404
415.526	28.989	829.573	667.499
416.540	28.940	828.337	666.268
417.555	28.739	827.843	665.085
418.569	28.652	827.682	664.581
419.584	28.693	826.869	664.017
420.599	28.645	826.153	663.212
421.613	102.104	1277.586	1414.914
422.628	88.415	1343.381	1415.003
