DTS Sentinel unit serial number:	SN413079Multiplexer serial number:	ORYXHardware model number:	OX4-SRSoftware version number:	ORYX F/W v4.00 Oryx Data Collector v3.7.2.0data status	okinstallation	princeton_trtdifferential loss correction	single-endedforward channel	channel 1reverse channel	N/Adate	2019/09/19time	07:42:35forward acquisition time	60.00reverse acquisition time	0.00gamma	496.2192k internal	0.2342k external	0.2342temperature offset calibration	1.0010default loss term (dB/km)	0.3790temperature slope calibration	1.0000multiplexer offset coefficient	1.0000multiplexer slope coefficient	1.0000fibre end	0.00T internal ref (°C)	19.44T ext. ref 1 (°C)	0.55T ext. ref 2 (°C)	14.57length (m)	temperature (°C)	Stokes	anti-Stokes-747.200	215.395	0.056	0.089
-746.185	-58.823	-0.282	-0.122
-745.171	-68.740	0.136	0.053
-744.156	176.979	0.092	-0.134
-743.142	-78.782	-0.210	-0.072
-742.127	679.191	-0.098	-0.255
-741.112	112.202	0.114	-0.138
-740.098	3.950	-0.080	0.058
-739.083	-200.000	0.024	-0.304
-738.069	18.353	-0.079	0.063
-737.054	-56.567	0.194	-0.086
-736.039	-135.374	0.179	-0.021
-735.025	-41.773	0.209	0.108
-734.010	-63.369	-0.285	-0.117
-732.996	314.127	-0.082	0.154
-731.981	-200.000	0.014	0.098
-730.966	177.559	0.131	0.191
-729.952	-35.661	-0.094	-0.051
-728.937	-200.000	-0.006	-0.207
-727.923	-23.664	0.248	0.149
-726.908	49.353	-0.100	-0.094
-725.894	115.197	-0.282	-0.344
-724.879	128.047	-0.125	0.159
-723.864	-200.000	-0.109	0.518
-722.850	341.396	0.069	0.136
-721.835	-85.310	0.317	-0.099
-720.821	296.276	0.045	-0.083
-719.806	-59.901	-0.100	0.043
-718.791	485.863	-0.079	0.180
-717.777	-200.000	-0.003	0.233
-716.762	-177.125	0.071	-0.002
-715.748	60.388	0.193	0.191
-714.733	-4.681	0.344	-0.237
-713.718	20.462	0.087	0.071
-712.704	-165.826	0.321	0.014
-711.689	-200.000	-0.041	-0.336
-710.675	43.384	0.224	0.205
-709.660	-132.921	-0.124	0.016
-708.645	-114.804	0.120	-0.023
-707.631	-200.000	-0.021	-0.241
-706.616	-200.000	0.073	0.370
-705.602	92.385	-0.310	0.350
-704.587	800.000	0.057	-0.219
-703.572	503.465	-0.158	0.366
-702.558	157.485	0.041	0.056
-701.543	586.930	-0.151	0.371
-700.529	800.000	-0.043	-0.162
-699.514	-200.000	-0.011	-0.099
-698.499	453.768	0.014	-0.031
-697.485	-66.497	0.412	0.163
-696.470	-54.632	0.124	0.056
-695.456	800.000	0.063	-0.241
-694.441	-75.626	-0.069	0.025
-693.426	-113.135	-0.293	-0.058
-692.412	32.989	-0.209	0.181
-691.397	-101.458	0.078	0.019
-690.383	-43.152	-0.008	-0.004
-689.368	-19.548	0.224	-0.139
-688.354	132.274	0.126	-0.162
-687.339	-81.969	-0.425	0.139
-686.324	3.573	-0.111	-0.081
-685.310	193.936	0.058	-0.088
-684.295	-138.678	-0.304	-0.033
-683.281	-200.000	-0.005	-0.127
-682.266	-200.000	0.043	0.342
-681.251	219.939	-0.115	-0.185
-680.237	800.000	-0.052	0.184
-679.222	27.296	0.080	0.067
-678.208	-167.928	0.310	-0.012
-677.193	-100.027	-0.144	-0.036
-676.178	502.443	-0.100	0.230
-675.164	-200.000	-0.032	-0.222
-674.149	85.868	-0.121	-0.133
-673.135	12.928	-0.299	-0.231
-672.120	-134.100	-0.251	-0.031
-671.105	17.568	-0.310	-0.246
-670.091	402.079	0.046	-0.096
-669.076	649.992	-0.037	-0.094
-668.062	-112.165	0.096	-0.019
-667.047	-72.723	0.261	0.096
-666.032	45.505	-0.216	-0.199
-665.018	-39.984	-0.256	-0.133
-664.003	-200.000	0.021	-0.168
-662.989	-109.715	-0.220	-0.046
-661.974	28.777	-0.256	0.217
-660.959	-20.815	-0.119	0.073
-659.945	75.408	0.241	0.254
-658.930	-200.000	-0.055	0.255
-657.916	800.000	-0.035	-0.120
-656.901	559.318	0.077	0.186
-655.886	-86.991	-0.193	-0.059
-654.872	-19.838	-0.157	-0.097
-653.857	-156.459	0.400	-0.025
-652.843	269.022	0.155	-0.272
-651.828	32.732	0.115	-0.099
-650.814	-19.675	-0.214	-0.132
-649.799	-85.627	0.269	-0.083
-648.784	-30.966	-0.082	-0.046
-647.770	-88.851	-0.403	-0.119
-646.755	27.162	-0.070	0.058
-645.741	-122.995	-0.158	0.025
-644.726	173.403	0.178	-0.256
-643.711	132.080	0.062	-0.079
-642.697	311.547	0.029	0.055
-641.682	777.864	0.050	-0.137
-640.668	-84.644	0.307	-0.097
-639.653	302.850	-0.117	0.216
-638.638	121.266	0.173	-0.214
-637.624	-200.000	-0.008	0.059
-636.609	-200.000	0.045	0.232
-635.595	315.289	0.016	0.029
-634.580	48.902	-0.239	-0.224
-633.565	800.000	-0.046	-0.164
-632.551	-200.000	0.031	-0.207
-631.536	18.581	0.217	0.173
-630.522	-119.614	-0.240	-0.041
-629.507	637.332	-0.045	0.114
-628.492	21.397	-0.224	-0.181
-627.478	0.385	-0.353	0.252
-626.463	-200.000	-0.017	0.316
-625.449	127.873	-0.089	0.113
-624.434	170.326	-0.174	0.248
-623.419	-79.044	-0.410	-0.139
-622.405	-125.941	-0.140	0.021
-621.390	-41.038	0.207	-0.107
-620.376	-169.729	-0.543	0.020
-619.361	-62.564	-0.370	-0.153
-618.346	41.014	-0.319	-0.287
-617.332	213.001	0.234	-0.369
-616.317	-200.000	-0.024	-0.182
-615.303	91.016	-0.041	0.046
-614.288	83.240	0.086	0.094
-613.273	157.759	0.202	-0.279
-612.259	402.570	0.113	0.236
-611.244	-28.638	-0.162	-0.093
-610.230	552.857	-0.034	0.080
-609.215	-200.000	0.019	0.260
-608.201	7.280	0.160	0.119
-607.186	1.792	-0.183	0.132
-606.171	-200.000	0.030	-0.320
-605.157	406.915	-0.107	-0.225
-604.142	-200.000	-0.078	-0.360
-603.128	800.000	0.088	-0.292
-602.113	-144.632	0.120	-0.011
-601.098	120.306	0.157	-0.194
-600.084	-200.000	-0.019	0.326
-599.069	3.905	0.129	0.094
-598.055	59.184	0.187	0.183
-597.040	-33.903	0.037	-0.020
-596.025	92.353	0.063	-0.071
-595.011	-33.885	0.103	0.056
-593.996	-24.629	-0.199	-0.118
-592.982	-147.678	0.431	-0.036
-591.967	51.383	-0.325	-0.308
-590.952	689.520	0.094	-0.245
-589.938	94.785	-0.138	0.156
-588.923	-200.000	-0.002	-0.281
-587.909	66.313	-0.246	0.248
-586.894	-16.237	0.074	0.047
-585.879	6.828	0.173	0.128
-584.865	-200.000	0.002	0.113
-583.850	115.213	-0.090	-0.110
-582.836	800.000	-0.045	0.166
-581.821	212.162	-0.055	-0.086
-580.806	-200.000	-0.032	-0.154
-579.792	-200.000	0.022	0.231
-578.777	185.328	0.087	0.129
-577.763	121.024	0.165	-0.205
-576.748	60.641	0.213	-0.210
-575.733	289.816	-0.154	0.278
-574.719	94.530	-0.182	0.206
-573.704	468.511	-0.024	-0.055
-572.690	-10.705	-0.086	-0.056
-571.675	193.789	0.122	-0.183
-570.661	-96.068	-0.211	0.056
-569.646	-200.000	-0.032	0.274
-568.631	20.970	-0.166	0.134
-567.617	459.138	0.123	-0.273
-566.602	-136.888	0.243	0.028
-565.588	347.862	0.035	-0.068
-564.573	-0.483	-0.184	-0.130
-563.558	74.616	0.166	-0.174
-562.544	-200.000	-0.034	-0.434
-561.529	800.000	-0.029	-0.095
-560.515	-74.868	-0.193	-0.069
-559.500	-200.000	0.027	0.368
-558.485	-200.000	0.067	0.416
-557.471	42.506	0.295	0.267
-556.456	176.876	0.109	-0.158
-555.442	611.776	-0.063	-0.157
-554.427	-98.553	-0.235	-0.060
-553.412	800.000	0.093	-0.370
-552.398	19.161	0.213	-0.170
-551.383	800.000	0.054	-0.179
-550.369	-66.883	-0.230	0.091
-549.354	-96.570	-0.181	-0.048
-548.339	-8.471	-0.432	0.288
-547.325	317.200	0.146	0.274
-546.310	683.579	0.126	-0.327
-545.296	130.063	-0.105	-0.134
-544.281	32.637	-0.236	0.203
-543.266	131.713	0.041	0.052
-542.252	-46.384	-0.179	0.087
-541.237	800.000	-0.080	-0.269
-540.223	-79.558	-0.015	-0.005
-539.208	-126.883	0.290	0.042
-538.193	45.719	0.031	-0.028
-537.179	76.777	-0.093	-0.098
-536.164	-200.000	0.037	0.369
-535.150	-200.000	0.077	-0.353
-534.135	-63.383	0.395	-0.162
-533.121	-200.000	0.029	0.319
-532.106	9.769	-0.136	-0.103
-531.091	800.000	-0.134	0.372
-530.077	-170.227	0.216	-0.008
-529.062	109.928	-0.052	-0.062
-528.048	-38.390	-0.143	-0.075
-527.033	-200.000	0.001	0.030
-526.018	800.000	0.023	0.101
-525.004	-54.320	-0.234	0.105
-523.989	2.131	-0.225	0.161
-522.975	-120.568	-0.146	-0.025
-521.960	-126.578	-0.235	0.035
-520.945	-200.000	-0.022	0.200
-519.931	426.500	-0.092	0.197
-518.916	-41.646	0.183	-0.093
-517.902	716.424	0.126	-0.333
-516.887	60.623	-0.144	-0.142
-515.872	-30.367	-0.366	-0.206
-514.858	-42.664	-0.305	0.154
-513.843	303.253	0.107	0.196
-512.829	-35.117	-0.448	-0.242
-511.814	580.404	0.063	-0.154
-510.799	-50.318	0.347	-0.163
-509.785	800.000	0.054	0.154
-508.770	-200.000	-0.004	0.061
-507.756	-118.061	-0.330	-0.058
-506.741	-181.849	0.484	0.009
-505.726	738.911	-0.097	0.259
-504.712	-39.182	0.160	0.084
-503.697	800.000	0.072	0.218
-502.683	-87.751	-0.095	0.028
-501.668	800.000	0.090	-0.344
-500.653	56.173	-0.105	-0.101
-499.639	-42.085	0.444	0.225
-498.624	-131.902	-0.093	0.012
-497.610	800.000	0.092	-0.285
-496.595	-1.653	0.263	-0.184
-495.581	-200.000	0.037	-0.361
-494.566	800.000	0.026	0.097
-493.551	-92.764	0.380	0.105
-492.537	36.314	-0.048	0.042
-491.522	317.757	0.138	-0.259
-490.508	-147.197	-0.235	0.020
-489.493	800.000	-0.024	0.069
-488.478	110.665	0.092	0.110
-487.464	172.872	0.154	-0.220
-486.449	-100.551	-0.263	-0.065
-485.435	800.000	-0.029	-0.093
-484.420	-133.865	0.218	0.027
-483.405	-29.219	0.073	0.042
-482.391	-67.736	0.101	-0.039
-481.376	60.382	-0.346	0.339
-480.362	214.065	-0.158	0.248
-479.347	-200.000	0.015	0.084
-478.332	-140.797	0.227	-0.023
-477.318	-136.022	-0.332	0.039
-476.303	800.000	-0.098	-0.289
-475.289	-6.646	-0.368	-0.249
-474.274	104.663	-0.037	-0.044
-473.259	-124.163	-0.244	0.038
-472.245	-200.000	-0.010	0.233
-471.230	167.106	-0.273	-0.384
-470.216	91.649	0.119	0.132
-469.201	-63.977	0.256	0.104
-468.186	800.000	-0.064	0.184
-467.172	-200.000	-0.004	0.242
-466.157	-110.945	-0.231	0.047
-465.143	22.429	0.365	0.296
-464.128	-149.837	-0.243	-0.019
-463.113	800.000	0.058	-0.194
-462.099	222.902	0.212	-0.338
-461.084	170.173	0.237	0.336
-460.070	-200.000	-0.230	0.001
-459.055	628.975	0.119	-0.299
-458.040	665.085	0.112	0.287
-457.026	-54.204	0.144	0.065
-456.011	-64.473	-0.105	-0.042
-454.997	-73.521	-0.373	-0.135
-453.982	-84.903	0.154	0.048
-452.968	-177.291	-0.188	0.005
-451.953	238.948	-0.052	0.085
-450.938	159.797	-0.163	0.225
-449.924	-116.820	-0.293	0.053
-448.909	353.195	-0.113	0.221
-447.895	-200.000	-0.006	0.128
-446.880	-9.924	-0.091	-0.060
-445.865	23.746	0.085	-0.070
-444.851	66.364	0.227	0.228
-443.836	496.035	0.133	-0.302
-442.822	433.083	0.075	0.162
-441.807	-113.841	-0.112	-0.022
-440.792	-21.875	-0.389	0.234
-439.778	-181.414	-0.101	-0.002
-438.763	-11.370	-0.167	0.109
-437.749	-79.339	0.430	-0.144
-436.734	-100.328	0.142	-0.035
-435.719	538.761	0.102	-0.240
-434.705	-115.592	0.135	-0.025
-433.690	-81.397	0.229	-0.075
-432.676	800.000	0.060	-0.253
-431.661	52.250	-0.332	0.314
-430.646	-115.170	0.244	0.046
-429.632	-122.023	0.245	-0.040
-428.617	-200.000	-0.036	0.204
-427.603	-200.000	0.021	0.102
-426.588	-141.697	-0.121	-0.012
-425.573	-171.267	0.148	-0.005
-424.559	-26.429	0.078	0.045
-423.544	86.809	-0.105	0.114
-422.530	-51.919	-0.159	-0.073
-421.515	26.825	0.159	0.132
-420.500	-171.358	-0.502	-0.017
-419.486	21.895	-0.282	-0.228
-418.471	596.843	0.028	0.068
-417.457	32.815	0.215	-0.184
-416.442	242.329	-0.048	-0.080
-415.428	-61.058	0.160	0.067
-414.413	-38.950	0.115	0.060
-413.398	177.523	0.211	-0.304
-412.384	-92.184	-0.250	0.070
-411.369	251.958	-0.221	0.372
-410.355	-150.722	0.033	-0.003
-409.340	3.981	0.156	-0.113
-408.325	-200.000	0.059	-0.376
-407.311	800.000	0.035	0.142
-406.296	-200.000	0.018	-0.083
-405.282	-200.000	-0.147	0.001
-404.267	-111.998	-0.409	-0.081
-403.252	-140.436	0.101	-0.010
-402.238	-58.844	-0.041	-0.018
-401.223	-200.000	-0.036	-0.257
-400.209	800.000	0.079	0.216
-399.194	-14.715	0.096	-0.061
-398.179	-161.293	-0.336	0.017
-397.165	-169.448	-0.144	-0.005
-396.150	0.820	0.055	0.039
-395.136	42.874	0.320	0.289
-394.121	-200.000	-0.015	-0.104
-393.106	10.966	0.395	0.298
-392.092	-200.000	0.004	0.073
-391.077	-185.365	0.321	0.005
-390.063	260.023	0.111	0.189
-389.048	-200.000	0.002	0.063
-388.033	115.517	-0.037	0.045
-387.019	55.406	-0.114	-0.109
-386.004	-200.000	0.020	-0.290
-384.990	800.000	0.033	-0.134
-383.975	17.820	-0.288	-0.226
-382.960	-127.673	-0.079	0.011
-381.946	800.000	-0.022	0.065
-380.931	-136.954	-0.293	0.033
-379.917	337.276	0.075	0.143
-378.902	32.978	0.251	0.215
-377.888	-172.668	-0.191	0.006
-376.873	-200.000	0.021	-0.194
-375.858	-114.585	-0.028	0.005
-374.844	300.289	-0.201	0.366
-373.829	-44.407	0.233	0.115
-372.815	339.304	0.045	-0.087
-371.800	800.000	-0.065	-0.183
-370.785	-33.300	0.280	0.153
-369.771	800.000	-0.062	-0.224
-368.756	-28.773	0.245	-0.139
-367.742	-182.961	0.067	-0.001
-366.727	800.000	-0.039	-0.124
-365.712	-57.621	-0.230	0.100
-364.698	800.000	-0.049	0.189
-363.683	-20.201	0.290	0.177
-362.669	727.596	0.027	0.071
-361.654	-200.000	0.012	0.093
-360.639	-168.479	-0.079	-0.003
-359.625	-138.133	0.398	0.044
-358.610	605.628	-0.037	0.090
-357.596	800.000	-0.107	-0.404
-356.581	-100.933	-0.358	0.087
-355.566	32.112	0.266	0.227
-354.552	331.954	-0.053	-0.102
-353.537	-140.860	-0.206	0.021
-352.523	-16.330	0.145	0.091
-351.508	-65.752	0.359	0.142
-350.493	-169.614	-0.119	0.004
-349.479	-67.871	-0.121	-0.047
-348.464	-157.219	0.251	-0.015
-347.450	94.933	-0.105	-0.118
-346.435	560.674	0.144	-0.343
-345.420	397.800	0.072	-0.148
-344.406	-52.857	-0.137	0.062
-343.391	-96.077	0.388	0.102
-342.377	800.000	-0.087	0.299
-341.362	529.673	-0.171	-0.399
-340.348	137.048	-0.216	-0.278
-339.333	274.069	-0.021	-0.036
-338.318	-37.548	0.228	0.120
-337.304	-119.451	-0.240	-0.041
-336.289	82.464	0.186	-0.199
-335.275	320.721	0.117	-0.218
-334.260	-121.956	-0.066	0.011
-333.245	-39.596	0.135	-0.069
-332.231	800.000	-0.049	0.170
-331.216	-85.026	0.174	0.054
-330.202	-119.774	-0.174	0.030
-329.187	-152.308	-0.144	0.010
-328.172	-200.000	0.026	-0.185
-327.158	-46.590	0.211	0.102
-326.143	-200.000	-0.019	-0.144
-325.129	-49.469	0.215	-0.101
-324.114	-20.340	-0.152	0.092
-323.099	-1.738	0.263	-0.182
-322.085	44.578	0.235	-0.212
-321.070	-200.000	-0.007	-0.036
-320.056	-11.840	-0.253	-0.163
-319.041	105.629	-0.108	0.126
-318.026	-96.671	0.057	-0.015
-317.012	-81.666	0.273	0.088
-315.997	637.719	-0.090	0.225
-314.983	263.441	-0.112	-0.191
-313.968	246.352	-0.056	0.093
-312.953	-187.476	0.147	0.002
-311.939	750.760	-0.044	-0.116
-310.924	-13.133	0.253	0.162
-309.910	18.618	0.193	-0.152
-308.895	800.000	-0.080	-0.243
-307.880	129.897	-0.032	-0.040
-306.866	-10.356	0.202	-0.132
-305.851	-76.044	0.491	-0.171
-304.837	372.418	0.125	0.249
-303.822	-158.062	-0.221	-0.013
-302.807	49.653	0.026	0.024
-301.793	531.861	-0.091	0.211
-300.778	234.332	0.106	0.171
-299.764	-159.178	-0.091	-0.005
-298.749	-40.236	-0.064	0.033
-297.735	105.839	-0.127	0.148
-296.720	21.570	0.152	0.122
-295.705	4.754	0.189	-0.137
-294.691	38.844	0.278	0.245
-293.676	104.687	0.185	-0.214
-292.662	387.462	-0.121	0.246
-291.647	-47.794	0.378	0.180
-290.632	159.269	0.150	-0.205
-289.618	-200.000	0.013	0.122
-288.603	-14.683	0.153	0.097
-287.589	-200.000	-0.010	-0.090
-286.574	-200.000	-0.071	0.388
-285.559	-85.667	0.103	-0.031
-284.545	-27.566	0.211	0.120
-283.530	459.885	0.066	-0.144
-282.516	-90.456	0.055	-0.016
-281.501	422.185	-0.039	0.082
-280.486	-200.000	0.033	-0.179
-279.472	-112.037	0.181	-0.036
-278.457	227.965	-0.040	-0.065
-277.443	11.016	-0.175	0.132
-276.428	513.240	-0.086	0.198
-275.413	-200.000	-0.019	0.443
-274.399	-200.000	-0.025	0.257
-273.384	-50.787	-0.108	0.050
-272.370	-72.548	0.241	0.087
-271.355	-75.992	0.066	0.023
-270.340	0.671	0.083	-0.059
-269.326	99.549	-0.143	-0.163
-268.311	-7.372	-0.130	-0.087
-267.297	-200.000	0.049	0.273
-266.282	-37.968	0.057	-0.030
-265.267	800.000	0.048	-0.131
-264.253	54.519	0.098	-0.093
-263.238	7.604	-0.259	0.191
-262.224	94.413	-0.124	0.139
-261.209	-179.733	-0.257	0.005
-260.195	800.000	0.027	-0.074
-259.180	-118.331	-0.189	-0.033
-258.165	208.617	-0.107	0.164
-257.151	-110.868	-0.210	-0.042
-256.136	75.955	-0.111	-0.116
-255.122	431.950	-0.051	0.109
-254.107	189.179	0.110	0.162
-253.092	2.744	0.176	0.125
-252.078	327.405	-0.192	-0.363
-251.063	-200.000	0.034	0.183
-250.049	-33.642	-0.094	-0.051
-249.034	-135.211	0.394	0.046
-248.019	791.043	-0.075	-0.202
-247.005	-99.220	-0.397	-0.099
-245.990	166.573	-0.078	-0.109
-244.976	-50.429	-0.065	-0.030
-243.961	45.049	0.048	0.043
-242.946	348.229	0.165	-0.320
-241.932	128.336	-0.088	-0.110
-240.917	-200.000	0.015	0.121
-239.903	-129.858	-0.229	0.031
-238.888	-43.871	0.277	0.137
-237.873	162.934	-0.232	0.320
-236.859	-149.730	-0.313	0.024
-235.844	242.845	-0.119	0.196
-234.830	-172.078	-0.248	-0.008
-233.815	100.317	-0.065	0.074
-232.800	-112.533	0.094	0.018
-231.786	154.957	0.130	0.176
-230.771	224.104	0.092	0.146
-229.757	800.000	0.077	0.295
-228.742	50.329	-0.031	0.029
-227.727	330.477	-0.129	-0.243
-226.713	193.733	-0.096	0.142
-225.698	230.915	-0.093	0.149
-224.684	9.968	0.147	-0.110
-223.669	-34.877	-0.199	-0.107
-222.655	-144.892	-0.174	-0.016
-221.640	-77.828	0.262	-0.089
-220.625	800.000	0.116	0.362
-219.611	-91.419	-0.204	-0.057
-218.596	37.770	-0.204	-0.178
-217.582	-200.000	0.023	0.265
-216.567	-200.000	-0.009	0.120
-215.552	179.337	0.144	0.207
-214.538	58.304	0.056	0.054
-213.523	-200.000	0.052	-0.234
-212.509	-158.047	0.370	0.021
-211.494	518.228	0.043	0.099
-210.479	97.345	-0.231	0.260
-209.465	-105.295	-0.088	-0.020
-208.450	-60.607	0.198	0.082
-207.436	-200.000	-0.045	0.319
-206.421	-160.002	0.136	-0.007
-205.406	104.409	-0.085	0.098
-204.392	-91.677	-0.130	-0.036
-203.377	7.159	-0.274	0.201
-202.363	-188.990	0.237	0.003
-201.348	-77.862	-0.128	-0.043
-200.333	-18.322	-0.028	-0.017
-199.319	-70.680	0.333	-0.123
-198.304	378.152	-0.114	-0.229
-197.290	-105.703	0.273	0.061
-196.275	14.026	-0.217	-0.166
-195.260	-29.207	-0.105	0.059
-194.246	143.535	0.109	-0.142
-193.231	301.070	0.061	0.110
-192.217	14.169	0.176	0.135
-191.202	419.966	-0.022	-0.045
-190.187	800.000	0.068	0.186
-189.173	-200.000	-0.011	0.141
-188.158	-132.785	0.213	0.027
-187.144	-108.256	-0.109	-0.023
-186.129	743.107	0.014	0.037
-185.114	-200.000	0.016	-0.125
-184.100	800.000	-0.104	0.415
-183.085	-77.537	-0.181	-0.062
-182.071	-149.722	-0.310	0.024
-181.056	-107.230	0.478	0.103
-180.042	-15.460	-0.430	-0.269
-179.027	624.890	-0.096	-0.236
-178.012	663.645	-0.111	-0.282
-176.998	-84.303	0.226	-0.070
-175.983	-31.956	0.348	-0.191
-174.969	240.898	0.070	-0.115
-173.954	-86.799	-0.238	-0.071
-172.939	-58.065	0.426	-0.182
-171.925	-200.000	-0.005	-0.253
-170.910	800.000	0.106	-0.292
-169.896	165.435	0.089	-0.124
-168.881	-200.000	0.025	-0.347
-167.866	-16.362	-0.179	-0.111
-166.852	800.000	0.027	0.080
-165.837	-200.000	0.000	-0.064
-164.823	789.868	0.066	0.177
-163.808	61.642	0.182	-0.178
-162.793	-53.513	-0.221	0.099
-161.779	-200.000	0.012	-0.184
-160.764	-119.125	0.123	0.021
-159.750	-200.000	0.053	0.380
-158.735	-139.805	0.267	-0.028
-157.720	-125.950	0.061	-0.009
-156.706	7.932	0.162	0.119
-155.691	-88.068	0.420	0.123
-154.677	163.084	-0.195	-0.268
-153.662	-32.481	-0.308	0.168
-152.647	-200.000	0.034	0.325
-151.633	-200.000	0.053	-0.307
-150.618	-149.651	-0.321	-0.025
-149.604	79.290	0.138	0.144
-148.589	-61.948	0.159	-0.065
-147.574	614.047	0.095	0.232
-146.560	800.000	0.065	0.259
-145.545	474.208	-0.065	-0.143
-144.531	-118.362	-0.513	-0.089
-143.516	13.158	0.268	-0.203
-142.502	241.708	0.181	0.295
-141.487	-29.363	0.087	-0.049
-140.472	36.997	-0.238	0.206
-139.458	-87.689	-0.334	0.099
-138.443	286.120	0.036	-0.063
-137.429	-34.690	0.115	-0.061
-136.414	-35.038	0.218	-0.116
-135.399	-58.185	-0.110	-0.047
-134.385	-163.934	0.221	0.010
-133.370	9.903	-0.184	0.137
-132.356	-200.000	-0.031	0.150
-131.341	663.088	0.173	0.436
-130.326	-75.053	0.128	0.045
-129.312	62.026	0.077	-0.076
-128.297	135.768	0.301	0.384
-127.283	72.117	0.202	0.206
-126.268	-94.739	-0.102	-0.027
-125.253	137.187	0.106	-0.135
-124.239	-200.000	0.042	0.254
-123.224	-99.280	0.257	0.063
-122.210	-188.553	-0.122	-0.001
-121.195	52.210	-0.123	0.114
-120.180	-200.000	0.050	-0.243
-119.166	-104.719	0.220	0.050
-118.151	-72.454	0.025	-0.009
-117.137	0.625	-0.168	0.118
-116.122	174.527	0.150	0.212
-115.107	-17.631	0.241	0.148
-114.093	800.000	0.154	0.618
-113.078	-200.000	0.018	-0.194
-112.064	-26.387	0.126	0.072
-111.049	691.104	-0.060	0.154
-110.034	280.059	-0.189	0.330
-109.020	-3.655	-0.165	-0.112
-108.005	-200.000	0.082	-0.392
-106.991	-25.914	-0.020	-0.012
-105.976	-200.000	0.026	0.238
-104.962	586.082	0.115	0.276
-103.947	800.000	0.091	-0.319
-102.932	92.608	-0.270	-0.298
-101.918	-200.000	0.029	0.182
-100.903	-200.000	0.012	-0.111
-99.889	-200.000	0.043	-0.189
-98.874	-200.000	0.002	-0.020
-97.859	-149.679	0.231	-0.018
-96.845	800.000	-0.074	0.212
-95.830	12.995	0.269	0.204
-94.816	57.026	0.060	0.057
-93.801	-128.148	0.388	-0.054
-92.786	713.517	-0.040	-0.103
-91.772	-160.397	0.192	0.010
-90.757	-200.000	-0.018	-0.300
-89.743	-200.000	0.013	-0.089
-88.728	-45.047	-0.124	-0.060
-87.713	4.273	0.234	-0.168
-86.699	-41.500	-0.240	-0.121
-85.684	800.000	0.019	0.062
-84.670	-200.000	0.003	-0.302
-83.655	331.021	0.042	0.079
-82.640	800.000	0.120	0.427
-81.626	-79.315	0.180	0.060
-80.611	-149.434	0.197	0.015
-79.597	373.118	0.121	-0.241
-78.582	63.667	-0.177	-0.174
-77.567	207.008	0.167	-0.255
-76.553	-200.000	-0.036	0.218
-75.538	-137.957	0.059	-0.006
-74.524	42.758	0.200	0.177
-73.509	-200.000	-0.002	0.197
-72.494	-79.559	0.343	0.113
-71.480	-200.000	-0.051	0.331
-70.465	-200.000	0.021	0.157
-69.451	599.100	0.147	0.357
-68.436	-200.000	0.036	0.181
-67.422	-200.000	-0.004	-0.063
-66.407	106.023	0.153	0.177
-65.392	124.903	0.219	0.269
-64.378	381.851	0.181	-0.363
-63.363	-64.787	-0.080	0.032
-62.349	-37.645	0.073	0.038
-61.334	79.611	-1.136	-1.189
-60.319	27.465	0.894	0.734
-59.305	-200.000	-0.167	-1.364
-58.290	178.739	0.978	1.394
-57.276	800.000	0.563	1.628
-56.261	-200.000	136.684	624.265
-55.246	327.989	1657.126	3101.758
-54.232	134.423	2796.222	3536.297
-53.217	81.975	2167.930	2290.416
-52.203	30.217	1598.196	1330.293
-51.188	22.496	1349.130	1075.971
-50.173	20.477	1314.053	1035.936
-49.159	46.808	1389.855	1259.130
-48.144	42.671	1398.337	1241.290
-47.130	22.595	1345.757	1073.714
-46.115	19.532	1326.695	1040.044
-45.100	19.354	1321.619	1034.953
-44.086	19.283	1319.325	1032.693
-43.071	19.297	1317.047	1030.950
-42.057	19.305	1314.815	1029.210
-41.042	19.425	1313.024	1028.483
-40.027	19.354	1311.498	1026.821
-39.013	19.367	1309.799	1025.533
-37.998	19.339	1307.555	1023.567
-36.984	19.433	1306.166	1022.996
-35.969	19.408	1304.970	1021.873
-34.954	19.408	1302.798	1020.130
-33.940	19.332	1302.025	1019.035
-32.925	19.611	1299.883	1018.961
-31.911	19.496	1298.512	1017.171
-30.896	19.524	1297.436	1016.453
-29.881	19.680	1295.746	1016.005
-28.867	19.549	1294.379	1014.122
-27.852	19.530	1293.089	1012.962
-26.838	19.653	1291.078	1012.065
-25.823	19.401	1290.899	1010.411
-24.809	19.523	1289.047	1009.633
-23.794	19.457	1287.723	1008.169
-22.779	19.476	1286.373	1007.186
-21.765	19.459	1285.260	1006.174
-20.750	19.578	1283.806	1005.691
-19.736	19.382	1282.538	1003.516
-18.721	19.413	1281.028	1002.473
-17.706	19.454	1280.000	1001.868
-16.692	19.372	1279.297	1000.801
-15.677	19.432	1277.417	999.643
-14.663	19.361	1276.939	998.818
-13.648	19.298	1275.788	997.511
-12.633	19.453	1274.513	997.371
-11.619	19.343	1274.044	996.326
-10.604	19.436	1273.098	996.085
-9.590	19.378	1272.190	995.004
-8.575	19.439	1271.275	994.599
-7.560	19.245	1270.522	992.852
-6.546	19.408	1269.097	992.637
-5.531	19.440	1268.103	992.004
-4.517	19.332	1267.490	990.864
-3.502	19.387	1267.120	990.853
-2.487	19.372	1265.857	989.736
-1.473	19.384	1261.685	986.503
-0.458	17.939	1246.868	966.709
0.556	13.851	1232.230	932.877
1.571	10.583	1240.500	920.538
2.586	10.022	1255.865	928.633
3.600	10.252	1243.284	920.561
4.615	7.760	1171.032	853.622
5.629	2.859	1102.452	778.746
6.644	0.672	1086.583	756.527
7.659	0.437	1085.356	754.429
8.673	0.509	1084.221	753.936
9.688	0.593	1082.515	753.099
10.702	0.495	1080.649	751.249
11.717	3.605	1083.206	768.460
12.731	9.722	1091.559	804.927
13.746	15.093	1098.323	836.755
14.761	17.068	1100.412	848.150
15.775	16.365	1099.203	843.631
16.790	15.310	1097.708	837.146
17.804	14.589	1095.972	832.156
18.819	14.375	1093.868	829.419
19.834	14.216	1093.245	828.082
20.848	13.966	1092.448	826.161
21.863	13.712	1091.573	824.165
22.877	13.555	1091.175	823.012
23.892	13.585	1090.046	822.235
24.907	13.452	1089.445	821.048
25.921	13.579	1088.661	821.017
26.936	13.595	1087.767	820.346
27.950	13.510	1087.297	819.502
28.965	13.613	1085.367	818.483
29.980	13.649	1084.557	817.975
30.994	13.707	1083.053	817.056
32.009	13.737	1082.318	816.577
33.023	13.781	1081.153	815.844
34.038	13.680	1080.151	814.518
35.053	13.661	1079.903	814.167
36.067	13.685	1078.908	813.463
37.082	13.691	1077.404	812.286
38.096	13.765	1076.919	812.210
39.111	13.561	1076.407	810.755
40.126	13.507	1075.511	809.739
41.140	13.567	1073.907	808.753
42.155	13.539	1072.766	807.689
43.169	13.488	1071.973	806.770
44.184	13.551	1070.597	805.973
45.199	13.550	1069.805	805.298
46.213	13.483	1068.531	803.942
47.228	13.659	1067.373	803.852
48.242	13.594	1066.820	803.050
49.257	13.674	1065.254	802.187
50.271	13.564	1064.583	801.081
51.286	13.634	1063.127	800.254
52.301	13.555	1062.341	799.210
53.315	13.586	1061.290	798.496
54.330	13.479	1060.617	797.402
55.344	13.609	1059.499	797.117
56.359	13.581	1059.034	796.563
57.374	13.623	1057.615	795.626
58.388	13.467	1057.413	794.655
59.403	13.515	1056.320	793.994
60.417	13.448	1055.590	793.054
61.432	13.546	1054.468	792.609
62.447	13.458	1053.856	791.660
63.461	13.323	1053.391	790.593
64.476	13.515	1052.006	790.401
65.490	13.565	1051.142	789.923
66.505	13.487	1050.362	788.893
67.520	13.491	1049.656	788.313
68.534	13.459	1049.350	787.860
69.549	13.522	1048.224	787.246
70.563	13.518	1047.716	786.777
71.578	13.436	1046.524	785.422
72.593	13.503	1045.540	784.929
73.607	13.542	1045.204	784.792
74.622	13.444	1044.359	783.628
75.636	13.474	1043.889	783.346
76.651	13.469	1042.775	782.415
77.666	13.368	1042.657	781.783
78.680	13.351	1041.989	781.130
79.695	13.453	1041.323	781.046
80.709	13.607	1040.317	780.946
81.724	13.574	1039.846	780.370
82.739	13.588	1038.879	779.640
83.753	13.658	1038.218	779.405
84.768	13.768	1036.375	778.467
85.782	13.598	1036.361	777.591
86.797	13.651	1035.398	777.049
87.812	13.585	1034.573	776.052
88.826	13.643	1033.866	775.724
89.841	13.556	1032.636	774.324
90.855	13.719	1031.386	774.082
91.870	13.611	1030.818	773.079
92.884	13.847	1029.418	773.062
93.899	13.799	1028.808	772.311
94.914	13.747	1028.123	771.488
95.928	13.754	1027.114	770.696
96.943	13.633	1026.599	769.680
97.957	13.585	1025.705	768.718
98.972	13.806	1024.481	768.757
99.987	13.665	1023.670	767.427
101.001	13.826	1022.534	767.253
102.016	13.630	1021.851	765.767
103.030	13.676	1021.190	765.418
104.045	13.685	1020.205	764.650
105.060	13.732	1019.307	764.127
106.074	13.686	1018.583	763.307
107.089	13.618	1017.596	762.184
108.103	13.556	1017.115	761.474
109.118	13.528	1015.706	760.222
110.133	13.552	1015.116	759.824
111.147	13.535	1014.305	759.070
112.162	13.533	1013.133	758.117
113.176	13.689	1012.360	758.186
114.191	13.657	1011.466	757.303
115.206	13.612	1010.684	756.444
116.220	13.630	1009.680	755.706
117.235	13.580	1008.714	754.690
118.249	13.718	1007.981	754.704
119.264	13.636	1007.103	753.607
120.279	13.593	1006.311	752.750
121.293	13.493	1005.643	751.732
122.308	13.655	1004.308	751.401
123.322	13.642	1003.235	750.475
124.337	13.660	1001.749	749.378
125.352	13.648	1000.831	748.568
126.366	13.575	1000.331	747.799
127.381	13.474	999.158	746.401
128.395	13.598	998.783	746.614
129.410	13.597	997.260	745.404
130.424	13.666	996.275	744.912
131.439	13.620	995.742	744.242
132.454	13.538	995.235	743.430
133.468	13.718	993.958	743.217
134.483	13.612	993.352	742.223
135.497	13.711	992.040	741.619
136.512	13.696	991.051	740.747
137.527	13.618	990.603	740.000
138.541	13.631	990.071	739.595
139.556	13.697	989.210	739.180
140.570	13.772	988.329	738.788
141.585	13.857	987.626	738.575
142.600	13.815	986.640	737.589
143.614	13.951	985.613	737.357
144.629	13.931	985.545	737.152
145.643	13.808	984.420	735.702
146.658	13.861	983.489	735.173
147.673	13.730	982.472	733.772
148.687	13.853	981.775	733.729
149.702	13.834	980.509	732.634
150.716	13.898	979.778	732.305
151.731	13.860	979.087	731.554
152.746	13.924	978.332	731.209
153.760	13.879	977.757	730.516
154.775	13.926	977.070	730.146
155.789	13.823	976.774	729.408
156.804	14.013	975.903	729.525
157.819	13.969	975.273	728.799
158.833	14.041	974.699	728.621
159.848	14.030	973.534	727.634
160.862	13.981	972.784	726.797
161.877	13.929	971.614	725.634
162.892	14.085	970.480	725.401
163.906	13.974	969.751	724.309
164.921	13.969	968.906	723.590
165.935	13.848	968.067	722.376
166.950	14.003	966.865	722.085
167.964	13.940	966.401	721.403
168.979	13.976	965.725	720.989
169.994	14.100	964.495	720.544
171.008	14.000	963.934	719.631
172.023	14.067	962.988	719.148
173.037	14.209	961.884	718.878
174.052	14.128	961.401	718.100
175.067	14.097	960.820	717.470
176.081	14.090	960.354	717.030
177.096	14.015	959.808	716.232
178.110	14.140	959.063	716.155
179.125	13.961	958.463	714.870
180.140	14.250	958.081	715.766
181.154	14.142	957.560	714.851
182.169	14.233	957.040	714.790
183.183	14.249	956.582	714.452
184.198	14.228	955.499	713.490
185.213	14.296	954.738	713.151
186.227	14.235	954.166	712.399
187.242	14.266	953.286	711.810
188.256	14.210	953.252	711.481
189.271	14.221	951.972	710.513
190.286	14.305	951.544	710.487
191.300	14.148	950.498	708.976
192.315	14.096	950.245	708.500
193.329	14.082	949.663	707.947
194.344	14.187	948.709	707.620
195.359	14.191	948.148	707.153
196.373	14.338	947.593	707.304
197.388	14.334	947.368	707.054
198.402	14.487	946.463	706.966
199.417	14.380	945.928	706.049
200.432	14.333	945.535	705.495
201.446	14.478	944.873	705.551
202.461	14.593	944.253	705.513
203.475	14.614	943.810	705.209
204.490	14.493	942.565	703.707
205.504	14.407	942.087	702.924
206.519	14.625	941.074	703.024
207.534	14.529	940.491	702.122
208.548	14.523	939.737	701.471
209.563	14.472	939.394	700.938
210.577	14.568	938.745	700.797
211.592	14.665	937.787	700.424
212.607	14.800	936.594	700.039
213.621	14.642	936.231	699.045
214.636	14.754	935.516	698.914
215.650	14.731	934.649	698.110
216.665	14.720	934.026	697.537
217.680	14.637	933.581	696.798
218.694	14.719	932.686	696.410
219.709	14.593	932.203	695.462
220.723	14.742	931.484	695.485
221.738	14.700	930.674	694.642
222.753	14.713	930.049	694.170
223.767	14.871	929.284	694.191
224.782	14.754	928.980	693.418
225.796	14.827	928.120	693.017
226.811	14.916	927.412	692.795
227.826	14.794	927.164	692.046
228.840	14.774	926.060	691.076
229.855	14.858	925.060	690.616
230.869	14.870	924.513	690.196
231.884	14.794	923.841	689.320
232.899	14.997	923.138	689.572
233.913	14.782	922.666	688.273
234.928	14.801	922.080	687.853
235.942	14.814	921.558	687.454
236.957	14.981	920.663	687.415
237.972	14.862	919.900	686.296
238.986	14.869	919.770	686.165
240.001	14.789	919.360	685.471
241.015	14.998	918.142	685.357
242.030	15.006	917.715	685.010
243.045	14.933	916.943	684.074
244.059	14.987	916.161	683.655
245.074	14.961	915.482	682.981
246.088	15.023	914.923	682.757
247.103	15.151	914.223	682.696
248.117	15.043	913.848	681.915
249.132	15.244	913.400	682.337
250.147	15.087	912.916	681.278
251.161	15.106	911.970	680.589
252.176	15.242	911.679	680.864
253.190	15.364	910.531	680.440
254.205	15.350	909.706	679.708
255.220	15.368	909.291	679.408
256.234	15.337	908.576	678.688
257.249	15.338	908.158	678.322
258.263	15.366	907.076	677.566
259.278	15.461	906.619	677.548
260.293	15.446	906.041	676.998
261.307	15.450	905.417	676.486
262.322	15.468	904.792	676.033
263.336	15.574	903.972	675.785
264.351	15.537	903.143	674.958
265.366	15.590	902.471	674.607
266.380	15.611	901.718	674.072
267.395	15.429	901.702	673.267
268.409	15.521	900.653	672.795
269.424	15.598	899.738	672.360
270.439	15.591	899.202	671.872
271.453	15.648	898.226	671.309
272.468	15.536	898.209	670.790
273.482	15.512	897.821	670.345
274.497	15.700	896.792	670.267
275.512	15.552	896.359	669.295
276.526	15.535	895.944	668.858
277.541	15.756	895.181	669.111
278.555	15.789	894.369	668.574
279.570	15.775	893.657	667.926
280.585	15.761	892.962	667.291
281.599	15.673	892.585	666.605
282.614	15.666	892.071	666.135
283.628	15.632	891.425	665.456
284.643	15.661	890.778	665.031
285.657	15.787	890.016	664.898
286.672	15.902	889.058	664.581
287.687	15.781	888.350	663.515
288.701	15.796	887.911	663.185
289.716	15.881	887.536	663.184
290.730	15.742	886.988	662.169
291.745	15.933	886.161	662.244
292.760	16.073	885.335	662.115
293.774	15.999	884.574	661.197
294.789	15.933	884.207	660.608
295.803	15.930	883.683	660.147
296.818	16.006	882.552	659.539
297.833	15.934	882.328	659.033
298.847	16.123	881.236	658.898
299.862	16.060	881.210	658.574
300.876	16.010	880.218	657.577
301.891	16.065	879.616	657.286
302.906	15.979	879.419	656.742
303.920	16.077	878.714	656.541
304.935	16.148	878.226	656.396
305.949	16.167	877.520	655.880
306.964	16.161	876.752	655.226
307.979	16.253	875.980	654.951
308.993	16.348	875.450	654.865
310.008	16.339	874.887	654.348
311.022	16.176	874.601	653.447
312.037	16.257	873.889	653.171
313.052	16.271	873.048	652.537
314.066	16.144	873.035	651.980
315.081	16.277	872.228	651.833
316.095	16.270	871.527	651.225
317.110	16.293	870.971	650.841
318.125	16.345	870.343	650.511
319.139	16.374	869.863	650.210
320.154	16.349	869.421	649.723
321.168	16.330	868.780	649.116
322.183	16.269	868.645	648.720
323.197	16.302	867.873	648.215
324.212	16.446	867.270	648.261
325.227	16.355	866.710	647.434
326.241	16.401	865.942	646.982
327.256	16.418	865.120	646.375
328.270	16.408	864.779	646.025
329.285	16.451	864.032	645.572
330.300	16.423	863.530	645.034
331.314	16.349	863.387	644.588
332.329	16.371	862.665	644.075
333.343	16.560	862.205	644.394
334.358	16.550	861.595	643.845
335.373	16.596	861.515	643.902
336.387	16.537	861.321	643.477
337.402	16.581	860.852	643.233
338.416	16.565	860.685	642.991
339.431	16.683	859.879	642.781
340.446	16.642	859.606	642.367
341.460	16.667	859.594	642.393
342.475	16.719	858.948	642.050
343.489	16.794	858.304	641.797
344.504	16.705	858.061	641.222
345.519	16.746	857.215	640.688
346.533	16.678	856.990	640.204
347.548	16.728	856.284	639.811
348.562	16.808	855.231	639.269
349.577	16.752	854.826	638.701
350.592	16.811	854.098	638.323
351.606	16.827	853.825	638.119
352.621	16.943	853.094	637.954
353.635	16.779	852.304	636.692
354.650	16.895	851.434	636.420
355.665	16.762	851.529	635.936
356.679	16.817	850.558	635.362
357.694	17.017	849.800	635.486
358.708	16.805	849.306	634.266
359.723	16.936	848.651	634.212
360.738	16.960	848.003	633.762
361.752	16.996	847.382	633.377
362.767	16.991	847.000	633.015
363.781	16.999	846.823	632.857
364.796	16.966	846.486	632.426
365.810	17.039	845.802	632.131
366.825	17.017	845.545	631.803
367.840	17.029	845.064	631.430
368.854	17.112	844.082	630.951
369.869	17.141	843.826	630.812
370.883	17.186	843.109	630.384
371.898	17.255	842.753	630.318
372.913	17.294	842.279	630.052
373.927	17.306	841.981	629.818
374.942	17.281	841.498	629.308
375.956	17.232	841.249	628.885
376.971	17.288	840.529	628.501
377.986	17.391	840.143	628.536
379.000	17.436	839.622	628.258
380.015	17.397	839.156	627.709
381.029	17.280	838.801	626.957
382.044	17.350	838.158	626.676
383.059	17.415	837.331	626.243
384.073	17.427	836.580	625.671
385.088	17.526	836.185	625.683
386.102	17.408	835.694	624.826
387.117	17.346	835.497	624.396
388.132	17.482	834.332	623.970
389.146	17.489	833.878	623.602
390.161	17.494	833.628	623.375
391.175	17.455	833.034	622.734
392.190	17.499	832.374	622.347
393.205	17.414	832.307	621.931
394.219	17.469	831.935	621.798
395.234	17.485	830.889	621.021
396.248	17.380	830.906	620.595
397.263	17.510	830.342	620.592
398.278	17.494	829.753	620.040
399.292	17.449	829.811	619.864
400.307	17.597	828.697	619.513
401.321	17.615	828.304	619.231
402.336	17.624	828.003	618.985
403.350	17.506	827.663	618.248
404.365	17.598	827.289	618.248
405.380	17.604	826.642	617.733
406.394	17.629	825.894	617.207
407.409	17.726	825.546	617.245
408.423	17.877	825.185	617.465
409.438	17.854	824.669	616.942
410.453	17.685	824.708	616.304
411.467	17.859	823.952	616.316
412.482	17.853	823.651	616.014
413.496	17.877	823.174	615.690
414.511	18.070	822.413	615.760
415.526	17.825	822.688	615.030
416.540	17.700	822.238	614.189
417.555	17.857	821.561	614.192
418.569	17.924	820.952	613.922
419.584	17.958	820.530	613.677
420.599	17.939	819.865	613.056
421.613	115.582	1301.223	1492.906
422.628	100.273	1371.289	1492.948
