DTS Sentinel unit serial number:	SN413079Multiplexer serial number:	ORYXHardware model number:	OX4-SRSoftware version number:	ORYX F/W v4.00 Oryx Data Collector v3.7.2.0data status	okinstallation	princeton_trtdifferential loss correction	single-endedforward channel	channel 1reverse channel	N/Adate	2019/09/13time	03:58:35forward acquisition time	60.00reverse acquisition time	0.00gamma	496.2192k internal	0.2333k external	0.2333temperature offset calibration	1.0165default loss term (dB/km)	0.3790temperature slope calibration	1.0000multiplexer offset coefficient	1.0000multiplexer slope coefficient	1.0000fibre end	0.00T internal ref (°C)	27.05T ext. ref 1 (°C)	4.07T ext. ref 2 (°C)	21.27length (m)	temperature (°C)	Stokes	anti-Stokes-747.200	800.000	-0.039	-0.131
-746.185	529.391	-0.117	0.278
-745.171	54.454	0.100	-0.097
-744.156	-77.863	0.245	-0.085
-743.142	-31.128	0.150	0.085
-742.127	19.039	-0.191	-0.154
-741.112	-91.900	-0.186	0.053
-740.098	328.846	0.096	0.185
-739.083	-126.234	0.112	0.017
-738.069	775.903	-0.064	0.177
-737.054	226.554	0.106	-0.173
-736.039	-98.494	-0.175	0.045
-735.025	99.913	0.251	0.293
-734.010	-4.328	-0.080	-0.056
-732.996	128.313	-0.333	-0.426
-731.981	-200.000	-0.029	-0.213
-730.966	-200.000	0.033	-0.322
-729.952	370.448	0.078	-0.158
-728.937	-83.744	-0.182	-0.058
-727.923	-179.080	0.301	-0.007
-726.908	38.856	0.290	-0.260
-725.894	96.412	-0.154	-0.177
-724.879	-120.268	-0.120	-0.021
-723.864	264.192	-0.063	-0.110
-722.850	-71.940	-0.119	-0.044
-721.835	-86.046	-0.315	0.098
-720.821	29.195	0.073	-0.062
-719.806	3.178	0.188	-0.137
-718.791	-200.000	0.024	-0.194
-717.777	-13.383	-0.095	-0.062
-716.762	-60.334	0.197	0.084
-715.748	8.855	-0.316	0.239
-714.733	-200.000	0.011	-0.099
-713.718	-200.000	0.042	-0.333
-712.704	-2.555	0.064	0.045
-711.689	418.744	0.044	0.095
-710.675	148.239	0.124	0.167
-709.660	124.695	-0.113	-0.143
-708.645	-163.446	0.186	0.009
-707.631	76.745	-0.351	-0.374
-706.616	-121.535	-0.236	0.039
-705.602	-200.000	-0.014	-0.109
-704.587	536.560	0.098	-0.232
-703.572	-152.054	-0.392	-0.029
-702.558	-200.000	0.010	0.215
-701.543	-73.883	-0.291	0.106
-700.529	-3.981	0.110	0.077
-699.514	800.000	-0.094	-0.387
-698.499	800.000	0.046	-0.134
-697.485	53.025	-0.180	-0.173
-696.470	-101.001	-0.365	0.090
-695.456	5.739	-0.318	-0.236
-694.441	-110.787	0.133	-0.028
-693.426	-200.000	-0.005	0.166
-692.412	-200.000	0.038	-0.227
-691.397	-147.649	0.359	-0.030
-690.383	411.131	-0.067	-0.142
-689.368	-130.551	-0.292	0.040
-688.354	18.493	-0.056	-0.045
-687.339	-111.623	0.367	0.075
-686.324	800.000	0.084	-0.246
-685.310	-8.734	0.006	0.004
-684.295	-132.733	0.140	-0.018
-683.281	76.941	-0.153	0.163
-682.266	-98.082	0.102	0.026
-681.251	46.495	-0.131	0.121
-680.237	75.174	-0.162	-0.171
-679.222	295.789	0.106	-0.194
-678.208	-57.931	0.245	0.107
-677.193	-82.982	-0.184	0.060
-676.178	149.454	0.179	-0.243
-675.164	-57.257	-0.316	-0.139
-674.149	295.248	0.146	-0.267
-673.135	389.868	-0.103	0.215
-672.120	-200.000	-0.059	-0.307
-671.105	733.492	0.064	0.171
-670.091	-200.000	-0.020	-0.114
-669.076	175.995	-0.196	-0.285
-668.062	-1.060	0.096	-0.068
-667.047	443.674	0.079	0.175
-666.032	325.333	0.018	-0.035
-665.018	434.351	0.060	-0.131
-664.003	-91.022	-0.374	0.108
-662.989	111.801	-0.168	-0.203
-661.974	-156.892	0.194	-0.012
-660.959	284.531	-0.158	-0.284
-659.945	-120.232	0.155	0.027
-658.930	-94.106	-0.713	-0.196
-657.916	-192.963	-0.143	0.001
-656.901	-64.098	0.045	0.018
-655.886	-76.468	-0.150	0.053
-654.872	-200.000	0.013	0.162
-653.857	4.735	0.221	0.162
-652.843	273.410	-0.079	0.139
-651.828	134.305	0.037	0.049
-650.814	102.797	-0.081	0.095
-649.799	-85.383	0.254	-0.079
-648.784	-200.000	-0.011	0.104
-647.770	-79.995	-0.340	-0.114
-646.755	8.293	0.114	-0.086
-645.741	-200.000	0.035	0.157
-644.726	-171.763	0.116	-0.004
-643.711	445.001	0.062	-0.137
-642.697	33.006	-0.039	0.034
-641.682	-75.474	-0.338	-0.120
-640.668	-200.000	0.001	-0.169
-639.653	18.682	-0.221	0.177
-638.638	800.000	0.147	0.492
-637.624	242.923	-0.030	-0.050
-636.609	152.644	-0.097	0.133
-635.595	800.000	-0.043	0.174
-634.580	282.281	0.078	-0.141
-633.565	15.159	0.102	-0.080
-632.551	-69.605	-0.310	-0.119
-631.536	-200.000	0.005	0.318
-630.522	-37.993	-0.147	-0.078
-629.507	-200.000	0.005	0.111
-628.492	29.684	0.271	-0.231
-627.478	719.227	-0.103	-0.273
-626.463	35.899	0.255	0.225
-625.449	-96.112	0.142	-0.038
-624.434	-60.103	0.089	0.038
-623.419	-61.529	0.137	0.058
-622.405	104.152	0.124	-0.146
-621.390	-200.000	-0.030	0.163
-620.376	189.187	-0.094	0.141
-619.361	276.515	-0.068	-0.120
-618.346	164.916	-0.222	0.314
-617.332	-133.582	-0.143	0.018
-616.317	61.630	0.176	-0.175
-615.303	-161.459	-0.230	0.012
-614.288	17.058	-0.545	0.432
-613.273	-41.855	-0.274	0.140
-612.259	0.361	0.093	-0.067
-611.244	323.307	-0.067	0.128
-610.230	38.860	-0.450	0.402
-609.215	-31.130	0.267	-0.151
-608.201	-40.044	0.326	0.170
-607.186	142.400	-0.050	0.066
-606.171	-57.436	0.215	0.094
-605.157	77.136	-0.308	0.327
-604.142	-55.409	0.327	0.147
-603.128	17.174	-0.088	-0.070
-602.113	110.518	-0.147	-0.177
-601.098	-23.092	-0.137	-0.082
-600.084	-179.272	0.150	0.003
-599.069	-73.370	0.350	0.128
-598.055	39.085	-0.183	-0.164
-597.040	48.230	0.202	-0.189
-596.025	-200.000	-0.007	-0.331
-595.011	-139.860	0.466	-0.049
-593.996	84.946	-0.265	-0.290
-592.982	135.637	0.160	-0.208
-591.967	-159.078	-0.114	0.006
-590.952	-200.000	0.029	-0.200
-589.938	-200.000	-0.049	-0.248
-588.923	-14.078	0.189	0.122
-587.909	-200.000	-0.054	-0.371
-586.894	-200.000	-0.033	0.161
-585.879	-110.518	0.490	-0.101
-584.865	12.215	-0.182	0.140
-583.850	110.521	0.045	0.054
-582.836	-92.634	0.275	-0.077
-581.821	-40.439	-0.201	0.104
-580.806	37.598	-0.324	-0.288
-579.792	180.083	0.057	0.084
-578.777	-200.000	0.078	0.402
-577.763	800.000	-0.016	-0.046
-576.748	800.000	0.024	0.073
-575.733	159.668	0.012	0.017
-574.719	-31.780	-0.130	-0.073
-573.704	-89.076	-0.081	0.024
-572.690	400.921	-0.132	0.276
-571.675	457.292	-0.049	-0.109
-570.661	-200.000	-0.011	-0.147
-569.646	-78.717	0.118	-0.040
-568.631	660.121	-0.046	-0.118
-567.617	11.378	-0.275	0.210
-566.602	670.324	-0.064	0.165
-565.588	597.081	-0.076	0.188
-564.573	-25.796	0.510	-0.300
-563.558	157.474	-0.075	0.104
-562.544	-32.190	0.241	0.135
-561.529	-151.827	-0.269	-0.020
-560.515	-200.000	-0.001	-0.281
-559.500	-128.867	0.045	-0.006
-558.485	-44.697	0.353	-0.176
-557.471	-24.054	-0.149	-0.089
-556.456	374.418	-0.086	-0.175
-555.442	181.873	0.151	-0.222
-554.427	467.112	0.055	0.122
-553.412	-135.141	-0.169	-0.020
-552.398	5.253	-0.268	0.197
-551.383	493.712	0.043	-0.098
-550.369	800.000	0.029	-0.110
-549.354	733.948	0.089	-0.237
-548.339	-55.565	0.180	-0.081
-547.325	20.637	-0.332	-0.268
-546.310	800.000	-0.095	-0.297
-545.296	129.586	-0.161	0.205
-544.281	-13.233	0.152	-0.099
-543.266	-92.607	-0.244	0.068
-542.252	546.809	0.045	0.106
-541.237	-200.000	0.031	0.187
-540.223	104.565	-0.074	-0.087
-539.208	232.105	0.074	0.121
-538.193	800.000	0.045	0.178
-537.179	-200.000	0.059	0.337
-536.164	-24.196	0.140	0.083
-535.150	164.683	0.065	0.091
-534.135	343.181	-0.198	-0.387
-533.121	-200.000	-0.053	-0.454
-532.106	-200.000	-0.012	0.255
-531.091	800.000	-0.034	0.095
-530.077	-140.468	0.112	-0.012
-529.062	-126.213	-0.105	0.016
-528.048	-145.933	-0.174	-0.015
-527.033	-120.888	-0.091	-0.015
-526.018	-83.111	-0.142	-0.046
-525.004	-94.841	0.332	0.090
-523.989	-135.962	-0.065	0.008
-522.975	-96.273	-0.166	0.044
-521.960	-96.419	-0.062	-0.016
-520.945	12.545	0.140	0.107
-519.931	-14.631	0.051	-0.033
-518.916	-45.801	-0.098	-0.048
-517.902	62.484	-0.136	0.136
-516.887	-200.000	-0.024	-0.248
-515.872	407.920	-0.104	0.220
-514.858	-25.872	-0.146	0.086
-513.843	9.126	0.213	0.160
-512.829	800.000	0.180	0.516
-511.814	-149.090	-0.023	-0.002
-510.799	-66.292	-0.175	-0.069
-509.785	726.807	-0.139	-0.370
-508.770	-36.611	-0.110	-0.059
-507.756	217.558	-0.198	0.314
-506.741	-200.000	0.023	-0.114
-505.726	-111.878	-0.236	-0.047
-504.712	-200.000	0.026	0.140
-503.697	-48.889	0.267	-0.127
-502.683	66.293	-0.321	-0.325
-501.668	-168.005	0.429	-0.017
-500.653	16.641	-0.121	-0.096
-499.639	31.426	0.292	0.250
-498.624	-200.000	-0.004	0.359
-497.610	-22.740	0.072	0.043
-496.595	307.758	-0.310	-0.576
-495.581	-62.822	0.099	-0.041
-494.566	-178.956	-0.249	-0.006
-493.551	-200.000	0.007	-0.074
-492.537	401.388	0.154	0.322
-491.522	84.065	-0.157	-0.171
-490.508	377.186	0.083	0.169
-489.493	-74.503	-0.209	0.075
-488.478	-200.000	-0.010	0.070
-487.464	-91.253	0.207	-0.059
-486.449	40.000	-0.061	-0.055
-485.435	-69.885	-0.330	-0.125
-484.420	-23.276	0.265	0.159
-483.405	317.567	-0.139	-0.263
-482.391	-200.000	0.005	0.151
-481.376	-102.868	0.194	-0.046
-480.362	526.101	0.058	-0.135
-479.347	-200.000	0.050	0.220
-478.332	158.032	0.065	-0.089
-477.318	-86.389	-0.068	0.021
-476.303	-200.000	-0.081	-0.495
-475.289	703.498	0.055	0.144
-474.274	376.167	0.103	0.210
-473.259	800.000	-0.059	-0.192
-472.245	-200.000	0.009	0.173
-471.230	-169.638	-0.238	0.009
-470.216	-200.000	-0.081	-0.354
-469.201	800.000	0.016	-0.048
-468.186	52.822	0.126	0.119
-467.172	-17.263	0.237	0.148
-466.157	305.563	0.081	0.149
-465.143	111.137	0.053	-0.064
-464.128	-1.728	-0.240	-0.168
-463.113	-200.000	-0.108	-0.000
-462.099	-50.345	0.254	0.119
-461.084	-132.364	-0.086	-0.011
-460.070	-89.519	-0.158	0.046
-459.055	0.322	-0.212	-0.150
-458.040	-127.441	-0.101	0.015
-457.026	114.606	-0.286	0.347
-456.011	-90.329	-0.355	0.102
-454.997	-200.000	0.062	0.310
-453.982	-78.364	0.061	0.021
-452.968	320.226	0.047	0.090
-451.953	-166.481	-0.395	0.016
-450.938	-200.000	-0.008	-0.054
-449.924	-97.789	0.250	-0.064
-448.909	800.000	-0.160	0.464
-447.895	-200.000	0.010	-0.043
-446.880	2.885	-0.241	-0.174
-445.865	-131.623	0.490	0.064
-444.851	-1.680	-0.178	-0.124
-443.836	-114.216	0.277	0.053
-442.822	-152.305	-0.015	-0.001
-441.807	513.250	-0.110	0.255
-440.792	-168.756	-0.100	-0.004
-439.778	101.122	0.144	0.167
-438.763	-82.644	0.140	-0.045
-437.749	111.808	-0.179	-0.215
-436.734	58.293	0.109	-0.106
-435.719	115.240	0.261	0.317
-434.705	-200.000	-0.013	-0.154
-433.690	262.038	0.122	0.210
-432.676	175.077	-0.080	-0.116
-431.661	48.268	-0.111	-0.103
-430.646	206.453	0.062	-0.095
-429.632	578.358	0.029	-0.070
-428.617	413.944	-0.067	0.142
-427.603	61.060	-0.218	-0.215
-426.588	-112.859	-0.173	-0.034
-425.573	-81.797	0.204	-0.067
-424.559	-200.000	-0.017	-0.220
-423.544	-105.767	-0.209	-0.047
-422.530	-111.853	-0.081	0.016
-421.515	-2.207	-0.043	-0.030
-420.500	-18.207	-0.020	-0.013
-419.486	-140.560	0.220	-0.023
-418.471	-200.000	0.005	-0.062
-417.457	-34.236	-0.175	0.096
-416.442	-132.067	-0.072	0.009
-415.428	-34.920	-0.037	-0.020
-414.413	-200.000	0.031	0.172
-413.398	-200.000	0.003	0.162
-412.384	176.619	0.092	-0.132
-411.369	346.855	-0.102	-0.200
-410.355	-200.000	0.018	0.289
-409.340	-12.226	0.331	0.215
-408.325	71.555	-0.116	0.120
-407.311	6.037	-0.212	0.156
-406.296	-35.530	0.136	0.074
-405.282	306.849	0.150	-0.278
-404.267	-42.043	0.199	0.101
-403.252	166.829	0.060	0.085
-402.238	-42.927	0.046	-0.023
-401.223	16.612	0.317	-0.249
-400.209	355.310	0.154	-0.305
-399.194	198.252	-0.149	-0.226
-398.179	480.453	0.106	0.239
-397.165	-200.000	-0.014	0.480
-396.150	1.305	-0.247	-0.176
-395.136	2.244	0.146	0.105
-394.121	-200.000	0.004	0.116
-393.106	27.832	0.082	0.068
-392.092	-200.000	0.018	-0.109
-391.077	-137.012	0.158	-0.018
-390.063	102.738	-0.109	0.127
-389.048	1.204	-0.049	-0.035
-388.033	-114.429	-0.185	-0.035
-387.019	-17.351	0.144	-0.090
-386.004	166.241	0.145	-0.203
-384.990	-200.000	-0.016	-0.198
-383.975	326.397	-0.157	-0.298
-382.960	-200.000	-0.002	-0.067
-381.946	-177.535	0.127	0.003
-380.931	171.570	0.160	-0.228
-379.917	2.038	-0.221	-0.158
-378.902	317.183	-0.072	-0.135
-377.888	147.776	-0.151	0.201
-376.873	-200.000	0.011	0.149
-375.858	-140.236	0.149	-0.015
-374.844	457.666	-0.133	0.294
-373.829	-98.957	0.265	-0.067
-372.815	745.319	-0.027	0.071
-371.800	-50.750	-0.131	0.061
-370.785	-50.752	0.405	-0.189
-369.771	567.044	-0.067	-0.162
-368.756	800.000	0.090	0.341
-367.742	127.626	0.031	0.039
-366.727	126.324	0.022	0.028
-365.712	170.597	-0.208	-0.296
-364.698	-57.881	0.262	0.113
-363.683	800.000	0.048	0.188
-362.669	800.000	-0.123	-0.453
-361.654	-46.980	0.376	0.182
-360.639	128.320	-0.282	0.356
-359.625	68.842	-0.197	-0.200
-358.610	49.381	0.018	0.017
-357.596	141.247	0.249	0.326
-356.581	-200.000	0.008	-0.228
-355.566	9.373	-0.219	0.164
-354.552	800.000	0.006	-0.026
-353.537	-102.885	-0.242	-0.057
-352.523	355.390	0.034	-0.066
-351.508	103.467	-0.139	-0.162
-350.493	-200.000	0.006	0.085
-349.479	800.000	0.057	-0.229
-348.464	800.000	0.108	-0.295
-347.450	213.868	0.068	0.107
-346.435	-45.222	0.176	-0.086
-345.420	-200.000	-0.010	-0.066
-344.406	21.381	-0.265	0.213
-343.391	-200.000	0.066	-0.322
-342.377	88.919	-0.151	-0.167
-341.362	512.947	0.047	0.108
-340.348	-200.000	-0.001	0.034
-339.333	276.480	-0.092	-0.162
-338.318	-165.525	-0.087	0.004
-337.304	19.179	0.254	-0.202
-336.289	-199.017	0.176	0.001
-335.275	-200.000	0.017	0.133
-334.260	-77.470	0.101	0.035
-333.245	800.000	-0.052	0.163
-332.231	-56.193	-0.146	0.064
-331.216	31.071	0.185	-0.157
-330.202	214.106	-0.124	-0.193
-329.187	46.482	0.262	-0.241
-328.172	-98.008	0.163	0.042
-327.158	-200.000	-0.011	0.266
-326.143	104.390	-0.333	0.388
-325.129	-200.000	0.017	0.098
-324.114	-200.000	0.017	-0.087
-323.099	-58.341	0.055	-0.024
-322.085	0.782	0.237	-0.168
-321.070	-52.937	-0.236	-0.107
-320.056	13.078	0.256	0.196
-319.041	800.000	0.128	-0.377
-318.026	-76.649	0.156	0.054
-317.012	-10.043	0.166	-0.109
-315.997	800.000	0.085	0.340
-314.983	800.000	0.007	0.020
-313.968	-200.000	-0.036	0.248
-312.953	85.425	0.040	-0.043
-311.939	640.181	-0.067	-0.169
-310.924	401.893	-0.021	-0.044
-309.910	-137.873	-0.178	0.020
-308.895	-200.000	0.031	0.138
-307.880	8.607	-0.095	-0.070
-306.866	800.000	0.082	-0.315
-305.851	-16.315	-0.249	-0.156
-304.837	35.739	-0.122	0.106
-303.822	326.437	-0.152	0.287
-302.807	793.748	0.070	0.189
-301.793	-200.000	-0.014	-0.143
-300.778	800.000	0.027	-0.114
-299.764	-200.000	-0.047	-0.280
-298.749	-93.824	-0.219	0.060
-297.735	800.000	-0.060	0.204
-296.720	375.482	0.113	0.228
-295.705	-137.582	-0.148	-0.016
-294.691	800.000	-0.015	0.062
-293.676	32.715	0.118	-0.101
-292.662	-34.974	0.016	-0.009
-291.647	-75.987	-0.205	-0.072
-290.632	-200.000	0.063	0.361
-289.618	-13.530	-0.119	-0.076
-288.603	38.521	-0.131	-0.116
-287.589	-200.000	0.020	-0.144
-286.574	-200.000	0.038	0.298
-285.559	81.575	-0.168	0.179
-284.545	265.703	0.200	0.345
-283.530	67.342	0.175	-0.177
-282.516	800.000	-0.031	-0.097
-281.501	-200.000	0.018	0.133
-280.486	145.290	-0.106	-0.140
-279.472	-16.802	-0.205	0.128
-278.457	53.524	-0.115	0.109
-277.443	404.012	0.110	-0.228
-276.428	25.218	0.390	0.320
-275.413	-103.303	0.342	-0.080
-274.399	-101.751	-0.127	0.030
-273.384	-120.765	-0.167	0.028
-272.370	85.750	-0.065	-0.071
-271.355	-200.000	-0.003	0.184
-270.340	-200.000	0.018	-0.210
-269.326	-120.509	-0.281	0.047
-268.311	800.000	0.036	0.140
-267.297	-71.614	0.114	0.042
-266.282	533.132	0.081	-0.189
-265.267	-98.216	0.211	0.053
-264.253	13.626	0.372	-0.285
-263.238	371.090	-0.098	-0.197
-262.224	-79.305	0.241	-0.080
-261.209	240.801	0.042	0.069
-260.195	800.000	0.088	0.282
-259.180	-22.352	0.278	0.166
-258.165	-200.000	0.002	0.157
-257.151	-37.965	-0.140	0.073
-256.136	800.000	-0.034	0.119
-255.122	654.274	-0.075	-0.190
-254.107	-142.376	-0.117	-0.011
-253.092	2.931	-0.031	0.022
-252.078	-10.623	-0.331	-0.216
-251.063	-1.193	0.316	0.221
-250.049	438.421	-0.035	-0.076
-249.034	-186.972	-0.170	-0.002
-248.019	-37.401	0.241	0.127
-247.005	-163.019	0.272	0.013
-245.990	380.153	-0.126	0.255
-244.976	-200.000	-0.025	-0.154
-243.961	74.275	0.102	0.105
-242.946	800.000	-0.147	0.478
-241.932	149.430	-0.147	0.197
-240.917	107.271	0.288	-0.338
-239.903	8.814	-0.179	0.133
-238.888	-92.316	0.278	0.077
-237.873	162.335	-0.147	0.204
-236.859	29.429	0.187	-0.157
-235.844	-200.000	-0.013	0.154
-234.830	125.442	-0.101	-0.125
-233.815	-200.000	-0.005	-0.071
-232.800	-103.420	-0.338	0.078
-231.786	285.157	0.119	-0.212
-230.771	-94.855	0.224	0.060
-229.757	-151.648	0.221	-0.016
-228.742	248.343	0.108	-0.181
-227.727	163.254	0.090	0.125
-226.713	-80.541	0.175	0.058
-225.698	-200.000	-0.005	-0.330
-224.684	-61.646	-0.159	-0.066
-223.669	800.000	0.034	0.117
-222.655	-25.962	0.206	0.119
-221.640	26.919	0.063	-0.052
-220.625	81.675	-0.127	-0.135
-219.611	-200.000	0.004	0.047
-218.596	-200.000	-0.008	-0.052
-217.582	246.440	-0.209	-0.346
-216.567	-110.309	-0.153	0.031
-215.552	146.196	0.222	0.294
-214.538	237.287	-0.092	0.150
-213.523	-99.975	-0.155	-0.038
-212.509	-2.307	-0.044	0.031
-211.494	-50.826	-0.205	-0.095
-210.479	-91.658	0.248	0.069
-209.465	-142.881	0.110	0.011
-208.450	-73.135	-0.148	0.054
-207.436	800.000	-0.031	-0.085
-206.421	-5.846	-0.136	-0.092
-205.406	800.000	0.060	-0.207
-204.392	91.834	-0.228	-0.253
-203.377	650.403	-0.037	-0.092
-202.363	-13.391	0.131	-0.084
-201.348	562.527	-0.105	-0.250
-200.333	301.929	0.143	-0.261
-199.319	-192.889	-0.055	-0.000
-198.304	73.953	-0.120	-0.124
-197.290	-104.114	-0.380	0.087
-196.275	63.860	0.127	0.126
-195.260	-33.934	0.644	0.349
-194.246	118.088	-0.224	0.272
-193.231	-102.222	0.119	-0.028
-192.217	-103.032	-0.315	0.073
-191.202	-200.000	-0.015	0.154
-190.187	65.712	0.062	0.062
-189.173	-90.295	0.125	-0.036
-188.158	527.016	-0.093	-0.216
-187.144	160.037	-0.030	-0.042
-186.129	704.425	0.072	-0.187
-185.114	57.274	0.121	0.117
-184.100	-162.238	-0.268	-0.013
-183.085	-200.000	0.001	0.090
-182.071	80.615	0.046	0.049
-181.056	-138.389	0.029	-0.003
-180.042	255.377	-0.017	-0.028
-179.027	-98.990	0.390	0.097
-178.012	62.581	0.183	-0.180
-176.998	-144.281	-0.322	-0.029
-175.983	-200.000	-0.038	-0.400
-174.969	800.000	-0.087	-0.245
-173.954	-184.193	0.332	0.005
-172.939	-200.000	0.000	-0.218
-171.925	-200.000	0.016	0.243
-170.910	-200.000	-0.001	-0.155
-169.896	21.023	0.307	-0.245
-168.881	800.000	0.031	0.123
-167.866	611.007	-0.079	0.193
-166.852	800.000	0.013	-0.040
-165.837	118.036	-0.091	0.110
-164.823	2.495	-0.125	0.089
-163.808	181.830	-0.088	-0.128
-162.793	464.315	0.117	0.256
-161.779	-200.000	0.019	-0.100
-160.764	-200.000	-0.015	0.135
-159.750	-73.540	0.241	-0.086
-158.735	-142.690	0.290	-0.028
-157.720	76.033	0.167	0.174
-156.706	-49.799	-0.352	-0.164
-155.691	-49.654	0.150	-0.070
-154.677	-42.357	-0.396	-0.199
-153.662	144.261	0.064	0.084
-152.647	-200.000	0.033	0.159
-151.633	800.000	0.029	-0.086
-150.618	-63.335	0.228	0.092
-149.604	-131.884	0.340	-0.044
-148.589	8.155	0.137	-0.101
-147.574	449.900	-0.097	0.210
-146.560	-100.827	0.068	-0.016
-145.545	-200.000	0.005	0.142
-144.531	-9.670	0.231	-0.151
-143.516	-91.254	0.189	-0.053
-142.502	-125.219	-0.251	-0.038
-141.487	632.937	0.069	0.172
-140.472	-58.152	0.175	0.075
-139.458	-200.000	0.005	-0.153
-138.443	-200.000	0.039	0.317
-137.429	33.396	0.320	0.273
-136.414	377.602	0.079	-0.158
-135.399	800.000	-0.088	0.306
-134.385	-200.000	-0.007	0.031
-133.370	351.575	0.016	0.031
-132.356	36.838	-0.013	0.012
-131.341	169.407	0.110	-0.154
-130.326	-91.991	-0.136	0.038
-129.312	-85.958	0.134	0.041
-128.297	293.140	0.061	-0.110
-127.283	-200.000	0.035	0.409
-126.268	-200.000	0.034	0.244
-125.253	25.087	-0.194	-0.158
-124.239	-200.000	0.016	0.213
-123.224	-200.000	0.019	-0.258
-122.210	288.844	0.126	-0.224
-121.195	-200.000	0.018	-0.080
-120.180	194.795	0.044	0.065
-119.166	388.291	0.011	-0.023
-118.151	-146.023	0.172	-0.015
-117.137	-14.040	0.482	0.306
-116.122	201.639	-0.130	-0.197
-115.107	-200.000	0.074	-0.417
-114.093	-200.000	0.029	-0.374
-113.078	800.000	0.048	0.135
-112.064	-81.279	0.310	-0.100
-111.049	-64.003	0.110	-0.044
-110.034	194.244	0.074	-0.109
-109.020	-45.129	0.159	-0.078
-108.005	218.206	-0.189	-0.296
-106.991	800.000	-0.033	-0.134
-105.976	-200.000	-0.042	0.197
-104.962	70.694	-0.063	-0.064
-103.947	-46.394	-0.256	-0.123
-102.932	-139.128	-0.083	0.009
-101.918	-92.040	-0.150	0.042
-100.903	16.371	0.098	0.076
-99.889	-58.672	0.075	0.032
-98.874	279.286	0.157	-0.274
-97.859	179.273	0.117	-0.168
-96.845	321.812	-0.041	0.077
-95.830	385.709	-0.048	0.097
-94.816	31.068	-0.055	-0.046
-93.801	-119.076	0.287	0.049
-92.786	310.533	0.056	0.103
-91.772	800.000	-0.080	-0.300
-90.757	800.000	0.128	0.438
-89.743	27.500	-0.130	0.107
-88.728	72.301	-0.080	-0.081
-87.713	-200.000	-0.009	0.081
-86.699	800.000	-0.081	0.225
-85.684	-22.864	0.234	-0.138
-84.670	361.922	0.098	-0.193
-83.655	-125.602	0.375	-0.056
-82.640	-200.000	-0.022	0.268
-81.626	54.553	0.131	-0.124
-80.611	-31.213	0.260	-0.144
-79.597	43.442	-0.265	-0.237
-78.582	52.956	0.235	-0.220
-77.567	71.781	0.274	-0.279
-76.553	338.192	0.030	-0.057
-75.538	-110.807	0.327	0.066
-74.524	-134.964	0.130	-0.015
-73.509	330.161	0.150	-0.282
-72.494	726.628	-0.040	-0.105
-71.480	508.813	-0.072	-0.165
-70.465	100.286	-0.159	-0.181
-69.451	-102.385	0.343	-0.081
-68.436	-190.556	-0.009	0.000
-67.422	-10.298	0.374	-0.243
-66.407	138.690	-0.109	-0.141
-65.392	72.587	0.107	0.109
-64.378	100.631	0.281	0.319
-63.363	152.185	0.263	0.351
-62.349	63.991	-0.336	0.331
-61.334	111.857	-0.934	-1.104
-60.319	17.143	0.976	0.758
-59.305	568.579	-0.416	-0.989
-58.290	800.000	0.396	1.464
-57.276	800.000	0.330	1.368
-56.261	-200.000	116.729	662.095
-55.246	527.055	1532.820	3535.928
-54.232	176.905	2700.292	3844.823
-53.217	108.043	2150.776	2509.232
-52.203	38.578	1591.701	1389.343
-51.188	30.311	1337.421	1117.805
-50.173	27.545	1299.205	1069.608
-49.159	55.389	1357.233	1285.065
-48.144	53.025	1371.123	1284.031
-47.130	30.578	1326.019	1109.690
-46.115	27.091	1308.265	1074.214
-45.100	26.957	1303.265	1069.279
-44.086	26.938	1300.356	1066.738
-43.071	26.870	1298.275	1064.587
-42.057	26.845	1296.055	1062.580
-41.042	26.685	1295.284	1060.969
-40.027	27.079	1292.358	1060.833
-39.013	26.919	1290.646	1058.451
-37.998	27.014	1288.884	1057.517
-36.984	26.982	1287.735	1056.347
-35.969	27.017	1285.547	1054.713
-34.954	27.055	1283.701	1053.378
-33.940	27.182	1282.402	1053.002
-32.925	27.152	1281.357	1051.931
-31.911	27.073	1280.337	1050.593
-30.896	27.085	1278.969	1049.498
-29.881	27.145	1277.493	1048.591
-28.867	27.179	1275.883	1047.424
-27.852	27.171	1274.417	1046.136
-26.838	27.109	1273.187	1044.725
-25.823	27.211	1271.397	1043.801
-24.809	27.220	1270.151	1042.787
-23.794	27.049	1269.321	1041.088
-22.779	27.147	1267.432	1040.057
-21.765	27.093	1266.467	1038.916
-20.750	27.069	1265.480	1037.927
-19.736	27.118	1263.867	1036.844
-18.721	27.100	1262.777	1035.803
-17.706	27.037	1261.725	1034.545
-16.692	27.023	1260.394	1033.328
-15.677	27.044	1259.397	1032.593
-14.663	26.858	1258.551	1030.798
-13.648	27.051	1257.023	1030.601
-12.633	27.002	1256.442	1029.804
-11.619	26.956	1255.526	1028.751
-10.604	27.011	1254.378	1028.083
-9.590	26.905	1253.895	1027.045
-8.575	26.945	1252.816	1026.351
-7.560	27.007	1251.579	1025.645
-6.546	26.876	1251.255	1024.597
-5.531	27.009	1250.012	1024.289
-4.517	27.017	1249.094	1023.541
-3.502	26.883	1248.891	1022.582
-2.487	26.957	1247.385	1021.726
-1.473	26.990	1242.944	1018.230
-0.458	25.280	1228.153	996.586
0.556	23.372	1211.421	958.229
1.571	19.564	1215.810	940.906
2.586	18.641	1229.969	946.689
3.600	18.448	1218.499	936.722
4.615	14.317	1147.750	860.942
5.629	7.297	1076.966	773.614
6.644	4.291	1058.664	745.962
7.659	4.085	1056.390	743.309
8.673	3.938	1055.023	741.573
9.688	3.967	1053.769	740.766
10.702	4.242	1051.370	740.327
11.717	8.884	1057.654	766.939
12.731	16.740	1068.716	812.732
13.746	21.442	1074.943	840.036
14.761	22.555	1075.861	846.028
15.775	21.842	1074.053	841.110
16.790	20.900	1072.197	835.072
17.804	20.393	1070.688	831.396
18.819	20.111	1069.616	829.141
19.834	20.105	1068.937	828.512
20.848	20.009	1068.658	827.764
21.863	19.815	1067.884	826.165
22.877	19.803	1066.873	825.251
23.892	19.595	1066.679	824.038
24.907	19.650	1065.572	823.370
25.921	19.648	1064.683	822.603
26.936	19.691	1063.160	821.559
27.950	19.635	1062.077	820.380
28.965	19.531	1061.081	819.048
29.980	19.869	1059.133	819.072
30.994	20.067	1058.398	819.365
32.009	19.998	1057.187	818.033
33.023	19.969	1056.407	817.217
34.038	19.799	1055.112	815.344
35.053	19.685	1054.444	814.214
36.067	19.564	1053.866	813.130
37.082	19.689	1052.785	812.809
38.096	19.880	1051.949	812.989
39.111	19.887	1051.753	812.801
40.126	19.773	1049.453	810.415
41.140	19.355	1048.353	807.540
42.155	19.188	1047.325	805.892
43.169	19.117	1046.522	804.870
44.184	19.085	1045.431	803.814
45.199	19.167	1044.469	803.382
46.213	19.414	1043.422	803.660
47.228	19.624	1042.968	804.215
48.242	19.656	1042.096	803.622
49.257	19.808	1040.927	803.354
50.271	19.881	1040.364	803.186
51.286	19.844	1039.790	802.502
52.301	19.768	1038.700	801.236
53.315	19.612	1037.361	799.413
54.330	19.546	1036.278	798.202
55.344	19.457	1035.455	797.088
56.359	19.399	1034.960	796.365
57.374	19.231	1034.125	794.876
58.388	19.261	1032.632	793.800
59.403	19.059	1031.913	792.246
60.417	19.036	1031.253	791.562
61.432	19.061	1030.656	791.151
62.447	19.167	1029.427	790.621
63.461	18.965	1028.687	789.057
64.476	18.918	1027.644	787.972
65.490	18.935	1027.037	787.516
66.505	19.114	1026.493	787.847
67.520	19.072	1025.843	787.086
68.534	19.061	1024.662	786.062
69.549	18.865	1024.247	784.779
70.563	18.826	1023.476	783.942
71.578	18.681	1022.179	782.217
72.593	18.523	1021.653	781.024
73.607	18.619	1020.873	780.797
74.622	18.728	1020.513	780.947
75.636	18.714	1019.807	780.273
76.651	18.727	1019.364	779.927
77.666	18.761	1019.086	779.797
78.680	18.753	1018.048	778.901
79.695	18.885	1017.598	779.084
80.709	19.108	1016.991	779.563
81.724	19.187	1016.312	779.329
82.739	19.328	1015.426	779.220
83.753	19.689	1014.619	780.162
84.768	20.022	1014.307	781.355
85.782	20.205	1013.477	781.469
86.797	20.112	1012.740	780.413
87.812	19.859	1011.564	778.301
88.826	19.921	1010.524	777.709
89.841	19.877	1010.225	777.213
90.855	20.063	1009.096	777.108
91.870	20.132	1008.085	776.570
92.884	20.068	1007.262	775.582
93.899	20.052	1006.468	774.830
94.914	20.080	1005.698	774.297
95.928	19.994	1004.705	773.080
96.943	19.964	1003.678	772.086
97.957	19.813	1002.893	770.741
98.972	19.967	1001.889	770.588
99.987	20.029	1001.011	770.118
101.001	19.920	1000.131	768.889
102.016	19.942	999.363	768.329
103.030	19.857	998.675	767.357
104.045	19.963	997.924	767.181
105.060	19.721	996.861	765.221
106.074	19.504	995.514	763.164
107.089	19.109	994.470	760.551
108.103	19.175	993.378	759.937
109.118	18.973	992.584	758.373
110.133	18.941	991.184	757.095
111.147	18.975	990.416	756.592
112.162	19.078	989.799	756.507
113.176	19.227	989.115	756.570
114.191	19.256	988.507	756.168
115.206	19.359	987.623	755.872
116.220	19.085	987.215	754.296
117.235	19.079	985.887	753.187
118.249	19.265	984.866	753.151
119.264	19.160	984.131	752.066
120.279	18.955	983.368	750.523
121.293	18.900	982.483	749.538
122.308	18.653	981.779	747.858
123.322	18.685	980.819	747.203
124.337	18.596	979.720	745.910
125.352	18.658	978.793	745.409
126.366	18.723	977.526	744.659
127.381	18.749	976.679	744.060
128.395	18.758	976.126	743.612
129.410	18.889	975.002	743.257
130.424	19.015	974.816	743.597
131.439	19.133	973.902	743.343
132.454	19.075	973.212	742.499
133.468	19.227	972.057	742.206
134.483	19.218	971.570	741.733
135.497	19.242	970.872	741.235
136.512	19.260	969.815	740.439
137.527	19.225	969.246	739.791
138.541	19.199	968.774	739.253
139.556	19.332	967.729	738.962
140.570	19.506	967.837	739.723
141.585	19.698	966.837	739.716
142.600	19.892	965.742	739.640
143.614	19.915	965.142	739.216
144.629	19.947	964.421	738.735
145.643	19.992	962.726	737.560
146.658	19.720	961.464	735.372
147.673	19.471	960.714	733.673
148.687	19.370	959.988	732.628
149.702	19.317	958.960	731.551
150.716	19.421	957.808	731.050
151.731	19.269	957.404	730.033
152.746	19.307	956.806	729.675
153.760	19.452	956.180	729.744
154.775	19.626	955.262	729.716
155.789	19.724	954.968	729.837
156.804	19.570	954.254	728.578
157.819	19.728	953.551	728.642
158.833	19.900	953.158	729.003
159.848	20.077	952.383	729.090
160.862	19.885	951.255	727.358
161.877	19.544	949.444	724.478
162.892	19.287	948.857	722.885
163.906	19.190	947.797	721.608
164.921	19.326	946.757	721.323
165.935	19.406	946.203	721.171
166.950	19.519	945.363	720.940
167.964	19.487	944.643	720.191
168.979	19.354	943.245	718.511
169.994	19.257	942.640	717.580
171.008	19.547	942.229	718.411
172.023	19.812	941.827	719.144
173.037	19.940	940.645	718.707
174.052	19.828	939.355	717.194
175.067	19.343	939.388	715.145
176.081	19.182	938.285	713.573
177.096	19.407	937.414	713.781
178.110	19.229	937.276	712.875
179.125	19.248	936.863	712.576
180.140	19.501	936.088	712.970
181.154	19.757	935.525	713.535
182.169	19.712	935.715	713.431
183.183	19.873	935.070	713.539
184.198	19.830	934.016	712.495
185.213	19.883	933.208	712.036
186.227	19.919	932.698	711.730
187.242	20.058	932.529	712.109
188.256	20.071	932.006	711.699
189.271	20.269	930.935	711.634
190.286	19.858	930.358	709.443
191.300	19.161	928.975	705.473
192.315	19.176	928.217	704.894
193.329	19.263	927.832	704.894
194.344	19.372	927.507	705.031
195.359	19.537	926.864	705.154
196.373	19.556	926.485	704.882
197.388	19.815	926.363	705.783
198.402	20.095	925.747	706.392
199.417	20.287	925.142	706.650
200.432	20.444	924.697	706.889
201.446	20.589	924.109	706.965
202.461	20.513	923.909	706.439
203.475	20.360	923.053	705.101
204.490	20.047	922.000	702.964
205.504	19.968	921.119	701.913
206.519	19.837	920.322	700.713
207.534	19.883	919.994	700.587
208.548	19.978	919.207	700.308
209.563	19.914	918.533	699.473
210.577	19.986	918.269	699.504
211.592	20.330	917.444	700.199
212.607	20.414	916.937	700.090
213.621	20.144	916.231	698.400
214.636	20.237	915.428	698.103
215.650	20.305	914.612	697.692
216.665	20.391	914.585	697.954
217.680	20.376	913.807	697.240
218.694	20.579	912.794	697.220
219.709	20.379	912.366	696.028
220.723	20.332	911.790	695.339
221.738	20.207	911.000	694.176
222.753	20.287	910.405	693.979
223.767	20.379	909.578	693.655
224.782	20.614	909.444	694.429
225.796	20.547	908.665	693.509
226.811	20.324	908.250	692.238
227.826	20.179	907.309	690.885
228.840	20.133	906.296	689.866
229.855	20.110	905.478	689.091
230.869	20.168	904.528	688.539
231.884	20.113	904.094	687.929
232.899	19.990	903.643	687.036
233.913	19.981	902.489	686.062
234.928	19.794	901.938	684.844
235.942	19.773	901.579	684.427
236.957	19.851	900.858	684.126
237.972	19.825	900.482	683.679
238.986	19.891	899.817	683.376
240.001	19.741	899.220	682.270
241.015	19.985	899.105	683.084
242.030	20.137	898.233	682.959
243.045	20.207	897.470	682.596
244.059	20.200	897.090	682.217
245.074	20.361	896.433	682.290
246.088	20.428	895.919	682.103
247.103	20.421	895.509	681.702
248.117	20.758	895.448	682.917
249.132	21.039	895.306	683.850
250.147	21.455	894.216	684.584
251.161	21.361	893.812	683.847
252.176	21.341	893.262	683.290
253.190	21.466	892.808	683.369
254.205	21.338	892.536	682.601
255.220	21.303	891.498	681.608
256.234	21.277	890.850	680.955
257.249	21.265	889.920	680.136
258.263	21.301	888.942	679.466
259.278	21.210	889.012	679.107
260.293	21.355	888.264	679.038
261.307	21.412	887.718	678.783
262.322	21.447	887.197	678.462
263.336	21.416	886.208	677.525
264.351	21.312	885.595	676.592
265.366	21.437	885.200	676.717
266.380	21.321	884.298	675.518
267.395	21.261	883.678	674.753
268.409	21.041	882.795	673.168
269.424	21.275	881.908	673.335
270.439	20.999	881.319	671.765
271.453	20.962	880.438	670.888
272.468	21.053	880.047	670.880
273.482	21.013	879.449	670.211
274.497	21.035	878.883	669.807
275.512	21.152	878.458	669.874
276.526	21.027	877.686	668.745
277.541	21.217	877.354	669.162
278.555	21.408	877.355	669.835
279.570	21.632	876.172	669.730
280.585	21.596	875.282	668.851
281.599	21.303	874.306	666.929
282.614	21.096	873.916	665.781
283.628	21.193	873.222	665.566
284.643	21.031	872.972	664.697
285.657	21.182	872.040	664.505
286.672	21.120	871.408	663.729
287.687	21.132	870.684	663.164
288.701	21.082	870.594	662.846
289.716	21.203	869.687	662.555
290.730	21.232	869.545	662.500
291.745	21.398	868.891	662.572
292.760	21.390	868.376	662.089
293.774	21.715	867.586	662.659
294.789	21.558	866.676	661.311
295.803	21.265	866.025	659.650
296.818	21.256	865.115	658.864
297.833	21.376	864.506	658.793
298.847	21.298	864.066	658.109
299.862	21.286	863.948	657.913
300.876	21.511	863.497	658.360
301.891	21.677	862.819	658.408
302.906	21.867	862.625	658.917
303.920	21.996	862.160	658.985
304.935	21.999	861.587	658.500
305.949	21.685	860.982	656.803
306.964	21.657	859.943	655.848
307.979	21.595	859.329	655.089
308.993	21.837	859.154	655.802
310.008	21.874	858.346	655.265
311.022	21.601	857.840	653.802
312.037	21.589	856.705	652.836
313.052	21.232	856.418	651.229
314.066	21.055	855.766	650.014
315.081	21.169	855.244	649.987
316.095	21.256	854.417	649.622
317.110	21.132	853.993	648.784
318.125	21.207	853.331	648.499
319.139	21.068	853.295	647.901
320.154	21.263	852.628	648.059
321.168	21.438	851.930	648.121
322.183	21.342	851.563	647.430
323.197	21.381	850.937	647.039
324.212	21.414	850.560	646.818
325.227	21.333	850.020	646.050
326.241	21.220	849.064	644.849
327.256	21.343	848.474	644.799
328.270	21.149	848.110	643.750
329.285	21.254	847.176	643.369
330.300	21.253	846.835	643.049
331.314	21.297	846.640	643.008
332.329	21.572	846.209	643.634
333.343	21.514	846.243	643.390
334.358	21.801	845.226	643.613
335.373	21.741	845.155	643.281
336.387	21.628	844.971	642.670
337.402	21.828	844.586	643.053
338.416	22.226	844.044	644.044
339.431	22.179	843.973	643.760
340.446	22.202	843.713	643.590
341.460	22.330	843.447	643.798
342.475	22.531	842.594	643.825
343.489	22.393	842.240	642.993
344.504	22.455	842.006	642.983
345.519	22.548	841.690	643.025
346.533	22.334	840.885	641.571
347.548	22.082	839.968	639.898
348.562	21.883	839.269	638.583
349.577	21.773	838.688	637.686
350.592	21.640	838.017	636.635
351.606	21.656	837.052	635.905
352.621	21.784	836.178	635.646
353.635	21.799	835.962	635.484
354.650	21.750	835.403	634.822
355.665	22.008	834.818	635.257
356.679	22.036	834.453	635.022
357.694	22.057	833.699	634.471
358.708	22.072	832.733	633.732
359.723	21.963	832.342	632.984
360.738	21.970	831.842	632.573
361.752	22.027	831.665	632.588
362.767	22.349	830.838	633.062
363.781	22.586	830.311	633.457
364.796	22.598	830.468	633.563
365.810	22.734	829.976	633.621
366.825	22.849	829.731	633.789
367.840	22.599	829.199	632.431
368.854	22.408	828.773	631.365
369.869	22.407	827.862	630.613
370.883	22.496	827.295	630.444
371.898	22.544	827.027	630.354
372.913	22.682	827.006	630.776
373.927	22.429	826.375	629.333
374.942	22.429	826.071	629.047
375.956	22.698	825.673	629.649
376.971	22.758	825.146	629.406
377.986	22.756	824.804	629.083
379.000	23.025	823.989	629.364
380.015	22.869	823.599	628.454
381.029	22.778	823.240	627.800
382.044	23.064	822.209	627.976
383.059	23.021	821.925	627.549
384.073	22.693	821.170	625.754
385.088	22.512	820.344	624.428
386.102	22.377	819.434	623.204
387.117	22.356	819.185	622.882
388.132	22.432	818.388	622.492
389.146	22.602	817.629	622.459
390.161	22.732	817.962	623.115
391.175	22.766	817.599	622.904
392.190	22.665	816.792	621.878
393.205	22.427	816.266	620.586
394.219	22.336	815.756	619.820
395.234	22.172	815.114	618.700
396.248	22.089	814.650	618.003
397.263	22.253	813.469	617.628
398.278	22.008	813.640	616.842
399.292	22.128	813.217	616.888
400.307	22.074	813.018	616.492
401.321	22.069	812.307	615.882
402.336	22.314	811.954	616.419
403.350	22.538	811.617	616.893
404.365	22.656	811.597	617.237
405.380	23.037	811.000	618.060
406.394	22.885	810.710	617.253
407.409	23.074	810.228	617.491
408.423	23.027	810.079	617.158
409.438	23.192	809.460	617.207
410.453	23.282	809.139	617.221
411.467	23.330	808.601	616.926
412.482	23.315	808.387	616.654
413.496	23.359	808.167	616.584
414.511	23.420	807.605	616.313
415.526	23.184	807.387	615.272
416.540	23.222	806.298	614.522
417.555	23.143	806.077	614.025
418.569	23.156	805.514	613.587
419.584	23.202	805.343	613.561
420.599	23.223	804.603	613.014
421.613	165.427	1372.282	1799.131
422.628	143.906	1454.977	1799.205
