DTS Sentinel unit serial number:	SN413079Multiplexer serial number:	ORYXHardware model number:	OX4-SRSoftware version number:	ORYX F/W v4.00 Oryx Data Collector v3.7.2.0data status	okinstallation	princeton_trtdifferential loss correction	single-endedforward channel	channel 1reverse channel	N/Adate	2019/09/17time	13:50:35forward acquisition time	60.00reverse acquisition time	0.00gamma	496.2192k internal	0.2303k external	0.2303temperature offset calibration	0.9973default loss term (dB/km)	0.3790temperature slope calibration	1.0000multiplexer offset coefficient	1.0000multiplexer slope coefficient	1.0000fibre end	0.00T internal ref (°C)	35.25T ext. ref 1 (°C)	0.42T ext. ref 2 (°C)	32.40length (m)	temperature (°C)	Stokes	anti-Stokes-747.200	-103.028	0.293	0.071
-746.185	-200.000	-0.019	0.160
-745.171	800.000	0.053	0.187
-744.156	-109.179	0.143	0.031
-743.142	187.840	0.096	-0.146
-742.127	-176.785	-0.160	0.004
-741.112	-90.522	0.194	0.057
-740.098	305.716	-0.134	0.254
-739.083	-200.000	-0.007	-0.087
-738.069	28.198	-0.275	0.237
-737.054	-200.000	-0.012	-0.197
-736.039	-66.354	-0.381	-0.154
-735.025	-3.073	0.218	0.155
-734.010	-200.000	-0.012	-0.071
-732.996	-70.547	-0.394	0.152
-731.981	90.231	0.185	0.211
-730.966	-160.241	-0.258	0.014
-729.952	-21.198	0.343	0.214
-728.937	800.000	0.100	-0.282
-727.923	-2.403	0.133	0.095
-726.908	800.000	0.047	-0.202
-725.894	-29.270	-0.074	0.043
-724.879	-200.000	0.053	-0.269
-723.864	-200.000	-0.020	-0.105
-722.850	189.814	-0.162	-0.247
-721.835	-125.131	-0.126	0.020
-720.821	52.029	-0.105	0.102
-719.806	-23.988	-0.023	0.014
-718.791	-200.000	0.056	-0.446
-717.777	800.000	0.058	-0.209
-716.762	376.281	-0.107	0.222
-715.748	92.459	-0.234	-0.269
-714.733	-91.598	0.240	-0.069
-713.718	-200.000	-0.047	-0.333
-712.704	-96.037	-0.061	-0.017
-711.689	-117.345	0.183	0.034
-710.675	-200.000	-0.089	0.523
-709.660	-100.158	-0.485	-0.123
-708.645	81.245	0.184	0.203
-707.631	173.285	-0.058	0.086
-706.616	603.015	-0.095	0.240
-705.602	-147.456	0.019	-0.002
-704.587	-23.310	0.140	-0.085
-703.572	-127.615	-0.300	0.044
-702.558	-126.477	-0.156	-0.024
-701.543	347.834	0.043	0.087
-700.529	9.758	-0.122	0.094
-699.514	112.325	-0.229	-0.282
-698.499	-54.147	0.044	0.020
-697.485	58.710	0.243	-0.243
-696.470	459.735	-0.124	-0.281
-695.456	52.729	-0.258	-0.250
-694.441	-107.864	-0.232	-0.051
-693.426	223.187	0.100	-0.164
-692.412	-9.392	-0.153	0.104
-691.397	513.346	-0.201	-0.476
-690.383	800.000	0.112	-0.324
-689.368	-79.491	0.190	0.065
-688.354	-94.266	0.207	0.058
-687.339	-200.000	-0.025	-0.149
-686.324	800.000	-0.056	0.215
-685.310	-14.283	0.197	0.129
-684.295	-110.462	0.226	-0.048
-683.281	32.259	0.253	-0.222
-682.266	-200.000	-0.004	0.125
-681.251	-20.786	-0.185	-0.115
-680.237	-94.266	0.209	-0.058
-679.222	-200.000	0.064	-0.296
-678.208	-26.898	-0.083	0.050
-677.193	380.238	-0.018	0.037
-676.178	-92.313	-0.241	-0.069
-675.164	-0.322	-0.256	-0.185
-674.149	46.506	0.079	-0.074
-673.135	800.000	0.006	-0.026
-672.120	318.812	-0.117	-0.225
-671.105	157.928	0.010	-0.014
-670.091	-129.448	0.220	0.031
-669.076	19.655	0.145	-0.118
-668.062	224.478	-0.128	-0.210
-667.047	-200.000	-0.007	0.268
-666.032	-146.089	0.082	0.007
-665.018	-108.727	0.046	-0.010
-664.003	-200.000	-0.002	0.072
-662.989	800.000	0.085	-0.253
-661.974	-68.539	0.384	-0.151
-660.959	-49.185	0.080	-0.039
-659.945	162.635	-0.183	-0.261
-658.930	362.737	0.062	-0.127
-657.916	-85.356	-0.143	0.045
-656.901	86.855	0.101	0.113
-655.886	-120.174	-0.248	0.043
-654.872	73.211	0.219	0.233
-653.857	-112.812	0.122	-0.025
-652.843	-200.000	0.000	-0.243
-651.828	-129.092	0.184	0.026
-650.814	-97.814	-0.152	-0.040
-649.799	54.751	-0.111	0.108
-648.784	-77.316	0.048	0.017
-647.770	561.060	-0.031	0.077
-646.755	466.739	-0.134	0.305
-645.741	350.312	0.070	-0.140
-644.726	-200.000	-0.051	-0.298
-643.711	119.223	0.286	-0.359
-642.697	-200.000	-0.043	-0.311
-641.682	551.691	-0.033	-0.081
-640.668	-82.513	-0.313	-0.103
-639.653	-113.941	-0.316	-0.062
-638.638	-76.980	0.402	-0.142
-637.624	-200.000	-0.004	0.216
-636.609	164.690	-0.139	0.199
-635.595	44.836	-0.111	-0.104
-634.580	589.578	0.078	0.196
-633.565	-164.879	-0.283	0.013
-632.551	12.881	-0.261	0.205
-631.536	194.402	-0.096	-0.148
-630.522	-200.000	0.044	-0.199
-629.507	-109.703	-0.104	-0.022
-628.492	-13.795	-0.169	-0.111
-627.478	-65.609	0.229	-0.093
-626.463	153.104	0.115	0.160
-625.449	115.348	0.096	-0.119
-624.434	238.118	-0.127	-0.215
-623.419	-152.098	-0.148	0.011
-622.405	-35.859	0.111	-0.061
-621.390	509.703	0.120	-0.283
-620.376	-160.233	-0.138	-0.008
-619.361	-62.196	-0.282	-0.119
-618.346	72.021	0.284	-0.300
-617.332	-180.550	-0.360	0.008
-616.317	-47.666	0.197	-0.097
-615.303	-23.177	0.199	0.121
-614.288	-200.000	-0.060	0.561
-613.273	161.332	-0.082	0.116
-612.259	4.509	0.141	-0.105
-611.244	-157.185	0.414	0.025
-610.230	800.000	-0.037	0.140
-609.215	-98.872	-0.123	-0.032
-608.201	-44.549	0.080	-0.041
-607.186	-200.000	0.001	0.207
-606.171	-150.184	-0.321	-0.025
-605.157	-200.000	0.059	-0.274
-604.142	776.399	0.093	0.258
-603.128	8.483	0.135	0.103
-602.113	-42.115	-0.069	0.036
-601.098	-93.374	-0.374	0.105
-600.084	506.902	-0.053	0.126
-599.069	251.213	0.073	-0.126
-598.055	335.758	-0.122	-0.240
-597.040	800.000	-0.059	-0.213
-596.025	-2.930	-0.118	-0.083
-595.011	-200.000	-0.092	0.499
-593.996	800.000	-0.038	0.129
-592.982	800.000	-0.109	-0.310
-591.967	-8.550	-0.233	-0.159
-590.952	-28.749	0.142	-0.083
-589.938	95.679	0.080	-0.093
-588.923	-112.300	0.214	-0.043
-587.909	46.720	0.079	0.075
-586.894	-123.226	0.063	-0.010
-585.879	800.000	0.086	0.284
-584.865	800.000	-0.083	-0.279
-583.850	800.000	0.041	-0.117
-582.836	57.509	-0.183	0.181
-581.821	-70.260	-0.380	0.146
-580.806	326.250	-0.077	-0.150
-579.792	186.130	-0.243	0.365
-578.777	-37.355	0.171	-0.093
-577.763	-155.648	0.187	0.012
-576.748	-76.787	-0.160	-0.057
-575.733	-105.603	-0.234	0.054
-574.719	455.847	-0.147	0.329
-573.704	-109.486	0.060	0.013
-572.690	-83.996	-0.315	0.101
-571.675	-110.422	-0.332	-0.070
-570.661	-94.995	0.177	-0.048
-569.646	-37.028	0.210	-0.114
-568.631	137.970	-0.106	0.140
-567.617	-48.336	0.179	-0.087
-566.602	-70.019	-0.213	0.082
-565.588	-200.000	0.003	-0.051
-564.573	-70.671	0.192	0.073
-563.558	-67.036	0.248	0.099
-562.544	115.446	-0.091	0.113
-561.529	107.482	0.093	0.112
-560.515	-44.297	-0.231	-0.117
-559.500	-200.000	0.019	-0.132
-558.485	-73.332	-0.098	-0.036
-557.471	163.883	0.176	-0.250
-556.456	800.000	-0.059	0.222
-555.442	-128.400	-0.324	0.047
-554.427	352.070	0.142	0.285
-553.412	-52.219	0.216	0.101
-552.398	255.984	-0.083	0.144
-551.383	98.357	0.209	-0.243
-550.369	800.000	0.006	0.023
-549.354	800.000	-0.060	0.201
-548.339	800.000	-0.055	0.164
-547.325	232.457	0.092	-0.153
-546.310	-56.892	0.291	-0.130
-545.296	-93.534	-0.228	0.064
-544.281	-138.215	0.187	-0.021
-543.266	-128.668	0.278	0.040
-542.252	-200.000	-0.011	0.112
-541.237	-148.695	-0.137	-0.011
-540.223	389.800	0.223	0.466
-539.208	-69.839	0.234	0.090
-538.193	14.415	0.124	0.098
-537.179	225.657	0.117	0.191
-536.164	-4.970	0.229	-0.159
-535.150	251.155	0.086	-0.147
-534.135	151.318	0.084	-0.115
-533.121	-145.300	-0.271	-0.025
-532.106	-45.387	0.201	-0.101
-531.091	-103.645	-0.276	0.065
-530.077	-200.000	0.012	0.153
-529.062	8.507	-0.248	0.189
-528.048	-200.000	0.032	0.163
-527.033	-129.069	0.334	0.047
-526.018	-146.949	0.119	-0.010
-525.004	138.423	-0.133	-0.176
-523.989	-200.000	0.051	0.294
-522.975	380.676	-0.132	0.274
-521.960	272.774	-0.141	-0.251
-520.945	-23.448	0.152	-0.092
-519.931	-123.291	-0.280	0.045
-518.916	-200.000	-0.014	-0.332
-517.902	557.102	0.052	0.126
-516.887	-105.740	0.068	0.016
-515.872	198.789	-0.142	-0.220
-514.858	102.292	0.164	-0.194
-513.843	412.131	0.136	-0.291
-512.829	-118.821	-0.102	0.018
-511.814	161.180	0.132	0.187
-510.799	-200.000	0.013	-0.074
-509.785	-200.000	-0.044	0.206
-508.770	44.316	-0.093	-0.086
-507.756	-23.807	-0.158	-0.095
-506.741	110.851	-0.225	0.273
-505.726	141.310	0.094	0.125
-504.712	-78.990	-0.163	-0.056
-503.697	-103.387	-0.141	0.033
-502.683	-178.389	0.107	-0.003
-501.668	-200.000	-0.019	-0.250
-500.653	-200.000	0.053	0.273
-499.639	490.334	-0.112	-0.258
-498.624	-132.404	0.178	-0.023
-497.610	-200.000	0.001	-0.112
-496.595	-200.000	0.012	0.188
-495.581	-200.000	0.009	0.049
-494.566	-200.000	-0.040	-0.336
-493.551	-75.628	-0.378	-0.136
-492.537	800.000	-0.080	0.319
-491.522	16.298	0.262	0.208
-490.508	-200.000	-0.085	0.397
-489.493	324.827	-0.106	0.204
-488.478	800.000	-0.051	-0.192
-487.464	800.000	0.099	-0.316
-486.449	81.548	0.069	0.075
-485.435	-200.000	-0.033	0.322
-484.420	-200.000	-0.029	-0.239
-483.405	-200.000	0.036	-0.174
-482.391	800.000	-0.041	-0.136
-481.376	68.497	0.206	0.213
-480.362	384.586	-0.145	0.301
-479.347	-170.700	-0.197	-0.007
-478.332	-119.511	-0.192	-0.034
-477.318	21.955	0.128	0.105
-476.303	142.483	-0.082	0.110
-475.289	-200.000	0.023	-0.246
-474.274	-107.625	-0.188	0.041
-473.259	265.160	0.107	0.187
-472.245	108.068	-0.085	0.102
-471.230	-77.230	0.338	0.119
-470.216	-7.323	0.141	-0.096
-469.201	800.000	0.034	-0.101
-468.186	136.084	-0.100	-0.131
-467.172	-94.542	0.130	-0.036
-466.157	17.464	-0.190	0.152
-465.143	-14.091	-0.088	0.058
-464.128	38.200	-0.177	0.159
-463.113	-131.399	0.362	-0.048
-462.099	-130.858	-0.170	0.023
-461.084	12.147	0.266	-0.207
-460.070	-118.460	-0.296	0.053
-459.055	84.072	-0.381	-0.420
-458.040	-200.000	0.036	-0.257
-457.026	800.000	-0.062	-0.190
-456.011	-80.061	0.067	-0.023
-454.997	344.555	0.171	-0.338
-453.982	190.211	0.020	0.030
-452.968	-200.000	0.013	-0.065
-451.953	-72.068	-0.149	0.056
-450.938	513.119	0.066	0.156
-449.924	-109.171	0.227	-0.049
-448.909	800.000	0.042	-0.120
-447.895	393.892	-0.177	-0.372
-446.880	-6.855	0.226	-0.155
-445.865	2.858	-0.134	-0.098
-444.851	-200.000	0.006	-0.207
-443.836	150.141	-0.043	-0.059
-442.822	-200.000	0.044	-0.273
-441.807	-116.943	0.171	0.031
-440.792	800.000	0.015	0.044
-439.778	-46.316	-0.073	0.036
-438.763	-69.251	0.361	-0.140
-437.749	153.250	-0.294	0.404
-436.734	108.477	0.116	-0.139
-435.719	54.246	-0.091	-0.088
-434.705	30.157	0.198	0.170
-433.690	14.275	-0.281	0.220
-432.676	800.000	-0.046	-0.150
-431.661	80.840	0.172	0.187
-430.646	-74.324	0.353	-0.128
-429.632	-53.723	0.035	0.016
-428.617	298.350	0.099	-0.184
-427.603	575.205	-0.069	-0.168
-426.588	-200.000	0.026	0.167
-425.573	65.309	-0.321	0.327
-424.559	800.000	0.023	-0.092
-423.544	-71.856	-0.279	-0.104
-422.530	-154.885	-0.059	-0.004
-421.515	800.000	-0.073	-0.204
-420.500	800.000	-0.042	0.118
-419.486	237.639	0.176	-0.294
-418.471	-30.838	0.146	-0.083
-417.457	-191.640	0.030	0.000
-416.442	362.553	-0.140	-0.283
-415.428	443.209	-0.169	-0.373
-414.413	800.000	0.035	0.133
-413.398	-101.418	-0.090	0.022
-412.384	-13.010	-0.155	0.101
-411.369	132.163	0.103	-0.134
-410.355	-200.000	-0.079	-0.347
-409.340	523.071	-0.081	-0.191
-408.325	91.246	0.283	-0.320
-407.311	-121.613	-0.213	0.035
-406.296	193.147	0.208	-0.317
-405.282	542.001	0.039	-0.093
-404.267	663.991	-0.033	-0.087
-403.252	-200.000	-0.040	-0.220
-402.238	613.711	0.148	0.373
-401.223	800.000	0.055	0.165
-400.209	-139.151	-0.243	0.026
-399.194	-200.000	-0.012	0.062
-398.179	-42.671	0.121	0.062
-397.165	262.583	-0.119	0.207
-396.150	-200.000	0.003	0.086
-395.136	-23.762	-0.188	-0.113
-394.121	603.099	0.104	0.259
-393.106	-44.554	-0.061	0.031
-392.092	-200.000	0.046	-0.214
-391.077	800.000	0.079	-0.337
-390.063	250.701	-0.042	0.073
-389.048	-39.702	0.199	0.104
-388.033	-57.557	-0.046	0.020
-387.019	96.010	0.152	0.174
-386.004	800.000	0.017	0.069
-384.990	53.800	0.038	0.036
-383.975	800.000	-0.049	0.160
-382.960	29.928	0.102	0.087
-381.946	240.757	0.080	0.134
-380.931	202.851	-0.005	0.008
-379.917	160.388	-0.124	-0.173
-378.902	800.000	0.059	0.231
-377.888	631.903	0.193	-0.492
-376.873	763.857	-0.092	-0.250
-375.858	-200.000	0.009	0.115
-374.844	594.263	0.041	0.102
-373.829	-100.147	-0.130	0.033
-372.815	-85.588	0.208	-0.065
-371.800	26.880	-0.202	0.170
-370.785	-200.000	-0.012	-0.098
-369.771	800.000	-0.026	0.087
-368.756	61.543	-0.118	0.118
-367.742	-130.586	0.081	-0.011
-366.727	109.960	-0.106	-0.128
-365.712	-200.000	-0.019	0.694
-364.698	196.160	0.068	0.104
-363.683	-75.060	-0.120	-0.043
-362.669	206.993	0.151	0.237
-361.654	592.965	-0.108	0.268
-360.639	-35.846	-0.158	0.086
-359.625	-200.000	0.031	0.478
-358.610	37.438	0.015	0.013
-357.596	-200.000	0.014	0.130
-356.581	-200.000	-0.035	0.184
-355.566	-143.657	-0.148	0.014
-354.552	-46.663	0.087	-0.043
-353.537	-135.012	-0.389	-0.047
-352.523	-122.368	-0.113	-0.019
-351.508	216.641	-0.041	-0.065
-350.493	-32.299	0.215	0.120
-349.479	-70.466	-0.183	0.070
-348.464	392.386	0.164	-0.342
-347.450	-50.292	0.127	0.060
-346.435	251.193	-0.104	-0.178
-345.420	-154.159	-0.294	-0.020
-344.406	-38.676	0.477	-0.253
-343.391	-89.951	0.134	0.039
-342.377	800.000	0.062	0.210
-341.362	800.000	-0.025	-0.075
-340.348	-200.000	-0.005	-0.201
-339.333	118.514	-0.121	0.150
-338.318	-155.781	0.030	-0.002
-337.304	-200.000	0.001	0.255
-336.289	38.566	0.129	-0.115
-335.275	-200.000	0.003	-0.205
-334.260	-30.020	-0.137	-0.078
-333.245	329.027	0.163	0.315
-332.231	-137.516	0.366	0.041
-331.216	365.422	0.177	-0.357
-330.202	127.228	0.074	0.095
-329.187	-95.646	0.135	-0.036
-328.172	51.579	-0.091	-0.087
-327.158	12.712	0.023	-0.018
-326.143	-200.000	0.003	0.081
-325.129	-105.065	0.175	-0.040
-324.114	-20.487	0.263	0.162
-323.099	-42.791	-0.034	-0.018
-322.085	-135.574	0.136	0.016
-321.070	-200.000	-0.015	-0.183
-320.056	24.985	0.060	0.050
-319.041	327.551	0.012	-0.022
-318.026	774.458	-0.070	-0.191
-317.012	-200.000	0.013	-0.150
-315.997	141.690	0.148	-0.196
-314.983	-63.459	-0.361	0.148
-313.968	-101.761	0.292	0.071
-312.953	-200.000	-0.028	0.289
-311.939	-99.826	0.448	0.112
-310.924	245.282	0.052	0.088
-309.910	-142.308	0.189	0.019
-308.895	-100.068	0.078	0.020
-307.880	-200.000	-0.007	0.306
-306.866	-125.844	0.093	0.014
-305.851	23.414	0.132	0.108
-304.837	520.376	-0.073	0.173
-303.822	82.704	0.112	0.121
-302.807	-195.907	-0.327	0.002
-301.793	-81.501	-0.250	-0.082
-300.778	-43.751	-0.174	0.088
-299.764	-16.969	0.070	0.044
-298.749	-200.000	-0.109	0.000
-297.735	-173.581	-0.138	0.004
-296.720	12.148	0.178	0.137
-295.705	270.310	-0.035	-0.061
-294.691	-86.585	-0.350	-0.107
-293.676	-200.000	0.015	0.207
-292.662	280.681	0.198	0.355
-291.647	-200.000	0.034	0.234
-290.632	-123.885	0.228	0.036
-289.618	-179.074	0.205	0.005
-288.603	5.160	0.378	0.279
-287.589	800.000	0.060	-0.224
-286.574	-200.000	-0.006	-0.033
-285.559	-200.000	-0.005	-0.161
-284.545	-77.796	0.061	-0.021
-283.530	800.000	0.075	-0.219
-282.516	427.972	0.010	-0.022
-281.501	800.000	-0.033	0.106
-280.486	-32.915	0.100	-0.056
-279.472	100.167	0.084	-0.098
-278.457	-200.000	0.014	-0.182
-277.443	-200.000	-0.033	0.162
-276.428	51.188	0.052	0.050
-275.413	-149.866	-0.184	-0.014
-274.399	-138.938	0.100	-0.011
-273.384	-150.864	-0.108	0.008
-272.370	-200.000	0.018	0.231
-271.355	-36.170	-0.128	0.069
-270.340	-99.087	0.131	-0.033
-269.326	-200.000	0.015	0.094
-268.311	38.756	0.135	0.121
-267.297	210.480	-0.144	0.227
-266.282	2.062	0.084	0.060
-265.267	-200.000	0.017	-0.137
-264.253	-200.000	0.047	-0.208
-263.238	22.294	-0.118	0.097
-262.224	-200.000	-0.040	0.244
-261.209	-200.000	-0.002	0.013
-260.195	-132.443	-0.585	0.075
-259.180	-200.000	-0.032	-0.157
-258.165	105.309	0.168	-0.199
-257.151	619.282	-0.075	0.189
-256.136	50.320	-0.296	-0.280
-255.122	245.463	-0.066	-0.112
-254.107	-63.213	-0.281	-0.116
-253.092	800.000	-0.042	0.143
-252.078	-200.000	0.033	0.441
-251.063	418.200	-0.047	0.100
-250.049	-156.704	-0.128	-0.008
-249.034	37.450	0.177	-0.157
-248.019	34.511	0.088	-0.077
-247.005	-66.165	0.223	0.089
-245.990	26.072	0.242	-0.202
-244.976	688.124	0.042	-0.110
-243.961	60.430	-0.101	0.100
-242.946	-93.775	-0.073	-0.020
-241.932	800.000	0.069	-0.195
-240.917	386.946	-0.226	0.465
-239.903	339.034	0.058	-0.113
-238.888	-77.731	-0.065	-0.023
-237.873	-118.613	0.052	0.009
-236.859	169.997	0.084	-0.120
-235.844	99.999	-0.064	0.074
-234.830	271.751	0.180	0.316
-233.815	-100.558	-0.238	0.059
-232.800	564.510	0.075	-0.182
-231.786	-100.592	0.132	0.033
-230.771	800.000	-0.015	0.064
-229.757	-144.795	0.222	-0.020
-228.742	-100.741	-0.150	0.037
-227.727	-109.877	-0.086	-0.018
-226.713	-71.586	0.062	-0.023
-225.698	-140.230	0.239	0.025
-224.684	536.067	0.145	-0.342
-223.669	3.057	-0.157	0.114
-222.655	-45.459	0.194	0.096
-221.640	435.491	-0.065	0.142
-220.625	334.008	0.218	-0.420
-219.611	-150.165	-0.495	-0.038
-218.596	800.000	-0.137	0.406
-217.582	-91.988	-0.208	0.059
-216.567	-157.064	0.258	0.016
-215.552	-155.684	0.307	-0.020
-214.538	11.296	-0.221	0.169
-213.523	-48.218	0.389	-0.187
-212.509	800.000	-0.085	0.330
-211.494	-142.218	0.289	0.029
-210.479	-108.030	0.250	-0.054
-209.465	-11.069	-0.430	0.283
-208.450	-18.211	-0.234	0.146
-207.436	800.000	0.074	-0.280
-206.421	73.039	0.098	-0.103
-205.406	800.000	-0.043	0.188
-204.392	-12.293	0.303	-0.197
-203.377	800.000	-0.092	-0.290
-202.363	233.836	-0.083	-0.137
-201.348	368.613	-0.078	-0.157
-200.333	548.225	0.152	-0.364
-199.319	319.032	-0.023	0.043
-198.304	-136.150	-0.183	0.021
-197.290	-6.107	-0.184	0.125
-196.275	-155.411	-0.080	0.005
-195.260	-27.460	-0.264	0.153
-194.246	-200.000	-0.013	-0.072
-193.231	713.816	-0.041	-0.108
-192.217	-123.593	-0.083	-0.013
-191.202	-74.703	-0.126	0.045
-190.187	172.144	0.175	-0.251
-189.173	-200.000	0.047	0.325
-188.158	119.000	0.166	-0.204
-187.144	-200.000	0.028	-0.361
-186.129	-93.334	0.101	-0.028
-185.114	-176.849	-0.433	0.011
-184.100	-84.640	-0.205	-0.064
-183.085	-126.421	-0.114	-0.017
-182.071	172.172	0.085	-0.121
-181.056	800.000	0.044	0.135
-180.042	181.636	0.026	0.038
-179.027	240.373	-0.049	-0.081
-178.012	-102.834	0.131	-0.031
-176.998	216.966	-0.292	0.463
-175.983	389.171	-0.056	0.115
-174.969	172.922	0.139	-0.199
-173.954	-82.341	0.074	0.024
-172.939	20.188	-0.025	-0.020
-171.925	38.175	-0.178	-0.158
-170.910	-200.000	0.039	-0.255
-169.896	-200.000	0.001	-0.203
-168.881	3.823	0.182	0.132
-167.866	800.000	0.050	0.154
-166.852	-107.119	-0.118	-0.026
-165.837	96.528	-0.166	-0.190
-164.823	-86.245	0.271	-0.083
-163.808	-19.877	0.229	0.141
-162.793	-54.373	0.132	0.060
-161.779	54.078	0.199	0.191
-160.764	800.000	0.098	-0.392
-159.750	-200.000	-0.064	-0.295
-158.735	-3.644	-0.114	0.079
-157.720	-159.752	0.189	0.010
-156.706	-200.000	0.013	-0.136
-155.691	64.022	-0.113	-0.113
-154.677	-200.000	-0.029	-0.258
-153.662	800.000	0.120	0.370
-152.647	165.790	0.140	0.197
-151.633	569.032	0.066	-0.159
-150.618	32.304	0.231	-0.199
-149.604	800.000	-0.115	-0.364
-148.589	359.004	-0.106	0.211
-147.574	800.000	-0.070	-0.219
-146.560	87.206	-0.135	-0.148
-145.545	-92.991	-0.145	-0.040
-144.531	0.481	0.123	0.088
-143.516	350.222	-0.112	0.221
-142.502	18.362	0.219	0.174
-141.487	138.352	-0.085	0.112
-140.472	78.493	0.039	-0.041
-139.458	-93.999	-0.310	0.085
-138.443	4.483	-0.360	-0.262
-137.429	-152.113	0.398	0.029
-136.414	543.555	0.058	0.139
-135.399	-125.647	-0.297	-0.045
-134.385	-58.457	-0.094	-0.040
-133.370	278.199	-0.118	0.209
-132.356	-129.089	-0.092	0.013
-131.341	-200.000	0.028	-0.271
-130.326	-81.391	-0.106	0.035
-129.312	-52.287	0.051	0.023
-128.297	-142.411	0.261	-0.026
-127.283	-52.579	-0.223	0.102
-126.268	800.000	0.051	-0.182
-125.253	223.946	-0.044	0.071
-124.239	800.000	-0.104	-0.363
-123.224	-187.792	0.080	-0.001
-122.210	-65.901	0.069	0.027
-121.195	-64.267	0.115	-0.047
-120.180	-57.050	0.433	-0.190
-119.166	-5.587	0.270	-0.184
-118.151	-2.933	-0.133	-0.093
-117.137	-175.979	0.388	-0.010
-116.122	-200.000	0.001	-0.219
-115.107	209.155	-0.046	0.071
-114.093	-115.729	-0.215	-0.040
-113.078	163.101	-0.280	0.391
-112.064	112.080	-0.062	-0.075
-111.049	361.314	-0.112	0.223
-110.034	-68.374	0.143	0.055
-109.020	-200.000	0.004	-0.071
-108.005	-115.283	-0.068	0.013
-106.991	-200.000	0.000	-0.052
-105.976	550.292	0.086	0.204
-104.962	-200.000	0.037	0.342
-103.947	-27.940	0.329	0.190
-102.932	-90.640	0.128	0.037
-101.918	-48.089	-0.388	0.186
-100.903	176.384	0.094	0.135
-99.889	124.533	0.124	0.155
-98.874	384.889	0.110	0.225
-97.859	-12.327	-0.172	0.112
-96.845	8.726	-0.307	-0.230
-95.830	-128.139	-0.086	-0.012
-94.816	52.987	-0.084	0.080
-93.801	707.029	0.121	0.318
-92.786	204.946	-0.196	-0.302
-91.772	-127.628	-0.293	0.042
-90.757	-200.000	0.001	0.122
-89.743	-132.374	0.263	-0.034
-88.728	-132.474	0.185	0.024
-87.713	365.921	0.100	-0.201
-86.699	122.794	0.180	-0.224
-85.684	-46.915	0.442	0.215
-84.670	118.449	-0.289	0.354
-83.655	-108.543	0.221	-0.047
-82.640	348.559	-0.202	-0.395
-81.626	132.996	-0.156	-0.200
-80.611	800.000	-0.068	-0.232
-79.597	-148.342	0.059	0.005
-78.582	-59.115	-0.293	0.125
-77.567	53.621	-0.094	-0.089
-76.553	-200.000	0.114	0.000
-75.538	-200.000	0.010	-0.048
-74.524	78.849	-0.134	-0.142
-73.509	26.508	0.337	-0.280
-72.494	-200.000	0.018	-0.099
-71.480	-116.244	0.095	0.017
-70.465	-33.691	0.162	-0.088
-69.451	398.411	0.115	0.239
-68.436	-85.065	-0.156	0.048
-67.422	800.000	-0.095	-0.396
-66.407	-99.603	-0.211	-0.053
-65.392	-200.000	0.000	0.005
-64.378	-27.562	0.217	0.125
-63.363	-135.914	-0.146	0.017
-62.349	-114.016	-0.127	0.024
-61.334	102.088	-0.824	-0.954
-60.319	-13.800	0.328	0.210
-59.305	506.127	-0.456	-1.048
-58.290	262.011	0.524	0.901
-57.276	403.136	0.788	1.643
-56.261	-200.000	93.170	541.699
-55.246	483.567	1416.242	3193.826
-54.232	145.911	2620.641	3484.148
-53.217	111.656	2224.184	2661.117
-52.203	46.640	1666.018	1533.540
-51.188	38.663	1397.363	1236.136
-50.173	35.345	1354.380	1177.737
-49.159	55.221	1401.356	1343.142
-48.144	58.954	1419.592	1383.878
-47.130	39.111	1374.933	1218.880
-46.115	35.443	1356.955	1180.392
-45.100	35.222	1352.386	1175.013
-44.086	35.241	1349.533	1172.608
-43.071	35.017	1347.873	1169.748
-42.057	35.058	1345.598	1167.975
-41.042	34.991	1344.027	1166.159
-40.027	35.116	1342.517	1165.563
-39.013	35.133	1340.342	1163.730
-37.998	35.040	1338.289	1161.337
-36.984	35.141	1336.320	1160.193
-35.969	35.206	1334.937	1159.340
-34.954	35.273	1333.022	1158.038
-33.940	35.368	1331.586	1157.316
-32.925	35.466	1329.969	1156.457
-31.911	35.395	1328.331	1154.561
-30.896	35.423	1326.800	1153.350
-29.881	35.441	1325.321	1152.130
-28.867	35.445	1324.266	1151.192
-27.852	35.431	1322.587	1149.599
-26.838	35.427	1320.849	1148.017
-25.823	35.315	1319.972	1146.542
-24.809	35.259	1318.781	1145.127
-23.794	35.370	1316.584	1143.837
-22.779	35.360	1315.479	1142.772
-21.765	35.348	1314.749	1142.021
-20.750	35.281	1313.332	1140.347
-19.736	35.233	1311.645	1138.551
-18.721	35.229	1310.601	1137.577
-17.706	35.215	1309.289	1136.307
-16.692	35.225	1308.040	1135.240
-15.677	35.202	1306.918	1134.082
-14.663	35.198	1305.854	1133.091
-13.648	35.154	1304.949	1132.002
-12.633	35.100	1303.952	1130.771
-11.619	35.108	1303.073	1130.011
-10.604	35.158	1301.928	1129.269
-9.590	35.115	1300.859	1128.044
-8.575	35.109	1300.229	1127.420
-7.560	35.133	1299.277	1126.691
-6.546	35.177	1298.212	1125.981
-5.531	35.267	1297.076	1125.476
-4.517	35.108	1296.513	1124.013
-3.502	35.094	1295.525	1123.026
-2.487	35.170	1294.273	1122.341
-1.473	35.306	1290.487	1119.808
-0.458	34.323	1276.308	1101.780
0.556	29.492	1258.496	1063.199
1.571	25.436	1263.191	1043.568
2.586	23.783	1277.518	1045.593
3.600	22.503	1265.968	1028.574
4.615	16.350	1188.559	931.762
5.629	6.109	1106.640	814.615
6.644	0.852	1084.515	771.504
7.659	0.303	1082.263	767.038
8.673	0.312	1080.531	765.790
9.688	0.224	1079.734	764.709
10.702	0.621	1077.568	765.119
11.717	6.369	1086.071	800.368
12.731	15.301	1097.861	854.703
13.746	18.390	1100.283	872.269
14.761	17.400	1098.408	865.669
15.775	16.290	1096.319	858.306
16.790	15.368	1094.039	851.769
17.804	14.576	1092.721	846.650
18.819	14.254	1091.783	844.216
19.834	13.837	1090.535	841.061
20.848	13.797	1089.391	839.901
21.863	13.393	1088.779	837.314
22.877	13.371	1087.996	836.522
23.892	13.300	1087.153	835.443
24.907	13.315	1086.798	835.173
25.921	13.312	1085.794	834.314
26.936	13.284	1084.888	833.399
27.950	13.353	1084.215	833.156
28.965	13.396	1083.101	832.442
29.980	13.446	1081.466	831.367
30.994	13.539	1080.430	830.961
32.009	13.609	1079.442	830.480
33.023	13.643	1078.228	829.644
34.038	13.545	1077.567	828.572
35.053	13.450	1076.498	827.200
36.067	13.410	1075.694	826.311
37.082	13.471	1074.781	825.839
38.096	13.402	1074.116	824.909
39.111	13.341	1073.807	824.297
40.126	13.371	1072.231	823.161
41.140	13.476	1070.497	822.281
42.155	13.365	1069.757	821.088
43.169	13.258	1068.912	819.835
44.184	13.238	1067.618	818.673
45.199	13.352	1066.616	818.394
46.213	13.314	1066.032	817.688
47.228	13.395	1064.288	816.676
48.242	13.296	1063.806	815.747
49.257	13.349	1062.397	814.853
50.271	13.390	1061.742	814.481
51.286	13.337	1060.977	813.563
52.301	13.381	1059.765	812.780
53.315	13.336	1058.756	811.709
54.330	13.319	1057.938	810.928
55.344	13.428	1056.639	810.394
56.359	13.413	1055.938	809.713
57.374	13.290	1055.223	808.491
58.388	13.191	1054.546	807.418
59.403	13.248	1053.642	806.932
60.417	13.382	1052.349	806.525
61.432	13.262	1051.766	805.420
62.447	13.188	1051.130	804.503
63.461	13.108	1049.834	803.051
64.476	13.054	1049.241	802.264
65.490	13.192	1048.541	802.325
66.505	13.242	1047.358	801.592
67.520	13.274	1046.726	801.193
68.534	13.250	1046.267	800.656
69.549	13.209	1045.671	799.929
70.563	13.219	1044.438	798.964
71.578	13.152	1044.286	798.455
72.593	13.163	1043.351	797.722
73.607	13.145	1042.524	796.931
74.622	13.094	1041.890	796.131
75.636	13.082	1041.132	795.423
76.651	13.228	1040.410	795.502
77.666	13.182	1039.967	794.873
78.680	13.187	1039.170	794.217
79.695	13.079	1038.692	793.262
80.709	13.365	1037.385	793.566
81.724	13.243	1037.418	792.938
82.739	13.264	1036.549	792.305
83.753	13.417	1035.392	792.083
84.768	13.453	1034.438	791.451
85.782	13.539	1033.287	790.915
86.797	13.440	1032.886	790.065
87.812	13.367	1031.846	788.850
88.826	13.518	1030.381	788.378
89.841	13.523	1029.562	787.707
90.855	13.367	1029.068	786.518
91.870	13.503	1027.944	786.234
92.884	13.460	1027.085	785.307
93.899	13.409	1026.458	784.512
94.914	13.501	1025.525	784.166
95.928	13.494	1024.843	783.542
96.943	13.427	1024.054	782.551
97.957	13.428	1023.164	781.808
98.972	13.506	1022.072	781.271
99.987	13.404	1021.557	780.329
101.001	13.504	1020.061	779.588
102.016	13.356	1019.366	778.293
103.030	13.444	1018.825	778.222
104.045	13.552	1017.573	777.706
105.060	13.458	1016.440	776.329
106.074	13.392	1016.106	775.697
107.089	13.324	1014.809	774.322
108.103	13.325	1013.829	773.510
109.118	13.359	1012.945	772.923
110.133	13.300	1012.138	771.964
111.147	13.393	1010.879	771.372
112.162	13.441	1010.107	770.937
113.176	13.405	1009.736	770.415
114.191	13.384	1008.881	769.597
115.206	13.353	1008.343	768.977
116.220	13.322	1007.455	768.085
117.235	13.350	1006.374	767.325
118.249	13.342	1005.991	766.927
119.264	13.342	1005.112	766.191
120.279	13.408	1003.719	765.366
121.293	13.365	1003.088	764.617
122.308	13.327	1002.438	763.880
123.322	13.282	1001.346	762.773
124.337	13.407	1000.004	762.256
125.352	13.351	998.906	761.098
126.366	13.418	997.655	760.381
127.381	13.364	996.926	759.513
128.395	13.470	996.004	759.229
129.410	13.401	995.243	758.267
130.424	13.511	994.132	757.854
131.439	13.421	993.474	756.876
132.454	13.361	993.133	756.277
133.468	13.497	992.399	756.272
134.483	13.489	991.092	755.171
135.497	13.513	990.425	754.705
136.512	13.562	989.806	754.390
137.527	13.534	989.120	753.674
138.541	13.578	987.923	752.894
139.556	13.471	987.159	751.758
140.570	13.549	986.365	751.441
141.585	13.536	985.735	750.837
142.600	13.531	984.983	750.174
143.614	13.497	984.304	749.437
144.629	13.664	983.352	749.401
145.643	13.652	982.218	748.418
146.658	13.596	980.897	747.091
147.673	13.491	980.277	746.081
148.687	13.601	979.707	746.074
149.702	13.511	978.707	744.844
150.716	13.596	977.762	744.440
151.731	13.547	977.246	743.763
152.746	13.541	976.348	742.987
153.760	13.483	975.861	742.286
154.775	13.781	974.716	742.686
155.789	13.704	974.444	742.067
156.804	13.643	973.690	741.157
157.819	13.563	973.249	740.399
158.833	13.640	972.529	740.127
159.848	13.852	971.304	740.074
160.862	13.642	970.400	738.385
161.877	13.715	969.414	737.893
162.892	13.622	968.903	737.027
163.906	13.658	967.537	736.083
164.921	13.652	966.926	735.528
165.935	13.651	965.773	734.581
166.950	13.578	965.003	733.607
167.964	13.804	963.840	733.657
168.979	13.648	963.241	732.448
169.994	13.679	962.443	731.910
171.008	13.758	961.792	731.698
172.023	13.760	961.244	731.227
173.037	13.771	960.627	730.741
174.052	13.937	959.330	730.419
175.067	13.742	959.188	729.391
176.081	13.670	958.568	728.536
177.096	13.731	957.749	728.117
178.110	13.807	957.174	727.952
179.125	13.900	956.327	727.648
180.140	13.823	955.799	726.845
181.154	13.777	955.761	726.552
182.169	13.916	955.012	726.527
183.183	13.957	954.500	726.251
184.198	13.977	953.140	725.240
185.213	14.067	952.298	724.928
186.227	13.972	951.935	724.173
187.242	13.921	951.438	723.507
188.256	13.973	950.707	723.113
189.271	14.091	950.080	723.088
190.286	13.779	949.240	721.027
191.300	13.808	948.630	720.627
192.315	13.667	948.297	719.696
193.329	13.850	947.619	719.914
194.344	13.837	946.643	719.053
195.359	13.879	946.019	718.696
196.373	13.845	945.561	718.139
197.388	13.996	945.172	718.432
198.402	14.087	944.454	718.214
199.417	14.091	943.849	717.708
200.432	14.286	943.026	717.860
201.446	14.178	942.633	717.033
202.461	14.208	942.029	716.638
203.475	14.372	941.356	716.769
204.490	14.202	940.483	715.311
205.504	14.264	939.807	715.001
206.519	14.211	938.933	714.044
207.534	14.193	938.202	713.347
208.548	14.114	937.509	712.417
209.563	14.124	937.132	712.113
210.577	14.345	935.983	712.122
211.592	14.281	935.968	711.774
212.607	14.348	934.875	711.163
213.621	14.384	933.951	710.551
214.636	14.275	933.659	709.804
215.650	14.360	932.740	709.402
216.665	14.355	932.021	708.774
217.680	14.410	931.216	708.331
218.694	14.475	930.520	708.016
219.709	14.330	930.247	707.131
220.723	14.449	929.408	706.933
221.738	14.660	927.989	706.685
222.753	14.568	927.536	705.888
223.767	14.547	927.173	705.459
224.782	14.495	927.065	705.095
225.796	14.568	925.892	704.451
226.811	14.544	925.400	703.910
227.826	14.558	924.753	703.415
228.840	14.509	923.810	702.432
229.855	14.528	922.921	701.773
230.869	14.529	922.308	701.249
231.884	14.487	921.876	700.683
232.899	14.550	920.829	700.086
233.913	14.632	919.958	699.709
234.928	14.513	919.374	698.703
235.942	14.461	919.332	698.393
236.957	14.581	918.488	698.190
237.972	14.499	917.757	697.231
238.986	14.600	917.405	697.324
240.001	14.626	916.419	696.621
241.015	14.588	916.081	696.144
242.030	14.697	915.218	695.881
243.045	14.734	914.682	695.568
244.059	14.604	914.634	694.928
245.074	14.643	913.500	694.165
246.088	14.691	912.576	693.603
247.103	14.712	912.298	693.415
248.117	14.901	911.485	693.522
249.132	14.751	911.366	692.746
250.147	14.834	910.539	692.402
251.161	15.041	909.404	692.334
252.176	15.021	909.186	692.021
253.190	14.891	908.347	690.786
254.205	15.143	907.520	691.136
255.220	14.980	907.069	690.058
256.234	15.111	906.567	690.156
257.249	15.036	905.928	689.297
258.263	14.956	905.443	688.541
259.278	15.021	904.272	687.855
260.293	15.065	903.684	687.528
261.307	15.194	903.288	687.697
262.322	15.275	902.473	687.345
263.336	15.132	901.522	685.977
264.351	15.151	900.988	685.586
265.366	15.251	900.090	685.253
266.380	15.290	899.484	684.889
267.395	15.251	898.993	684.296
268.409	15.104	898.609	683.341
269.424	15.285	897.098	682.871
270.439	15.267	896.504	682.283
271.453	15.233	896.057	681.747
272.468	15.202	895.706	681.293
273.482	15.338	894.664	680.991
274.497	15.346	894.367	680.736
275.512	15.307	893.626	679.957
276.526	15.424	893.213	680.057
277.541	15.415	892.687	679.557
278.555	15.371	892.079	678.858
279.570	15.365	891.738	678.514
280.585	15.581	890.444	678.339
281.599	15.493	889.813	677.443
282.614	15.495	889.116	676.862
283.628	15.415	888.643	676.121
284.643	15.441	888.233	675.851
285.657	15.537	887.189	675.384
286.672	15.657	886.538	675.312
287.687	15.542	885.987	674.370
288.701	15.705	885.188	674.355
289.716	15.619	885.146	673.921
290.730	15.614	884.406	673.276
291.745	15.558	883.360	672.198
292.760	15.483	883.204	671.719
293.774	15.732	882.616	672.209
294.789	15.646	881.818	671.196
295.803	15.636	881.169	670.605
296.818	15.716	880.253	670.164
297.833	15.747	879.406	669.585
298.847	15.692	879.235	669.179
299.862	15.619	878.748	668.457
300.876	15.615	878.265	668.016
301.891	15.848	877.076	667.977
302.906	15.896	876.614	667.755
303.920	15.799	876.155	666.960
304.935	15.891	875.684	666.907
305.949	15.919	874.856	666.331
306.964	15.854	874.239	665.543
307.979	15.861	873.894	665.252
308.993	15.849	873.317	664.704
310.008	15.953	872.515	664.445
311.022	15.964	872.003	664.041
312.037	15.963	871.404	663.520
313.052	15.911	870.616	662.658
314.066	15.823	870.226	661.957
315.081	15.814	869.506	661.315
316.095	15.885	869.077	661.208
317.110	15.986	868.088	660.793
318.125	15.929	867.926	660.390
319.139	15.918	867.391	659.882
320.154	15.956	866.994	659.666
321.168	15.976	866.304	659.165
322.183	16.081	865.648	659.018
323.197	15.922	865.786	658.441
324.212	16.019	864.973	658.143
325.227	16.109	864.269	657.901
326.241	15.977	863.583	656.807
327.256	16.059	862.950	656.585
328.270	15.934	862.805	655.932
329.285	15.998	862.413	655.825
330.300	16.088	861.370	655.323
331.314	15.937	860.908	654.326
332.329	16.160	860.328	654.692
333.343	16.185	859.840	654.361
334.358	16.323	859.299	654.427
335.373	16.137	859.227	653.592
336.387	16.181	858.898	653.453
337.402	16.187	858.480	653.102
338.416	16.209	858.074	652.823
339.431	16.237	857.576	652.491
340.446	16.262	857.041	652.126
341.460	16.279	856.793	651.943
342.475	16.417	856.436	652.148
343.489	16.395	855.769	651.498
344.504	16.423	855.562	651.388
345.519	16.557	854.871	651.322
346.533	16.529	854.279	650.705
347.548	16.528	853.231	649.844
348.562	16.561	852.701	649.512
349.577	16.328	852.596	648.480
350.592	16.411	852.046	648.321
351.606	16.448	851.184	647.751
352.621	16.542	850.319	647.394
353.635	16.418	849.889	646.534
354.650	16.468	849.194	646.141
355.665	16.399	848.937	645.624
356.679	16.622	848.025	645.725
357.694	16.581	847.514	645.122
358.708	16.518	846.921	644.371
359.723	16.581	846.332	644.108
360.738	16.599	845.492	643.481
361.752	16.605	845.337	643.328
362.767	16.651	844.690	642.954
363.781	16.539	844.177	642.081
364.796	16.652	843.738	642.118
365.810	16.761	843.324	642.162
366.825	16.752	843.042	641.856
367.840	16.816	842.259	641.446
368.854	16.755	841.990	640.952
369.869	16.753	841.487	640.506
370.883	16.694	841.201	640.006
371.898	16.825	840.665	640.036
372.913	17.042	839.886	640.208
373.927	16.850	839.766	639.334
374.942	16.867	839.426	639.082
375.956	16.928	838.855	638.820
376.971	17.073	838.147	638.770
377.986	16.955	837.640	637.883
379.000	17.054	837.259	637.908
380.015	17.163	836.554	637.727
381.029	17.086	836.234	637.135
382.044	17.136	835.577	636.768
383.059	17.014	835.100	635.890
384.073	17.143	834.393	635.780
385.088	17.095	833.741	635.047
386.102	17.101	833.150	634.562
387.117	17.030	832.681	633.883
388.132	17.129	831.818	633.539
389.146	17.149	831.724	633.486
390.161	16.976	831.484	632.601
391.175	17.176	830.963	632.896
392.190	17.191	829.864	632.058
393.205	17.134	829.461	631.484
394.219	17.223	829.090	631.476
395.234	17.161	828.775	630.951
396.248	17.190	828.378	630.700
397.263	17.283	827.561	630.368
398.278	17.130	827.538	629.727
399.292	17.239	826.886	629.580
400.307	17.035	826.526	628.493
401.321	17.243	825.918	628.745
402.336	17.275	825.301	628.336
403.350	17.212	825.494	628.194
404.365	17.332	824.631	627.925
405.380	17.330	824.272	627.589
406.394	17.402	823.528	627.234
407.409	17.347	823.330	626.825
408.423	17.453	823.173	627.039
409.438	17.478	822.546	626.599
410.453	17.574	822.092	626.550
411.467	17.482	821.746	625.893
412.482	17.492	821.337	625.563
413.496	17.634	820.701	625.545
414.511	17.549	820.540	625.053
415.526	17.604	820.048	624.826
416.540	17.746	819.069	624.545
417.555	17.534	819.055	623.702
418.569	17.661	818.692	623.836
419.584	17.694	818.171	623.506
420.599	17.688	817.637	623.019
421.613	102.213	1283.594	1436.104
422.628	88.175	1351.471	1436.220
