DTS Sentinel unit serial number:	SN413079Multiplexer serial number:	ORYXHardware model number:	OX4-SRSoftware version number:	ORYX F/W v4.00 Oryx Data Collector v3.7.2.0data status	okinstallation	princeton_trtdifferential loss correction	single-endedforward channel	channel 1reverse channel	N/Adate	2019/09/13time	16:50:35forward acquisition time	60.00reverse acquisition time	0.00gamma	496.2192k internal	0.2306k external	0.2306temperature offset calibration	1.0156default loss term (dB/km)	0.3790temperature slope calibration	1.0000multiplexer offset coefficient	1.0000multiplexer slope coefficient	1.0000fibre end	0.00T internal ref (°C)	34.92T ext. ref 1 (°C)	4.93T ext. ref 2 (°C)	30.09length (m)	temperature (°C)	Stokes	anti-Stokes-747.200	-79.196	0.165	-0.057
-746.185	-52.231	0.203	0.096
-745.171	-59.728	0.156	-0.068
-744.156	800.000	-0.072	0.290
-743.142	11.300	-0.133	0.103
-742.127	-5.820	-0.249	0.173
-741.112	223.714	-0.092	-0.150
-740.098	199.226	0.096	0.149
-739.083	554.440	0.066	0.161
-738.069	9.479	0.211	0.162
-737.054	800.000	0.045	0.133
-736.039	-146.220	-0.104	0.009
-735.025	351.037	0.038	0.077
-734.010	-139.710	-0.186	0.020
-732.996	800.000	-0.035	0.098
-731.981	96.430	0.180	-0.209
-730.966	47.582	-0.174	-0.165
-729.952	166.679	-0.195	0.281
-728.937	37.725	-0.102	0.092
-727.923	40.363	0.283	0.259
-726.908	8.751	0.262	-0.201
-725.894	-200.000	0.017	-0.126
-724.879	-181.343	-0.171	0.003
-723.864	-16.953	-0.019	0.012
-722.850	80.927	0.209	-0.230
-721.835	-200.000	-0.066	-0.453
-720.821	-57.212	0.294	-0.132
-719.806	453.599	0.021	-0.047
-718.791	-43.817	0.284	0.145
-717.777	244.545	0.186	0.318
-716.762	237.562	-0.212	-0.358
-715.748	164.807	-0.051	0.074
-714.733	187.939	-0.096	-0.146
-713.718	76.284	0.219	0.235
-712.704	19.058	-0.131	-0.107
-711.689	-79.235	0.498	-0.172
-710.675	-200.000	0.027	-0.123
-709.660	-153.276	-0.245	0.017
-708.645	-200.000	0.013	-0.124
-707.631	9.447	-0.251	-0.193
-706.616	-200.000	-0.012	-0.190
-705.602	-23.736	0.239	0.146
-704.587	343.028	-0.030	-0.060
-703.572	-124.965	-0.182	0.028
-702.558	-35.223	0.173	0.096
-701.543	332.346	-0.106	-0.209
-700.529	71.234	-0.098	-0.104
-699.514	210.209	0.148	0.237
-698.499	9.339	-0.411	-0.315
-697.485	67.118	0.166	0.171
-696.470	800.000	0.093	0.266
-695.456	7.259	-0.269	-0.204
-694.441	-173.300	-0.374	0.012
-693.426	311.152	0.131	0.250
-692.412	88.134	0.161	-0.182
-691.397	-141.057	-0.097	-0.010
-690.383	0.575	-0.117	0.085
-689.368	-59.478	-0.138	-0.060
-688.354	-102.439	-0.234	0.057
-687.339	733.106	0.135	0.367
-686.324	-105.089	0.134	-0.031
-685.310	-200.000	-0.014	0.091
-684.295	-200.000	0.066	-0.443
-683.281	-70.218	0.181	-0.070
-682.266	-156.487	0.322	0.020
-681.251	25.872	0.190	0.161
-680.237	288.447	0.025	-0.045
-679.222	50.782	-0.124	0.119
-678.208	-112.234	0.195	-0.040
-677.193	261.331	0.091	0.160
-676.178	800.000	-0.065	-0.258
-675.164	-99.132	0.035	-0.009
-674.149	-146.285	-0.135	0.012
-673.135	26.003	0.292	0.247
-672.120	412.795	-0.035	0.075
-671.105	1.043	0.057	0.041
-670.091	800.000	0.042	-0.155
-669.076	800.000	0.044	-0.191
-668.062	800.000	-0.037	-0.154
-667.047	-200.000	0.069	-0.337
-666.032	129.882	-0.045	-0.058
-665.018	582.378	0.082	0.205
-664.003	-129.618	-0.066	-0.009
-662.989	330.713	0.172	-0.336
-661.974	171.316	-0.171	-0.249
-660.959	200.158	-0.163	0.254
-659.945	258.166	-0.146	-0.254
-658.930	-95.500	-0.119	-0.032
-657.916	59.506	-0.213	-0.213
-656.901	247.175	0.109	0.186
-655.886	179.923	0.142	-0.212
-654.872	-93.019	-0.324	-0.091
-653.857	-200.000	0.040	-0.229
-652.843	172.377	-0.149	0.217
-651.828	800.000	0.031	0.097
-650.814	-147.048	-0.167	-0.014
-649.799	428.729	-0.143	0.312
-648.784	-31.190	-0.340	-0.194
-647.770	-22.007	-0.325	0.200
-646.755	-83.355	0.235	-0.076
-645.741	-39.447	0.255	-0.136
-644.726	800.000	-0.100	-0.331
-643.711	164.718	0.095	0.136
-642.697	-30.413	-0.130	-0.075
-641.682	-200.000	-0.011	0.228
-640.668	170.456	-0.048	-0.070
-639.653	111.079	-0.107	-0.131
-638.638	322.597	-0.129	-0.250
-637.624	175.095	0.121	0.177
-636.609	-151.071	-0.417	0.032
-635.595	-200.000	0.004	0.093
-634.580	176.051	0.127	-0.187
-633.565	143.504	0.109	0.147
-632.551	64.582	-0.083	-0.084
-631.536	115.057	0.225	-0.278
-630.522	-41.881	-0.442	-0.229
-629.507	-200.000	-0.037	-0.280
-628.492	-200.000	0.025	-0.302
-627.478	-151.378	-0.236	0.018
-626.463	32.047	-0.078	-0.068
-625.449	52.126	-0.275	-0.265
-624.434	382.881	-0.106	0.220
-623.419	23.266	-0.063	0.053
-622.405	-114.225	0.081	0.016
-621.390	110.649	-0.167	0.204
-620.376	-17.419	0.269	0.172
-619.361	-99.561	0.181	-0.046
-618.346	340.473	-0.105	-0.207
-617.332	203.529	-0.109	-0.170
-616.317	-51.336	-0.282	-0.134
-615.303	-143.143	-0.198	0.019
-614.288	97.388	0.276	0.321
-613.273	-200.000	0.001	0.147
-612.259	106.245	-0.121	-0.145
-611.244	208.734	0.065	0.104
-610.230	-92.770	0.338	-0.096
-609.215	115.218	-0.057	0.070
-608.201	800.000	-0.039	-0.134
-607.186	-200.000	0.032	-0.259
-606.171	-129.963	-0.567	-0.079
-605.157	-200.000	-0.060	-0.318
-604.142	162.748	0.228	-0.324
-603.128	-103.344	0.387	0.092
-602.113	262.076	0.174	-0.306
-601.098	195.476	0.108	0.167
-600.084	800.000	-0.038	-0.145
-599.069	-123.462	-0.144	-0.023
-598.055	-36.501	0.152	-0.083
-597.040	93.686	-0.204	-0.233
-596.025	-158.662	-0.021	0.001
-595.011	-108.726	0.294	-0.064
-593.996	800.000	-0.098	0.285
-592.982	800.000	0.026	0.113
-591.967	-83.631	-0.256	0.083
-590.952	60.954	-0.234	0.235
-589.938	-200.000	0.047	0.273
-588.923	-12.289	-0.175	-0.115
-587.909	-16.222	-0.205	0.132
-586.894	23.458	-0.340	0.283
-585.879	-111.738	0.239	0.049
-584.865	-30.017	-0.352	-0.203
-583.850	190.437	0.089	-0.136
-582.836	-200.000	0.047	-0.356
-581.821	800.000	-0.072	-0.237
-580.806	800.000	0.045	0.186
-579.792	143.705	-0.123	0.166
-578.777	508.074	-0.107	0.252
-577.763	-46.461	-0.176	0.087
-576.748	86.111	-0.169	0.188
-575.733	800.000	0.068	0.236
-574.719	-61.263	0.204	0.087
-573.704	-93.825	0.076	0.021
-572.690	-200.000	-0.026	-0.226
-571.675	16.846	-0.203	0.163
-570.661	99.392	0.347	0.406
-569.646	739.760	0.011	0.031
-568.631	46.229	-0.164	-0.154
-567.617	459.991	0.082	0.184
-566.602	800.000	-0.076	0.274
-565.588	609.116	-0.091	0.230
-564.573	-2.847	-0.012	0.009
-563.558	-200.000	0.010	0.334
-562.544	800.000	-0.044	-0.135
-561.529	-200.000	0.048	-0.250
-560.515	-152.275	0.451	-0.033
-559.500	800.000	-0.031	-0.132
-558.485	453.147	-0.113	0.252
-557.471	-56.655	0.244	-0.109
-556.456	-1.907	-0.078	0.055
-555.442	-43.571	0.280	-0.143
-554.427	-200.000	0.038	-0.224
-553.412	-79.918	0.138	-0.047
-552.398	-126.162	-0.301	-0.046
-551.383	-75.549	-0.069	-0.025
-550.369	374.106	-0.088	-0.181
-549.354	100.261	-0.133	-0.156
-548.339	-200.000	0.005	-0.122
-547.325	161.036	0.139	-0.196
-546.310	-160.804	0.253	0.014
-545.296	-200.000	0.019	0.293
-544.281	5.113	-0.044	0.032
-543.266	103.480	-0.048	0.057
-542.252	-25.499	0.010	-0.006
-541.237	-200.000	0.007	-0.329
-540.223	-39.050	-0.288	0.153
-539.208	146.703	-0.176	-0.239
-538.193	192.989	0.020	-0.030
-537.179	-200.000	0.028	-0.283
-536.164	-200.000	-0.011	-0.198
-535.150	255.410	0.160	-0.276
-534.135	117.897	-0.073	0.091
-533.121	-200.000	-0.030	-0.209
-532.106	-200.000	0.030	0.158
-531.091	5.497	0.101	-0.076
-530.077	88.273	0.249	0.279
-529.062	389.510	-0.062	0.129
-528.048	105.546	0.159	0.189
-527.033	-200.000	-0.067	0.420
-526.018	-100.824	-0.136	0.034
-525.004	-31.526	-0.101	-0.058
-523.989	17.972	-0.060	-0.048
-522.975	-172.311	0.528	-0.017
-521.960	392.058	0.039	-0.082
-520.945	-117.326	0.187	0.034
-519.931	-200.000	-0.025	0.202
-518.916	104.066	0.113	0.134
-517.902	-91.542	-0.273	0.079
-516.887	-1.450	-0.271	0.192
-515.872	-124.699	-0.302	0.047
-514.858	-72.424	0.182	0.068
-513.843	-117.393	-0.081	0.015
-512.829	240.228	-0.122	-0.205
-511.814	379.930	-0.074	0.152
-510.799	116.766	-0.187	-0.232
-509.785	-30.221	0.308	-0.177
-508.770	-50.441	0.147	-0.070
-507.756	-142.364	-0.234	-0.023
-506.741	-200.000	0.027	0.124
-505.726	800.000	0.095	-0.410
-504.712	419.672	0.045	-0.098
-503.697	-200.000	0.431	-0.001
-502.683	66.495	-0.132	-0.135
-501.668	-200.000	-0.014	-0.075
-500.653	-200.000	0.006	0.095
-499.639	-107.565	0.271	0.060
-498.624	-198.796	0.256	-0.001
-497.610	-66.222	-0.315	0.127
-496.595	-41.551	-0.451	0.234
-495.581	800.000	0.021	0.081
-494.566	-77.919	0.183	-0.064
-493.551	-73.632	0.143	-0.053
-492.537	-128.990	0.230	0.033
-491.522	-200.000	0.013	0.069
-490.508	19.162	0.332	-0.268
-489.493	-200.000	0.002	0.090
-488.478	-147.087	-0.243	0.021
-487.464	-6.213	-0.244	-0.167
-486.449	98.879	-0.166	0.192
-485.435	160.757	-0.185	-0.260
-484.420	45.421	-0.185	-0.172
-483.405	115.712	0.249	-0.306
-482.391	800.000	0.093	-0.265
-481.376	2.402	-0.057	-0.042
-480.362	800.000	-0.016	-0.070
-479.347	60.848	-0.063	-0.063
-478.332	19.791	0.356	0.289
-477.318	-200.000	-0.045	-0.288
-476.303	126.592	-0.272	0.347
-475.289	9.783	0.158	0.120
-474.274	31.628	-0.184	0.159
-473.259	-17.536	-0.155	-0.098
-472.245	-3.645	0.142	0.099
-471.230	239.670	0.064	-0.107
-470.216	800.000	-0.054	-0.192
-469.201	206.003	0.137	-0.214
-468.186	-158.344	0.118	0.007
-467.172	621.061	-0.098	-0.249
-466.157	72.994	-0.025	0.026
-465.143	197.057	-0.062	-0.096
-464.128	-200.000	-0.030	0.240
-463.113	-63.984	0.218	0.090
-462.099	-36.448	0.183	-0.099
-461.084	197.769	-0.123	0.189
-460.070	70.612	-0.089	0.093
-459.055	-200.000	0.038	0.322
-458.040	87.486	-0.139	0.155
-457.026	-24.518	-0.247	-0.148
-456.011	-46.408	0.417	0.206
-454.997	34.546	0.010	-0.009
-453.982	-72.083	0.048	0.018
-452.968	-158.600	0.254	0.015
-451.953	-200.000	-0.057	-0.356
-450.938	-60.402	0.509	0.218
-449.924	-57.337	-0.067	-0.030
-448.909	447.496	0.136	-0.302
-447.895	-46.468	-0.117	0.058
-446.880	-115.331	-0.181	-0.034
-445.865	292.391	0.139	-0.256
-444.851	210.698	-0.181	-0.286
-443.836	-32.687	-0.053	-0.030
-442.822	-4.000	0.278	-0.194
-441.807	-28.858	-0.120	-0.069
-440.792	-99.724	0.295	-0.074
-439.778	-105.313	0.107	-0.025
-438.763	-42.427	-0.236	-0.121
-437.749	-18.981	0.086	0.054
-436.734	19.190	-0.091	-0.073
-435.719	575.159	0.032	0.079
-434.705	800.000	0.059	0.181
-433.690	285.920	0.052	-0.094
-432.676	276.024	0.167	-0.298
-431.661	-33.875	0.258	0.143
-430.646	83.243	0.160	0.175
-429.632	-200.000	0.036	0.184
-428.617	-200.000	0.036	-0.238
-427.603	772.623	0.062	0.169
-426.588	2.494	-0.253	-0.184
-425.573	-200.000	0.114	0.000
-424.559	-109.372	0.274	0.058
-423.544	-200.000	-0.054	0.259
-422.530	14.412	0.122	-0.096
-421.515	-101.545	-0.143	-0.035
-420.500	116.852	-0.305	-0.376
-419.486	-87.465	-0.297	-0.090
-418.471	-200.000	0.040	-0.193
-417.457	432.073	0.081	0.176
-416.442	-200.000	0.031	-0.236
-415.428	-115.970	-0.266	0.050
-414.413	-200.000	0.004	0.169
-413.398	40.201	-0.052	-0.047
-412.384	-192.111	0.416	0.004
-411.369	244.241	0.136	-0.229
-410.355	179.306	0.224	-0.329
-409.340	51.987	-0.045	-0.043
-408.325	-155.022	-0.140	0.009
-407.311	96.994	-0.126	0.145
-406.296	107.798	-0.237	0.284
-405.282	131.664	0.150	0.193
-404.267	-200.000	-0.018	-0.095
-403.252	-166.104	0.255	0.011
-402.238	-160.584	-0.086	-0.005
-401.223	-6.699	0.107	-0.073
-400.209	-200.000	-0.001	0.141
-399.194	38.600	-0.098	-0.088
-398.179	328.654	-0.042	0.080
-397.165	-190.915	0.343	0.004
-396.150	61.629	0.295	0.295
-395.136	315.255	0.048	0.091
-394.121	237.102	0.113	0.187
-393.106	-200.000	0.009	0.316
-392.092	800.000	-0.086	0.371
-391.077	-200.000	0.009	-0.135
-390.063	346.779	0.098	0.193
-389.048	-200.000	0.029	-0.331
-388.033	-200.000	-0.038	-0.245
-387.019	-200.000	-0.016	-0.121
-386.004	130.299	0.151	-0.194
-384.990	559.922	0.013	-0.032
-383.975	800.000	-0.078	-0.245
-382.960	800.000	0.025	0.103
-381.946	192.173	0.142	-0.214
-380.931	800.000	-0.062	-0.177
-379.917	88.415	0.175	-0.195
-378.902	-109.713	-0.310	0.065
-377.888	-84.147	0.158	-0.050
-376.873	-92.650	-0.228	0.064
-375.858	68.838	-0.132	-0.136
-374.844	-12.237	-0.165	-0.108
-373.829	611.816	-0.039	0.097
-372.815	800.000	0.014	-0.048
-371.800	224.640	-0.219	-0.355
-370.785	292.888	-0.030	-0.055
-369.771	-118.544	0.069	0.012
-368.756	-79.223	-0.017	0.006
-367.742	800.000	0.007	0.024
-366.727	47.156	0.128	0.119
-365.712	-143.096	-0.195	-0.019
-364.698	-25.674	0.518	0.306
-363.683	-75.395	-0.063	0.023
-362.669	-84.734	-0.333	-0.105
-361.654	-148.770	0.208	-0.017
-360.639	12.992	-0.188	0.146
-359.625	800.000	-0.048	0.136
-358.610	29.627	0.074	0.063
-357.596	14.189	0.120	-0.094
-356.581	-137.782	0.142	-0.016
-355.566	435.972	-0.164	0.358
-354.552	566.912	0.059	0.144
-353.537	-48.089	0.319	0.154
-352.523	283.632	-0.022	0.039
-351.508	-4.818	0.456	-0.315
-350.493	-20.133	-0.419	0.259
-349.479	800.000	-0.102	0.364
-348.464	496.530	-0.074	0.171
-347.450	97.802	0.212	0.245
-346.435	-16.850	-0.244	0.155
-345.420	40.462	0.143	0.129
-344.406	-152.195	-0.210	-0.015
-343.391	-200.000	0.044	0.260
-342.377	58.911	0.199	-0.196
-341.362	-103.175	-0.246	0.058
-340.348	77.860	-0.083	-0.089
-339.333	-120.720	-0.092	0.016
-338.318	53.389	0.150	-0.144
-337.304	-200.000	0.007	-0.174
-336.289	-95.989	0.382	0.102
-335.275	102.108	0.140	0.164
-334.260	-70.406	-0.073	-0.028
-333.245	220.871	0.049	0.078
-332.231	-200.000	-0.000	0.050
-331.216	-73.462	0.284	-0.104
-330.202	-4.536	0.216	-0.149
-329.187	33.534	-0.325	0.283
-328.172	-163.090	0.189	-0.009
-327.158	-200.000	-0.026	-0.165
-326.143	-107.824	0.245	-0.053
-325.129	-200.000	0.019	-0.334
-324.114	225.609	0.028	0.046
-323.099	-90.291	0.052	-0.015
-322.085	371.211	0.228	0.462
-321.070	-200.000	-0.014	0.263
-320.056	800.000	-0.031	0.122
-319.041	757.128	-0.026	-0.071
-318.026	800.000	0.055	0.168
-317.012	-200.000	0.028	0.391
-315.997	-88.530	-0.350	0.104
-314.983	-151.024	-0.167	-0.013
-313.968	-17.114	0.198	-0.125
-312.953	-135.515	-0.377	0.045
-311.939	-3.137	0.113	-0.079
-310.924	-28.469	-0.086	0.050
-309.910	-59.270	0.203	0.087
-308.895	21.985	-0.266	0.217
-307.880	122.039	-0.065	0.081
-306.866	800.000	0.044	-0.183
-305.851	800.000	-0.095	0.371
-304.837	-148.008	0.116	0.010
-303.822	-96.390	-0.273	-0.072
-302.807	-43.249	-0.139	0.070
-301.793	183.342	0.080	-0.118
-300.778	-109.478	-0.319	-0.067
-299.764	-57.270	0.147	-0.064
-298.749	-132.705	0.247	-0.032
-297.735	-141.538	-0.262	0.026
-296.720	-27.779	-0.063	-0.036
-295.705	800.000	-0.089	-0.323
-294.691	431.715	-0.052	0.112
-293.676	85.733	-0.214	0.235
-292.662	19.651	-0.025	0.020
-291.647	709.562	-0.086	-0.226
-290.632	-52.861	-0.542	-0.250
-289.618	158.477	-0.151	-0.209
-288.603	65.664	-0.186	0.188
-287.589	60.262	-0.278	0.274
-286.574	-153.153	-0.265	0.019
-285.559	-86.597	0.408	-0.125
-284.545	88.295	-0.188	-0.208
-283.530	374.414	-0.034	-0.070
-282.516	124.479	0.167	-0.209
-281.501	153.582	0.213	-0.291
-280.486	620.970	0.045	0.113
-279.472	166.031	-0.079	0.112
-278.457	143.549	0.134	0.179
-277.443	62.402	0.172	0.171
-276.428	-148.218	0.148	-0.012
-275.413	38.033	0.178	0.158
-274.399	179.161	-0.186	-0.272
-273.384	-104.300	-0.055	0.013
-272.370	-200.000	0.012	0.159
-271.355	-137.794	0.153	-0.017
-270.340	-141.026	-0.220	0.023
-269.326	11.639	-0.151	0.116
-268.311	-22.933	0.117	-0.070
-267.297	85.294	0.155	-0.170
-266.282	113.409	0.096	0.116
-265.267	63.757	0.204	0.205
-264.253	636.906	0.072	0.183
-263.238	509.070	0.070	-0.163
-262.224	83.368	-0.129	-0.141
-261.209	-99.728	0.295	-0.074
-260.195	544.323	0.093	-0.222
-259.180	-62.154	-0.108	-0.045
-258.165	120.152	-0.191	-0.237
-257.151	-31.396	0.205	-0.115
-256.136	800.000	0.163	0.468
-255.122	-35.524	0.283	0.153
-254.107	135.327	0.088	0.115
-253.092	-179.127	-0.075	0.002
-252.078	-200.000	-0.070	0.321
-251.063	54.947	-0.173	0.167
-250.049	-200.000	-0.178	0.000
-249.034	-200.000	-0.006	0.205
-248.019	-53.179	0.242	0.111
-247.005	-171.870	-0.017	-0.001
-245.990	32.297	0.165	0.142
-244.976	-67.056	0.289	-0.114
-243.961	800.000	0.075	0.282
-242.946	133.970	-0.159	-0.206
-241.932	-129.699	-0.492	0.068
-240.917	588.926	-0.066	0.162
-239.903	-42.356	0.234	0.119
-238.888	445.911	0.036	-0.078
-237.873	-181.743	0.217	0.004
-236.859	-200.000	-0.035	-0.210
-235.844	-29.117	0.282	-0.161
-234.830	-161.184	-0.364	0.019
-233.815	-129.486	0.273	-0.038
-232.800	740.416	0.020	0.054
-231.786	139.649	-0.084	0.111
-230.771	285.955	-0.047	-0.085
-229.757	800.000	0.070	-0.244
-228.742	800.000	-0.051	0.207
-227.727	800.000	0.101	0.419
-226.713	-8.659	-0.045	-0.030
-225.698	-200.000	-0.006	-0.063
-224.684	57.655	0.081	0.079
-223.669	120.576	0.114	0.141
-222.655	580.167	0.072	0.175
-221.640	-200.000	0.106	-0.567
-220.625	-51.549	0.358	0.166
-219.611	67.966	0.035	-0.035
-218.596	160.375	-0.142	0.198
-217.582	105.812	-0.219	-0.258
-216.567	-36.034	-0.063	0.034
-215.552	-200.000	0.011	-0.185
-214.538	-76.013	0.281	0.099
-213.523	800.000	0.055	0.157
-212.509	-80.384	0.190	-0.063
-211.494	-168.315	0.378	-0.015
-210.479	406.463	-0.116	0.243
-209.465	-200.000	0.009	-0.209
-208.450	510.823	0.046	-0.107
-207.436	151.907	-0.239	-0.325
-206.421	-200.000	-0.034	-0.154
-205.406	-51.953	-0.118	-0.055
-204.392	-200.000	-0.004	0.076
-203.377	-112.031	-0.166	0.033
-202.363	114.894	-0.206	-0.250
-201.348	63.317	0.045	-0.045
-200.333	64.180	-0.179	-0.179
-199.319	240.184	-0.071	0.117
-198.304	-200.000	0.008	-0.101
-197.290	100.589	0.064	-0.074
-196.275	-19.428	0.278	0.172
-195.260	461.599	-0.041	-0.091
-194.246	-128.907	-0.428	-0.060
-193.231	88.262	-0.247	0.273
-192.217	126.319	-0.102	-0.128
-191.202	800.000	0.056	0.240
-190.187	27.441	-0.219	0.183
-189.173	-58.329	0.152	0.066
-188.158	-200.000	0.099	-0.440
-187.144	442.018	0.148	-0.323
-186.129	3.308	-0.155	-0.112
-185.114	-106.733	-0.377	0.083
-184.100	-164.868	-0.174	0.008
-183.085	-116.782	0.116	0.021
-182.071	-46.728	0.302	-0.147
-181.056	6.405	-0.279	0.206
-180.042	800.000	-0.100	0.383
-179.027	-80.247	0.413	-0.137
-178.012	442.695	-0.054	-0.119
-176.998	-136.661	0.075	-0.009
-175.983	503.956	-0.046	0.105
-174.969	16.894	0.092	-0.072
-173.954	-200.000	0.047	-0.324
-172.939	800.000	-0.074	-0.245
-171.925	-200.000	0.088	0.397
-170.910	-200.000	-0.020	0.135
-169.896	-200.000	-0.137	0.676
-168.881	-123.871	0.153	0.024
-167.866	405.073	-0.098	0.205
-166.852	28.449	-0.127	0.107
-165.837	-200.000	0.062	-0.407
-164.823	-41.898	-0.224	0.114
-163.808	5.197	-0.173	-0.127
-162.793	-200.000	0.002	-0.066
-161.779	-37.269	0.108	-0.058
-160.764	-54.662	0.186	0.084
-159.750	259.336	-0.051	-0.088
-158.735	-200.000	0.011	0.384
-157.720	-116.276	0.120	-0.022
-156.706	294.622	0.049	0.089
-155.691	-68.274	0.166	-0.064
-154.677	567.595	-0.046	-0.111
-153.662	-140.087	-0.121	-0.013
-152.647	-0.676	0.052	0.037
-151.633	31.830	-0.245	0.210
-150.618	-72.212	0.194	-0.072
-149.604	800.000	0.036	-0.112
-148.589	271.940	0.078	-0.137
-147.574	800.000	-0.008	0.024
-146.560	-154.588	-0.291	-0.019
-145.545	-200.000	0.019	0.411
-144.531	171.337	-0.173	-0.247
-143.516	-92.810	0.092	0.026
-142.502	-200.000	0.015	-0.168
-141.487	-131.354	0.203	0.027
-140.472	800.000	-0.070	0.233
-139.458	-41.084	0.348	0.179
-138.443	-200.000	-0.046	0.265
-137.429	135.488	0.097	-0.125
-136.414	-200.000	0.041	0.202
-135.399	-124.513	0.232	-0.036
-134.385	669.615	-0.144	0.369
-133.370	629.359	-0.106	0.267
-132.356	-200.000	0.069	0.313
-131.341	-37.219	-0.071	0.038
-130.326	-124.832	0.322	-0.049
-129.312	-3.455	-0.315	-0.218
-128.297	110.113	0.219	0.261
-127.283	57.704	-0.191	-0.185
-126.268	33.742	-0.114	0.098
-125.253	-200.000	0.030	0.271
-124.239	378.942	-0.126	0.256
-123.224	800.000	0.076	-0.255
-122.210	228.969	0.058	-0.093
-121.195	-106.117	-0.316	-0.071
-120.180	-74.356	0.359	-0.129
-119.166	-47.021	-0.224	0.108
-118.151	649.975	0.085	0.215
-117.137	-200.000	-0.007	-0.051
-116.122	9.078	-0.292	-0.219
-115.107	-200.000	-0.043	0.359
-114.093	248.545	-0.097	0.162
-113.078	-200.000	0.010	0.143
-112.064	-102.106	0.254	0.061
-111.049	-127.043	0.191	0.028
-110.034	30.083	-0.131	-0.111
-109.020	62.245	0.258	0.255
-108.005	-60.437	0.187	-0.079
-106.991	112.523	0.169	-0.203
-105.976	800.000	-0.050	-0.200
-104.962	-28.830	-0.142	-0.081
-103.947	-53.982	0.281	-0.127
-102.932	-178.880	-0.156	-0.004
-101.918	395.256	-0.088	-0.181
-100.903	-15.780	0.150	0.095
-99.889	-72.990	-0.189	0.069
-98.874	-111.910	-0.272	-0.054
-97.859	-13.002	0.212	-0.137
-96.845	-17.018	-0.122	-0.076
-95.830	7.388	0.135	0.100
-94.816	-200.000	-0.011	-0.418
-93.801	26.300	-0.159	0.132
-92.786	-133.895	0.112	-0.014
-91.772	-117.531	0.170	0.030
-90.757	-74.904	0.217	0.077
-89.743	8.455	-0.182	-0.136
-88.728	7.738	0.355	0.264
-87.713	-0.497	-0.209	0.147
-86.699	99.785	0.108	0.124
-85.684	-200.000	0.010	0.186
-84.670	2.808	-0.147	0.106
-83.655	-11.536	0.279	0.182
-82.640	-200.000	0.031	-0.259
-81.626	96.921	-0.136	-0.155
-80.611	213.633	0.087	0.137
-79.597	-48.999	-0.131	-0.062
-78.582	-126.842	0.239	-0.035
-77.567	213.636	0.089	-0.140
-76.553	-183.889	0.378	-0.006
-75.538	23.462	-0.123	-0.100
-74.524	-200.000	-0.035	0.199
-73.509	64.511	-0.075	-0.075
-72.494	-200.000	0.014	0.245
-71.480	-34.177	-0.128	0.070
-70.465	10.432	-0.129	-0.098
-69.451	648.253	-0.150	0.379
-68.436	-200.000	-0.013	0.314
-67.422	41.190	0.178	-0.159
-66.407	-136.187	0.137	0.016
-65.392	-200.000	-0.009	-0.260
-64.378	428.887	0.055	-0.118
-63.363	-150.412	-0.191	-0.015
-62.349	-24.235	0.144	0.085
-61.334	89.004	-0.782	-0.863
-60.319	-110.972	0.498	0.101
-59.305	800.000	-0.337	-0.975
-58.290	618.451	0.426	1.059
-57.276	800.000	0.441	1.532
-56.261	-200.000	96.673	577.451
-55.246	649.151	1386.457	3512.775
-54.232	186.922	2599.958	3836.519
-53.217	123.823	2181.506	2711.781
-52.203	46.821	1633.774	1503.244
-51.188	38.325	1369.106	1207.498
-50.173	35.192	1326.055	1150.702
-49.159	56.839	1374.809	1325.789
-48.144	61.089	1393.109	1369.322
-47.130	38.766	1346.948	1190.447
-46.115	34.969	1329.949	1152.558
-45.100	34.975	1324.139	1147.509
-44.086	34.740	1322.644	1144.760
-43.071	34.654	1320.501	1142.345
-42.057	34.753	1318.012	1140.739
-41.042	34.729	1316.324	1139.089
-40.027	34.818	1314.641	1138.120
-39.013	34.837	1312.792	1136.587
-37.998	34.790	1310.915	1134.639
-36.984	34.864	1309.136	1133.493
-35.969	35.009	1307.132	1132.566
-34.954	34.934	1305.409	1130.589
-33.940	34.959	1304.361	1129.782
-32.925	35.093	1302.491	1128.909
-31.911	34.967	1301.500	1127.263
-30.896	35.006	1299.899	1126.059
-29.881	34.954	1299.086	1125.008
-28.867	35.082	1297.565	1124.398
-27.852	35.113	1295.785	1122.990
-26.838	35.115	1294.348	1121.713
-25.823	35.008	1293.100	1119.963
-24.809	35.200	1290.985	1119.208
-23.794	35.076	1290.206	1117.762
-22.779	35.035	1288.843	1116.298
-21.765	34.944	1287.740	1114.769
-20.750	35.021	1286.739	1114.304
-19.736	34.990	1285.015	1112.588
-18.721	34.804	1284.269	1110.816
-17.706	34.901	1282.733	1110.007
-16.692	34.746	1281.548	1108.039
-15.677	34.796	1280.351	1107.249
-14.663	34.910	1279.275	1106.933
-13.648	34.786	1278.387	1105.406
-12.633	34.839	1277.238	1104.673
-11.619	34.943	1276.195	1104.327
-10.604	34.841	1275.635	1103.213
-9.590	34.848	1274.895	1102.571
-8.575	34.798	1273.839	1101.323
-7.560	34.766	1273.004	1100.373
-6.546	34.874	1271.948	1100.039
-5.531	34.723	1271.487	1098.729
-4.517	34.692	1270.530	1097.679
-3.502	34.826	1269.358	1097.394
-2.487	34.880	1268.066	1096.544
-1.473	34.857	1263.960	1092.819
-0.458	33.426	1248.825	1071.600
0.556	31.225	1229.622	1028.328
1.571	26.749	1232.519	1005.884
2.586	25.173	1246.443	1008.305
3.600	23.542	1234.077	989.126
4.615	17.735	1161.656	900.423
5.629	9.255	1086.650	800.158
6.644	5.352	1065.136	765.169
7.659	4.971	1062.478	761.332
8.673	4.703	1061.104	758.973
9.688	4.676	1060.240	758.156
10.702	5.352	1058.886	760.411
11.717	10.879	1066.701	792.976
12.731	18.932	1077.956	840.815
13.746	22.111	1080.969	858.652
14.761	21.646	1080.445	855.890
15.775	20.712	1078.433	849.662
16.790	19.740	1075.840	842.805
17.804	19.087	1074.614	838.592
18.819	18.741	1073.539	835.992
19.834	18.552	1072.809	834.432
20.848	18.369	1072.274	833.049
21.863	18.233	1071.444	831.671
22.877	18.109	1070.562	830.311
23.892	18.019	1069.941	829.320
24.907	18.092	1068.774	828.695
25.921	18.066	1067.881	827.805
26.936	17.996	1066.998	826.707
27.950	17.992	1065.567	825.509
28.965	18.150	1063.637	824.701
29.980	18.439	1062.063	824.799
30.994	18.487	1061.239	824.314
32.009	18.510	1060.154	823.511
33.023	18.440	1058.971	822.184
34.038	18.263	1058.294	820.735
35.053	18.192	1057.511	819.715
36.067	18.223	1056.755	819.206
37.082	18.257	1055.620	818.414
38.096	18.347	1055.266	818.499
39.111	18.213	1054.845	817.460
40.126	18.253	1052.986	816.138
41.140	18.011	1051.406	813.690
42.155	17.839	1050.015	811.723
43.169	17.735	1049.434	810.709
44.184	17.836	1048.170	810.141
45.199	17.845	1047.113	809.292
46.213	18.001	1045.803	808.949
47.228	18.239	1045.254	809.577
48.242	18.216	1044.208	808.587
49.257	18.082	1043.239	807.131
50.271	18.247	1042.218	807.051
51.286	18.352	1041.333	806.786
52.301	18.191	1040.460	805.283
53.315	18.049	1039.664	803.927
54.330	17.990	1038.124	802.388
55.344	17.968	1037.710	801.894
56.359	18.047	1036.997	801.639
57.374	17.890	1036.201	800.218
58.388	17.813	1035.128	798.961
59.403	17.691	1034.565	797.882
60.417	17.831	1033.489	797.636
61.432	17.709	1032.664	796.362
62.447	17.660	1031.899	795.472
63.461	17.659	1031.102	794.783
64.476	17.696	1030.247	794.226
65.490	17.629	1029.084	792.944
66.505	17.670	1028.510	792.623
67.520	17.730	1028.096	792.514
68.534	17.692	1027.316	791.664
69.549	17.682	1026.644	791.033
70.563	17.540	1025.831	789.678
71.578	17.334	1024.897	787.931
72.593	17.317	1023.837	786.970
73.607	17.445	1022.900	786.774
74.622	17.343	1023.134	786.411
75.636	17.528	1021.846	786.208
76.651	17.462	1021.277	785.396
77.666	17.530	1020.879	785.331
78.680	17.609	1020.044	784.985
79.695	17.586	1019.842	784.652
80.709	17.816	1019.061	785.039
81.724	17.801	1018.350	784.357
82.739	18.029	1017.139	784.402
83.753	18.057	1017.343	784.618
84.768	18.404	1016.266	785.310
85.782	18.493	1015.504	785.058
86.797	18.428	1014.757	784.114
87.812	18.202	1013.681	782.176
88.826	18.324	1012.177	781.504
89.841	18.249	1011.475	780.553
90.855	18.320	1010.797	780.282
91.870	18.450	1010.066	780.245
92.884	18.465	1008.951	779.379
93.899	18.380	1008.209	778.351
94.914	18.510	1007.279	778.155
95.928	18.492	1006.338	777.279
96.943	18.315	1005.592	775.830
97.957	18.193	1004.888	774.665
98.972	18.399	1003.446	774.415
99.987	18.233	1003.165	773.382
101.001	18.228	1002.479	772.762
102.016	18.291	1001.560	772.269
103.030	18.360	1000.933	772.028
104.045	18.364	999.861	771.150
105.060	18.134	998.880	769.290
106.074	18.128	997.161	767.871
107.089	17.781	996.594	765.813
108.103	17.701	995.465	764.517
109.118	17.735	994.802	764.092
110.133	17.600	993.961	762.777
111.147	17.675	993.087	762.373
112.162	17.823	992.284	762.348
113.176	17.992	991.699	762.588
114.191	17.929	991.349	761.968
115.206	17.922	990.103	760.912
116.220	17.878	989.095	759.875
117.235	17.873	987.897	758.863
118.249	17.813	987.170	757.974
119.264	17.795	986.621	757.403
120.279	17.671	985.980	756.295
121.293	17.670	985.080	755.534
122.308	17.700	983.947	754.728
123.322	17.534	982.974	753.182
124.337	17.522	981.945	752.276
125.352	17.597	980.910	751.746
126.366	17.600	980.128	751.096
127.381	17.635	978.858	750.208
128.395	17.636	978.261	749.691
129.410	17.644	977.436	749.024
130.424	17.746	976.556	748.734
131.439	17.872	975.838	748.667
132.454	17.902	975.411	748.406
133.468	18.068	974.352	748.253
134.483	18.008	973.548	747.308
135.497	17.942	972.880	746.443
136.512	17.930	971.875	745.551
137.527	17.925	971.274	745.005
138.541	17.918	970.828	744.564
139.556	18.042	969.489	744.010
140.570	18.224	968.960	744.331
141.585	18.365	968.498	744.525
142.600	18.390	967.459	743.768
143.614	18.494	966.787	743.637
144.629	18.459	966.135	742.919
145.643	18.447	965.020	741.944
146.658	18.188	964.022	739.989
147.673	18.051	962.684	738.307
148.687	18.073	961.924	737.753
149.702	17.923	961.175	736.464
150.716	17.957	960.477	736.014
151.731	17.997	959.332	735.242
152.746	18.048	959.206	735.297
153.760	18.243	957.791	734.986
154.775	18.098	958.042	734.491
155.789	18.208	957.061	734.148
156.804	18.318	956.243	733.925
157.819	18.324	956.118	733.791
158.833	18.428	955.507	733.704
159.848	18.613	954.415	733.590
160.862	18.373	953.438	731.748
161.877	18.224	952.626	730.425
162.892	17.934	951.390	728.178
163.906	17.919	950.357	727.259
164.921	17.910	949.478	726.480
165.935	18.179	948.435	726.762
166.950	18.257	947.885	726.608
167.964	18.225	947.136	725.833
168.979	18.196	945.940	724.729
169.994	18.138	945.082	723.762
171.008	18.318	944.832	724.270
172.023	18.451	943.950	724.093
173.037	18.436	943.408	723.548
174.052	18.254	942.962	722.375
175.067	18.098	942.216	721.079
176.081	18.092	941.182	720.200
177.096	17.974	940.681	719.256
178.110	18.022	940.122	718.967
179.125	18.113	939.363	718.707
180.140	18.124	939.156	718.531
181.154	18.323	938.864	719.080
182.169	18.319	938.401	718.644
183.183	18.559	937.542	718.930
184.198	18.462	936.884	717.954
185.213	18.445	935.985	717.129
186.227	18.470	935.361	716.694
187.242	18.666	935.042	717.205
188.256	18.733	934.358	716.895
189.271	18.659	933.383	715.777
190.286	18.439	932.317	713.978
191.300	18.043	931.326	711.508
192.315	18.011	930.722	710.850
193.329	17.904	930.571	710.225
194.344	18.195	929.900	710.861
195.359	18.230	929.680	710.778
196.373	18.522	928.726	711.197
197.388	18.620	928.465	711.341
198.402	18.788	927.867	711.512
199.417	18.814	927.462	711.250
200.432	18.977	927.075	711.562
201.446	18.821	926.683	710.554
202.461	18.992	926.194	710.821
203.475	18.924	925.463	709.916
204.490	18.694	924.560	708.213
205.504	18.802	923.364	707.680
206.519	18.568	923.017	706.388
207.534	18.710	921.853	706.019
208.548	18.597	921.659	705.342
209.563	18.535	921.021	704.536
210.577	18.640	920.253	704.317
211.592	18.934	919.520	704.902
212.607	18.890	918.597	703.951
213.621	18.889	918.124	703.520
214.636	18.860	917.421	702.804
215.650	18.831	916.831	702.170
216.665	19.016	915.942	702.180
217.680	19.094	915.586	702.167
218.694	19.216	914.829	702.019
219.709	19.089	914.234	700.983
220.723	19.124	913.465	700.474
221.738	19.005	912.544	699.222
222.753	18.996	912.063	698.755
223.767	19.103	911.640	698.804
224.782	19.222	911.304	698.966
225.796	19.176	910.952	698.451
226.811	19.085	910.149	697.402
227.826	19.015	909.177	696.315
228.840	18.962	908.381	695.427
229.855	18.841	907.465	694.176
230.869	18.955	906.627	693.933
231.884	18.891	906.300	693.363
232.899	18.821	905.477	692.391
233.913	18.824	904.663	691.720
234.928	18.754	904.045	690.902
235.942	18.726	903.290	690.151
236.957	18.788	902.744	689.924
237.972	18.688	901.918	688.830
238.986	18.854	901.389	689.032
240.001	18.689	901.031	688.036
241.015	18.870	900.521	688.308
242.030	18.953	900.196	688.334
243.045	19.013	899.373	687.882
244.059	19.070	898.611	687.464
245.074	19.145	898.059	687.282
246.088	19.151	897.122	686.528
247.103	19.329	896.536	686.727
248.117	19.461	896.809	687.404
249.132	19.651	895.976	687.460
250.147	19.860	895.570	687.920
251.161	19.776	895.178	687.222
252.176	19.714	894.655	686.513
253.190	19.903	893.737	686.497
254.205	19.918	893.159	686.055
255.220	19.836	892.415	685.095
256.234	19.784	891.948	684.471
257.249	19.795	891.061	683.772
258.263	19.753	890.234	682.915
259.278	19.652	889.816	682.132
260.293	19.838	889.101	682.258
261.307	19.978	888.309	682.142
262.322	20.005	887.925	681.893
263.336	20.067	887.179	681.502
264.351	20.151	886.496	681.246
265.366	19.919	885.963	679.868
266.380	19.964	885.713	679.793
267.395	19.806	884.885	678.475
268.409	19.823	884.095	677.876
269.424	19.808	882.676	676.672
270.439	19.782	882.613	676.462
271.453	19.551	881.646	674.758
272.468	19.727	881.186	675.033
273.482	19.689	880.620	674.391
274.497	19.744	880.111	674.157
275.512	19.703	879.348	673.352
276.526	19.735	879.031	673.174
277.541	19.898	878.379	673.251
278.555	20.061	878.115	673.622
279.570	20.166	877.560	673.546
280.585	19.998	876.670	672.148
281.599	20.142	874.954	671.331
282.614	19.893	874.820	670.205
283.628	19.843	874.353	669.597
284.643	19.927	873.814	669.447
285.657	19.993	872.622	668.732
286.672	19.889	872.370	668.076
287.687	19.897	871.999	667.763
288.701	19.982	871.399	667.574
289.716	20.099	870.521	667.295
290.730	20.077	870.098	666.823
291.745	19.952	869.446	665.786
292.760	20.053	869.098	665.849
293.774	20.055	868.938	665.674
294.789	20.195	868.328	665.687
295.803	20.074	867.297	664.371
296.818	19.990	866.624	663.475
297.833	20.143	865.361	663.037
298.847	20.097	865.338	662.782
299.862	20.137	864.852	662.506
300.876	20.227	864.355	662.410
301.891	20.425	863.582	662.513
302.906	20.345	863.312	661.944
303.920	20.451	863.015	662.062
304.935	20.514	862.234	661.645
305.949	20.467	861.706	661.000
306.964	20.309	860.533	659.444
307.979	20.446	860.108	659.579
308.993	20.447	859.713	659.222
310.008	20.440	859.128	658.688
311.022	20.349	858.568	657.854
312.037	20.243	857.851	656.847
313.052	19.949	857.543	655.441
314.066	19.967	856.498	654.652
315.081	20.094	855.679	654.446
316.095	20.101	855.565	654.328
317.110	20.072	854.940	653.682
318.125	20.086	854.253	653.151
319.139	20.016	853.924	652.580
320.154	20.237	853.292	652.869
321.168	20.110	853.151	652.228
322.183	20.181	852.009	651.563
323.197	20.405	851.624	652.053
324.212	20.424	851.137	651.692
325.227	20.237	850.703	650.602
326.241	20.172	850.122	649.855
327.256	20.199	849.346	649.305
328.270	20.187	848.663	648.681
329.285	20.105	848.312	648.050
330.300	20.153	847.475	647.534
331.314	20.310	846.768	647.518
332.329	20.471	846.582	647.923
333.343	20.421	846.492	647.607
334.358	20.616	845.731	647.697
335.373	20.673	845.589	647.743
336.387	20.558	845.261	647.006
337.402	20.601	844.967	646.883
338.416	20.926	844.683	647.818
339.431	21.004	844.255	647.721
340.446	21.042	844.103	647.688
341.460	20.920	843.601	646.791
342.475	21.036	843.294	646.928
343.489	21.029	843.248	646.811
344.504	20.956	842.734	646.090
345.519	21.177	841.982	646.275
346.533	21.127	841.526	645.682
347.548	20.886	840.907	644.261
348.562	20.646	840.224	642.790
349.577	20.786	838.909	642.243
350.592	20.588	838.415	641.079
351.606	20.539	838.102	640.604
352.621	20.688	837.497	640.633
353.635	20.650	836.819	639.918
354.650	20.762	836.080	639.706
355.665	20.872	835.575	639.668
356.679	20.816	834.817	638.825
357.694	21.050	834.161	639.123
358.708	20.898	833.918	638.325
359.723	20.906	832.836	637.472
360.738	20.826	832.649	636.978
361.752	20.948	832.301	637.101
362.767	20.995	831.762	636.803
363.781	21.130	831.372	636.942
364.796	21.243	830.957	636.979
365.810	21.289	830.601	636.820
366.825	21.324	830.460	636.781
367.840	21.250	829.870	636.002
368.854	21.151	828.967	634.896
369.869	21.130	828.379	634.312
370.883	21.177	828.207	634.296
371.898	21.195	828.148	634.260
372.913	21.432	827.379	634.474
373.927	21.301	826.726	633.442
374.942	21.356	826.057	633.072
375.956	21.276	825.991	632.677
376.971	21.484	825.659	633.120
377.986	21.613	825.164	633.151
379.000	21.545	824.487	632.327
380.015	21.628	823.721	631.983
381.029	21.576	823.545	631.607
382.044	21.639	822.750	631.168
383.059	21.504	822.150	630.165
384.073	21.548	821.276	629.596
385.088	21.345	820.732	628.395
386.102	21.312	820.217	627.826
387.117	21.179	820.025	627.147
388.132	21.277	819.027	626.678
389.146	21.356	818.508	626.512
390.161	21.518	818.440	626.985
391.175	21.431	817.876	626.183
392.190	21.459	817.049	625.597
393.205	21.300	816.892	624.853
394.219	21.276	816.316	624.269
395.234	21.160	816.009	623.566
396.248	20.946	815.588	622.426
397.263	21.182	814.908	622.693
398.278	21.300	814.322	622.610
399.292	21.342	813.828	622.325
400.307	21.068	813.826	621.294
401.321	21.207	813.108	621.185
402.336	21.289	812.278	620.787
403.350	21.496	811.940	621.210
404.365	21.435	811.780	620.818
405.380	21.610	811.421	621.109
406.394	21.773	810.999	621.309
407.409	21.777	810.459	620.851
408.423	21.889	810.120	620.936
409.438	21.591	810.408	620.046
410.453	21.910	809.756	620.619
411.467	21.955	809.195	620.293
412.482	22.148	808.772	620.595
413.496	22.052	808.235	619.789
414.511	22.003	808.175	619.516
415.526	21.991	807.393	618.822
416.540	21.956	807.087	618.409
417.555	21.895	806.503	617.691
418.569	21.866	806.318	617.392
419.584	22.155	805.185	617.485
420.599	22.100	805.173	617.229
421.613	159.086	1369.999	1788.810
422.628	138.233	1452.312	1788.924
