DTS Sentinel unit serial number:	SN413079Multiplexer serial number:	ORYXHardware model number:	OX4-SRSoftware version number:	ORYX F/W v4.00 Oryx Data Collector v3.7.2.0data status	okinstallation	princeton_trtdifferential loss correction	single-endedforward channel	channel 1reverse channel	N/Adate	2019/09/15time	00:50:35forward acquisition time	60.00reverse acquisition time	0.00gamma	496.2192k internal	0.2321k external	0.2321temperature offset calibration	0.9989default loss term (dB/km)	0.3790temperature slope calibration	1.0000multiplexer offset coefficient	1.0000multiplexer slope coefficient	1.0000fibre end	0.00T internal ref (°C)	32.06T ext. ref 1 (°C)	4.57T ext. ref 2 (°C)	26.99length (m)	temperature (°C)	Stokes	anti-Stokes-747.200	800.000	0.017	-0.061
-746.185	100.489	0.295	0.347
-745.171	-26.894	0.172	-0.102
-744.156	800.000	-0.053	0.148
-743.142	420.054	-0.090	-0.196
-742.127	-7.411	-0.248	0.169
-741.112	-55.806	0.134	0.061
-740.098	-58.604	-0.045	-0.020
-739.083	-200.000	0.008	-0.059
-738.069	152.487	0.112	0.155
-737.054	20.141	0.255	0.208
-736.039	-200.000	-0.060	-0.277
-735.025	-141.935	0.467	0.047
-734.010	-33.800	0.086	0.048
-732.996	514.884	0.043	-0.101
-731.981	-200.000	0.001	-0.285
-730.966	-46.507	-0.250	0.124
-729.952	24.882	-0.271	-0.227
-728.937	800.000	-0.046	-0.194
-727.923	-71.524	-0.131	0.049
-726.908	-83.057	-0.133	0.043
-725.894	-89.611	-0.173	-0.051
-724.879	131.726	-0.106	0.138
-723.864	-35.415	0.356	-0.195
-722.850	-110.687	-0.110	0.023
-721.835	-200.000	0.036	0.178
-720.821	300.490	-0.044	0.083
-719.806	11.701	0.312	0.242
-718.791	-45.470	-0.217	-0.108
-717.777	800.000	-0.048	-0.201
-716.762	-25.610	-0.180	-0.107
-715.748	-6.121	0.279	-0.192
-714.733	-49.297	0.103	-0.050
-713.718	3.618	-0.099	-0.073
-712.704	-52.679	0.232	0.108
-711.689	21.896	0.249	-0.205
-710.675	435.680	-0.121	-0.266
-709.660	800.000	0.043	-0.157
-708.645	-45.828	0.259	-0.129
-707.631	-200.000	0.002	-0.147
-706.616	-200.000	0.024	0.206
-705.602	225.645	0.036	-0.058
-704.587	58.570	-0.355	-0.352
-703.572	-9.972	-0.148	-0.099
-702.558	-48.654	-0.134	0.065
-701.543	736.402	0.064	0.172
-700.529	27.254	0.067	-0.057
-699.514	-200.000	-0.020	0.096
-698.499	257.464	0.116	0.202
-697.485	800.000	-0.097	-0.413
-696.470	-200.000	0.016	-0.131
-695.456	178.141	-0.151	-0.222
-694.441	280.940	-0.158	-0.286
-693.426	-129.896	0.074	0.010
-692.412	-25.465	-0.153	0.091
-691.397	800.000	0.050	0.146
-690.383	0.427	0.046	0.033
-689.368	-200.000	-0.051	-0.329
-688.354	-200.000	-0.019	0.160
-687.339	800.000	-0.074	0.300
-686.324	-135.430	-0.243	-0.029
-685.310	-100.024	-0.142	0.036
-684.295	-108.216	0.085	0.019
-683.281	-137.646	0.206	-0.023
-682.266	-200.000	0.055	0.399
-681.251	278.416	0.120	-0.216
-680.237	-95.510	-0.177	-0.048
-679.222	53.921	0.084	-0.081
-678.208	82.664	-0.030	-0.033
-677.193	-200.000	-0.084	-0.393
-676.178	800.000	0.063	-0.196
-675.164	-200.000	-0.032	-0.152
-674.149	-200.000	0.013	0.078
-673.135	5.655	-0.242	-0.181
-672.120	-82.331	0.043	-0.014
-671.105	-60.063	-0.221	0.095
-670.091	-200.000	0.010	0.107
-669.076	510.828	-0.124	0.290
-668.062	692.827	0.075	-0.199
-667.047	743.339	0.088	0.240
-666.032	-112.868	-0.117	-0.023
-665.018	-200.000	0.004	0.069
-664.003	-98.436	-0.228	-0.059
-662.989	18.750	0.171	-0.138
-661.974	-31.172	0.154	-0.087
-660.959	34.764	0.138	-0.122
-659.945	43.737	-0.160	-0.147
-658.930	-108.663	0.225	0.049
-657.916	-89.059	-0.278	-0.083
-656.901	210.834	-0.228	-0.361
-655.886	-154.234	0.266	-0.018
-654.872	-65.834	-0.132	-0.053
-653.857	-97.402	0.233	-0.061
-652.843	-200.000	-0.072	0.430
-651.828	29.356	-0.138	0.118
-650.814	36.785	-0.182	0.162
-649.799	477.040	0.097	0.221
-648.784	-47.939	-0.276	-0.134
-647.770	-200.000	-0.000	0.230
-646.755	-200.000	0.027	0.134
-645.741	-34.262	-0.070	-0.038
-644.726	728.733	0.057	0.152
-643.711	-77.602	0.425	-0.148
-642.697	336.381	-0.123	-0.241
-641.682	-69.818	0.183	-0.070
-640.668	117.637	-0.028	0.035
-639.653	-200.000	-0.051	0.330
-638.638	216.140	0.150	0.239
-637.624	-99.694	-0.159	0.040
-636.609	-51.375	-0.130	0.061
-635.595	282.980	-0.116	-0.209
-634.580	-97.692	0.451	-0.118
-633.565	-149.149	-0.450	0.036
-632.551	-78.562	0.316	0.109
-631.536	-133.580	-0.271	0.034
-630.522	160.946	-0.217	-0.305
-629.507	-1.539	-0.130	-0.092
-628.492	-155.333	0.190	-0.012
-627.478	800.000	-0.094	-0.298
-626.463	17.527	0.057	-0.045
-625.449	-200.000	-0.040	0.255
-624.434	126.357	0.134	0.170
-623.419	442.135	-0.102	-0.224
-622.405	-61.216	0.183	0.077
-621.390	-80.083	0.163	0.055
-620.376	21.776	-0.154	-0.126
-619.361	31.939	-0.118	-0.102
-618.346	24.440	0.175	0.146
-617.332	39.006	-0.260	0.234
-616.317	71.431	0.273	-0.285
-615.303	-85.151	0.169	-0.053
-614.288	9.856	-0.217	0.166
-613.273	-60.900	0.032	0.014
-612.259	-108.074	0.237	-0.052
-611.244	186.635	-0.218	0.326
-610.230	800.000	0.038	0.134
-609.215	-171.164	-0.075	-0.003
-608.201	4.632	0.207	0.153
-607.186	-200.000	0.001	0.010
-606.171	800.000	-0.068	-0.236
-605.157	-133.792	-0.149	-0.019
-604.142	153.756	0.022	-0.030
-603.128	447.498	-0.035	0.077
-602.113	800.000	0.079	-0.284
-601.098	-81.875	-0.154	-0.051
-600.084	59.784	-0.088	0.087
-599.069	-50.237	0.257	-0.122
-598.055	-200.000	-0.031	-0.313
-597.040	-200.000	-0.002	-0.118
-596.025	37.625	-0.317	0.283
-595.011	-17.688	0.285	-0.180
-593.996	800.000	0.085	-0.260
-592.982	44.223	0.222	0.204
-591.967	-34.670	0.297	-0.163
-590.952	13.936	-0.234	0.183
-589.938	133.200	0.091	-0.118
-588.923	53.249	-0.142	-0.136
-587.909	106.135	-0.121	0.144
-586.894	-155.255	0.148	-0.010
-585.879	-61.284	-0.246	0.104
-584.865	0.993	0.150	-0.108
-583.850	501.311	0.062	-0.144
-582.836	95.339	-0.130	0.149
-581.821	9.164	-0.216	0.164
-580.806	-41.557	-0.246	0.127
-579.792	-200.000	0.005	0.163
-578.777	260.005	0.168	-0.291
-577.763	-46.753	-0.258	-0.127
-576.748	-35.829	-0.257	0.140
-575.733	-40.830	0.038	-0.020
-574.719	575.893	0.100	-0.246
-573.704	-153.575	0.234	0.016
-572.690	-200.000	-0.027	-0.244
-571.675	72.975	-0.017	-0.017
-570.661	-132.189	0.258	-0.034
-569.646	-131.398	0.281	0.037
-568.631	-23.995	-0.310	-0.186
-567.617	-96.371	0.144	0.038
-566.602	185.164	0.087	0.130
-565.588	800.000	-0.110	-0.354
-564.573	800.000	-0.102	-0.335
-563.558	-200.000	0.058	0.347
-562.544	143.893	-0.162	-0.217
-561.529	53.879	0.169	-0.163
-560.515	-55.408	0.086	-0.039
-559.500	800.000	-0.074	-0.227
-558.485	-59.368	-0.219	0.095
-557.471	-163.782	0.257	0.012
-556.456	-200.000	-0.009	-0.073
-555.442	-66.395	-0.307	-0.122
-554.427	-93.889	0.445	-0.123
-553.412	213.477	-0.193	-0.307
-552.398	-146.000	-0.219	0.019
-551.383	-65.785	-0.189	-0.076
-550.369	-125.225	0.253	0.039
-549.354	800.000	0.050	0.154
-548.339	-200.000	0.017	-0.248
-547.325	-200.000	0.016	-0.297
-546.310	77.663	-0.210	0.225
-545.296	-117.492	0.020	0.004
-544.281	-200.000	-0.011	-0.216
-543.266	-96.342	-0.059	0.016
-542.252	-200.000	-0.011	0.278
-541.237	-31.672	-0.234	-0.132
-540.223	-53.917	0.258	0.118
-539.208	-200.000	-0.013	-0.310
-538.193	-55.163	-0.008	-0.004
-537.179	-200.000	0.041	-0.234
-536.164	137.267	-0.158	-0.207
-535.150	-123.357	0.048	-0.008
-534.135	-200.000	0.011	0.107
-533.121	-200.000	0.058	0.468
-532.106	-157.563	0.056	0.003
-531.091	-111.350	-0.269	0.055
-530.077	152.668	0.055	-0.076
-529.062	85.235	-0.256	0.281
-528.048	-200.000	0.007	-0.183
-527.033	-72.977	0.104	0.038
-526.018	800.000	0.153	0.625
-525.004	33.353	0.211	0.183
-523.989	523.653	0.024	0.057
-522.975	365.376	0.247	0.498
-521.960	-95.739	-0.277	0.074
-520.945	111.181	-0.145	0.175
-519.931	-91.254	-0.183	-0.052
-518.916	-55.513	-0.305	0.137
-517.902	-131.572	-0.229	0.030
-516.887	565.648	0.134	-0.327
-515.872	-52.552	0.159	0.074
-514.858	288.702	-0.155	0.281
-513.843	-200.000	-0.028	-0.123
-512.829	-70.943	-0.186	-0.070
-511.814	-200.000	0.026	-0.194
-510.799	-200.000	-0.025	-0.241
-509.785	800.000	0.028	-0.101
-508.770	46.111	0.140	-0.130
-507.756	483.522	0.115	-0.262
-506.741	-200.000	0.007	-0.153
-505.726	0.956	-0.089	0.064
-504.712	136.101	0.086	0.112
-503.697	582.743	-0.066	-0.162
-502.683	103.475	0.249	0.292
-501.668	-200.000	0.009	0.080
-500.653	424.584	-0.140	-0.303
-499.639	27.292	0.362	-0.304
-498.624	34.097	-0.155	0.136
-497.610	-200.000	-0.004	-0.217
-496.595	-200.000	-0.009	0.045
-495.581	-65.629	-0.124	-0.050
-494.566	-122.971	-0.142	-0.023
-493.551	800.000	-0.047	0.198
-492.537	-200.000	-0.048	-0.273
-491.522	38.001	0.150	0.134
-490.508	800.000	-0.091	0.287
-489.493	800.000	-0.086	-0.240
-488.478	-200.000	-0.038	0.193
-487.464	42.761	0.053	0.048
-486.449	201.276	-0.100	0.154
-485.435	-76.796	0.216	0.076
-484.420	-119.502	0.152	-0.026
-483.405	49.020	-0.172	-0.161
-482.391	509.658	0.030	-0.069
-481.376	800.000	-0.036	-0.147
-480.362	800.000	-0.024	-0.078
-479.347	122.478	-0.159	0.199
-478.332	-9.733	-0.125	0.083
-477.318	-200.000	0.020	0.099
-476.303	76.137	-0.127	0.135
-475.289	800.000	0.027	-0.096
-474.274	-99.198	0.310	-0.078
-473.259	102.845	0.113	0.133
-472.245	81.113	0.268	0.289
-471.230	24.313	0.050	-0.042
-470.216	-31.299	-0.125	0.071
-469.201	275.428	0.050	0.089
-468.186	-135.383	0.085	0.010
-467.172	-164.793	-0.162	-0.007
-466.157	-150.180	-0.263	-0.020
-465.143	-103.258	0.085	0.020
-464.128	-117.348	0.018	0.003
-463.113	-17.848	-0.250	-0.157
-462.099	34.499	0.129	-0.113
-461.084	-53.119	-0.300	-0.138
-460.070	127.835	-0.142	0.180
-459.055	800.000	-0.183	-0.540
-458.040	210.843	0.075	0.118
-457.026	-11.246	-0.174	-0.114
-456.011	800.000	-0.020	0.056
-454.997	-102.614	0.029	0.007
-453.982	-200.000	0.002	0.051
-452.968	-200.000	0.014	-0.198
-451.953	31.865	-0.095	0.082
-450.938	32.454	-0.175	0.151
-449.924	-109.043	-0.279	0.059
-448.909	-188.082	0.372	-0.005
-447.895	-200.000	-0.031	0.465
-446.880	800.000	0.097	-0.350
-445.865	-70.691	-0.239	0.090
-444.851	216.089	0.065	-0.103
-443.836	-99.127	-0.270	0.068
-442.822	67.789	0.125	-0.128
-441.807	292.428	-0.028	0.051
-440.792	-50.942	-0.365	-0.171
-439.778	800.000	0.085	-0.292
-438.763	-15.321	0.060	0.038
-437.749	49.619	0.204	0.192
-436.734	-84.507	-0.174	0.055
-435.719	-200.000	-0.011	-0.189
-434.705	-49.757	0.346	-0.164
-433.690	800.000	0.093	0.327
-432.676	137.553	-0.127	-0.166
-431.661	-200.000	0.008	-0.326
-430.646	-122.959	0.076	0.012
-429.632	800.000	-0.050	0.177
-428.617	61.811	0.138	-0.137
-427.603	55.944	0.130	0.126
-426.588	658.564	-0.077	-0.198
-425.573	-84.088	0.466	0.148
-424.559	-142.852	-0.207	-0.020
-423.544	800.000	-0.033	-0.129
-422.530	-109.354	-0.060	-0.013
-421.515	-64.638	0.354	-0.143
-420.500	-99.399	0.159	-0.040
-419.486	-124.819	0.362	0.056
-418.471	-13.266	-0.349	0.226
-417.457	-107.899	-0.127	-0.028
-416.442	25.834	0.208	-0.173
-415.428	200.818	-0.110	0.169
-414.413	14.211	-0.151	0.117
-413.398	22.650	-0.224	0.183
-412.384	55.799	-0.046	0.044
-411.369	89.177	0.197	-0.219
-410.355	24.935	0.088	-0.073
-409.340	231.975	0.181	-0.296
-408.325	-75.857	0.288	0.102
-407.311	-200.000	-0.011	0.427
-406.296	-109.070	-0.034	0.007
-405.282	-200.000	-0.076	0.393
-404.267	-200.000	-0.073	0.349
-403.252	681.700	-0.039	-0.103
-402.238	-172.059	0.157	-0.005
-401.223	800.000	0.058	0.207
-400.209	1.453	0.129	0.092
-399.194	160.340	-0.127	0.176
-398.179	800.000	-0.083	0.229
-397.165	-109.834	-0.334	-0.070
-396.150	72.132	-0.027	0.028
-395.136	-200.000	0.008	-0.063
-394.121	800.000	-0.027	-0.106
-393.106	-11.728	0.122	-0.080
-392.092	-135.864	0.290	0.034
-391.077	-200.000	-0.012	0.172
-390.063	800.000	-0.101	0.340
-389.048	-140.863	0.157	0.016
-388.033	10.119	0.213	0.161
-387.019	135.053	-0.049	0.063
-386.004	-200.000	-0.029	0.130
-384.990	-136.942	0.328	-0.037
-383.975	-121.311	-0.137	0.023
-382.960	-128.828	0.228	0.032
-381.946	800.000	-0.046	-0.183
-380.931	-200.000	-0.034	-0.205
-379.917	800.000	0.101	0.318
-378.902	-16.053	0.159	-0.100
-377.888	234.289	0.101	0.165
-376.873	168.896	-0.070	-0.099
-375.858	-200.000	-0.010	0.056
-374.844	-0.360	0.232	0.164
-373.829	-127.764	-0.176	0.025
-372.815	-118.470	0.496	-0.088
-371.800	-200.000	-0.016	0.091
-370.785	800.000	0.063	0.223
-369.771	124.288	-0.047	0.059
-368.756	-175.567	0.206	-0.006
-367.742	275.735	0.150	0.266
-366.727	289.002	0.136	0.246
-365.712	-85.160	-0.194	0.060
-364.698	-18.670	-0.191	0.119
-363.683	285.978	-0.086	-0.155
-362.669	609.695	-0.157	-0.391
-361.654	119.890	-0.067	-0.082
-360.639	607.107	-0.085	0.212
-359.625	-200.000	0.030	0.133
-358.610	70.091	-0.199	-0.204
-357.596	-132.967	0.220	-0.028
-356.581	60.738	0.029	0.028
-355.566	660.294	0.060	-0.153
-354.552	25.384	0.049	0.040
-353.537	62.262	-0.202	-0.201
-352.523	-94.024	0.468	-0.128
-351.508	-107.610	0.702	0.153
-350.493	-89.332	-0.138	0.040
-349.479	-200.000	-0.012	0.104
-348.464	-62.304	0.227	0.094
-347.450	-47.299	-0.365	-0.177
-346.435	-60.208	0.168	0.071
-345.420	-38.826	0.022	-0.011
-344.406	149.917	-0.147	-0.199
-343.391	-97.832	0.169	0.044
-342.377	149.483	-0.253	-0.342
-341.362	51.831	-0.170	-0.161
-340.348	27.632	0.324	0.271
-339.333	33.081	-0.173	0.149
-338.318	-200.000	-0.103	0.000
-337.304	756.011	0.025	0.068
-336.289	157.428	-0.144	-0.199
-335.275	-200.000	-0.032	0.309
-334.260	-65.555	-0.201	0.080
-333.245	800.000	0.071	0.230
-332.231	-200.000	-0.023	0.113
-331.216	-117.814	-0.058	-0.010
-330.202	-164.649	-0.255	0.011
-329.187	-63.973	0.190	0.077
-328.172	-200.000	-0.058	-0.301
-327.158	800.000	-0.034	-0.094
-326.143	-117.009	-0.102	0.019
-325.129	-200.000	-0.050	0.350
-324.114	-200.000	0.029	-0.507
-323.099	-152.267	0.304	-0.022
-322.085	157.490	-0.106	0.146
-321.070	-45.459	0.389	0.192
-320.056	-71.803	-0.083	-0.031
-319.041	-68.688	-0.164	0.063
-318.026	-64.648	-0.271	-0.109
-317.012	-73.869	0.354	0.128
-315.997	336.063	-0.097	0.188
-314.983	40.984	0.175	-0.157
-313.968	-200.000	0.047	-0.255
-312.953	271.611	0.022	0.038
-311.939	-159.782	0.150	0.008
-310.924	-200.000	-0.010	-0.295
-309.910	-4.083	0.187	-0.129
-308.895	752.609	0.101	0.272
-307.880	97.791	-0.188	0.215
-306.866	395.121	0.024	-0.050
-305.851	241.138	-0.169	-0.281
-304.837	-200.000	0.008	0.198
-303.822	227.279	-0.022	0.035
-302.807	-97.957	0.535	0.137
-301.793	-134.793	0.093	0.011
-300.778	-68.071	-0.135	-0.052
-299.764	-200.000	-0.002	-0.167
-298.749	-200.000	0.001	0.033
-297.735	-126.995	0.335	0.049
-296.720	-74.646	0.245	-0.088
-295.705	-16.657	0.071	0.045
-294.691	800.000	-0.080	-0.247
-293.676	-93.520	-0.073	0.020
-292.662	-33.393	0.286	-0.157
-291.647	786.155	0.076	-0.207
-290.632	-175.254	0.191	-0.005
-289.618	735.185	0.019	0.051
-288.603	295.172	-0.057	-0.104
-287.589	-115.124	0.298	-0.056
-286.574	800.000	-0.055	0.169
-285.559	388.692	-0.028	-0.057
-284.545	-14.349	-0.150	-0.096
-283.530	-178.686	-0.107	0.002
-282.516	-14.561	-0.237	0.151
-281.501	-112.885	0.040	-0.008
-280.486	-55.224	-0.173	-0.077
-279.472	79.016	-0.182	0.194
-278.457	-200.000	0.010	0.095
-277.443	-46.706	-0.230	-0.112
-276.428	18.730	0.144	0.114
-275.413	98.446	0.326	0.373
-274.399	129.961	-0.189	-0.240
-273.384	-69.755	0.035	0.013
-272.370	26.010	-0.060	0.050
-271.355	244.496	-0.034	-0.056
-270.340	800.000	-0.011	-0.047
-269.326	151.603	0.047	0.063
-268.311	800.000	-0.013	0.038
-267.297	-173.601	0.501	-0.015
-266.282	291.345	0.108	0.194
-265.267	-19.418	0.137	-0.084
-264.253	-82.088	-0.246	0.080
-263.238	-166.155	0.083	-0.003
-262.224	800.000	-0.080	0.266
-261.209	-200.000	0.071	0.345
-260.195	65.530	0.035	-0.035
-259.180	-117.102	-0.023	0.004
-258.165	369.214	0.029	0.058
-257.151	-66.321	-0.299	-0.118
-256.136	-22.983	-0.108	-0.065
-255.122	-200.000	-0.007	-0.199
-254.107	555.021	-0.110	0.264
-253.092	794.487	-0.006	-0.016
-252.078	5.979	0.270	0.198
-251.063	-200.000	0.000	-0.075
-250.049	403.271	0.087	0.181
-249.034	347.198	-0.173	-0.338
-248.019	-143.773	0.455	0.043
-247.005	-77.511	0.228	-0.078
-245.990	-200.000	0.002	-0.052
-244.976	75.571	-0.400	-0.419
-243.961	-72.747	-0.378	-0.138
-242.946	-200.000	-0.028	-0.140
-241.932	-200.000	-0.006	-0.377
-240.917	-109.510	-0.214	-0.045
-239.903	-13.551	0.420	0.270
-238.888	-109.638	-0.126	-0.026
-237.873	-102.029	0.236	0.056
-236.859	424.225	0.052	0.112
-235.844	-77.546	-0.308	0.106
-234.830	90.616	0.163	0.180
-233.815	-54.950	0.071	-0.032
-232.800	239.207	-0.135	0.222
-231.786	222.556	0.181	-0.288
-230.771	46.474	-0.085	0.079
-229.757	-46.746	-0.070	0.034
-228.742	-27.862	0.011	0.006
-227.727	-114.000	-0.382	-0.073
-226.713	-189.380	0.096	0.001
-225.698	-200.000	-0.027	0.416
-224.684	17.729	-0.184	0.145
-223.669	351.608	0.091	0.178
-222.655	-139.167	-0.131	-0.014
-221.640	-51.085	-0.254	-0.118
-220.625	-200.000	0.011	-0.581
-219.611	37.899	-0.009	-0.008
-218.596	-87.324	0.135	0.040
-217.582	-66.143	-0.112	0.044
-216.567	632.345	0.026	0.066
-215.552	-200.000	0.003	-0.195
-214.538	-61.303	-0.244	-0.102
-213.523	-200.000	0.018	-0.126
-212.509	51.278	0.075	-0.071
-211.494	800.000	0.051	-0.191
-210.479	78.516	-0.270	0.285
-209.465	-37.297	0.115	-0.061
-208.450	-149.801	0.106	-0.008
-207.436	-105.248	0.323	-0.073
-206.421	-108.388	-0.171	-0.037
-205.406	-200.000	0.019	-0.335
-204.392	120.627	-0.108	-0.133
-203.377	-200.000	0.063	0.293
-202.363	-200.000	0.024	-0.270
-201.348	-146.702	0.199	0.017
-200.333	670.815	0.156	-0.401
-199.319	347.612	-0.079	0.154
-198.304	-131.867	-0.345	0.045
-197.290	129.580	0.123	-0.156
-196.275	-88.256	-0.120	0.036
-195.260	-200.000	-0.025	0.171
-194.246	-77.506	-0.047	0.016
-193.231	-9.163	-0.211	-0.139
-192.217	800.000	0.102	0.315
-191.202	122.263	-0.162	0.201
-190.187	66.772	-0.032	-0.033
-189.173	-115.842	-0.153	-0.028
-188.158	-5.935	-0.266	0.180
-187.144	162.332	0.066	0.092
-186.129	-200.000	0.027	-0.299
-185.114	259.125	-0.126	-0.215
-184.100	-187.745	-0.200	-0.003
-183.085	430.221	0.137	0.293
-182.071	-33.290	-0.161	0.088
-181.056	-57.314	0.173	0.075
-180.042	-200.000	-0.033	-0.272
-179.027	-127.222	-0.094	-0.014
-178.012	66.508	-0.042	-0.042
-176.998	-102.789	-0.077	0.018
-175.983	156.179	-0.122	0.166
-174.969	36.614	-0.258	0.225
-173.954	51.213	0.073	-0.069
-172.939	-188.744	-0.059	0.001
-171.925	-43.902	-0.272	-0.136
-170.910	-37.076	-0.105	-0.056
-169.896	-153.271	0.207	0.014
-168.881	117.377	0.145	0.176
-167.866	-181.954	0.186	-0.003
-166.852	674.059	-0.181	-0.464
-165.837	-85.411	0.158	0.049
-164.823	179.129	0.116	-0.168
-163.808	-54.603	-0.351	0.157
-162.793	-11.388	-0.306	0.199
-161.779	-65.925	0.231	-0.091
-160.764	108.945	-0.141	0.167
-159.750	353.725	-0.123	0.241
-158.735	251.231	-0.090	-0.152
-157.720	-36.806	0.210	0.111
-156.706	-86.982	0.041	-0.012
-155.691	-107.722	0.014	0.003
-154.677	800.000	-0.085	-0.296
-153.662	361.908	0.084	0.167
-152.647	-178.935	0.440	-0.010
-151.633	430.991	-0.058	0.124
-150.618	148.605	0.159	-0.212
-149.604	-182.801	0.254	0.005
-148.589	800.000	0.081	0.268
-147.574	-72.264	-0.276	0.101
-146.560	-179.123	-0.404	-0.009
-145.545	-51.115	-0.164	-0.076
-144.531	140.622	-0.253	0.330
-143.516	-84.255	-0.177	-0.055
-142.502	274.752	-0.045	-0.078
-141.487	-6.071	-0.176	0.119
-140.472	226.033	0.207	-0.331
-139.458	-26.055	0.210	-0.122
-138.443	60.498	-0.265	0.260
-137.429	-34.964	-0.171	-0.092
-136.414	800.000	-0.027	0.117
-135.399	-126.653	0.287	0.042
-134.385	281.054	-0.037	0.065
-133.370	-116.500	-0.084	-0.015
-132.356	-78.322	-0.198	0.067
-131.341	-66.618	0.152	0.060
-130.326	300.233	0.120	0.218
-129.312	-119.785	-0.364	0.062
-128.297	-200.000	0.011	0.058
-127.283	-59.929	-0.160	0.068
-126.268	-58.601	0.100	0.043
-125.253	12.798	0.233	-0.177
-124.239	7.748	-0.105	0.078
-123.224	480.278	-0.169	-0.378
-122.210	800.000	0.058	-0.212
-121.195	61.093	0.207	-0.203
-120.180	76.518	0.154	0.161
-119.166	-132.577	0.208	0.026
-118.151	-200.000	-0.024	-0.147
-117.137	800.000	-0.134	0.445
-116.122	-50.220	0.030	0.014
-115.107	83.989	-0.053	0.057
-114.093	-192.193	0.139	0.001
-113.078	800.000	0.095	0.340
-112.064	-146.503	-0.293	0.025
-111.049	-78.815	0.313	-0.105
-110.034	-49.945	-0.164	0.077
-109.020	-90.201	0.201	-0.058
-108.005	255.375	0.042	0.071
-106.991	800.000	-0.074	-0.249
-105.976	-77.698	-0.169	0.058
-104.962	623.042	-0.090	-0.223
-103.947	800.000	0.060	-0.169
-102.932	21.386	0.149	-0.119
-101.918	586.753	0.033	0.081
-100.903	-142.254	0.279	-0.027
-99.889	146.971	0.048	0.063
-98.874	-200.000	0.043	0.294
-97.859	3.548	0.114	0.082
-96.845	108.721	-0.138	0.163
-95.830	-200.000	0.026	-0.112
-94.816	233.571	0.134	-0.218
-93.801	75.046	0.077	-0.080
-92.786	-200.000	-0.014	-0.230
-91.772	-2.697	-0.313	-0.216
-90.757	-88.570	0.166	-0.049
-89.743	4.554	-0.084	-0.061
-88.728	-8.769	-0.073	0.048
-87.713	-68.424	-0.331	-0.127
-86.699	27.291	0.196	0.162
-85.684	94.732	-0.048	0.054
-84.670	-96.736	0.364	-0.094
-83.655	-200.000	-0.009	0.194
-82.640	-200.000	0.007	0.060
-81.626	693.535	-0.092	0.238
-80.611	-45.009	-0.322	-0.158
-79.597	-200.000	0.013	0.199
-78.582	91.829	-0.202	0.224
-77.567	-17.460	0.291	0.180
-76.553	326.459	-0.135	-0.255
-75.538	-105.451	0.346	0.077
-74.524	-132.906	-0.258	0.032
-73.509	800.000	0.067	-0.239
-72.494	158.791	0.124	-0.170
-71.480	0.345	0.080	-0.057
-70.465	41.320	0.147	0.131
-69.451	-200.000	0.029	0.173
-68.436	-200.000	-0.108	0.475
-67.422	-58.166	-0.163	0.070
-66.407	800.000	0.009	0.034
-65.392	-155.654	-0.204	0.013
-64.378	-200.000	0.016	-0.107
-63.363	339.481	0.043	0.083
-62.349	-125.027	0.437	0.066
-61.334	25.084	-1.213	-0.991
-60.319	48.953	0.638	0.589
-59.305	455.878	-0.414	-0.903
-58.290	114.209	0.855	1.024
-57.276	653.116	0.670	1.691
-56.261	-200.000	95.538	594.837
-55.246	658.265	1368.701	3464.260
-54.232	200.080	2542.486	3841.717
-53.217	120.385	2138.791	2613.342
-52.203	44.001	1602.592	1445.255
-51.188	35.576	1340.889	1158.654
-50.173	32.303	1299.410	1103.594
-49.159	55.212	1345.655	1279.976
-48.144	57.347	1362.166	1308.341
-47.130	35.914	1321.829	1144.012
-46.115	32.340	1304.356	1107.837
-45.100	32.182	1299.147	1102.444
-44.086	31.904	1297.418	1099.302
-43.071	31.967	1294.356	1097.029
-42.057	31.946	1292.408	1095.212
-41.042	31.934	1290.797	1093.733
-40.027	32.075	1289.038	1093.022
-39.013	31.992	1287.402	1091.110
-37.998	32.050	1285.464	1089.760
-36.984	32.046	1283.941	1088.406
-35.969	32.046	1282.124	1086.821
-34.954	32.062	1280.602	1085.576
-33.940	32.070	1279.146	1084.345
-32.925	32.186	1277.589	1083.655
-31.911	32.126	1276.329	1082.195
-30.896	32.177	1274.371	1080.784
-29.881	32.259	1273.274	1080.287
-28.867	32.205	1272.085	1078.924
-27.852	32.176	1270.625	1077.476
-26.838	32.238	1268.707	1076.162
-25.823	32.088	1268.416	1075.012
-24.809	32.198	1266.454	1073.935
-23.794	32.061	1265.488	1072.292
-22.779	32.042	1264.526	1071.328
-21.765	32.127	1263.011	1070.485
-20.750	32.226	1260.878	1069.197
-19.736	32.057	1260.296	1067.699
-18.721	32.081	1258.992	1066.688
-17.706	32.089	1257.865	1065.739
-16.692	31.957	1256.945	1064.166
-15.677	32.015	1255.615	1063.330
-14.663	32.053	1254.190	1062.295
-13.648	31.968	1253.469	1061.162
-12.633	31.977	1252.291	1060.171
-11.619	31.946	1251.631	1059.395
-10.604	32.063	1250.742	1059.262
-9.590	31.949	1249.593	1057.602
-8.575	31.868	1248.837	1056.466
-7.560	31.933	1247.883	1055.981
-6.546	31.935	1247.310	1055.469
-5.531	32.078	1245.677	1054.849
-4.517	31.977	1245.157	1053.799
-3.502	31.985	1244.556	1053.291
-2.487	31.982	1243.300	1052.170
-1.473	32.062	1239.428	1049.297
-0.458	30.588	1224.454	1028.435
0.556	25.823	1207.090	990.367
1.571	22.148	1212.108	974.066
2.586	21.169	1227.352	980.738
3.600	20.688	1216.048	968.938
4.615	15.704	1144.850	885.931
5.629	8.036	1071.843	791.408
6.644	4.703	1052.175	760.543
7.659	4.461	1049.632	757.458
8.673	4.582	1048.519	757.179
9.688	4.514	1047.736	756.215
10.702	4.688	1045.348	755.268
11.717	8.877	1051.361	779.963
12.731	15.990	1061.578	822.307
13.746	18.812	1063.837	837.768
14.761	17.981	1062.594	832.664
15.775	16.906	1060.992	826.101
16.790	15.994	1058.750	819.847
17.804	15.196	1056.630	814.258
18.819	14.932	1055.693	812.181
19.834	14.657	1054.861	810.136
20.848	14.393	1054.201	808.274
21.863	14.345	1053.051	807.088
22.877	14.011	1052.830	805.229
23.892	14.069	1051.791	804.643
24.907	14.114	1050.730	803.978
25.921	14.043	1049.961	802.978
26.936	13.984	1048.818	801.749
27.950	14.280	1047.376	801.999
28.965	14.256	1045.827	800.629
29.980	14.409	1044.031	799.915
30.994	14.385	1043.269	799.145
32.009	14.387	1042.219	798.283
33.023	14.338	1041.088	797.109
34.038	14.310	1040.173	796.203
35.053	14.244	1039.534	795.332
36.067	14.327	1038.035	794.510
37.082	14.160	1037.670	793.364
38.096	14.331	1036.913	793.527
39.111	14.310	1036.217	792.827
40.126	14.189	1034.630	790.965
41.140	14.104	1033.761	789.828
42.155	14.052	1032.646	788.661
43.169	13.893	1031.418	786.900
44.184	13.999	1030.249	786.436
45.199	13.984	1029.285	785.563
46.213	13.990	1028.643	785.029
47.228	14.129	1027.397	784.665
48.242	14.190	1026.013	783.827
49.257	14.201	1025.248	783.225
50.271	14.271	1024.272	782.741
51.286	14.296	1023.767	782.404
52.301	14.249	1022.818	781.385
53.315	14.096	1021.865	779.872
54.330	14.177	1020.531	779.167
55.344	14.105	1019.477	777.953
56.359	14.091	1019.165	777.583
57.374	14.104	1018.153	776.801
58.388	14.018	1017.027	775.472
59.403	13.881	1016.681	774.502
60.417	13.907	1015.637	773.761
61.432	13.830	1015.317	773.088
62.447	13.877	1014.239	772.418
63.461	13.923	1013.141	771.726
64.476	13.820	1012.742	770.876
65.490	13.906	1011.535	770.287
66.505	13.878	1010.752	769.496
67.520	14.035	1009.974	769.560
68.534	13.811	1009.525	768.111
69.549	13.877	1008.530	767.594
70.563	13.863	1008.000	767.058
71.578	13.905	1006.983	766.410
72.593	13.916	1006.094	765.716
73.607	13.716	1005.972	764.635
74.622	13.790	1005.250	764.359
75.636	13.834	1004.428	763.866
76.651	13.883	1003.656	763.439
77.666	13.984	1003.167	763.461
78.680	13.872	1002.503	762.374
79.695	13.794	1002.034	761.596
80.709	14.011	1001.405	762.042
81.724	13.892	1001.259	761.321
82.739	14.106	1000.076	761.333
83.753	14.307	999.092	761.433
84.768	14.219	998.717	760.680
85.782	14.372	997.409	760.316
86.797	14.297	996.954	759.559
87.812	14.229	995.731	758.249
88.826	14.369	994.544	757.914
89.841	14.394	993.478	757.151
90.855	14.221	993.135	756.034
91.870	14.216	992.488	755.451
92.884	14.352	991.401	755.177
93.899	14.285	990.863	754.394
94.914	14.455	989.821	754.304
95.928	14.454	988.575	753.286
96.943	14.348	988.095	752.374
97.957	14.240	987.727	751.537
98.972	14.442	986.409	751.378
99.987	14.294	985.744	750.138
101.001	14.261	984.947	749.316
102.016	14.249	984.094	748.550
103.030	14.427	982.878	748.358
104.045	14.371	982.410	747.682
105.060	14.300	981.093	746.298
106.074	14.139	980.349	744.945
107.089	14.082	979.273	743.803
108.103	13.869	978.566	742.251
109.118	14.090	977.444	742.321
110.133	13.914	976.960	741.103
111.147	14.063	975.216	740.378
112.162	14.157	974.978	740.550
113.176	14.214	973.804	739.845
114.191	13.952	974.023	738.780
115.206	14.052	973.033	738.408
116.220	14.073	972.096	737.724
117.235	14.201	971.097	737.468
118.249	14.199	969.952	736.528
119.264	14.201	969.307	735.981
120.279	14.041	968.743	734.778
121.293	13.945	968.052	733.766
122.308	13.926	967.262	733.017
123.322	14.073	965.680	732.405
124.337	13.971	964.689	731.137
125.352	14.061	964.054	730.985
126.366	13.961	963.225	729.854
127.381	14.156	961.676	729.472
128.395	14.027	961.148	728.441
129.410	14.073	960.381	727.996
130.424	14.092	959.550	727.386
131.439	14.177	958.984	727.264
132.454	14.217	958.398	726.929
133.468	14.188	957.159	725.801
134.483	14.221	956.057	725.043
135.497	14.243	955.680	724.788
136.512	14.278	954.743	724.165
137.527	14.218	953.950	723.241
138.541	14.125	953.713	722.593
139.556	14.266	952.813	722.456
140.570	14.307	952.176	722.090
141.585	14.425	951.275	721.854
142.600	14.385	950.771	721.233
143.614	14.376	949.656	720.284
144.629	14.447	948.682	719.788
145.643	14.401	947.688	718.774
146.658	14.382	946.740	717.908
147.673	14.343	945.833	716.989
148.687	14.186	945.062	715.668
149.702	14.249	944.195	715.217
150.716	14.207	943.310	714.302
151.731	14.235	942.814	713.984
152.746	14.176	942.389	713.347
153.760	14.291	941.755	713.298
154.775	14.306	941.167	712.851
155.789	14.288	940.685	712.348
156.804	14.512	939.107	712.047
157.819	14.454	939.039	711.684
158.833	14.506	938.643	711.544
159.848	14.472	937.727	710.638
160.862	14.580	936.436	710.060
161.877	14.329	935.824	708.466
162.892	14.341	934.883	707.742
163.906	14.286	933.790	706.616
164.921	14.406	933.098	706.538
165.935	14.441	932.177	705.926
166.950	14.380	931.380	705.002
167.964	14.375	930.426	704.199
168.979	14.341	929.552	703.332
169.994	14.374	928.599	702.687
171.008	14.370	928.184	702.294
172.023	14.524	926.920	701.924
173.037	14.569	926.581	701.793
174.052	14.496	926.126	701.079
175.067	14.413	925.199	699.968
176.081	14.382	924.499	699.246
177.096	14.396	924.240	699.047
178.110	14.333	923.602	698.239
179.125	14.491	922.829	698.252
180.140	14.508	922.527	698.037
181.154	14.544	921.950	697.687
182.169	14.630	921.253	697.455
183.183	14.638	920.966	697.210
184.198	14.599	920.206	696.410
185.213	14.521	919.440	695.445
186.227	14.683	918.760	695.544
187.242	14.722	918.390	695.365
188.256	14.839	917.308	694.970
189.271	14.797	916.414	694.056
190.286	14.680	915.581	692.881
191.300	14.385	914.959	691.124
192.315	14.312	914.405	690.344
193.329	14.505	913.942	690.731
194.344	14.465	913.273	690.000
195.359	14.504	913.125	689.989
196.373	14.696	912.252	690.058
197.388	14.699	911.942	689.776
198.402	14.872	911.558	690.141
199.417	14.943	910.470	689.549
200.432	14.964	910.125	689.313
201.446	14.955	909.909	689.049
202.461	15.157	908.755	688.947
203.475	15.073	908.500	688.348
204.490	14.952	907.789	687.249
205.504	14.835	907.164	686.235
206.519	14.848	906.247	685.535
207.534	14.833	905.623	684.939
208.548	14.859	904.925	684.456
209.563	15.071	904.192	684.711
210.577	14.952	903.605	683.717
211.592	14.948	903.305	683.416
212.607	15.010	902.478	682.982
213.621	15.068	901.431	682.367
214.636	15.055	900.701	681.701
215.650	15.123	900.096	681.459
216.665	15.103	899.402	680.791
217.680	15.096	898.737	680.201
218.694	15.281	897.983	680.319
219.709	15.152	897.569	679.421
220.723	15.090	897.459	679.027
221.738	15.179	896.068	678.273
222.753	15.070	895.939	677.678
223.767	15.211	895.403	677.779
224.782	15.421	894.538	677.916
225.796	15.356	894.047	677.222
226.811	15.194	893.435	676.042
227.826	15.144	892.941	675.409
228.840	15.221	892.130	675.046
229.855	15.337	891.459	674.942
230.869	15.163	890.415	673.395
231.884	15.173	889.972	673.040
232.899	15.223	888.912	672.381
233.913	15.094	888.214	671.277
234.928	15.062	888.064	670.973
235.942	15.179	886.636	670.304
236.957	15.159	886.476	670.045
237.972	15.199	885.688	669.550
238.986	15.187	885.328	669.171
240.001	15.100	884.756	668.332
241.015	15.161	883.923	667.887
242.030	15.315	883.321	667.986
243.045	15.380	883.050	667.981
244.059	15.287	882.347	667.018
245.074	15.396	881.233	666.551
246.088	15.270	880.962	665.785
247.103	15.419	880.473	665.949
248.117	15.413	879.887	665.423
249.132	15.748	879.272	666.228
250.147	15.861	878.575	666.086
251.161	15.695	878.514	665.323
252.176	15.720	877.823	664.840
253.190	15.879	876.814	664.645
254.205	15.913	876.500	664.484
255.220	15.826	875.781	663.536
256.234	15.703	875.316	662.642
257.249	15.827	874.226	662.247
258.263	15.878	873.730	662.013
259.278	15.894	872.932	661.410
260.293	16.005	872.378	661.368
261.307	16.105	871.732	661.213
262.322	15.884	871.124	659.828
263.336	15.924	870.770	659.658
264.351	16.011	870.033	659.382
265.366	16.036	869.437	658.969
266.380	16.027	868.856	658.436
267.395	16.032	867.897	657.671
268.409	16.064	866.987	657.047
269.424	16.070	866.076	656.321
270.439	15.935	865.779	655.511
271.453	15.963	865.069	655.026
272.468	15.963	864.756	654.729
273.482	15.951	864.372	654.334
274.497	16.101	863.309	654.053
275.512	16.102	862.875	653.674
276.526	16.010	862.611	653.057
277.541	16.087	861.895	652.754
278.555	16.121	861.630	652.630
279.570	16.261	860.715	652.419
280.585	16.241	859.834	651.616
281.599	16.107	859.387	650.702
282.614	16.181	858.511	650.267
283.628	16.177	857.914	649.743
284.643	15.954	857.551	648.550
285.657	16.101	856.914	648.576
286.672	16.253	856.153	648.527
287.687	16.184	855.637	647.814
288.701	16.108	855.398	647.286
289.716	16.302	854.691	647.435
290.730	16.240	854.048	646.656
291.745	16.233	853.596	646.229
292.760	16.387	852.568	645.983
293.774	16.337	851.935	645.256
294.789	16.232	851.601	644.543
295.803	16.437	850.532	644.459
296.818	16.273	850.297	643.597
297.833	16.368	849.238	643.104
298.847	16.325	849.121	642.791
299.862	16.408	848.664	642.707
300.876	16.283	848.620	642.140
301.891	16.424	847.801	641.998
302.906	16.536	846.830	641.633
303.920	16.661	846.486	641.787
304.935	16.520	846.007	640.835
305.949	16.613	845.360	640.641
306.964	16.621	844.380	639.872
307.979	16.673	843.493	639.339
308.993	16.553	843.674	638.965
310.008	16.652	842.890	638.690
311.022	16.582	842.531	638.097
312.037	16.496	841.601	637.013
313.052	16.337	841.424	636.223
314.066	16.440	840.686	635.996
315.081	16.458	840.072	635.543
316.095	16.512	839.270	635.081
317.110	16.555	838.694	634.752
318.125	16.642	838.019	634.510
319.139	16.569	837.752	633.979
320.154	16.490	837.699	633.587
321.168	16.538	836.797	633.029
322.183	16.716	836.159	633.157
323.197	16.564	836.153	632.525
324.212	16.529	835.541	631.876
325.227	16.630	834.757	631.606
326.241	16.665	833.956	631.075
327.256	16.519	833.645	630.238
328.270	16.601	832.765	629.821
329.285	16.730	832.321	629.909
330.300	16.630	831.865	629.138
331.314	16.725	831.202	628.934
332.329	16.785	830.852	628.834
333.343	16.769	830.608	628.537
334.358	16.706	830.214	627.948
335.373	16.724	830.244	627.981
336.387	16.914	829.400	627.993
337.402	16.898	829.190	627.719
338.416	17.042	828.839	627.930
339.431	17.103	828.388	627.759
340.446	17.079	828.150	627.433
341.460	17.200	827.926	627.657
342.475	17.186	827.483	627.214
343.489	17.246	826.458	626.601
344.504	17.250	826.398	626.514
345.519	17.116	825.977	625.649
346.533	17.311	825.533	625.973
347.548	17.134	825.089	624.929
348.562	16.950	824.165	623.498
349.577	17.148	823.515	623.679
350.592	16.933	822.794	622.289
351.606	17.004	822.419	622.212
352.621	17.037	821.578	621.639
353.635	17.171	821.063	621.686
354.650	17.116	820.589	621.071
355.665	17.155	820.136	620.815
356.679	17.089	819.494	620.034
357.694	17.195	818.561	619.660
358.708	17.220	817.761	619.091
359.723	17.141	817.738	618.730
360.738	17.262	816.995	618.553
361.752	17.155	816.694	617.881
362.767	17.357	816.159	618.157
363.781	17.436	815.444	617.846
364.796	17.527	815.302	618.014
365.810	17.525	814.915	617.658
366.825	17.572	814.508	617.466
367.840	17.468	813.953	616.616
368.854	17.405	813.664	616.114
369.869	17.401	813.084	615.605
370.883	17.480	812.500	615.394
371.898	17.606	812.134	615.516
372.913	17.558	812.015	615.200
373.927	17.524	811.349	614.517
374.942	17.656	810.613	614.380
375.956	17.703	810.584	614.475
376.971	17.670	810.009	613.865
377.986	17.663	809.542	613.431
379.000	17.789	809.156	613.538
380.015	17.796	808.422	612.952
381.029	17.729	807.866	612.237
382.044	17.838	807.219	612.082
383.059	17.820	806.634	611.520
384.073	17.806	806.347	611.199
385.088	17.768	805.463	610.341
386.102	17.663	804.703	609.333
387.117	17.741	803.831	608.898
388.132	17.701	803.906	608.759
389.146	17.759	803.567	608.655
390.161	17.714	802.890	607.929
391.175	17.768	802.402	607.698
392.190	17.730	801.856	607.094
393.205	17.607	801.464	606.307
394.219	17.606	801.396	606.196
395.234	17.640	800.947	605.924
396.248	17.743	799.870	605.421
397.263	17.729	799.539	605.070
398.278	17.698	799.309	604.732
399.292	17.741	798.985	604.583
400.307	17.675	798.361	603.826
401.321	17.675	798.154	603.614
402.336	17.781	797.508	603.450
403.350	17.938	797.274	603.772
404.365	17.786	796.918	602.911
405.380	18.046	796.277	603.293
406.394	18.107	795.742	603.051
407.409	18.091	795.548	602.793
408.423	18.001	795.196	602.154
409.438	18.148	794.630	602.189
410.453	18.176	794.625	602.233
411.467	18.089	794.191	601.542
412.482	18.296	793.605	601.773
413.496	18.401	792.972	601.612
414.511	18.404	792.759	601.405
415.526	18.209	792.680	600.609
416.540	18.064	792.419	599.849
417.555	18.209	791.437	599.561
418.569	18.385	790.986	599.782
419.584	18.287	790.690	599.163
420.599	18.294	790.265	598.811
421.613	156.257	1370.567	1794.530
422.628	135.151	1455.130	1794.618
