DTS Sentinel unit serial number:	SN413079Multiplexer serial number:	ORYXHardware model number:	OX4-SRSoftware version number:	ORYX F/W v4.00 Oryx Data Collector v3.7.2.0data status	okinstallation	princeton_trtdifferential loss correction	single-endedforward channel	channel 1reverse channel	N/Adate	2019/09/19time	09:22:35forward acquisition time	60.00reverse acquisition time	0.00gamma	496.2192k internal	0.2342k external	0.2342temperature offset calibration	0.9999default loss term (dB/km)	0.3790temperature slope calibration	1.0000multiplexer offset coefficient	1.0000multiplexer slope coefficient	1.0000fibre end	0.00T internal ref (°C)	22.48T ext. ref 1 (°C)	0.62T ext. ref 2 (°C)	19.46length (m)	temperature (°C)	Stokes	anti-Stokes-747.200	2.100	-0.388	0.281
-746.185	288.451	0.172	0.312
-745.171	-200.000	0.022	-0.181
-744.156	-134.275	-0.426	-0.052
-743.142	-200.000	-0.021	0.154
-742.127	-200.000	-0.004	0.088
-741.112	-4.409	0.074	-0.051
-740.098	-74.269	-0.585	0.212
-739.083	-104.105	-0.261	0.061
-738.069	-86.147	-0.325	0.101
-737.054	-60.714	0.140	-0.060
-736.039	311.918	-0.066	0.124
-735.025	-79.806	0.223	0.075
-734.010	800.000	0.048	0.156
-732.996	-92.343	-0.445	0.126
-731.981	47.733	-0.332	0.310
-730.966	37.912	0.107	0.095
-729.952	158.923	-0.097	-0.135
-728.937	4.935	-0.043	0.031
-727.923	-0.194	0.355	-0.253
-726.908	496.226	0.062	0.142
-725.894	-45.045	0.332	-0.165
-724.879	160.920	-0.100	0.140
-723.864	3.172	-0.085	0.062
-722.850	800.000	0.064	0.181
-721.835	121.777	0.066	-0.083
-720.821	342.674	-0.097	-0.191
-719.806	-200.000	0.021	0.097
-718.791	-99.236	-0.128	0.032
-717.777	608.487	-0.068	0.171
-716.762	0.803	-0.114	0.082
-715.748	168.195	0.026	0.037
-714.733	204.008	-0.151	0.234
-713.718	800.000	-0.097	-0.283
-712.704	447.419	-0.089	0.196
-711.689	71.685	0.037	0.039
-710.675	58.164	-0.141	-0.138
-709.660	-200.000	-0.038	-0.281
-708.645	52.922	-0.178	0.171
-707.631	234.397	0.019	0.031
-706.616	146.939	-0.154	-0.207
-705.602	-57.540	0.387	0.170
-704.587	-66.239	-0.261	0.104
-703.572	-40.442	-0.247	0.128
-702.558	37.855	-0.209	-0.186
-701.543	-111.970	-0.117	0.024
-700.529	79.500	-0.082	0.088
-699.514	-113.932	-0.156	-0.030
-698.499	760.431	-0.174	-0.472
-697.485	-200.000	0.009	0.181
-696.470	-171.062	-0.374	0.013
-695.456	711.587	-0.072	0.190
-694.441	-31.704	-0.310	0.174
-693.426	-92.981	0.251	-0.070
-692.412	79.730	-0.118	-0.126
-691.397	-200.000	-0.006	-0.119
-690.383	-150.744	-0.120	-0.009
-689.368	-200.000	-0.044	0.345
-688.354	-67.590	-0.490	0.192
-687.339	-75.186	-0.130	0.047
-686.324	19.937	0.199	0.160
-685.310	-163.343	-0.583	0.028
-684.295	398.964	0.103	0.216
-683.281	35.597	0.084	-0.073
-682.266	-162.484	0.179	-0.009
-681.251	58.562	0.117	0.115
-680.237	-127.852	-0.504	-0.072
-679.222	-152.729	-0.074	0.005
-678.208	129.527	0.206	-0.263
-677.193	-161.096	-0.086	0.005
-676.178	396.575	-0.091	-0.190
-675.164	256.764	0.056	0.096
-674.149	166.487	-0.211	-0.299
-673.135	152.221	0.248	-0.338
-672.120	-57.398	0.201	-0.088
-671.105	-200.000	-0.053	0.355
-670.091	6.705	0.386	0.287
-669.076	-200.000	-0.022	0.463
-668.062	-59.130	0.087	0.037
-667.047	-200.000	-0.103	0.000
-666.032	48.028	0.115	0.107
-665.018	-200.000	0.018	-0.142
-664.003	-200.000	-0.030	-0.458
-662.989	115.627	-0.134	-0.164
-661.974	-200.000	-0.011	-0.164
-660.959	800.000	-0.084	-0.253
-659.945	304.188	0.216	-0.401
-658.930	-192.139	0.179	-0.002
-657.916	-116.202	0.124	-0.023
-656.901	-166.419	0.162	-0.007
-655.886	119.309	0.128	0.159
-654.872	-32.134	0.018	0.010
-653.857	-73.061	-0.287	0.105
-652.843	2.607	0.160	-0.116
-651.828	-200.000	0.019	-0.299
-650.814	116.786	0.049	-0.060
-649.799	-157.457	-0.310	-0.019
-648.784	-200.000	-0.006	-0.072
-647.770	310.579	-0.080	0.150
-646.755	-113.011	-0.366	-0.072
-645.741	105.242	-0.105	-0.124
-644.726	5.056	0.144	0.106
-643.711	-200.000	0.038	-0.597
-642.697	800.000	-0.051	0.151
-641.682	-10.363	-0.400	-0.265
-640.668	-200.000	0.005	-0.104
-639.653	196.137	-0.250	-0.380
-638.638	-166.300	-0.111	-0.005
-637.624	78.190	-0.216	-0.230
-636.609	454.236	-0.160	-0.354
-635.595	97.608	-0.087	0.099
-634.580	-47.541	-0.032	0.016
-633.565	-200.000	-0.032	-0.292
-632.551	-50.078	0.231	0.109
-631.536	-15.197	0.156	0.100
-630.522	106.900	-0.105	0.124
-629.507	-165.542	0.227	0.010
-628.492	256.694	-0.202	-0.346
-627.478	-31.363	0.096	0.054
-626.463	-28.848	0.125	0.072
-625.449	-24.267	0.114	0.068
-624.434	800.000	0.118	0.348
-623.419	-42.559	0.291	0.148
-622.405	-136.338	0.349	-0.041
-621.390	-114.652	0.209	0.040
-620.376	176.850	-0.150	-0.217
-619.361	255.872	-0.095	0.162
-618.346	-200.000	-0.060	-0.345
-617.332	178.164	0.155	-0.225
-616.317	-92.166	-0.128	-0.036
-615.303	174.487	0.077	-0.111
-614.288	266.170	0.183	-0.319
-613.273	-52.871	-0.104	0.048
-612.259	-200.000	-0.104	-0.477
-611.244	800.000	-0.033	-0.145
-610.230	-129.515	-0.250	-0.035
-609.215	218.044	-0.159	-0.253
-608.201	561.738	0.126	-0.303
-607.186	605.388	-0.077	-0.190
-606.171	-114.777	-0.341	-0.065
-605.157	229.925	-0.061	0.099
-604.142	-200.000	0.005	-0.192
-603.128	-91.598	-0.153	0.044
-602.113	62.091	-0.161	-0.160
-601.098	4.930	0.084	-0.061
-600.084	271.262	-0.055	0.097
-599.069	-200.000	-0.063	0.337
-598.055	-200.000	0.003	0.081
-597.040	311.531	-0.059	-0.111
-596.025	392.685	-0.044	-0.092
-595.011	-200.000	0.015	0.077
-593.996	800.000	-0.048	0.166
-592.982	-200.000	-0.061	0.349
-591.967	800.000	0.112	0.339
-590.952	800.000	0.055	-0.205
-589.938	800.000	0.071	0.197
-588.923	-83.032	0.045	0.014
-587.909	174.201	-0.113	-0.162
-586.894	-63.185	-0.290	-0.119
-585.879	230.576	0.257	-0.418
-584.865	-13.810	-0.226	-0.146
-583.850	-68.886	-0.340	0.131
-582.836	6.849	0.191	-0.142
-581.821	-107.548	0.250	0.054
-580.806	83.424	0.075	-0.081
-579.792	-149.122	-0.101	-0.008
-578.777	-13.954	0.134	-0.086
-577.763	-126.230	-0.291	-0.043
-576.748	-12.233	0.254	-0.166
-575.733	376.984	0.089	-0.182
-574.719	13.829	-0.187	0.144
-573.704	210.803	-0.107	-0.167
-572.690	800.000	0.074	-0.296
-571.675	289.298	0.101	-0.182
-570.661	469.192	0.107	0.240
-569.646	-66.098	0.280	0.111
-568.631	585.191	-0.069	0.169
-567.617	210.245	0.115	-0.180
-566.602	294.133	-0.089	0.162
-565.588	-25.358	0.154	0.091
-564.573	-7.591	-0.108	-0.072
-563.558	-38.849	0.282	0.148
-562.544	730.565	0.027	0.073
-561.529	187.120	0.188	0.279
-560.515	452.389	0.091	0.199
-559.500	-115.367	-0.247	0.046
-558.485	-11.451	-0.231	-0.151
-557.471	147.462	0.112	0.151
-556.456	-200.000	0.011	-0.483
-555.442	-173.691	0.158	-0.005
-554.427	-21.403	-0.171	0.104
-553.412	274.239	-0.079	-0.139
-552.398	270.252	0.124	-0.217
-551.383	259.454	0.073	-0.125
-550.369	-138.558	-0.338	-0.037
-549.354	-82.105	0.148	-0.048
-548.339	161.013	-0.064	0.089
-547.325	314.667	-0.075	0.141
-546.310	800.000	-0.069	-0.266
-545.296	-0.737	0.079	0.056
-544.281	-100.644	0.222	-0.054
-543.266	-200.000	0.043	0.318
-542.252	123.875	-0.212	0.265
-541.237	-200.000	-0.012	-0.214
-540.223	-87.733	0.137	0.041
-539.208	1.327	-0.156	0.112
-538.193	-200.000	0.006	0.062
-537.179	-13.545	0.247	-0.159
-536.164	64.523	-0.503	-0.504
-535.150	-122.394	-0.063	0.010
-534.135	93.834	0.151	0.170
-533.121	-40.406	0.231	-0.119
-532.106	272.210	0.042	0.073
-531.091	20.669	0.196	0.158
-530.077	-24.409	0.276	0.163
-529.062	-200.000	0.049	-0.494
-528.048	-200.000	0.000	-0.067
-527.033	-136.000	-0.407	-0.048
-526.018	-146.729	0.284	-0.024
-525.004	48.331	-0.066	-0.061
-523.989	-20.399	0.323	0.197
-522.975	-88.774	-0.113	-0.033
-521.960	-14.817	0.181	-0.116
-520.945	27.094	0.084	-0.070
-519.931	665.107	0.136	-0.349
-518.916	36.470	-0.152	-0.133
-517.902	15.397	0.162	0.127
-516.887	-200.000	-0.048	-0.228
-515.872	255.794	-0.078	-0.133
-514.858	411.307	-0.021	-0.045
-513.843	-175.109	0.067	-0.002
-512.829	-58.488	-0.112	0.048
-511.814	38.927	-0.049	0.044
-510.799	-200.000	-0.041	0.239
-509.785	44.795	-0.073	0.067
-508.770	401.938	-0.124	0.258
-507.756	-200.000	-0.061	-0.269
-506.741	169.715	0.139	-0.197
-505.726	-103.343	0.104	0.024
-504.712	-140.194	-0.213	-0.022
-503.697	-200.000	-0.002	-0.150
-502.683	800.000	0.106	-0.302
-501.668	20.555	-0.099	-0.079
-500.653	-68.536	0.085	-0.033
-499.639	53.576	-0.123	-0.117
-498.624	113.352	-0.119	0.143
-497.610	800.000	-0.080	-0.273
-496.595	-137.609	-0.346	-0.039
-495.581	142.427	-0.095	-0.125
-494.566	-44.133	-0.171	0.085
-493.551	114.376	0.197	0.238
-492.537	800.000	0.157	0.538
-491.522	-108.881	-0.152	0.032
-490.508	-27.844	-0.394	0.226
-489.493	369.984	-0.117	0.235
-488.478	-153.029	-0.301	0.021
-487.464	199.094	-0.158	-0.240
-486.449	-42.174	-0.185	-0.094
-485.435	-24.797	0.161	0.095
-484.420	38.400	0.121	-0.107
-483.405	-26.965	-0.193	-0.112
-482.391	-200.000	0.014	0.301
-481.376	-200.000	0.062	0.310
-480.362	454.614	-0.116	-0.254
-479.347	-200.000	-0.014	-0.182
-478.332	-23.642	-0.270	0.161
-477.318	-200.000	-0.031	0.223
-476.303	-11.930	-0.078	-0.051
-475.289	255.041	0.211	0.358
-474.274	-200.000	0.005	-0.041
-473.259	-161.918	-0.096	-0.005
-472.245	1.558	-0.115	0.082
-471.230	-200.000	0.029	0.140
-470.216	286.556	0.093	-0.167
-469.201	800.000	0.080	-0.238
-468.186	165.387	0.159	0.223
-467.172	-127.903	-0.039	-0.006
-466.157	23.376	0.167	-0.136
-465.143	551.078	-0.028	-0.067
-464.128	29.101	0.254	-0.214
-463.113	21.445	0.100	0.081
-462.099	537.955	0.064	-0.151
-461.084	-127.345	0.092	-0.013
-460.070	-155.023	-0.147	0.010
-459.055	-66.512	0.441	0.174
-458.040	800.000	0.020	-0.079
-457.026	800.000	0.045	-0.192
-456.011	11.519	0.039	-0.030
-454.997	96.565	-0.109	-0.124
-453.982	96.963	0.094	0.107
-452.968	-116.654	-0.046	0.008
-451.953	-82.682	-0.067	0.022
-450.938	-200.000	-0.008	0.086
-449.924	-107.998	0.220	0.047
-448.909	23.702	-0.054	-0.044
-447.895	-46.934	-0.154	-0.075
-446.880	-132.867	0.532	-0.067
-445.865	-200.000	-0.008	-0.280
-444.851	-100.060	0.182	-0.045
-443.836	-200.000	0.088	0.470
-442.822	43.960	0.095	-0.086
-441.807	-200.000	-0.049	-0.350
-440.792	-67.918	0.146	0.057
-439.778	-71.991	0.080	0.029
-438.763	-41.003	0.135	0.069
-437.749	-200.000	-0.001	0.166
-436.734	-24.031	-0.287	-0.170
-435.719	-137.911	0.073	-0.008
-434.705	31.840	0.103	-0.088
-433.690	-16.246	0.300	0.189
-432.676	-2.814	-0.095	-0.066
-431.661	233.341	-0.170	-0.277
-430.646	187.557	-0.020	-0.030
-429.632	-25.584	-0.267	-0.156
-428.617	13.212	0.068	0.052
-427.603	-200.000	-0.022	0.214
-426.588	-29.859	-0.224	-0.126
-425.573	125.715	0.054	-0.067
-424.559	-29.245	-0.230	0.130
-423.544	-200.000	0.013	0.229
-422.530	70.790	0.053	0.054
-421.515	38.486	0.031	0.028
-420.500	800.000	-0.107	-0.294
-419.486	-26.874	-0.136	0.079
-418.471	1.968	-0.133	-0.095
-417.457	329.055	-0.091	0.173
-416.442	-200.000	-0.055	0.244
-415.428	-200.000	0.093	0.415
-414.413	800.000	-0.072	0.231
-413.398	-200.000	-0.005	-0.289
-412.384	800.000	0.075	0.211
-411.369	38.111	0.205	0.180
-410.355	146.297	-0.247	0.328
-409.340	76.968	0.181	-0.190
-408.325	-115.180	0.150	-0.028
-407.311	563.878	-0.055	0.132
-406.296	208.768	-0.086	0.133
-405.282	-111.511	-0.124	0.025
-404.267	-47.505	0.026	0.013
-403.252	800.000	0.013	0.053
-402.238	-139.948	-0.137	0.014
-401.223	142.988	0.022	0.029
-400.209	800.000	-0.073	-0.224
-399.194	-178.012	0.288	-0.007
-398.179	-115.915	-0.223	0.041
-397.165	41.208	0.186	0.166
-396.150	-185.598	0.481	-0.007
-395.136	-110.618	-0.222	-0.045
-394.121	-200.000	0.027	0.121
-393.106	48.639	0.141	0.131
-392.092	68.983	0.152	0.155
-391.077	-200.000	-0.033	0.219
-390.063	-200.000	0.011	0.088
-389.048	74.532	0.218	-0.227
-388.033	0.337	0.137	-0.096
-387.019	-200.000	0.008	0.153
-386.004	-63.298	0.238	0.097
-384.990	-28.727	-0.301	0.171
-383.975	-200.000	-0.040	0.241
-382.960	-82.259	0.083	-0.027
-381.946	182.038	-0.101	-0.147
-380.931	482.905	0.022	0.048
-379.917	222.016	-0.163	-0.259
-378.902	349.080	0.209	-0.407
-377.888	167.814	-0.166	0.233
-376.873	-138.169	-0.218	-0.024
-375.858	334.210	-0.147	-0.281
-374.844	800.000	-0.065	0.272
-373.829	-141.452	-0.359	0.036
-372.815	-21.332	-0.280	0.169
-371.800	9.446	0.176	0.131
-370.785	-9.142	0.088	-0.058
-369.771	-102.020	-0.262	-0.062
-368.756	0.915	0.128	-0.091
-367.742	-88.539	0.154	0.045
-366.727	-175.102	-0.165	-0.005
-365.712	-41.263	0.035	-0.018
-364.698	-21.353	0.258	-0.155
-363.683	63.906	-0.145	0.144
-362.669	61.372	-0.324	0.318
-361.654	-1.709	0.326	0.226
-360.639	156.606	-0.263	0.358
-359.625	-200.000	0.004	-0.022
-358.610	800.000	0.071	-0.206
-357.596	69.564	0.214	0.218
-356.581	-96.962	0.227	-0.059
-355.566	319.773	-0.040	0.076
-354.552	9.587	0.227	0.170
-353.537	-99.955	0.382	0.094
-352.523	-141.551	-0.221	0.022
-351.508	800.000	-0.035	0.136
-350.493	78.164	-0.126	0.133
-349.479	-129.057	-0.163	0.022
-348.464	-149.981	0.412	-0.032
-347.450	-69.291	-0.291	-0.110
-346.435	-103.162	0.210	0.049
-345.420	-22.165	-0.075	0.045
-344.406	463.146	-0.063	0.139
-343.391	71.444	0.122	0.125
-342.377	800.000	0.075	0.261
-341.362	-200.000	0.007	-0.045
-340.348	-12.157	-0.253	-0.163
-339.333	61.403	0.124	0.121
-338.318	-72.903	-0.197	-0.071
-337.304	240.245	0.125	0.206
-336.289	-147.288	-0.254	0.021
-335.275	-200.000	-0.007	-0.440
-334.260	26.731	0.079	0.065
-333.245	71.045	0.107	-0.109
-332.231	398.359	0.119	0.246
-331.216	-116.200	-0.085	0.016
-330.202	-200.000	-0.082	-0.393
-329.187	51.777	0.175	0.164
-328.172	64.913	0.275	0.273
-327.158	84.988	0.108	-0.117
-326.143	86.962	-0.299	0.326
-325.129	-102.078	0.535	-0.127
-324.114	-200.000	-0.013	-0.174
-323.099	90.754	0.273	0.301
-322.085	800.000	0.045	0.134
-321.070	-200.000	-0.056	-0.260
-320.056	241.665	0.145	0.240
-319.041	-50.641	0.178	0.083
-318.026	-200.000	-0.025	-0.258
-317.012	-40.471	0.096	-0.049
-315.997	-200.000	-0.044	-0.309
-314.983	800.000	0.023	-0.081
-313.968	192.706	0.031	-0.046
-312.953	11.889	-0.191	0.144
-311.939	234.005	-0.009	0.014
-310.924	772.619	-0.070	0.189
-309.910	-166.245	0.094	0.004
-308.895	-181.947	-0.305	-0.006
-307.880	-63.913	0.432	0.174
-306.866	-96.091	-0.018	0.005
-305.851	-200.000	-0.216	-0.000
-304.837	260.878	0.059	0.100
-303.822	-9.087	0.122	-0.081
-302.807	800.000	0.063	0.218
-301.793	-120.564	0.177	-0.030
-300.778	17.215	-0.023	-0.018
-299.764	-63.152	0.113	0.046
-298.749	389.203	-0.069	0.140
-297.735	49.185	0.075	-0.070
-296.720	-169.526	0.246	0.009
-295.705	-141.495	0.241	-0.024
-294.691	-200.000	-0.007	-0.183
-293.676	-155.778	-0.169	-0.011
-292.662	67.230	0.143	0.144
-291.647	330.417	-0.069	-0.131
-290.632	-32.013	0.216	0.119
-289.618	-34.141	-0.239	-0.129
-288.603	10.691	-0.314	0.236
-287.589	800.000	-0.018	-0.059
-286.574	96.054	0.099	-0.111
-285.559	-3.568	0.128	0.087
-284.545	36.054	-0.048	-0.042
-283.530	106.614	-0.074	0.087
-282.516	31.100	0.208	-0.176
-281.501	-200.000	-0.009	-0.162
-280.486	800.000	0.036	-0.143
-279.472	308.299	-0.019	0.034
-278.457	-179.782	-0.130	-0.003
-277.443	291.471	-0.031	-0.055
-276.428	-105.714	-0.382	0.085
-275.413	800.000	-0.029	0.090
-274.399	800.000	-0.070	-0.299
-273.384	-150.111	0.467	0.036
-272.370	5.673	0.056	-0.040
-271.355	-66.148	-0.078	0.031
-270.340	-39.828	-0.302	0.155
-269.326	-76.557	0.331	0.114
-268.311	178.454	0.177	0.254
-267.297	800.000	0.117	0.355
-266.282	38.376	-0.245	0.215
-265.267	-132.887	-0.061	-0.008
-264.253	258.180	-0.097	0.164
-263.238	-19.142	-0.133	-0.081
-262.224	-143.070	0.326	-0.031
-261.209	800.000	-0.063	-0.225
-260.195	7.680	-0.125	-0.092
-259.180	7.240	0.141	0.104
-258.165	-30.330	-0.098	0.055
-257.151	-30.428	0.099	0.055
-256.136	-83.997	0.442	-0.138
-255.122	800.000	-0.148	-0.450
-254.107	10.380	-0.234	-0.175
-253.092	-178.882	-0.169	0.004
-252.078	-131.597	-0.253	0.033
-251.063	-200.000	-0.023	-0.123
-250.049	266.267	-0.110	0.189
-249.034	189.741	-0.101	-0.149
-248.019	-131.893	-0.260	0.033
-247.005	232.874	0.215	-0.347
-245.990	-25.805	0.132	-0.076
-244.976	-80.263	0.144	-0.047
-243.961	153.078	0.147	0.198
-242.946	-200.000	0.024	-0.139
-241.932	43.567	-0.341	0.307
-240.917	-63.246	-0.281	0.114
-239.903	-168.580	0.196	0.007
-238.888	535.637	-0.076	0.176
-237.873	-200.000	-0.006	-0.125
-236.859	311.870	-0.070	0.128
-235.844	81.435	-0.054	0.057
-234.830	-18.399	-0.125	-0.077
-233.815	800.000	0.016	-0.044
-232.800	4.942	-0.164	0.119
-231.786	-200.000	0.043	-0.358
-230.771	169.023	-0.215	-0.301
-229.757	-75.345	0.211	-0.074
-228.742	52.749	-0.297	0.279
-227.727	245.252	0.155	-0.256
-226.713	14.493	0.219	0.168
-225.698	274.093	-0.109	0.189
-224.684	-200.000	-0.004	-0.044
-223.669	538.651	-0.038	0.088
-222.655	62.969	0.111	0.109
-221.640	-200.000	-0.063	0.424
-220.625	-58.541	0.422	-0.180
-219.611	-200.000	-0.015	-0.067
-218.596	-200.000	0.008	0.088
-217.582	277.460	0.088	-0.153
-216.567	-91.777	-0.447	0.125
-215.552	800.000	-0.057	0.199
-214.538	43.890	0.029	0.026
-213.523	-200.000	0.036	0.218
-212.509	-107.762	0.150	-0.032
-211.494	231.179	-0.085	-0.136
-210.479	-200.000	0.045	-0.355
-209.465	-83.346	-0.055	0.017
-208.450	98.861	0.084	0.095
-207.436	106.690	0.185	-0.216
-206.421	269.678	-0.058	0.100
-205.406	-25.546	-0.363	0.210
-204.392	-107.693	-0.259	0.055
-203.377	36.455	0.232	-0.201
-202.363	-200.000	0.014	-0.327
-201.348	7.599	-0.244	-0.179
-200.333	189.130	0.180	0.265
-199.319	-200.000	-0.010	0.221
-198.304	-200.000	0.061	0.366
-197.290	-35.536	0.101	-0.054
-196.275	-200.000	0.019	0.411
-195.260	-200.000	-0.038	0.306
-194.246	26.355	0.156	0.128
-193.231	-200.000	-0.012	-0.131
-192.217	150.475	-0.188	0.250
-191.202	-179.711	0.353	-0.007
-190.187	63.924	-0.154	-0.152
-189.173	-41.120	-0.182	-0.092
-188.158	-198.320	0.120	-0.001
-187.144	-51.005	-0.287	-0.132
-186.129	-200.000	0.007	-0.297
-185.114	769.219	0.058	-0.155
-184.100	-46.517	0.056	0.027
-183.085	-200.000	-0.018	0.098
-182.071	-53.543	-0.252	-0.113
-181.056	-112.443	-0.410	0.080
-180.042	-75.860	0.125	0.043
-179.027	-26.907	0.072	-0.041
-178.012	-140.963	-0.251	0.025
-176.998	800.000	0.059	-0.166
-175.983	173.326	0.088	-0.124
-174.969	-184.513	0.285	-0.005
-173.954	152.640	0.045	0.060
-172.939	-5.374	-0.289	0.195
-171.925	20.394	0.199	-0.158
-170.910	103.694	-0.263	-0.303
-169.896	-66.413	0.193	0.075
-168.881	1.505	0.148	-0.104
-167.866	-76.783	-0.107	0.037
-166.852	33.807	0.042	-0.035
-165.837	-110.365	0.305	0.062
-164.823	-96.275	0.285	-0.074
-163.808	-200.000	0.043	-0.322
-162.793	-118.375	-0.130	0.023
-161.779	-200.000	0.002	0.099
-160.764	-99.726	0.314	0.077
-159.750	-11.730	0.481	-0.309
-158.735	88.713	-0.146	0.159
-157.720	794.784	-0.132	0.357
-156.706	27.810	0.352	0.290
-155.691	-65.928	-0.405	-0.158
-154.677	456.223	-0.109	0.236
-153.662	800.000	0.045	0.138
-152.647	199.475	-0.111	0.166
-151.633	-200.000	0.065	0.353
-150.618	-200.000	-0.066	0.339
-149.604	147.968	-0.155	-0.204
-148.589	-114.090	0.391	0.074
-147.574	9.527	0.086	0.064
-146.560	-116.811	-0.211	0.038
-145.545	11.126	0.181	0.135
-144.531	103.821	0.286	-0.329
-143.516	295.179	-0.020	0.035
-142.502	99.285	0.189	0.214
-141.487	202.432	-0.131	0.198
-140.472	29.422	0.281	0.233
-139.458	-45.364	0.280	-0.136
-138.443	-87.766	0.237	0.070
-137.429	531.117	-0.148	0.341
-136.414	-12.200	0.012	0.007
-135.399	-200.000	-0.032	-0.240
-134.385	-106.135	-0.127	0.028
-133.370	561.893	-0.024	-0.056
-132.356	387.335	-0.056	-0.113
-131.341	-82.258	-0.073	-0.023
-130.326	-15.215	0.221	0.138
-129.312	158.134	-0.077	-0.104
-128.297	-189.442	-0.358	-0.004
-127.283	15.747	0.215	0.165
-126.268	-60.322	0.330	-0.138
-125.253	800.000	0.147	-0.462
-124.239	353.850	-0.058	-0.112
-123.224	-160.896	0.263	0.014
-122.210	800.000	0.108	-0.314
-121.195	122.774	-0.267	0.327
-120.180	-200.000	0.047	0.262
-119.166	-63.960	0.147	-0.059
-118.151	-146.465	0.170	-0.014
-117.137	49.782	0.124	-0.115
-116.122	-100.268	0.215	-0.052
-115.107	800.000	-0.086	-0.310
-114.093	-167.625	0.399	0.016
-113.078	47.126	-0.199	0.181
-112.064	13.781	0.213	0.162
-111.049	-78.774	0.206	-0.069
-110.034	-200.000	0.000	-0.060
-109.020	208.701	-0.201	-0.307
-108.005	135.461	-0.158	-0.201
-106.991	-200.000	-0.009	0.426
-105.976	34.673	0.301	0.257
-104.962	-111.434	0.081	-0.016
-103.947	-172.507	-0.247	0.008
-102.932	800.000	0.038	-0.148
-101.918	645.101	0.074	0.184
-100.903	-54.839	-0.147	0.065
-99.889	-14.471	-0.258	0.162
-98.874	121.069	-0.228	-0.278
-97.859	800.000	0.035	-0.112
-96.845	-90.673	0.553	-0.156
-95.830	-200.000	0.011	-0.084
-94.816	-83.896	0.245	-0.076
-93.801	-200.000	-0.017	0.135
-92.786	-200.000	-0.032	0.140
-91.772	-116.171	0.384	0.070
-90.757	253.379	0.162	0.270
-89.743	20.283	-0.245	-0.194
-88.728	119.571	0.162	0.196
-87.713	-200.000	0.035	-0.290
-86.699	-123.305	0.155	0.024
-85.684	-155.444	-0.187	-0.012
-84.670	-98.769	-0.338	-0.084
-83.655	40.824	0.188	0.166
-82.640	-200.000	-0.006	0.115
-81.626	-19.692	-0.118	-0.071
-80.611	-200.000	0.028	-0.166
-79.597	366.105	0.080	-0.157
-78.582	-27.640	-0.175	0.099
-77.567	800.000	-0.022	0.073
-76.553	-117.816	0.173	0.030
-75.538	-200.000	0.027	0.307
-74.524	800.000	0.079	-0.226
-73.509	-200.000	0.008	-0.122
-72.494	5.649	0.222	0.160
-71.480	-90.904	0.272	-0.076
-70.465	579.572	0.069	-0.165
-69.451	54.605	0.129	-0.121
-68.436	20.565	0.204	-0.161
-67.422	-23.436	-0.174	0.102
-66.407	113.418	-0.023	0.028
-65.392	-200.000	-0.033	0.184
-64.378	-92.035	-0.229	-0.063
-63.363	-107.377	-0.397	0.085
-62.349	-110.468	-0.384	0.078
-61.334	112.333	-1.101	-1.299
-60.319	74.034	0.765	0.783
-59.305	800.000	-0.474	-1.516
-58.290	255.511	0.898	1.500
-57.276	644.342	0.683	1.699
-56.261	-200.000	125.257	640.065
-55.246	384.650	1597.125	3209.552
-54.232	137.358	2772.036	3536.147
-53.217	93.210	2187.301	2411.914
-52.203	34.440	1610.579	1370.964
-51.188	25.633	1351.896	1097.284
-50.173	23.158	1313.886	1051.698
-49.159	51.442	1383.790	1281.624
-48.144	48.087	1394.367	1270.914
-47.130	25.859	1342.637	1090.963
-46.115	22.569	1323.772	1055.915
-45.100	22.419	1318.059	1050.417
-44.086	22.438	1315.364	1048.343
-43.071	22.306	1312.997	1045.631
-42.057	22.267	1311.455	1044.128
-41.042	22.307	1309.817	1043.021
-40.027	22.430	1308.372	1042.558
-39.013	22.404	1306.030	1040.498
-37.998	22.381	1304.408	1039.026
-36.984	22.478	1302.561	1038.085
-35.969	22.577	1300.810	1037.230
-34.954	22.437	1299.470	1035.297
-33.940	22.400	1298.176	1034.013
-32.925	22.391	1296.620	1032.679
-31.911	22.660	1294.824	1032.783
-30.896	22.570	1293.872	1031.457
-29.881	22.589	1292.099	1030.114
-28.867	22.564	1291.060	1029.095
-27.852	22.629	1289.501	1028.192
-26.838	22.583	1288.386	1026.995
-25.823	22.637	1287.021	1026.180
-24.809	22.486	1285.617	1024.143
-23.794	22.600	1283.830	1023.339
-22.779	22.603	1282.610	1022.344
-21.765	22.545	1281.602	1021.165
-20.750	22.605	1279.959	1020.162
-19.736	22.436	1279.250	1018.577
-18.721	22.413	1277.956	1017.376
-17.706	22.391	1276.560	1016.097
-16.692	22.444	1275.388	1015.431
-15.677	22.418	1274.333	1014.400
-14.663	22.486	1273.057	1013.733
-13.648	22.486	1271.539	1012.483
-12.633	22.387	1271.366	1011.738
-11.619	22.510	1270.410	1011.645
-10.604	22.504	1269.520	1010.861
-9.590	22.430	1268.696	1009.740
-8.575	22.488	1267.333	1008.944
-7.560	22.434	1266.469	1007.907
-6.546	22.368	1266.275	1007.336
-5.531	22.356	1265.316	1006.465
-4.517	22.434	1264.247	1006.022
-3.502	22.363	1263.745	1005.177
-2.487	22.484	1262.630	1004.939
-1.473	22.451	1258.427	1001.370
-0.458	21.302	1244.596	983.854
0.556	17.276	1230.227	951.554
1.571	14.228	1239.325	941.291
2.586	13.749	1254.485	949.979
3.600	13.410	1241.660	938.263
4.615	9.829	1168.700	863.912
5.629	3.605	1097.301	779.699
6.644	0.833	1079.774	753.386
7.659	0.501	1078.745	750.949
8.673	0.534	1077.313	750.047
9.688	0.592	1076.279	749.552
10.702	0.931	1073.453	749.192
11.717	4.398	1077.907	769.443
12.731	11.123	1086.508	809.017
13.746	15.716	1092.529	836.318
14.761	17.127	1093.918	844.328
15.775	16.290	1092.740	839.188
16.790	15.448	1090.493	833.210
17.804	14.976	1088.268	829.099
18.819	14.463	1087.504	825.901
19.834	14.252	1086.589	824.087
20.848	13.841	1086.049	821.574
21.863	13.731	1084.696	819.931
22.877	13.565	1084.498	818.891
23.892	13.595	1083.240	818.016
24.907	13.501	1082.643	817.031
25.921	13.432	1081.830	816.004
26.936	13.575	1081.194	816.157
27.950	13.532	1080.363	815.246
28.965	13.489	1079.075	813.990
29.980	13.620	1077.194	813.142
30.994	13.779	1076.127	813.045
32.009	13.788	1075.064	812.212
33.023	13.728	1074.260	811.240
34.038	13.624	1073.339	809.962
35.053	13.612	1072.720	809.366
36.067	13.638	1071.545	808.537
37.082	13.561	1071.038	807.707
38.096	13.563	1070.443	807.193
39.111	13.628	1069.430	806.675
40.126	13.477	1068.466	805.145
41.140	13.471	1067.114	804.023
42.155	13.356	1066.193	802.699
43.169	13.465	1064.599	801.956
44.184	13.451	1063.944	801.327
45.199	13.516	1062.890	800.778
46.213	13.482	1061.731	799.669
47.228	13.517	1060.357	798.729
48.242	13.526	1059.300	797.908
49.257	13.541	1058.567	797.357
50.271	13.525	1057.590	796.471
51.286	13.420	1057.189	795.597
52.301	13.525	1056.240	795.316
53.315	13.550	1054.810	794.288
54.330	13.561	1053.774	793.489
55.344	13.436	1052.704	792.016
56.359	13.459	1052.051	791.565
57.374	13.479	1051.286	791.015
58.388	13.467	1050.171	790.049
59.403	13.414	1049.711	789.380
60.417	13.409	1048.606	788.458
61.432	13.425	1048.155	788.124
62.447	13.549	1046.883	787.685
63.461	13.495	1046.545	787.108
64.476	13.390	1045.538	785.782
65.490	13.386	1044.750	785.099
66.505	13.433	1043.857	784.580
67.520	13.525	1043.362	784.577
68.534	13.501	1042.670	783.875
69.549	13.419	1041.913	782.847
70.563	13.443	1041.065	782.253
71.578	13.320	1040.044	780.835
72.593	13.415	1039.356	780.700
73.607	13.406	1038.652	780.059
74.622	13.307	1038.497	779.407
75.636	13.358	1037.026	778.475
76.651	13.475	1036.617	778.647
77.666	13.476	1035.568	777.797
78.680	13.447	1035.201	777.318
79.695	13.344	1034.505	776.241
80.709	13.566	1033.906	776.765
81.724	13.467	1033.117	775.638
82.739	13.570	1032.131	775.311
83.753	13.634	1031.347	774.953
84.768	13.554	1030.734	774.050
85.782	13.710	1029.484	773.772
86.797	13.649	1028.509	772.685
87.812	13.657	1027.654	772.010
88.826	13.628	1026.296	770.788
89.841	13.468	1026.107	769.836
90.855	13.625	1025.088	769.729
91.870	13.670	1024.101	769.129
92.884	13.610	1023.117	768.045
93.899	13.644	1022.311	767.528
94.914	13.799	1021.271	767.397
95.928	13.682	1020.650	766.325
96.943	13.714	1019.926	765.858
97.957	13.712	1018.972	765.067
98.972	13.648	1018.364	764.249
99.987	13.699	1017.080	763.452
101.001	13.780	1016.213	763.105
102.016	13.690	1015.531	762.112
103.030	13.676	1014.524	761.223
104.045	13.620	1013.622	760.224
105.060	13.630	1012.773	759.566
106.074	13.686	1011.439	758.755
107.089	13.637	1010.610	757.840
108.103	13.652	1009.504	757.011
109.118	13.611	1009.073	756.437
110.133	13.440	1008.365	755.059
111.147	13.640	1007.305	755.109
112.162	13.681	1006.083	754.313
113.176	13.634	1005.534	753.618
114.191	13.832	1004.153	753.417
115.206	13.631	1004.054	752.363
116.220	13.628	1003.004	751.497
117.235	13.659	1001.854	750.710
118.249	13.584	1001.211	749.819
119.264	13.555	1000.441	749.045
120.279	13.600	999.574	748.533
121.293	13.545	998.705	747.568
122.308	13.609	997.626	746.986
123.322	13.614	996.799	746.321
124.337	13.546	995.875	745.256
125.352	13.522	994.712	744.216
126.366	13.562	993.673	743.552
127.381	13.533	992.716	742.637
128.395	13.607	991.617	742.080
129.410	13.642	991.064	741.757
130.424	13.672	989.946	740.990
131.439	13.644	989.221	740.256
132.454	13.687	988.486	739.835
133.468	13.596	987.983	738.989
134.483	13.497	987.187	737.885
135.497	13.653	985.713	737.410
136.512	13.679	984.918	736.865
137.527	13.670	984.347	736.336
138.541	13.700	983.519	735.784
139.556	13.560	983.001	734.708
140.570	13.553	982.655	734.357
141.585	13.800	981.147	734.256
142.600	13.760	980.216	733.320
143.614	13.893	979.524	733.324
144.629	13.794	978.395	731.974
145.643	13.896	977.814	731.924
146.658	13.886	976.497	730.831
147.673	13.760	975.698	729.616
148.687	13.713	975.180	728.957
149.702	13.806	974.032	728.443
150.716	13.732	973.374	727.562
151.731	13.674	972.800	726.814
152.746	13.871	971.698	726.788
153.760	13.839	971.175	726.194
154.775	13.819	970.583	725.599
155.789	13.867	970.167	725.434
156.804	13.950	969.186	724.998
157.819	13.905	968.576	724.281
158.833	13.922	968.262	724.055
159.848	13.965	967.120	723.325
160.862	14.028	965.880	722.607
161.877	13.839	965.347	721.326
162.892	13.935	964.420	720.982
163.906	13.917	963.484	720.142
164.921	13.903	962.293	719.129
165.935	13.997	961.419	718.816
166.950	13.891	960.808	717.840
167.964	14.043	959.371	717.356
168.979	13.934	958.892	716.466
169.994	13.953	957.985	715.806
171.008	13.944	957.162	715.092
172.023	14.016	956.696	714.990
173.037	14.061	956.226	714.767
174.052	13.995	955.401	713.804
175.067	14.062	954.853	713.620
176.081	14.039	953.923	712.762
177.096	14.022	953.542	712.340
178.110	14.104	952.797	712.073
179.125	14.109	952.178	711.570
180.140	14.121	952.176	711.555
181.154	14.145	950.946	710.674
182.169	14.128	950.644	710.316
183.183	14.251	950.243	710.476
184.198	14.213	949.344	709.579
185.213	14.255	948.807	709.293
186.227	14.263	948.028	708.685
187.242	14.303	947.554	708.437
188.256	14.189	946.931	707.424
189.271	14.259	946.272	707.167
190.286	14.156	945.367	705.989
191.300	14.155	944.561	705.320
192.315	14.010	944.224	704.394
193.329	14.059	943.946	704.332
194.344	14.200	942.815	704.022
195.359	14.328	942.018	703.906
196.373	14.173	941.921	703.113
197.388	14.314	941.481	703.320
198.402	14.403	941.036	703.303
199.417	14.521	939.093	702.282
200.432	14.406	939.347	701.927
201.446	14.384	938.854	701.405
202.461	14.513	938.306	701.474
203.475	14.682	937.472	701.500
204.490	14.390	937.070	699.911
205.504	14.448	936.194	699.439
206.519	14.504	935.603	699.170
207.534	14.434	934.710	698.147
208.548	14.621	933.993	698.331
209.563	14.530	933.248	697.335
210.577	14.370	933.158	696.535
211.592	14.502	932.489	696.527
212.607	14.626	931.285	696.082
213.621	14.597	930.555	695.352
214.636	14.702	929.582	695.004
215.650	14.603	928.833	693.967
216.665	14.635	928.270	693.621
217.680	14.648	927.623	693.128
218.694	14.586	927.153	692.458
219.709	14.657	926.346	692.089
220.723	14.735	925.818	691.955
221.738	14.740	924.694	691.075
222.753	14.863	923.992	690.998
223.767	14.671	924.022	690.167
224.782	14.730	923.429	689.909
225.796	14.804	922.899	689.755
226.811	14.746	922.031	688.807
227.826	14.708	921.590	688.257
228.840	14.917	920.612	688.329
229.855	14.770	919.625	686.924
230.869	14.839	918.908	686.611
231.884	14.783	918.488	686.008
232.899	14.903	917.558	685.742
233.913	14.718	917.215	684.667
234.928	14.751	916.343	684.093
235.942	14.772	915.563	683.535
236.957	14.825	915.168	683.398
237.972	14.717	914.616	682.482
238.986	14.912	913.459	682.355
240.001	14.893	912.958	681.843
241.015	14.839	912.234	681.021
242.030	15.024	911.543	681.198
243.045	14.872	911.186	680.251
244.059	14.961	910.511	680.050
245.074	15.010	909.703	679.587
246.088	15.175	908.887	679.585
247.103	14.903	908.645	678.240
248.117	14.997	908.000	678.081
249.132	15.134	907.336	678.078
250.147	15.222	906.827	677.995
251.161	15.084	906.270	676.963
252.176	15.241	905.671	677.087
253.190	15.283	904.438	676.276
254.205	15.158	903.973	675.363
255.220	15.300	903.718	675.685
256.234	15.379	902.677	675.168
257.249	15.363	901.944	674.494
258.263	15.300	901.338	673.727
259.278	15.300	900.703	673.193
260.293	15.407	899.820	672.902
261.307	15.447	899.829	673.009
262.322	15.436	898.922	672.229
263.336	15.525	898.072	671.890
264.351	15.558	897.382	671.445
265.366	15.574	896.772	670.995
266.380	15.521	896.359	670.414
267.395	15.463	895.450	669.443
268.409	15.434	895.084	668.995
269.424	15.526	894.077	668.550
270.439	15.481	893.461	667.852
271.453	15.371	893.119	667.097
272.468	15.379	892.329	666.481
273.482	15.380	892.086	666.245
274.497	15.593	891.138	666.324
275.512	15.600	890.363	665.711
276.526	15.528	890.055	665.140
277.541	15.551	889.640	664.858
278.555	15.635	888.927	664.599
279.570	15.693	888.246	664.263
280.585	15.697	887.499	663.661
281.599	15.599	886.166	662.218
282.614	15.691	886.050	662.435
283.628	15.559	885.491	661.441
284.643	15.702	884.813	661.435
285.657	15.703	884.176	660.907
286.672	15.886	883.290	660.903
287.687	15.832	882.823	660.285
288.701	15.750	882.246	659.471
289.716	15.851	881.812	659.486
290.730	15.813	880.969	658.647
291.745	15.912	880.026	658.270
292.760	15.854	879.753	657.782
293.774	15.924	879.221	657.601
294.789	15.966	878.493	657.160
295.803	15.915	877.870	656.437
296.818	15.925	877.364	656.039
297.833	15.942	876.360	655.298
298.847	15.939	875.828	654.830
299.862	16.038	874.921	654.478
300.876	15.858	874.677	653.541
301.891	16.034	873.880	653.570
302.906	15.994	873.876	653.352
303.920	16.065	872.801	652.765
304.935	16.063	872.596	652.548
305.949	16.152	871.651	652.126
306.964	16.224	871.055	651.901
307.979	16.155	870.749	651.347
308.993	16.220	870.116	651.070
310.008	16.212	869.331	650.394
311.022	16.233	868.894	650.088
312.037	16.239	868.018	649.399
313.052	16.257	867.283	648.862
314.066	16.213	866.935	648.376
315.081	16.253	866.556	648.186
316.095	16.148	865.947	647.271
317.110	16.224	865.078	646.854
318.125	16.241	864.978	646.787
319.139	16.439	864.372	647.036
320.154	16.349	864.060	646.400
321.168	16.227	863.383	645.370
322.183	16.350	862.685	645.264
323.197	16.277	862.391	644.707
324.212	16.264	862.150	644.420
325.227	16.236	861.149	643.506
326.241	16.232	860.749	643.135
327.256	16.143	860.468	642.530
328.270	16.313	859.390	642.315
329.285	16.290	858.728	641.675
330.300	16.365	858.150	641.472
331.314	16.348	857.780	641.074
332.329	16.351	857.049	640.485
333.343	16.415	856.865	640.532
334.358	16.443	856.537	640.336
335.373	16.437	856.005	639.859
336.387	16.395	855.705	639.420
337.402	16.610	855.038	639.677
338.416	16.408	855.285	639.040
339.431	16.593	854.391	639.014
340.446	16.484	854.427	638.575
341.460	16.497	853.756	638.065
342.475	16.685	853.159	638.272
343.489	16.731	852.658	638.014
344.504	16.722	851.786	637.271
345.519	16.626	851.779	636.847
346.533	16.693	851.408	636.767
347.548	16.711	850.846	636.356
348.562	16.772	850.120	635.988
349.577	16.726	849.565	635.342
350.592	16.695	848.902	634.675
351.606	16.678	848.277	634.089
352.621	16.802	847.707	634.070
353.635	16.737	846.895	633.163
354.650	16.730	846.708	632.941
355.665	16.823	845.772	632.531
356.679	16.931	844.730	632.101
357.694	16.835	844.124	631.233
358.708	16.942	843.869	631.385
359.723	16.824	843.487	630.605
360.738	16.900	842.691	630.236
361.752	16.906	841.710	629.470
362.767	16.933	841.657	629.474
363.781	17.055	840.730	629.175
364.796	16.910	840.653	628.526
365.810	17.027	840.394	628.711
366.825	17.174	839.665	628.652
367.840	17.120	839.375	628.181
368.854	16.986	838.916	627.286
369.869	17.075	838.394	627.168
370.883	17.070	837.920	626.740
371.898	17.157	837.650	626.806
372.913	17.230	837.171	626.661
373.927	17.198	836.497	625.983
374.942	17.151	836.396	625.679
375.956	17.227	836.101	625.680
376.971	17.218	835.364	625.042
377.986	17.354	834.609	624.921
379.000	17.343	834.429	624.691
380.015	17.402	833.778	624.365
381.029	17.346	833.112	623.604
382.044	17.290	832.714	623.048
383.059	17.337	832.181	622.765
384.073	17.401	831.668	622.558
385.088	17.309	830.964	621.642
386.102	17.289	830.205	620.946
387.117	17.366	829.722	620.809
388.132	17.476	828.984	620.602
389.146	17.439	828.857	620.321
390.161	17.458	828.453	620.033
391.175	17.609	827.454	619.778
392.190	17.439	827.212	618.924
393.205	17.373	826.863	618.367
394.219	17.535	826.451	618.594
395.234	17.420	826.103	617.863
396.248	17.478	825.855	617.833
397.263	17.565	825.098	617.525
398.278	17.427	825.181	617.035
399.292	17.452	824.382	616.473
400.307	17.552	824.097	616.565
401.321	17.503	823.498	615.887
402.336	17.564	823.009	615.685
403.350	17.449	822.445	614.794
404.365	17.513	822.223	614.804
405.380	17.520	821.619	614.326
406.394	17.630	820.900	614.127
407.409	17.678	820.376	613.857
408.423	17.773	820.275	614.066
409.438	17.747	819.995	613.709
410.453	17.845	819.444	613.597
411.467	17.770	818.713	612.725
412.482	17.780	818.599	612.620
413.496	17.866	818.349	612.690
414.511	17.795	818.035	612.145
415.526	17.994	817.075	612.083
416.540	17.928	816.724	611.531
417.555	17.844	816.562	611.053
418.569	17.804	816.293	610.657
419.584	17.972	815.555	610.652
420.599	18.100	814.867	610.541
421.613	114.814	1299.761	1489.043
422.628	99.446	1370.363	1489.121
