DTS Sentinel unit serial number:	SN413079Multiplexer serial number:	ORYXHardware model number:	OX4-SRSoftware version number:	ORYX F/W v4.00 Oryx Data Collector v3.7.2.0data status	okinstallation	princeton_trtdifferential loss correction	single-endedforward channel	channel 1reverse channel	N/Adate	2019/09/18time	18:58:35forward acquisition time	60.00reverse acquisition time	0.00gamma	496.2192k internal	0.2309k external	0.2309temperature offset calibration	1.0016default loss term (dB/km)	0.3790temperature slope calibration	1.0000multiplexer offset coefficient	1.0000multiplexer slope coefficient	1.0000fibre end	0.00T internal ref (°C)	36.23T ext. ref 1 (°C)	0.94T ext. ref 2 (°C)	25.38length (m)	temperature (°C)	Stokes	anti-Stokes-747.200	129.733	0.212	0.275
-746.185	43.960	-0.346	0.322
-745.171	22.478	-0.102	-0.085
-744.156	-145.424	-0.101	-0.009
-743.142	34.699	-0.079	0.070
-742.127	-79.801	-0.192	0.066
-741.112	-145.745	-0.154	-0.014
-740.098	-200.000	0.069	0.323
-739.083	-200.000	0.065	0.316
-738.069	-113.713	-0.214	0.042
-737.054	-83.202	0.458	-0.150
-736.039	-23.420	-0.362	-0.221
-735.025	-83.264	-0.235	-0.077
-734.010	-79.058	-0.097	-0.033
-732.996	63.773	0.122	0.124
-731.981	-200.000	0.063	-0.313
-730.966	-171.078	-0.199	-0.007
-729.952	-92.293	-0.362	0.104
-728.937	44.213	0.098	-0.091
-727.923	423.357	-0.097	0.213
-726.908	-121.145	-0.163	0.028
-725.894	115.499	-0.113	-0.140
-724.879	-200.000	0.030	0.250
-723.864	18.708	-0.129	0.105
-722.850	-56.297	-0.214	0.096
-721.835	800.000	-0.026	0.103
-720.821	800.000	0.115	0.344
-719.806	4.708	0.304	0.227
-718.791	-200.000	-0.026	-0.156
-717.777	190.839	0.127	-0.194
-716.762	-200.000	0.011	0.253
-715.748	6.142	-0.236	0.178
-714.733	532.099	0.084	0.202
-713.718	-127.754	0.157	0.023
-712.704	-200.000	0.007	0.326
-711.689	-30.437	-0.063	-0.036
-710.675	136.039	-0.144	-0.190
-709.660	182.084	0.091	0.135
-708.645	-18.362	-0.227	0.144
-707.631	539.494	0.099	0.239
-706.616	-168.394	-0.144	0.006
-705.602	-10.955	-0.169	-0.113
-704.587	-85.445	0.160	-0.051
-703.572	-71.730	0.162	0.061
-702.558	-102.239	-0.098	0.024
-701.543	-65.444	-0.083	-0.034
-700.529	-58.775	0.125	-0.055
-699.514	-89.470	0.198	0.059
-698.499	442.582	-0.090	-0.201
-697.485	296.375	0.050	0.092
-696.470	-200.000	-0.052	-0.278
-695.456	56.780	0.154	-0.152
-694.441	-48.520	0.076	0.037
-693.426	-133.286	-0.127	-0.016
-692.412	-200.000	0.014	0.088
-691.397	675.427	-0.111	-0.293
-690.383	129.767	-0.028	-0.036
-689.368	-21.932	-0.143	0.088
-688.354	618.709	0.069	-0.176
-687.339	-164.187	0.104	0.005
-686.324	124.454	0.149	-0.191
-685.310	210.549	-0.168	-0.267
-684.295	-200.000	-0.017	-0.179
-683.281	675.504	0.067	0.177
-682.266	-73.564	-0.160	-0.059
-681.251	-163.414	-0.412	0.020
-680.237	389.790	-0.138	-0.290
-679.222	800.000	0.102	-0.306
-678.208	800.000	-0.063	0.249
-677.193	-26.311	0.140	-0.083
-676.178	-28.733	0.126	-0.074
-675.164	-132.636	-0.255	0.033
-674.149	46.353	-0.239	0.224
-673.135	-149.668	0.419	-0.033
-672.120	-200.000	-0.021	0.134
-671.105	-84.483	0.128	-0.041
-670.091	-111.519	-0.198	-0.041
-669.076	265.998	-0.020	-0.035
-668.062	-132.060	-0.211	0.028
-667.047	-85.242	-0.223	-0.071
-666.032	129.702	-0.155	0.201
-665.018	-140.541	-0.195	0.020
-664.003	86.262	-0.026	-0.029
-662.989	-24.645	-0.352	0.212
-661.974	800.000	-0.057	-0.204
-660.959	-162.891	0.220	-0.011
-659.945	-11.470	-0.030	0.020
-658.930	-125.253	0.150	-0.023
-657.916	-4.473	-0.249	0.175
-656.901	-200.000	0.047	0.236
-655.886	-36.939	0.280	-0.152
-654.872	761.406	-0.172	-0.472
-653.857	-157.047	0.144	0.009
-652.843	259.539	-0.071	-0.125
-651.828	800.000	-0.026	-0.078
-650.814	591.006	0.089	0.223
-649.799	31.859	-0.220	0.192
-648.784	800.000	0.149	-0.423
-647.770	-163.031	0.106	-0.005
-646.755	-138.296	-0.104	-0.012
-645.741	408.760	-0.062	0.134
-644.726	-135.005	0.085	0.010
-643.711	-200.000	0.010	-0.132
-642.697	-3.540	-0.173	-0.121
-641.682	-73.079	-0.332	0.123
-640.668	-200.000	-0.035	-0.236
-639.653	-200.000	0.003	0.046
-638.638	414.309	-0.067	0.144
-637.624	36.701	-0.210	0.188
-636.609	-148.275	0.182	-0.015
-635.595	-200.000	0.049	-0.247
-634.580	-158.812	-0.291	-0.017
-633.565	-200.000	-0.025	0.162
-632.551	81.679	0.095	0.104
-631.536	800.000	0.055	0.183
-630.522	102.503	-0.058	-0.068
-629.507	-134.489	-0.248	0.031
-628.492	-200.000	0.055	-0.331
-627.478	114.781	-0.137	0.169
-626.463	-17.878	-0.344	-0.218
-625.449	161.624	0.017	0.024
-624.434	-200.000	0.001	0.039
-623.419	-6.646	0.351	-0.242
-622.405	800.000	-0.073	0.213
-621.390	37.004	-0.152	0.136
-620.376	762.131	-0.154	0.424
-619.361	450.079	0.101	-0.225
-618.346	800.000	-0.101	-0.402
-617.332	-70.521	0.023	-0.009
-616.317	-110.759	0.195	-0.041
-615.303	-27.478	-0.193	-0.113
-614.288	-45.665	0.177	-0.089
-613.273	-69.201	0.155	-0.060
-612.259	-36.641	0.262	0.143
-611.244	-147.671	-0.311	-0.026
-610.230	-86.341	0.139	-0.043
-609.215	293.770	-0.183	0.338
-608.201	-74.826	-0.163	-0.059
-607.186	-139.668	-0.056	0.006
-606.171	-200.000	0.059	-0.350
-605.157	-37.750	-0.151	-0.081
-604.142	-104.055	-0.256	-0.060
-603.128	47.456	-0.145	-0.137
-602.113	-130.102	0.241	0.033
-601.098	0.864	0.292	-0.211
-600.084	-75.458	-0.335	-0.121
-599.069	41.377	-0.140	-0.128
-598.055	-126.664	-0.188	-0.028
-597.040	-85.589	-0.242	-0.076
-596.025	230.838	0.036	-0.059
-595.011	-200.000	0.012	-0.099
-593.996	-62.396	-0.223	0.094
-592.982	-32.165	0.108	-0.061
-591.967	800.000	0.127	0.489
-590.952	295.031	0.012	-0.022
-589.938	800.000	0.044	0.146
-588.923	42.876	-0.267	-0.246
-587.909	-71.472	-0.075	-0.028
-586.894	-110.112	-0.200	-0.042
-585.879	31.211	-0.439	-0.380
-584.865	327.170	0.112	-0.216
-583.850	800.000	0.046	-0.151
-582.836	110.509	0.128	0.156
-581.821	-200.000	0.024	-0.132
-580.806	-20.176	0.083	0.052
-579.792	51.427	0.226	0.216
-578.777	219.793	-0.081	0.132
-577.763	126.691	-0.170	-0.217
-576.748	-200.000	-0.031	-0.179
-575.733	273.980	0.300	0.535
-574.719	800.000	-0.084	0.306
-573.704	-14.701	0.194	0.126
-572.690	-200.000	0.000	-0.153
-571.675	45.420	-0.108	-0.101
-570.661	10.775	-0.118	-0.091
-569.646	-200.000	-0.026	0.328
-568.631	-115.966	-0.187	-0.035
-567.617	-93.067	-0.084	0.024
-566.602	128.452	0.070	0.090
-565.588	-79.163	-0.298	-0.102
-564.573	-43.977	-0.280	-0.142
-563.558	-200.000	-0.044	0.285
-562.544	144.715	-0.074	-0.100
-561.529	-102.043	0.250	-0.061
-560.515	423.837	-0.155	-0.337
-559.500	675.291	-0.099	0.260
-558.485	-16.786	0.095	-0.060
-557.471	-200.000	-0.003	-0.017
-556.456	99.330	0.223	-0.260
-555.442	539.709	0.141	-0.339
-554.427	-200.000	0.007	-0.214
-553.412	-81.319	-0.049	-0.016
-552.398	-200.000	-0.002	0.061
-551.383	539.657	0.120	0.289
-550.369	800.000	-0.102	-0.291
-549.354	-200.000	0.027	-0.328
-548.339	-8.562	0.043	-0.029
-547.325	134.253	0.182	-0.238
-546.310	-62.950	-0.354	-0.148
-545.296	-135.582	0.416	0.050
-544.281	800.000	0.038	0.123
-543.266	242.055	-0.031	0.052
-542.252	-83.302	-0.442	-0.143
-541.237	-0.647	0.201	0.144
-540.223	-124.819	0.094	0.015
-539.208	51.679	0.215	-0.206
-538.193	-200.000	-0.016	0.133
-537.179	221.583	0.108	0.175
-536.164	-200.000	-0.027	0.155
-535.150	-200.000	-0.036	-0.207
-534.135	289.522	-0.045	0.082
-533.121	-98.548	-0.269	-0.069
-532.106	354.119	0.202	0.405
-531.091	-95.607	-0.394	-0.106
-530.077	800.000	0.024	-0.075
-529.062	-53.097	-0.241	-0.112
-528.048	-82.822	0.022	0.007
-527.033	395.234	-0.152	-0.320
-526.018	-100.070	0.152	-0.038
-525.004	-73.475	-0.143	-0.052
-523.989	-57.099	-0.154	0.068
-522.975	-143.223	0.107	-0.010
-521.960	-76.793	-0.078	-0.027
-520.945	-85.496	-0.080	-0.025
-519.931	39.618	-0.066	0.060
-518.916	-71.748	-0.138	-0.052
-517.902	800.000	0.082	-0.244
-516.887	199.566	-0.170	0.262
-515.872	17.828	0.095	0.076
-514.858	336.721	0.127	-0.249
-513.843	120.782	-0.117	-0.146
-512.829	800.000	0.050	-0.150
-511.814	-59.643	0.207	0.090
-510.799	-93.960	-0.365	0.101
-509.785	-76.303	0.177	-0.063
-508.770	-16.722	-0.197	0.125
-507.756	79.331	-0.228	0.246
-506.741	-200.000	-0.027	0.163
-505.726	33.701	-0.158	0.138
-504.712	237.837	0.063	-0.105
-503.697	-56.290	0.102	-0.045
-502.683	63.354	-0.063	-0.064
-501.668	60.246	-0.139	0.139
-500.653	-40.330	0.208	0.109
-499.639	449.368	-0.077	0.171
-498.624	117.004	0.062	-0.077
-497.610	-200.000	-0.019	-0.175
-496.595	-160.017	0.278	0.015
-495.581	800.000	-0.042	0.165
-494.566	16.162	-0.379	0.301
-493.551	269.037	0.124	0.218
-492.537	166.730	0.072	0.103
-491.522	-106.928	-0.123	0.027
-490.508	119.216	0.093	0.115
-489.493	20.955	0.132	0.108
-488.478	-200.000	0.013	-0.081
-487.464	800.000	-0.046	0.183
-486.449	-200.000	0.052	0.264
-485.435	-137.166	0.162	0.019
-484.420	-200.000	0.011	0.055
-483.405	-128.533	-0.497	0.071
-482.391	-105.651	-0.280	-0.064
-481.376	-12.041	-0.282	0.186
-480.362	-83.404	-0.020	0.007
-479.347	800.000	0.126	-0.372
-478.332	-2.706	0.080	-0.056
-477.318	85.007	-0.105	-0.115
-476.303	-29.080	0.573	0.331
-475.289	-46.034	0.125	0.062
-474.274	-120.765	-0.150	-0.025
-473.259	-40.377	-0.176	0.092
-472.245	-17.919	-0.213	-0.134
-471.230	-100.126	-0.311	0.078
-470.216	75.565	-0.199	0.212
-469.201	-105.442	-0.207	0.047
-468.186	800.000	0.053	0.156
-467.172	-200.000	-0.019	-0.130
-466.157	64.285	0.170	0.172
-465.143	-77.261	0.293	-0.103
-464.128	185.998	0.055	0.083
-463.113	-195.836	-0.188	-0.001
-462.099	-135.968	-0.348	-0.041
-461.084	-13.398	-0.148	0.096
-460.070	-75.090	-0.173	0.062
-459.055	-200.000	-0.034	-0.288
-458.040	-129.016	0.412	-0.058
-457.026	-188.717	-0.227	0.003
-456.011	57.079	0.111	0.109
-454.997	295.008	0.125	-0.230
-453.982	800.000	-0.045	0.144
-452.968	-62.037	0.176	0.074
-451.953	354.160	0.071	0.142
-450.938	-2.684	-0.285	-0.200
-449.924	-78.270	0.198	0.068
-448.909	-97.576	0.365	0.095
-447.895	109.510	0.085	0.102
-446.880	83.858	-0.077	-0.085
-445.865	-147.750	-0.512	-0.043
-444.851	-9.068	-0.112	-0.075
-443.836	-29.590	0.123	0.070
-442.822	-200.000	-0.018	-0.148
-441.807	457.850	0.090	0.201
-440.792	-72.743	0.490	-0.181
-439.778	-200.000	0.034	0.222
-438.763	-67.913	-0.182	0.072
-437.749	68.946	0.138	-0.142
-436.734	10.761	-0.121	-0.092
-435.719	-200.000	0.037	-0.200
-434.705	800.000	0.051	0.150
-433.690	-200.000	0.024	-0.200
-432.676	86.478	0.080	0.089
-431.661	-110.132	-0.221	0.046
-430.646	594.569	0.069	-0.173
-429.632	-58.657	-0.071	0.031
-428.617	-200.000	-0.012	0.150
-427.603	-92.477	0.420	0.118
-426.588	-125.650	-0.240	-0.037
-425.573	-98.405	-0.277	-0.071
-424.559	-172.645	-0.207	0.007
-423.544	-148.583	0.258	-0.021
-422.530	-88.971	-0.470	0.140
-421.515	-200.000	-0.038	-0.250
-420.500	-62.350	-0.112	0.047
-419.486	-200.000	0.032	0.234
-418.471	-13.100	-0.189	0.123
-417.457	422.253	0.045	0.098
-416.442	-42.235	0.148	-0.076
-415.428	323.711	0.103	-0.198
-414.413	-90.784	-0.155	-0.045
-413.398	2.283	0.197	-0.143
-412.384	-133.661	0.337	-0.042
-411.369	-200.000	-0.015	0.557
-410.355	-160.939	-0.237	-0.012
-409.340	-28.380	-0.143	-0.083
-408.325	800.000	0.022	0.073
-407.311	-128.006	0.222	0.032
-406.296	119.620	0.037	0.046
-405.282	4.056	0.143	-0.105
-404.267	-42.969	0.169	-0.086
-403.252	575.746	-0.008	0.020
-402.238	-28.626	0.228	-0.132
-401.223	-200.000	-0.018	0.110
-400.209	519.341	-0.089	-0.208
-399.194	-57.029	0.313	-0.138
-398.179	-200.000	-0.031	0.197
-397.165	-200.000	0.037	0.270
-396.150	212.091	0.198	-0.313
-395.136	-174.606	-0.301	0.009
-394.121	-149.550	0.246	-0.019
-393.106	-150.228	0.446	-0.035
-392.092	-38.198	0.305	-0.162
-391.077	-161.962	-0.335	-0.017
-390.063	76.133	0.183	-0.195
-389.048	427.481	-0.052	-0.112
-388.033	-200.000	0.083	0.590
-387.019	-200.000	-0.035	0.362
-386.004	-167.762	0.090	-0.004
-384.990	123.496	-0.174	-0.219
-383.975	800.000	0.052	-0.219
-382.960	-133.331	-0.464	0.059
-381.946	-133.735	-0.267	0.033
-380.931	209.187	0.096	-0.151
-379.917	-126.188	0.235	0.035
-378.902	-10.966	-0.193	0.128
-377.888	119.290	-0.068	0.084
-376.873	191.654	0.105	0.158
-375.858	-200.000	0.019	-0.191
-374.844	-38.290	0.128	0.068
-373.829	-19.010	-0.100	-0.062
-372.815	137.218	0.231	0.302
-371.800	217.632	-0.255	0.407
-370.785	348.859	0.054	-0.107
-369.771	631.796	0.104	0.265
-368.756	218.840	0.094	-0.150
-367.742	105.422	0.377	-0.445
-366.727	107.536	-0.179	-0.213
-365.712	30.461	0.074	-0.063
-364.698	-6.738	0.237	-0.161
-363.683	212.510	0.083	-0.130
-362.669	800.000	0.011	0.043
-361.654	-75.650	0.218	-0.078
-360.639	800.000	0.050	-0.139
-359.625	-88.590	-0.213	-0.064
-358.610	135.143	0.066	-0.086
-357.596	16.555	-0.391	-0.309
-356.581	-19.641	-0.166	-0.103
-355.566	-200.000	0.002	0.111
-354.552	691.554	-0.009	-0.024
-353.537	205.300	0.041	-0.064
-352.523	-200.000	-0.016	-0.098
-351.508	800.000	-0.101	-0.437
-350.493	120.039	-0.076	0.094
-349.479	-200.000	-0.023	0.193
-348.464	-200.000	0.041	-0.251
-347.450	-200.000	0.031	-0.240
-346.435	109.404	0.088	0.105
-345.420	361.720	0.111	0.223
-344.406	800.000	-0.051	-0.182
-343.391	-10.545	-0.219	-0.145
-342.377	-49.549	-0.127	0.061
-341.362	-75.599	0.320	0.114
-340.348	42.506	-0.112	-0.102
-339.333	-23.892	0.192	0.115
-338.318	587.578	-0.148	-0.365
-337.304	-200.000	0.421	0.000
-336.289	8.043	0.065	-0.049
-335.275	-34.049	-0.261	0.144
-334.260	51.570	-0.280	0.266
-333.245	-200.000	-0.050	0.446
-332.231	-200.000	0.021	0.235
-331.216	-138.599	-0.481	0.053
-330.202	-200.000	-0.006	-0.375
-329.187	745.440	0.041	-0.112
-328.172	-75.389	0.178	-0.063
-327.158	-86.295	0.203	-0.062
-326.143	316.176	-0.107	-0.201
-325.129	50.770	0.114	-0.108
-324.114	32.869	-0.077	-0.067
-323.099	-60.127	-0.078	-0.033
-322.085	352.790	0.056	-0.112
-321.070	-194.714	-0.225	0.002
-320.056	-5.710	0.132	0.091
-319.041	-154.259	0.068	0.005
-318.026	29.221	0.216	0.183
-317.012	252.220	-0.032	-0.055
-315.997	125.053	-0.237	0.299
-314.983	284.819	-0.169	-0.303
-313.968	56.777	-0.089	0.087
-312.953	-93.596	0.332	-0.092
-311.939	302.898	-0.196	0.363
-310.924	-139.939	-0.246	-0.026
-309.910	-200.000	0.033	0.158
-308.895	698.747	-0.053	0.138
-307.880	40.973	0.124	-0.112
-306.866	-173.136	0.243	-0.007
-305.851	267.663	0.026	-0.046
-304.837	39.956	-0.176	-0.158
-303.822	-200.000	-0.007	-0.167
-302.807	86.189	0.069	0.076
-301.793	800.000	-0.039	0.129
-300.778	227.914	0.105	-0.170
-299.764	205.641	-0.197	-0.306
-298.749	175.716	-0.153	0.222
-297.735	800.000	0.124	0.345
-296.720	800.000	-0.071	0.289
-295.705	40.849	0.048	-0.043
-294.691	-200.000	-0.057	-0.400
-293.676	142.802	0.009	0.011
-292.662	-200.000	-0.017	0.000
-291.647	-182.838	-0.249	-0.004
-290.632	185.630	0.324	0.480
-289.618	19.649	0.238	0.191
-288.603	297.081	0.127	-0.232
-287.589	-112.906	-0.277	-0.055
-286.574	-200.000	-0.002	0.179
-285.559	259.486	-0.075	0.129
-284.545	136.785	0.040	-0.052
-283.530	-200.000	-0.015	-0.145
-282.516	800.000	-0.113	0.340
-281.501	-166.707	0.323	0.013
-280.486	800.000	0.081	-0.264
-279.472	-43.741	-0.289	0.145
-278.457	-48.516	0.246	-0.118
-277.443	8.849	-0.109	-0.082
-276.428	800.000	-0.038	-0.125
-275.413	148.984	0.045	-0.061
-274.399	-127.739	0.435	0.063
-273.384	306.732	-0.163	-0.303
-272.370	43.881	-0.276	0.252
-271.355	-56.366	-0.331	-0.147
-270.340	-90.514	0.183	-0.053
-269.326	-135.901	0.611	-0.072
-268.311	114.708	0.078	0.095
-267.297	-200.000	-0.009	0.163
-266.282	-63.276	-0.215	0.088
-265.267	800.000	-0.083	0.332
-264.253	-55.513	0.169	-0.076
-263.238	-155.196	-0.212	-0.014
-262.224	-101.202	0.269	-0.066
-261.209	-64.091	0.063	-0.026
-260.195	-119.144	0.283	0.049
-259.180	-145.506	0.192	0.017
-258.165	-160.416	-0.169	0.009
-257.151	451.682	0.106	0.234
-256.136	376.961	-0.061	0.125
-255.122	209.674	0.242	-0.378
-254.107	-128.804	0.128	0.018
-253.092	-5.640	0.085	0.058
-252.078	170.464	0.300	-0.428
-251.063	62.749	0.100	0.100
-250.049	103.901	0.150	-0.176
-249.034	-11.855	-0.215	-0.140
-248.019	53.648	0.065	-0.062
-247.005	-200.000	-0.002	-0.026
-245.990	-200.000	-0.004	0.202
-244.976	800.000	0.013	-0.046
-243.961	-76.628	0.297	-0.104
-242.946	-22.679	-0.225	-0.136
-241.932	-200.000	0.015	0.268
-240.917	-135.208	0.117	-0.014
-239.903	356.408	0.190	0.377
-238.888	185.097	0.214	-0.316
-237.873	215.178	0.015	-0.023
-236.859	242.689	0.058	-0.098
-235.844	424.749	0.067	0.143
-234.830	-104.148	0.060	0.014
-233.815	-93.328	0.127	0.035
-232.800	380.823	-0.019	0.040
-231.786	-200.000	-0.014	0.068
-230.771	-24.226	0.228	-0.136
-229.757	-3.788	-0.123	0.085
-228.742	-117.735	0.133	0.024
-227.727	-188.200	0.224	-0.003
-226.713	99.437	-0.250	-0.288
-225.698	44.304	0.213	0.194
-224.684	74.360	-0.160	0.167
-223.669	-34.876	-0.109	-0.059
-222.655	125.703	0.176	-0.221
-221.640	-177.739	0.192	-0.005
-220.625	45.743	-0.019	0.018
-219.611	-200.000	0.002	0.177
-218.596	-153.578	0.226	0.016
-217.582	-48.965	-0.209	0.100
-216.567	-200.000	0.019	0.108
-215.552	214.337	-0.104	0.164
-214.538	-89.014	-0.162	0.048
-213.523	800.000	0.083	-0.332
-212.509	-72.058	-0.192	-0.071
-211.494	-70.736	0.117	-0.044
-210.479	-88.244	0.277	0.083
-209.465	428.781	-0.066	-0.143
-208.450	800.000	-0.080	-0.242
-207.436	11.721	0.347	0.265
-206.421	-158.442	-0.214	-0.012
-205.406	-200.000	0.033	0.192
-204.392	-200.000	0.061	0.317
-203.377	376.332	0.107	-0.216
-202.363	259.353	0.091	-0.155
-201.348	60.075	0.162	0.159
-200.333	-24.546	0.112	-0.066
-199.319	76.685	0.188	-0.199
-198.304	-200.000	0.009	-0.105
-197.290	546.641	0.020	-0.048
-196.275	-40.708	-0.304	-0.157
-195.260	443.594	-0.032	-0.070
-194.246	237.395	0.181	0.298
-193.231	520.432	-0.136	0.316
-192.217	402.308	0.145	-0.303
-191.202	310.231	0.133	0.248
-190.187	366.214	0.258	0.517
-189.173	800.000	0.169	0.565
-188.158	121.000	-0.095	0.118
-187.144	375.788	0.090	-0.182
-186.129	-20.285	0.107	-0.065
-185.114	-141.474	-0.177	0.018
-184.100	393.517	-0.066	-0.137
-183.085	800.000	0.055	0.204
-182.071	800.000	0.039	0.165
-181.056	-130.500	-0.277	0.037
-180.042	-156.623	-0.167	-0.010
-179.027	395.923	0.040	-0.083
-178.012	-200.000	0.032	-0.197
-176.998	-200.000	-0.044	-0.268
-175.983	-5.566	0.371	0.253
-174.969	-120.784	0.289	0.049
-173.954	-136.761	0.200	-0.023
-172.939	-92.254	0.134	-0.038
-171.925	800.000	-0.066	-0.241
-170.910	-85.619	-0.108	-0.033
-169.896	-200.000	-0.004	0.035
-168.881	313.253	0.125	0.234
-167.866	-20.174	-0.284	-0.174
-166.852	-200.000	-0.023	-0.349
-165.837	293.652	-0.055	0.100
-164.823	27.126	0.046	0.038
-163.808	-64.745	0.238	0.096
-162.793	-139.332	0.038	-0.004
-161.779	7.778	0.158	0.118
-160.764	800.000	0.051	0.214
-159.750	-45.430	0.075	-0.037
-158.735	33.771	0.089	0.077
-157.720	-163.427	-0.289	-0.014
-156.706	195.818	-0.130	-0.197
-155.691	310.532	-0.158	0.294
-154.677	-33.214	-0.165	-0.091
-153.662	246.031	0.054	0.090
-152.647	-200.000	-0.048	0.287
-151.633	-39.691	0.095	0.049
-150.618	-53.114	-0.239	0.109
-149.604	-59.106	-0.354	-0.151
-148.589	-105.658	0.190	-0.043
-147.574	-118.659	-0.183	0.032
-146.560	203.540	-0.006	0.009
-145.545	-200.000	-0.039	0.309
-144.531	-73.043	0.060	-0.022
-143.516	-68.332	-0.222	0.086
-142.502	-17.565	0.261	0.163
-141.487	72.301	-0.257	-0.266
-140.472	800.000	0.059	0.224
-139.458	-200.000	-0.004	-0.179
-138.443	405.830	0.036	-0.076
-137.429	147.876	0.178	0.239
-136.414	626.714	0.051	0.127
-135.399	-200.000	-0.028	-0.304
-134.385	-200.000	-0.020	0.116
-133.370	-200.000	0.043	0.334
-132.356	253.088	-0.135	-0.229
-131.341	-150.146	-0.267	-0.021
-130.326	-143.828	0.321	0.030
-129.312	58.455	0.062	0.060
-128.297	173.999	-0.032	-0.045
-127.283	800.000	-0.009	0.028
-126.268	-91.874	-0.126	0.035
-125.253	1.933	-0.134	-0.096
-124.239	800.000	0.055	0.156
-123.224	-47.329	0.191	0.092
-122.210	-200.000	-0.008	0.160
-121.195	298.953	0.138	-0.253
-120.180	-4.514	0.260	-0.178
-119.166	57.979	0.260	-0.252
-118.151	87.896	0.118	0.130
-117.137	-37.984	0.315	-0.166
-116.122	368.968	-0.049	0.099
-115.107	-200.000	-0.040	-0.277
-114.093	328.308	-0.044	-0.084
-113.078	-101.871	-0.161	0.039
-112.064	800.000	0.093	0.301
-111.049	-71.965	-0.184	-0.068
-110.034	60.653	-0.108	-0.106
-109.020	-71.949	0.115	-0.042
-108.005	-18.388	-0.140	-0.086
-106.991	109.774	-0.031	0.037
-105.976	47.785	-0.245	0.226
-104.962	-159.396	0.116	-0.006
-103.947	-200.000	0.058	0.275
-102.932	-200.000	0.058	-0.267
-101.918	374.049	-0.227	-0.458
-100.903	-67.447	-0.118	-0.046
-99.889	-200.000	0.052	0.255
-98.874	193.747	-0.159	-0.239
-97.859	-123.442	0.139	0.022
-96.845	-108.827	0.219	-0.046
-95.830	232.890	0.084	-0.137
-94.816	458.156	-0.102	0.226
-93.801	277.929	0.124	0.219
-92.786	206.069	0.138	-0.212
-91.772	-105.654	0.177	0.040
-90.757	-133.158	-0.211	-0.026
-89.743	-200.000	-0.024	0.135
-88.728	-136.639	0.094	-0.011
-87.713	-80.007	-0.195	-0.065
-86.699	-156.202	-0.064	0.004
-85.684	119.289	0.160	-0.196
-84.670	-156.957	-0.025	-0.002
-83.655	0.560	-0.399	0.283
-82.640	800.000	0.060	0.231
-81.626	100.050	-0.106	-0.121
-80.611	-47.013	0.106	-0.051
-79.597	154.832	0.102	0.138
-78.582	149.400	0.072	-0.097
-77.567	-131.240	-0.347	0.046
-76.553	633.486	0.099	-0.247
-75.538	727.126	-0.107	0.283
-74.524	155.160	-0.068	0.093
-73.509	-169.491	-0.353	0.013
-72.494	76.209	-0.163	0.171
-71.480	510.504	-0.019	0.044
-70.465	46.105	0.176	-0.161
-69.451	456.077	0.136	-0.298
-68.436	800.000	-0.034	-0.122
-67.422	-147.077	-0.135	0.011
-66.407	-69.506	0.112	-0.042
-65.392	97.480	-0.145	0.165
-64.378	-108.621	-0.363	0.077
-63.363	-137.335	0.422	0.047
-62.349	-200.000	0.000	0.121
-61.334	15.304	-0.877	-0.680
-60.319	42.616	0.539	0.486
-59.305	800.000	-0.243	-0.964
-58.290	295.085	0.656	1.188
-57.276	227.227	0.806	1.297
-56.261	-200.000	95.685	566.167
-55.246	535.085	1395.258	3272.969
-54.232	150.212	2597.493	3486.813
-53.217	114.927	2188.586	2640.814
-52.203	47.920	1640.545	1515.834
-51.188	39.755	1374.607	1219.856
-50.173	36.473	1331.494	1161.858
-49.159	57.476	1379.585	1332.786
-48.144	61.943	1397.631	1377.447
-47.130	40.049	1352.498	1201.834
-46.115	36.326	1334.770	1163.643
-45.100	36.196	1329.929	1158.595
-44.086	36.084	1327.233	1155.528
-43.071	36.126	1324.831	1153.642
-42.057	36.001	1322.954	1151.217
-41.042	36.146	1320.982	1150.320
-40.027	36.054	1319.855	1148.742
-39.013	36.147	1317.764	1147.433
-37.998	36.128	1315.615	1145.402
-36.984	36.227	1314.056	1144.587
-35.969	36.296	1311.926	1143.095
-34.954	36.288	1310.536	1141.795
-33.940	36.236	1309.619	1140.643
-32.925	36.408	1307.849	1140.071
-31.911	36.269	1306.884	1138.362
-30.896	36.274	1305.168	1136.851
-29.881	36.345	1303.831	1136.060
-28.867	36.298	1302.842	1134.877
-27.852	36.318	1301.393	1133.685
-26.838	36.343	1299.983	1132.561
-25.823	36.316	1298.659	1131.205
-24.809	36.227	1296.797	1129.015
-23.794	36.247	1295.107	1127.616
-22.779	36.376	1293.588	1127.004
-21.765	36.264	1292.794	1125.614
-20.750	36.298	1291.364	1124.524
-19.736	36.217	1290.514	1123.264
-18.721	36.241	1289.101	1122.130
-17.706	36.191	1287.989	1120.830
-16.692	36.102	1287.130	1119.522
-15.677	36.167	1285.673	1118.584
-14.663	36.259	1284.351	1117.920
-13.648	36.217	1283.509	1116.902
-12.633	36.158	1282.401	1115.553
-11.619	36.158	1281.850	1115.029
-10.604	36.240	1280.581	1114.357
-9.590	36.177	1280.013	1113.453
-8.575	36.254	1278.739	1112.743
-7.560	36.288	1278.181	1112.410
-6.546	36.127	1277.709	1111.028
-5.531	36.114	1276.279	1109.665
-4.517	36.093	1275.087	1108.466
-3.502	36.221	1274.547	1108.686
-2.487	36.243	1273.096	1107.508
-1.473	35.949	1268.757	1102.005
-0.458	33.478	1251.538	1073.033
0.556	26.729	1229.627	1016.459
1.571	20.704	1232.014	984.374
2.586	18.704	1245.963	983.976
3.600	17.957	1235.323	971.239
4.615	13.442	1162.999	890.070
5.629	5.502	1086.820	791.656
6.644	1.311	1065.320	755.112
7.659	0.861	1063.232	751.334
8.673	0.782	1062.346	750.250
9.688	0.807	1060.745	749.176
10.702	1.066	1059.341	749.400
11.717	5.471	1064.860	775.097
12.731	13.130	1075.464	820.945
13.746	17.216	1079.637	844.407
14.761	17.616	1079.533	846.235
15.775	16.740	1078.141	840.724
16.790	15.808	1075.829	834.227
17.804	15.087	1074.415	829.486
18.819	14.675	1072.915	826.214
19.834	14.326	1072.180	823.850
20.848	14.237	1070.807	822.283
21.863	13.996	1069.997	820.400
22.877	13.832	1069.222	818.924
23.892	13.700	1069.328	818.282
24.907	13.761	1068.173	817.623
25.921	13.782	1067.209	816.918
26.936	13.747	1066.771	816.337
27.950	13.889	1066.037	816.402
28.965	13.938	1064.738	815.576
29.980	13.898	1063.685	814.501
30.994	13.980	1062.141	813.647
32.009	13.984	1061.066	812.774
33.023	13.899	1060.146	811.580
34.038	13.952	1059.070	810.941
35.053	13.898	1058.626	810.267
36.067	13.934	1057.162	809.249
37.082	13.900	1056.520	808.521
38.096	14.002	1055.956	808.514
39.111	13.879	1055.349	807.381
40.126	13.926	1053.665	806.250
41.140	13.679	1052.766	804.291
42.155	13.717	1051.977	803.804
43.169	13.675	1051.025	802.801
44.184	13.744	1049.650	802.012
45.199	13.757	1048.787	801.346
46.213	13.725	1047.694	800.288
47.228	13.681	1046.914	799.406
48.242	13.830	1045.352	798.859
49.257	13.781	1044.627	798.001
50.271	13.901	1043.653	797.760
51.286	13.936	1042.541	797.007
52.301	13.828	1042.005	796.011
53.315	13.818	1040.786	794.963
54.330	13.774	1040.064	794.130
55.344	13.668	1039.392	793.037
56.359	13.746	1037.979	792.266
57.374	13.683	1037.311	791.383
58.388	13.698	1036.679	790.903
59.403	13.724	1035.484	790.042
60.417	13.703	1034.508	789.128
61.432	13.711	1033.989	788.700
62.447	13.753	1033.024	788.096
63.461	13.759	1032.035	787.298
64.476	13.715	1031.280	786.445
65.490	13.730	1030.341	785.732
66.505	13.707	1029.898	785.217
67.520	13.751	1028.959	784.637
68.534	13.773	1028.360	784.216
69.549	13.776	1027.707	783.662
70.563	13.771	1027.026	783.052
71.578	13.704	1025.875	781.790
72.593	13.618	1025.128	780.742
73.607	13.615	1024.893	780.482
74.622	13.791	1024.077	780.621
75.636	13.645	1023.219	779.211
76.651	13.622	1022.466	778.458
77.666	13.708	1021.512	778.068
78.680	13.605	1021.392	777.423
79.695	13.734	1020.552	777.323
80.709	13.733	1020.135	776.929
81.724	13.749	1019.165	776.197
82.739	13.850	1018.186	775.854
83.753	13.834	1018.134	775.674
84.768	13.910	1017.063	775.140
85.782	13.998	1015.431	774.238
86.797	13.742	1015.509	773.039
87.812	13.906	1014.119	772.675
88.826	13.737	1013.148	771.080
89.841	13.754	1012.529	770.622
90.855	13.880	1011.441	770.311
91.870	13.804	1010.837	769.428
92.884	14.070	1009.359	769.467
93.899	13.886	1009.116	768.363
94.914	14.077	1007.785	768.162
95.928	13.993	1007.022	767.128
96.943	13.926	1006.187	766.111
97.957	13.973	1005.333	765.610
98.972	13.891	1004.950	764.872
99.987	13.874	1003.586	763.691
101.001	13.859	1002.801	762.957
102.016	13.918	1001.837	762.426
103.030	14.026	1001.071	762.269
104.045	13.979	1000.446	761.513
105.060	14.012	999.224	760.666
106.074	13.884	998.245	759.268
107.089	13.760	997.512	758.075
108.103	13.781	996.668	757.464
109.118	13.812	995.672	756.783
110.133	13.813	994.785	756.046
111.147	13.863	993.819	755.469
112.162	13.938	992.969	755.099
113.176	13.918	991.950	754.169
114.191	13.977	991.421	753.967
115.206	13.940	990.567	753.081
116.220	13.847	990.039	752.191
117.235	13.913	989.083	751.698
118.249	14.059	988.137	751.573
119.264	13.943	987.539	750.525
120.279	13.970	986.722	749.963
121.293	13.822	985.866	748.579
122.308	13.865	984.911	747.978
123.322	13.907	983.948	747.371
124.337	13.838	983.056	746.317
125.352	13.864	981.900	745.492
126.366	13.930	980.796	744.882
127.381	14.010	979.465	744.165
128.395	13.884	978.712	742.964
129.410	13.931	978.136	742.668
130.424	13.906	977.264	741.831
131.439	13.924	976.630	741.365
132.454	13.843	976.017	740.474
133.468	13.982	975.372	740.536
134.483	13.899	974.347	739.324
135.497	14.032	972.848	738.712
136.512	13.981	972.772	738.361
137.527	13.938	971.327	737.007
138.541	14.056	970.338	736.717
139.556	13.942	969.997	735.885
140.570	14.159	968.958	735.994
141.585	14.156	968.434	735.516
142.600	14.063	967.634	734.434
143.614	14.215	966.605	734.259
144.629	14.155	966.101	733.548
145.643	14.125	964.935	732.463
146.658	14.064	964.133	731.521
147.673	14.091	962.769	730.539
148.687	13.970	962.607	729.820
149.702	14.090	961.585	729.508
150.716	13.972	960.539	728.135
151.731	13.973	960.121	727.755
152.746	13.999	959.228	727.130
153.760	14.014	958.588	726.644
154.775	14.204	957.767	726.787
155.789	14.315	957.004	726.630
156.804	14.210	956.397	725.647
157.819	14.104	956.225	724.989
158.833	14.279	955.550	725.178
159.848	14.206	954.561	724.045
160.862	14.325	953.163	723.434
161.877	14.194	952.480	722.285
162.892	14.103	951.809	721.318
163.906	14.130	950.438	720.333
164.921	14.178	949.693	719.911
165.935	14.218	948.708	719.273
166.950	14.243	947.879	718.690
167.964	14.201	947.355	718.049
168.979	14.277	946.281	717.498
169.994	14.239	945.276	716.507
171.008	14.265	944.865	716.247
172.023	14.396	943.978	716.073
173.037	14.233	943.665	715.071
174.052	14.224	943.245	714.652
175.067	14.280	942.434	714.215
176.081	14.427	941.385	713.984
177.096	14.135	941.584	712.823
178.110	14.292	940.507	712.615
179.125	14.347	940.083	712.466
180.140	14.284	939.489	711.686
181.154	14.452	938.828	711.839
182.169	14.408	938.508	711.344
183.183	14.449	937.509	710.698
184.198	14.460	937.319	710.539
185.213	14.434	936.011	709.375
186.227	14.515	935.277	709.098
187.242	14.535	934.924	708.856
188.256	14.568	934.338	708.487
189.271	14.386	934.063	707.444
190.286	14.469	932.759	706.747
191.300	14.353	932.121	705.708
192.315	14.340	931.433	705.068
193.329	14.421	930.980	705.007
194.344	14.377	930.350	704.283
195.359	14.400	929.973	704.032
196.373	14.401	929.097	703.311
197.388	14.588	928.873	703.867
198.402	14.611	928.268	703.444
199.417	14.539	927.832	702.746
200.432	14.754	926.880	702.870
201.446	14.637	926.329	701.899
202.461	14.693	926.047	701.854
203.475	14.789	925.016	701.414
204.490	14.706	924.588	700.682
205.504	14.736	923.827	700.167
206.519	14.802	922.689	699.521
207.534	14.777	921.928	698.777
208.548	14.839	921.421	698.588
209.563	14.838	920.688	697.967
210.577	14.881	920.022	697.578
211.592	14.880	919.553	697.159
212.607	14.777	918.956	696.217
213.621	14.887	917.855	695.779
214.636	14.812	917.500	695.134
215.650	14.900	916.535	694.709
216.665	14.801	916.118	693.921
217.680	14.828	915.386	693.416
218.694	14.958	914.601	693.299
219.709	14.921	914.008	692.636
220.723	14.976	913.588	692.481
221.738	14.959	912.626	691.621
222.753	14.936	912.246	691.177
223.767	14.937	911.639	690.662
224.782	15.064	910.456	690.226
225.796	15.010	910.559	690.021
226.811	15.087	909.780	689.685
227.826	15.165	908.455	688.943
228.840	15.203	907.805	688.544
229.855	15.085	907.148	687.500
230.869	15.060	906.715	687.009
231.884	15.123	905.786	686.501
232.899	15.080	905.322	685.913
233.913	15.092	904.317	685.143
234.928	15.162	903.861	685.020
235.942	14.948	903.726	683.983
236.957	14.916	903.451	683.583
237.972	15.041	902.264	683.134
238.986	15.138	901.224	682.682
240.001	15.172	901.007	682.599
241.015	15.161	900.196	681.877
242.030	15.052	899.946	681.184
243.045	15.083	899.307	680.766
244.059	15.145	898.738	680.528
245.074	15.256	897.313	679.837
246.088	15.245	897.040	679.525
247.103	15.308	896.357	679.206
248.117	15.327	895.725	678.742
249.132	15.281	895.595	678.396
250.147	15.358	894.868	678.097
251.161	15.411	893.942	677.549
252.176	15.403	893.498	677.121
253.190	15.424	892.446	676.348
254.205	15.406	891.861	675.774
255.220	15.469	891.254	675.507
256.234	15.541	890.611	675.249
257.249	15.640	889.820	674.987
258.263	15.472	889.448	673.972
259.278	15.567	888.173	673.328
260.293	15.545	888.077	673.108
261.307	15.617	887.343	672.777
262.322	15.613	887.172	672.571
263.336	15.786	885.814	672.175
264.351	15.617	885.477	671.184
265.366	15.684	884.956	670.999
266.380	15.690	884.406	670.544
267.395	15.823	883.247	670.137
268.409	15.703	883.074	669.470
269.424	15.893	881.745	669.158
270.439	15.749	881.094	668.031
271.453	15.734	880.404	667.392
272.468	15.782	879.992	667.211
273.482	15.779	879.546	666.800
274.497	15.789	878.837	666.243
275.512	15.807	878.163	665.744
276.526	15.773	877.811	665.285
277.541	15.805	877.693	665.263
278.555	15.897	877.017	665.056
279.570	15.992	875.867	664.501
280.585	15.973	875.022	663.725
281.599	15.839	874.175	662.495
282.614	15.856	873.873	662.276
283.628	15.951	873.269	662.134
284.643	15.931	872.703	661.566
285.657	15.970	872.137	661.230
286.672	16.030	871.256	660.739
287.687	16.097	870.390	660.285
288.701	15.967	870.342	659.683
289.716	15.973	869.881	659.298
290.730	16.019	869.143	658.859
291.745	16.175	868.598	658.999
292.760	16.175	867.975	658.468
293.774	16.271	867.057	658.089
294.789	16.240	866.385	657.400
295.803	16.195	865.906	656.804
296.818	16.133	865.374	656.099
297.833	16.278	864.729	656.114
298.847	16.231	863.924	655.266
299.862	16.215	863.251	654.634
300.876	16.260	862.796	654.404
301.891	16.333	862.420	654.345
302.906	16.282	862.009	653.778
303.920	16.166	861.515	652.898
304.935	16.451	860.483	653.157
305.949	16.458	859.667	652.508
306.964	16.334	859.326	651.711
307.979	16.327	858.784	651.217
308.993	16.358	858.459	651.031
310.008	16.399	857.552	650.444
311.022	16.464	856.934	650.170
312.037	16.406	856.555	649.599
313.052	16.333	855.878	648.751
314.066	16.460	855.418	648.830
315.081	16.431	854.835	648.219
316.095	16.437	854.141	647.659
317.110	16.451	853.709	647.329
318.125	16.416	853.229	646.771
319.139	16.513	852.401	646.461
320.154	16.591	851.969	646.372
321.168	16.432	851.408	645.283
322.183	16.432	851.549	645.334
323.197	16.499	850.614	644.821
324.212	16.515	849.972	644.340
325.227	16.612	849.853	644.563
326.241	16.472	848.907	643.253
327.256	16.594	848.540	643.382
328.270	16.478	847.563	642.145
329.285	16.528	846.888	641.767
330.300	16.505	846.724	641.498
331.314	16.417	846.233	640.737
332.329	16.730	845.591	641.379
333.343	16.636	845.486	640.886
334.358	16.778	844.765	640.821
335.373	16.730	844.437	640.332
336.387	16.717	844.038	639.924
337.402	16.723	843.824	639.731
338.416	16.720	843.451	639.380
339.431	16.891	842.612	639.329
340.446	16.949	842.491	639.401
341.460	16.873	842.213	638.847
342.475	16.761	842.085	638.271
343.489	17.031	841.148	638.520
344.504	16.985	840.775	638.007
345.519	16.996	840.333	637.657
346.533	17.089	839.518	637.329
347.548	16.905	839.110	636.274
348.562	17.063	838.461	636.317
349.577	16.987	837.893	635.546
350.592	16.916	837.604	635.006
351.606	16.982	836.999	634.736
352.621	17.028	836.245	634.280
353.635	16.929	835.823	633.536
354.650	17.043	835.006	633.287
355.665	17.102	834.425	633.010
356.679	17.078	833.509	632.168
357.694	17.057	833.131	631.749
358.708	17.233	832.105	631.569
359.723	17.074	831.824	630.709
360.738	17.096	831.429	630.435
361.752	17.084	830.580	629.691
362.767	17.341	829.741	629.951
363.781	17.168	829.554	629.113
364.796	17.093	829.234	628.537
365.810	17.238	828.586	628.525
366.825	17.218	828.749	628.520
367.840	17.292	827.878	628.078
368.854	17.168	827.202	627.050
369.869	17.286	826.981	627.263
370.883	17.275	826.821	627.047
371.898	17.289	826.367	626.700
372.913	17.437	825.596	626.602
373.927	17.475	825.087	626.302
374.942	17.571	824.156	625.891
375.956	17.413	824.581	625.579
376.971	17.533	823.691	625.288
377.986	17.463	823.371	624.734
379.000	17.454	822.788	624.202
380.015	17.572	822.407	624.292
381.029	17.586	821.705	623.754
382.044	17.584	821.077	623.213
383.059	17.710	820.544	623.215
384.073	17.486	820.129	622.027
385.088	17.480	819.487	621.464
386.102	17.604	819.014	621.503
387.117	17.581	818.369	620.871
388.132	17.482	818.143	620.285
389.146	17.636	817.418	620.240
390.161	17.611	817.016	619.793
391.175	17.640	816.508	619.457
392.190	17.752	815.593	619.114
393.205	17.693	815.323	618.639
394.219	17.676	815.201	618.429
395.234	17.624	814.987	618.026
396.248	17.648	814.500	617.688
397.263	17.618	813.932	617.095
398.278	17.606	813.647	616.780
399.292	17.682	813.075	616.567
400.307	17.675	812.635	616.154
401.321	17.622	812.220	615.591
402.336	17.680	811.645	615.310
403.350	17.851	811.105	615.463
404.365	17.925	810.716	615.381
405.380	17.777	810.460	614.598
406.394	18.004	809.314	614.495
407.409	17.980	808.870	614.016
408.423	17.999	809.089	614.195
409.438	17.968	808.410	613.516
410.453	18.090	808.076	613.644
411.467	17.964	807.666	612.826
412.482	18.015	807.335	612.706
413.496	17.889	807.083	612.007
414.511	18.113	806.631	612.412
415.526	18.180	806.057	612.162
416.540	18.096	805.440	611.340
417.555	18.170	805.221	611.384
418.569	18.202	804.745	611.084
419.584	18.225	804.254	610.737
420.599	18.178	803.768	610.146
421.613	104.618	1283.696	1438.769
422.628	89.997	1353.624	1438.869
