DTS Sentinel unit serial number:	SN413079Multiplexer serial number:	ORYXHardware model number:	OX4-SRSoftware version number:	ORYX F/W v4.00 Oryx Data Collector v3.7.2.0data status	okinstallation	princeton_trtdifferential loss correction	single-endedforward channel	channel 1reverse channel	N/Adate	2019/09/17time	14:14:35forward acquisition time	60.00reverse acquisition time	0.00gamma	496.2192k internal	0.2299k external	0.2299temperature offset calibration	0.9967default loss term (dB/km)	0.3790temperature slope calibration	1.0000multiplexer offset coefficient	1.0000multiplexer slope coefficient	1.0000fibre end	0.00T internal ref (°C)	36.00T ext. ref 1 (°C)	0.41T ext. ref 2 (°C)	32.94length (m)	temperature (°C)	Stokes	anti-Stokes-747.200	80.670	-0.186	0.205
-746.185	-200.000	0.020	0.400
-745.171	290.221	-0.104	0.192
-744.156	464.936	0.067	0.153
-743.142	34.304	0.184	0.164
-742.127	-179.161	0.259	-0.006
-741.112	800.000	0.068	-0.257
-740.098	800.000	0.047	-0.139
-739.083	-43.793	-0.070	-0.036
-738.069	-77.943	0.084	0.030
-737.054	-65.086	-0.320	0.132
-736.039	-130.305	-0.369	-0.051
-735.025	121.735	-0.077	-0.097
-734.010	311.611	-0.085	-0.162
-732.996	-200.000	0.016	-0.155
-731.981	5.074	0.060	0.045
-730.966	169.970	0.045	0.066
-729.952	-111.029	-0.166	-0.035
-728.937	-82.158	-0.205	-0.068
-727.923	-25.756	0.273	-0.164
-726.908	-200.000	0.005	0.100
-725.894	-123.740	-0.284	0.046
-724.879	89.256	-0.212	-0.241
-723.864	-0.977	-0.134	0.096
-722.850	-102.190	0.227	-0.056
-721.835	-200.000	-0.037	-0.200
-720.821	-98.120	-0.375	-0.098
-719.806	154.885	-0.056	0.079
-718.791	-99.886	-0.341	0.087
-717.777	800.000	0.063	0.266
-716.762	-92.900	-0.191	-0.054
-715.748	-2.524	-0.150	-0.107
-714.733	-52.192	-0.139	-0.066
-713.718	-200.000	-0.041	-0.218
-712.704	-200.000	0.019	-0.195
-711.689	-200.000	0.004	0.020
-710.675	170.252	-0.107	0.156
-709.660	-200.000	-0.022	-0.271
-708.645	-42.228	-0.331	-0.172
-707.631	-200.000	0.040	0.212
-706.616	51.551	0.184	-0.178
-705.602	51.656	0.097	-0.094
-704.587	-52.626	0.185	-0.087
-703.572	-11.466	0.280	0.187
-702.558	29.975	0.363	0.315
-701.543	152.869	0.079	-0.109
-700.529	-112.370	0.323	0.066
-699.514	-114.619	-0.126	-0.025
-698.499	160.801	-0.204	-0.290
-697.485	-79.474	-0.167	0.057
-696.470	-157.881	-0.353	-0.021
-695.456	600.082	-0.081	0.204
-694.441	250.664	-0.109	-0.188
-693.426	34.971	-0.139	-0.124
-692.412	-174.276	0.198	0.006
-691.397	0.969	-0.197	-0.144
-690.383	-76.789	0.197	-0.070
-689.368	244.549	0.041	-0.071
-688.354	228.241	-0.156	-0.259
-687.339	800.000	0.078	0.334
-686.324	-94.579	-0.304	-0.084
-685.310	157.886	-0.057	0.080
-684.295	-56.042	-0.211	-0.096
-683.281	-116.045	0.215	-0.041
-682.266	-31.836	-0.159	-0.091
-681.251	-200.000	-0.006	-0.162
-680.237	-71.608	0.316	0.120
-679.222	-198.711	0.073	-0.000
-678.208	185.135	0.078	-0.118
-677.193	-200.000	0.021	0.146
-676.178	234.773	0.215	0.361
-675.164	608.680	-0.073	0.185
-674.149	-200.000	0.015	0.075
-673.135	-200.000	0.014	0.166
-672.120	-48.739	-0.103	-0.051
-671.105	74.306	0.265	-0.283
-670.091	-200.000	-0.054	-0.298
-669.076	-5.609	0.146	-0.102
-668.062	-44.475	-0.157	-0.080
-667.047	-54.993	-0.213	0.098
-666.032	-87.178	0.281	0.087
-665.018	-8.705	0.133	0.091
-664.003	173.971	0.120	-0.177
-662.989	-34.927	0.060	0.033
-661.974	31.244	0.103	-0.090
-660.959	92.184	-0.194	-0.223
-659.945	-6.486	0.174	-0.121
-658.930	224.227	-0.042	-0.068
-657.916	-75.991	0.233	-0.084
-656.901	-35.036	0.250	-0.139
-655.886	-200.000	-0.002	-0.255
-654.872	-63.782	-0.228	0.095
-653.857	-91.519	0.189	0.055
-652.843	-54.328	0.264	0.122
-651.828	-92.504	-0.290	0.083
-650.814	98.174	0.160	0.187
-649.799	-78.881	0.228	-0.079
-648.784	-107.987	0.163	0.036
-647.770	-26.662	0.207	-0.123
-646.755	-200.000	-0.012	0.220
-645.741	-60.795	-0.174	0.075
-644.726	-119.447	0.180	0.032
-643.711	-200.000	0.039	-0.258
-642.697	42.631	-0.234	-0.216
-641.682	-200.000	-0.029	0.280
-640.668	800.000	0.103	0.307
-639.653	-126.766	-0.300	-0.045
-638.638	-94.160	0.249	-0.069
-637.624	313.589	-0.098	0.187
-636.609	-102.027	0.148	-0.036
-635.595	344.495	0.049	0.098
-634.580	-51.454	-0.095	-0.045
-633.565	-200.000	0.033	0.156
-632.551	14.943	0.094	-0.075
-631.536	424.461	0.139	0.304
-630.522	40.913	0.209	-0.192
-629.507	-27.076	0.079	0.047
-628.492	66.912	0.186	0.192
-627.478	50.519	0.216	-0.207
-626.463	500.808	0.083	-0.194
-625.449	-98.008	-0.192	-0.050
-624.434	-200.000	-0.042	0.269
-623.419	800.000	0.098	0.286
-622.405	-6.951	-0.073	0.050
-621.390	800.000	-0.084	-0.300
-620.376	-89.147	-0.193	-0.058
-619.361	25.182	-0.115	-0.097
-618.346	443.554	0.115	-0.255
-617.332	-103.842	-0.419	-0.099
-616.317	-185.266	0.418	0.007
-615.303	-80.995	0.132	-0.044
-614.288	97.143	-0.126	0.146
-613.273	161.285	-0.074	0.105
-612.259	-200.000	-0.009	-0.080
-611.244	-2.510	0.090	-0.064
-610.230	31.778	-0.086	0.076
-609.215	324.418	0.092	0.178
-608.201	14.667	-0.053	-0.042
-607.186	-200.000	-0.046	-0.262
-606.171	182.896	-0.101	-0.152
-605.157	714.023	-0.067	0.180
-604.142	258.091	-0.049	-0.085
-603.128	24.276	0.300	-0.252
-602.113	800.000	-0.030	0.104
-601.098	45.133	-0.205	-0.191
-600.084	144.423	-0.073	0.098
-599.069	30.310	0.184	0.159
-598.055	-200.000	-0.015	0.132
-597.040	-138.115	0.393	-0.044
-596.025	-200.000	-0.017	0.254
-595.011	-111.156	-0.205	-0.043
-593.996	-116.842	-0.192	-0.036
-592.982	-89.873	-0.184	-0.055
-591.967	-178.021	-0.208	-0.005
-590.952	18.844	0.007	0.006
-589.938	-49.735	0.301	0.145
-588.923	38.970	0.039	0.035
-587.909	104.279	0.052	0.061
-586.894	2.789	0.105	0.077
-585.879	-62.441	-0.216	-0.091
-584.865	45.489	0.131	-0.122
-583.850	-110.697	-0.132	-0.028
-582.836	137.267	-0.154	-0.205
-581.821	-164.940	0.245	-0.011
-580.806	-132.169	-0.116	0.015
-579.792	-6.520	0.058	-0.040
-578.777	-100.913	0.309	-0.077
-577.763	-200.000	0.008	0.043
-576.748	420.273	0.045	-0.098
-575.733	-200.000	-0.007	-0.114
-574.719	464.962	0.047	-0.106
-573.704	-200.000	0.002	-0.178
-572.690	-93.995	0.189	-0.053
-571.675	69.449	0.247	0.258
-570.661	-58.517	0.205	-0.090
-569.646	-157.631	-0.133	0.008
-568.631	-1.377	0.076	0.055
-567.617	87.566	0.052	-0.058
-566.602	-99.336	-0.125	0.032
-565.588	-200.000	-0.008	-0.192
-564.573	-200.000	-0.051	-0.278
-563.558	-102.280	0.200	0.049
-562.544	350.795	0.069	0.139
-561.529	-200.000	0.030	0.140
-560.515	411.920	-0.041	-0.089
-559.500	-200.000	-0.051	-0.284
-558.485	-6.959	-0.149	-0.102
-557.471	15.256	0.121	0.096
-556.456	264.037	-0.114	0.201
-555.442	88.529	-0.196	0.220
-554.427	606.463	0.088	0.223
-553.412	-25.172	0.113	-0.068
-552.398	143.627	0.111	-0.150
-551.383	179.791	0.152	-0.226
-550.369	132.625	0.188	0.246
-549.354	57.133	-0.055	0.055
-548.339	-87.286	0.040	-0.012
-547.325	140.073	0.142	-0.189
-546.310	33.351	-0.433	-0.380
-545.296	209.316	-0.150	-0.238
-544.281	44.875	0.209	-0.195
-543.266	-64.238	-0.270	-0.111
-542.252	-167.526	-0.248	0.010
-541.237	-44.934	-0.207	-0.104
-540.223	778.506	-0.051	0.141
-539.208	105.221	0.206	0.246
-538.193	-139.290	-0.287	0.031
-537.179	-68.052	0.143	-0.056
-536.164	297.829	0.100	-0.187
-535.150	74.484	0.137	0.146
-534.135	84.814	0.071	0.078
-533.121	711.686	0.009	-0.024
-532.106	38.947	0.203	-0.184
-531.091	16.168	0.087	-0.069
-530.077	119.053	0.156	-0.195
-529.062	-200.000	-0.008	0.523
-528.048	-83.941	0.273	-0.088
-527.033	-200.000	0.043	0.439
-526.018	-126.450	-0.239	-0.036
-525.004	557.360	0.034	-0.083
-523.989	-124.780	-0.521	0.082
-522.975	-51.109	0.210	0.099
-521.960	-90.294	0.159	0.047
-520.945	-20.652	-0.046	-0.028
-519.931	225.776	-0.074	0.122
-518.916	-200.000	-0.008	-0.054
-517.902	220.574	-0.143	-0.232
-516.887	-39.310	-0.407	-0.216
-515.872	538.786	0.137	0.330
-514.858	77.733	-0.215	-0.232
-513.843	60.635	-0.185	0.186
-512.829	146.553	-0.133	-0.181
-511.814	-157.860	-0.435	-0.026
-510.799	-139.207	0.260	0.028
-509.785	-20.643	-0.270	0.168
-508.770	-133.093	-0.408	0.052
-507.756	641.533	-0.053	0.136
-506.741	256.277	0.085	-0.148
-505.726	-187.203	-0.124	0.002
-504.712	215.060	-0.089	0.142
-503.697	-90.989	0.047	0.014
-502.683	458.938	0.120	-0.271
-501.668	46.624	-0.129	0.121
-500.653	308.398	-0.023	-0.044
-499.639	800.000	-0.065	-0.277
-498.624	75.489	0.203	0.216
-497.610	-200.000	-0.004	-0.084
-496.595	148.346	-0.174	0.237
-495.581	800.000	-0.065	-0.217
-494.566	116.654	0.108	-0.134
-493.551	-61.475	0.215	0.091
-492.537	-200.000	-0.001	-0.044
-491.522	474.123	-0.093	-0.211
-490.508	-0.428	0.084	-0.060
-489.493	344.724	-0.135	-0.268
-488.478	52.548	-0.109	-0.105
-487.464	57.132	0.153	-0.151
-486.449	-200.000	0.019	-0.121
-485.435	-85.753	-0.377	-0.118
-484.420	-71.069	0.187	-0.071
-483.405	329.574	0.178	-0.347
-482.391	-22.523	0.196	0.120
-481.376	27.510	-0.141	-0.119
-480.362	-6.675	-0.048	0.033
-479.347	686.963	-0.039	-0.102
-478.332	800.000	-0.045	0.176
-477.318	-145.467	-0.146	-0.013
-476.303	-200.000	-0.071	0.422
-475.289	2.716	0.051	-0.037
-474.274	-41.179	0.279	-0.145
-473.259	22.452	0.212	0.175
-472.245	800.000	-0.177	0.530
-471.230	-200.000	-0.045	0.269
-470.216	572.656	-0.134	-0.330
-469.201	734.447	-0.102	-0.275
-468.186	-200.000	-0.019	-0.222
-467.172	12.593	-0.209	-0.163
-466.157	-200.000	0.028	-0.402
-465.143	-200.000	-0.011	0.279
-464.128	147.004	-0.118	0.160
-463.113	-200.000	-0.044	-0.208
-462.099	-105.007	-0.357	-0.083
-461.084	-54.025	0.211	-0.097
-460.070	800.000	0.107	0.308
-459.055	-200.000	-0.012	-0.177
-458.040	-63.190	-0.179	-0.074
-457.026	-200.000	0.002	-0.138
-456.011	47.296	0.291	-0.273
-454.997	-132.468	0.513	-0.067
-453.982	541.567	-0.068	0.163
-452.968	-52.039	-0.109	-0.051
-451.953	-200.000	-0.008	-0.146
-450.938	201.284	-0.148	0.230
-449.924	-200.000	-0.001	-0.145
-448.909	-200.000	0.009	-0.052
-447.895	-149.536	-0.141	-0.011
-446.880	531.917	-0.093	0.221
-445.865	-52.087	0.265	-0.124
-444.851	249.930	-0.032	0.054
-443.836	-143.311	0.213	-0.021
-442.822	-120.796	0.345	0.059
-441.807	23.483	-0.169	-0.140
-440.792	-200.000	-0.022	0.178
-439.778	110.333	-0.098	-0.118
-438.763	-21.772	-0.159	0.098
-437.749	-144.362	0.411	-0.039
-436.734	15.890	-0.260	-0.206
-435.719	73.153	-0.078	0.082
-434.705	25.013	0.143	0.120
-433.690	71.270	-0.114	-0.119
-432.676	-200.000	0.018	-0.265
-431.661	120.782	0.126	-0.158
-430.646	-52.866	-0.106	-0.049
-429.632	-154.404	-0.153	-0.010
-428.617	-60.308	-0.104	-0.044
-427.603	4.652	0.117	0.087
-426.588	-161.743	0.201	0.010
-425.573	-86.680	0.097	-0.030
-424.559	-200.000	-0.006	-0.320
-423.544	-21.042	-0.199	-0.123
-422.530	-116.627	0.205	-0.038
-421.515	34.812	-0.245	-0.216
-420.500	69.260	0.113	-0.117
-419.486	-200.000	0.029	0.140
-418.471	-159.390	0.165	-0.009
-417.457	7.853	-0.078	0.059
-416.442	-102.247	-0.279	0.068
-415.428	-200.000	0.037	0.416
-414.413	133.270	0.346	-0.451
-413.398	-200.000	-0.027	0.253
-412.384	65.259	0.296	0.302
-411.369	111.230	0.233	-0.283
-410.355	-44.616	-0.278	0.140
-409.340	-200.000	0.002	0.035
-408.325	800.000	-0.090	-0.280
-407.311	181.557	-0.212	0.315
-406.296	194.552	0.106	-0.162
-405.282	-200.000	-0.007	0.098
-404.267	-200.000	0.023	-0.218
-403.252	-115.381	0.080	0.015
-402.238	-32.737	0.141	-0.079
-401.223	-140.311	-0.368	0.039
-400.209	-200.000	0.020	0.308
-399.194	-200.000	0.037	0.395
-398.179	159.860	-0.189	-0.265
-397.165	290.739	-0.016	-0.030
-396.150	127.622	-0.246	0.314
-395.136	4.408	0.338	-0.249
-394.121	45.338	0.181	-0.168
-393.106	184.479	-0.149	0.222
-392.092	-165.514	-0.174	0.008
-391.077	-190.257	0.171	-0.002
-390.063	-117.984	0.224	-0.040
-389.048	-200.000	-0.012	0.092
-388.033	377.574	0.163	-0.334
-387.019	-200.000	0.008	-0.064
-386.004	-2.255	0.213	-0.150
-384.990	46.561	0.192	0.179
-383.975	-200.000	-0.010	0.330
-382.960	44.313	0.097	-0.090
-381.946	31.092	-0.330	-0.285
-380.931	51.996	-0.183	0.175
-379.917	17.153	0.328	0.262
-378.902	607.359	0.068	0.171
-377.888	-130.391	0.167	0.023
-376.873	34.526	-0.218	0.191
-375.858	800.000	-0.091	0.395
-374.844	236.818	-0.212	-0.354
-373.829	-200.000	-0.010	-0.065
-372.815	87.961	-0.031	0.035
-371.800	-18.375	0.100	0.063
-370.785	577.401	-0.124	-0.305
-369.771	378.003	-0.088	-0.181
-368.756	49.931	0.097	0.092
-367.742	34.193	0.048	0.043
-366.727	37.827	0.295	-0.263
-365.712	219.592	0.147	0.237
-364.698	-103.203	-0.054	0.013
-363.683	-35.079	0.113	0.062
-362.669	-63.609	0.249	-0.103
-361.654	-200.000	0.010	0.113
-360.639	354.064	0.044	0.088
-359.625	138.192	-0.149	-0.196
-358.610	-200.000	-0.030	-0.244
-357.596	-200.000	-0.027	-0.199
-356.581	-98.914	-0.130	-0.033
-355.566	-36.118	-0.107	0.058
-354.552	-52.852	0.359	0.166
-353.537	168.226	-0.076	0.109
-352.523	126.037	0.065	0.082
-351.508	-108.081	0.487	0.106
-350.493	800.000	0.034	-0.132
-349.479	139.939	0.183	0.243
-348.464	263.197	-0.070	0.121
-347.450	-84.174	-0.019	0.006
-346.435	65.296	0.174	-0.177
-345.420	-200.000	0.047	0.236
-344.406	800.000	-0.029	-0.090
-343.391	800.000	-0.067	0.209
-342.377	800.000	0.129	-0.508
-341.362	65.008	-0.147	0.149
-340.348	59.171	-0.027	-0.027
-339.333	195.334	-0.100	-0.152
-338.318	800.000	-0.091	0.318
-337.304	-89.575	-0.278	0.082
-336.289	-40.811	0.118	-0.061
-335.275	-38.742	-0.326	0.173
-334.260	-99.430	-0.261	0.066
-333.245	789.078	0.116	0.319
-332.231	-32.954	0.385	-0.214
-331.216	-39.812	-0.060	0.031
-330.202	62.451	-0.106	-0.107
-329.187	222.873	0.236	0.382
-328.172	-200.000	0.012	-0.282
-327.158	76.715	0.072	0.077
-326.143	-200.000	-0.014	-0.164
-325.129	800.000	-0.034	-0.095
-324.114	78.273	-0.058	-0.062
-323.099	101.285	-0.144	-0.168
-322.085	-154.196	-0.162	0.011
-321.070	65.249	0.169	-0.171
-320.056	-104.223	0.092	0.022
-319.041	-196.706	-0.079	-0.001
-318.026	-54.152	-0.256	-0.117
-317.012	25.230	-0.173	-0.144
-315.997	129.666	-0.129	0.166
-314.983	800.000	0.034	0.134
-313.968	-200.000	0.005	0.062
-312.953	227.999	0.076	0.124
-311.939	3.664	-0.203	0.149
-310.924	133.129	0.116	-0.150
-309.910	135.841	0.127	-0.166
-308.895	-29.693	-0.112	0.064
-307.880	-11.942	-0.157	0.103
-306.866	-165.599	-0.427	-0.019
-305.851	-73.976	0.547	-0.199
-304.837	292.737	-0.068	-0.125
-303.822	6.340	-0.194	-0.145
-302.807	-118.723	-0.272	-0.048
-301.793	-200.000	-0.036	0.644
-300.778	71.144	0.223	0.232
-299.764	-134.818	-0.313	-0.038
-298.749	-81.251	-0.137	-0.045
-297.735	693.767	0.039	0.103
-296.720	172.332	0.254	0.367
-295.705	-13.124	-0.072	0.047
-294.691	469.663	0.113	0.254
-293.676	-200.000	0.013	-0.074
-292.662	453.672	-0.064	0.143
-291.647	-200.000	-0.064	0.310
-290.632	124.870	0.176	0.222
-289.618	683.265	0.081	0.212
-288.603	-39.138	0.213	-0.112
-287.589	-200.000	0.015	0.116
-286.574	-88.760	0.234	0.070
-285.559	-1.710	-0.185	0.130
-284.545	251.751	0.085	-0.145
-283.530	-200.000	0.037	0.254
-282.516	404.337	-0.103	0.218
-281.501	-26.143	-0.041	0.024
-280.486	-146.532	0.236	-0.021
-279.472	-183.805	-0.138	-0.002
-278.457	-112.256	-0.330	0.066
-277.443	165.335	-0.070	0.100
-276.428	-117.176	-0.348	0.063
-275.413	-153.372	-0.292	0.020
-274.399	-200.000	-0.047	-0.289
-273.384	137.171	-0.079	0.103
-272.370	-200.000	0.018	0.107
-271.355	-200.000	0.002	-0.479
-270.340	-51.369	0.204	-0.095
-269.326	-57.876	0.176	0.077
-268.311	109.232	0.247	0.296
-267.297	108.745	0.215	0.257
-266.282	-23.714	-0.415	-0.249
-265.267	-132.578	0.293	0.038
-264.253	162.510	0.181	0.254
-263.238	85.993	-0.124	-0.136
-262.224	332.717	-0.085	0.165
-261.209	-53.730	-0.080	0.037
-260.195	-25.644	0.258	0.152
-259.180	-200.000	-0.001	-0.033
-258.165	59.363	0.090	0.089
-257.151	321.931	0.124	-0.237
-256.136	6.303	-0.157	-0.117
-255.122	183.334	0.003	-0.004
-254.107	-16.717	-0.089	0.056
-253.092	-171.182	-0.201	-0.007
-252.078	421.537	0.143	0.308
-251.063	357.013	0.126	0.251
-250.049	-83.750	-0.083	0.027
-249.034	25.457	-0.188	-0.157
-248.019	800.000	-0.064	-0.277
-247.005	-200.000	-0.003	-0.120
-245.990	110.112	-0.094	-0.113
-244.976	342.411	0.069	-0.134
-243.961	391.213	-0.054	-0.113
-242.946	800.000	-0.064	0.184
-241.932	167.580	-0.136	0.194
-240.917	197.343	0.156	0.237
-239.903	279.766	0.024	0.044
-238.888	-86.727	-0.307	0.094
-237.873	-54.537	-0.176	-0.080
-236.859	-200.000	0.032	0.567
-235.844	-200.000	-0.010	0.123
-234.830	171.453	0.312	0.449
-233.815	-97.097	-0.220	0.058
-232.800	104.836	0.027	0.031
-231.786	-81.611	0.198	0.065
-230.771	168.250	0.265	0.377
-229.757	800.000	0.047	-0.137
-228.742	116.705	-0.189	0.231
-227.727	218.136	-0.160	-0.255
-226.713	141.799	0.184	-0.244
-225.698	-157.314	0.325	-0.020
-224.684	-71.502	0.072	-0.027
-223.669	-143.240	0.138	-0.013
-222.655	50.911	-0.263	0.250
-221.640	-200.000	-0.027	-0.359
-220.625	92.011	0.054	-0.061
-219.611	30.346	0.252	0.215
-218.596	6.131	-0.182	-0.135
-217.582	98.947	0.179	0.206
-216.567	9.261	-0.156	-0.118
-215.552	21.411	0.082	0.066
-214.538	-200.000	0.069	0.365
-213.523	43.714	-0.060	0.055
-212.509	-200.000	0.006	-0.391
-211.494	-43.297	0.125	-0.063
-210.479	-97.874	-0.170	0.044
-209.465	517.274	0.026	-0.061
-208.450	-10.703	0.348	-0.230
-207.436	-143.441	-0.152	0.014
-206.421	-170.498	0.227	0.008
-205.406	158.863	0.067	0.093
-204.392	-113.347	-0.408	0.080
-203.377	251.646	0.155	0.264
-202.363	32.657	0.065	0.056
-201.348	12.620	-0.157	-0.121
-200.333	128.142	-0.131	0.167
-199.319	-142.330	0.224	-0.022
-198.304	-119.804	-0.233	-0.040
-197.290	800.000	-0.068	-0.214
-196.275	-6.447	-0.016	-0.011
-195.260	-122.100	-0.175	0.029
-194.246	-45.314	0.212	-0.105
-193.231	-200.000	-0.026	0.141
-192.217	285.085	-0.098	-0.176
-191.202	-72.945	-0.021	-0.008
-190.187	441.777	0.134	0.292
-189.173	57.158	0.098	-0.095
-188.158	89.537	0.052	-0.058
-187.144	800.000	0.098	-0.299
-186.129	-145.794	-0.594	-0.053
-185.114	-144.869	0.308	-0.028
-184.100	31.949	-0.182	-0.157
-183.085	-121.499	-0.195	0.032
-182.071	-5.829	0.309	-0.211
-181.056	800.000	0.028	-0.083
-180.042	615.362	0.080	0.199
-179.027	41.579	0.056	-0.051
-178.012	175.232	-0.098	-0.142
-176.998	800.000	-0.077	-0.234
-175.983	687.948	-0.092	-0.240
-174.969	276.406	-0.128	0.226
-173.954	800.000	-0.030	0.096
-172.939	-200.000	0.014	-0.099
-171.925	72.844	0.230	-0.239
-170.910	15.693	-0.167	-0.131
-169.896	-70.214	-0.125	0.048
-168.881	-32.841	-0.112	-0.062
-167.866	-124.795	-0.155	0.024
-166.852	-200.000	-0.078	0.403
-165.837	424.848	-0.086	-0.185
-164.823	460.771	0.069	0.152
-163.808	-85.856	-0.054	-0.017
-162.793	-76.291	-0.083	0.029
-161.779	6.907	0.174	-0.130
-160.764	-77.291	0.057	0.020
-159.750	-98.938	0.141	-0.036
-158.735	-200.000	0.002	-0.109
-157.720	48.267	-0.107	-0.099
-156.706	219.186	0.073	0.116
-155.691	-53.136	-0.061	-0.028
-154.677	-200.000	-0.022	0.366
-153.662	-200.000	0.009	-0.188
-152.647	224.212	-0.064	0.103
-151.633	286.024	0.262	-0.472
-150.618	70.124	0.090	0.093
-149.604	-21.569	0.372	0.226
-148.589	800.000	-0.016	-0.045
-147.574	92.608	0.148	-0.167
-146.560	-45.449	0.034	-0.017
-145.545	88.629	0.012	-0.013
-144.531	238.180	0.196	0.324
-143.516	-8.146	-0.113	-0.076
-142.502	21.991	0.273	0.222
-141.487	188.017	-0.098	-0.146
-140.472	-66.168	0.072	-0.029
-139.458	70.560	-0.238	-0.245
-138.443	800.000	-0.157	0.493
-137.429	12.373	0.099	-0.076
-136.414	56.419	0.270	-0.262
-135.399	-36.204	0.170	0.091
-134.385	-84.644	0.192	0.060
-133.370	-3.546	0.064	-0.045
-132.356	-182.994	-0.222	-0.004
-131.341	-200.000	-0.032	-0.179
-130.326	-200.000	-0.011	-0.144
-129.312	-46.345	0.266	0.130
-128.297	-179.198	0.150	0.003
-127.283	-75.390	0.214	-0.076
-126.268	788.544	0.074	0.203
-125.253	40.270	0.241	0.216
-124.239	112.688	-0.119	0.144
-123.224	-200.000	0.002	0.074
-122.210	296.751	0.111	0.202
-121.195	-200.000	-0.014	0.249
-120.180	800.000	-0.153	0.433
-119.166	190.021	-0.222	-0.332
-118.151	-145.654	-0.314	-0.028
-117.137	800.000	-0.028	0.108
-116.122	800.000	0.084	-0.231
-115.107	-200.000	0.005	-0.491
-114.093	-120.589	-0.332	-0.056
-113.078	800.000	-0.049	0.162
-112.064	-200.000	-0.023	0.267
-111.049	43.300	-0.061	0.056
-110.034	800.000	-0.081	0.338
-109.020	-12.239	0.239	0.156
-108.005	-94.460	-0.288	-0.078
-106.991	-200.000	0.045	-0.219
-105.976	52.333	-0.350	0.332
-104.962	-104.546	0.233	-0.054
-103.947	800.000	0.028	0.090
-102.932	-200.000	0.032	-0.234
-101.918	707.289	-0.099	0.259
-100.903	597.412	0.182	0.450
-99.889	-162.218	0.613	-0.030
-98.874	-130.087	-0.246	-0.033
-97.859	-110.815	0.252	-0.052
-96.845	212.887	-0.016	-0.025
-95.830	-105.620	0.050	0.011
-94.816	460.384	0.061	0.135
-93.801	210.037	-0.184	-0.288
-92.786	-184.287	0.252	-0.004
-91.772	-76.854	0.230	0.080
-90.757	-200.000	0.412	0.002
-89.743	172.610	-0.100	0.143
-88.728	-93.645	-0.103	-0.028
-87.713	-140.160	-0.122	-0.013
-86.699	593.434	0.040	-0.099
-85.684	644.734	0.103	-0.262
-84.670	196.683	-0.082	0.125
-83.655	-100.169	0.111	0.027
-82.640	11.161	0.040	0.031
-81.626	123.870	0.062	-0.077
-80.611	-59.469	0.245	-0.105
-79.597	-182.187	0.243	0.005
-78.582	-46.249	0.192	-0.094
-77.567	-200.000	-0.083	0.426
-76.553	47.478	0.130	-0.120
-75.538	800.000	0.142	-0.434
-74.524	-143.332	-0.275	-0.026
-73.509	-200.000	0.047	0.282
-72.494	96.139	-0.121	-0.138
-71.480	38.090	-0.254	-0.225
-70.465	-133.970	0.136	0.017
-69.451	378.412	0.058	0.117
-68.436	-87.077	0.093	-0.028
-67.422	-200.000	0.011	-0.129
-66.407	409.437	-0.120	-0.252
-65.392	179.444	-0.058	-0.084
-64.378	-132.017	-0.313	0.041
-63.363	800.000	0.081	0.240
-62.349	0.599	0.216	-0.153
-61.334	94.337	-0.655	-0.739
-60.319	800.000	0.121	0.414
-59.305	800.000	-0.339	-0.997
-58.290	196.777	0.512	0.775
-57.276	-200.000	0.300	1.680
-56.261	-200.000	91.008	520.066
-55.246	447.602	1424.777	3114.499
-54.232	143.331	2631.565	3478.529
-53.217	109.597	2234.064	2658.610
-52.203	46.929	1671.690	1543.325
-51.188	39.221	1401.353	1245.138
-50.173	36.015	1358.325	1187.143
-49.159	55.796	1403.630	1350.991
-48.144	59.709	1422.359	1393.455
-47.130	39.838	1378.892	1228.831
-46.115	36.104	1360.844	1189.703
-45.100	36.034	1355.894	1184.901
-44.086	35.808	1353.727	1181.573
-43.071	35.854	1351.409	1179.785
-42.057	35.862	1349.241	1177.896
-41.042	35.873	1346.995	1175.956
-40.027	35.937	1345.522	1175.013
-39.013	35.982	1343.525	1173.497
-37.998	35.904	1341.751	1171.423
-36.984	36.014	1339.645	1170.206
-35.969	36.006	1338.493	1169.106
-34.954	36.070	1336.293	1167.527
-33.940	36.009	1334.870	1165.870
-32.925	36.054	1333.904	1165.252
-31.911	36.160	1331.771	1163.981
-30.896	36.197	1330.144	1162.734
-29.881	36.191	1329.240	1161.863
-28.867	36.134	1327.551	1159.998
-27.852	36.223	1325.808	1158.961
-26.838	36.173	1324.308	1157.307
-25.823	36.062	1323.090	1155.531
-24.809	36.047	1321.419	1153.937
-23.794	36.057	1320.176	1152.865
-22.779	36.066	1318.846	1151.712
-21.765	36.078	1317.534	1150.589
-20.750	36.054	1315.987	1149.051
-19.736	35.952	1314.868	1147.420
-18.721	35.866	1313.822	1145.948
-17.706	36.000	1312.135	1145.227
-16.692	36.024	1310.740	1144.107
-15.677	35.958	1309.836	1142.885
-14.663	35.909	1308.682	1141.541
-13.648	35.949	1307.146	1140.393
-12.633	35.855	1306.628	1139.338
-11.619	35.869	1305.692	1138.558
-10.604	35.856	1305.430	1138.211
-9.590	35.951	1304.225	1137.675
-8.575	35.885	1303.153	1136.303
-7.560	35.867	1302.359	1135.460
-6.546	35.868	1301.374	1134.560
-5.531	35.949	1300.283	1134.043
-4.517	35.974	1299.007	1133.034
-3.502	35.851	1298.351	1131.692
-2.487	35.925	1297.461	1131.306
-1.473	36.071	1293.495	1128.660
-0.458	35.129	1278.442	1110.022
0.556	30.149	1260.640	1071.173
1.571	25.889	1265.585	1050.507
2.586	24.107	1279.935	1051.810
3.600	22.781	1268.184	1034.295
4.615	16.533	1191.540	937.185
5.629	6.076	1108.950	817.959
6.644	0.820	1085.605	773.828
7.659	0.310	1083.534	769.682
8.673	0.318	1082.293	768.771
9.688	0.193	1080.745	766.970
10.702	0.527	1079.310	767.578
11.717	6.267	1087.379	802.594
12.731	15.279	1099.634	857.872
13.746	18.271	1102.507	875.367
14.761	17.188	1100.605	868.243
15.775	16.237	1098.346	861.535
16.790	15.253	1096.109	854.689
17.804	14.455	1094.736	849.476
18.819	14.039	1093.603	846.406
19.834	13.695	1092.699	843.879
20.848	13.515	1091.194	841.730
21.863	13.365	1090.771	840.563
22.877	13.244	1089.831	839.152
23.892	13.122	1089.453	838.169
24.907	13.208	1088.370	837.694
25.921	13.221	1087.581	837.081
26.936	13.134	1087.251	836.311
27.950	13.357	1085.406	835.945
28.965	13.222	1084.784	834.709
29.980	13.448	1083.124	834.500
30.994	13.477	1082.238	833.892
32.009	13.535	1080.938	833.106
33.023	13.530	1079.796	832.128
34.038	13.496	1078.749	831.077
35.053	13.405	1078.460	830.321
36.067	13.343	1077.135	828.918
37.082	13.308	1076.437	828.133
38.096	13.431	1075.779	828.168
39.111	13.365	1075.033	827.191
40.126	13.218	1074.079	825.647
41.140	13.256	1072.690	824.695
42.155	13.153	1071.667	823.325
43.169	13.062	1070.705	822.058
44.184	13.112	1069.021	820.944
45.199	13.175	1068.406	820.713
46.213	13.193	1067.468	820.010
47.228	13.296	1066.383	819.610
48.242	13.350	1065.033	818.770
49.257	13.256	1064.509	817.828
50.271	13.368	1063.310	817.389
51.286	13.310	1062.598	816.481
52.301	13.230	1061.528	815.196
53.315	13.278	1060.090	814.255
54.330	13.228	1059.512	813.494
55.344	13.145	1058.781	812.449
56.359	13.253	1057.518	811.939
57.374	13.228	1056.347	810.846
58.388	13.163	1055.565	809.857
59.403	13.066	1055.237	809.059
60.417	13.144	1053.919	808.358
61.432	13.082	1053.302	807.511
62.447	13.067	1052.564	806.799
63.461	13.126	1051.832	806.456
64.476	13.137	1050.886	805.710
65.490	13.065	1049.752	804.418
66.505	13.152	1049.056	804.239
67.520	13.149	1048.446	803.683
68.534	13.113	1047.642	802.823
69.549	13.162	1047.291	802.718
70.563	13.121	1046.136	801.564
71.578	13.029	1045.610	800.642
72.593	13.014	1044.639	799.760
73.607	13.077	1043.847	799.384
74.622	13.066	1043.675	799.130
75.636	12.994	1043.034	798.221
76.651	13.020	1042.161	797.608
77.666	13.111	1041.350	797.353
78.680	13.104	1040.653	796.715
79.695	13.067	1039.978	795.950
80.709	13.220	1039.261	796.069
81.724	13.121	1038.876	795.229
82.739	13.192	1038.178	794.964
83.753	13.254	1037.319	794.536
84.768	13.253	1036.072	793.506
85.782	13.271	1035.463	793.052
86.797	13.219	1034.791	792.218
87.812	13.145	1033.490	790.800
88.826	13.167	1032.469	790.052
89.841	13.309	1031.384	789.829
90.855	13.405	1030.364	789.437
91.870	13.337	1029.875	788.668
92.884	13.399	1028.976	788.209
93.899	13.402	1027.808	787.256
94.914	13.443	1027.147	786.875
95.928	13.437	1026.044	785.932
96.943	13.268	1025.889	784.941
97.957	13.243	1024.858	783.964
98.972	13.335	1023.952	783.636
99.987	13.393	1022.757	782.928
101.001	13.352	1022.037	782.114
102.016	13.374	1020.989	781.346
103.030	13.398	1020.371	780.920
104.045	13.349	1019.378	779.858
105.060	13.391	1018.581	779.377
106.074	13.257	1017.528	777.872
107.089	13.183	1016.449	776.633
108.103	13.276	1015.419	776.211
109.118	13.083	1015.005	774.924
110.133	13.182	1013.944	774.506
111.147	13.330	1013.055	774.451
112.162	13.117	1012.309	772.819
113.176	13.294	1011.514	772.969
114.191	13.435	1010.646	772.897
115.206	13.301	1009.838	771.583
116.220	13.267	1008.965	770.690
117.235	13.200	1008.195	769.721
118.249	13.304	1006.838	769.104
119.264	13.214	1006.729	768.532
120.279	13.245	1005.806	767.906
121.293	13.184	1004.928	766.881
122.308	13.311	1003.668	766.442
123.322	13.256	1002.665	765.352
124.337	13.162	1001.753	764.153
125.352	13.135	1000.799	763.234
126.366	13.200	999.896	762.777
127.381	13.134	998.636	761.447
128.395	13.221	997.978	761.275
129.410	13.208	997.059	760.449
130.424	13.380	995.943	760.320
131.439	13.515	994.658	759.893
132.454	13.353	994.809	759.198
133.468	13.402	993.488	758.346
134.483	13.435	993.056	758.099
135.497	13.327	991.897	756.655
136.512	13.420	990.849	756.215
137.527	13.365	990.421	755.566
138.541	13.387	989.779	755.111
139.556	13.440	988.967	754.665
140.570	13.433	988.127	753.927
141.585	13.456	986.945	753.064
142.600	13.597	985.949	752.879
143.614	13.550	985.339	752.132
144.629	13.472	984.529	751.095
145.643	13.530	983.235	750.303
146.658	13.528	982.407	749.598
147.673	13.354	981.968	748.407
148.687	13.472	980.652	747.871
149.702	13.475	979.520	746.955
150.716	13.463	978.969	746.415
151.731	13.403	978.118	745.431
152.746	13.350	977.654	744.770
153.760	13.346	977.504	744.574
154.775	13.475	976.733	744.500
155.789	13.644	975.670	744.383
156.804	13.477	975.325	743.302
157.819	13.575	974.443	743.005
158.833	13.632	973.364	742.374
159.848	13.669	972.711	741.975
160.862	13.570	971.940	740.880
161.877	13.556	970.455	739.618
162.892	13.537	969.612	738.826
163.906	13.588	968.524	738.158
164.921	13.495	968.027	737.301
165.935	13.650	967.051	737.179
166.950	13.562	966.319	736.166
167.964	13.640	965.053	735.484
168.979	13.514	964.493	734.435
169.994	13.572	963.613	733.953
171.008	13.622	962.910	733.573
172.023	13.646	962.252	733.116
173.037	13.658	961.373	732.436
174.052	13.737	960.757	732.247
175.067	13.675	959.908	731.264
176.081	13.595	959.641	730.643
177.096	13.625	958.914	730.156
178.110	13.781	957.805	729.934
179.125	13.553	957.654	728.750
180.140	13.794	956.996	729.247
181.154	13.702	956.518	728.411
182.169	13.758	955.830	728.069
183.183	13.823	955.218	727.824
184.198	13.735	954.896	727.130
185.213	13.831	953.565	726.473
186.227	13.820	953.067	725.979
187.242	13.877	952.492	725.727
188.256	13.905	952.301	725.637
189.271	13.830	951.383	724.546
190.286	13.766	950.511	723.539
191.300	13.709	949.785	722.677
192.315	13.605	949.230	721.735
193.329	13.797	948.498	721.952
194.344	13.625	948.127	720.855
195.359	13.835	946.995	720.845
196.373	14.027	946.237	721.037
197.388	14.015	945.978	720.725
198.402	14.052	945.420	720.395
199.417	14.140	944.689	720.155
200.432	14.055	944.756	719.773
201.446	14.104	944.183	719.488
202.461	14.221	942.996	719.023
203.475	14.051	942.929	718.173
204.490	14.166	941.646	717.629
205.504	14.169	940.824	716.951
206.519	14.125	940.160	716.195
207.534	14.093	939.649	715.604
208.548	14.074	939.019	714.980
209.563	14.068	938.455	714.461
210.577	14.060	937.255	713.449
211.592	14.137	936.858	713.413
212.607	14.184	935.952	712.862
213.621	14.145	935.479	712.274
214.636	14.212	934.644	711.862
215.650	14.278	933.431	711.156
216.665	14.204	933.357	710.718
217.680	14.282	932.433	710.285
218.694	14.466	931.082	709.980
219.709	14.316	931.175	709.348
220.723	14.385	930.392	708.982
221.738	14.294	929.758	708.049
222.753	14.266	929.127	707.387
223.767	14.365	928.610	707.350
224.782	14.515	927.862	707.354
225.796	14.560	927.028	706.849
226.811	14.440	926.755	706.069
227.826	14.389	925.817	705.075
228.840	14.374	925.102	704.406
229.855	14.394	924.664	704.095
230.869	14.446	923.981	703.731
231.884	14.395	923.153	702.823
232.899	14.506	921.981	702.337
233.913	14.446	921.646	701.768
234.928	14.420	921.035	701.129
235.942	14.326	920.750	700.455
236.957	14.275	919.852	699.495
237.972	14.379	919.285	699.440
238.986	14.472	918.533	699.194
240.001	14.392	918.124	698.485
241.015	14.509	917.022	698.075
242.030	14.443	916.839	697.600
243.045	14.554	915.921	697.303
244.059	14.532	915.328	696.695
245.074	14.520	914.913	696.268
246.088	14.631	914.027	695.995
247.103	14.608	913.366	695.335
248.117	14.594	912.761	694.756
249.132	14.588	912.354	694.359
250.147	14.681	911.396	693.956
251.161	14.776	910.883	693.900
252.176	14.872	910.126	693.659
253.190	14.955	909.172	693.214
254.205	14.888	908.802	692.593
255.220	14.793	908.260	691.726
256.234	14.896	907.588	691.578
257.249	14.967	906.338	690.857
258.263	14.849	905.896	689.973
259.278	14.976	905.171	689.885
260.293	14.979	904.668	689.450
261.307	15.021	904.407	689.366
262.322	15.067	903.354	688.691
263.336	15.086	903.060	688.482
264.351	14.992	902.182	687.365
265.366	15.142	901.477	687.383
266.380	15.123	901.006	686.888
267.395	15.115	899.813	685.883
268.409	15.105	899.346	685.427
269.424	15.047	898.941	684.820
270.439	15.133	897.771	684.220
271.453	15.180	896.729	683.556
272.468	15.111	896.802	683.270
273.482	15.235	895.766	682.926
274.497	15.144	895.485	682.280
275.512	15.191	894.872	681.942
276.526	15.235	894.465	681.751
277.541	15.204	893.775	681.042
278.555	15.346	893.281	681.182
279.570	15.302	893.028	680.747
280.585	15.466	891.822	680.434
281.599	15.101	891.180	678.406
282.614	15.175	890.421	678.067
283.628	15.259	889.844	677.907
284.643	15.344	889.386	677.840
285.657	15.417	888.792	677.622
286.672	15.337	888.036	676.663
287.687	15.394	887.306	676.276
288.701	15.419	886.724	675.876
289.716	15.386	886.092	675.200
290.730	15.418	885.621	674.912
291.745	15.402	885.204	674.470
292.760	15.613	883.803	674.189
293.774	15.533	883.475	673.559
294.789	15.521	883.118	673.177
295.803	15.622	881.683	672.429
296.818	15.642	881.240	672.111
297.833	15.484	880.758	671.053
298.847	15.588	880.109	670.915
299.862	15.639	879.352	670.481
300.876	15.599	879.604	670.457
301.891	15.594	878.435	669.483
302.906	15.605	878.156	669.257
303.920	15.706	877.666	669.224
304.935	15.770	877.140	669.019
305.949	15.742	876.201	668.132
306.964	15.637	875.669	667.250
307.979	15.748	875.243	667.308
308.993	15.763	874.570	666.796
310.008	15.744	874.319	666.470
311.022	15.788	872.987	665.572
312.037	15.821	872.804	665.502
313.052	15.706	872.201	664.531
314.066	15.789	871.633	664.366
315.081	15.702	871.024	663.499
316.095	15.789	870.313	663.241
317.110	15.877	869.476	662.891
318.125	15.756	869.146	662.107
319.139	15.917	868.686	662.328
320.154	15.685	868.656	661.336
321.168	15.863	867.635	661.198
322.183	15.876	867.035	660.734
323.197	15.798	866.662	660.084
324.212	15.901	865.949	659.887
325.227	15.860	865.470	659.302
326.241	15.922	865.099	659.207
327.256	15.956	864.404	658.750
328.270	15.924	863.558	657.922
329.285	15.966	862.837	657.479
330.300	15.943	862.495	657.071
331.314	15.980	861.889	656.695
332.329	15.916	861.675	656.225
333.343	16.072	861.348	656.525
334.358	16.001	860.650	655.658
335.373	15.990	860.327	655.313
336.387	15.989	859.749	654.808
337.402	16.009	859.671	654.770
338.416	16.137	859.299	654.927
339.431	16.185	858.438	654.397
340.446	16.168	858.474	654.302
341.460	16.300	857.974	654.375
342.475	16.268	857.399	653.754
343.489	16.349	856.780	653.538
344.504	16.263	856.334	652.806
345.519	16.289	855.836	652.470
346.533	16.417	855.191	652.415
347.548	16.264	854.946	651.579
348.562	16.214	854.545	651.022
349.577	16.324	853.804	650.824
350.592	16.288	853.302	650.247
351.606	16.222	852.440	649.277
352.621	16.212	852.072	648.900
353.635	16.349	851.195	648.701
354.650	16.467	850.538	648.597
355.665	16.341	850.012	647.653
356.679	16.429	849.310	647.398
357.694	16.309	848.452	646.230
358.708	16.419	847.853	646.138
359.723	16.360	847.073	645.262
360.738	16.474	846.852	645.470
361.752	16.335	846.186	644.375
362.767	16.508	845.659	644.576
363.781	16.624	844.864	644.356
364.796	16.455	844.709	643.536
365.810	16.593	844.311	643.701
366.825	16.577	844.001	643.345
367.840	16.597	843.354	642.872
368.854	16.632	843.046	642.716
369.869	16.644	842.464	642.261
370.883	16.685	841.778	641.835
371.898	16.790	841.602	642.042
372.913	16.800	840.912	641.497
373.927	16.800	840.492	641.120
374.942	16.694	840.380	640.577
375.956	16.876	839.958	640.887
376.971	16.853	839.333	640.265
377.986	16.829	839.124	639.958
379.000	16.877	838.306	639.459
380.015	16.974	837.719	639.322
381.029	17.023	837.121	638.994
382.044	16.947	836.542	638.206
383.059	17.033	835.923	638.000
384.073	17.008	835.311	637.384
385.088	16.879	835.182	636.746
386.102	16.937	834.125	636.100
387.117	17.007	833.284	635.666
388.132	16.980	833.031	635.314
389.146	16.875	832.796	634.687
390.161	17.057	832.328	634.954
391.175	16.994	831.611	634.116
392.190	16.895	831.268	633.428
393.205	16.946	830.840	633.235
394.219	16.969	830.532	633.033
395.234	16.923	830.200	632.549
396.248	17.097	829.342	632.489
397.263	16.978	828.892	631.648
398.278	17.012	828.769	631.625
399.292	16.957	828.218	630.942
400.307	17.030	827.580	630.673
401.321	17.087	827.046	630.423
402.336	17.100	826.452	629.962
403.350	17.077	826.230	629.652
404.365	17.187	825.757	629.642
405.380	17.178	825.410	629.287
406.394	17.239	824.464	628.738
407.409	17.232	824.291	628.526
408.423	17.281	823.983	628.415
409.438	17.425	823.755	628.717
410.453	17.422	823.217	628.239
411.467	17.307	822.562	627.263
412.482	17.299	822.296	626.972
413.496	17.539	821.802	627.425
414.511	17.348	821.895	626.738
415.526	17.366	821.389	626.361
416.540	17.450	820.582	625.999
417.555	17.450	819.898	625.423
418.569	17.400	819.824	625.127
419.584	17.470	819.005	624.706
420.599	17.590	818.797	624.932
421.613	100.613	1283.000	1430.512
422.628	86.733	1350.632	1430.624
