DTS Sentinel unit serial number:	SN413079Multiplexer serial number:	ORYXHardware model number:	OX4-SRSoftware version number:	ORYX F/W v4.00 Oryx Data Collector v3.7.2.0data status	okinstallation	princeton_trtdifferential loss correction	single-endedforward channel	channel 1reverse channel	N/Adate	2019/09/18time	21:54:35forward acquisition time	60.00reverse acquisition time	0.00gamma	496.2192k internal	0.2341k external	0.2341temperature offset calibration	1.0021default loss term (dB/km)	0.3790temperature slope calibration	1.0000multiplexer offset coefficient	1.0000multiplexer slope coefficient	1.0000fibre end	0.00T internal ref (°C)	24.69T ext. ref 1 (°C)	0.81T ext. ref 2 (°C)	18.25length (m)	temperature (°C)	Stokes	anti-Stokes-747.200	-200.000	-0.039	-0.205
-746.185	-116.421	-0.284	-0.053
-745.171	800.000	0.056	0.209
-744.156	-137.698	-0.435	-0.049
-743.142	800.000	0.078	-0.283
-742.127	428.320	-0.092	0.200
-741.112	363.427	0.130	0.263
-740.098	-200.000	-0.035	0.287
-739.083	15.848	0.437	0.344
-738.069	689.228	0.087	0.229
-737.054	17.847	-0.236	0.188
-736.039	58.662	-0.156	0.153
-735.025	-22.884	0.201	0.122
-734.010	117.340	0.049	-0.060
-732.996	-200.000	-0.075	-0.450
-731.981	800.000	-0.036	0.113
-730.966	-200.000	-0.005	0.142
-729.952	290.751	0.086	-0.157
-728.937	-25.145	0.057	-0.034
-727.923	53.735	-0.251	0.242
-726.908	-200.000	0.321	0.000
-725.894	49.987	0.235	-0.222
-724.879	8.805	0.115	-0.087
-723.864	529.362	0.107	-0.252
-722.850	-82.802	0.210	0.068
-721.835	800.000	0.061	0.185
-720.821	45.343	-0.096	0.088
-719.806	-117.743	-0.162	0.029
-718.791	-111.669	-0.129	-0.026
-717.777	-200.000	0.023	-0.499
-716.762	-200.000	0.021	-0.199
-715.748	393.968	-0.090	0.188
-714.733	212.837	-0.239	-0.377
-713.718	-26.209	0.232	0.136
-712.704	160.948	-0.106	-0.148
-711.689	46.178	-0.242	-0.225
-710.675	534.407	0.084	0.200
-709.660	800.000	-0.087	0.272
-708.645	-10.431	0.235	0.156
-707.631	-79.116	-0.137	0.047
-706.616	-42.144	0.064	-0.033
-705.602	-136.711	0.171	-0.020
-704.587	134.878	0.170	-0.221
-703.572	-200.000	0.003	-0.056
-702.558	-33.497	0.293	0.162
-701.543	80.630	0.121	0.131
-700.529	225.969	-0.084	0.136
-699.514	-18.248	-0.173	0.108
-698.499	-133.067	0.113	0.014
-697.485	484.038	-0.096	0.220
-696.470	19.925	-0.101	-0.082
-695.456	-46.590	0.109	-0.054
-694.441	344.778	0.113	0.222
-693.426	-200.000	-0.007	0.060
-692.412	267.318	-0.138	-0.241
-691.397	-87.653	-0.053	-0.016
-690.383	-120.139	-0.114	-0.019
-689.368	127.440	-0.061	-0.077
-688.354	-15.417	0.192	-0.123
-687.339	62.075	0.270	0.270
-686.324	239.394	-0.063	0.105
-685.310	-36.466	0.308	-0.166
-684.295	272.712	0.140	0.248
-683.281	-200.000	0.043	0.342
-682.266	523.684	-0.121	-0.284
-681.251	93.064	0.049	0.055
-680.237	16.160	-0.413	-0.325
-679.222	298.896	0.064	0.118
-678.208	-102.074	0.046	0.011
-677.193	50.081	0.058	0.055
-676.178	-123.759	0.275	-0.044
-675.164	-15.360	-0.359	-0.230
-674.149	93.483	-0.129	-0.146
-673.135	-200.000	-0.035	0.209
-672.120	362.649	-0.163	-0.327
-671.105	-141.833	0.131	0.013
-670.091	-147.269	-0.313	-0.027
-669.076	188.121	-0.221	-0.330
-668.062	408.520	-0.056	0.118
-667.047	-98.673	0.499	-0.127
-666.032	-153.952	-0.360	0.024
-665.018	800.000	-0.042	-0.169
-664.003	-76.064	0.199	0.070
-662.989	-105.055	-0.375	0.086
-661.974	376.275	-0.180	0.367
-660.959	313.466	-0.090	0.169
-659.945	59.301	-0.203	0.200
-658.930	-5.466	0.130	0.089
-657.916	53.309	-0.045	-0.043
-656.901	-200.000	0.026	-0.353
-655.886	317.250	0.049	0.093
-654.872	-200.000	-0.000	0.478
-653.857	-200.000	0.048	-0.237
-652.843	300.105	-0.149	-0.275
-651.828	-200.000	-0.015	0.268
-650.814	-156.247	-0.298	0.019
-649.799	-18.328	0.259	-0.162
-648.784	-14.321	0.574	-0.369
-647.770	-90.652	-0.189	0.054
-646.755	22.659	-0.088	0.072
-645.741	-142.925	0.245	-0.024
-644.726	-92.134	0.248	0.070
-643.711	-62.767	0.051	-0.021
-642.697	154.934	0.088	-0.121
-641.682	-94.047	-0.202	-0.055
-640.668	-69.152	0.288	-0.110
-639.653	217.254	-0.008	0.013
-638.638	-83.298	-0.301	-0.096
-637.624	-32.478	-0.260	-0.145
-636.609	-200.000	0.040	0.242
-635.595	16.803	-0.213	0.169
-634.580	-200.000	0.015	0.097
-633.565	36.330	-0.114	0.100
-632.551	438.288	0.098	0.213
-631.536	-117.079	-0.168	0.031
-630.522	-156.020	-0.310	0.020
-629.507	166.618	-0.129	-0.183
-628.492	200.568	-0.198	0.304
-627.478	-200.000	-0.014	-0.082
-626.463	800.000	-0.033	0.116
-625.449	-143.598	-0.088	-0.008
-624.434	-200.000	-0.001	0.056
-623.419	-26.916	-0.081	0.047
-622.405	313.720	-0.110	0.206
-621.390	-86.740	0.218	0.066
-620.376	800.000	-0.080	-0.234
-619.361	134.793	-0.096	-0.125
-618.346	225.688	-0.150	-0.243
-617.332	231.378	-0.091	-0.149
-616.317	55.623	-0.173	0.168
-615.303	-200.000	0.020	0.105
-614.288	266.168	-0.139	0.241
-613.273	738.847	0.046	0.122
-612.259	-8.113	0.113	-0.076
-611.244	-87.018	0.132	0.040
-610.230	800.000	0.060	-0.170
-609.215	-62.627	0.387	0.160
-608.201	743.282	0.040	0.107
-607.186	-70.230	0.329	0.124
-606.171	711.145	0.022	0.058
-605.157	-70.416	0.313	-0.118
-604.142	69.207	-0.168	-0.172
-603.128	-30.739	0.166	-0.094
-602.113	-200.000	0.014	-0.069
-601.098	287.489	0.133	0.241
-600.084	56.290	-0.266	0.257
-599.069	-79.500	-0.172	0.058
-598.055	-11.796	0.316	-0.207
-597.040	470.656	-0.085	0.191
-596.025	-135.678	-0.258	0.030
-595.011	-90.511	0.105	0.030
-593.996	70.542	0.121	-0.125
-592.982	-200.000	0.021	-0.266
-591.967	20.686	-0.055	-0.044
-590.952	55.073	0.182	0.175
-589.938	-56.525	0.115	0.051
-588.923	-200.000	-0.026	0.123
-587.909	290.849	-0.038	0.069
-586.894	-138.357	-0.205	0.023
-585.879	-98.904	0.322	-0.081
-584.865	-146.537	0.286	-0.025
-583.850	-112.474	0.242	-0.048
-582.836	-114.951	-0.459	0.087
-581.821	41.971	0.317	-0.287
-580.806	-99.724	0.270	0.067
-579.792	254.204	-0.114	-0.194
-578.777	-42.734	0.138	0.070
-577.763	52.248	-0.188	0.178
-576.748	146.221	-0.087	-0.117
-575.733	-63.359	0.409	-0.168
-574.719	800.000	-0.098	0.279
-573.704	-32.798	-0.127	0.070
-572.690	-50.925	-0.283	0.132
-571.675	151.722	0.161	-0.218
-570.661	201.381	0.172	0.264
-569.646	1.313	-0.052	-0.037
-568.631	499.663	-0.095	-0.218
-567.617	37.107	0.185	-0.163
-566.602	-200.000	0.031	0.142
-565.588	-153.089	-0.142	0.010
-564.573	-149.201	0.343	0.027
-563.558	-91.097	0.033	-0.010
-562.544	-106.315	0.187	-0.042
-561.529	593.377	-0.091	-0.223
-560.515	-11.877	0.271	0.177
-559.500	344.155	-0.115	0.224
-558.485	488.217	0.107	-0.242
-557.471	73.324	-0.084	-0.088
-556.456	800.000	0.139	0.516
-555.442	171.365	-0.235	0.335
-554.427	221.354	-0.068	0.109
-553.412	-101.869	-0.211	0.051
-552.398	-200.000	0.001	-0.458
-551.383	38.515	0.155	-0.138
-550.369	-101.780	-0.168	0.040
-549.354	-91.674	-0.259	-0.073
-548.339	800.000	0.052	-0.184
-547.325	169.013	-0.129	-0.183
-546.310	226.570	0.169	0.273
-545.296	-111.046	0.109	-0.022
-544.281	-167.617	-0.109	-0.004
-543.266	-23.239	-0.141	0.084
-542.252	-180.559	-0.116	-0.002
-541.237	-112.927	-0.225	0.044
-540.223	-45.157	-0.369	-0.182
-539.208	-64.169	0.074	0.030
-538.193	349.350	-0.025	0.048
-537.179	-198.423	-0.234	0.001
-536.164	-200.000	-0.004	-0.128
-535.150	-197.811	0.172	0.001
-534.135	-53.706	0.158	0.072
-533.121	-200.000	-0.008	0.064
-532.106	337.823	-0.102	-0.198
-531.091	93.710	-0.162	0.182
-530.077	-200.000	0.033	0.226
-529.062	102.478	0.146	0.170
-528.048	-15.903	0.200	-0.127
-527.033	4.833	-0.136	-0.099
-526.018	-200.000	0.010	-0.052
-525.004	-109.988	0.270	0.056
-523.989	-144.433	0.202	-0.019
-522.975	-200.000	-0.026	0.124
-521.960	800.000	-0.049	0.136
-520.945	800.000	0.026	0.112
-519.931	-176.405	-0.121	0.003
-518.916	9.787	-0.122	0.092
-517.902	-48.646	0.180	-0.086
-516.887	300.580	0.165	-0.302
-515.872	-200.000	0.038	-0.337
-514.858	-200.000	0.003	0.087
-513.843	-52.671	-0.389	-0.178
-512.829	-72.134	0.122	0.045
-511.814	449.195	-0.118	0.259
-510.799	96.497	-0.060	0.068
-509.785	-200.000	0.029	0.157
-508.770	-4.463	-0.235	0.161
-507.756	666.966	-0.134	0.343
-506.741	-106.860	-0.238	0.052
-505.726	800.000	-0.097	0.310
-504.712	-196.570	-0.268	-0.002
-503.697	104.438	0.022	0.026
-502.683	-124.843	0.094	-0.014
-501.668	147.556	-0.114	-0.152
-500.653	-50.655	0.314	-0.147
-499.639	-119.149	-0.274	0.048
-498.624	24.564	0.171	-0.141
-497.610	-200.000	-0.011	-0.071
-496.595	800.000	-0.077	0.234
-495.581	-200.000	-0.009	0.165
-494.566	-47.206	-0.208	0.101
-493.551	6.526	0.210	-0.155
-492.537	218.148	-0.082	-0.130
-491.522	800.000	0.048	0.165
-490.508	800.000	0.054	0.183
-489.493	731.680	0.025	0.067
-488.478	-91.591	-0.315	-0.089
-487.464	-115.765	0.137	-0.025
-486.449	194.394	-0.103	-0.155
-485.435	178.004	-0.086	-0.124
-484.420	304.079	-0.078	0.143
-483.405	-65.173	-0.225	-0.090
-482.391	-163.070	-0.208	0.010
-481.376	145.719	0.155	-0.206
-480.362	-200.000	0.010	-0.153
-479.347	13.664	-0.364	0.280
-478.332	-108.199	0.217	0.047
-477.318	97.310	0.325	0.370
-476.303	-33.520	0.212	0.116
-475.289	286.553	-0.072	-0.130
-474.274	-74.087	0.269	-0.097
-473.259	-200.000	0.006	-0.205
-472.245	33.329	0.166	-0.143
-471.230	-118.415	0.230	-0.040
-470.216	-8.122	0.173	-0.115
-469.201	40.982	0.159	0.142
-468.186	-25.079	0.077	0.045
-467.172	-200.000	0.002	0.398
-466.157	-200.000	-0.066	0.310
-465.143	-200.000	-0.018	0.304
-464.128	44.003	-0.169	0.153
-463.113	-117.920	-0.136	-0.024
-462.099	-187.237	-0.242	0.003
-461.084	-200.000	-0.016	0.078
-460.070	238.467	-0.024	-0.040
-459.055	800.000	-0.107	-0.332
-458.040	727.741	-0.047	0.123
-457.026	292.513	-0.055	0.100
-456.011	-112.834	-0.085	0.017
-454.997	25.337	0.193	-0.159
-453.982	-54.237	-0.212	0.095
-452.968	259.155	-0.153	0.262
-451.953	276.864	-0.174	0.306
-450.938	40.525	-0.206	0.184
-449.924	-17.012	0.258	0.161
-448.909	-200.000	0.008	-0.047
-447.895	800.000	-0.065	0.254
-446.880	-200.000	0.046	-0.205
-445.865	-64.039	-0.284	0.115
-444.851	-28.759	-0.301	-0.172
-443.836	800.000	0.068	0.215
-442.822	-14.474	0.030	-0.019
-441.807	419.161	-0.185	-0.392
-440.792	-27.922	0.035	-0.020
-439.778	-200.000	0.007	-0.035
-438.763	-108.652	-0.194	0.041
-437.749	-200.000	-0.018	-0.206
-436.734	-151.620	-0.443	0.032
-435.719	-200.000	-0.002	-0.196
-434.705	-155.942	0.234	-0.015
-433.690	209.238	-0.181	-0.280
-432.676	-200.000	-0.022	0.404
-431.661	-97.542	0.262	-0.067
-430.646	695.890	-0.149	-0.388
-429.632	-200.000	-0.003	-0.140
-428.617	-200.000	-0.006	-0.185
-427.603	-14.347	0.080	-0.051
-426.588	800.000	0.017	-0.062
-425.573	742.854	0.066	-0.177
-424.559	317.558	0.043	-0.080
-423.544	-200.000	-0.011	-0.264
-422.530	29.698	0.141	0.119
-421.515	40.696	-0.234	0.209
-420.500	-34.223	0.163	-0.089
-419.486	39.823	-0.115	-0.102
-418.471	-2.250	-0.165	-0.115
-417.457	-200.000	-0.041	0.329
-416.442	-200.000	-0.049	-0.229
-415.428	-112.109	-0.260	0.052
-414.413	-20.699	-0.134	0.082
-413.398	-0.452	0.242	-0.170
-412.384	-160.260	-0.330	0.018
-411.369	288.275	-0.062	-0.111
-410.355	-200.000	0.011	-0.369
-409.340	-130.679	0.090	0.012
-408.325	-200.000	0.005	-0.159
-407.311	152.991	-0.229	0.309
-406.296	27.616	-0.306	-0.254
-405.282	122.666	0.157	-0.194
-404.267	-200.000	0.021	-0.291
-403.252	800.000	0.065	0.243
-402.238	-38.716	0.088	0.046
-401.223	-94.536	0.078	0.021
-400.209	-48.453	0.195	-0.093
-399.194	800.000	-0.016	0.056
-398.179	-200.000	0.012	0.068
-397.165	434.384	0.075	-0.161
-396.150	315.880	0.119	-0.222
-395.136	-100.970	-0.136	0.033
-394.121	-200.000	0.030	0.346
-393.106	800.000	0.063	0.261
-392.092	-200.000	-0.001	-0.044
-391.077	78.123	0.130	-0.137
-390.063	-118.172	-0.260	-0.046
-389.048	-54.445	0.196	0.088
-388.033	-69.517	-0.180	0.068
-387.019	-2.810	0.139	-0.096
-386.004	121.399	0.031	0.039
-384.990	-161.995	0.283	-0.014
-383.975	33.230	-0.125	-0.107
-382.960	23.678	-0.126	0.102
-381.946	800.000	0.061	-0.248
-380.931	149.887	0.040	0.054
-379.917	-54.999	0.294	-0.131
-378.902	-176.408	0.150	0.004
-377.888	212.599	0.143	-0.222
-376.873	560.848	-0.146	-0.348
-375.858	20.212	-0.116	-0.092
-374.844	-140.180	-0.259	0.027
-373.829	-7.360	-0.199	0.133
-372.815	326.913	0.116	0.219
-371.800	800.000	0.094	0.276
-370.785	800.000	0.061	-0.246
-369.771	800.000	0.088	0.296
-368.756	-200.000	0.010	-0.163
-367.742	-67.078	0.144	0.056
-366.727	407.970	-0.088	0.184
-365.712	-151.039	-0.196	0.015
-364.698	94.288	0.092	-0.103
-363.683	-200.000	-0.065	-0.297
-362.669	94.370	-0.125	-0.140
-361.654	68.737	0.111	0.113
-360.639	72.108	0.101	-0.104
-359.625	-65.877	-0.191	-0.075
-358.610	-47.287	0.147	0.071
-357.596	299.052	-0.093	-0.170
-356.581	-200.000	0.044	0.307
-355.566	145.773	-0.059	0.078
-354.552	68.593	0.177	0.179
-353.537	73.517	-0.253	-0.262
-352.523	-52.760	0.192	0.087
-351.508	270.326	0.052	-0.089
-350.493	800.000	0.031	-0.119
-349.479	800.000	-0.085	0.260
-348.464	19.014	0.221	0.174
-347.450	639.934	-0.148	0.371
-346.435	-200.000	-0.015	0.121
-345.420	-5.755	0.139	0.094
-344.406	-200.000	-0.032	-0.277
-343.391	-200.000	-0.003	0.287
-342.377	-200.000	0.002	-0.112
-341.362	29.651	0.095	0.080
-340.348	666.244	-0.067	-0.171
-339.333	14.126	0.094	-0.072
-338.318	188.473	0.193	0.285
-337.304	-128.572	0.349	-0.049
-336.289	-60.227	-0.129	0.054
-335.275	301.022	-0.188	-0.343
-334.260	-101.644	0.490	0.117
-333.245	-3.111	0.137	0.094
-332.231	719.544	-0.012	-0.032
-331.216	800.000	-0.087	-0.296
-330.202	67.090	-0.067	-0.067
-329.187	296.416	0.113	-0.204
-328.172	96.172	-0.280	-0.316
-327.158	-139.261	0.511	0.054
-326.143	55.205	0.210	-0.200
-325.129	-83.433	0.159	0.050
-324.114	516.760	-0.064	0.146
-323.099	800.000	0.111	0.322
-322.085	-98.659	-0.222	-0.056
-321.070	-51.718	-0.349	-0.160
-320.056	-26.227	-0.299	0.173
-319.041	800.000	-0.104	0.450
-318.026	-31.059	0.399	-0.222
-317.012	-200.000	0.054	0.404
-315.997	23.603	0.137	-0.111
-314.983	598.763	-0.182	-0.445
-313.968	-200.000	0.001	-0.311
-312.953	29.792	-0.202	-0.170
-311.939	87.371	-0.206	0.225
-310.924	-97.472	-0.094	0.024
-309.910	24.664	0.161	-0.131
-308.895	342.662	-0.185	0.357
-307.880	368.498	-0.011	-0.021
-306.866	-126.865	-0.239	-0.035
-305.851	-135.543	-0.129	0.015
-304.837	109.979	-0.200	-0.236
-303.822	28.220	0.093	-0.077
-302.807	-200.000	0.015	0.088
-301.793	195.576	0.123	-0.184
-300.778	421.239	0.158	-0.334
-299.764	-72.785	-0.088	0.032
-298.749	337.740	-0.067	-0.128
-297.735	88.188	0.094	-0.103
-296.720	-88.025	-0.071	-0.021
-295.705	116.915	0.062	-0.075
-294.691	800.000	0.167	-0.458
-293.676	7.960	0.147	0.108
-292.662	-65.783	-0.420	-0.166
-291.647	-200.000	-0.020	-0.095
-290.632	-82.595	0.385	-0.123
-289.618	335.350	0.109	0.209
-288.603	-147.285	0.078	0.007
-287.589	-20.621	-0.323	0.195
-286.574	-200.000	0.030	0.176
-285.559	-62.830	-0.168	-0.069
-284.545	380.388	0.042	-0.084
-283.530	-200.000	-0.001	-0.185
-282.516	-27.400	-0.291	-0.166
-281.501	-57.087	-0.214	-0.093
-280.486	145.948	-0.182	-0.240
-279.472	-22.108	-0.018	0.011
-278.457	-157.841	-0.173	0.010
-277.443	48.906	0.255	0.236
-276.428	639.004	0.041	-0.103
-275.413	-56.019	0.197	-0.087
-274.399	-200.000	0.003	0.059
-273.384	332.250	-0.084	0.159
-272.370	800.000	0.041	0.162
-271.355	-107.985	0.300	-0.064
-270.340	-200.000	-0.006	0.085
-269.326	-148.720	-0.026	0.002
-268.311	-141.467	0.387	-0.038
-267.297	-15.780	-0.038	0.024
-266.282	520.708	-0.051	0.118
-265.267	-41.646	-0.144	-0.073
-264.253	-104.834	-0.248	-0.056
-263.238	-161.396	0.149	-0.008
-262.224	261.597	0.176	-0.300
-261.209	800.000	-0.063	-0.241
-260.195	145.890	0.089	-0.117
-259.180	85.502	-0.267	0.289
-258.165	-36.950	-0.235	0.124
-257.151	110.611	-0.212	0.251
-256.136	-123.224	-0.209	0.033
-255.122	800.000	0.015	0.052
-254.107	-121.795	0.202	0.033
-253.092	-21.197	-0.329	0.198
-252.078	72.392	-0.206	-0.211
-251.063	758.795	0.020	-0.053
-250.049	20.418	-0.183	-0.145
-249.034	86.254	-0.111	0.121
-248.019	230.976	0.038	0.061
-247.005	43.423	0.119	0.106
-245.990	155.866	-0.162	0.220
-244.976	-36.180	0.289	-0.154
-243.961	-200.000	0.199	0.000
-242.946	304.066	0.059	0.108
-241.932	-200.000	0.034	-0.174
-240.917	800.000	0.038	0.112
-239.903	148.117	0.078	0.103
-238.888	-64.783	-0.261	0.104
-237.873	800.000	-0.018	0.059
-236.859	-197.472	0.194	0.001
-235.844	207.315	-0.050	-0.077
-234.830	194.462	-0.066	-0.099
-233.815	-23.146	0.250	0.148
-232.800	-200.000	-0.043	0.198
-231.786	-85.560	0.194	0.059
-230.771	266.792	-0.063	-0.109
-229.757	-85.353	-0.311	0.095
-228.742	146.167	0.057	0.076
-227.727	-62.221	0.198	-0.081
-226.713	800.000	0.079	0.227
-225.698	-200.000	-0.113	-0.000
-224.684	76.889	0.072	0.076
-223.669	-3.161	-0.215	0.147
-222.655	71.251	0.215	-0.219
-221.640	-200.000	0.017	-0.086
-220.625	382.952	-0.125	0.253
-219.611	174.020	0.219	0.310
-218.596	-200.000	-0.017	-0.253
-217.582	-200.000	-0.046	-0.334
-216.567	-200.000	0.011	0.178
-215.552	100.565	0.101	-0.115
-214.538	122.795	0.142	-0.174
-213.523	-96.451	0.140	-0.036
-212.509	-10.856	0.121	-0.078
-211.494	94.625	0.010	0.011
-210.479	8.266	-0.253	0.186
-209.465	72.280	-0.093	-0.095
-208.450	-112.470	0.253	-0.050
-207.436	668.687	0.090	-0.230
-206.421	-50.039	-0.457	0.212
-205.406	-92.056	0.179	0.050
-204.392	-141.581	-0.500	0.049
-203.377	-94.528	0.297	0.079
-202.363	800.000	0.071	-0.283
-201.348	221.677	0.220	0.347
-200.333	398.355	-0.135	0.278
-199.319	99.866	0.299	-0.340
-198.304	45.808	0.117	0.106
-197.290	800.000	0.083	0.285
-196.275	294.637	0.095	-0.171
-195.260	-200.000	-0.020	0.143
-194.246	-200.000	0.029	-0.246
-193.231	-200.000	0.070	-0.316
-192.217	135.361	0.067	-0.086
-191.202	14.724	0.068	-0.052
-190.187	-66.229	0.259	-0.101
-189.173	-149.311	-0.184	-0.014
-188.158	84.986	-0.062	0.066
-187.144	103.507	-0.217	0.249
-186.129	217.055	-0.056	0.088
-185.114	85.548	0.170	-0.183
-184.100	800.000	0.086	-0.301
-183.085	-107.416	-0.293	0.063
-182.071	42.777	-0.072	0.064
-181.056	-164.840	0.108	0.005
-180.042	1.523	-0.132	-0.093
-179.027	-200.000	-0.002	0.320
-178.012	-108.593	0.312	-0.066
-176.998	800.000	-0.069	-0.216
-175.983	-200.000	-0.067	-0.307
-174.969	-75.778	0.123	-0.043
-173.954	-137.802	-0.192	0.021
-172.939	800.000	0.076	0.276
-171.925	-86.269	-0.158	-0.048
-170.910	188.652	-0.020	-0.029
-169.896	521.861	0.094	-0.217
-168.881	166.602	0.219	-0.305
-167.866	49.489	0.079	0.073
-166.852	-133.756	0.227	-0.028
-165.837	-18.260	-0.227	0.139
-164.823	-200.000	0.021	0.167
-163.808	137.052	0.261	0.334
-162.793	136.695	0.184	0.236
-161.779	12.107	0.273	0.206
-160.764	-138.910	-0.244	-0.026
-159.750	164.380	0.143	-0.198
-158.735	-97.377	-0.204	0.052
-157.720	800.000	-0.070	-0.192
-156.706	800.000	-0.048	0.137
-155.691	-11.679	0.182	-0.117
-154.677	108.216	0.260	0.303
-153.662	-137.443	-0.110	0.012
-152.647	-101.872	0.336	-0.079
-151.633	733.115	0.014	0.035
-150.618	-200.000	0.007	-0.095
-149.604	26.469	0.130	-0.106
-148.589	55.593	0.086	0.082
-147.574	40.798	-0.230	0.203
-146.560	-200.000	0.030	0.156
-145.545	-140.060	0.118	0.012
-144.531	144.222	0.159	0.208
-143.516	-61.097	-0.114	0.047
-142.502	26.438	0.242	0.198
-141.487	1.444	0.253	-0.178
-140.472	154.987	-0.122	0.164
-139.458	508.386	0.085	-0.194
-138.443	103.082	-0.044	-0.050
-137.429	-198.124	0.233	-0.001
-136.414	91.245	0.223	-0.245
-135.399	-200.000	-0.005	0.073
-134.385	-200.000	-0.270	0.001
-133.370	396.765	0.053	-0.108
-132.356	-200.000	-0.003	0.101
-131.341	216.005	-0.257	-0.399
-130.326	-79.933	0.360	-0.118
-129.312	-42.999	0.167	0.083
-128.297	-79.186	0.026	-0.009
-127.283	-200.000	0.106	-0.544
-126.268	-64.128	-0.477	-0.190
-125.253	12.703	-0.192	-0.145
-124.239	212.260	-0.249	-0.384
-123.224	31.495	-0.017	-0.015
-122.210	117.091	0.156	-0.188
-121.195	72.690	-0.146	-0.149
-120.180	20.720	-0.025	-0.020
-119.166	-200.000	0.021	0.162
-118.151	-105.659	-0.143	0.032
-117.137	49.599	0.235	-0.216
-116.122	800.000	0.092	-0.274
-115.107	-67.628	0.328	0.126
-114.093	-125.070	-0.214	0.032
-113.078	800.000	0.053	-0.171
-112.064	800.000	0.113	-0.336
-111.049	-100.779	0.185	-0.045
-110.034	-200.000	0.067	-0.409
-109.020	8.898	-0.222	-0.164
-108.005	120.718	0.099	-0.121
-106.991	209.788	-0.044	-0.068
-105.976	636.010	-0.172	-0.427
-104.962	-2.396	0.109	0.074
-103.947	-124.686	0.262	-0.040
-102.932	-101.344	-0.037	-0.009
-101.918	-57.690	0.204	-0.087
-100.903	80.541	0.123	-0.130
-99.889	389.375	0.042	0.086
-98.874	33.822	0.124	-0.106
-97.859	232.608	-0.129	-0.206
-96.845	-152.778	0.154	-0.011
-95.830	-200.000	0.032	0.223
-94.816	-200.000	0.004	-0.058
-93.801	23.093	0.311	0.249
-92.786	10.034	0.236	0.175
-91.772	-115.322	-0.353	-0.065
-90.757	42.142	0.237	0.210
-89.743	-185.582	-0.101	-0.001
-88.728	-200.000	0.013	0.104
-87.713	-41.284	0.047	-0.023
-86.699	-68.407	0.161	0.061
-85.684	-200.000	0.042	0.410
-84.670	-200.000	0.022	-0.098
-83.655	800.000	0.035	-0.148
-82.640	129.357	-0.186	0.232
-81.626	59.529	0.052	0.050
-80.611	-168.213	0.232	-0.009
-79.597	159.560	0.119	0.162
-78.582	-73.664	-0.114	0.040
-77.567	65.386	-0.196	0.194
-76.553	-84.893	0.133	-0.041
-75.538	800.000	-0.122	0.398
-74.524	-100.665	0.379	-0.091
-73.509	800.000	-0.160	-0.503
-72.494	-134.867	0.301	-0.036
-71.480	800.000	0.103	-0.302
-70.465	-200.000	-0.043	0.197
-69.451	-200.000	-0.039	-0.195
-68.436	800.000	0.024	-0.085
-67.422	-94.644	0.170	-0.045
-66.407	-200.000	0.002	0.133
-65.392	130.095	0.222	0.277
-64.378	-200.000	0.030	-0.200
-63.363	800.000	0.039	-0.137
-62.349	800.000	0.102	0.350
-61.334	72.712	-0.917	-0.933
-60.319	8.091	0.858	0.628
-59.305	173.214	-0.777	-1.092
-58.290	229.305	0.807	1.285
-57.276	223.982	0.892	1.406
-56.261	-200.000	120.604	631.781
-55.246	427.752	1530.477	3222.786
-54.232	149.594	2675.496	3535.763
-53.217	99.014	2128.491	2398.002
-52.203	35.926	1574.972	1351.568
-51.188	27.988	1321.403	1086.933
-50.173	25.287	1284.201	1040.652
-49.159	51.448	1351.520	1252.208
-48.144	48.846	1363.662	1247.900
-47.130	27.975	1312.495	1079.357
-46.115	24.833	1293.345	1045.244
-45.100	24.666	1288.715	1040.489
-44.086	24.584	1286.469	1038.160
-43.071	24.484	1284.461	1035.918
-42.057	24.632	1281.444	1034.299
-41.042	24.557	1280.584	1033.130
-40.027	24.570	1279.119	1031.986
-39.013	24.589	1276.858	1030.229
-37.998	24.589	1275.300	1028.929
-36.984	24.667	1273.309	1027.729
-35.969	24.711	1271.727	1026.669
-34.954	24.632	1269.720	1024.552
-33.940	24.703	1268.417	1023.866
-32.925	24.705	1266.849	1022.575
-31.911	24.762	1265.647	1021.889
-30.896	24.643	1264.324	1020.097
-29.881	24.823	1263.245	1020.215
-28.867	24.744	1262.156	1018.842
-27.852	24.851	1260.380	1017.982
-26.838	24.776	1259.362	1016.689
-25.823	24.798	1258.393	1015.994
-24.809	24.697	1257.208	1014.421
-23.794	24.688	1255.609	1013.043
-22.779	24.807	1253.878	1012.279
-21.765	24.779	1253.383	1011.680
-20.750	24.802	1251.630	1010.357
-19.736	24.682	1250.585	1008.792
-18.721	24.693	1249.362	1007.831
-17.706	24.765	1248.136	1007.207
-16.692	24.698	1247.491	1006.270
-15.677	24.671	1246.267	1005.087
-14.663	24.642	1244.909	1003.790
-13.648	24.665	1243.622	1002.840
-12.633	24.667	1242.993	1002.306
-11.619	24.643	1242.514	1001.747
-10.604	24.606	1241.468	1000.657
-9.590	24.617	1240.540	999.932
-8.575	24.651	1239.381	999.146
-7.560	24.579	1238.808	998.244
-6.546	24.685	1237.770	997.960
-5.531	24.559	1237.064	996.646
-4.517	24.599	1236.059	996.021
-3.502	24.511	1235.966	995.415
-2.487	24.714	1234.275	995.145
-1.473	24.586	1230.464	991.321
-0.458	22.905	1215.302	969.843
0.556	18.318	1200.089	932.262
1.571	14.473	1207.230	916.622
2.586	13.838	1222.323	924.465
3.600	13.848	1210.475	915.476
4.615	10.425	1140.496	844.666
5.629	4.115	1069.282	760.936
6.644	0.950	1052.244	733.432
7.659	0.822	1050.268	731.370
8.673	0.695	1049.344	730.047
9.688	0.794	1047.906	729.462
10.702	1.080	1045.725	729.253
11.717	4.964	1050.397	751.191
12.731	12.101	1058.927	791.796
13.746	16.547	1064.770	817.636
14.761	17.496	1065.394	822.632
15.775	16.576	1064.486	817.411
16.790	15.811	1061.777	811.571
17.804	15.083	1060.293	806.858
18.819	14.736	1059.265	804.333
19.834	14.410	1058.352	802.002
20.848	14.137	1057.668	800.098
21.863	14.029	1056.527	798.644
22.877	13.806	1055.785	796.945
23.892	13.859	1054.824	796.400
24.907	13.778	1054.431	795.644
25.921	13.821	1053.780	795.292
26.936	13.934	1052.400	794.719
27.950	13.916	1051.993	794.257
28.965	13.927	1050.675	793.244
29.980	13.951	1049.483	792.387
30.994	13.859	1048.349	791.022
32.009	13.884	1047.931	790.756
33.023	14.041	1046.526	790.372
34.038	14.066	1045.107	789.350
35.053	14.124	1044.528	789.120
36.067	13.999	1043.569	787.729
37.082	13.802	1043.433	786.624
38.096	13.840	1042.390	785.948
39.111	13.839	1041.721	785.373
40.126	13.869	1040.611	784.607
41.140	13.808	1038.993	783.030
42.155	13.806	1037.677	781.960
43.169	13.824	1036.860	781.360
44.184	13.749	1036.018	780.301
45.199	13.836	1034.962	779.845
46.213	13.846	1033.765	778.921
47.228	13.982	1032.357	778.428
48.242	13.890	1031.588	777.350
49.257	13.925	1030.485	776.616
50.271	13.986	1029.492	776.080
51.286	13.866	1028.949	775.044
52.301	13.919	1027.875	774.411
53.315	13.900	1026.586	773.284
54.330	13.817	1025.785	772.226
55.344	13.842	1025.254	771.873
56.359	13.868	1024.045	771.018
57.374	13.821	1023.384	770.232
58.388	13.844	1022.428	769.553
59.403	13.764	1021.825	768.661
60.417	13.619	1021.203	767.452
61.432	13.761	1020.038	767.167
62.447	13.742	1019.690	766.750
63.461	13.835	1018.181	765.977
64.476	13.747	1017.433	764.937
65.490	13.769	1017.053	764.686
66.505	13.717	1016.583	764.028
67.520	13.664	1016.039	763.308
68.534	13.793	1014.743	762.859
69.549	13.781	1013.881	762.088
70.563	13.693	1013.463	761.303
71.578	13.684	1012.672	760.597
72.593	13.645	1012.195	759.996
73.607	13.722	1011.521	759.776
74.622	13.689	1010.742	758.972
75.636	13.694	1009.802	758.220
76.651	13.760	1009.197	757.998
77.666	13.696	1008.490	757.111
78.680	13.670	1007.876	756.462
79.695	13.704	1007.014	755.906
80.709	13.795	1006.573	755.920
81.724	13.660	1005.957	754.775
82.739	13.745	1005.044	754.412
83.753	13.808	1004.198	753.999
84.768	13.926	1003.378	753.850
85.782	13.935	1002.252	752.979
86.797	13.832	1001.330	751.753
87.812	13.910	1000.263	751.236
88.826	13.939	999.537	750.759
89.841	13.878	998.942	749.967
90.855	13.884	998.276	749.430
91.870	13.980	996.949	748.801
92.884	14.046	996.169	748.446
93.899	13.925	995.699	747.478
94.914	14.049	994.886	747.363
95.928	13.935	993.813	745.976
96.943	13.901	993.142	745.254
97.957	14.066	992.035	745.096
98.972	13.889	991.809	744.069
99.987	14.002	990.336	743.405
101.001	13.988	990.096	743.095
102.016	13.934	988.860	741.860
103.030	14.070	987.848	741.640
104.045	13.971	987.009	740.506
105.060	14.048	986.486	740.390
106.074	13.836	985.728	738.811
107.089	13.828	984.501	737.792
108.103	13.706	984.213	736.970
109.118	13.891	982.788	736.657
110.133	13.925	982.016	736.163
111.147	13.866	981.237	735.255
112.162	13.865	980.528	734.654
113.176	13.840	979.773	733.913
114.191	13.887	979.470	733.826
115.206	13.864	978.108	732.640
116.220	13.880	977.623	732.285
117.235	13.915	976.446	731.490
118.249	13.809	975.605	730.331
119.264	13.954	974.635	730.179
120.279	13.973	974.115	729.807
121.293	13.837	973.253	728.501
122.308	13.792	972.620	727.765
123.322	13.822	971.274	726.824
124.337	13.919	970.087	726.294
125.352	13.767	969.380	725.039
126.366	14.006	968.098	725.056
127.381	13.912	967.193	723.905
128.395	13.935	966.317	723.287
129.410	13.824	965.653	722.241
130.424	13.915	964.731	721.884
131.439	13.825	964.051	720.920
132.454	13.881	963.394	720.607
133.468	13.977	962.565	720.339
134.483	13.953	961.678	719.508
135.497	14.033	960.357	718.805
136.512	13.981	959.749	718.059
137.527	14.073	958.871	717.739
138.541	13.972	958.698	717.106
139.556	14.054	957.687	716.642
140.570	14.059	956.855	715.976
141.585	14.170	956.209	715.908
142.600	14.057	954.932	714.404
143.614	14.110	954.371	714.149
144.629	14.084	954.138	713.798
145.643	14.175	952.624	712.995
146.658	14.039	952.092	711.950
147.673	13.971	951.086	710.842
148.687	14.029	950.495	710.589
149.702	14.048	949.228	709.657
150.716	14.014	948.532	708.931
151.731	14.033	948.070	708.603
152.746	14.072	947.156	708.024
153.760	14.189	946.548	708.002
154.775	14.167	946.139	707.543
155.789	14.119	945.610	706.878
156.804	14.211	944.675	706.508
157.819	14.188	944.029	705.866
158.833	14.308	943.510	705.921
159.848	14.377	942.027	705.041
160.862	14.113	941.461	703.441
161.877	14.167	940.607	702.968
162.892	14.231	939.956	702.692
163.906	14.283	938.692	701.902
164.921	14.187	937.916	700.855
165.935	14.121	937.328	700.077
166.950	14.225	936.453	699.797
167.964	14.352	935.387	699.472
168.979	14.259	934.749	698.544
169.994	14.250	933.517	697.524
171.008	14.304	933.340	697.556
172.023	14.336	932.427	696.944
173.037	14.401	931.569	696.516
174.052	14.426	930.866	696.032
175.067	14.304	930.400	695.112
176.081	14.457	930.070	695.441
177.096	14.148	929.603	693.744
178.110	14.262	928.740	693.513
179.125	14.262	928.256	693.091
180.140	14.378	927.467	692.922
181.154	14.434	927.154	692.860
182.169	14.398	926.482	692.145
183.183	14.540	925.812	692.173
184.198	14.516	925.212	691.564
185.213	14.610	924.717	691.522
186.227	14.509	924.228	690.676
187.242	14.559	923.223	690.071
188.256	14.687	922.365	689.901
189.271	14.608	921.714	689.027
190.286	14.467	921.200	687.998
191.300	14.435	920.470	687.261
192.315	14.472	919.685	686.766
193.329	14.479	919.404	686.523
194.344	14.469	918.569	685.799
195.359	14.522	917.588	685.223
196.373	14.446	917.385	684.698
197.388	14.611	917.124	685.120
198.402	14.782	916.308	685.152
199.417	14.704	915.761	684.364
200.432	14.754	915.292	684.157
201.446	14.765	914.742	683.729
202.461	14.802	913.859	683.159
203.475	14.823	913.401	682.843
204.490	14.587	912.649	681.257
205.504	14.895	911.539	681.625
206.519	14.676	911.269	680.471
207.534	14.646	911.156	680.201
208.548	14.811	909.720	679.740
209.563	14.734	909.351	679.092
210.577	14.731	908.543	678.419
211.592	14.865	907.857	678.390
212.607	14.980	906.685	677.917
213.621	14.834	906.180	676.891
214.636	14.941	905.266	676.579
215.650	14.974	904.899	676.380
216.665	14.992	904.233	675.897
217.680	15.063	903.648	675.683
218.694	15.173	902.531	675.235
219.709	15.014	902.588	674.572
220.723	14.968	902.094	673.960
221.738	14.929	901.003	672.927
222.753	14.934	900.640	672.618
223.767	15.128	899.596	672.558
224.782	15.114	899.259	672.190
225.796	15.157	898.672	671.863
226.811	14.979	898.499	670.961
227.826	15.191	897.323	670.874
228.840	14.985	896.947	669.710
229.855	15.056	895.920	669.167
230.869	15.117	895.243	668.845
231.884	15.173	894.696	668.599
232.899	15.068	893.933	667.551
233.913	15.145	893.271	667.307
234.928	15.099	892.615	666.574
235.942	15.198	892.135	666.548
236.957	15.132	891.265	665.578
237.972	15.153	890.606	665.113
238.986	15.208	889.883	664.730
240.001	15.029	889.510	663.683
241.015	15.208	888.682	663.716
242.030	15.330	887.892	663.548
243.045	15.290	887.387	662.956
244.059	15.319	886.745	662.532
245.074	15.234	886.184	661.721
246.088	15.397	885.317	661.654
247.103	15.349	884.852	661.062
248.117	15.287	884.438	660.446
249.132	15.507	883.619	660.643
250.147	15.453	883.273	660.116
251.161	15.590	882.486	660.008
252.176	15.420	881.822	658.784
253.190	15.608	881.111	658.932
254.205	15.577	880.557	658.339
255.220	15.536	879.911	657.636
256.234	15.586	879.130	657.191
257.249	15.603	878.821	656.967
258.263	15.747	877.919	656.796
259.278	15.535	877.135	655.326
260.293	15.622	877.031	655.530
261.307	15.792	876.178	655.495
262.322	15.790	875.606	655.001
263.336	15.655	874.959	653.937
264.351	15.822	873.995	653.806
265.366	15.794	873.675	653.399
266.380	15.767	873.087	652.796
267.395	15.737	872.499	652.184
268.409	15.754	871.452	651.407
269.424	15.892	870.705	651.327
270.439	15.790	869.882	650.258
271.453	15.940	868.845	650.005
272.468	15.893	868.733	649.681
273.482	15.891	868.073	649.123
274.497	15.981	867.327	648.854
275.512	15.866	867.266	648.310
276.526	15.942	866.788	648.189
277.541	15.939	866.047	647.566
278.555	15.950	865.681	647.273
279.570	16.081	864.929	647.159
280.585	16.043	864.079	646.321
281.599	16.070	863.266	645.757
282.614	16.158	862.255	645.283
283.628	15.959	862.128	644.368
284.643	16.070	861.525	644.284
285.657	16.067	860.802	643.676
286.672	16.096	860.257	643.323
287.687	16.160	859.337	642.822
288.701	15.997	859.480	642.249
289.716	16.060	858.853	641.965
290.730	16.234	858.061	641.977
291.745	16.087	857.592	641.009
292.760	16.170	856.941	640.784
293.774	16.382	856.026	640.845
294.789	16.230	855.301	639.671
295.803	16.096	855.123	638.973
296.818	16.262	853.961	638.676
297.833	16.266	853.474	638.272
298.847	16.234	852.566	637.415
299.862	16.270	852.451	637.409
300.876	16.272	851.704	636.802
301.891	16.278	851.385	636.527
302.906	16.393	850.381	636.153
303.920	16.547	850.153	636.507
304.935	16.558	849.328	635.876
305.949	16.429	849.211	635.247
306.964	16.447	848.217	634.514
307.979	16.368	847.963	633.972
308.993	16.501	847.188	633.833
310.008	16.547	846.338	633.313
311.022	16.431	846.113	632.657
312.037	16.529	845.246	632.317
313.052	16.501	844.869	631.874
314.066	16.472	844.430	631.384
315.081	16.498	844.001	631.105
316.095	16.439	843.419	630.391
317.110	16.596	842.408	630.164
318.125	16.511	842.139	629.592
319.139	16.548	841.916	629.507
320.154	16.387	841.398	628.466
321.168	16.561	841.180	628.895
322.183	16.594	840.086	628.143
323.197	16.589	839.460	627.600
324.212	16.618	839.087	627.373
325.227	16.541	838.615	626.680
326.241	16.641	837.883	626.448
327.256	16.761	837.316	626.412
328.270	16.611	836.891	625.484
329.285	16.686	836.431	625.361
330.300	16.536	835.694	624.204
331.314	16.517	835.344	623.814
332.329	16.782	834.550	624.144
333.343	16.845	834.006	623.914
334.358	16.705	834.052	623.378
335.373	16.635	833.884	622.939
336.387	16.779	833.171	622.882
337.402	16.866	832.949	622.981
338.416	16.998	832.163	622.823
339.431	16.878	831.922	622.146
340.446	16.892	831.730	621.998
341.460	16.879	831.460	621.696
342.475	16.902	831.041	621.410
343.489	16.975	830.213	621.002
344.504	17.122	829.964	621.298
345.519	17.004	829.751	620.652
346.533	17.202	828.838	620.641
347.548	16.968	828.979	619.834
348.562	17.089	827.963	619.460
349.577	17.050	827.388	618.836
350.592	17.197	826.547	618.685
351.606	17.067	826.123	617.841
352.621	16.918	825.211	616.561
353.635	17.138	824.860	617.044
354.650	17.154	823.985	616.394
355.665	17.297	823.287	616.337
356.679	17.172	822.914	615.548
357.694	17.170	822.196	614.951
358.708	17.172	821.710	614.539
359.723	17.214	821.368	614.381
360.738	17.133	820.584	613.449
361.752	17.169	820.313	613.322
362.767	17.267	819.217	612.801
363.781	17.331	818.926	612.760
364.796	17.418	818.457	612.669
365.810	17.472	817.932	612.414
366.825	17.362	817.658	611.760
367.840	17.272	817.396	611.184
368.854	17.401	816.809	611.156
369.869	17.311	816.653	610.663
370.883	17.276	816.233	610.167
371.898	17.436	815.875	610.420
372.913	17.463	815.189	609.950
373.927	17.416	814.498	609.211
374.942	17.615	814.153	609.611
375.956	17.629	813.691	609.263
376.971	17.584	813.386	608.817
377.986	17.597	812.877	608.432
379.000	17.766	812.391	608.616
380.015	17.594	812.091	607.723
381.029	17.699	811.300	607.453
382.044	17.650	810.655	606.741
383.059	17.780	810.113	606.742
384.073	17.692	809.342	605.799
385.088	17.787	809.143	605.934
386.102	17.568	808.503	604.625
387.117	17.704	807.842	604.558
388.132	17.689	807.450	604.158
389.146	17.868	806.994	604.397
390.161	17.779	806.430	603.608
391.175	17.614	806.158	602.767
392.190	17.798	805.429	602.817
393.205	17.862	804.894	602.592
394.219	17.795	804.876	602.289
395.234	17.678	804.731	601.711
396.248	17.757	803.817	601.254
397.263	17.603	803.542	600.453
398.278	17.638	803.358	600.387
399.292	17.823	802.799	600.567
400.307	17.817	802.500	600.268
401.321	17.701	801.832	599.307
402.336	17.944	801.356	599.752
403.350	17.878	800.609	598.908
404.365	17.974	800.400	599.036
405.380	18.077	799.472	598.650
406.394	17.946	799.262	597.978
407.409	17.876	798.876	597.394
408.423	18.028	798.867	597.866
409.438	18.015	798.225	597.287
410.453	18.116	797.832	597.294
411.467	18.151	797.373	597.018
412.482	18.201	796.934	596.811
413.496	18.207	796.388	596.371
414.511	18.204	795.996	596.014
415.526	18.237	795.573	595.759
416.540	18.108	795.286	595.043
417.555	18.188	794.710	594.838
418.569	18.114	794.769	594.573
419.584	18.099	793.907	593.823
420.599	18.196	793.696	593.948
421.613	115.911	1297.038	1488.626
422.628	99.874	1370.344	1488.710
