DTS Sentinel unit serial number:	SN413079Multiplexer serial number:	ORYXHardware model number:	OX4-SRSoftware version number:	ORYX F/W v4.00 Oryx Data Collector v3.7.2.0data status	okinstallation	princeton_trtdifferential loss correction	single-endedforward channel	channel 1reverse channel	N/Adate	2019/09/11time	22:32:11forward acquisition time	60.00reverse acquisition time	0.00gamma	496.2192k internal	0.2315k external	0.2315temperature offset calibration	1.0058default loss term (dB/km)	0.3790temperature slope calibration	1.0000multiplexer offset coefficient	1.0000multiplexer slope coefficient	1.0000fibre end	0.00T internal ref (°C)	35.06T ext. ref 1 (°C)	1.79T ext. ref 2 (°C)	29.49length (m)	temperature (°C)	Stokes	anti-Stokes-747.200	-104.929	-0.067	0.016
-746.185	45.152	-0.244	0.228
-745.171	468.138	0.059	0.135
-744.156	-14.145	-0.045	-0.030
-743.142	-105.497	-0.164	0.038
-742.127	-200.000	-0.015	0.200
-741.112	-118.204	-0.141	0.026
-740.098	16.784	0.101	0.081
-739.083	16.131	-0.230	-0.183
-738.069	-4.644	0.231	0.161
-737.054	116.044	-0.007	0.008
-736.039	-200.000	0.007	-0.204
-735.025	800.000	0.113	-0.326
-734.010	52.862	-0.042	-0.040
-732.996	-84.996	-0.277	-0.088
-731.981	183.876	-0.104	0.155
-730.966	183.186	-0.058	0.087
-729.952	2.390	0.157	-0.115
-728.937	800.000	0.039	0.154
-727.923	341.106	-0.085	-0.168
-726.908	465.511	-0.036	0.081
-725.894	10.377	0.082	-0.063
-724.879	-44.376	0.167	0.085
-723.864	-83.649	-0.260	0.084
-722.850	569.757	-0.092	-0.227
-721.835	58.635	-0.258	-0.256
-720.821	800.000	0.024	0.076
-719.806	-200.000	0.001	0.048
-718.791	-93.956	-0.167	-0.046
-717.777	800.000	-0.074	-0.301
-716.762	-137.235	-0.053	0.006
-715.748	-200.000	-0.032	-0.369
-714.733	-56.788	-0.198	0.088
-713.718	315.261	0.138	0.263
-712.704	-125.393	-0.132	-0.020
-711.689	34.941	0.128	0.113
-710.675	-71.740	0.173	0.065
-709.660	-71.374	-0.343	0.130
-708.645	136.728	0.154	-0.203
-707.631	123.438	0.136	0.173
-706.616	159.871	0.062	-0.087
-705.602	-94.407	0.279	0.077
-704.587	-137.721	0.089	0.010
-703.572	36.073	-0.149	-0.133
-702.558	-45.293	-0.383	-0.193
-701.543	449.137	0.069	0.154
-700.529	660.334	-0.156	-0.405
-699.514	12.398	-0.137	-0.107
-698.499	328.544	-0.176	-0.343
-697.485	-135.116	0.017	-0.002
-696.470	-46.755	-0.186	-0.092
-695.456	-43.454	-0.035	0.018
-694.441	-76.983	0.158	-0.056
-693.426	-19.923	0.248	-0.155
-692.412	35.027	-0.171	0.151
-691.397	397.181	0.058	0.122
-690.383	-119.187	0.290	-0.051
-689.368	-150.472	-0.416	-0.032
-688.354	-130.515	0.233	0.032
-687.339	19.028	-0.076	-0.062
-686.324	-20.960	-0.378	0.234
-685.310	-133.069	0.320	0.041
-684.295	800.000	-0.073	-0.206
-683.281	800.000	0.111	-0.338
-682.266	800.000	-0.056	-0.212
-681.251	-59.093	0.416	0.181
-680.237	16.164	-0.177	0.141
-679.222	529.983	-0.094	-0.225
-678.208	800.000	0.029	-0.096
-677.193	-200.000	-0.031	0.207
-676.178	-200.000	-0.001	-0.054
-675.164	-96.686	-0.164	-0.044
-674.149	-126.673	0.053	-0.008
-673.135	-43.997	-0.112	-0.057
-672.120	-89.527	-0.089	0.026
-671.105	440.155	-0.123	0.273
-670.091	800.000	0.089	-0.248
-669.076	-150.950	0.201	0.015
-668.062	-75.945	-0.136	0.049
-667.047	466.779	-0.115	-0.259
-666.032	-89.232	-0.367	0.110
-665.018	-104.376	-0.182	0.043
-664.003	-200.000	-0.010	-0.063
-662.989	800.000	0.037	-0.114
-661.974	41.963	0.273	-0.251
-660.959	-120.620	0.127	-0.022
-659.945	10.148	-0.051	-0.039
-658.930	8.276	-0.323	-0.245
-657.916	-94.108	0.210	0.058
-656.901	26.424	-0.036	0.031
-655.886	-200.000	-0.026	0.195
-654.872	117.042	-0.105	-0.130
-653.857	-18.043	-0.250	0.158
-652.843	-80.089	0.138	-0.047
-651.828	800.000	0.072	-0.280
-650.814	800.000	0.056	0.174
-649.799	410.541	-0.183	0.393
-648.784	64.328	0.116	-0.118
-647.770	70.325	-0.150	-0.157
-646.755	279.807	-0.047	0.085
-645.741	46.002	-0.148	-0.138
-644.726	91.840	0.138	-0.157
-643.711	-49.430	-0.068	-0.033
-642.697	414.208	0.098	-0.211
-641.682	143.881	-0.130	0.175
-640.668	-137.164	0.067	0.008
-639.653	-200.000	-0.040	-0.398
-638.638	800.000	-0.052	-0.185
-637.624	-57.146	0.088	-0.039
-636.609	-141.870	0.433	-0.044
-635.595	-172.872	0.294	-0.009
-634.580	-200.000	0.038	-0.414
-633.565	-90.705	-0.253	-0.074
-632.551	-11.989	0.110	-0.073
-631.536	-200.000	-0.035	-0.220
-630.522	800.000	-0.024	0.089
-629.507	-200.000	0.028	-0.148
-628.492	87.007	0.217	0.242
-627.478	-61.902	-0.027	-0.011
-626.463	-137.700	-0.279	-0.032
-625.449	-200.000	-0.028	0.133
-624.434	228.432	0.079	0.129
-623.419	364.543	-0.067	-0.137
-622.405	29.142	-0.265	-0.227
-621.390	-200.000	0.008	0.138
-620.376	42.560	-0.286	0.262
-619.361	-71.612	-0.190	-0.072
-618.346	-48.343	-0.255	0.124
-617.332	-169.682	-0.109	0.004
-616.317	-200.000	0.062	0.352
-615.303	800.000	0.113	0.407
-614.288	-200.000	0.019	0.168
-613.273	800.000	-0.044	0.180
-612.259	66.697	0.119	0.122
-611.244	128.621	0.239	-0.307
-610.230	-138.762	0.252	-0.028
-609.215	-53.489	-0.239	-0.110
-608.201	-97.789	-0.263	-0.069
-607.186	-142.226	-0.147	0.015
-606.171	-148.918	-0.125	0.010
-605.157	600.865	0.157	0.394
-604.142	-200.000	-0.079	0.385
-603.128	-57.856	0.354	0.156
-602.113	-44.276	0.272	0.138
-601.098	612.781	0.058	0.145
-600.084	100.613	0.162	0.189
-599.069	159.834	0.261	0.366
-598.055	-87.462	-0.309	0.094
-597.040	264.123	0.041	0.071
-596.025	800.000	-0.082	-0.259
-595.011	-164.233	-0.125	0.006
-593.996	-161.469	-0.301	0.016
-592.982	-200.000	-0.000	0.088
-591.967	32.894	0.193	-0.168
-590.952	251.375	-0.181	0.311
-589.938	-89.281	-0.191	-0.057
-588.923	152.768	0.136	-0.187
-587.909	70.306	-0.090	0.094
-586.894	-200.000	0.011	0.323
-585.879	106.161	-0.056	0.067
-584.865	-176.202	-0.534	-0.014
-583.850	-200.000	-0.024	-0.192
-582.836	-36.586	-0.249	-0.135
-581.821	-200.000	-0.118	0.000
-580.806	208.279	0.074	-0.117
-579.792	800.000	-0.028	-0.079
-578.777	87.278	0.227	-0.252
-577.763	800.000	-0.052	0.171
-576.748	555.703	-0.083	-0.201
-575.733	-200.000	-0.030	0.369
-574.719	-108.533	0.234	0.051
-573.704	-121.796	0.099	0.016
-572.690	-98.927	0.083	-0.021
-571.675	-183.361	0.319	-0.006
-570.661	-31.665	-0.158	-0.090
-569.646	-158.585	0.047	0.003
-568.631	178.437	0.089	-0.130
-567.617	-200.000	-0.010	0.285
-566.602	120.445	0.216	0.270
-565.588	800.000	0.029	0.114
-564.573	127.683	-0.030	0.039
-563.558	139.151	-0.059	-0.078
-562.544	359.139	0.224	0.450
-561.529	-200.000	0.011	-0.261
-560.515	-129.184	-0.433	0.061
-559.500	-200.000	0.003	-0.045
-558.485	28.065	0.233	-0.198
-557.471	-46.700	0.327	0.161
-556.456	-51.130	-0.257	-0.121
-555.442	315.121	0.090	0.170
-554.427	-200.000	-0.058	-0.263
-553.412	276.925	-0.126	-0.226
-552.398	-85.583	-0.443	-0.139
-551.383	433.275	0.129	0.282
-550.369	-75.744	-0.046	-0.016
-549.354	-73.233	-0.441	-0.163
-548.339	265.845	-0.083	-0.145
-547.325	-121.698	-0.514	-0.086
-546.310	-103.069	-0.060	-0.014
-545.296	583.758	-0.092	0.226
-544.281	582.872	-0.050	0.122
-543.266	-120.148	0.187	0.032
-542.252	629.822	0.071	0.180
-541.237	800.000	0.034	0.136
-540.223	-80.233	-0.183	0.062
-539.208	-124.784	-0.229	-0.036
-538.193	800.000	-0.091	-0.265
-537.179	-11.431	0.059	0.039
-536.164	-114.968	0.156	0.030
-535.150	74.897	0.135	-0.143
-534.135	-35.065	0.149	-0.082
-533.121	-125.219	-0.075	0.011
-532.106	145.933	-0.206	-0.277
-531.091	23.384	-0.306	-0.253
-530.077	571.869	-0.035	0.085
-529.062	22.680	0.060	-0.050
-528.048	-23.026	0.071	0.043
-527.033	313.445	-0.090	-0.171
-526.018	-98.178	0.125	0.032
-525.004	-200.000	-0.292	0.001
-523.989	75.046	0.286	-0.303
-522.975	-152.527	-0.424	-0.031
-521.960	800.000	0.026	-0.108
-520.945	21.582	0.291	-0.238
-519.931	68.996	-0.155	0.160
-518.916	390.971	-0.155	-0.323
-517.902	599.974	0.039	-0.098
-516.887	630.117	0.130	-0.330
-515.872	800.000	0.077	-0.217
-514.858	-138.251	0.498	0.055
-513.843	-200.000	0.038	0.269
-512.829	337.452	-0.127	0.248
-511.814	-95.971	-0.075	0.020
-510.799	800.000	-0.050	-0.172
-509.785	-121.259	0.154	-0.026
-508.770	-200.000	-0.019	-0.380
-507.756	-48.424	-0.281	-0.136
-506.741	800.000	-0.032	-0.123
-505.726	-30.582	0.101	-0.057
-504.712	114.016	-0.068	0.083
-503.697	-36.100	0.212	0.115
-502.683	-26.795	-0.238	-0.140
-501.668	-42.452	0.040	-0.020
-500.653	664.698	-0.040	0.104
-499.639	66.889	0.229	0.234
-498.624	306.477	-0.089	-0.167
-497.610	-200.000	0.039	0.357
-496.595	111.655	-0.092	0.111
-495.581	-133.511	-0.326	-0.041
-494.566	-73.945	0.137	0.050
-493.551	-49.882	-0.202	-0.096
-492.537	-84.257	0.271	0.086
-491.522	-200.000	-0.008	-0.244
-490.508	-3.106	0.163	0.114
-489.493	-145.208	-0.455	0.041
-488.478	-200.000	-0.021	-0.141
-487.464	617.234	-0.028	-0.070
-486.449	-20.332	-0.366	0.226
-485.435	236.267	0.095	-0.157
-484.420	-200.000	0.007	-0.288
-483.405	28.316	-0.186	0.158
-482.391	-200.000	-0.007	0.164
-481.376	28.829	-0.234	-0.198
-480.362	-100.843	-0.237	-0.058
-479.347	-153.287	-0.178	-0.012
-478.332	136.065	0.082	0.107
-477.318	-178.153	0.095	-0.002
-476.303	127.714	0.119	0.152
-475.289	33.190	-0.101	-0.087
-474.274	92.662	0.111	0.126
-473.259	-72.976	-0.168	-0.062
-472.245	-168.001	-0.290	-0.011
-471.230	46.594	0.218	-0.203
-470.216	-88.611	0.210	-0.063
-469.201	-15.464	-0.239	0.153
-468.186	-170.913	-0.454	-0.016
-467.172	-121.129	0.345	-0.058
-466.157	456.478	-0.090	0.200
-465.143	-200.000	-0.248	0.000
-464.128	-172.135	0.205	-0.007
-463.113	-200.000	-0.012	0.174
-462.099	-200.000	0.021	0.114
-461.084	-95.075	0.417	-0.113
-460.070	-200.000	0.100	-0.460
-459.055	589.780	0.073	-0.180
-458.040	18.182	-0.177	-0.141
-457.026	62.662	-0.216	-0.216
-456.011	456.594	-0.112	-0.248
-454.997	-200.000	0.067	-0.412
-453.982	-71.130	0.231	0.087
-452.968	255.141	0.083	0.142
-451.953	-91.718	-0.079	-0.023
-450.938	396.947	-0.034	-0.072
-449.924	247.286	0.079	0.134
-448.909	-169.718	-0.115	-0.004
-447.895	-70.949	-0.264	0.100
-446.880	358.669	0.052	0.103
-445.865	99.945	0.147	-0.171
-444.851	79.752	0.099	-0.106
-443.836	-98.629	0.344	0.088
-442.822	-174.579	0.342	0.010
-441.807	158.858	-0.107	0.149
-440.792	38.002	-0.114	0.102
-439.778	137.002	0.171	-0.224
-438.763	-13.395	-0.102	-0.066
-437.749	158.176	0.048	0.067
-436.734	-113.954	-0.260	0.050
-435.719	-200.000	0.007	0.214
-434.705	159.430	-0.185	0.258
-433.690	156.134	0.064	0.089
-432.676	-147.609	-0.146	0.012
-431.661	-83.919	-0.163	-0.052
-430.646	-8.519	-0.047	-0.032
-429.632	-182.499	0.099	0.002
-428.617	-141.965	0.245	0.024
-427.603	-200.000	0.010	-0.112
-426.588	-200.000	-0.000	0.046
-425.573	-98.868	0.183	0.047
-424.559	-118.844	-0.283	-0.050
-423.544	116.988	0.062	-0.077
-422.530	-200.000	-0.034	-0.266
-421.515	-104.908	-0.289	0.066
-420.500	-132.228	0.468	-0.061
-419.486	800.000	0.072	0.236
-418.471	58.600	-0.037	0.036
-417.457	-93.580	0.190	-0.053
-416.442	14.718	-0.079	-0.062
-415.428	800.000	0.027	-0.116
-414.413	46.101	-0.053	0.049
-413.398	23.892	-0.107	-0.089
-412.384	-200.000	0.049	0.287
-411.369	-146.860	0.404	-0.035
-410.355	-102.253	0.268	0.064
-409.340	-113.385	0.551	-0.108
-408.325	444.026	-0.114	-0.251
-407.311	54.487	-0.087	0.084
-406.296	-200.000	-0.014	0.122
-405.282	-110.064	-0.236	0.049
-404.267	-99.661	0.148	-0.037
-403.252	-39.364	-0.121	0.063
-402.238	199.792	-0.127	0.195
-401.223	800.000	0.053	-0.157
-400.209	800.000	-0.070	0.211
-399.194	10.543	-0.135	0.103
-398.179	-101.547	-0.230	-0.056
-397.165	-200.000	0.004	-0.277
-396.150	329.641	-0.150	0.289
-395.136	-200.000	-0.056	0.378
-394.121	800.000	0.010	-0.029
-393.106	21.787	-0.109	0.089
-392.092	268.724	0.078	-0.136
-391.077	-32.332	0.200	-0.111
-390.063	77.418	-0.179	0.191
-389.048	687.131	0.065	-0.169
-388.033	800.000	0.117	-0.332
-387.019	800.000	-0.131	0.360
-386.004	800.000	0.041	-0.132
-384.990	-200.000	0.078	-0.444
-383.975	-58.093	0.189	0.083
-382.960	-200.000	-0.039	0.208
-381.946	-57.070	-0.264	0.116
-380.931	744.798	0.172	0.464
-379.917	-83.394	0.097	-0.031
-378.902	388.768	0.087	0.180
-377.888	119.116	0.208	0.256
-376.873	-55.391	-0.132	0.059
-375.858	800.000	-0.048	0.172
-374.844	-149.670	0.551	0.043
-373.829	800.000	-0.086	0.244
-372.815	236.282	-0.115	-0.191
-371.800	486.638	0.040	-0.091
-370.785	140.800	-0.175	0.231
-369.771	-200.000	0.073	-0.374
-368.756	232.383	-0.076	-0.125
-367.742	-200.000	-0.064	0.511
-366.727	-200.000	-0.009	0.318
-365.712	800.000	-0.020	-0.065
-364.698	-200.000	0.024	0.310
-363.683	14.539	-0.039	0.030
-362.669	-155.746	-0.146	-0.009
-361.654	-200.000	0.122	-0.602
-360.639	-200.000	0.033	-0.222
-359.625	-69.570	0.119	-0.045
-358.610	27.983	0.085	-0.072
-357.596	412.632	-0.069	-0.147
-356.581	-50.677	0.201	0.094
-355.566	-200.000	0.019	-0.198
-354.552	-138.727	-0.247	0.027
-353.537	30.315	-0.177	0.151
-352.523	-200.000	0.028	0.143
-351.508	-200.000	-0.007	-0.179
-350.493	-80.356	0.256	0.085
-349.479	-200.000	-0.002	0.087
-348.464	92.668	-0.153	0.172
-347.450	68.370	0.126	0.129
-346.435	64.818	-0.152	-0.153
-345.420	129.591	-0.148	0.188
-344.406	-160.020	-0.102	0.006
-343.391	157.876	0.152	-0.211
-342.377	-86.504	0.154	-0.047
-341.362	-24.554	0.102	-0.060
-340.348	-120.472	-0.289	-0.049
-339.333	-197.017	0.320	0.002
-338.318	48.811	0.188	0.176
-337.304	800.000	0.044	0.182
-336.289	-200.000	0.011	0.071
-335.275	-200.000	0.002	0.201
-334.260	-200.000	0.006	-0.043
-333.245	-75.061	-0.147	-0.052
-332.231	173.283	0.124	0.179
-331.216	-200.000	0.001	-0.326
-330.202	800.000	0.029	-0.115
-329.187	-11.864	-0.062	0.041
-328.172	150.079	-0.064	-0.087
-327.158	800.000	-0.065	-0.181
-326.143	800.000	0.119	-0.380
-325.129	-42.335	-0.132	-0.067
-324.114	-22.656	0.173	-0.104
-323.099	-22.877	0.244	-0.147
-322.085	56.539	0.171	-0.165
-321.070	800.000	-0.129	-0.496
-320.056	-200.000	0.039	0.361
-319.041	-200.000	-0.008	0.208
-318.026	-30.991	0.175	0.099
-317.012	-94.983	0.089	0.024
-315.997	21.492	0.156	0.127
-314.983	166.094	-0.058	0.082
-313.968	-134.255	0.165	0.020
-312.953	-171.553	0.166	0.005
-311.939	-164.537	-0.163	-0.007
-310.924	-86.695	-0.356	-0.109
-309.910	-53.812	-0.362	-0.165
-308.895	-200.000	-0.065	0.458
-307.880	-95.237	0.355	0.095
-306.866	-119.170	-0.207	-0.036
-305.851	800.000	0.059	-0.163
-304.837	-200.000	0.019	0.261
-303.822	-30.866	-0.206	-0.116
-302.807	-200.000	0.015	0.067
-301.793	-200.000	-0.030	-0.170
-300.778	148.900	-0.056	-0.075
-299.764	-109.009	0.101	-0.021
-298.749	257.535	-0.090	-0.155
-297.735	45.789	0.352	-0.324
-296.720	151.957	-0.198	0.268
-295.705	96.325	0.114	0.130
-294.691	-200.000	0.020	0.242
-293.676	186.452	-0.124	0.184
-292.662	-92.226	-0.192	0.054
-291.647	144.009	0.276	0.366
-290.632	-60.905	-0.191	-0.080
-289.618	-200.000	0.009	0.132
-288.603	-200.000	-0.033	0.380
-287.589	-200.000	0.002	-0.165
-286.574	-186.344	0.197	-0.003
-285.559	69.944	-0.084	-0.086
-284.545	-200.000	0.030	-0.193
-283.530	653.076	-0.048	0.124
-282.516	60.227	0.141	0.139
-281.501	-81.775	0.302	-0.099
-280.486	-200.000	0.036	0.372
-279.472	74.802	-0.203	-0.213
-278.457	-200.000	0.012	-0.109
-277.443	800.000	0.038	-0.164
-276.428	458.726	0.066	0.145
-275.413	-71.737	0.134	-0.050
-274.399	22.929	-0.158	0.129
-273.384	-56.709	0.296	-0.130
-272.370	32.230	-0.276	0.237
-271.355	800.000	0.024	0.071
-270.340	-132.210	-0.261	-0.034
-269.326	83.757	-0.234	0.254
-268.311	-26.525	0.183	-0.107
-267.297	259.494	-0.074	-0.126
-266.282	-46.246	-0.341	-0.167
-265.267	389.579	-0.090	0.187
-264.253	254.768	-0.099	0.168
-263.238	2.009	-0.097	0.070
-262.224	-60.152	0.152	0.064
-261.209	181.821	-0.137	-0.200
-260.195	-12.645	0.274	-0.178
-259.180	-85.376	-0.114	-0.035
-258.165	161.157	-0.116	0.161
-257.151	-93.929	0.045	-0.012
-256.136	-154.036	-0.158	-0.011
-255.122	-200.000	0.159	0.000
-254.107	469.320	-0.100	-0.224
-253.092	-69.309	0.205	0.078
-252.078	9.122	0.269	-0.202
-251.063	800.000	-0.035	-0.144
-250.049	28.406	-0.008	0.007
-249.034	800.000	-0.089	-0.279
-248.019	-37.172	0.306	0.163
-247.005	-89.719	-0.001	0.000
-245.990	-200.000	0.019	0.353
-244.976	261.582	-0.098	0.170
-243.961	-200.000	-0.000	-0.055
-242.946	141.163	0.137	-0.181
-241.932	-180.391	0.487	0.010
-240.917	-14.222	-0.329	0.211
-239.903	-200.000	-0.049	0.375
-238.888	-200.000	-0.017	-0.163
-237.873	-52.898	-0.311	-0.142
-236.859	-80.912	-0.286	-0.094
-235.844	-62.813	-0.060	-0.025
-234.830	47.688	-0.224	0.208
-233.815	-200.000	0.020	0.199
-232.800	-80.009	-0.292	0.097
-231.786	4.432	0.258	-0.188
-230.771	-200.000	0.039	0.234
-229.757	-200.000	-0.050	0.230
-228.742	-148.702	0.118	0.010
-227.727	-200.000	-0.037	-0.285
-226.713	-200.000	-0.032	-0.171
-225.698	-49.397	0.312	-0.148
-224.684	29.703	0.026	-0.022
-223.669	-28.219	-0.022	-0.013
-222.655	373.012	0.021	-0.042
-221.640	150.359	0.224	0.302
-220.625	436.650	-0.090	0.194
-219.611	-63.859	-0.404	-0.164
-218.596	311.106	0.097	0.180
-217.582	536.114	0.124	-0.291
-216.567	43.224	-0.055	-0.050
-215.552	633.141	-0.030	0.076
-214.538	-118.254	0.056	-0.010
-213.523	-73.319	0.140	0.051
-212.509	-181.781	-0.260	0.005
-211.494	-69.114	0.546	-0.209
-210.479	-39.037	-0.300	-0.157
-209.465	-132.995	0.228	0.029
-208.450	212.955	0.055	-0.087
-207.436	57.018	-0.124	-0.120
-206.421	132.070	0.214	-0.274
-205.406	51.138	0.275	-0.259
-204.392	-59.609	-0.092	-0.039
-203.377	-46.162	0.320	-0.156
-202.363	138.067	0.166	0.216
-201.348	-114.094	0.168	0.032
-200.333	664.981	-0.173	-0.442
-199.319	41.989	0.075	-0.068
-198.304	-120.925	0.067	-0.011
-197.290	59.786	0.219	-0.214
-196.275	-55.940	0.229	-0.101
-195.260	30.011	-0.131	0.111
-194.246	-37.906	-0.163	-0.086
-193.231	223.939	0.051	0.081
-192.217	-116.611	0.451	-0.082
-191.202	-144.632	-0.063	-0.006
-190.187	81.256	0.139	0.149
-189.173	-99.192	0.133	-0.033
-188.158	800.000	-0.124	-0.351
-187.144	334.315	-0.080	-0.154
-186.129	-169.923	-0.199	-0.007
-185.114	754.881	0.051	0.136
-184.100	446.932	0.157	-0.343
-183.085	110.423	0.052	-0.062
-182.071	589.953	0.114	-0.280
-181.056	143.522	-0.055	0.072
-180.042	-200.000	-0.035	0.317
-179.027	-10.711	0.105	-0.069
-178.012	-200.000	0.020	0.127
-176.998	-32.926	-0.155	0.085
-175.983	-200.000	-0.029	-0.164
-174.969	228.388	0.143	0.231
-173.954	119.666	0.172	0.211
-172.939	78.000	-0.051	0.054
-171.925	737.658	0.035	-0.092
-170.910	-62.900	0.141	0.058
-169.896	70.819	-0.233	0.239
-168.881	-200.000	0.009	0.098
-167.866	79.235	0.065	-0.069
-166.852	-133.967	-0.093	0.011
-165.837	-200.000	0.001	0.416
-164.823	-200.000	0.025	-0.131
-163.808	489.568	0.098	0.222
-162.793	422.635	0.054	0.115
-161.779	-166.608	0.214	0.009
-160.764	73.975	0.156	-0.163
-159.750	-119.513	-0.194	-0.033
-158.735	-59.289	0.173	0.074
-157.720	-183.986	-0.319	-0.005
-156.706	17.658	-0.158	-0.124
-155.691	39.732	-0.051	0.045
-154.677	-96.023	0.159	0.042
-153.662	-131.495	0.164	0.021
-152.647	-29.513	0.168	-0.095
-151.633	291.529	-0.065	-0.116
-150.618	145.843	-0.253	-0.336
-149.604	141.349	0.016	0.021
-148.589	800.000	-0.041	0.161
-147.574	7.652	-0.177	-0.131
-146.560	-38.132	-0.206	-0.108
-145.545	-69.351	-0.121	0.046
-144.531	11.769	0.088	-0.067
-143.516	-41.657	0.103	-0.053
-142.502	140.471	0.226	0.295
-141.487	-26.177	-0.198	0.115
-140.472	-200.000	0.043	-0.353
-139.458	-70.480	0.266	0.100
-138.443	-36.603	-0.092	-0.049
-137.429	255.094	-0.111	0.188
-136.414	681.294	-0.023	0.060
-135.399	214.559	0.093	0.146
-134.385	-112.331	-0.259	-0.051
-133.370	-11.121	0.242	-0.158
-132.356	-30.614	-0.144	-0.080
-131.341	-200.000	0.018	-0.162
-130.326	415.640	-0.226	0.476
-129.312	800.000	0.058	0.165
-128.297	567.633	0.068	0.163
-127.283	534.669	0.162	0.379
-126.268	-34.628	0.095	0.052
-125.253	-146.542	-0.308	-0.027
-124.239	154.612	-0.108	-0.146
-123.224	-85.469	-0.216	-0.067
-122.210	-200.000	-0.000	0.159
-121.195	104.764	-0.127	0.148
-120.180	-200.000	0.003	0.186
-119.166	32.632	-0.292	0.250
-118.151	217.240	-0.134	-0.212
-117.137	800.000	0.075	-0.256
-116.122	-126.909	0.176	-0.026
-115.107	-39.602	0.362	0.188
-114.093	-134.081	-0.253	0.031
-113.078	118.209	0.058	-0.070
-112.064	-57.989	-0.490	-0.211
-111.049	364.136	0.062	0.123
-110.034	-50.682	-0.117	0.055
-109.020	-89.526	-0.361	0.105
-108.005	-127.451	0.262	0.038
-106.991	-196.247	0.320	-0.002
-105.976	-77.020	-0.072	-0.025
-104.962	-46.272	0.160	0.078
-103.947	-70.857	-0.394	0.147
-102.932	-69.819	-0.218	0.082
-101.918	-67.143	-0.279	-0.109
-100.903	-109.905	-0.066	0.014
-99.889	65.204	-0.211	0.211
-98.874	-92.776	-0.242	0.067
-97.859	791.442	0.032	0.086
-96.845	-200.000	-0.005	-0.067
-95.830	-83.341	-0.244	0.077
-94.816	89.955	-0.107	0.118
-93.801	-151.871	0.139	0.010
-92.786	-157.013	-0.593	0.036
-91.772	312.248	-0.107	0.198
-90.757	741.298	0.218	0.579
-89.743	457.743	0.115	0.253
-88.728	-200.000	-0.040	-0.529
-87.713	333.292	0.094	-0.180
-86.699	-194.504	0.232	0.002
-85.684	170.896	0.252	0.357
-84.670	35.267	0.192	0.166
-83.655	-106.341	0.127	-0.028
-82.640	-109.428	0.177	-0.037
-81.626	-121.576	-0.252	-0.041
-80.611	800.000	-0.036	0.131
-79.597	-59.128	-0.266	0.113
-78.582	-69.303	0.091	-0.035
-77.567	-200.000	0.035	0.280
-76.553	-57.072	0.100	0.043
-75.538	-112.340	0.197	-0.039
-74.524	-171.271	-0.200	-0.007
-73.509	23.863	0.148	-0.120
-72.494	-179.168	0.429	-0.009
-71.480	-121.767	0.085	0.014
-70.465	462.612	-0.054	0.120
-69.451	572.801	-0.073	-0.177
-68.436	-200.000	0.003	-0.024
-67.422	-43.673	0.209	0.104
-66.407	800.000	0.059	-0.205
-65.392	720.242	0.121	-0.316
-64.378	800.000	-0.108	0.361
-63.363	-178.527	-0.364	0.008
-62.349	25.891	-0.094	0.077
-61.334	234.461	-0.536	-0.872
-60.319	800.000	0.100	0.330
-59.305	-200.000	-0.139	-0.647
-58.290	213.791	0.605	0.944
-57.276	517.711	0.647	1.493
-56.261	-200.000	96.528	587.657
-55.246	573.856	1372.961	3303.527
-54.232	154.456	2577.682	3491.260
-53.217	116.999	2158.715	2615.444
-52.203	46.900	1617.392	1483.084
-51.188	38.617	1354.566	1191.914
-50.173	35.243	1312.479	1134.899
-49.159	58.229	1362.139	1316.860
-48.144	62.837	1379.914	1361.673
-47.130	38.931	1333.588	1175.149
-46.115	35.201	1315.974	1137.493
-45.100	35.109	1310.753	1132.386
-44.086	34.894	1308.790	1129.376
-43.071	35.011	1306.376	1127.937
-42.057	34.817	1304.548	1125.174
-41.042	34.947	1302.805	1124.391
-40.027	34.929	1301.272	1122.918
-39.013	34.991	1299.329	1121.560
-37.998	34.909	1297.820	1119.730
-36.984	35.114	1295.365	1118.770
-35.969	35.057	1294.077	1117.280
-34.954	35.126	1292.083	1115.915
-33.940	35.138	1290.766	1114.804
-32.925	35.217	1289.613	1114.221
-31.911	35.140	1288.409	1112.692
-30.896	35.142	1286.615	1111.110
-29.881	35.197	1285.712	1110.605
-28.867	35.149	1284.104	1108.894
-27.852	35.245	1282.334	1107.876
-26.838	35.281	1281.326	1107.166
-25.823	35.110	1280.352	1105.296
-24.809	35.163	1278.551	1104.002
-23.794	35.091	1276.938	1102.150
-22.779	35.101	1275.947	1101.312
-21.765	35.160	1274.434	1100.300
-20.750	35.139	1273.596	1099.412
-19.736	35.094	1272.017	1097.747
-18.721	35.031	1270.839	1096.327
-17.706	35.053	1269.587	1095.328
-16.692	35.019	1268.100	1093.804
-15.677	34.977	1267.324	1092.853
-14.663	34.928	1266.280	1091.631
-13.648	34.975	1265.483	1091.170
-12.633	35.044	1264.287	1090.486
-11.619	35.046	1263.193	1089.509
-10.604	34.960	1262.578	1088.448
-9.590	35.024	1261.556	1087.890
-8.575	35.089	1260.351	1087.177
-7.560	34.925	1260.371	1086.220
-6.546	34.865	1259.297	1084.910
-5.531	34.844	1258.382	1083.960
-4.517	35.071	1256.719	1083.770
-3.502	34.909	1256.638	1082.737
-2.487	34.932	1255.753	1082.065
-1.473	34.951	1251.377	1078.358
-0.458	33.561	1236.278	1057.556
0.556	30.058	1218.756	1018.841
1.571	26.483	1223.264	1002.750
2.586	25.553	1238.876	1010.231
3.600	24.713	1227.940	996.549
4.615	18.179	1154.404	902.429
5.629	7.044	1075.160	785.402
6.644	2.162	1053.024	745.386
7.659	1.719	1050.364	741.281
8.673	1.673	1048.915	739.967
9.688	1.617	1047.524	738.653
10.702	2.103	1046.747	740.392
11.717	8.922	1056.313	780.376
12.731	19.183	1071.552	841.981
13.746	24.098	1076.363	869.758
14.761	24.720	1077.119	873.332
15.775	24.723	1076.905	873.094
16.790	24.483	1076.087	871.185
17.804	24.587	1075.270	870.949
18.819	24.649	1074.919	870.894
19.834	24.661	1074.825	870.798
20.848	24.641	1074.223	870.136
21.863	24.670	1073.950	869.979
22.877	24.640	1072.933	868.929
23.892	24.650	1071.620	867.842
24.907	24.608	1071.865	867.758
25.921	24.612	1070.356	866.478
26.936	24.664	1068.931	865.501
27.950	24.530	1067.765	863.829
28.965	24.429	1065.910	861.768
29.980	24.605	1063.938	860.946
30.994	24.669	1063.480	860.807
32.009	24.745	1062.647	860.420
33.023	24.510	1061.210	858.051
34.038	24.741	1060.335	858.379
35.053	24.621	1060.144	857.569
36.067	24.537	1059.564	856.622
37.082	24.749	1058.073	856.358
38.096	24.918	1057.663	856.757
39.111	25.061	1056.576	856.487
40.126	24.784	1055.596	854.292
41.140	24.497	1053.491	851.143
42.155	24.384	1051.985	849.315
43.169	24.481	1050.972	848.883
44.184	24.296	1050.203	847.309
45.199	24.192	1049.274	845.993
46.213	24.386	1048.527	846.233
47.228	24.508	1048.028	846.334
48.242	24.502	1046.647	845.117
49.257	24.631	1045.776	844.949
50.271	24.801	1044.978	845.029
51.286	24.747	1044.609	844.402
52.301	24.801	1043.484	843.675
53.315	24.663	1042.498	842.153
54.330	24.736	1041.294	841.446
55.344	24.689	1040.808	840.758
56.359	24.573	1040.041	839.522
57.374	24.522	1039.097	838.447
58.388	24.419	1038.536	837.433
59.403	24.343	1037.805	836.416
60.417	24.301	1036.588	835.165
61.432	24.387	1035.868	834.911
62.447	24.533	1035.549	835.263
63.461	24.592	1034.903	834.947
64.476	24.401	1034.049	833.290
65.490	24.191	1032.695	831.147
66.505	24.341	1032.069	831.269
67.520	24.375	1031.527	830.918
68.534	24.125	1030.443	828.805
69.549	23.933	1029.035	826.707
70.563	24.041	1027.970	826.282
71.578	23.950	1027.601	825.489
72.593	23.801	1026.284	823.666
73.607	23.819	1026.240	823.642
74.622	24.090	1025.614	824.323
75.636	24.248	1024.749	824.287
76.651	24.136	1023.973	823.071
77.666	24.030	1023.108	821.813
78.680	24.118	1022.418	821.590
79.695	24.227	1021.728	821.467
80.709	24.329	1021.244	821.476
81.724	24.297	1020.355	820.541
82.739	24.214	1020.084	819.869
83.753	24.736	1019.228	821.504
84.768	25.019	1017.961	821.708
85.782	25.047	1017.686	821.542
86.797	24.848	1016.474	819.582
87.812	24.806	1015.449	818.492
88.826	24.988	1014.335	818.352
89.841	24.992	1013.634	817.732
90.855	24.861	1012.764	816.361
91.870	24.968	1011.657	815.882
92.884	24.804	1010.662	814.263
93.899	24.815	1009.350	813.182
94.914	24.927	1008.666	813.067
95.928	24.734	1007.612	811.270
96.943	24.552	1006.729	809.666
97.957	24.317	1005.474	807.517
98.972	24.078	1004.682	805.728
99.987	24.430	1003.747	806.498
101.001	24.731	1002.754	806.988
102.016	24.624	1002.540	806.261
103.030	24.555	1001.445	804.998
104.045	24.425	1000.410	803.512
105.060	24.267	999.470	801.976
106.074	24.420	998.747	802.009
107.089	24.842	998.336	803.506
108.103	24.621	996.888	801.279
109.118	24.389	996.059	799.501
110.133	24.544	994.710	799.040
111.147	24.214	994.015	796.935
112.162	24.093	992.775	795.332
113.176	24.449	992.257	796.433
114.191	24.350	991.612	795.406
115.206	23.966	990.239	792.526
116.220	23.875	989.672	791.595
117.235	24.052	989.000	791.773
118.249	24.049	988.126	790.991
119.264	24.009	987.354	790.123
120.279	24.084	986.494	789.701
121.293	24.143	986.157	789.623
122.308	24.150	985.002	788.660
123.322	23.973	983.916	786.938
124.337	23.884	982.126	785.041
125.352	23.362	980.867	781.666
126.366	23.443	979.560	780.911
127.381	24.160	979.604	784.034
128.395	24.651	979.072	785.696
129.410	24.660	978.689	785.358
130.424	24.678	977.266	784.229
131.439	24.797	976.338	783.934
132.454	24.661	975.715	782.771
133.468	24.497	974.902	781.331
134.483	24.802	973.866	781.764
135.497	24.878	973.462	781.705
136.512	24.841	972.654	780.824
137.527	24.859	972.336	780.576
138.541	24.962	971.463	780.256
139.556	24.857	970.108	778.642
140.570	24.865	969.959	778.490
141.585	24.967	968.688	777.841
142.600	24.889	967.953	776.843
143.614	25.075	967.189	776.968
144.629	25.370	965.927	777.166
145.643	25.088	964.511	774.736
146.658	24.822	963.656	772.833
147.673	24.837	962.043	771.535
148.687	24.606	961.374	769.936
149.702	24.631	960.110	768.964
150.716	24.560	959.593	768.177
151.731	24.789	958.666	768.351
152.746	24.904	958.520	768.657
153.760	25.187	957.501	768.985
154.775	25.066	957.397	768.318
155.789	25.043	956.265	767.240
156.804	24.983	955.619	766.400
157.819	25.129	954.961	766.425
158.833	25.185	953.743	765.622
159.848	25.047	953.449	764.726
160.862	25.035	952.083	763.513
161.877	25.001	950.959	762.402
162.892	25.118	949.924	762.001
163.906	25.165	948.761	761.200
164.921	25.134	947.578	760.050
165.935	25.193	946.979	759.752
166.950	25.133	946.343	758.923
167.964	25.054	945.582	757.913
168.979	24.813	944.557	756.006
169.994	24.918	943.528	755.557
171.008	25.016	943.390	755.792
172.023	25.183	941.919	755.249
173.037	24.864	941.207	753.273
174.052	24.727	939.715	751.433
175.067	24.721	939.407	751.095
176.081	24.828	939.091	751.228
177.096	24.754	938.037	750.009
178.110	24.452	937.174	747.986
179.125	24.411	936.471	747.186
180.140	24.473	936.275	747.225
181.154	24.585	936.199	747.564
182.169	24.924	935.915	748.690
183.183	25.100	935.373	748.924
184.198	25.039	934.398	747.826
185.213	24.891	933.807	746.668
186.227	25.047	933.149	746.724
187.242	25.109	932.557	746.442
188.256	25.183	931.420	745.774
189.271	25.177	931.028	745.370
190.286	24.860	930.120	743.262
191.300	24.136	928.522	738.917
192.315	23.487	926.932	734.897
193.329	23.336	926.734	734.048
194.344	24.298	927.208	738.344
195.359	24.910	927.054	740.690
196.373	25.025	926.533	740.685
197.388	24.826	926.042	739.405
198.402	25.029	924.838	739.213
199.417	24.885	924.661	738.412
200.432	24.712	923.484	736.697
201.446	24.530	922.855	735.380
202.461	24.539	922.365	734.959
203.475	23.738	920.358	730.006
204.490	22.895	919.176	725.545
205.504	23.790	919.414	729.344
206.519	24.562	919.322	732.371
207.534	24.577	919.340	732.383
208.548	25.011	918.729	733.607
209.563	24.715	918.093	731.822
210.577	24.624	917.445	730.871
211.592	25.170	916.554	732.328
212.607	25.141	916.149	731.819
213.621	25.096	915.589	731.125
214.636	25.179	914.685	730.675
215.650	25.142	913.760	729.721
216.665	25.218	913.251	729.560
217.680	25.060	912.609	728.337
218.694	24.732	911.424	725.999
219.709	24.467	910.579	724.187
220.723	24.795	910.865	725.681
221.738	24.875	910.125	725.349
222.753	24.897	909.576	724.940
223.767	25.022	909.299	725.159
224.782	25.233	908.679	725.452
225.796	25.226	908.316	725.072
226.811	24.571	906.662	721.045
227.826	23.762	905.698	716.949
228.840	24.156	904.813	717.773
229.855	24.330	903.761	717.578
230.869	23.805	903.203	714.957
231.884	24.158	903.297	716.390
232.899	24.909	903.279	719.332
233.913	24.933	902.194	718.501
234.928	24.775	901.881	717.550
235.942	24.759	901.141	716.835
236.957	24.529	900.081	715.009
237.972	24.587	899.759	714.924
238.986	24.627	898.876	714.316
240.001	24.695	898.457	714.193
241.015	24.760	898.282	714.249
242.030	24.860	897.465	713.935
243.045	24.927	897.479	714.149
244.059	25.094	896.583	714.038
245.074	24.952	895.632	712.653
246.088	24.596	894.893	710.589
247.103	24.847	894.600	711.291
248.117	25.407	894.826	713.630
249.132	25.642	894.414	714.172
250.147	25.791	893.688	714.123
251.161	25.788	893.407	713.822
252.176	25.915	892.272	713.352
253.190	25.902	891.731	712.807
254.205	25.938	892.030	713.126
255.220	26.038	890.809	712.480
256.234	25.912	889.950	711.233
257.249	25.722	889.553	710.105
258.263	25.720	888.760	709.399
259.278	25.989	888.138	709.899
260.293	25.984	887.615	709.401
261.307	25.774	887.017	708.033
262.322	25.592	886.174	706.582
263.336	24.906	883.935	702.045
264.351	23.941	882.022	696.686
265.366	24.101	881.751	697.039
266.380	25.068	882.822	701.609
267.395	25.390	882.461	702.520
268.409	25.275	882.253	701.843
269.424	25.551	881.411	702.190
270.439	25.618	881.026	702.083
271.453	25.752	880.271	701.941
272.468	25.901	880.075	702.305
273.482	25.839	879.770	701.757
274.497	25.413	878.337	698.893
275.512	25.137	877.336	696.965
276.526	25.391	877.501	698.020
277.541	25.865	876.801	699.240
278.555	25.478	876.218	697.214
279.570	25.286	875.196	695.594
280.585	25.415	874.996	695.872
281.599	25.483	873.994	695.280
282.614	24.890	872.793	691.970
283.628	25.023	871.798	691.633
284.643	25.286	871.680	692.494
285.657	24.887	870.480	689.941
286.672	24.692	869.716	688.525
287.687	25.062	870.146	690.230
288.701	25.272	869.591	690.535
289.716	24.909	868.837	688.478
290.730	24.800	867.984	687.324
291.745	24.532	867.179	685.598
292.760	24.912	867.075	686.913
293.774	25.835	867.168	690.464
294.789	26.150	867.161	691.606
295.803	26.285	866.296	691.372
296.818	26.243	865.862	690.801
297.833	25.780	864.532	687.911
298.847	25.476	864.337	686.536
299.862	25.819	864.329	687.780
300.876	26.205	863.775	688.747
301.891	26.138	862.662	687.547
302.906	25.639	862.033	685.082
303.920	25.854	861.536	685.446
304.935	26.051	861.529	686.128
305.949	26.103	860.349	685.327
306.964	25.786	859.951	683.744
307.979	25.981	859.554	684.107
308.993	26.316	859.372	685.176
310.008	26.265	858.768	684.439
311.022	26.126	857.488	682.833
312.037	25.832	857.209	681.437
313.052	25.660	856.059	679.811
314.066	24.752	854.633	675.195
315.081	24.406	853.929	673.273
316.095	25.289	854.601	677.074
317.110	25.854	854.117	678.761
318.125	24.957	852.443	673.999
319.139	23.826	851.382	668.843
320.154	23.955	850.818	668.827
321.168	24.690	851.115	671.764
322.183	25.716	850.867	675.360
323.197	25.688	850.921	675.240
324.212	25.869	850.615	675.616
325.227	25.911	850.391	675.535
326.241	25.744	849.283	673.969
327.256	25.730	848.867	673.528
328.270	25.743	847.994	672.825
329.285	25.447	847.118	670.966
330.300	25.313	846.236	669.709
331.314	25.589	846.081	670.555
332.329	25.791	846.236	671.371
333.343	26.016	845.536	671.596
334.358	26.066	845.001	671.294
335.373	26.042	844.989	671.138
336.387	26.350	844.625	671.933
337.402	26.490	844.890	672.607
338.416	26.348	844.265	671.522
339.431	26.497	843.904	671.729
340.446	26.758	843.447	672.272
341.460	26.542	842.889	670.968
342.475	26.277	842.590	669.688
343.489	26.416	842.092	669.747
344.504	26.792	841.600	670.691
345.519	26.966	841.448	671.153
346.533	26.957	840.642	670.416
347.548	26.976	840.033	669.943
348.562	26.818	839.962	669.244
349.577	26.707	839.454	668.369
350.592	26.832	838.586	668.080
351.606	26.761	837.678	667.034
352.621	26.659	837.204	666.224
353.635	26.439	836.376	664.697
354.650	25.886	834.622	661.215
355.665	24.950	833.630	656.942
356.679	25.480	832.858	658.215
357.694	25.789	832.866	659.296
358.708	25.664	832.525	658.510
359.723	26.422	832.165	660.937
360.738	26.457	831.946	660.833
361.752	26.424	831.613	660.390
362.767	26.839	831.209	661.525
363.781	27.010	830.808	661.772
364.796	27.042	830.815	661.835
365.810	27.339	830.096	662.283
366.825	27.109	829.755	661.115
367.840	26.927	828.659	659.523
368.854	26.526	828.162	657.613
369.869	26.608	827.332	657.194
370.883	26.565	827.006	656.722
371.898	26.510	826.425	656.002
372.913	26.608	826.750	656.556
373.927	26.511	826.167	655.685
374.942	26.861	825.516	656.377
375.956	26.972	824.937	656.259
376.971	27.178	824.587	656.666
377.986	27.117	824.482	656.304
379.000	27.219	823.807	656.079
380.015	26.872	823.454	654.484
381.029	26.878	822.794	653.925
382.044	27.067	822.427	654.256
383.059	27.088	821.726	653.716
384.073	27.267	821.021	653.743
385.088	27.220	820.234	652.888
386.102	26.941	819.661	651.372
387.117	26.951	819.030	650.850
388.132	26.536	817.778	648.313
389.146	26.149	816.967	646.227
390.161	26.507	816.566	647.132
391.175	26.843	816.890	648.534
392.190	26.578	815.478	646.408
393.205	25.221	813.766	640.157
394.219	23.679	812.061	633.265
395.234	23.773	811.425	633.047
396.248	25.280	813.231	639.775
397.263	26.720	813.855	645.342
398.278	26.740	813.278	644.900
399.292	26.442	813.034	643.587
400.307	26.320	812.554	642.718
401.321	26.516	812.227	643.098
402.336	26.870	812.082	644.185
403.350	27.513	811.587	646.017
404.365	27.654	811.623	646.487
405.380	27.793	811.516	646.837
406.394	27.861	810.734	646.400
407.409	27.973	810.007	646.157
408.423	27.606	810.113	644.885
409.438	27.899	809.668	645.511
410.453	27.855	809.422	645.103
411.467	27.863	808.332	644.204
412.482	27.887	807.996	643.964
413.496	27.857	808.009	643.812
414.511	27.819	807.554	643.260
415.526	27.737	806.755	642.276
416.540	27.752	806.098	641.751
417.555	27.620	805.499	640.751
418.569	27.547	805.498	640.438
419.584	27.581	804.741	639.899
420.599	27.282	804.011	638.213
421.613	108.154	1280.925	1443.202
422.628	93.322	1350.429	1443.318
