DTS Sentinel unit serial number:	SN413079Multiplexer serial number:	ORYXHardware model number:	OX4-SRSoftware version number:	ORYX F/W v4.00 Oryx Data Collector v3.7.2.0data status	okinstallation	princeton_trtdifferential loss correction	single-endedforward channel	channel 1reverse channel	N/Adate	2019/09/16time	11:54:35forward acquisition time	60.00reverse acquisition time	0.00gamma	496.2192k internal	0.2296k external	0.2296temperature offset calibration	0.9967default loss term (dB/km)	0.3790temperature slope calibration	1.0000multiplexer offset coefficient	1.0000multiplexer slope coefficient	1.0000fibre end	0.00T internal ref (°C)	38.45T ext. ref 1 (°C)	13.12T ext. ref 2 (°C)	35.79length (m)	temperature (°C)	Stokes	anti-Stokes-747.200	57.632	-0.185	-0.184
-746.185	380.082	-0.134	0.281
-745.171	-200.000	-0.009	0.133
-744.156	800.000	0.095	0.290
-743.142	106.566	-0.161	0.196
-742.127	356.999	-0.067	0.136
-741.112	-27.105	0.187	-0.112
-740.098	497.432	-0.104	0.243
-739.083	-200.000	0.051	0.269
-738.069	-47.527	0.086	-0.043
-737.054	-105.464	0.238	-0.055
-736.039	-98.696	-0.337	0.088
-735.025	288.736	0.065	-0.119
-734.010	42.913	-0.077	-0.072
-732.996	800.000	-0.047	0.177
-731.981	132.024	0.473	0.622
-730.966	-100.089	-0.210	-0.053
-729.952	98.082	-0.086	-0.101
-728.937	-200.000	-0.008	0.169
-727.923	454.672	0.078	0.176
-726.908	175.247	0.169	-0.251
-725.894	-200.000	0.025	-0.270
-724.879	-42.829	-0.088	-0.046
-723.864	-122.311	-0.096	0.016
-722.850	-19.729	0.178	-0.113
-721.835	-48.037	0.143	0.070
-720.821	42.068	0.230	0.213
-719.806	275.261	-0.025	-0.045
-718.791	-200.000	0.045	-0.235
-717.777	430.726	-0.067	-0.147
-716.762	-49.994	0.085	-0.041
-715.748	-43.139	0.064	-0.033
-714.733	100.472	-0.083	0.098
-713.718	118.462	0.090	-0.113
-712.704	-200.000	-0.022	-0.097
-711.689	171.942	0.148	-0.217
-710.675	-200.000	0.017	-0.348
-709.660	-167.741	0.072	0.003
-708.645	-159.825	-0.256	-0.014
-707.631	204.280	-0.126	0.199
-706.616	181.988	-0.152	0.228
-705.602	-200.000	0.030	0.159
-704.587	-85.359	-0.262	-0.083
-703.572	-44.537	-0.069	0.035
-702.558	-105.668	-0.396	0.091
-701.543	-138.781	0.128	0.014
-700.529	358.030	0.181	-0.369
-699.514	-123.422	-0.228	-0.037
-698.499	-89.242	-0.049	-0.015
-697.485	286.811	0.106	-0.195
-696.470	142.112	0.083	0.112
-695.456	-63.834	-0.149	0.062
-694.441	800.000	0.051	0.204
-693.426	642.973	0.078	-0.204
-692.412	-111.000	0.222	0.047
-691.397	495.982	-0.032	-0.074
-690.383	477.852	-0.119	0.275
-689.368	79.625	0.234	-0.256
-688.354	365.347	0.100	-0.205
-687.339	-200.000	-0.055	-0.349
-686.324	-72.891	0.340	-0.128
-685.310	89.137	-0.117	0.133
-684.295	800.000	0.045	-0.135
-683.281	-200.000	-0.023	0.171
-682.266	-27.175	-0.300	-0.178
-681.251	106.615	0.171	0.207
-680.237	196.487	-0.146	0.227
-679.222	-200.000	0.012	0.156
-678.208	191.665	0.199	-0.306
-677.193	222.697	-0.050	-0.081
-676.178	-23.922	-0.147	0.090
-675.164	292.910	-0.044	0.083
-674.149	-200.000	-0.032	0.143
-673.135	-67.312	0.069	0.028
-672.120	-70.376	-0.054	0.021
-671.105	-79.119	0.372	-0.129
-670.091	38.791	-0.178	-0.162
-669.076	389.571	0.073	-0.154
-668.062	-61.306	0.077	0.033
-667.047	-151.214	0.308	-0.024
-666.032	800.000	0.038	-0.138
-665.018	-105.999	-0.282	0.065
-664.003	-92.625	-0.376	-0.107
-662.989	-55.449	-0.082	0.037
-661.974	54.988	-0.098	0.096
-660.959	-81.241	0.225	-0.075
-659.945	-16.538	-0.377	0.244
-658.930	282.818	0.088	0.161
-657.916	36.021	-0.044	-0.039
-656.901	-99.489	0.038	-0.010
-655.886	-18.212	0.040	0.025
-654.872	-200.000	-0.035	0.484
-653.857	218.251	-0.175	0.284
-652.843	-200.000	-0.007	0.314
-651.828	-58.058	-0.323	0.144
-650.814	-102.900	-0.316	0.076
-649.799	-200.000	-0.049	0.233
-648.784	-200.000	0.006	-0.097
-647.770	5.665	0.100	-0.075
-646.755	-200.000	0.003	-0.303
-645.741	-102.200	0.146	0.036
-644.726	30.349	-0.165	-0.143
-643.711	154.788	-0.124	-0.173
-642.697	-45.643	0.264	0.133
-641.682	344.549	-0.044	0.088
-640.668	-105.324	0.069	-0.016
-639.653	-12.246	0.042	0.028
-638.638	222.607	-0.099	-0.163
-637.624	672.738	-0.091	0.239
-636.609	-35.224	-0.166	-0.092
-635.595	-40.208	0.272	0.144
-634.580	21.625	-0.219	-0.181
-633.565	33.069	-0.260	-0.230
-632.551	800.000	-0.017	-0.069
-631.536	451.675	-0.129	-0.289
-630.522	-59.342	-0.202	-0.088
-629.507	800.000	-0.042	-0.142
-628.492	-200.000	-0.034	-0.162
-627.478	-200.000	0.034	-0.338
-626.463	-117.864	0.246	0.045
-625.449	-74.914	-0.158	-0.058
-624.434	-19.910	0.049	-0.030
-623.419	129.085	-0.171	0.222
-622.405	-200.000	-0.014	-0.242
-621.390	-200.000	0.030	-0.158
-620.376	668.683	-0.105	-0.276
-619.361	15.495	0.153	0.122
-618.346	411.034	0.057	-0.123
-617.332	-200.000	0.001	0.087
-616.317	800.000	0.007	-0.025
-615.303	11.574	-0.150	0.117
-614.288	306.706	0.105	-0.198
-613.273	800.000	-0.104	0.297
-612.259	11.682	-0.174	0.136
-611.244	21.357	-0.219	-0.181
-610.230	800.000	-0.080	-0.297
-609.215	-174.506	0.192	-0.006
-608.201	53.529	-0.170	-0.166
-607.186	-200.000	0.093	-0.415
-606.171	-200.000	-0.004	-0.046
-605.157	-90.662	-0.422	0.124
-604.142	33.036	0.134	-0.118
-603.128	159.575	0.044	-0.063
-602.113	-200.000	0.063	0.287
-601.098	-200.000	-0.043	-0.288
-600.084	-14.095	-0.290	0.190
-599.069	-126.275	0.340	-0.052
-598.055	102.473	0.115	-0.137
-597.040	800.000	0.092	-0.299
-596.025	-200.000	0.007	0.099
-595.011	-53.006	0.186	0.087
-593.996	800.000	-0.011	0.043
-592.982	-200.000	0.002	-0.223
-591.967	2.237	0.138	-0.101
-590.952	-97.403	-0.222	-0.059
-589.938	-93.112	-0.313	0.088
-588.923	583.664	-0.080	0.199
-587.909	-200.000	-0.053	-0.283
-586.894	-127.069	0.136	-0.020
-585.879	-146.825	0.397	-0.035
-584.865	-157.452	-0.328	-0.020
-583.850	89.694	-0.186	0.211
-582.836	-87.046	0.388	0.120
-581.821	186.884	0.103	0.155
-580.806	179.369	-0.067	0.099
-579.792	270.602	0.071	-0.127
-578.777	-4.758	0.232	0.162
-577.763	-25.743	0.246	-0.147
-576.748	12.151	-0.216	0.169
-575.733	-104.877	0.309	0.072
-574.719	15.687	-0.099	-0.079
-573.704	800.000	0.074	0.210
-572.690	-200.000	0.008	0.080
-571.675	548.713	-0.091	-0.222
-570.661	-119.880	-0.257	-0.045
-569.646	65.729	-0.249	-0.256
-568.631	800.000	0.081	-0.325
-567.617	44.250	-0.046	0.043
-566.602	32.287	0.261	-0.228
-565.588	468.343	0.073	0.166
-564.573	-200.000	0.001	-0.028
-563.558	654.111	0.061	-0.159
-562.544	287.152	-0.033	-0.061
-561.529	7.416	-0.162	0.123
-560.515	23.418	-0.147	0.123
-559.500	800.000	-0.082	-0.348
-558.485	-81.734	-0.230	0.076
-557.471	266.279	0.069	-0.123
-556.456	-101.895	-0.215	-0.053
-555.442	-106.209	-0.209	0.048
-554.427	-140.511	-0.246	-0.026
-553.412	-200.000	0.013	0.149
-552.398	-62.520	0.153	0.064
-551.383	14.480	-0.219	0.173
-550.369	-48.125	-0.353	-0.173
-549.354	800.000	0.065	-0.187
-548.339	-149.143	-0.056	-0.005
-547.325	-114.725	0.203	-0.039
-546.310	-100.520	0.161	0.040
-545.296	-200.000	0.068	-0.301
-544.281	109.119	-0.231	-0.280
-543.266	323.389	-0.129	-0.249
-542.252	-108.559	0.164	-0.036
-541.237	-133.331	0.141	-0.018
-540.223	800.000	0.112	-0.356
-539.208	-104.366	-0.369	0.087
-538.193	230.936	-0.145	-0.241
-537.179	800.000	-0.127	-0.406
-536.164	-30.238	-0.022	0.013
-535.150	-3.934	0.426	0.299
-534.135	800.000	-0.051	0.207
-533.121	-195.649	0.289	-0.002
-532.106	-103.759	0.264	-0.063
-531.091	-161.688	0.326	0.017
-530.077	-200.000	-0.038	0.355
-529.062	192.678	-0.085	0.130
-528.048	-165.861	-0.230	0.010
-527.033	261.720	-0.145	-0.254
-526.018	-36.829	-0.104	-0.057
-525.004	-110.196	0.105	0.022
-523.989	147.583	-0.254	-0.347
-522.975	-200.000	-0.047	0.267
-521.960	424.773	0.099	0.215
-520.945	173.699	-0.207	-0.303
-519.931	4.512	-0.077	-0.057
-518.916	98.590	0.050	0.059
-517.902	-61.726	-0.186	-0.079
-516.887	-171.354	0.034	0.001
-515.872	-21.873	0.124	0.076
-514.858	-200.000	-0.011	-0.156
-513.843	-200.000	0.033	-0.413
-512.829	-72.763	-0.218	-0.081
-511.814	800.000	-0.036	-0.130
-510.799	229.830	-0.189	0.312
-509.785	800.000	-0.046	0.174
-508.770	800.000	-0.063	0.232
-507.756	666.479	0.083	0.217
-506.741	124.972	0.115	-0.147
-505.726	800.000	-0.051	-0.168
-504.712	3.817	-0.181	0.134
-503.697	-23.686	-0.314	-0.190
-502.683	742.298	-0.028	-0.076
-501.668	-45.683	0.218	-0.109
-500.653	31.987	0.199	-0.174
-499.639	-18.043	-0.126	0.080
-498.624	800.000	-0.087	0.301
-497.610	779.530	0.091	-0.251
-496.595	55.109	-0.112	-0.109
-495.581	-106.314	-0.308	0.070
-494.566	247.249	0.093	0.159
-493.551	-69.065	0.208	-0.081
-492.537	800.000	0.046	0.144
-491.522	-41.244	0.177	-0.092
-490.508	-200.000	-0.000	-0.205
-489.493	340.166	-0.118	0.232
-488.478	-78.211	-0.118	0.041
-487.464	-200.000	-0.013	-0.256
-486.449	-112.386	0.363	-0.074
-485.435	-200.000	0.038	0.328
-484.420	800.000	-0.063	0.181
-483.405	-200.000	-0.026	0.263
-482.391	0.565	-0.173	0.125
-481.376	14.433	-0.062	-0.049
-480.362	333.563	0.114	0.224
-479.347	800.000	0.125	-0.413
-478.332	-6.950	-0.054	0.037
-477.318	607.057	0.081	-0.204
-476.303	48.874	-0.326	0.309
-475.289	-58.199	-0.206	0.091
-474.274	800.000	0.032	-0.103
-473.259	800.000	-0.024	0.097
-472.245	227.681	0.176	0.289
-471.230	505.241	0.016	0.038
-470.216	19.419	-0.030	0.024
-469.201	326.105	0.083	0.161
-468.186	-200.000	-0.026	-0.221
-467.172	-200.000	0.038	0.244
-466.157	230.109	0.043	0.071
-465.143	-117.373	-0.273	0.050
-464.128	262.661	-0.032	0.057
-463.113	-200.000	0.021	0.125
-462.099	-200.000	-0.001	0.130
-461.084	-176.407	0.279	0.007
-460.070	800.000	-0.023	-0.077
-459.055	47.049	-0.185	0.174
-458.040	185.289	-0.154	-0.231
-457.026	189.114	-0.125	-0.189
-456.011	118.993	0.304	-0.380
-454.997	-200.000	-0.013	0.127
-453.982	-200.000	0.011	0.205
-452.968	-200.000	-0.016	-0.198
-451.953	319.264	0.138	-0.264
-450.938	355.506	0.143	0.286
-449.924	-41.245	-0.033	0.017
-448.909	278.879	0.192	-0.346
-447.895	84.103	-0.146	-0.161
-446.880	-167.844	-0.027	0.001
-445.865	112.629	0.118	-0.145
-444.851	211.878	-0.112	-0.177
-443.836	171.734	-0.248	0.359
-442.822	-86.619	0.337	0.104
-441.807	-90.774	0.077	0.023
-440.792	800.000	0.089	-0.299
-439.778	-125.371	-0.305	-0.047
-438.763	-73.607	0.302	-0.111
-437.749	800.000	0.084	0.271
-436.734	-41.183	0.202	0.105
-435.719	-69.215	0.342	0.133
-434.705	-109.538	-0.274	-0.058
-433.690	-94.931	0.168	0.046
-432.676	346.484	0.220	0.437
-431.661	417.893	-0.176	0.379
-430.646	-123.684	-0.174	-0.028
-429.632	-174.453	0.086	0.002
-428.617	165.629	-0.130	-0.186
-427.603	420.819	-0.163	0.352
-426.588	-73.685	0.220	-0.081
-425.573	39.903	-0.262	-0.237
-424.559	-125.907	0.248	-0.038
-423.544	98.286	0.288	-0.334
-422.530	111.751	0.243	-0.296
-421.515	-200.000	-0.044	-0.302
-420.500	-200.000	0.026	-0.144
-419.486	-86.481	-0.151	0.047
-418.471	153.903	0.218	-0.302
-417.457	800.000	-0.029	-0.083
-416.442	-7.343	-0.144	0.099
-415.428	-200.000	-0.044	-0.227
-414.413	-118.284	0.199	-0.036
-413.398	6.394	0.222	-0.166
-412.384	-41.416	-0.203	0.105
-411.369	-128.462	0.195	0.028
-410.355	-41.675	-0.125	-0.065
-409.340	-78.961	-0.085	-0.029
-408.325	-28.897	-0.151	0.088
-407.311	-77.496	0.247	0.087
-406.296	-25.867	-0.322	0.191
-405.282	478.719	0.147	0.336
-404.267	-62.658	0.089	0.037
-403.252	-132.737	0.460	0.059
-402.238	-72.157	-0.319	0.119
-401.223	-200.000	0.016	-0.116
-400.209	-53.912	-0.162	0.074
-399.194	139.481	0.152	-0.202
-398.179	18.204	-0.119	-0.095
-397.165	800.000	-0.059	-0.172
-396.150	-158.021	-0.188	0.011
-395.136	-200.000	-0.012	-0.207
-394.121	-55.217	0.366	0.166
-393.106	800.000	0.075	-0.225
-392.092	-128.928	-0.250	0.035
-391.077	-151.219	-0.230	0.017
-390.063	-136.984	-0.223	-0.026
-389.048	800.000	0.063	0.241
-388.033	44.163	0.303	0.280
-387.019	-198.875	-0.287	0.002
-386.004	-29.237	-0.211	-0.122
-384.990	-200.000	0.014	-0.122
-383.975	-132.434	0.138	-0.018
-382.960	800.000	0.020	-0.058
-381.946	204.012	-0.143	0.224
-380.931	-121.703	-0.397	-0.066
-379.917	-200.000	-0.058	-0.352
-378.902	800.000	-0.083	0.310
-377.888	-200.000	-0.005	0.056
-376.873	-2.968	-0.196	0.138
-375.858	559.373	-0.131	0.318
-374.844	-109.476	0.184	-0.039
-373.829	171.732	-0.072	0.104
-372.815	-200.000	-0.006	-0.334
-371.800	-162.075	-0.248	-0.013
-370.785	-66.428	0.326	-0.130
-369.771	72.501	0.288	-0.303
-368.756	-132.152	-0.083	-0.011
-367.742	-137.799	-0.256	0.029
-366.727	-200.000	-0.061	0.461
-365.712	-63.157	0.144	-0.060
-364.698	800.000	-0.154	0.463
-363.683	-200.000	-0.012	-0.058
-362.669	-200.000	-0.056	0.323
-361.654	-52.547	-0.267	0.124
-360.639	-200.000	-0.036	0.238
-359.625	416.009	0.129	-0.276
-358.610	112.172	0.205	-0.249
-357.596	697.349	0.074	0.196
-356.581	-65.539	-0.130	0.052
-355.566	-127.848	0.204	0.030
-354.552	-12.383	0.161	0.106
-353.537	257.318	0.064	0.110
-352.523	21.556	0.104	-0.085
-351.508	28.651	0.039	-0.033
-350.493	800.000	0.042	-0.154
-349.479	-90.996	-0.287	-0.083
-348.464	-64.069	-0.187	-0.077
-347.450	519.358	-0.035	-0.082
-346.435	-3.763	-0.181	-0.127
-345.420	-179.824	-0.414	0.009
-344.406	-200.000	-0.019	-0.177
-343.391	-105.158	0.325	0.075
-342.377	-5.310	-0.107	0.074
-341.362	-200.000	-0.039	-0.330
-340.348	343.263	0.165	0.325
-339.333	-84.268	0.440	-0.140
-338.318	0.528	-0.229	-0.164
-337.304	281.960	0.070	0.127
-336.289	149.573	-0.075	0.103
-335.275	-120.028	-0.226	0.039
-334.260	-200.000	-0.000	0.066
-333.245	-3.895	-0.185	0.129
-332.231	45.122	0.188	0.175
-331.216	-200.000	0.029	-0.241
-330.202	-200.000	0.061	-0.277
-329.187	-64.756	0.177	-0.072
-328.172	-79.333	0.077	-0.026
-327.158	800.000	0.057	-0.187
-326.143	47.722	-0.217	0.203
-325.129	-44.890	-0.114	-0.057
-324.114	164.914	-0.161	-0.229
-323.099	-200.000	-0.015	0.108
-322.085	29.048	0.119	-0.102
-321.070	-157.001	-0.014	-0.001
-320.056	71.686	-0.281	0.293
-319.041	800.000	-0.104	0.338
-318.026	-11.935	0.148	0.098
-317.012	58.963	0.258	0.255
-315.997	210.388	-0.080	0.126
-314.983	61.848	0.147	-0.148
-313.968	19.208	-0.137	0.110
-312.953	800.000	0.015	0.056
-311.939	-200.000	-0.003	-0.143
-310.924	800.000	0.050	-0.141
-309.910	-9.203	0.273	0.183
-308.895	-53.228	0.109	0.050
-307.880	-12.297	-0.314	0.206
-306.866	-131.704	-0.156	0.021
-305.851	90.299	0.074	-0.083
-304.837	-200.000	0.132	0.000
-303.822	-4.019	-0.307	0.213
-302.807	-200.000	0.010	-0.113
-301.793	-87.550	0.162	-0.049
-300.778	800.000	-0.056	-0.173
-299.764	269.720	-0.221	-0.390
-298.749	-22.190	-0.102	-0.062
-297.735	87.639	0.115	-0.127
-296.720	88.436	0.208	0.232
-295.705	-200.000	0.040	-0.270
-294.691	-162.635	0.175	0.009
-293.676	161.233	-0.287	0.403
-292.662	511.006	0.088	0.205
-291.647	18.020	-0.458	-0.367
-290.632	-200.000	0.008	0.090
-289.618	46.528	0.148	0.137
-288.603	-200.000	-0.017	-0.135
-287.589	800.000	-0.024	0.101
-286.574	-33.672	0.259	0.144
-285.559	147.429	-0.186	-0.251
-284.545	-59.474	0.187	-0.081
-283.530	-200.000	-0.038	0.189
-282.516	684.150	0.039	0.102
-281.501	661.295	0.145	-0.374
-280.486	21.896	0.115	0.094
-279.472	800.000	-0.040	0.132
-278.457	-200.000	-0.010	0.106
-277.443	800.000	-0.100	-0.304
-276.428	-200.000	-0.025	0.183
-275.413	-106.699	0.406	-0.091
-274.399	86.917	-0.053	-0.059
-273.384	170.956	0.066	-0.095
-272.370	109.921	0.263	0.316
-271.355	47.653	0.133	-0.125
-270.340	718.062	-0.069	0.184
-269.326	-72.222	-0.256	-0.095
-268.311	632.863	-0.047	-0.119
-267.297	800.000	0.074	0.276
-266.282	27.384	0.122	0.103
-265.267	-18.976	0.269	-0.168
-264.253	293.319	-0.085	0.155
-263.238	99.398	-0.040	0.046
-262.224	-66.755	-0.064	0.026
-261.209	800.000	-0.063	-0.212
-260.195	128.938	-0.136	-0.174
-259.180	-167.722	0.257	0.010
-258.165	505.606	-0.196	-0.456
-257.151	504.439	-0.097	-0.224
-256.136	-89.121	0.053	-0.016
-255.122	248.741	0.105	0.177
-254.107	-21.078	0.186	0.114
-253.092	61.407	-0.268	0.267
-252.078	263.007	0.106	-0.184
-251.063	-200.000	-0.032	0.379
-250.049	68.394	0.186	-0.191
-249.034	-38.262	0.226	0.120
-248.019	9.660	-0.127	-0.097
-247.005	-81.331	-0.134	0.044
-245.990	74.232	-0.056	-0.059
-244.976	81.799	-0.222	0.241
-243.961	800.000	0.037	0.124
-242.946	-99.806	0.166	-0.042
-241.932	-109.532	0.079	0.017
-240.917	-200.000	0.018	-0.134
-239.903	800.000	0.058	0.164
-238.888	-67.467	0.168	0.066
-237.873	210.224	0.057	0.090
-236.859	1.203	-0.085	0.061
-235.844	60.106	-0.117	0.116
-234.830	-78.155	0.139	0.048
-233.815	-15.333	-0.130	0.083
-232.800	-200.000	0.013	0.276
-231.786	78.411	0.118	0.126
-230.771	-1.545	-0.215	0.152
-229.757	217.760	0.086	-0.137
-228.742	352.446	-0.086	-0.171
-227.727	800.000	0.046	-0.130
-226.713	-28.261	0.136	0.079
-225.698	-200.000	0.016	0.128
-224.684	800.000	-0.081	0.233
-223.669	800.000	0.035	0.102
-222.655	-147.882	0.163	0.014
-221.640	93.573	0.168	0.191
-220.625	-106.180	0.177	0.040
-219.611	232.894	0.075	0.123
-218.596	-88.592	-0.273	-0.081
-217.582	276.499	-0.118	-0.210
-216.567	-200.000	-0.056	0.487
-215.552	-30.371	0.235	-0.134
-214.538	-200.000	0.077	0.363
-213.523	-19.982	-0.360	0.222
-212.509	-200.000	-0.015	0.081
-211.494	-75.380	0.284	0.101
-210.479	-35.568	0.139	0.075
-209.465	-200.000	0.012	0.060
-208.450	56.322	0.098	0.095
-207.436	17.437	0.118	-0.094
-206.421	-61.857	0.120	0.050
-205.406	-47.143	-0.308	0.150
-204.392	-200.000	-0.009	0.058
-203.377	134.185	0.220	0.285
-202.363	-200.000	0.005	0.245
-201.348	73.313	-0.247	0.258
-200.333	-200.000	-0.009	-0.094
-199.319	-200.000	-0.024	0.531
-198.304	1.737	-0.233	0.168
-197.290	-171.941	0.163	-0.005
-196.275	800.000	0.095	-0.333
-195.260	452.134	0.163	-0.360
-194.246	173.867	-0.123	0.177
-193.231	221.423	0.131	0.211
-192.217	142.351	0.117	0.156
-191.202	-141.722	0.291	-0.029
-190.187	35.890	0.054	-0.047
-189.173	-93.874	0.111	-0.031
-188.158	-109.040	0.271	-0.058
-187.144	-135.016	-0.016	0.002
-186.129	321.162	0.123	0.233
-185.114	-115.428	-0.186	-0.035
-184.100	-200.000	-0.022	0.199
-183.085	800.000	0.095	-0.367
-182.071	-80.825	0.291	-0.097
-181.056	-156.548	0.201	0.013
-180.042	-89.406	-0.184	-0.054
-179.027	-93.530	0.239	0.066
-178.012	-115.727	-0.108	0.020
-176.998	-200.000	-0.027	-0.118
-175.983	-200.000	-0.089	0.000
-174.969	-200.000	-0.002	-0.010
-173.954	202.434	0.130	-0.200
-172.939	117.507	0.138	0.169
-171.925	-72.129	0.215	0.080
-170.910	-171.529	-0.324	0.011
-169.896	179.809	0.291	0.426
-168.881	19.421	0.161	-0.129
-167.866	-200.000	0.017	-0.206
-166.852	800.000	-0.155	0.479
-165.837	95.597	0.030	0.034
-164.823	-80.065	0.302	0.101
-163.808	-76.827	0.132	0.046
-162.793	343.838	0.035	-0.069
-161.779	28.803	0.349	-0.295
-160.764	-97.616	-0.332	-0.086
-159.750	-126.494	-0.057	-0.009
-158.735	-200.000	-0.023	0.130
-157.720	316.065	-0.011	0.020
-156.706	-200.000	0.012	0.325
-155.691	-113.275	-0.143	0.028
-154.677	-200.000	0.006	0.187
-153.662	800.000	-0.078	-0.288
-152.647	84.687	-0.224	-0.245
-151.633	-88.698	-0.128	-0.038
-150.618	-200.000	0.027	-0.122
-149.604	-200.000	-0.065	-0.387
-148.589	-200.000	0.087	-0.385
-147.574	447.800	0.056	0.122
-146.560	517.378	0.083	-0.193
-145.545	-64.908	-0.395	0.159
-144.531	136.366	0.105	0.136
-143.516	800.000	-0.072	0.267
-142.502	-41.186	0.098	-0.050
-141.487	-150.930	0.219	-0.017
-140.472	-200.000	-0.047	0.315
-139.458	158.253	-0.095	0.131
-138.443	21.177	-0.062	0.051
-137.429	135.843	0.220	0.285
-136.414	800.000	0.077	0.223
-135.399	88.331	0.080	0.088
-134.385	-50.210	0.189	0.089
-133.370	-136.893	0.237	0.027
-132.356	234.472	-0.168	-0.276
-131.341	26.177	0.154	-0.128
-130.326	88.449	0.194	0.215
-129.312	800.000	-0.073	0.222
-128.297	-73.886	-0.130	-0.047
-127.283	173.394	0.090	0.129
-126.268	-98.825	0.132	-0.034
-125.253	772.381	0.030	0.082
-124.239	800.000	0.076	0.291
-123.224	-200.000	-0.037	-0.180
-122.210	275.730	0.097	0.171
-121.195	18.748	-0.189	0.151
-120.180	-95.581	0.144	0.038
-119.166	-133.498	0.365	-0.046
-118.151	-72.572	0.219	-0.080
-117.137	-200.000	0.034	0.187
-116.122	-74.892	0.277	-0.099
-115.107	150.158	-0.027	-0.037
-114.093	-171.971	0.185	0.006
-113.078	9.030	0.212	-0.160
-112.064	62.886	0.245	-0.245
-111.049	-200.000	0.028	-0.327
-110.034	-200.000	-0.009	0.105
-109.020	-127.297	-0.241	-0.035
-108.005	-103.325	0.661	-0.155
-106.991	719.320	-0.020	0.053
-105.976	-2.469	0.323	-0.225
-104.962	-88.643	-0.108	-0.032
-103.947	800.000	0.039	-0.136
-102.932	-200.000	0.062	0.614
-101.918	425.682	0.190	-0.408
-100.903	-0.719	0.201	0.142
-99.889	213.429	-0.206	0.324
-98.874	135.796	0.211	0.273
-97.859	69.722	0.177	-0.182
-96.845	-200.000	0.031	0.185
-95.830	40.637	-0.245	0.220
-94.816	417.122	-0.058	-0.123
-93.801	-53.104	0.362	-0.166
-92.786	436.767	-0.087	0.189
-91.772	-29.090	0.280	0.160
-90.757	61.857	-0.014	-0.014
-89.743	-3.282	-0.121	0.084
-88.728	-122.626	-0.229	0.037
-87.713	-127.642	-0.365	0.053
-86.699	-19.996	0.057	-0.035
-85.684	360.407	0.171	0.342
-84.670	275.030	0.156	0.276
-83.655	-189.185	0.185	-0.002
-82.640	-80.611	-0.109	-0.036
-81.626	-78.486	-0.111	-0.038
-80.611	15.871	0.101	-0.079
-79.597	33.839	0.090	0.078
-78.582	462.497	0.100	0.221
-77.567	-4.280	-0.219	-0.151
-76.553	171.185	-0.119	-0.169
-75.538	412.202	0.030	-0.063
-74.524	-23.676	0.281	0.167
-73.509	230.445	-0.040	-0.065
-72.494	-158.558	-0.275	-0.016
-71.480	609.319	0.098	0.244
-70.465	-200.000	0.051	0.258
-69.451	-200.000	-0.062	0.412
-68.436	790.054	0.048	0.130
-67.422	34.624	0.147	0.128
-66.407	800.000	-0.076	0.213
-65.392	645.245	-0.067	0.171
-64.378	6.122	0.062	0.046
-63.363	800.000	0.091	-0.266
-62.349	315.427	-0.050	-0.094
-61.334	210.117	-0.610	-0.953
-60.319	-76.641	0.414	0.145
-59.305	-200.000	-0.038	-0.904
-58.290	405.916	0.463	0.972
-57.276	645.406	0.635	1.612
-56.261	-200.000	81.837	498.307
-55.246	466.704	1377.435	3069.318
-54.232	142.318	2616.491	3453.415
-53.217	109.586	2261.206	2694.589
-52.203	49.199	1704.563	1593.188
-51.188	41.766	1432.599	1291.165
-50.173	38.566	1388.027	1230.871
-49.159	56.164	1428.216	1378.908
-48.144	60.960	1447.386	1427.918
-47.130	42.334	1406.567	1271.101
-46.115	38.695	1389.200	1232.526
-45.100	38.390	1384.780	1226.644
-44.086	38.199	1382.802	1223.647
-43.071	38.183	1380.236	1221.225
-42.057	38.234	1377.858	1219.393
-41.042	38.159	1376.515	1217.689
-40.027	38.378	1374.496	1217.217
-39.013	38.252	1372.839	1214.918
-37.998	38.309	1371.033	1213.625
-36.984	38.393	1369.323	1212.585
-35.969	38.557	1366.827	1211.344
-34.954	38.534	1365.140	1209.656
-33.940	38.626	1363.707	1208.906
-32.925	38.585	1362.437	1207.479
-31.911	38.506	1361.188	1205.836
-30.896	38.610	1359.284	1204.741
-29.881	38.511	1358.099	1203.036
-28.867	38.561	1356.459	1201.845
-27.852	38.565	1355.333	1200.822
-26.838	38.547	1353.776	1199.284
-25.823	38.495	1352.636	1197.909
-24.809	38.573	1350.842	1196.751
-23.794	38.637	1349.258	1195.688
-22.779	38.433	1348.443	1193.678
-21.765	38.531	1346.556	1192.552
-20.750	38.581	1345.536	1191.910
-19.736	38.337	1344.466	1189.429
-18.721	38.338	1342.825	1187.938
-17.706	38.349	1342.048	1187.269
-16.692	38.584	1339.762	1186.625
-15.677	38.477	1339.233	1185.459
-14.663	38.403	1338.528	1184.338
-13.648	38.351	1337.085	1182.702
-12.633	38.400	1336.356	1182.305
-11.619	38.428	1335.317	1181.509
-10.604	38.466	1334.310	1180.803
-9.590	38.370	1333.218	1179.207
-8.575	38.410	1332.211	1178.509
-7.560	38.234	1331.981	1177.203
-6.546	38.344	1330.379	1176.403
-5.531	38.345	1329.544	1175.620
-4.517	38.329	1329.103	1175.088
-3.502	38.390	1327.533	1174.020
-2.487	38.309	1326.884	1172.916
-1.473	38.515	1322.521	1170.243
-0.458	37.560	1307.601	1151.345
0.556	32.658	1289.586	1112.097
1.571	28.669	1293.619	1091.810
2.586	27.260	1308.651	1095.913
3.600	25.984	1297.634	1078.961
4.615	22.338	1224.911	997.770
5.629	16.453	1148.751	904.258
6.644	13.412	1127.392	871.378
7.659	13.101	1124.417	867.370
8.673	13.022	1123.296	866.016
9.688	12.935	1121.617	864.189
10.702	13.229	1120.570	864.842
11.717	17.104	1125.991	889.283
12.731	21.114	1130.828	914.072
13.746	20.109	1127.741	906.245
14.761	17.848	1123.780	891.188
15.775	16.613	1121.797	883.098
16.790	15.532	1119.303	875.421
17.804	14.683	1117.746	869.709
18.819	14.330	1116.555	866.864
19.834	13.890	1115.558	863.725
20.848	13.642	1114.700	861.698
21.863	13.445	1113.977	860.041
22.877	13.352	1113.073	858.785
23.892	13.228	1112.475	857.602
24.907	13.236	1111.442	856.769
25.921	13.460	1110.056	856.784
26.936	13.387	1108.649	855.247
27.950	13.549	1106.834	854.604
28.965	13.485	1105.496	853.170
29.980	13.593	1103.808	852.345
30.994	13.567	1102.480	851.110
32.009	13.661	1101.769	850.969
33.023	13.636	1100.607	849.869
34.038	13.592	1099.673	848.847
35.053	13.522	1098.523	847.525
36.067	13.482	1097.724	846.633
37.082	13.492	1096.970	846.025
38.096	13.551	1096.199	845.659
39.111	13.514	1095.415	844.786
40.126	13.452	1094.161	843.429
41.140	13.287	1092.913	841.552
42.155	13.286	1091.355	840.275
43.169	13.265	1090.303	839.285
44.184	13.318	1089.245	838.667
45.199	13.347	1088.475	838.145
46.213	13.383	1087.246	837.304
47.228	13.414	1086.465	836.789
48.242	13.400	1084.953	835.477
49.257	13.478	1083.932	835.012
50.271	13.450	1083.065	834.127
51.286	13.479	1082.236	833.564
52.301	13.429	1081.159	832.409
53.315	13.369	1080.050	831.177
54.330	13.405	1079.028	830.501
55.344	13.348	1078.560	829.779
56.359	13.374	1077.128	828.736
57.374	13.339	1076.098	827.696
58.388	13.280	1075.377	826.771
59.403	13.350	1074.808	826.611
60.417	13.249	1073.748	825.216
61.432	13.282	1072.672	824.483
62.447	13.256	1072.079	823.822
63.461	13.214	1071.281	822.931
64.476	13.218	1070.280	822.105
65.490	13.248	1069.068	821.253
66.505	13.253	1068.621	820.862
67.520	13.208	1067.798	819.935
68.534	13.242	1067.254	819.610
69.549	13.237	1066.610	819.021
70.563	13.305	1065.751	818.626
71.578	13.195	1064.649	817.162
72.593	13.136	1064.035	816.325
73.607	13.115	1063.800	815.971
74.622	13.207	1062.896	815.661
75.636	13.154	1062.067	814.691
76.651	13.146	1061.220	813.927
77.666	13.175	1060.653	813.563
78.680	13.204	1059.993	813.126
79.695	13.284	1059.263	812.890
80.709	13.203	1058.738	812.017
81.724	13.239	1057.974	811.537
82.739	13.334	1057.294	811.407
83.753	13.389	1056.585	811.060
84.768	13.510	1055.426	810.691
85.782	13.591	1054.278	810.137
86.797	13.590	1053.364	809.357
87.812	13.513	1052.385	808.157
88.826	13.483	1051.272	807.086
89.841	13.473	1050.820	806.619
90.855	13.413	1049.616	805.331
91.870	13.681	1048.732	805.881
92.884	13.572	1047.898	804.640
93.899	13.659	1046.920	804.243
94.914	13.599	1046.314	803.413
95.928	13.590	1045.671	802.805
96.943	13.481	1044.649	801.422
97.957	13.533	1043.914	801.039
98.972	13.578	1042.723	800.273
99.987	13.429	1042.053	798.968
101.001	13.627	1040.863	798.940
102.016	13.528	1040.079	797.789
103.030	13.562	1039.212	797.217
104.045	13.491	1038.436	796.209
105.060	13.529	1037.604	795.684
106.074	13.530	1036.633	794.872
107.089	13.343	1035.222	792.826
108.103	13.346	1034.142	791.940
109.118	13.321	1033.687	791.404
110.133	13.451	1032.127	790.761
111.147	13.315	1031.504	789.566
112.162	13.262	1030.974	788.836
113.176	13.389	1030.233	788.803
114.191	13.508	1029.076	788.418
115.206	13.335	1028.626	787.177
116.220	13.361	1027.395	786.288
117.235	13.341	1026.458	785.409
118.249	13.511	1025.501	785.413
119.264	13.432	1024.736	784.382
120.279	13.397	1024.247	783.775
121.293	13.284	1022.977	782.198
122.308	13.358	1022.406	782.042
123.322	13.317	1021.255	780.896
124.337	13.405	1020.077	780.343
125.352	13.398	1018.890	779.336
126.366	13.395	1018.164	778.697
127.381	13.238	1017.491	777.375
128.395	13.367	1016.239	776.955
129.410	13.348	1015.085	775.915
130.424	13.407	1014.410	775.607
131.439	13.576	1013.469	775.608
132.454	13.517	1013.062	774.951
133.468	13.534	1012.143	774.262
134.483	13.550	1010.994	773.388
135.497	13.486	1010.142	772.369
136.512	13.621	1009.021	772.071
137.527	13.588	1008.593	771.525
138.541	13.482	1007.973	770.488
139.556	13.477	1007.146	769.762
140.570	13.623	1006.334	769.751
141.585	13.644	1005.279	768.976
142.600	13.711	1004.364	768.519
143.614	13.762	1003.512	768.033
144.629	13.780	1002.580	767.335
145.643	13.737	1001.809	766.481
146.658	13.672	1000.576	765.169
147.673	13.546	999.559	763.741
148.687	13.561	998.707	763.093
149.702	13.600	997.742	762.467
150.716	13.482	997.241	761.477
151.731	13.496	996.546	760.939
152.746	13.563	995.431	760.331
153.760	13.498	995.279	759.847
154.775	13.586	994.713	759.752
155.789	13.789	993.615	759.775
156.804	13.750	992.815	758.920
157.819	13.748	991.940	758.175
158.833	13.684	991.477	757.462
159.848	13.787	990.625	757.214
160.862	13.850	989.136	756.293
161.877	13.726	988.461	755.147
162.892	13.743	987.376	754.330
163.906	13.686	986.656	753.452
164.921	13.743	985.489	752.755
165.935	13.811	984.569	752.293
166.950	13.594	984.300	751.035
167.964	13.642	983.054	750.239
168.979	13.762	982.225	750.082
169.994	13.705	981.410	749.134
171.008	13.810	980.542	748.880
172.023	13.811	980.140	748.513
173.037	13.846	979.064	747.781
174.052	13.799	978.470	747.050
175.067	13.848	977.722	746.630
176.081	13.679	977.213	745.417
177.096	13.712	976.692	745.104
178.110	13.750	976.140	744.787
179.125	13.643	975.727	743.927
180.140	13.820	975.195	744.248
181.154	13.860	974.550	743.869
182.169	13.967	973.698	743.633
183.183	14.069	972.963	743.459
184.198	14.046	972.185	742.695
185.213	13.966	971.749	741.942
186.227	14.086	970.928	741.782
187.242	14.054	970.374	741.154
188.256	14.139	969.459	740.769
189.271	14.170	968.477	740.091
190.286	13.867	967.790	738.150
191.300	13.829	966.827	737.181
192.315	13.652	966.646	736.195
193.329	13.811	966.153	736.457
194.344	13.829	965.478	735.956
195.359	13.930	964.639	735.702
196.373	13.841	964.079	734.814
197.388	14.095	963.739	735.616
198.402	14.186	963.025	735.406
199.417	14.249	962.464	735.192
200.432	14.291	961.665	734.703
201.446	14.342	961.074	734.408
202.461	14.339	960.921	734.213
203.475	14.416	960.358	734.060
204.490	14.237	959.123	732.262
205.504	14.142	958.868	731.586
206.519	14.240	957.535	730.934
207.534	14.206	956.795	730.154
208.548	14.233	956.278	729.815
209.563	14.218	955.573	729.144
210.577	14.275	954.807	728.747
211.592	14.166	954.282	727.805
212.607	14.501	953.144	728.333
213.621	14.449	952.311	727.408
214.636	14.500	951.375	726.850
215.650	14.435	950.913	726.150
216.665	14.536	950.188	725.974
217.680	14.546	949.137	725.150
218.694	14.468	948.905	724.569
219.709	14.462	948.253	723.981
220.723	14.529	947.657	723.753
221.738	14.587	946.526	723.076
222.753	14.543	946.306	722.652
223.767	14.515	945.735	722.030
224.782	14.519	945.094	721.497
225.796	14.679	944.566	721.721
226.811	14.592	943.874	720.753
227.826	14.518	943.058	719.748
228.840	14.600	942.296	719.452
229.855	14.622	941.244	718.682
230.869	14.526	940.657	717.757
231.884	14.554	939.998	717.312
232.899	14.576	939.137	716.684
233.913	14.419	938.769	715.666
234.928	14.365	938.066	714.836
235.942	14.513	936.890	714.512
236.957	14.526	936.579	714.267
237.972	14.527	936.025	713.785
238.986	14.537	935.294	713.208
240.001	14.580	934.544	712.757
241.015	14.539	934.434	712.434
242.030	14.563	933.129	711.477
243.045	14.703	932.718	711.698
244.059	14.734	932.184	711.358
245.074	14.761	931.318	710.751
246.088	14.811	930.681	710.412
247.103	14.780	930.317	709.941
248.117	14.900	929.547	709.802
249.132	15.062	929.158	710.127
250.147	14.986	928.401	709.163
251.161	15.034	927.613	708.704
252.176	14.991	926.814	707.849
253.190	15.135	926.306	708.008
254.205	15.218	925.521	707.695
255.220	15.037	925.196	706.621
256.234	15.101	924.182	706.054
257.249	15.159	923.608	705.796
258.263	15.185	922.866	705.276
259.278	15.125	922.084	704.365
260.293	15.261	921.434	704.375
261.307	15.283	921.110	704.157
262.322	15.053	920.897	702.968
263.336	15.116	920.083	702.549
264.351	15.211	918.899	701.981
265.366	15.382	918.338	702.205
266.380	15.317	917.669	701.360
267.395	15.346	916.610	700.610
268.409	15.169	915.973	699.321
269.424	15.081	915.619	698.621
270.439	15.116	914.900	698.158
271.453	15.319	913.825	698.123
272.468	15.319	913.209	697.587
273.482	15.313	913.045	697.378
274.497	15.350	912.463	697.025
275.512	15.284	911.839	696.210
276.526	15.182	911.551	695.508
277.541	15.436	910.311	695.551
278.555	15.495	909.842	695.375
279.570	15.422	909.376	694.658
280.585	15.449	908.747	694.226
281.599	15.416	907.646	693.186
282.614	15.399	906.960	692.530
283.628	15.664	906.222	692.998
284.643	15.615	905.632	692.284
285.657	15.437	905.157	691.128
286.672	15.632	904.270	691.190
287.687	15.419	903.626	689.761
288.701	15.458	903.444	689.724
289.716	15.546	902.821	689.547
290.730	15.585	902.210	689.181
291.745	15.573	901.635	688.631
292.760	15.697	900.444	688.167
293.774	15.604	900.202	687.539
294.789	15.641	899.422	687.037
295.803	15.693	898.580	686.546
296.818	15.646	898.007	685.855
297.833	15.657	897.123	685.163
298.847	15.839	896.621	685.460
299.862	15.762	896.253	684.804
300.876	15.786	895.670	684.395
301.891	15.773	895.324	684.019
302.906	15.845	894.524	683.638
303.920	15.978	893.650	683.452
304.935	15.900	893.736	683.139
305.949	15.827	892.920	682.158
306.964	15.911	891.975	681.718
307.979	15.758	891.771	680.880
308.993	15.954	890.764	680.845
310.008	15.918	890.481	680.423
311.022	15.879	889.867	679.737
312.037	15.925	889.436	679.531
313.052	15.872	888.456	678.511
314.066	15.834	887.964	677.922
315.081	15.827	887.427	677.424
316.095	15.925	886.740	677.232
317.110	15.759	886.679	676.458
318.125	15.784	885.724	675.771
319.139	15.861	885.390	675.767
320.154	15.808	885.064	675.242
321.168	15.983	884.214	675.236
322.183	15.832	883.758	674.224
323.197	15.938	883.004	674.011
324.212	15.943	882.547	673.627
325.227	16.028	881.772	673.314
326.241	15.998	881.266	672.749
327.256	15.853	880.909	671.837
328.270	15.930	880.273	671.598
329.285	16.038	879.121	671.091
330.300	16.022	878.405	670.420
331.314	16.024	878.230	670.238
332.329	16.183	877.276	670.080
333.343	16.208	877.050	669.947
334.358	16.171	876.957	669.671
335.373	16.245	876.286	669.393
336.387	16.229	876.416	669.369
337.402	16.182	875.942	668.760
338.416	16.286	875.449	668.739
339.431	16.308	874.871	668.323
340.446	16.337	874.622	668.191
341.460	16.436	873.967	668.020
342.475	16.511	873.321	667.767
343.489	16.498	873.356	667.680
344.504	16.483	873.037	667.320
345.519	16.408	872.543	666.587
346.533	16.427	871.996	666.184
347.548	16.465	871.391	665.813
348.562	16.299	870.708	664.579
349.577	16.370	870.181	664.396
350.592	16.339	869.505	663.701
351.606	16.357	868.674	663.078
352.621	16.433	867.942	662.760
353.635	16.425	867.476	662.314
354.650	16.541	866.698	662.113
355.665	16.517	866.130	661.530
356.679	16.568	865.469	661.163
357.694	16.452	864.870	660.194
358.708	16.672	863.893	660.249
359.723	16.617	863.660	659.800
360.738	16.493	863.070	658.804
361.752	16.622	862.306	658.668
362.767	16.685	861.804	658.470
363.781	16.670	861.330	657.990
364.796	16.569	860.848	657.171
365.810	16.691	860.642	657.430
366.825	16.796	860.206	657.445
367.840	16.783	859.414	656.732
368.854	16.712	858.837	655.960
369.869	16.778	858.428	655.846
370.883	16.818	858.436	655.947
371.898	16.863	857.470	655.325
372.913	16.913	857.221	655.270
373.927	16.809	856.447	654.218
374.942	16.857	856.243	654.188
375.956	16.920	855.758	654.004
376.971	17.060	855.235	654.086
377.986	16.902	855.127	653.339
379.000	17.032	854.680	653.440
380.015	17.101	854.075	653.182
381.029	17.109	853.244	652.522
382.044	17.118	852.595	652.002
383.059	17.220	851.851	651.768
384.073	17.034	851.490	650.719
385.088	17.062	850.657	650.132
386.102	16.979	850.084	649.321
387.117	17.042	849.156	648.796
388.132	16.961	849.112	648.395
389.146	17.153	848.204	648.374
390.161	17.179	848.176	648.395
391.175	17.185	847.713	648.007
392.190	17.072	846.978	646.959
393.205	17.037	846.435	646.353
394.219	17.007	846.368	646.129
395.234	17.142	845.821	646.168
396.248	17.030	845.728	645.616
397.263	16.996	845.249	645.064
398.278	16.982	844.627	644.476
399.292	17.171	844.129	644.758
400.307	17.161	843.512	644.191
401.321	17.285	843.148	644.326
402.336	17.141	842.493	643.224
403.350	17.189	842.446	643.314
404.365	17.210	841.692	642.760
405.380	17.312	840.684	642.318
406.394	17.385	840.591	642.465
407.409	17.503	840.139	642.507
408.423	17.526	839.818	642.293
409.438	17.465	839.216	641.547
410.453	17.419	839.063	641.198
411.467	17.531	838.258	640.949
412.482	17.607	838.192	641.126
413.496	17.619	837.814	640.825
414.511	17.652	837.523	640.673
415.526	17.643	836.865	640.079
416.540	17.632	836.252	639.510
417.555	17.665	835.897	639.306
418.569	17.530	835.546	638.476
419.584	17.743	834.830	638.671
420.599	17.642	834.608	638.067
421.613	96.382	1278.035	1405.400
422.628	83.337	1342.637	1405.519
