DTS Sentinel unit serial number:	SN413079Multiplexer serial number:	ORYXHardware model number:	OX4-SRSoftware version number:	ORYX F/W v4.00 Oryx Data Collector v3.7.2.0data status	okinstallation	princeton_trtdifferential loss correction	single-endedforward channel	channel 1reverse channel	N/Adate	2019/09/16time	00:58:35forward acquisition time	60.00reverse acquisition time	0.00gamma	496.2192k internal	0.2335k external	0.2335temperature offset calibration	0.9978default loss term (dB/km)	0.3790temperature slope calibration	1.0000multiplexer offset coefficient	1.0000multiplexer slope coefficient	1.0000fibre end	0.00T internal ref (°C)	27.36T ext. ref 1 (°C)	9.73T ext. ref 2 (°C)	21.28length (m)	temperature (°C)	Stokes	anti-Stokes-747.200	83.420	-0.325	-0.355
-746.185	50.716	-0.171	0.163
-745.171	-200.000	-0.022	-0.213
-744.156	-5.791	-0.260	0.179
-743.142	800.000	0.037	0.120
-742.127	482.633	-0.014	0.033
-741.112	-40.409	-0.208	-0.109
-740.098	-200.000	-0.042	0.261
-739.083	-122.525	-0.204	0.033
-738.069	139.761	-0.143	0.190
-737.054	-131.907	0.434	0.057
-736.039	800.000	-0.014	0.061
-735.025	-74.554	0.165	0.060
-734.010	800.000	-0.024	-0.068
-732.996	800.000	0.087	-0.253
-731.981	-90.820	0.082	-0.024
-730.966	-54.694	-0.466	-0.212
-729.952	-200.000	-0.012	0.158
-728.937	-123.319	-0.335	-0.054
-727.923	-56.931	0.096	-0.043
-726.908	-169.700	0.227	0.008
-725.894	-62.662	-0.362	-0.151
-724.879	-200.000	0.042	-0.258
-723.864	-63.549	-0.151	0.062
-722.850	-87.850	-0.670	-0.202
-721.835	-138.372	0.258	0.029
-720.821	-93.296	0.106	-0.030
-719.806	-112.802	-0.223	0.044
-718.791	-97.441	-0.140	-0.037
-717.777	60.801	0.124	-0.123
-716.762	381.294	0.154	0.318
-715.748	-200.000	0.017	0.200
-714.733	25.096	-0.177	0.147
-713.718	284.558	0.108	-0.194
-712.704	245.844	0.179	-0.303
-711.689	-56.273	-0.150	0.067
-710.675	-177.481	0.112	0.003
-709.660	-200.000	-0.042	0.327
-708.645	81.766	0.141	-0.153
-707.631	94.866	-0.099	0.113
-706.616	-200.000	0.008	-0.316
-705.602	-171.303	-0.099	0.003
-704.587	693.373	-0.087	0.229
-703.572	-6.003	-0.211	0.145
-702.558	20.214	-0.103	0.083
-701.543	-200.000	0.012	0.214
-700.529	800.000	-0.081	0.288
-699.514	-13.198	0.197	0.128
-698.499	35.813	0.134	-0.118
-697.485	800.000	-0.088	0.245
-696.470	-200.000	-0.028	-0.358
-695.456	203.775	-0.056	0.086
-694.441	60.295	-0.219	-0.217
-693.426	38.021	0.089	-0.080
-692.412	-200.000	-0.002	0.115
-691.397	213.543	-0.094	-0.148
-690.383	-200.000	0.016	-0.163
-689.368	-68.500	-0.377	-0.146
-688.354	139.292	-0.152	0.200
-687.339	66.233	0.207	0.211
-686.324	-200.000	-0.011	0.320
-685.310	146.092	-0.104	0.140
-684.295	-200.000	-0.014	-0.085
-683.281	-151.558	0.085	-0.006
-682.266	-200.000	0.057	-0.318
-681.251	153.048	-0.084	-0.116
-680.237	-66.867	-0.295	0.117
-679.222	181.604	-0.182	-0.268
-678.208	-113.540	-0.141	-0.028
-677.193	-10.777	0.292	-0.193
-676.178	-144.181	-0.120	0.011
-675.164	614.840	0.033	-0.083
-674.149	800.000	-0.122	0.358
-673.135	99.857	0.219	-0.254
-672.120	800.000	-0.080	-0.277
-671.105	-200.000	-0.009	-0.418
-670.091	-8.856	0.345	0.232
-669.076	-200.000	0.102	0.000
-668.062	298.090	-0.122	0.224
-667.047	125.688	0.015	0.019
-666.032	683.727	0.111	-0.289
-665.018	76.017	-0.054	-0.058
-664.003	-91.759	0.064	-0.018
-662.989	150.727	-0.077	0.105
-661.974	-200.000	0.048	-0.245
-660.959	268.882	0.061	-0.107
-659.945	-69.818	-0.243	-0.093
-658.930	433.726	-0.023	0.051
-657.916	232.161	-0.162	0.267
-656.901	-200.000	0.062	0.373
-655.886	-120.462	-0.178	0.030
-654.872	113.564	-0.180	-0.219
-653.857	146.236	0.119	-0.159
-652.843	-163.299	-0.253	-0.012
-651.828	-135.232	-0.445	0.053
-650.814	127.628	0.162	-0.206
-649.799	-101.304	-0.238	0.058
-648.784	695.157	0.155	-0.407
-647.770	-20.820	-0.223	0.137
-646.755	-200.000	0.014	0.096
-645.741	-200.000	-0.015	-0.151
-644.726	800.000	0.065	0.182
-643.711	9.078	-0.100	0.076
-642.697	-132.049	-0.191	0.025
-641.682	800.000	0.038	-0.151
-640.668	-78.266	-0.182	0.063
-639.653	-132.401	0.179	0.023
-638.638	114.625	0.157	-0.192
-637.624	195.405	-0.188	-0.286
-636.609	200.599	-0.028	-0.042
-635.595	67.990	-0.053	0.054
-634.580	-41.384	0.203	0.105
-633.565	800.000	-0.072	-0.313
-632.551	-11.904	0.248	-0.163
-631.536	43.048	0.089	-0.081
-630.522	800.000	0.057	-0.197
-629.507	-7.669	0.130	0.088
-628.492	351.874	0.121	0.240
-627.478	-200.000	0.014	-0.107
-626.463	-55.425	-0.247	-0.111
-625.449	-3.924	-0.157	-0.109
-624.434	4.878	0.171	0.126
-623.419	-48.099	-0.203	0.098
-622.405	67.843	0.100	-0.102
-621.390	-104.254	-0.062	0.014
-620.376	548.093	-0.004	-0.010
-619.361	-109.072	-0.116	0.025
-618.346	267.961	0.103	-0.181
-617.332	-28.690	0.169	0.098
-616.317	35.472	-0.063	-0.055
-615.303	-37.862	0.200	-0.106
-614.288	-13.835	-0.310	0.201
-613.273	-86.625	-0.089	-0.027
-612.259	-136.981	-0.103	0.012
-611.244	362.834	-0.150	0.300
-610.230	293.663	-0.144	0.263
-609.215	6.711	-0.195	0.145
-608.201	571.625	0.098	-0.238
-607.186	108.808	-0.124	0.148
-606.171	800.000	0.006	-0.024
-605.157	-117.426	-0.353	-0.064
-604.142	-34.581	-0.244	0.133
-603.128	-24.265	0.080	0.048
-602.113	13.626	0.241	0.187
-601.098	7.282	0.083	-0.062
-600.084	-129.618	0.099	0.014
-599.069	-51.552	-0.111	0.052
-598.055	-36.018	-0.158	-0.085
-597.040	-130.769	-0.194	-0.026
-596.025	-107.408	-0.256	-0.056
-595.011	35.576	0.080	-0.070
-593.996	42.790	-0.266	-0.242
-592.982	77.300	-0.118	-0.125
-591.967	-114.941	-0.178	-0.034
-590.952	737.743	0.031	0.082
-589.938	-163.824	-0.208	0.010
-588.923	-91.384	0.221	-0.063
-587.909	379.570	0.086	-0.176
-586.894	-200.000	-0.006	0.027
-585.879	-62.679	0.282	0.117
-584.865	-68.442	0.279	-0.108
-583.850	-16.026	0.126	-0.080
-582.836	-92.914	-0.125	-0.035
-581.821	-181.108	-0.079	0.002
-580.806	-33.523	-0.236	-0.130
-579.792	-123.934	-0.379	-0.060
-578.777	665.773	-0.115	0.296
-577.763	-200.000	-0.017	0.220
-576.748	41.714	-0.269	-0.243
-575.733	113.415	-0.184	-0.223
-574.719	-105.034	0.175	-0.040
-573.704	-200.000	0.009	-0.169
-572.690	-22.665	-0.179	-0.108
-571.675	-174.578	0.165	0.005
-570.661	-76.815	0.382	-0.133
-569.646	101.407	-0.244	-0.284
-568.631	-36.846	-0.169	0.091
-567.617	-22.775	-0.253	-0.152
-566.602	-106.588	0.399	-0.089
-565.588	389.458	0.068	-0.140
-564.573	-27.204	-0.283	0.165
-563.558	-147.533	-0.315	0.027
-562.544	-150.017	-0.299	0.023
-561.529	317.340	-0.087	-0.165
-560.515	-38.929	-0.152	-0.080
-559.500	4.189	-0.243	0.177
-558.485	-200.000	0.057	0.342
-557.471	-58.117	0.058	-0.025
-556.456	384.433	0.037	-0.076
-555.442	-200.000	-0.088	-0.476
-554.427	-11.935	0.213	-0.140
-553.412	10.811	-0.182	0.139
-552.398	-200.000	-0.003	0.312
-551.383	784.759	-0.037	0.101
-550.369	-69.238	0.115	-0.044
-549.354	-200.000	-0.040	-0.228
-548.339	297.341	0.160	-0.293
-547.325	108.025	-0.068	-0.080
-546.310	-90.290	-0.045	-0.013
-545.296	-200.000	-0.032	-0.157
-544.281	-200.000	-0.018	0.203
-543.266	28.187	0.148	-0.125
-542.252	27.204	0.102	-0.086
-541.237	332.943	0.121	-0.234
-540.223	-200.000	-0.011	0.195
-539.208	-130.451	-0.429	0.058
-538.193	712.848	0.080	0.211
-537.179	265.903	0.111	0.194
-536.164	90.142	0.215	-0.240
-535.150	167.098	0.180	0.255
-534.135	-200.000	0.068	0.297
-533.121	-89.127	-0.097	-0.029
-532.106	88.947	0.138	-0.154
-531.091	-200.000	-0.034	0.196
-530.077	-37.610	-0.485	-0.258
-529.062	-145.330	0.503	-0.045
-528.048	-39.356	0.213	0.111
-527.033	411.732	-0.132	-0.279
-526.018	800.000	0.091	0.350
-525.004	-106.296	-0.259	-0.058
-523.989	-0.629	0.310	0.219
-522.975	-23.677	-0.402	0.240
-521.960	-200.000	0.008	-0.128
-520.945	-200.000	-0.000	0.082
-519.931	800.000	0.032	0.109
-518.916	-161.259	-0.188	0.010
-517.902	-200.000	-0.023	0.194
-516.887	187.964	-0.184	0.274
-515.872	209.118	0.077	-0.120
-514.858	244.680	-0.104	-0.173
-513.843	800.000	-0.111	-0.392
-512.829	800.000	0.015	0.063
-511.814	-72.280	0.169	-0.062
-510.799	317.784	-0.040	0.076
-509.785	193.297	-0.208	-0.312
-508.770	718.019	-0.046	0.123
-507.756	-200.000	-0.046	-0.219
-506.741	90.539	-0.176	-0.196
-505.726	-69.053	0.235	-0.090
-504.712	-172.740	-0.121	-0.004
-503.697	156.079	-0.219	-0.301
-502.683	19.446	-0.064	-0.051
-501.668	46.327	-0.153	-0.141
-500.653	-4.939	-0.103	0.071
-499.639	-74.774	0.340	0.122
-498.624	-200.000	-0.019	0.278
-497.610	424.319	0.111	0.237
-496.595	-167.266	0.449	0.018
-495.581	-101.397	-0.219	-0.053
-494.566	104.336	-0.281	-0.329
-493.551	800.000	-0.034	-0.127
-492.537	-87.860	0.243	-0.073
-491.522	357.160	0.131	0.260
-490.508	81.966	0.199	0.214
-489.493	6.987	-0.393	-0.292
-488.478	442.247	0.150	-0.326
-487.464	-24.479	0.080	-0.048
-486.449	-200.000	-0.031	-0.434
-485.435	-73.971	0.210	-0.076
-484.420	-77.919	0.379	-0.130
-483.405	84.283	0.023	-0.025
-482.391	172.954	-0.100	0.144
-481.376	-141.302	-0.148	0.015
-480.362	-200.000	-0.056	0.306
-479.347	-61.773	0.044	0.018
-478.332	800.000	0.061	0.203
-477.318	-98.198	-0.189	0.048
-476.303	-12.532	0.208	0.135
-475.289	800.000	-0.120	0.364
-474.274	504.274	0.019	-0.044
-473.259	208.537	-0.055	-0.085
-472.245	118.173	0.030	0.037
-471.230	-33.445	-0.006	-0.003
-470.216	-200.000	-0.371	0.001
-469.201	-200.000	0.052	-0.241
-468.186	136.393	-0.137	0.178
-467.172	30.930	0.074	-0.063
-466.157	-63.624	-0.154	0.063
-465.143	52.134	0.288	0.273
-464.128	-41.513	-0.507	0.259
-463.113	-25.711	-0.019	0.011
-462.099	121.671	0.118	0.146
-461.084	-31.928	0.166	-0.092
-460.070	-61.173	0.502	-0.210
-459.055	-8.991	-0.065	-0.043
-458.040	-200.000	-0.030	-0.133
-457.026	-30.428	0.265	-0.150
-456.011	276.476	0.230	-0.405
-454.997	-200.000	-0.049	-0.292
-453.982	121.244	-0.150	0.186
-452.968	-200.000	0.019	-0.334
-451.953	-13.903	0.213	-0.137
-450.938	28.058	-0.134	0.113
-449.924	-77.959	-0.049	0.017
-448.909	-124.751	-0.036	0.006
-447.895	-45.120	0.090	-0.045
-446.880	159.656	-0.243	-0.336
-445.865	13.454	0.216	-0.166
-444.851	-142.429	0.124	-0.012
-443.836	141.566	0.185	-0.244
-442.822	-200.000	0.014	-0.165
-441.807	55.698	-0.165	0.159
-440.792	-25.563	-0.421	0.247
-439.778	-200.000	0.027	0.298
-438.763	-92.542	-0.091	-0.025
-437.749	-200.000	0.042	-0.200
-436.734	194.587	0.160	-0.241
-435.719	-21.305	-0.485	-0.294
-434.705	-116.893	0.294	-0.053
-433.690	-1.700	-0.138	-0.096
-432.676	-200.000	0.009	0.084
-431.661	-49.567	0.088	-0.042
-430.646	-25.191	-0.239	-0.141
-429.632	-32.122	-0.113	0.063
-428.617	800.000	0.099	0.382
-427.603	253.558	0.106	0.179
-426.588	-175.069	-0.223	0.006
-425.573	25.404	0.031	-0.025
-424.559	-31.425	0.288	0.161
-423.544	-200.000	0.016	0.355
-422.530	-11.670	-0.218	0.142
-421.515	-200.000	-0.007	0.063
-420.500	800.000	-0.069	0.224
-419.486	358.799	0.137	0.271
-418.471	-185.264	-0.373	-0.006
-417.457	149.148	0.233	0.312
-416.442	-25.033	-0.078	-0.046
-415.428	-200.000	0.065	-0.313
-414.413	-74.898	0.099	-0.035
-413.398	-68.185	0.189	-0.073
-412.384	800.000	0.093	-0.364
-411.369	161.655	-0.073	0.102
-410.355	11.980	-0.300	0.229
-409.340	-52.221	0.121	-0.056
-408.325	-200.000	-0.023	-0.326
-407.311	800.000	-0.086	-0.240
-406.296	-113.309	-0.113	0.022
-405.282	69.646	-0.102	-0.104
-404.267	187.018	0.226	0.334
-403.252	111.478	-0.140	-0.167
-402.238	120.237	0.149	-0.184
-401.223	529.677	0.180	0.422
-400.209	-117.088	0.185	-0.033
-399.194	-22.110	0.285	0.171
-398.179	-186.512	0.205	-0.003
-397.165	-136.854	0.371	0.042
-396.150	-200.000	-0.028	0.131
-395.136	14.258	-0.146	-0.113
-394.121	-154.246	0.259	0.017
-393.106	800.000	-0.073	0.261
-392.092	-125.810	0.295	-0.044
-391.077	260.259	-0.245	-0.420
-390.063	684.249	-0.103	-0.265
-389.048	-200.000	0.043	0.242
-388.033	-1.923	-0.096	0.067
-387.019	800.000	0.064	0.275
-386.004	-53.367	-0.291	-0.132
-384.990	28.051	0.097	-0.081
-383.975	-181.418	-0.226	0.004
-382.960	-47.724	0.153	0.073
-381.946	264.140	0.065	-0.112
-380.931	650.947	0.140	0.356
-379.917	800.000	0.093	0.272
-378.902	-200.000	-0.001	-0.198
-377.888	64.077	-0.149	0.148
-376.873	-146.772	0.374	0.032
-375.858	-108.049	-0.271	-0.058
-374.844	800.000	-0.024	-0.085
-373.829	200.488	0.160	-0.243
-372.815	-103.634	-0.295	0.069
-371.800	-34.785	-0.081	0.044
-370.785	-12.314	0.152	-0.099
-369.771	31.168	0.343	0.291
-368.756	-96.408	-0.299	-0.078
-367.742	-200.000	-0.011	-0.103
-366.727	194.650	0.029	-0.044
-365.712	441.571	0.061	0.133
-364.698	-5.611	-0.238	0.162
-363.683	181.595	-0.057	-0.083
-362.669	298.064	-0.034	-0.061
-361.654	-156.293	0.044	-0.003
-360.639	94.354	-0.091	-0.102
-359.625	154.418	-0.175	0.238
-358.610	-115.502	0.012	0.002
-357.596	-35.922	-0.111	-0.059
-356.581	67.726	-0.091	0.092
-355.566	160.649	-0.066	-0.091
-354.552	512.984	-0.046	-0.105
-353.537	389.769	-0.085	0.175
-352.523	-54.411	-0.066	0.029
-351.508	-49.275	0.056	0.027
-350.493	-11.277	0.098	-0.064
-349.479	-200.000	0.013	-0.213
-348.464	-200.000	-0.011	-0.119
-347.450	133.460	-0.179	-0.230
-346.435	183.434	0.079	-0.115
-345.420	-32.357	-0.121	0.067
-344.406	170.511	0.330	0.468
-343.391	45.518	-0.183	-0.167
-342.377	-200.000	-0.062	0.282
-341.362	-2.644	0.099	-0.068
-340.348	112.845	-0.170	-0.204
-339.333	-142.336	-0.025	0.002
-338.318	-30.021	0.182	-0.103
-337.304	-117.911	0.314	0.056
-336.289	166.053	-0.163	0.228
-335.275	8.148	-0.090	0.067
-334.260	25.328	0.192	0.157
-333.245	-39.366	0.191	-0.099
-332.231	-200.000	-0.028	-0.489
-331.216	66.686	0.344	-0.346
-330.202	-122.106	-0.352	0.057
-329.187	85.883	-0.148	0.161
-328.172	444.560	-0.104	-0.225
-327.158	-111.464	-0.221	-0.044
-326.143	-51.301	0.038	0.018
-325.129	-200.000	-0.068	0.415
-324.114	-200.000	-0.040	0.222
-323.099	128.363	-0.214	-0.269
-322.085	-6.698	-0.129	0.087
-321.070	-101.488	0.003	0.001
-320.056	354.051	-0.103	0.202
-319.041	-200.000	-0.036	0.192
-318.026	488.344	0.070	0.158
-317.012	-91.247	0.272	-0.077
-315.997	-7.088	-0.079	-0.053
-314.983	-117.457	0.103	-0.018
-313.968	800.000	0.014	-0.038
-312.953	-131.676	0.274	-0.036
-311.939	-139.402	0.222	0.024
-310.924	-56.247	-0.280	-0.123
-309.910	-200.000	-0.041	0.188
-308.895	208.507	-0.163	0.252
-307.880	82.608	0.072	0.077
-306.866	7.098	-0.068	-0.050
-305.851	-24.853	0.258	0.151
-304.837	-200.000	0.035	-0.344
-303.822	-129.761	0.357	0.049
-302.807	-200.000	0.024	0.258
-301.793	-83.502	-0.230	0.073
-300.778	-57.295	0.114	-0.050
-299.764	30.384	0.112	-0.095
-298.749	25.724	-0.123	0.102
-297.735	-38.277	-0.127	-0.066
-296.720	-35.801	0.244	0.130
-295.705	-131.223	0.080	-0.010
-294.691	-2.790	-0.245	-0.169
-293.676	-200.000	-0.008	0.048
-292.662	568.212	-0.235	0.565
-291.647	800.000	-0.139	-0.462
-290.632	-153.876	0.190	0.013
-289.618	656.585	-0.049	-0.125
-288.603	-47.269	0.285	-0.137
-287.589	65.603	0.250	0.250
-286.574	-142.751	0.200	0.019
-285.559	-105.905	-0.283	-0.063
-284.545	-91.327	0.192	-0.054
-283.530	-34.882	-0.031	-0.017
-282.516	433.889	-0.111	-0.238
-281.501	419.425	-0.140	-0.295
-280.486	257.959	0.157	0.267
-279.472	-82.650	-0.018	0.006
-278.457	288.342	0.224	0.400
-277.443	73.587	-0.093	-0.096
-276.428	-200.000	0.009	-0.079
-275.413	33.193	-0.059	-0.050
-274.399	-200.000	-0.049	0.339
-273.384	43.606	-0.137	-0.124
-272.370	-116.296	0.193	0.035
-271.355	-200.000	0.016	0.234
-270.340	-200.000	-0.064	0.288
-269.326	223.002	0.221	0.352
-268.311	150.143	0.071	-0.096
-267.297	-200.000	0.015	-0.165
-266.282	-0.323	0.215	-0.151
-265.267	675.554	-0.085	0.219
-264.253	-187.601	-0.210	0.003
-263.238	193.736	-0.037	0.056
-262.224	-200.000	0.027	-0.231
-261.209	21.178	-0.023	0.018
-260.195	-162.521	0.273	-0.013
-259.180	800.000	0.112	-0.315
-258.165	591.937	-0.052	0.128
-257.151	39.016	0.344	-0.303
-256.136	-74.867	0.180	0.064
-255.122	-171.250	-0.074	-0.002
-254.107	800.000	-0.040	-0.127
-253.092	-34.728	-0.137	0.074
-252.078	41.783	-0.268	0.240
-251.063	396.354	-0.191	0.392
-250.049	39.198	0.073	-0.065
-249.034	-133.755	0.385	0.047
-248.019	-119.629	-0.157	-0.027
-247.005	39.313	0.116	-0.102
-245.990	-17.721	0.220	-0.136
-244.976	572.643	0.061	-0.146
-243.961	-200.000	0.036	-0.183
-242.946	-200.000	0.360	0.001
-241.932	308.769	-0.172	-0.316
-240.917	622.698	-0.101	-0.250
-239.903	-48.772	0.235	0.111
-238.888	62.202	0.207	0.203
-237.873	-42.582	-0.215	-0.108
-236.859	-200.000	-0.004	-0.038
-235.844	477.949	0.045	0.099
-234.830	181.254	0.193	0.280
-233.815	-152.035	-0.210	0.015
-232.800	-200.000	-0.005	-0.134
-231.786	-82.383	-0.632	-0.202
-230.771	-200.000	-0.091	0.570
-229.757	281.580	0.090	-0.159
-228.742	248.429	0.265	-0.441
-227.727	243.589	-0.066	0.108
-226.713	726.599	0.189	0.496
-225.698	-200.000	0.000	0.178
-224.684	-7.166	-0.190	0.127
-223.669	800.000	-0.046	-0.126
-222.655	-200.000	-0.018	0.238
-221.640	301.392	0.126	0.228
-220.625	-147.717	0.158	0.013
-219.611	-200.000	-0.038	0.336
-218.596	-49.624	-0.133	0.062
-217.582	-200.000	-0.038	-0.172
-216.567	183.490	0.234	0.340
-215.552	93.532	0.210	0.234
-214.538	-62.044	0.236	-0.097
-213.523	90.574	-0.094	0.103
-212.509	118.701	-0.232	0.282
-211.494	-64.327	0.095	0.038
-210.479	800.000	-0.036	-0.123
-209.465	-200.000	0.003	-0.269
-208.450	-39.925	-0.074	0.038
-207.436	-116.222	-0.332	-0.061
-206.421	-27.433	0.119	0.068
-205.406	-5.422	0.150	0.102
-204.392	492.704	0.153	0.345
-203.377	528.925	-0.049	0.113
-202.363	-29.194	0.272	0.153
-201.348	10.671	-0.122	0.091
-200.333	-103.947	0.157	-0.036
-199.319	-53.234	0.299	-0.135
-198.304	376.831	0.117	0.236
-197.290	44.636	0.117	0.106
-196.275	800.000	-0.086	-0.312
-195.260	-200.000	0.027	-0.273
-194.246	90.291	-0.065	-0.072
-193.231	86.237	0.189	0.204
-192.217	-49.956	0.191	0.089
-191.202	174.582	-0.164	0.233
-190.187	-74.073	0.054	0.019
-189.173	-45.519	0.360	-0.175
-188.158	800.000	0.109	-0.355
-187.144	233.403	0.028	-0.045
-186.129	-15.001	0.366	-0.231
-185.114	6.097	0.225	0.164
-184.100	800.000	-0.062	0.222
-183.085	-200.000	0.023	0.102
-182.071	113.374	-0.062	0.074
-181.056	17.608	-0.196	0.153
-180.042	48.567	0.192	-0.177
-179.027	-163.418	-0.030	0.001
-178.012	96.047	-0.189	-0.213
-176.998	70.891	0.113	0.115
-175.983	-159.375	-0.147	0.008
-174.969	-53.240	0.346	0.156
-173.954	-122.762	-0.291	-0.046
-172.939	-69.170	-0.035	-0.013
-171.925	-200.000	-0.076	-0.338
-170.910	-92.061	0.281	0.078
-169.896	-200.000	-0.008	0.132
-168.881	-106.980	-0.123	0.027
-167.866	144.468	0.238	-0.312
-166.852	-5.550	0.039	-0.027
-165.837	196.796	-0.160	-0.239
-164.823	40.584	-0.198	-0.176
-163.808	431.453	0.119	-0.253
-162.793	313.051	0.064	0.118
-161.779	800.000	-0.057	0.200
-160.764	442.499	-0.082	-0.176
-159.750	113.616	-0.196	-0.233
-158.735	74.383	0.138	-0.142
-157.720	85.196	0.175	0.189
-156.706	314.048	-0.173	0.319
-155.691	-43.700	-0.065	0.032
-154.677	54.168	0.100	0.095
-153.662	-16.072	-0.199	0.124
-152.647	-200.000	0.020	0.152
-151.633	800.000	0.060	0.193
-150.618	209.169	-0.346	-0.532
-149.604	56.800	0.077	-0.074
-148.589	-55.010	0.166	-0.073
-147.574	-200.000	0.045	-0.335
-146.560	18.214	0.242	-0.189
-145.545	135.193	-0.091	0.116
-144.531	-76.392	0.304	0.105
-143.516	800.000	0.079	0.322
-142.502	106.884	0.125	-0.145
-141.487	-49.780	-0.252	0.118
-140.472	258.109	-0.138	-0.233
-139.458	800.000	-0.023	0.070
-138.443	-180.553	0.055	0.001
-137.429	-121.767	-0.195	-0.032
-136.414	374.080	0.067	-0.133
-135.399	0.392	-0.075	-0.052
-134.385	-92.242	-0.556	-0.154
-133.370	800.000	0.074	0.245
-132.356	399.720	0.074	0.151
-131.341	-186.653	0.155	-0.002
-130.326	-140.970	-0.311	0.031
-129.312	-200.000	-0.043	-0.342
-128.297	-87.103	0.414	0.124
-127.283	800.000	0.048	0.175
-126.268	-76.570	0.156	0.054
-125.253	67.391	0.373	-0.373
-124.239	-120.128	0.239	0.040
-123.224	800.000	0.069	0.292
-122.210	357.146	0.107	-0.210
-121.195	-200.000	-0.010	0.262
-120.180	462.898	-0.080	-0.176
-119.166	13.382	0.148	0.113
-118.151	-200.000	0.011	0.104
-117.137	787.466	-0.061	-0.165
-116.122	-200.000	0.039	-0.187
-115.107	-200.000	0.023	-0.464
-114.093	161.757	-0.159	-0.218
-113.078	652.882	-0.144	-0.362
-112.064	-200.000	-0.011	-0.188
-111.049	296.401	-0.082	-0.147
-110.034	-19.711	0.244	-0.148
-109.020	-9.879	0.298	-0.194
-108.005	-67.445	-0.056	0.022
-106.991	-128.557	0.143	-0.020
-105.976	105.886	-0.024	0.027
-104.962	-200.000	-0.038	-0.227
-103.947	800.000	0.001	-0.004
-102.932	5.794	0.217	0.157
-101.918	-67.642	-0.090	-0.034
-100.903	52.718	0.070	0.065
-99.889	-102.245	0.262	-0.062
-98.874	50.288	-0.026	0.024
-97.859	-200.000	0.016	-0.164
-96.845	-75.419	-0.414	0.145
-95.830	7.560	-0.333	0.244
-94.816	-3.990	0.132	-0.090
-93.801	-200.000	-0.054	0.253
-92.786	-51.186	0.207	0.095
-91.772	242.730	0.164	0.269
-90.757	-67.449	-0.136	-0.052
-89.743	62.330	0.109	-0.107
-88.728	651.134	-0.105	-0.263
-87.713	198.309	0.089	0.133
-86.699	69.726	0.130	0.131
-85.684	-200.000	-0.020	0.380
-84.670	800.000	-0.030	0.105
-83.655	109.066	0.064	0.075
-82.640	-200.000	-0.020	0.161
-81.626	800.000	0.095	0.320
-80.611	-83.474	0.097	0.030
-79.597	-96.750	0.190	0.049
-78.582	45.124	0.055	-0.049
-77.567	2.252	0.132	0.094
-76.553	113.030	0.237	0.282
-75.538	-98.924	-0.131	0.032
-74.524	-81.307	-0.157	-0.051
-73.509	800.000	-0.063	-0.191
-72.494	143.314	-0.179	-0.233
-71.480	1.494	0.072	-0.051
-70.465	-7.528	-0.281	-0.186
-69.451	92.670	-0.325	0.359
-68.436	505.192	-0.137	0.311
-67.422	1.887	-0.124	0.088
-66.407	-128.648	0.348	0.048
-65.392	55.679	-0.159	-0.151
-64.378	54.251	0.150	-0.141
-63.363	800.000	-0.069	0.236
-62.349	207.277	-0.047	0.071
-61.334	136.858	-0.852	-1.088
-60.319	-19.336	0.828	0.503
-59.305	446.423	-0.382	-0.821
-58.290	800.000	0.478	1.323
-57.276	481.908	0.721	1.601
-56.261	-200.000	114.356	643.466
-55.246	477.296	1498.860	3315.806
-54.232	149.643	2659.405	3524.090
-53.217	102.807	2139.034	2448.850
-52.203	38.431	1589.423	1385.272
-51.188	30.531	1336.086	1117.171
-50.173	27.722	1297.964	1068.824
-49.159	54.534	1353.604	1275.626
-48.144	53.334	1368.430	1282.392
-47.130	30.834	1324.171	1108.834
-46.115	27.453	1306.444	1074.049
-45.100	27.322	1301.269	1068.977
-44.086	27.166	1298.631	1065.853
-43.071	27.251	1296.105	1064.238
-42.057	27.113	1294.419	1062.006
-41.042	27.183	1292.886	1061.112
-40.027	27.275	1290.942	1060.012
-39.013	27.192	1289.049	1057.935
-37.998	27.322	1286.919	1056.897
-36.984	27.296	1285.679	1055.688
-35.969	27.338	1283.747	1054.302
-34.954	27.384	1282.069	1053.149
-33.940	27.452	1281.008	1052.627
-32.925	27.442	1279.395	1051.202
-31.911	27.478	1277.928	1050.162
-30.896	27.464	1276.643	1048.987
-29.881	27.454	1275.215	1047.711
-28.867	27.551	1273.653	1046.948
-27.852	27.484	1272.244	1045.360
-26.838	27.435	1271.106	1044.105
-25.823	27.444	1269.655	1042.921
-24.809	27.477	1268.765	1042.338
-23.794	27.343	1267.160	1040.212
-22.779	27.528	1265.766	1040.080
-21.765	27.390	1264.734	1038.404
-20.750	27.400	1263.225	1037.186
-19.736	27.459	1262.074	1036.532
-18.721	27.277	1261.199	1034.737
-17.706	27.330	1259.479	1033.587
-16.692	27.271	1258.918	1032.748
-15.677	27.364	1257.762	1032.287
-14.663	27.298	1256.619	1030.937
-13.648	27.278	1255.343	1029.733
-12.633	27.256	1254.406	1028.801
-11.619	27.350	1253.144	1028.254
-10.604	27.292	1252.514	1027.372
-9.590	27.286	1251.650	1026.587
-8.575	27.275	1250.711	1025.716
-7.560	27.258	1249.939	1024.945
-6.546	27.301	1248.952	1024.339
-5.531	27.278	1247.798	1023.217
-4.517	27.237	1247.403	1022.627
-3.502	27.315	1246.404	1022.202
-2.487	27.250	1245.469	1021.031
-1.473	27.179	1241.583	1017.411
-0.458	25.638	1226.766	996.698
0.556	20.851	1210.024	960.372
1.571	17.226	1216.162	945.034
2.586	16.409	1231.435	952.215
3.600	16.616	1219.953	944.409
4.615	14.878	1154.369	884.374
5.629	11.652	1087.848	817.233
6.644	9.824	1071.180	795.634
7.659	9.776	1068.807	793.564
8.673	9.725	1066.747	791.711
9.688	9.605	1066.512	790.881
10.702	9.862	1064.201	790.355
11.717	11.868	1065.843	801.333
12.731	15.347	1070.692	821.983
13.746	17.510	1073.215	834.460
14.761	17.551	1072.653	834.151
15.775	16.537	1070.311	827.299
16.790	15.444	1068.418	820.420
17.804	14.845	1066.602	816.033
18.819	14.482	1065.556	813.390
19.834	14.126	1064.465	810.751
20.848	13.883	1063.952	809.104
21.863	13.623	1063.022	807.057
22.877	13.499	1061.768	805.431
23.892	13.570	1061.657	805.621
24.907	13.581	1060.741	804.908
25.921	13.560	1059.544	803.826
26.936	13.569	1058.372	802.909
27.950	13.654	1056.932	802.155
28.965	13.608	1055.938	801.112
29.980	13.671	1053.929	799.819
30.994	13.783	1053.321	799.824
32.009	13.824	1052.069	799.005
33.023	13.801	1050.766	797.831
34.038	13.690	1049.634	796.370
35.053	13.717	1049.165	796.074
36.067	13.718	1047.779	794.953
37.082	13.690	1047.222	794.327
38.096	13.829	1046.109	794.080
39.111	13.663	1045.590	792.819
40.126	13.695	1043.956	791.664
41.140	13.540	1042.984	790.116
42.155	13.539	1041.449	788.879
43.169	13.496	1040.473	787.867
44.184	13.474	1039.798	787.183
45.199	13.473	1038.721	786.291
46.213	13.348	1037.967	785.060
47.228	13.629	1036.386	785.122
48.242	13.631	1035.177	784.146
49.257	13.576	1034.859	783.577
50.271	13.639	1033.669	782.903
51.286	13.800	1032.388	782.623
52.301	13.696	1031.722	781.559
53.315	13.584	1030.653	780.154
54.330	13.549	1029.847	779.308
55.344	13.457	1029.156	778.287
56.359	13.533	1028.009	777.708
57.374	13.488	1027.203	776.815
58.388	13.463	1026.398	776.021
59.403	13.425	1025.475	775.076
60.417	13.436	1024.607	774.406
61.432	13.433	1024.054	773.902
62.447	13.455	1022.750	772.951
63.461	13.351	1022.101	771.908
64.476	13.545	1021.081	771.974
65.490	13.481	1020.081	770.851
66.505	13.357	1019.707	769.925
67.520	13.329	1019.421	769.509
68.534	13.405	1018.544	769.134
69.549	13.469	1017.302	768.426
70.563	13.306	1016.733	767.169
71.578	13.331	1016.124	766.758
72.593	13.331	1014.954	765.810
73.607	13.287	1014.483	765.180
74.622	13.358	1013.734	764.879
75.636	13.362	1013.400	764.576
76.651	13.394	1012.025	763.619
77.666	13.328	1011.544	762.884
78.680	13.445	1010.785	762.783
79.695	13.315	1010.641	762.008
80.709	13.332	1010.226	761.703
81.724	13.367	1009.768	761.454
82.739	13.493	1008.623	761.104
83.753	13.602	1007.653	760.802
84.768	13.753	1006.725	760.730
85.782	13.799	1006.062	760.372
86.797	13.648	1004.928	758.755
87.812	13.585	1004.231	757.874
88.826	13.730	1003.003	757.541
89.841	13.657	1002.116	756.470
90.855	13.652	1001.739	756.099
91.870	13.756	1000.524	755.588
92.884	13.748	999.759	754.904
93.899	13.755	998.757	754.114
94.914	13.903	997.951	754.113
95.928	13.827	997.114	753.067
96.943	13.798	996.368	752.307
97.957	13.744	995.539	751.372
98.972	13.773	994.324	750.518
99.987	13.726	994.084	750.057
101.001	13.796	992.962	749.458
102.016	13.690	992.217	748.352
103.030	13.678	991.606	747.772
104.045	13.745	990.532	747.199
105.060	13.743	989.733	746.518
106.074	13.653	988.608	745.201
107.089	13.577	987.699	744.109
108.103	13.566	986.771	743.293
109.118	13.479	985.717	742.044
110.133	13.565	984.612	741.530
111.147	13.625	983.702	741.051
112.162	13.584	983.024	740.288
113.176	13.528	982.428	739.527
114.191	13.594	981.817	739.295
115.206	13.574	980.935	738.478
116.220	13.682	979.864	738.087
117.235	13.684	978.720	737.165
118.249	13.733	977.790	736.619
119.264	13.631	977.489	735.873
120.279	13.471	976.675	734.485
121.293	13.485	975.904	733.902
122.308	13.530	974.671	733.112
123.322	13.434	974.134	732.216
124.337	13.503	972.483	731.216
125.352	13.479	971.656	730.424
126.366	13.497	970.934	729.896
127.381	13.467	970.060	729.044
128.395	13.503	969.004	728.342
129.410	13.663	968.062	728.273
130.424	13.752	967.340	728.055
131.439	13.637	966.246	726.663
132.454	13.577	966.164	726.277
133.468	13.555	965.428	725.562
134.483	13.674	964.005	724.948
135.497	13.663	963.056	724.122
136.512	13.688	962.347	723.636
137.527	13.651	961.713	722.932
138.541	13.816	960.702	722.828
139.556	13.693	960.096	721.772
140.570	13.722	959.807	721.617
141.585	13.828	958.674	721.160
142.600	13.846	957.911	720.600
143.614	13.910	957.468	720.484
144.629	13.832	956.437	719.306
145.643	13.823	955.569	718.549
146.658	13.752	954.373	717.281
147.673	13.759	953.302	716.440
148.687	13.765	952.417	715.738
149.702	13.742	951.644	714.994
150.716	13.765	951.053	714.589
151.731	13.713	950.562	713.933
152.746	13.791	949.552	713.446
153.760	13.812	948.963	713.029
154.775	13.816	948.551	712.673
155.789	13.884	947.631	712.211
156.804	13.922	946.766	711.661
157.819	13.936	946.456	711.423
158.833	13.893	946.297	711.061
159.848	13.983	945.084	710.469
160.862	14.008	944.379	709.981
161.877	13.962	942.924	708.630
162.892	13.804	942.153	707.314
163.906	13.803	941.321	706.622
164.921	13.931	940.166	706.240
165.935	13.917	939.667	705.742
166.950	13.861	938.979	704.924
167.964	13.978	937.748	704.436
168.979	13.960	936.943	703.690
169.994	13.989	936.067	703.094
171.008	13.897	935.563	702.262
172.023	13.990	935.149	702.284
173.037	14.055	934.151	701.746
174.052	13.920	933.679	700.760
175.067	14.030	932.618	700.364
176.081	14.069	932.112	700.089
177.096	13.834	931.738	698.757
178.110	13.878	931.040	698.354
179.125	14.033	930.607	698.619
180.140	13.928	929.892	697.581
181.154	13.936	929.612	697.341
182.169	14.124	928.899	697.533
183.183	14.211	928.221	697.327
184.198	14.063	927.747	696.290
185.213	14.034	926.955	695.515
186.227	14.258	926.161	695.792
187.242	14.219	925.360	694.967
188.256	14.287	924.899	694.840
189.271	14.254	924.312	694.203
190.286	14.230	923.099	693.128
191.300	14.025	922.585	691.831
192.315	13.905	921.939	690.786
193.329	13.895	921.793	690.572
194.344	14.056	920.832	690.462
195.359	14.129	920.308	690.308
196.373	14.382	919.375	690.596
197.388	14.329	919.234	690.209
198.402	14.468	918.776	690.380
199.417	14.587	917.695	690.000
200.432	14.411	917.587	689.130
201.446	14.350	917.555	688.791
202.461	14.534	916.650	688.810
203.475	14.586	915.620	688.190
204.490	14.401	915.099	686.975
205.504	14.380	914.502	686.379
206.519	14.432	913.684	685.920
207.534	14.414	912.788	685.111
208.548	14.596	912.033	685.232
209.563	14.432	912.052	684.514
210.577	14.505	910.723	683.753
211.592	14.665	910.077	683.866
212.607	14.622	909.527	683.215
213.621	14.729	908.691	682.963
214.636	14.647	908.042	682.081
215.650	14.604	907.545	681.473
216.665	14.754	906.357	681.131
217.680	14.651	906.259	680.579
218.694	14.715	905.347	680.092
219.709	14.639	904.908	679.394
220.723	14.777	904.003	679.215
221.738	14.772	903.567	678.807
222.753	14.639	902.885	677.695
223.767	14.918	902.188	678.241
224.782	14.828	902.117	677.764
225.796	14.801	901.163	676.877
226.811	14.797	900.505	676.307
227.826	14.672	899.940	675.317
228.840	14.784	899.225	675.174
229.855	14.818	898.151	674.445
230.869	14.776	897.615	673.813
231.884	14.765	896.950	673.212
232.899	14.798	895.922	672.513
233.913	14.724	895.485	671.828
234.928	14.699	894.918	671.243
235.942	14.742	894.386	670.955
236.957	14.771	893.746	670.532
237.972	14.832	892.793	670.005
238.986	14.818	892.823	669.911
240.001	14.793	891.708	668.916
241.015	14.655	891.357	668.039
242.030	14.834	890.961	668.401
243.045	15.028	889.907	668.324
244.059	14.919	889.242	667.331
245.074	14.839	888.920	666.713
246.088	14.929	888.021	666.336
247.103	14.993	887.655	666.257
248.117	14.930	887.172	665.585
249.132	15.106	886.481	665.710
250.147	15.236	885.829	665.676
251.161	15.217	885.125	665.015
252.176	15.263	884.703	664.820
253.190	15.305	883.882	664.310
254.205	15.344	883.243	663.924
255.220	15.257	882.348	662.851
256.234	15.139	882.474	662.420
257.249	15.421	880.932	662.318
258.263	15.404	880.571	661.919
259.278	15.426	879.767	661.345
260.293	15.449	879.317	661.036
261.307	15.443	878.802	660.569
262.322	15.491	878.181	660.230
263.336	15.496	877.417	659.619
264.351	15.606	876.683	659.438
265.366	15.568	875.732	658.518
266.380	15.576	875.373	658.221
267.395	15.492	875.035	657.580
268.409	15.542	874.017	656.953
269.424	15.484	873.315	656.141
270.439	15.565	872.601	655.862
271.453	15.487	872.039	655.076
272.468	15.339	871.963	654.385
273.482	15.584	870.668	654.308
274.497	15.657	870.084	654.095
275.512	15.462	870.128	653.310
276.526	15.684	869.271	653.475
277.541	15.815	868.551	653.383
278.555	15.630	868.420	652.507
279.570	15.735	867.529	652.189
280.585	15.792	866.666	651.703
281.599	15.635	865.830	650.407
282.614	15.675	865.186	650.023
283.628	15.697	864.839	649.789
284.643	15.736	864.184	649.390
285.657	15.783	863.408	648.930
286.672	15.631	863.349	648.241
287.687	15.888	862.491	648.531
288.701	15.708	861.775	647.244
289.716	15.744	861.386	647.031
290.730	15.686	860.976	646.443
291.745	15.826	860.030	646.215
292.760	15.917	859.447	646.066
293.774	15.894	858.701	645.362
294.789	15.806	858.589	644.885
295.803	15.843	857.515	644.160
296.818	15.802	856.940	643.514
297.833	15.929	856.362	643.509
298.847	16.052	855.347	643.159
299.862	15.894	855.233	642.416
300.876	16.023	854.577	642.357
301.891	15.969	853.710	641.444
302.906	16.060	853.673	641.703
303.920	16.167	852.910	641.479
304.935	16.129	852.199	640.743
305.949	16.082	851.928	640.305
306.964	16.069	851.272	639.708
307.979	16.093	850.948	639.496
308.993	16.151	850.167	639.073
310.008	16.159	849.636	638.649
311.022	16.253	849.260	638.663
312.037	16.229	848.508	637.951
313.052	16.145	847.916	637.132
314.066	16.005	847.415	636.172
315.081	16.003	846.727	635.592
316.095	16.055	846.439	635.516
317.110	16.072	845.697	634.965
318.125	16.136	845.024	634.645
319.139	16.048	844.843	634.121
320.154	16.162	843.911	633.793
321.168	16.248	843.297	633.601
322.183	16.298	842.920	633.449
323.197	16.090	842.750	632.485
324.212	16.251	841.885	632.383
325.227	16.283	841.157	631.901
326.241	16.250	840.519	631.243
327.256	16.322	840.205	631.220
328.270	16.367	839.567	630.853
329.285	16.245	838.927	629.860
330.300	16.158	838.465	629.134
331.314	16.220	837.912	628.894
332.329	16.409	837.607	629.313
333.343	16.429	837.227	629.047
334.358	16.422	836.658	628.534
335.373	16.351	836.500	628.097
336.387	16.419	836.227	628.090
337.402	16.416	836.185	627.992
338.416	16.489	835.558	627.738
339.431	16.570	835.203	627.714
340.446	16.629	834.732	627.523
341.460	16.634	834.387	627.229
342.475	16.607	834.029	626.802
343.489	16.656	833.477	626.515
344.504	16.825	832.788	626.566
345.519	16.746	832.401	625.926
346.533	16.835	831.745	625.706
347.548	16.692	831.347	624.824
348.562	16.641	830.738	624.124
349.577	16.604	830.358	623.648
350.592	16.567	829.388	622.727
351.606	16.570	828.775	622.221
352.621	16.697	827.913	621.987
353.635	16.765	827.218	621.661
354.650	16.704	826.942	621.172
355.665	16.803	826.119	620.863
356.679	16.841	825.724	620.651
357.694	16.772	825.386	620.089
358.708	16.688	824.765	619.260
359.723	16.795	824.226	619.191
360.738	16.901	823.054	618.644
361.752	16.843	822.976	618.318
362.767	16.979	822.099	618.101
363.781	16.975	821.669	617.705
364.796	17.074	821.433	617.835
365.810	16.998	821.012	617.188
366.825	17.075	820.753	617.218
367.840	17.035	820.355	616.719
368.854	17.012	819.930	616.263
369.869	17.046	818.767	615.455
370.883	17.038	818.556	615.213
371.898	17.071	818.734	615.412
372.913	16.999	818.261	614.743
373.927	17.183	817.395	614.704
374.942	17.045	817.428	614.174
375.956	17.170	817.140	614.357
376.971	17.225	816.431	613.968
377.986	17.290	815.915	613.760
379.000	17.239	815.648	613.319
380.015	17.404	814.959	613.344
381.029	17.418	813.742	612.423
382.044	17.404	813.589	612.203
383.059	17.500	812.876	611.958
384.073	17.468	812.130	611.229
385.088	17.301	812.096	610.546
386.102	17.180	811.481	609.596
387.117	17.223	810.670	609.087
388.132	17.332	810.042	608.952
389.146	17.371	809.421	608.573
390.161	17.299	809.381	608.229
391.175	17.494	808.700	608.362
392.190	17.285	808.057	607.076
393.205	17.278	808.043	606.987
394.219	17.411	807.630	607.099
395.234	17.274	807.408	606.390
396.248	17.206	806.527	605.433
397.263	17.460	805.541	605.541
398.278	17.277	805.510	604.815
399.292	17.391	805.106	604.861
400.307	17.243	805.129	604.299
401.321	17.363	804.288	604.043
402.336	17.573	803.435	604.092
403.350	17.272	803.562	603.067
404.365	17.476	803.355	603.580
405.380	17.619	802.474	603.373
406.394	17.589	802.223	603.024
407.409	17.650	801.863	602.915
408.423	17.560	801.478	602.254
409.438	17.743	801.188	602.631
410.453	17.734	800.255	601.844
411.467	17.900	799.914	602.121
412.482	17.845	799.590	601.630
413.496	17.820	799.210	601.200
414.511	17.730	799.120	600.761
415.526	17.832	798.544	600.636
416.540	17.691	798.077	599.735
417.555	17.877	797.688	600.044
418.569	17.790	797.252	599.355
419.584	17.783	796.763	598.910
420.599	17.864	796.297	598.793
421.613	111.840	1295.145	1476.540
422.628	96.238	1367.816	1476.634
