DTS Sentinel unit serial number:	SN413079Multiplexer serial number:	ORYXHardware model number:	OX4-SRSoftware version number:	ORYX F/W v4.00 Oryx Data Collector v3.7.2.0data status	okinstallation	princeton_trtdifferential loss correction	single-endedforward channel	channel 1reverse channel	N/Adate	2019/09/13time	17:50:35forward acquisition time	60.00reverse acquisition time	0.00gamma	496.2192k internal	0.2304k external	0.2304temperature offset calibration	1.0155default loss term (dB/km)	0.3790temperature slope calibration	1.0000multiplexer offset coefficient	1.0000multiplexer slope coefficient	1.0000fibre end	0.00T internal ref (°C)	35.48T ext. ref 1 (°C)	5.04T ext. ref 2 (°C)	28.74length (m)	temperature (°C)	Stokes	anti-Stokes-747.200	-181.795	0.201	0.004
-746.185	800.000	0.085	-0.373
-745.171	-59.264	-0.052	-0.023
-744.156	371.134	-0.112	-0.231
-743.142	154.785	-0.087	0.122
-742.127	-21.683	0.098	0.061
-741.112	10.671	-0.439	-0.341
-740.098	800.000	0.110	0.438
-739.083	-200.000	-0.010	0.329
-738.069	480.368	0.075	-0.172
-737.054	-96.099	-0.277	0.075
-736.039	-50.300	-0.366	0.176
-735.025	-62.128	0.211	0.090
-734.010	800.000	-0.117	-0.385
-732.996	10.675	0.162	-0.126
-731.981	-101.602	-0.249	-0.061
-730.966	800.000	0.048	0.177
-729.952	800.000	0.078	-0.231
-728.937	-181.989	-0.458	0.009
-727.923	-98.813	-0.152	-0.039
-726.908	-28.741	-0.073	-0.043
-725.894	800.000	-0.056	-0.178
-724.879	65.039	-0.105	-0.108
-723.864	-165.493	-0.268	-0.012
-722.850	-200.000	-0.050	-0.513
-721.835	800.000	0.083	-0.273
-720.821	-200.000	0.063	-0.484
-719.806	800.000	0.087	-0.355
-718.791	256.497	-0.033	0.058
-717.777	800.000	0.048	-0.200
-716.762	-200.000	-0.367	-0.001
-715.748	343.288	-0.152	0.303
-714.733	23.867	-0.068	0.057
-713.718	-169.034	-0.274	-0.010
-712.704	-96.840	-0.141	0.038
-711.689	-3.968	-0.246	0.173
-710.675	30.587	-0.193	-0.168
-709.660	-53.883	-0.254	0.118
-708.645	559.050	-0.057	0.139
-707.631	299.327	-0.137	0.257
-706.616	-110.925	-0.166	-0.035
-705.602	131.435	0.296	-0.387
-704.587	-129.677	0.024	-0.003
-703.572	62.236	0.103	-0.104
-702.558	-86.770	-0.275	-0.085
-701.543	-65.970	-0.159	-0.064
-700.529	-200.000	-0.041	0.248
-699.514	-152.694	0.244	-0.018
-698.499	-52.154	0.297	-0.140
-697.485	-68.761	0.200	0.079
-696.470	-200.000	-0.039	0.221
-695.456	24.817	-0.094	-0.079
-694.441	87.482	0.122	-0.137
-693.426	199.152	0.108	0.168
-692.412	-15.789	-0.197	0.128
-691.397	-146.157	0.038	-0.003
-690.383	-40.393	-0.133	-0.070
-689.368	-83.144	-0.280	0.092
-688.354	-126.144	0.251	0.038
-687.339	800.000	0.063	-0.210
-686.324	431.023	0.051	-0.112
-685.310	269.848	0.164	-0.292
-684.295	-56.445	0.053	-0.024
-683.281	-200.000	-0.032	0.229
-682.266	800.000	-0.031	0.138
-681.251	14.650	0.079	-0.063
-680.237	800.000	-0.062	-0.199
-679.222	-109.631	-0.064	0.014
-678.208	40.214	-0.141	0.129
-677.193	185.141	-0.187	-0.282
-676.178	730.632	0.045	-0.122
-675.164	-2.162	-0.116	-0.083
-674.149	-200.000	0.012	0.360
-673.135	800.000	0.045	0.133
-672.120	-121.909	0.205	0.034
-671.105	800.000	0.008	0.022
-670.091	-200.000	0.013	0.217
-669.076	-111.863	0.243	-0.050
-668.062	-83.259	-0.222	0.072
-667.047	128.214	0.061	-0.079
-666.032	-158.078	0.119	-0.007
-665.018	457.853	-0.035	-0.080
-664.003	120.752	-0.043	0.055
-662.989	57.732	-0.039	0.038
-661.974	362.677	0.033	0.068
-660.959	-148.306	0.183	-0.015
-659.945	-200.000	0.011	0.156
-658.930	22.289	-0.243	-0.202
-657.916	-73.273	0.043	0.016
-656.901	-66.594	0.136	-0.055
-655.886	617.478	0.033	0.085
-654.872	545.533	0.062	0.149
-653.857	-200.000	-0.063	-0.386
-652.843	-112.713	0.034	-0.007
-651.828	-200.000	-0.017	0.380
-650.814	-200.000	0.039	-0.256
-649.799	-200.000	0.027	-0.206
-648.784	-159.553	-0.206	0.012
-647.770	-30.114	-0.406	-0.234
-646.755	800.000	0.078	0.277
-645.741	-175.472	-0.336	0.009
-644.726	-177.398	-0.095	-0.002
-643.711	-200.000	0.010	0.225
-642.697	119.706	-0.260	-0.327
-641.682	395.856	-0.071	-0.150
-640.668	-22.324	0.265	-0.163
-639.653	-115.883	-0.537	0.102
-638.638	-171.767	-0.197	0.007
-637.624	41.179	-0.159	-0.145
-636.609	800.000	-0.057	-0.168
-635.595	-200.000	0.021	0.476
-634.580	-200.000	0.006	-0.069
-633.565	-183.117	-0.186	0.003
-632.551	-200.000	0.057	0.260
-631.536	794.072	0.056	-0.157
-630.522	-84.581	-0.397	0.127
-629.507	-89.691	0.199	0.059
-628.492	-127.820	0.289	-0.042
-627.478	74.621	-0.120	0.128
-626.463	-200.000	-0.046	0.249
-625.449	59.836	-0.161	-0.161
-624.434	-105.395	-0.202	-0.047
-623.419	342.593	0.049	0.098
-622.405	-200.000	0.027	0.212
-621.390	218.550	0.123	-0.199
-620.376	113.204	-0.291	0.357
-619.361	800.000	0.061	0.189
-618.346	106.027	-0.165	0.198
-617.332	-127.430	-0.207	-0.031
-616.317	800.000	0.041	0.169
-615.303	-200.000	-0.087	0.455
-614.288	360.741	-0.021	-0.043
-613.273	800.000	-0.064	0.211
-612.259	64.674	0.172	-0.175
-611.244	39.926	0.245	-0.223
-610.230	-200.000	-0.067	-0.348
-609.215	-83.707	0.309	0.100
-608.201	-122.364	0.230	0.038
-607.186	-200.000	0.000	-0.019
-606.171	99.771	0.178	0.209
-605.157	-155.133	0.055	-0.004
-604.142	-200.000	-0.026	0.213
-603.128	741.798	0.045	-0.124
-602.113	-200.000	-0.024	-0.371
-601.098	-143.290	0.132	-0.013
-600.084	-10.519	0.344	-0.231
-599.069	-200.000	-0.022	0.207
-598.055	70.031	-0.190	0.198
-597.040	-200.000	0.011	0.133
-596.025	283.296	0.045	-0.082
-595.011	-16.343	0.277	-0.178
-593.996	-200.000	-0.019	0.312
-592.982	-20.855	0.233	0.145
-591.967	128.871	-0.276	-0.356
-590.952	190.409	0.109	0.166
-589.938	-64.133	0.130	0.053
-588.923	800.000	0.028	0.081
-587.909	-200.000	-0.068	-0.305
-586.894	74.257	-0.181	-0.193
-585.879	-200.000	-0.040	-0.210
-584.865	-118.976	-0.206	-0.037
-583.850	80.815	0.138	-0.151
-582.836	-200.000	-0.042	-0.295
-581.821	277.820	0.040	-0.073
-580.806	77.907	0.190	0.205
-579.792	-151.889	-0.154	-0.011
-578.777	-200.000	-0.007	-0.197
-577.763	688.737	0.025	-0.066
-576.748	245.295	0.134	0.229
-575.733	-128.429	-0.581	0.083
-574.719	-200.000	0.002	-0.085
-573.704	-200.000	-0.018	-0.239
-572.690	119.603	-0.146	-0.183
-571.675	-200.000	-0.010	-0.109
-570.661	234.991	-0.138	-0.231
-569.646	7.442	0.088	0.067
-568.631	-200.000	-0.023	-0.270
-567.617	-83.722	-0.014	-0.004
-566.602	58.137	-0.197	-0.195
-565.588	-200.000	-0.035	-0.288
-564.573	800.000	0.071	0.226
-563.558	-73.040	0.245	-0.091
-562.544	-87.326	-0.297	-0.091
-561.529	-185.612	-0.359	-0.005
-560.515	256.004	-0.005	0.009
-559.500	-200.000	0.035	-0.218
-558.485	-200.000	0.005	0.163
-557.471	153.953	0.082	0.114
-556.456	-97.887	0.369	-0.096
-555.442	109.871	-0.215	0.261
-554.427	-16.648	-0.281	-0.180
-553.412	-23.883	-0.173	-0.105
-552.398	74.026	-0.115	-0.122
-551.383	-47.628	0.256	0.126
-550.369	-105.364	0.080	0.018
-549.354	130.836	0.128	-0.166
-548.339	-200.000	-0.021	0.147
-547.325	-140.149	0.231	0.025
-546.310	235.364	0.113	-0.188
-545.296	-133.659	-0.246	0.031
-544.281	-151.168	0.236	0.018
-543.266	-13.611	-0.280	0.183
-542.252	-29.686	-0.199	0.115
-541.237	-167.521	0.221	-0.009
-540.223	-200.000	-0.011	-0.150
-539.208	82.413	0.235	0.257
-538.193	-10.316	-0.241	-0.162
-537.179	92.188	0.183	0.209
-536.164	247.721	0.047	0.081
-535.150	-35.918	0.210	0.115
-534.135	-142.372	0.010	-0.001
-533.121	-65.347	0.395	-0.160
-532.106	487.566	-0.012	-0.029
-531.091	-200.000	0.050	0.333
-530.077	113.707	-0.197	-0.242
-529.062	-49.528	-0.089	0.043
-528.048	-25.244	0.150	0.090
-527.033	76.633	-0.040	0.043
-526.018	480.377	0.035	0.079
-525.004	-176.701	0.467	0.012
-523.989	-200.000	-0.012	0.070
-522.975	-27.159	-0.172	-0.101
-521.960	191.171	0.086	0.131
-520.945	117.003	0.108	0.134
-519.931	18.236	-0.135	-0.109
-518.916	-200.000	-0.003	-0.032
-517.902	58.877	-0.141	0.140
-516.887	45.484	0.130	-0.122
-515.872	-200.000	-0.025	-0.159
-514.858	-119.487	-0.383	0.067
-513.843	-0.552	0.095	-0.068
-512.829	-66.764	0.179	-0.072
-511.814	-200.000	-0.071	-0.384
-510.799	-200.000	-0.004	-0.228
-509.785	96.152	-0.168	-0.194
-508.770	35.104	0.302	0.266
-507.756	245.532	0.250	-0.424
-506.741	127.860	-0.141	-0.180
-505.726	-11.444	-0.239	0.158
-504.712	-200.000	0.283	-0.001
-503.697	75.344	0.122	-0.130
-502.683	-88.889	0.257	-0.077
-501.668	-119.322	-0.339	-0.060
-500.653	23.823	0.056	0.047
-499.639	-200.000	-0.001	-0.304
-498.624	-13.142	-0.204	-0.134
-497.610	494.212	-0.081	-0.188
-496.595	-44.914	0.030	0.015
-495.581	120.093	0.221	0.276
-494.566	-98.236	0.221	-0.057
-493.551	-150.004	-0.164	-0.013
-492.537	-65.081	0.199	-0.081
-491.522	-200.000	-0.005	-0.238
-490.508	-181.468	-0.317	0.006
-489.493	-200.000	-0.026	0.192
-488.478	-19.298	-0.065	0.040
-487.464	-200.000	-0.001	-0.065
-486.449	-141.327	-0.331	0.034
-485.435	712.812	0.038	0.102
-484.420	-141.403	-0.173	0.018
-483.405	-78.346	-0.191	-0.066
-482.391	-23.215	-0.374	-0.227
-481.376	-200.000	0.002	0.219
-480.362	-123.938	-0.131	-0.021
-479.347	154.887	0.292	-0.404
-478.332	800.000	0.124	-0.425
-477.318	198.985	0.167	-0.257
-476.303	-43.036	-0.449	-0.229
-475.289	800.000	0.048	-0.141
-474.274	-200.000	-0.020	0.240
-473.259	-117.903	-0.326	-0.059
-472.245	86.667	-0.128	-0.142
-471.230	167.993	0.103	-0.148
-470.216	-116.401	0.290	-0.054
-469.201	-87.651	-0.226	0.069
-468.186	64.290	0.073	-0.074
-467.172	-119.049	-0.243	0.043
-466.157	-12.812	0.219	0.144
-465.143	-200.000	0.089	0.532
-464.128	800.000	0.021	-0.092
-463.113	-178.992	-0.095	-0.002
-462.099	-70.763	0.313	-0.119
-461.084	-73.354	-0.244	-0.090
-460.070	-123.707	-0.051	-0.008
-459.055	-59.184	0.227	-0.098
-458.040	-93.364	-0.159	-0.044
-457.026	251.260	-0.214	0.366
-456.011	800.000	-0.023	0.065
-454.997	-55.935	0.168	0.076
-453.982	162.151	-0.029	0.041
-452.968	-53.952	0.211	0.097
-451.953	800.000	0.112	-0.408
-450.938	4.249	-0.050	0.037
-449.924	115.612	-0.200	0.246
-448.909	-200.000	0.003	-0.041
-447.895	520.033	-0.086	0.203
-446.880	800.000	0.082	-0.284
-445.865	506.626	-0.180	-0.420
-444.851	-119.022	-0.260	0.046
-443.836	-96.647	-0.289	0.077
-442.822	-102.618	-0.194	0.047
-441.807	-45.485	-0.201	0.100
-440.792	-168.876	0.210	-0.008
-439.778	112.432	0.237	0.288
-438.763	4.033	0.223	0.164
-437.749	-81.732	-0.158	-0.052
-436.734	-137.931	-0.466	-0.052
-435.719	-38.500	0.161	0.086
-434.705	-54.840	0.215	0.098
-433.690	-80.296	-0.505	0.170
-432.676	800.000	0.094	-0.296
-431.661	12.930	0.315	0.245
-430.646	-93.835	0.307	-0.085
-429.632	-9.853	-0.078	-0.052
-428.617	800.000	0.078	-0.218
-427.603	99.315	-0.190	0.221
-426.588	275.680	0.040	0.072
-425.573	-130.972	-0.070	0.009
-424.559	-58.295	0.205	0.089
-423.544	800.000	-0.057	-0.165
-422.530	-30.426	-0.188	0.107
-421.515	800.000	-0.065	0.197
-420.500	800.000	0.097	-0.337
-419.486	-31.930	0.285	0.161
-418.471	-199.639	0.247	-0.001
-417.457	-116.834	0.115	0.021
-416.442	-184.373	-0.294	-0.005
-415.428	-88.103	-0.031	-0.009
-414.413	308.852	-0.067	-0.126
-413.398	-86.688	-0.171	0.053
-412.384	-105.109	-0.122	0.028
-411.369	-71.078	0.150	0.057
-410.355	-135.710	-0.251	-0.030
-409.340	-146.777	0.197	-0.017
-408.325	-198.307	0.318	0.002
-407.311	-200.000	-0.040	-0.486
-406.296	-74.515	0.256	0.093
-405.282	492.154	-0.106	0.245
-404.267	-200.000	0.085	0.379
-403.252	-38.709	-0.276	0.146
-402.238	698.994	0.051	-0.134
-401.223	-61.550	-0.255	0.107
-400.209	94.886	0.205	-0.235
-399.194	-75.460	-0.283	0.101
-398.179	18.600	-0.160	-0.128
-397.165	800.000	-0.070	0.271
-396.150	-200.000	0.003	0.068
-395.136	-9.880	-0.099	0.066
-394.121	-26.308	0.166	-0.098
-393.106	-118.061	0.262	-0.047
-392.092	-200.000	0.052	-0.284
-391.077	-52.120	0.131	0.061
-390.063	-154.730	0.101	0.007
-389.048	-61.642	-0.178	0.075
-388.033	392.111	-0.023	0.048
-387.019	-97.971	-0.184	0.048
-386.004	-200.000	0.015	-0.109
-384.990	-52.810	0.127	-0.059
-383.975	97.179	0.389	0.448
-382.960	9.110	-0.077	-0.059
-381.946	-69.538	-0.372	-0.143
-380.931	-119.794	-0.145	-0.025
-379.917	-30.381	-0.182	0.104
-378.902	97.256	-0.090	-0.104
-377.888	-28.839	0.112	-0.065
-376.873	800.000	0.058	0.225
-375.858	191.982	0.143	-0.217
-374.844	-186.611	-0.240	-0.003
-373.829	110.407	0.129	0.155
-372.815	-144.257	0.141	-0.013
-371.800	464.607	-0.077	-0.173
-370.785	-174.986	0.281	-0.008
-369.771	122.653	0.224	-0.281
-368.756	-117.109	0.232	-0.042
-367.742	800.000	-0.089	0.262
-366.727	-161.244	-0.131	-0.007
-365.712	-37.341	0.155	0.083
-364.698	800.000	-0.080	0.274
-363.683	240.487	-0.069	0.115
-362.669	61.455	0.119	0.119
-361.654	-74.057	0.257	-0.094
-360.639	65.794	-0.244	-0.248
-359.625	-200.000	-0.011	0.078
-358.610	-40.767	-0.142	0.074
-357.596	-52.328	-0.261	0.121
-356.581	-200.000	0.012	0.128
-355.566	162.272	0.152	0.214
-354.552	521.639	-0.071	0.166
-353.537	-200.000	0.016	0.313
-352.523	-200.000	0.057	-0.288
-351.508	-102.359	0.553	-0.133
-350.493	-200.000	0.011	0.158
-349.479	-137.425	0.194	0.022
-348.464	800.000	0.070	0.268
-347.450	-162.155	0.283	-0.014
-346.435	800.000	-0.041	-0.128
-345.420	119.305	-0.197	0.244
-344.406	-150.784	0.127	0.010
-343.391	-71.025	0.157	0.059
-342.377	-68.617	0.183	0.071
-341.362	800.000	-0.037	-0.116
-340.348	485.333	0.062	-0.141
-339.333	167.396	-0.068	-0.097
-338.318	-112.155	-0.288	0.058
-337.304	800.000	0.031	0.138
-336.289	626.774	0.093	-0.234
-335.275	668.530	-0.053	-0.136
-334.260	-200.000	-0.009	-0.092
-333.245	800.000	-0.050	-0.197
-332.231	90.575	-0.068	-0.077
-331.216	123.103	-0.190	-0.238
-330.202	-147.259	-0.295	-0.025
-329.187	-33.312	-0.060	0.033
-328.172	-200.000	0.064	0.399
-327.158	92.991	0.098	-0.110
-326.143	-48.694	-0.086	-0.041
-325.129	52.568	0.152	-0.145
-324.114	35.224	-0.238	-0.209
-323.099	-74.911	-0.353	0.127
-322.085	-146.332	-0.100	0.009
-321.070	-200.000	-0.018	0.220
-320.056	-200.000	0.021	0.118
-319.041	550.658	0.066	-0.158
-318.026	100.629	-0.103	-0.120
-317.012	337.496	0.135	0.263
-315.997	-200.000	0.033	0.203
-314.983	-200.000	-0.011	-0.090
-313.968	-20.476	-0.163	0.101
-312.953	-52.736	0.353	-0.163
-311.939	345.587	-0.026	0.052
-310.924	197.867	-0.045	0.069
-309.910	-155.301	0.256	-0.017
-308.895	45.661	0.276	0.255
-307.880	439.161	0.097	-0.212
-306.866	-11.030	-0.229	0.151
-305.851	13.829	0.238	0.185
-304.837	-109.837	-0.451	0.095
-303.822	24.899	0.150	-0.124
-302.807	301.100	-0.095	0.176
-301.793	-200.000	-0.041	-0.195
-300.778	-200.000	0.021	0.192
-299.764	181.805	0.171	-0.252
-298.749	-12.308	-0.092	-0.060
-297.735	-200.000	0.010	-0.087
-296.720	-200.000	-0.021	0.120
-295.705	18.548	-0.176	-0.141
-294.691	7.263	-0.129	-0.096
-293.676	462.710	-0.041	-0.091
-292.662	79.446	-0.301	-0.323
-291.647	800.000	0.106	-0.334
-290.632	-200.000	0.031	-0.266
-289.618	800.000	-0.071	-0.251
-288.603	-28.136	0.342	0.197
-287.589	-118.263	0.283	0.050
-286.574	-87.782	-0.161	-0.049
-285.559	211.958	-0.158	0.249
-284.545	-86.651	-0.219	0.067
-283.530	-98.556	0.245	-0.063
-282.516	-5.173	-0.101	-0.069
-281.501	129.793	-0.151	0.193
-280.486	-27.952	-0.090	0.052
-279.472	193.262	0.081	-0.122
-278.457	-58.147	0.113	0.049
-277.443	444.836	0.129	-0.283
-276.428	-55.324	-0.063	0.028
-275.413	78.127	0.201	0.214
-274.399	45.923	0.293	0.271
-273.384	91.982	-0.489	0.550
-272.370	-81.442	0.031	0.010
-271.355	-113.639	0.135	0.026
-270.340	-159.993	0.364	-0.020
-269.326	-160.945	0.150	-0.008
-268.311	-51.465	-0.489	0.229
-267.297	-61.268	-0.200	-0.084
-266.282	800.000	-0.070	0.228
-265.267	-94.319	0.166	-0.045
-264.253	-33.741	0.291	0.160
-263.238	-200.000	-0.016	-0.074
-262.224	800.000	0.037	0.103
-261.209	158.141	0.312	0.433
-260.195	94.721	-0.112	-0.127
-259.180	-200.000	0.039	0.184
-258.165	800.000	0.119	0.425
-257.151	86.466	0.063	-0.069
-256.136	139.139	-0.219	0.288
-255.122	800.000	-0.034	0.132
-254.107	67.511	-0.079	-0.081
-253.092	-200.000	-0.007	-0.403
-252.078	-200.000	0.019	0.248
-251.063	51.981	-0.048	0.046
-250.049	133.593	0.111	-0.144
-249.034	101.976	0.142	-0.165
-248.019	-35.385	0.210	-0.114
-247.005	22.746	0.061	-0.050
-245.990	226.092	0.145	-0.235
-244.976	-200.000	0.036	0.160
-243.961	433.478	-0.140	0.303
-242.946	-89.822	-0.256	-0.075
-241.932	-122.263	-0.187	0.031
-240.917	-200.000	0.006	-0.058
-239.903	334.821	-0.086	-0.167
-238.888	-141.481	-0.140	-0.014
-237.873	-160.688	0.228	-0.012
-236.859	-41.886	-0.166	-0.085
-235.844	373.490	0.175	-0.356
-234.830	-200.000	-0.003	0.107
-233.815	-122.765	-0.490	-0.079
-232.800	12.058	-0.135	0.104
-231.786	563.575	0.116	0.281
-230.771	-200.000	0.015	-0.096
-229.757	478.289	-0.120	0.270
-228.742	-62.301	0.142	0.059
-227.727	-11.392	-0.202	0.133
-226.713	111.375	0.166	-0.200
-225.698	-148.310	-0.200	0.016
-224.684	800.000	0.047	0.200
-223.669	-4.493	0.086	0.059
-222.655	-66.182	0.154	0.061
-221.640	-200.000	0.028	-0.251
-220.625	800.000	-0.048	-0.159
-219.611	-200.000	0.005	-0.076
-218.596	776.662	-0.087	-0.236
-217.582	800.000	0.056	0.180
-216.567	415.610	-0.157	0.333
-215.552	-165.894	-0.203	0.009
-214.538	9.153	0.128	0.097
-213.523	800.000	0.060	-0.186
-212.509	-199.163	0.334	0.002
-211.494	-147.503	0.158	-0.013
-210.479	166.199	0.179	0.253
-209.465	-200.000	-0.015	0.189
-208.450	-151.653	0.244	-0.018
-207.436	-90.531	0.232	0.067
-206.421	-63.888	0.228	0.093
-205.406	-12.537	0.141	0.092
-204.392	-200.000	-0.079	0.389
-203.377	-50.983	0.095	-0.044
-202.363	-22.327	0.074	0.044
-201.348	-21.235	-0.175	0.107
-200.333	-158.527	0.338	-0.019
-199.319	-169.908	-0.086	-0.003
-198.304	-200.000	-0.034	-0.286
-197.290	-200.000	-0.010	-0.111
-196.275	-6.004	-0.235	-0.160
-195.260	-11.655	-0.272	-0.178
-194.246	-59.747	-0.360	-0.154
-193.231	407.934	0.074	-0.157
-192.217	-20.695	0.072	0.044
-191.202	-87.705	0.326	0.098
-190.187	-200.000	0.041	-0.538
-189.173	22.814	0.254	0.207
-188.158	800.000	0.008	-0.027
-187.144	181.989	-0.050	0.073
-186.129	368.567	0.040	-0.081
-185.114	-49.249	0.329	0.156
-184.100	-14.879	0.295	-0.189
-183.085	-136.621	-0.158	-0.018
-182.071	-150.997	0.263	0.020
-181.056	7.516	-0.038	0.028
-180.042	62.057	0.065	-0.064
-179.027	394.086	0.151	-0.314
-178.012	-24.247	-0.170	0.101
-176.998	41.551	0.348	-0.314
-175.983	-1.973	0.095	0.067
-174.969	-200.000	0.027	-0.162
-173.954	496.045	-0.079	-0.182
-172.939	-50.688	-0.335	-0.157
-171.925	148.420	-0.060	0.080
-170.910	0.129	-0.210	-0.149
-169.896	-15.708	0.126	-0.080
-168.881	-157.105	0.138	0.008
-167.866	800.000	-0.029	-0.087
-166.852	-43.197	-0.090	0.045
-165.837	800.000	0.073	0.314
-164.823	-133.510	0.361	-0.045
-163.808	508.095	-0.086	0.199
-162.793	-139.635	-0.163	0.017
-161.779	-200.000	-0.026	0.137
-160.764	-56.657	0.325	0.143
-159.750	149.136	0.048	-0.065
-158.735	-22.844	-0.187	0.112
-157.720	256.949	0.147	0.251
-156.706	407.335	-0.099	0.208
-155.691	800.000	-0.051	-0.190
-154.677	-200.000	0.037	0.289
-153.662	-200.000	-0.025	0.109
-152.647	800.000	-0.082	0.348
-151.633	-15.215	0.333	-0.212
-150.618	-165.457	-0.162	0.007
-149.604	132.762	-0.151	0.194
-148.589	-200.000	-0.019	-0.343
-147.574	-200.000	0.036	0.338
-146.560	13.310	-0.336	0.259
-145.545	-158.558	-0.306	-0.018
-144.531	-70.701	0.313	0.118
-143.516	-200.000	-0.033	-0.170
-142.502	800.000	-0.172	0.656
-141.487	-137.343	-0.282	-0.032
-140.472	-35.042	-0.076	-0.041
-139.458	-100.500	-0.231	0.057
-138.443	800.000	-0.055	0.179
-137.429	-1.598	0.167	-0.117
-136.414	800.000	0.031	0.113
-135.399	-56.881	-0.131	-0.057
-134.385	-138.705	0.232	0.025
-133.370	4.046	-0.126	0.092
-132.356	11.373	-0.110	0.084
-131.341	-200.000	0.022	0.168
-130.326	-126.372	-0.168	0.025
-129.312	-64.713	0.031	0.013
-128.297	166.975	-0.112	-0.158
-127.283	-28.932	-0.103	-0.059
-126.268	800.000	-0.032	-0.118
-125.253	-168.088	0.138	-0.005
-124.239	128.278	0.174	0.220
-123.224	-17.966	0.130	0.081
-122.210	800.000	0.165	0.590
-121.195	-133.306	-0.153	0.019
-120.180	9.236	0.152	-0.114
-119.166	800.000	0.066	0.208
-118.151	-169.018	-0.038	-0.001
-117.137	72.272	0.243	-0.251
-116.122	30.388	-0.147	-0.125
-115.107	208.737	0.075	-0.117
-114.093	134.090	0.201	-0.258
-113.078	-28.497	-0.115	0.066
-112.064	4.047	-0.272	0.198
-111.049	800.000	0.046	0.130
-110.034	-90.109	0.227	-0.066
-109.020	26.114	-0.116	0.096
-108.005	0.808	0.171	-0.122
-106.991	61.236	-0.187	0.185
-105.976	-140.467	-0.343	-0.035
-104.962	108.008	0.154	-0.182
-103.947	48.112	0.065	-0.061
-102.932	237.763	-0.040	-0.066
-101.918	-200.000	0.010	0.241
-100.903	45.515	0.180	-0.165
-99.889	-10.144	0.204	-0.134
-98.874	-200.000	-0.008	-0.280
-97.859	-96.141	0.332	0.088
-96.845	-99.498	-0.353	0.088
-95.830	-38.221	-0.424	-0.223
-94.816	3.481	-0.164	0.119
-93.801	-137.571	0.205	0.023
-92.786	-200.000	-0.027	-0.235
-91.772	599.454	-0.063	-0.155
-90.757	18.377	-0.356	0.282
-89.743	207.176	0.041	-0.063
-88.728	-64.629	0.164	0.066
-87.713	224.588	0.040	-0.064
-86.699	-21.309	0.111	-0.067
-85.684	-200.000	-0.025	0.167
-84.670	-126.242	0.332	0.049
-83.655	800.000	-0.032	-0.107
-82.640	-123.800	-0.400	-0.063
-81.626	-113.929	-0.385	0.074
-80.611	166.655	0.030	0.043
-79.597	771.214	0.082	0.221
-78.582	-200.000	0.029	0.200
-77.567	-79.264	0.178	0.060
-76.553	150.755	0.077	0.104
-75.538	-166.447	-0.399	0.017
-74.524	366.194	0.059	0.119
-73.509	-153.535	-0.222	0.015
-72.494	-159.710	-0.149	0.008
-71.480	-67.874	0.305	-0.118
-70.465	416.582	0.150	0.317
-69.451	25.384	-0.098	-0.080
-68.436	138.322	0.122	0.159
-67.422	-74.779	0.090	0.032
-66.407	209.256	0.208	-0.324
-65.392	-21.127	-0.282	0.171
-64.378	480.562	-0.048	-0.109
-63.363	800.000	0.089	0.323
-62.349	348.639	0.057	0.112
-61.334	83.926	-0.773	-0.836
-60.319	-200.000	0.026	0.291
-59.305	-200.000	-0.139	-0.741
-58.290	290.870	0.548	0.987
-57.276	800.000	0.571	1.609
-56.261	-200.000	96.243	573.711
-55.246	646.782	1382.928	3501.541
-54.232	186.988	2597.568	3836.391
-53.217	123.497	2181.988	2711.580
-52.203	47.380	1635.362	1509.883
-51.188	39.011	1370.391	1213.757
-50.173	35.612	1328.109	1155.856
-49.159	57.174	1376.475	1330.399
-48.144	61.650	1394.526	1375.134
-47.130	39.426	1348.347	1196.562
-46.115	35.523	1331.225	1157.847
-45.100	35.298	1326.679	1152.497
-44.086	35.313	1323.789	1150.031
-43.071	35.326	1321.374	1147.964
-42.057	35.319	1319.393	1146.153
-41.042	35.417	1317.771	1145.283
-40.027	35.357	1315.947	1143.294
-39.013	35.431	1313.895	1141.908
-37.998	35.392	1312.024	1140.008
-36.984	35.432	1310.822	1139.151
-35.969	35.569	1308.447	1137.854
-34.954	35.461	1306.825	1135.762
-33.940	35.548	1305.617	1135.182
-32.925	35.655	1304.269	1134.597
-31.911	35.614	1302.526	1132.794
-30.896	35.463	1301.170	1130.680
-29.881	35.565	1300.255	1130.440
-28.867	35.691	1298.600	1129.696
-27.852	35.644	1296.953	1127.946
-26.838	35.644	1295.381	1126.529
-25.823	35.613	1294.129	1125.213
-24.809	35.536	1292.794	1123.559
-23.794	35.625	1291.241	1122.686
-22.779	35.539	1290.185	1121.219
-21.765	35.551	1288.968	1120.188
-20.750	35.473	1287.823	1118.697
-19.736	35.476	1286.177	1117.238
-18.721	35.472	1285.113	1116.248
-17.706	35.530	1283.723	1115.331
-16.692	35.499	1282.623	1114.149
-15.677	35.307	1281.972	1112.426
-14.663	35.529	1280.086	1112.033
-13.648	35.385	1279.170	1110.359
-12.633	35.386	1278.336	1109.598
-11.619	35.397	1277.376	1108.786
-10.604	35.347	1276.958	1108.090
-9.590	35.410	1275.505	1107.146
-8.575	35.338	1274.847	1106.120
-7.560	35.402	1273.881	1105.602
-6.546	35.417	1272.901	1104.793
-5.531	35.367	1272.275	1103.920
-4.517	35.376	1271.297	1103.081
-3.502	35.417	1270.190	1102.310
-2.487	35.236	1269.548	1100.669
-1.473	35.245	1264.904	1096.655
-0.458	33.460	1249.170	1072.873
0.556	30.543	1228.910	1024.869
1.571	25.430	1231.684	998.750
2.586	23.857	1245.790	1001.249
3.600	22.422	1233.318	983.126
4.615	16.751	1161.487	895.876
5.629	8.820	1086.707	798.730
6.644	5.214	1066.413	766.076
7.659	4.994	1063.915	763.138
8.673	4.892	1063.293	762.127
9.688	5.060	1061.399	761.523
10.702	5.125	1059.931	760.715
11.717	9.287	1065.215	784.798
12.731	17.136	1076.140	831.342
13.746	21.391	1081.681	856.439
14.761	21.431	1081.360	856.305
15.775	20.745	1079.016	851.021
16.790	19.513	1077.399	843.657
17.804	18.805	1075.614	838.726
18.819	18.577	1074.752	836.865
19.834	18.458	1073.957	835.595
20.848	18.227	1073.536	834.067
21.863	18.024	1072.888	832.499
22.877	17.918	1071.879	831.128
23.892	17.906	1071.002	830.315
24.907	17.847	1069.965	829.151
25.921	17.968	1068.605	828.613
26.936	17.866	1067.940	827.530
27.950	17.923	1066.710	826.776
28.965	18.166	1064.580	826.228
29.980	18.262	1063.288	825.615
30.994	18.281	1062.291	824.861
32.009	18.352	1061.648	824.629
33.023	18.234	1060.335	822.970
34.038	18.217	1059.288	822.000
35.053	18.002	1058.584	820.352
36.067	17.921	1057.794	819.279
37.082	18.113	1056.702	819.278
38.096	18.205	1055.973	819.083
39.111	18.148	1055.504	818.371
40.126	17.998	1054.369	816.703
41.140	17.753	1052.731	814.194
42.155	17.734	1051.174	812.824
43.169	17.642	1050.196	811.559
44.184	17.581	1049.341	810.539
45.199	17.707	1048.046	810.063
46.213	17.888	1047.084	810.109
47.228	17.964	1046.449	809.903
48.242	18.127	1045.518	809.884
49.257	17.991	1044.443	808.336
50.271	18.062	1043.793	808.097
51.286	18.188	1042.986	807.997
52.301	18.076	1041.848	806.516
53.315	17.860	1040.934	804.719
54.330	17.813	1039.655	803.437
55.344	17.818	1038.746	802.688
56.359	17.845	1038.184	802.309
57.374	17.800	1037.178	801.248
58.388	17.801	1036.263	800.477
59.403	17.749	1035.123	799.280
60.417	17.671	1034.335	798.238
61.432	17.605	1033.965	797.573
62.447	17.437	1033.301	796.204
63.461	17.531	1031.852	795.457
64.476	17.451	1030.927	794.298
65.490	17.477	1030.208	793.795
66.505	17.528	1029.717	793.586
67.520	17.615	1028.862	793.263
68.534	17.684	1027.987	792.835
69.549	17.520	1027.448	791.590
70.563	17.406	1026.428	790.202
71.578	17.339	1025.832	789.362
72.593	17.286	1024.846	788.289
73.607	17.375	1024.233	788.160
74.622	17.444	1023.480	787.828
75.636	17.412	1022.976	787.226
76.651	17.479	1022.597	787.171
77.666	17.291	1021.941	785.728
78.680	17.475	1020.962	785.757
79.695	17.403	1020.427	784.943
80.709	17.566	1019.954	785.260
81.724	17.717	1019.127	785.252
82.739	17.825	1018.659	785.317
83.753	17.864	1018.007	784.923
84.768	18.255	1016.836	785.747
85.782	18.376	1016.201	785.741
86.797	18.159	1015.752	784.334
87.812	18.097	1014.388	782.926
88.826	18.127	1013.357	782.197
89.841	18.119	1012.318	781.288
90.855	18.335	1011.719	781.744
91.870	18.314	1010.969	781.002
92.884	18.238	1009.952	779.798
93.899	18.230	1009.457	779.313
94.914	18.294	1008.424	778.734
95.928	18.325	1007.452	778.055
96.943	18.251	1006.428	776.863
97.957	18.097	1005.424	775.320
98.972	18.280	1004.327	775.232
99.987	18.177	1004.070	774.501
101.001	18.187	1002.936	773.601
102.016	18.080	1001.680	772.083
103.030	18.255	1001.372	772.567
104.045	18.132	1000.549	771.308
105.060	18.037	999.728	770.180
106.074	17.760	998.303	767.767
107.089	17.622	997.356	766.349
108.103	17.716	995.971	765.640
109.118	17.619	994.953	764.354
110.133	17.463	994.482	763.226
111.147	17.550	993.176	762.544
112.162	17.559	992.633	762.103
113.176	17.705	992.106	762.283
114.191	17.764	991.624	762.106
115.206	17.763	990.576	761.232
116.220	17.782	989.552	760.463
117.235	17.672	988.560	759.141
118.249	17.601	988.246	758.515
119.264	17.559	987.472	757.668
120.279	17.647	986.282	757.080
121.293	17.495	985.510	755.745
122.308	17.574	984.378	755.162
123.322	17.538	983.229	754.053
124.337	17.383	982.340	752.619
125.352	17.532	981.230	752.361
126.366	17.308	980.891	751.044
127.381	17.461	979.617	750.676
128.395	17.443	978.525	749.693
129.410	17.648	977.691	749.893
130.424	17.664	977.172	749.498
131.439	17.769	976.493	749.373
132.454	17.825	975.765	748.995
133.468	17.851	974.749	748.262
134.483	17.808	974.104	747.512
135.497	17.843	973.225	746.925
136.512	17.814	972.626	746.269
137.527	17.818	971.468	745.335
138.541	17.887	970.914	745.145
139.556	17.908	970.421	744.793
140.570	18.005	969.766	744.646
141.585	18.260	968.545	744.750
142.600	18.180	967.737	743.719
143.614	18.261	967.096	743.510
144.629	18.369	966.080	743.132
145.643	18.277	965.468	742.199
146.658	18.013	964.463	740.215
147.673	17.909	963.510	738.967
148.687	17.885	962.489	738.015
149.702	17.818	961.344	736.784
150.716	17.848	960.598	736.277
151.731	17.929	959.850	735.985
152.746	17.898	959.450	735.483
153.760	18.010	958.515	735.182
154.775	18.043	957.943	734.821
155.789	18.102	957.436	734.618
156.804	17.934	956.755	733.309
157.819	18.073	956.555	733.689
158.833	18.184	955.725	733.461
159.848	18.420	954.561	733.514
160.862	18.247	953.540	731.926
161.877	18.081	952.391	730.271
162.892	17.948	951.344	728.835
163.906	17.774	950.344	727.264
164.921	17.867	949.542	726.981
165.935	17.915	949.042	726.736
166.950	17.941	947.977	725.968
167.964	17.960	947.328	725.489
168.979	17.938	945.954	724.278
169.994	18.138	944.579	724.007
171.008	18.015	944.548	723.402
172.023	18.188	944.089	723.717
173.037	18.264	943.459	723.490
174.052	18.354	941.978	722.673
175.067	17.869	942.147	720.688
176.081	17.912	941.307	720.166
177.096	17.797	940.977	719.362
178.110	17.842	940.078	718.803
179.125	18.000	939.498	718.958
180.140	17.990	939.313	718.714
181.154	18.093	938.844	718.725
182.169	18.400	938.489	719.680
183.183	18.311	937.580	718.545
184.198	18.316	936.930	718.002
185.213	18.437	936.164	717.860
186.227	18.504	935.440	717.520
187.242	18.341	935.140	716.546
188.256	18.589	934.389	716.945
189.271	18.538	933.401	715.910
190.286	18.412	932.219	714.412
191.300	17.926	931.132	711.493
192.315	17.744	931.303	710.803
193.329	17.789	930.859	710.589
194.344	18.075	930.082	711.121
195.359	18.227	929.371	711.146
196.373	18.226	929.037	710.826
197.388	18.385	928.732	711.187
198.402	18.422	928.543	711.133
199.417	18.567	927.721	711.042
200.432	18.714	927.043	711.069
201.446	18.700	926.490	710.524
202.461	18.860	926.515	711.142
203.475	18.722	925.865	710.010
204.490	18.480	924.446	707.860
205.504	18.612	923.459	707.584
206.519	18.383	922.752	706.040
207.534	18.409	922.404	705.817
208.548	18.469	921.939	705.646
209.563	18.489	920.915	704.881
210.577	18.452	920.453	704.312
211.592	18.693	919.642	704.620
212.607	18.890	918.676	704.624
213.621	18.674	918.494	703.536
214.636	18.683	917.581	702.813
215.650	18.673	917.349	702.533
216.665	18.934	916.371	702.788
217.680	19.011	915.569	702.425
218.694	18.868	915.356	701.614
219.709	18.780	914.703	700.696
220.723	18.864	914.163	700.560
221.738	18.835	913.220	699.660
222.753	18.898	912.472	699.280
223.767	18.934	912.337	699.262
224.782	19.059	911.220	698.850
225.796	19.093	911.029	698.781
226.811	18.932	910.457	697.627
227.826	18.939	909.315	696.719
228.840	18.836	908.484	695.601
229.855	18.753	907.996	694.831
230.869	18.801	906.869	694.101
231.884	18.785	906.338	693.568
232.899	18.610	905.911	692.476
233.913	18.625	904.687	691.539
234.928	18.465	904.373	690.592
235.942	18.520	903.823	690.332
236.957	18.480	903.364	689.760
237.972	18.596	902.657	689.626
238.986	18.724	902.130	689.675
240.001	18.569	901.563	688.560
241.015	18.664	901.058	688.493
242.030	18.831	900.095	688.365
243.045	18.906	899.555	688.195
244.059	18.886	898.886	687.542
245.074	18.902	898.695	687.395
246.088	18.839	897.738	686.352
247.103	19.127	897.250	687.070
248.117	19.079	897.176	686.761
249.132	19.546	896.642	688.152
250.147	19.646	895.992	687.989
251.161	19.674	895.385	687.573
252.176	19.688	894.633	686.994
253.190	19.737	893.911	686.572
254.205	19.821	893.474	686.510
255.220	19.547	893.141	685.104
256.234	19.606	892.625	684.882
257.249	19.680	891.682	684.392
258.263	19.602	890.659	683.238
259.278	19.634	890.375	683.086
260.293	19.703	889.541	682.656
261.307	19.755	889.336	682.644
262.322	19.735	888.360	681.757
263.336	19.825	887.753	681.585
264.351	19.782	887.328	681.031
265.366	19.808	886.496	680.432
266.380	19.806	885.967	679.959
267.395	19.757	884.701	678.734
268.409	19.634	884.330	677.906
269.424	19.622	883.424	677.105
270.439	19.767	882.363	676.802
271.453	19.582	881.986	675.728
272.468	19.630	881.181	675.238
273.482	19.619	881.301	675.227
274.497	19.562	880.455	674.298
275.512	19.702	879.824	674.300
276.526	19.644	879.405	673.692
277.541	19.636	879.026	673.311
278.555	19.790	878.323	673.313
279.570	19.884	877.966	673.344
280.585	20.020	877.157	673.197
281.599	19.768	876.125	671.365
282.614	19.629	875.852	670.556
283.628	19.720	874.903	670.123
284.643	19.733	874.539	669.836
285.657	19.810	873.691	669.426
286.672	19.808	872.926	668.771
287.687	19.780	872.341	668.155
288.701	19.628	872.413	667.565
289.716	19.911	871.420	667.840
290.730	19.861	870.908	667.192
291.745	19.822	870.177	666.425
292.760	19.866	869.793	666.243
293.774	20.067	869.091	666.419
294.789	20.142	868.347	666.079
295.803	19.820	868.227	664.688
296.818	19.836	867.007	663.756
297.833	19.883	866.357	663.382
298.847	19.831	866.106	662.932
299.862	20.016	865.356	663.005
300.876	19.817	865.131	662.016
301.891	20.156	864.381	662.675
302.906	20.199	864.092	662.561
303.920	20.295	863.671	662.546
304.935	20.338	862.896	662.059
305.949	20.261	861.970	660.995
306.964	20.151	861.321	660.021
307.979	20.262	860.897	660.061
308.993	20.300	860.736	660.021
310.008	20.389	859.973	659.716
311.022	20.155	859.458	658.374
312.037	20.082	858.713	657.469
313.052	19.908	858.066	656.257
314.066	19.928	857.273	655.666
315.081	20.009	856.863	655.600
316.095	19.951	855.961	654.635
317.110	19.855	855.915	654.178
318.125	19.860	855.271	653.647
319.139	19.969	854.441	653.367
320.154	20.038	854.144	653.343
321.168	19.997	853.671	652.766
322.183	20.056	852.993	652.413
323.197	20.179	852.441	652.397
324.212	20.289	851.796	652.258
325.227	20.172	851.454	651.497
326.241	20.055	850.746	650.461
327.256	20.167	849.901	650.177
328.270	20.229	849.485	650.035
329.285	19.933	849.266	648.700
330.300	20.029	848.578	648.475
331.314	20.061	848.314	648.335
332.329	20.143	847.984	648.333
333.343	20.243	847.381	648.189
334.358	20.359	846.610	647.974
335.373	20.449	846.463	648.141
336.387	20.321	846.277	647.462
337.402	20.399	846.145	647.597
338.416	20.589	845.599	647.828
339.431	20.616	845.662	647.919
340.446	20.606	845.502	647.705
341.460	20.648	845.073	647.473
342.475	20.803	844.446	647.513
343.489	20.776	843.947	646.972
344.504	20.920	843.367	647.005
345.519	20.843	843.101	646.458
346.533	20.917	842.356	646.105
347.548	20.679	841.927	644.834
348.562	20.709	840.821	644.043
349.577	20.441	839.979	642.350
350.592	20.547	839.568	642.371
351.606	20.339	839.033	641.135
352.621	20.566	837.989	641.119
353.635	20.579	837.248	640.543
354.650	20.539	837.298	640.375
355.665	20.663	836.702	640.319
356.679	20.765	836.064	640.152
357.694	20.832	835.432	639.857
358.708	20.643	834.672	638.523
359.723	20.791	834.240	638.682
360.738	20.731	833.650	637.951
361.752	20.690	833.267	637.451
362.767	20.934	832.438	637.653
363.781	21.068	831.801	637.600
364.796	20.982	831.828	637.251
365.810	21.225	831.667	637.957
366.825	21.208	831.185	637.471
367.840	21.183	830.238	636.594
368.854	21.133	829.981	636.162
369.869	21.095	829.231	635.392
370.883	20.974	828.920	634.656
371.898	21.223	828.746	635.371
372.913	21.344	828.128	635.284
373.927	21.134	827.513	633.990
374.942	21.249	826.988	633.951
375.956	21.288	826.917	633.980
376.971	21.434	826.398	634.058
377.986	21.320	826.304	633.515
379.000	21.445	825.850	633.565
380.015	21.398	825.190	632.830
381.029	21.446	824.056	632.080
382.044	21.488	823.367	631.646
383.059	21.377	823.223	631.079
384.073	21.273	822.547	630.129
385.088	21.249	821.562	629.233
386.102	21.181	821.213	628.665
387.117	21.226	820.621	628.317
388.132	21.147	820.043	627.536
389.146	21.074	819.897	627.106
390.161	21.323	819.477	627.625
391.175	21.385	818.696	627.195
392.190	21.254	818.251	626.328
393.205	21.161	817.971	625.725
394.219	21.218	817.315	625.372
395.234	21.084	816.796	624.438
396.248	21.025	816.317	623.808
397.263	20.952	815.814	623.107
398.278	20.939	815.452	622.729
399.292	20.843	814.986	621.975
400.307	21.030	814.633	622.318
401.321	21.153	814.017	622.231
402.336	21.149	813.700	621.918
403.350	21.253	813.315	621.940
404.365	21.344	812.647	621.696
405.380	21.339	812.696	621.662
406.394	21.472	812.081	621.608
407.409	21.596	811.838	621.808
408.423	21.762	811.588	622.152
409.438	21.848	811.016	621.962
410.453	21.897	810.373	621.589
411.467	21.850	810.129	621.178
412.482	21.842	810.108	621.079
413.496	22.049	809.549	621.329
414.511	21.862	809.245	620.379
415.526	21.783	808.500	619.474
416.540	21.800	807.919	619.036
417.555	21.831	807.312	618.624
418.569	21.756	807.308	618.301
419.584	21.753	806.835	617.875
420.599	21.961	805.856	617.803
421.613	158.734	1370.053	1788.765
422.628	137.931	1452.286	1788.869
