DTS Sentinel unit serial number:	SN413079Multiplexer serial number:	ORYXHardware model number:	OX4-SRSoftware version number:	ORYX F/W v4.00 Oryx Data Collector v3.7.2.0data status	okinstallation	princeton_trtdifferential loss correction	single-endedforward channel	channel 1reverse channel	N/Adate	2019/09/19time	12:18:35forward acquisition time	60.00reverse acquisition time	0.00gamma	496.2192k internal	0.2334k external	0.2334temperature offset calibration	1.0014default loss term (dB/km)	0.3790temperature slope calibration	1.0000multiplexer offset coefficient	1.0000multiplexer slope coefficient	1.0000fibre end	0.00T internal ref (°C)	26.58T ext. ref 1 (°C)	0.86T ext. ref 2 (°C)	23.58length (m)	temperature (°C)	Stokes	anti-Stokes-747.200	-18.437	0.292	0.184
-746.185	800.000	0.135	0.444
-745.171	418.382	0.126	0.270
-744.156	-200.000	0.050	0.263
-743.142	251.988	0.183	0.313
-742.127	-200.000	0.035	0.340
-741.112	249.719	0.089	-0.152
-740.098	-106.118	0.054	-0.012
-739.083	-200.000	-0.033	-0.260
-738.069	238.134	-0.125	0.208
-737.054	-72.122	0.115	-0.043
-736.039	800.000	-0.037	-0.141
-735.025	-117.651	-0.132	0.024
-734.010	-148.354	-0.171	-0.014
-732.996	103.609	-0.239	0.281
-731.981	-73.548	0.267	0.098
-730.966	-83.948	-0.293	-0.094
-729.952	181.138	-0.224	-0.330
-728.937	298.985	-0.119	-0.220
-727.923	800.000	-0.075	-0.215
-726.908	163.843	0.137	-0.193
-725.894	800.000	-0.057	-0.183
-724.879	-86.465	0.123	-0.038
-723.864	194.326	-0.159	0.242
-722.850	34.570	-0.102	-0.090
-721.835	43.871	-0.027	0.025
-720.821	479.594	-0.043	-0.097
-719.806	356.163	-0.138	-0.276
-718.791	-98.336	0.188	-0.048
-717.777	437.415	-0.140	-0.307
-716.762	764.265	-0.122	-0.332
-715.748	107.706	0.141	-0.169
-714.733	-200.000	-0.006	-0.333
-713.718	-200.000	-0.014	0.247
-712.704	44.422	0.088	0.081
-711.689	718.743	-0.102	-0.272
-710.675	-47.686	-0.250	-0.122
-709.660	-200.000	0.020	0.093
-708.645	714.793	-0.123	-0.327
-707.631	-112.453	-0.248	-0.050
-706.616	68.923	-0.238	-0.245
-705.602	800.000	0.067	-0.207
-704.587	-84.506	-0.125	0.040
-703.572	-90.819	0.274	-0.079
-702.558	-146.635	-0.221	0.019
-701.543	800.000	0.032	0.138
-700.529	-153.204	0.238	0.017
-699.514	-136.137	-0.122	-0.014
-698.499	-91.946	-0.344	0.098
-697.485	38.835	-0.231	-0.207
-696.470	-56.210	-0.233	0.104
-695.456	70.865	-0.032	0.033
-694.441	271.918	0.123	0.218
-693.426	-63.844	0.289	0.119
-692.412	-200.000	0.019	-0.397
-691.397	-200.000	0.019	0.122
-690.383	-200.000	-0.013	0.188
-689.368	-55.441	-0.162	-0.073
-688.354	133.511	-0.037	0.047
-687.339	718.338	-0.077	0.204
-686.324	800.000	-0.111	-0.336
-685.310	-200.000	0.015	-0.118
-684.295	800.000	-0.178	-0.522
-683.281	188.736	0.098	0.147
-682.266	-44.216	-0.127	-0.064
-681.251	-9.997	0.059	0.039
-680.237	367.158	-0.093	0.188
-679.222	-111.809	0.052	-0.011
-678.208	-109.129	-0.325	-0.069
-677.193	-200.000	-0.004	0.163
-676.178	800.000	-0.048	0.179
-675.164	-85.808	0.251	-0.078
-674.149	-200.000	-0.047	-0.219
-673.135	-74.047	-0.201	0.073
-672.120	-200.000	0.011	-0.232
-671.105	43.730	0.140	0.128
-670.091	528.306	0.121	-0.286
-669.076	148.852	0.163	-0.220
-668.062	82.834	-0.208	-0.227
-667.047	800.000	0.085	0.252
-666.032	-85.944	-0.250	0.077
-665.018	-200.000	-0.112	-0.695
-664.003	196.598	-0.138	0.210
-662.989	-200.000	-0.030	-0.480
-661.974	110.983	-0.180	-0.217
-660.959	800.000	-0.077	-0.313
-659.945	210.107	0.060	-0.094
-658.930	800.000	-0.115	0.361
-657.916	-200.000	0.026	0.192
-656.901	-200.000	0.030	-0.240
-655.886	800.000	0.081	-0.291
-654.872	350.850	-0.169	-0.334
-653.857	78.901	-0.220	-0.235
-652.843	58.992	0.102	-0.101
-651.828	800.000	-0.118	0.439
-650.814	-104.189	0.264	-0.062
-649.799	-200.000	-0.008	-0.078
-648.784	-200.000	-0.005	0.305
-647.770	-87.692	0.130	0.039
-646.755	66.042	-0.088	0.089
-645.741	-37.700	-0.089	0.047
-644.726	-200.000	-0.046	-0.209
-643.711	-44.205	0.262	-0.131
-642.697	344.205	0.120	0.235
-641.682	-18.896	-0.200	0.124
-640.668	560.701	-0.091	0.220
-639.653	71.364	0.126	0.131
-638.638	-42.948	0.260	-0.132
-637.624	237.718	0.069	0.115
-636.609	-35.649	-0.370	-0.201
-635.595	583.674	-0.055	-0.134
-634.580	-18.580	-0.140	-0.087
-633.565	6.036	-0.129	0.096
-632.551	800.000	0.067	0.278
-631.536	150.853	-0.059	0.080
-630.522	83.303	-0.015	0.017
-629.507	213.969	0.096	0.151
-628.492	534.744	-0.041	0.097
-627.478	343.567	0.105	0.206
-626.463	-122.971	-0.055	-0.009
-625.449	-49.415	-0.043	0.021
-624.434	94.119	-0.016	0.018
-623.419	248.363	0.057	0.097
-622.405	340.885	0.062	0.122
-621.390	116.911	0.142	-0.175
-620.376	28.208	0.123	-0.104
-619.361	-56.606	0.033	-0.015
-618.346	-200.000	-0.047	-0.284
-617.332	-129.117	0.198	-0.028
-616.317	141.250	-0.051	-0.067
-615.303	306.411	-0.155	-0.289
-614.288	-2.425	0.307	-0.215
-613.273	-122.332	0.163	0.027
-612.259	-178.261	0.318	-0.007
-611.244	-97.898	0.043	-0.011
-610.230	136.095	0.073	-0.095
-609.215	800.000	-0.042	-0.171
-608.201	554.391	-0.115	-0.276
-607.186	-148.825	-0.338	0.027
-606.171	2.022	-0.260	-0.187
-605.157	-49.934	0.298	-0.141
-604.142	-66.401	-0.013	-0.005
-603.128	44.263	-0.378	0.347
-602.113	-32.388	-0.343	0.191
-601.098	41.564	0.119	0.108
-600.084	-200.000	-0.016	-0.093
-599.069	-11.230	-0.195	0.128
-598.055	-200.000	-0.011	0.362
-597.040	-147.761	-0.120	-0.010
-596.025	729.127	0.078	0.208
-595.011	223.451	-0.099	-0.160
-593.996	-200.000	-0.032	-0.148
-592.982	596.206	-0.044	0.109
-591.967	-80.647	-0.125	0.042
-590.952	-200.000	-0.028	-0.425
-589.938	-67.207	-0.410	0.161
-588.923	800.000	0.003	-0.008
-587.909	1.880	0.190	0.137
-586.894	-46.330	0.284	0.140
-585.879	427.987	-0.163	0.352
-584.865	-200.000	0.031	0.000
-583.850	-33.491	-0.052	0.028
-582.836	-41.856	-0.299	0.153
-581.821	-132.893	-0.044	0.006
-580.806	800.000	0.074	0.221
-579.792	-113.475	-0.235	-0.046
-578.777	-82.155	-0.255	0.083
-577.763	-147.672	-0.385	0.032
-576.748	94.423	-0.181	0.205
-575.733	800.000	-0.110	-0.436
-574.719	125.454	-0.140	-0.177
-573.704	49.191	0.164	-0.154
-572.690	83.567	-0.247	0.269
-571.675	31.837	0.026	0.023
-570.661	-77.981	-0.075	-0.026
-569.646	364.021	-0.102	0.205
-568.631	800.000	-0.031	-0.107
-567.617	173.114	0.068	-0.098
-566.602	-200.000	-0.002	-0.158
-565.588	652.407	0.113	-0.288
-564.573	10.670	-0.147	0.112
-563.558	-5.402	-0.172	0.118
-562.544	800.000	-0.155	0.438
-561.529	-36.279	-0.117	0.063
-560.515	-200.000	-0.001	-0.341
-559.500	-14.940	-0.303	0.194
-558.485	27.441	0.188	0.158
-557.471	-200.000	0.011	-0.061
-556.456	-200.000	-0.016	-0.173
-555.442	7.059	-0.292	0.218
-554.427	734.782	0.049	0.131
-553.412	800.000	-0.055	0.225
-552.398	-53.939	0.146	0.066
-551.383	351.010	0.079	-0.155
-550.369	-8.572	-0.182	0.122
-549.354	-189.355	0.212	0.002
-548.339	-119.740	0.302	0.052
-547.325	-146.081	-0.441	-0.039
-546.310	43.530	-0.284	-0.259
-545.296	-200.000	0.031	0.165
-544.281	-102.556	0.471	-0.112
-543.266	60.117	0.170	-0.167
-542.252	-200.000	-0.001	-0.241
-541.237	-200.000	0.002	-0.090
-540.223	9.814	0.109	0.083
-539.208	-171.333	-0.203	0.007
-538.193	-6.552	0.335	-0.227
-537.179	53.890	-0.184	-0.176
-536.164	-45.639	-0.081	0.040
-535.150	264.572	-0.099	-0.172
-534.135	-200.000	-0.067	-0.303
-533.121	-131.067	0.409	-0.054
-532.106	-200.000	0.013	0.057
-531.091	71.129	-0.058	-0.060
-530.077	-93.662	-0.137	-0.038
-529.062	225.494	-0.217	-0.350
-528.048	-64.436	0.295	0.119
-527.033	800.000	0.088	0.327
-526.018	800.000	0.097	0.385
-525.004	40.590	0.040	-0.036
-523.989	-106.002	0.086	0.019
-522.975	58.394	0.192	-0.188
-521.960	-68.537	-0.192	0.074
-520.945	-178.909	-0.199	-0.004
-519.931	-96.184	-0.090	-0.024
-518.916	-110.378	-0.267	0.055
-517.902	800.000	-0.063	-0.192
-516.887	-83.625	-0.324	-0.103
-515.872	296.430	0.200	-0.365
-514.858	-200.000	0.007	-0.163
-513.843	-82.903	-0.157	-0.050
-512.829	-44.040	0.174	0.087
-511.814	-200.000	0.001	0.117
-510.799	659.886	0.048	-0.124
-509.785	21.094	-0.356	0.288
-508.770	-122.911	-0.244	0.039
-507.756	56.453	-0.167	0.162
-506.741	-148.363	-0.210	0.017
-505.726	-134.364	-0.129	0.016
-504.712	-6.797	0.141	-0.095
-503.697	-117.136	0.214	-0.039
-502.683	98.089	0.127	-0.145
-501.668	-46.972	-0.348	0.169
-500.653	396.790	-0.126	-0.262
-499.639	-117.931	-0.228	0.041
-498.624	365.051	0.154	0.309
-497.610	-25.421	-0.254	-0.150
-496.595	409.052	0.046	0.097
-495.581	30.306	0.163	0.138
-494.566	-200.000	0.016	-0.083
-493.551	-200.000	-0.003	-0.093
-492.537	320.405	0.177	0.335
-491.522	-118.174	0.022	-0.004
-490.508	-64.579	0.109	-0.044
-489.493	50.508	-0.148	-0.139
-488.478	728.478	0.055	-0.145
-487.464	25.675	0.081	-0.067
-486.449	-19.404	0.304	0.187
-485.435	-16.152	0.194	0.123
-484.420	-128.198	-0.156	0.022
-483.405	-200.000	0.053	0.242
-482.391	195.782	0.183	-0.277
-481.376	-119.727	0.201	-0.035
-480.362	-9.054	-0.404	0.269
-479.347	507.128	-0.047	0.109
-478.332	207.428	0.011	-0.017
-477.318	800.000	0.028	0.114
-476.303	172.105	0.087	-0.124
-475.289	-60.180	0.344	0.146
-474.274	-200.000	-0.002	-0.071
-473.259	-186.794	-0.389	0.005
-472.245	230.766	0.119	-0.194
-471.230	-136.579	0.194	-0.022
-470.216	-48.474	0.115	-0.055
-469.201	222.805	-0.173	-0.277
-468.186	-200.000	-0.039	-0.306
-467.172	-200.000	0.007	-0.170
-466.157	259.906	0.190	0.327
-465.143	10.011	0.206	-0.156
-464.128	-75.660	0.277	0.098
-463.113	27.229	-0.200	-0.167
-462.099	-68.923	0.385	0.148
-461.084	155.686	-0.025	-0.035
-460.070	-200.000	-0.033	0.219
-459.055	-29.973	-0.273	0.155
-458.040	40.190	0.289	-0.259
-457.026	-0.570	-0.093	-0.065
-456.011	-94.992	-0.307	-0.083
-454.997	-77.605	0.387	-0.133
-453.982	127.525	-0.124	-0.156
-452.968	92.580	-0.237	0.266
-451.953	309.283	0.129	0.240
-450.938	-128.481	-0.062	-0.009
-449.924	-200.000	0.041	0.185
-448.909	-53.740	0.108	-0.049
-447.895	-129.338	0.240	0.033
-446.880	62.255	-0.066	0.066
-445.865	-36.229	0.312	-0.167
-444.851	800.000	0.070	-0.196
-443.836	-200.000	0.001	0.204
-442.822	263.606	-0.094	0.162
-441.807	-200.000	-0.013	0.114
-440.792	-14.289	-0.211	0.135
-439.778	-28.359	-0.155	0.089
-438.763	-174.934	0.200	-0.006
-437.749	800.000	0.023	-0.092
-436.734	8.139	0.043	0.032
-435.719	38.413	-0.151	-0.133
-434.705	-26.343	-0.210	-0.122
-433.690	-200.000	-0.022	0.150
-432.676	-200.000	-0.024	0.272
-431.661	-200.000	0.013	0.119
-430.646	-200.000	-0.017	-0.108
-429.632	446.827	-0.043	-0.095
-428.617	173.215	-0.042	-0.060
-427.603	152.678	0.077	0.104
-426.588	-110.826	-0.058	0.012
-425.573	-144.023	0.218	0.020
-424.559	800.000	0.135	-0.380
-423.544	-71.256	-0.455	0.169
-422.530	800.000	0.025	0.108
-421.515	75.795	-0.232	0.243
-420.500	-51.953	0.316	0.146
-419.486	195.313	0.105	-0.159
-418.471	-45.209	0.281	-0.138
-417.457	548.019	-0.095	0.226
-416.442	300.399	-0.079	-0.144
-415.428	-71.722	0.070	-0.026
-414.413	-154.785	-0.051	-0.003
-413.398	-180.077	0.160	0.003
-412.384	-126.797	0.173	-0.025
-411.369	49.964	-0.116	-0.108
-410.355	227.698	0.047	0.076
-409.340	-200.000	0.004	-0.145
-408.325	-200.000	-0.056	0.248
-407.311	-95.354	-0.196	-0.052
-406.296	-189.135	0.383	-0.005
-405.282	-25.372	-0.380	0.223
-404.267	-137.117	0.066	0.007
-403.252	115.873	-0.135	0.164
-402.238	-182.328	0.206	-0.004
-401.223	-62.298	0.408	-0.169
-400.209	693.625	0.137	-0.357
-399.194	-122.173	0.022	-0.004
-398.179	-120.097	0.140	-0.024
-397.165	103.126	0.293	0.340
-396.150	-92.340	0.087	-0.024
-395.136	38.693	-0.130	-0.115
-394.121	21.563	0.328	-0.265
-393.106	66.512	-0.190	-0.192
-392.092	-200.000	-0.015	-0.272
-391.077	117.962	-0.106	0.129
-390.063	-200.000	-0.025	-0.202
-389.048	800.000	-0.048	0.145
-388.033	-0.384	0.095	-0.067
-387.019	-10.163	-0.153	0.101
-386.004	19.599	-0.111	-0.089
-384.990	800.000	-0.101	0.360
-383.975	154.852	0.090	-0.122
-382.960	10.258	0.110	-0.083
-381.946	126.355	0.047	-0.059
-380.931	46.868	0.103	0.095
-379.917	-86.510	0.207	0.063
-378.902	-115.794	0.258	-0.048
-377.888	67.478	0.286	-0.289
-376.873	152.517	-0.138	0.187
-375.858	-200.000	-0.008	-0.125
-374.844	800.000	-0.136	0.407
-373.829	317.895	-0.374	0.701
-372.815	353.649	-0.194	0.382
-371.800	-2.115	-0.157	0.109
-370.785	8.682	0.172	0.129
-369.771	800.000	-0.094	0.350
-368.756	641.841	0.065	0.165
-367.742	800.000	-0.049	0.197
-366.727	-89.082	0.163	0.048
-365.712	98.861	-0.148	-0.169
-364.698	800.000	-0.009	-0.035
-363.683	800.000	0.036	0.149
-362.669	418.739	0.182	-0.385
-361.654	18.342	0.095	-0.075
-360.639	61.424	0.089	-0.087
-359.625	800.000	-0.043	0.137
-358.610	-86.573	0.177	0.054
-357.596	222.475	0.100	0.160
-356.581	-200.000	0.023	-0.198
-355.566	101.927	0.053	-0.061
-354.552	-72.281	0.122	-0.045
-353.537	231.711	0.022	-0.036
-352.523	544.050	0.044	-0.104
-351.508	-200.000	0.013	0.140
-350.493	-32.812	-0.279	0.153
-349.479	-18.561	0.153	-0.094
-348.464	-41.742	0.223	0.113
-347.450	-90.228	-0.113	0.032
-346.435	100.832	0.237	0.273
-345.420	217.210	-0.186	-0.293
-344.406	25.190	0.285	0.234
-343.391	800.000	0.097	-0.313
-342.377	-101.110	-0.058	-0.014
-341.362	-150.321	-0.188	0.014
-340.348	-200.000	-0.001	-0.058
-339.333	-49.423	0.133	-0.063
-338.318	-45.137	0.127	-0.062
-337.304	25.475	-0.079	0.065
-336.289	-62.814	0.088	-0.036
-335.275	-111.600	0.284	-0.057
-334.260	-200.000	-0.039	0.201
-333.245	-193.554	-0.078	0.001
-332.231	152.487	-0.155	-0.209
-331.216	183.760	-0.014	-0.020
-330.202	-72.016	-0.305	0.112
-329.187	-176.543	-0.149	-0.004
-328.172	37.493	-0.218	0.191
-327.158	69.373	0.185	-0.189
-326.143	173.590	-0.198	0.282
-325.129	-0.221	-0.364	-0.256
-324.114	-1.459	-0.469	-0.327
-323.099	-14.269	0.324	0.207
-322.085	-5.134	0.239	-0.162
-321.070	-102.136	0.118	-0.028
-320.056	-71.267	-0.104	-0.038
-319.041	800.000	-0.086	0.353
-318.026	624.066	-0.019	0.047
-317.012	-10.062	0.120	0.079
-315.997	32.941	-0.200	-0.171
-314.983	-88.153	-0.205	0.061
-313.968	291.330	-0.122	-0.219
-312.953	-200.000	0.059	-0.364
-311.939	28.269	0.399	-0.333
-310.924	-121.248	-0.167	0.028
-309.910	215.338	-0.211	-0.331
-308.895	-49.255	-0.254	-0.120
-307.880	241.873	-0.139	-0.229
-306.866	800.000	-0.035	-0.100
-305.851	-25.503	-0.050	-0.029
-304.837	41.400	-0.162	-0.145
-303.822	-47.736	0.124	0.059
-302.807	-133.364	-0.077	0.010
-301.793	-200.000	-0.024	-0.118
-300.778	246.407	-0.214	0.357
-299.764	130.861	-0.303	0.384
-298.749	-47.528	0.187	0.090
-297.735	-159.908	0.272	-0.015
-296.720	-7.208	-0.228	0.153
-295.705	-163.994	0.413	0.019
-294.691	-67.531	-0.376	0.146
-293.676	-200.000	0.047	-0.273
-292.662	800.000	0.060	-0.171
-291.647	-40.472	0.225	0.116
-290.632	-200.000	0.002	-0.087
-289.618	-129.640	0.385	-0.052
-288.603	-56.094	-0.215	0.094
-287.589	-101.920	-0.144	0.034
-286.574	60.056	0.251	0.244
-285.559	192.077	-0.108	0.161
-284.545	8.377	0.113	-0.084
-283.530	800.000	0.070	0.198
-282.516	-200.000	0.010	0.275
-281.501	-200.000	-0.030	0.131
-280.486	-47.448	-0.181	-0.087
-279.472	-22.134	0.122	-0.073
-278.457	410.414	-0.069	-0.145
-277.443	49.989	0.177	-0.165
-276.428	228.856	-0.208	-0.335
-275.413	-59.293	-0.227	-0.096
-274.399	-200.000	0.022	0.272
-273.384	523.805	0.091	0.211
-272.370	-200.000	-0.022	0.142
-271.355	-81.070	0.092	-0.030
-270.340	-28.460	-0.233	0.133
-269.326	-165.333	0.179	-0.008
-268.311	-58.246	0.116	-0.050
-267.297	238.357	-0.130	-0.213
-266.282	800.000	0.048	-0.157
-265.267	9.748	-0.132	0.099
-264.253	-200.000	0.001	0.096
-263.238	800.000	0.110	-0.368
-262.224	516.262	-0.080	-0.185
-261.209	-74.094	0.177	0.063
-260.195	-200.000	0.020	-0.254
-259.180	87.193	0.157	-0.172
-258.165	-105.262	0.192	0.043
-257.151	-124.767	0.208	0.032
-256.136	-50.924	-0.156	-0.072
-255.122	262.828	0.079	0.135
-254.107	2.907	0.064	0.046
-253.092	165.504	0.174	-0.243
-252.078	-146.924	0.201	-0.017
-251.063	-83.861	0.196	-0.062
-250.049	-141.353	0.198	-0.020
-249.034	165.799	-0.119	0.165
-248.019	30.067	0.047	-0.039
-247.005	572.851	-0.072	0.172
-245.990	365.908	0.110	0.218
-244.976	90.471	-0.150	0.166
-243.961	143.154	0.186	0.243
-242.946	-177.085	0.104	-0.003
-241.932	652.058	-0.092	-0.233
-240.917	-200.000	0.005	-0.223
-239.903	5.033	-0.337	-0.244
-238.888	-90.824	-0.512	0.145
-237.873	122.995	0.268	-0.331
-236.859	-200.000	0.027	-0.204
-235.844	-65.835	-0.083	0.033
-234.830	15.610	-0.112	-0.087
-233.815	-200.000	0.011	0.200
-232.800	12.661	0.319	-0.243
-231.786	42.422	-0.211	0.189
-230.771	8.835	0.174	0.129
-229.757	-169.501	-0.216	0.008
-228.742	43.892	-0.060	0.054
-227.727	-128.196	0.281	0.040
-226.713	20.010	-0.197	0.156
-225.698	-33.968	-0.065	-0.035
-224.684	-187.602	-0.242	-0.003
-223.669	800.000	-0.045	0.191
-222.655	-24.861	0.094	0.055
-221.640	70.411	-0.076	0.078
-220.625	-152.408	0.126	-0.009
-219.611	490.946	0.083	0.186
-218.596	-31.592	0.096	0.053
-217.582	18.353	0.205	-0.161
-216.567	-41.807	0.041	0.021
-215.552	34.693	0.226	0.194
-214.538	-178.115	-0.075	0.002
-213.523	476.716	-0.068	-0.152
-212.509	101.245	-0.058	-0.066
-211.494	-41.773	-0.141	0.071
-210.479	-143.931	0.417	-0.039
-209.465	164.520	-0.212	-0.294
-208.450	-19.024	0.144	0.088
-207.436	57.371	0.148	-0.143
-206.421	19.655	0.205	-0.162
-205.406	-119.833	0.113	-0.019
-204.392	111.190	0.153	-0.181
-203.377	-200.000	0.059	0.538
-202.363	-38.411	-0.162	0.084
-201.348	-116.524	-0.050	-0.009
-200.333	800.000	-0.062	0.221
-199.319	145.743	-0.162	-0.213
-198.304	-151.915	0.327	-0.023
-197.290	597.328	-0.042	-0.103
-196.275	443.307	-0.025	-0.055
-195.260	235.284	-0.070	0.114
-194.246	191.653	-0.109	0.161
-193.231	-200.000	0.054	0.312
-192.217	309.267	0.039	-0.071
-191.202	-32.354	0.160	-0.088
-190.187	147.268	0.255	-0.337
-189.173	800.000	-0.084	-0.235
-188.158	800.000	0.014	-0.048
-187.144	38.538	-0.044	0.039
-186.129	-57.267	-0.232	0.100
-185.114	-138.578	0.400	0.043
-184.100	226.167	-0.102	0.163
-183.085	-78.067	0.446	0.151
-182.071	382.075	-0.052	0.105
-181.056	800.000	-0.060	-0.192
-180.042	342.317	0.064	-0.123
-179.027	-51.099	-0.213	-0.098
-178.012	34.963	-0.107	0.092
-176.998	92.298	0.242	0.268
-175.983	-116.953	-0.233	-0.042
-174.969	800.000	0.081	0.221
-173.954	-53.549	0.107	-0.048
-172.939	241.224	-0.070	0.115
-171.925	-160.435	-0.249	-0.013
-170.910	31.150	0.112	-0.094
-169.896	340.606	-0.121	-0.231
-168.881	-196.453	0.299	0.002
-167.866	-200.000	0.047	-0.308
-166.852	129.876	0.146	-0.184
-165.837	95.180	-0.062	-0.070
-164.823	-34.533	-0.372	-0.200
-163.808	-29.912	-0.159	-0.089
-162.793	70.614	0.189	0.192
-161.779	-172.021	0.309	-0.010
-160.764	239.583	-0.159	-0.260
-159.750	106.081	-0.120	-0.140
-158.735	-134.246	-0.256	0.031
-157.720	286.481	0.111	0.197
-156.706	-119.112	-0.226	-0.039
-155.691	-45.602	0.353	-0.171
-154.677	-123.282	-0.214	-0.034
-153.662	-200.000	-0.019	-0.138
-152.647	-131.815	0.321	-0.041
-151.633	-31.012	-0.044	0.024
-150.618	-70.166	-0.337	-0.126
-149.604	800.000	-0.066	-0.247
-148.589	56.563	0.149	-0.143
-147.574	204.262	-0.064	0.097
-146.560	-16.930	0.178	0.110
-145.545	-32.480	-0.183	-0.100
-144.531	800.000	0.047	-0.150
-143.516	-123.006	0.142	0.022
-142.502	148.747	0.100	0.132
-141.487	139.244	0.075	-0.097
-140.472	325.908	0.023	0.043
-139.458	50.626	-0.179	-0.167
-138.443	-145.783	-0.162	-0.014
-137.429	211.926	-0.035	-0.054
-136.414	-130.349	-0.155	0.021
-135.399	-155.812	0.280	-0.018
-134.385	-69.147	-0.152	-0.058
-133.370	-200.000	-0.000	-0.139
-132.356	-37.836	-0.110	0.058
-131.341	-200.000	0.004	0.267
-130.326	279.812	0.231	0.405
-129.312	800.000	-0.069	0.280
-128.297	-27.527	-0.149	-0.085
-127.283	-190.851	-0.248	-0.003
-126.268	189.744	-0.210	0.310
-125.253	-200.000	0.000	0.063
-124.239	-158.037	0.194	0.011
-123.224	742.308	-0.052	-0.138
-122.210	800.000	0.079	0.310
-121.195	292.517	0.119	0.213
-120.180	693.364	0.062	0.158
-119.166	800.000	0.106	-0.423
-118.151	-200.000	-0.026	0.234
-117.137	55.455	0.105	0.100
-116.122	-39.232	0.036	0.018
-115.107	41.813	0.258	0.229
-114.093	-33.300	0.228	-0.124
-113.078	-200.000	-0.007	-0.177
-112.064	-141.792	-0.360	-0.035
-111.049	1.421	-0.161	0.113
-110.034	-191.004	-0.226	-0.002
-109.020	-25.706	0.248	0.144
-108.005	142.955	-0.054	0.071
-106.991	145.891	-0.115	0.151
-105.976	74.062	0.216	0.222
-104.962	103.110	0.092	-0.105
-103.947	-77.846	-0.078	0.026
-102.932	29.880	0.107	-0.089
-101.918	193.932	0.122	-0.181
-100.903	20.725	0.169	-0.134
-99.889	-200.000	-0.015	0.204
-98.874	-164.437	-0.227	-0.010
-97.859	800.000	-0.047	-0.182
-96.845	2.554	0.234	0.166
-95.830	53.218	0.092	-0.086
-94.816	-56.298	0.123	-0.054
-93.801	109.600	0.162	-0.190
-92.786	-56.884	0.355	-0.154
-91.772	-28.713	-0.086	0.048
-90.757	-7.154	-0.226	-0.150
-89.743	84.392	0.079	-0.084
-88.728	-95.372	0.115	0.030
-87.713	-143.973	-0.408	0.038
-86.699	-200.000	-0.001	0.219
-85.684	226.645	0.010	0.016
-84.670	-200.000	0.006	-0.099
-83.655	-106.295	-0.115	0.025
-82.640	-200.000	-0.010	-0.231
-81.626	-200.000	0.053	0.451
-80.611	83.901	0.280	0.299
-79.597	-81.345	-0.196	-0.063
-78.582	-149.552	0.256	-0.020
-77.567	119.078	-0.122	-0.148
-76.553	-200.000	0.005	0.033
-75.538	68.163	-0.077	-0.078
-74.524	-73.771	0.103	0.037
-73.509	247.920	-0.099	0.164
-72.494	97.158	-0.036	-0.041
-71.480	10.057	0.286	0.212
-70.465	-126.192	-0.085	-0.013
-69.451	-184.224	-0.270	0.004
-68.436	575.589	-0.139	0.331
-67.422	80.596	0.163	0.171
-66.407	700.383	0.031	-0.079
-65.392	75.733	-0.188	-0.195
-64.378	800.000	0.051	0.202
-63.363	71.140	-0.165	-0.168
-62.349	-102.460	0.178	-0.042
-61.334	-5.264	-1.169	-0.787
-60.319	22.629	0.700	0.561
-59.305	-200.000	-0.029	-1.495
-58.290	463.723	0.533	1.165
-57.276	384.996	0.696	1.403
-56.261	-200.000	113.418	617.284
-55.246	438.338	1524.131	3252.483
-54.232	142.439	2716.633	3528.147
-53.217	101.144	2188.694	2491.571
-52.203	38.385	1620.360	1412.193
-51.188	29.793	1359.178	1132.196
-50.173	27.034	1319.775	1082.905
-49.159	53.803	1376.778	1293.348
-48.144	51.882	1390.867	1294.861
-47.130	30.194	1346.142	1123.590
-46.115	26.760	1328.082	1087.901
-45.100	26.529	1322.989	1082.305
-44.086	26.380	1320.522	1079.354
-43.071	26.369	1318.206	1077.353
-42.057	26.384	1315.903	1075.521
-41.042	26.390	1314.459	1074.329
-40.027	26.372	1313.117	1073.082
-39.013	26.509	1310.703	1071.882
-37.998	26.467	1308.560	1069.836
-36.984	26.592	1306.478	1068.832
-35.969	26.691	1304.604	1067.838
-34.954	26.621	1303.624	1066.584
-33.940	26.610	1301.979	1065.128
-32.925	26.596	1300.318	1063.644
-31.911	26.596	1299.389	1062.845
-30.896	26.650	1297.522	1061.592
-29.881	26.700	1296.193	1060.754
-28.867	26.687	1295.054	1059.701
-27.852	26.693	1293.621	1058.523
-26.838	26.839	1291.598	1057.680
-25.823	26.693	1290.878	1056.199
-24.809	26.648	1289.754	1054.975
-23.794	26.533	1288.114	1052.918
-22.779	26.660	1286.675	1052.442
-21.765	26.696	1285.125	1051.339
-20.750	26.636	1284.456	1050.403
-19.736	26.505	1283.614	1048.911
-18.721	26.575	1281.351	1047.426
-17.706	26.508	1280.978	1046.691
-16.692	26.517	1279.607	1045.581
-15.677	26.471	1278.578	1044.433
-14.663	26.495	1277.214	1043.420
-13.648	26.539	1275.663	1042.361
-12.633	26.527	1275.112	1041.803
-11.619	26.417	1274.304	1040.468
-10.604	26.553	1273.586	1040.625
-9.590	26.485	1272.400	1039.221
-8.575	26.558	1271.086	1038.527
-7.560	26.598	1270.548	1038.276
-6.546	26.536	1270.090	1037.502
-5.531	26.474	1269.019	1036.233
-4.517	26.519	1267.999	1035.614
-3.502	26.590	1266.800	1035.003
-2.487	26.529	1265.841	1033.828
-1.473	26.462	1262.258	1030.478
-0.458	25.635	1247.866	1014.029
0.556	21.878	1232.618	980.792
1.571	18.254	1240.147	966.272
2.586	17.204	1255.296	971.985
3.600	16.541	1242.943	958.573
4.615	12.148	1168.896	877.927
5.629	4.521	1094.000	783.269
6.644	1.068	1075.259	752.657
7.659	0.827	1073.594	750.227
8.673	0.724	1072.782	749.082
9.688	0.812	1071.417	748.502
10.702	1.052	1069.224	748.086
11.717	5.324	1074.573	772.924
12.731	12.623	1083.618	815.654
13.746	16.446	1088.328	838.121
14.761	17.416	1089.180	843.512
15.775	16.724	1087.492	838.708
16.790	15.640	1085.870	832.015
17.804	15.102	1083.839	827.728
18.819	14.746	1082.311	824.728
19.834	14.430	1081.758	822.675
20.848	14.202	1080.914	820.838
21.863	13.845	1080.253	818.501
22.877	13.681	1079.655	817.170
23.892	13.577	1078.741	815.891
24.907	13.591	1078.195	815.476
25.921	13.658	1077.476	815.192
26.936	13.756	1076.155	814.599
27.950	13.791	1074.852	813.712
28.965	13.775	1073.965	812.891
29.980	13.867	1072.713	812.320
30.994	13.891	1071.545	811.481
32.009	13.881	1070.763	810.771
33.023	13.939	1069.981	810.389
34.038	13.957	1068.297	809.129
35.053	13.825	1067.973	808.171
36.067	13.722	1067.084	806.923
37.082	13.834	1066.050	806.613
38.096	13.874	1065.419	806.263
39.111	13.888	1064.624	805.654
40.126	13.836	1063.754	804.676
41.140	13.833	1062.043	803.293
42.155	13.758	1061.151	802.185
43.169	13.784	1059.512	801.000
44.184	13.677	1058.898	799.949
45.199	13.690	1058.119	799.354
46.213	13.717	1056.712	798.347
47.228	13.838	1055.617	798.036
48.242	13.745	1054.308	796.526
49.257	13.762	1053.655	796.044
50.271	13.757	1052.474	795.058
51.286	13.943	1051.706	795.300
52.301	13.795	1051.052	794.025
53.315	13.748	1049.839	792.813
54.330	13.712	1048.668	791.687
55.344	13.714	1048.144	791.230
56.359	13.725	1046.976	790.332
57.374	13.815	1046.167	790.080
58.388	13.638	1045.395	788.584
59.403	13.709	1044.334	788.054
60.417	13.695	1043.716	787.450
61.432	13.659	1042.984	786.656
62.447	13.679	1041.892	785.861
63.461	13.641	1041.162	785.060
64.476	13.740	1040.308	784.815
65.490	13.578	1039.596	783.440
66.505	13.732	1038.627	783.371
67.520	13.724	1038.332	783.040
68.534	13.688	1037.536	782.202
69.549	13.603	1036.507	780.954
70.563	13.691	1035.946	780.877
71.578	13.643	1034.688	779.633
72.593	13.614	1034.252	779.100
73.607	13.592	1033.574	778.420
74.622	13.527	1033.126	777.706
75.636	13.719	1032.003	777.693
76.651	13.602	1031.607	776.775
77.666	13.714	1030.591	776.469
78.680	13.711	1030.199	776.088
79.695	13.538	1029.899	774.984
80.709	13.732	1028.597	774.842
81.724	13.650	1028.263	774.141
82.739	13.694	1027.583	773.766
83.753	13.731	1026.637	773.158
84.768	13.886	1025.404	772.881
85.782	13.872	1024.641	772.170
86.797	13.704	1023.955	770.807
87.812	13.727	1022.688	769.890
88.826	13.772	1021.812	769.372
89.841	13.765	1020.951	768.623
90.855	13.910	1019.805	768.365
91.870	13.874	1019.357	767.792
92.884	13.881	1018.654	767.227
93.899	13.898	1017.405	766.296
94.914	13.811	1016.563	765.193
95.928	13.978	1015.756	765.285
96.943	13.905	1014.831	764.188
97.957	13.813	1014.141	763.175
98.972	13.825	1012.907	762.236
99.987	13.842	1012.374	761.845
101.001	13.806	1011.368	760.855
102.016	13.875	1009.918	760.013
103.030	13.932	1009.481	759.878
104.045	13.834	1009.180	759.137
105.060	13.957	1007.779	758.576
106.074	13.723	1007.362	757.129
107.089	13.824	1006.007	756.501
108.103	13.778	1005.514	755.855
109.118	13.810	1004.261	754.994
110.133	13.732	1003.516	754.010
111.147	13.795	1002.588	753.531
112.162	13.829	1001.886	753.091
113.176	13.834	1001.008	752.388
114.191	13.879	1000.145	751.879
115.206	13.812	999.767	751.224
116.220	13.977	998.554	750.990
117.235	13.871	997.470	749.632
118.249	13.935	996.850	749.387
119.264	13.868	995.992	748.376
120.279	13.864	995.162	747.666
121.293	13.827	994.409	746.870
122.308	13.785	993.745	746.113
123.322	13.961	992.366	745.802
124.337	13.872	991.330	744.559
125.352	13.910	990.183	743.801
126.366	13.905	988.999	742.826
127.381	13.936	988.017	742.160
128.395	13.964	987.430	741.781
129.410	13.853	986.470	740.499
130.424	13.823	985.635	739.672
131.439	13.836	984.872	739.093
132.454	13.945	984.064	738.904
133.468	13.868	982.817	737.558
134.483	13.985	982.095	737.472
135.497	13.928	981.573	736.764
136.512	13.982	980.441	736.088
137.527	13.884	979.832	735.128
138.541	13.856	978.870	734.222
139.556	13.925	978.318	734.044
140.570	13.890	977.680	733.350
141.585	13.978	976.646	732.897
142.600	14.026	975.219	731.970
143.614	14.085	974.761	731.822
144.629	13.985	973.973	730.725
145.643	14.130	972.788	730.408
146.658	14.000	972.079	729.240
147.673	14.045	971.097	728.639
148.687	13.840	971.098	727.678
149.702	13.956	969.570	726.975
150.716	13.897	969.079	726.284
151.731	13.939	967.993	725.588
152.746	14.142	966.913	725.600
153.760	14.099	966.455	725.007
154.775	14.186	966.052	725.019
155.789	14.060	965.708	724.145
156.804	14.231	964.505	723.926
157.819	14.162	964.030	723.205
158.833	14.242	963.560	723.133
159.848	14.267	962.540	722.412
160.862	14.148	961.907	721.360
161.877	14.193	960.648	720.546
162.892	14.169	959.783	719.728
163.906	14.194	958.964	719.160
164.921	14.148	958.114	718.259
165.935	14.088	957.092	717.172
166.950	14.172	956.126	716.747
167.964	14.226	955.187	716.211
168.979	14.334	954.599	716.172
169.994	14.213	953.351	714.652
171.008	14.322	952.997	714.792
172.023	14.280	951.917	713.739
173.037	14.206	951.347	712.932
174.052	14.295	950.730	712.788
175.067	14.258	950.052	712.058
176.081	14.340	949.020	711.569
177.096	14.230	948.707	710.802
178.110	14.291	948.486	710.836
179.125	14.394	947.656	710.591
180.140	14.386	947.063	710.047
181.154	14.483	946.870	710.253
182.169	14.438	946.277	709.556
183.183	14.364	945.519	708.607
184.198	14.324	944.651	707.727
185.213	14.491	944.032	707.909
186.227	14.393	943.206	706.810
187.242	14.433	942.675	706.521
188.256	14.656	941.714	706.679
189.271	14.512	940.934	705.422
190.286	14.440	940.536	704.760
191.300	14.473	939.743	704.240
192.315	14.383	939.225	703.409
193.329	14.539	938.249	703.274
194.344	14.406	938.183	702.604
195.359	14.448	937.167	701.957
196.373	14.560	936.570	701.918
197.388	14.635	936.133	701.845
198.402	14.598	935.585	701.215
199.417	14.532	934.839	700.320
200.432	14.649	934.267	700.319
201.446	14.592	933.882	699.729
202.461	14.739	933.610	700.078
203.475	14.762	932.918	699.596
204.490	14.753	931.795	698.651
205.504	14.808	930.885	698.141
206.519	14.786	930.552	697.734
207.534	14.666	930.070	696.810
208.548	14.584	929.599	696.054
209.563	14.632	928.703	695.521
210.577	14.714	927.761	695.095
211.592	14.686	927.126	694.442
212.607	14.794	926.523	694.378
213.621	14.940	925.108	693.861
214.636	14.871	924.454	693.024
215.650	14.989	924.114	693.199
216.665	14.860	923.618	692.230
217.680	14.901	922.595	691.572
218.694	14.970	922.132	691.448
219.709	14.927	921.210	690.520
220.723	14.896	921.066	690.220
221.738	14.926	920.305	689.714
222.753	14.970	919.137	688.959
223.767	14.996	918.829	688.771
224.782	15.082	918.283	688.658
225.796	15.051	918.184	688.393
226.811	15.013	917.122	687.381
227.826	15.074	916.014	686.740
228.840	14.963	915.793	686.060
229.855	15.081	914.888	685.802
230.869	15.108	914.007	685.193
231.884	14.968	913.532	684.203
232.899	15.108	912.243	683.750
233.913	15.054	911.810	683.145
234.928	15.009	911.175	682.425
235.942	15.045	910.427	681.952
236.957	14.944	910.299	681.380
237.972	15.034	909.590	681.157
238.986	15.103	908.929	680.882
240.001	15.117	908.025	680.201
241.015	15.100	907.583	679.744
242.030	15.190	907.022	679.626
243.045	15.179	906.254	678.947
244.059	15.188	905.838	678.612
245.074	15.278	904.933	678.237
246.088	15.255	904.157	677.502
247.103	15.175	903.967	676.976
248.117	15.283	903.328	676.875
249.132	15.336	902.527	676.430
250.147	15.520	901.843	676.597
251.161	15.423	901.297	675.739
252.176	15.507	900.331	675.292
253.190	15.336	900.184	674.433
254.205	15.413	899.538	674.199
255.220	15.476	898.221	673.404
256.234	15.528	897.728	673.184
257.249	15.576	897.315	673.007
258.263	15.546	896.110	671.927
259.278	15.542	895.816	671.627
260.293	15.662	894.810	671.296
261.307	15.454	894.742	670.355
262.322	15.637	893.934	670.420
263.336	15.748	892.910	670.034
264.351	15.843	892.085	669.734
265.366	15.741	891.760	669.024
266.380	15.826	890.994	668.727
267.395	15.759	890.337	667.911
268.409	15.763	889.665	667.362
269.424	15.732	888.781	666.516
270.439	15.781	888.350	666.331
271.453	15.603	888.129	665.400
272.468	15.733	887.340	665.264
273.482	15.679	886.803	664.590
274.497	15.768	885.933	664.231
275.512	15.742	885.480	663.729
276.526	15.966	884.557	663.863
277.541	15.839	884.530	663.280
278.555	15.835	883.739	662.615
279.570	15.981	882.719	662.364
280.585	16.049	882.038	662.064
281.599	16.049	881.235	661.400
282.614	15.945	880.892	660.675
283.628	15.877	880.540	660.088
284.643	16.073	879.631	660.114
285.657	15.903	879.143	659.028
286.672	15.987	878.747	658.999
287.687	15.942	877.829	658.077
288.701	16.030	876.938	657.694
289.716	16.035	876.707	657.483
290.730	16.071	876.198	657.184
291.745	16.076	875.568	656.670
292.760	16.213	874.689	656.488
293.774	16.197	873.981	655.834
294.789	16.032	873.786	654.990
295.803	16.216	872.790	654.901
296.818	16.124	872.087	653.959
297.833	16.225	871.394	653.771
298.847	16.169	870.884	653.113
299.862	16.256	870.349	652.991
300.876	16.095	870.025	652.067
301.891	16.229	869.175	651.892
302.906	16.270	868.350	651.371
303.920	16.229	868.285	651.107
304.935	16.442	866.935	650.860
305.949	16.407	866.414	650.274
306.964	16.365	866.284	649.957
307.979	16.244	865.781	649.058
308.993	16.476	865.333	649.556
310.008	16.448	864.400	648.689
311.022	16.404	863.891	648.084
312.037	16.546	863.230	648.072
313.052	16.436	862.768	647.250
314.066	16.338	862.325	646.486
315.081	16.400	861.701	646.197
316.095	16.414	861.124	645.759
317.110	16.600	860.007	645.574
318.125	16.564	859.973	645.354
319.139	16.529	859.469	644.784
320.154	16.525	859.163	644.485
321.168	16.617	858.723	644.448
322.183	16.539	858.105	643.628
323.197	16.559	857.549	643.230
324.212	16.506	857.507	642.940
325.227	16.560	856.246	642.143
326.241	16.573	855.607	641.658
327.256	16.610	855.100	641.360
328.270	16.582	854.505	640.752
329.285	16.622	853.919	640.407
330.300	16.534	853.351	639.590
331.314	16.626	852.736	639.423
332.329	16.645	852.432	639.209
333.343	16.630	851.950	638.734
334.358	16.736	851.454	638.705
335.373	16.590	851.350	638.021
336.387	16.673	850.916	637.952
337.402	16.733	850.280	637.646
338.416	16.756	850.155	637.579
339.431	16.813	849.429	637.196
340.446	16.961	849.137	637.475
341.460	16.945	849.018	637.268
342.475	16.874	848.591	636.625
343.489	16.921	848.368	636.580
344.504	16.878	847.633	635.807
345.519	16.975	847.213	635.801
346.533	16.947	846.480	635.091
347.548	16.907	846.393	634.817
348.562	17.061	845.468	634.644
349.577	17.053	844.622	633.923
350.592	16.883	844.117	632.855
351.606	17.011	843.556	632.855
352.621	17.013	842.548	632.050
353.635	16.978	842.249	631.639
354.650	17.087	841.629	631.524
355.665	17.058	841.083	630.953
356.679	17.046	840.294	630.260
357.694	17.155	839.727	630.181
358.708	17.130	839.097	629.562
359.723	17.046	838.595	628.818
360.738	17.205	837.778	628.737
361.752	17.140	837.121	627.949
362.767	17.178	836.610	627.649
363.781	17.226	836.137	627.417
364.796	17.303	835.891	627.462
365.810	17.249	835.630	627.009
366.825	17.298	835.121	626.754
367.840	17.372	834.592	626.573
368.854	17.319	833.835	625.754
369.869	17.356	833.660	625.704
370.883	17.329	833.211	625.213
371.898	17.407	832.873	625.189
372.913	17.433	832.608	625.030
373.927	17.435	831.732	624.326
374.942	17.368	831.495	623.846
375.956	17.390	831.415	623.814
376.971	17.491	830.471	623.419
377.986	17.536	830.099	623.248
379.000	17.690	829.690	623.450
380.015	17.637	828.979	622.667
381.029	17.557	828.378	621.867
382.044	17.683	827.872	621.894
383.059	17.641	827.500	621.407
384.073	17.702	826.607	620.903
385.088	17.701	826.217	620.551
386.102	17.396	825.616	618.934
387.117	17.641	824.712	619.094
388.132	17.593	824.376	618.611
389.146	17.651	823.782	618.321
390.161	17.675	823.533	618.166
391.175	17.679	822.999	617.725
392.190	17.737	822.536	617.534
393.205	17.721	822.059	617.064
394.219	17.563	821.808	616.248
395.234	17.702	821.418	616.404
396.248	17.767	820.794	616.116
397.263	17.679	820.280	615.357
398.278	17.721	819.990	615.240
399.292	17.692	819.894	615.007
400.307	17.655	819.383	614.435
401.321	17.737	818.807	614.246
402.336	17.715	818.126	613.599
403.350	17.748	817.705	613.349
404.365	17.663	817.511	612.843
405.380	17.937	816.858	613.285
406.394	17.895	816.087	612.500
407.409	17.812	816.015	612.093
408.423	17.969	815.661	612.339
409.438	18.079	814.872	612.084
410.453	18.014	814.360	611.414
411.467	18.090	814.182	611.499
412.482	18.002	813.807	610.848
413.496	18.082	813.410	610.780
414.511	18.123	813.273	610.772
415.526	18.153	812.621	610.334
416.540	18.118	811.914	609.623
417.555	18.117	811.474	609.236
418.569	18.224	811.229	609.380
419.584	18.315	810.383	609.013
420.599	18.204	810.233	608.454
421.613	113.145	1297.255	1480.454
422.628	97.816	1368.188	1480.551
