DTS Sentinel unit serial number:	SN413079Multiplexer serial number:	ORYXHardware model number:	OX4-SRSoftware version number:	ORYX F/W v4.00 Oryx Data Collector v3.7.2.0data status	okinstallation	princeton_trtdifferential loss correction	single-endedforward channel	channel 1reverse channel	N/Adate	2019/09/19time	09:34:35forward acquisition time	60.00reverse acquisition time	0.00gamma	496.2192k internal	0.2340k external	0.2340temperature offset calibration	0.9999default loss term (dB/km)	0.3790temperature slope calibration	1.0000multiplexer offset coefficient	1.0000multiplexer slope coefficient	1.0000fibre end	0.00T internal ref (°C)	22.94T ext. ref 1 (°C)	0.62T ext. ref 2 (°C)	19.33length (m)	temperature (°C)	Stokes	anti-Stokes-747.200	-70.778	0.123	-0.047
-746.185	-200.000	0.005	0.135
-745.171	108.471	-0.054	0.065
-744.156	86.697	0.140	-0.155
-743.142	-135.623	-0.446	0.053
-742.127	-9.355	-0.039	0.026
-741.112	355.771	-0.184	-0.368
-740.098	-2.476	-0.094	0.066
-739.083	505.198	0.043	0.100
-738.069	2.543	0.268	0.195
-737.054	204.470	-0.299	0.464
-736.039	-116.463	-0.375	0.069
-735.025	800.000	0.126	0.403
-734.010	-88.718	-0.438	-0.130
-732.996	289.542	-0.138	-0.250
-731.981	622.188	-0.068	0.171
-730.966	-200.000	0.023	0.170
-729.952	385.401	0.065	-0.134
-728.937	10.128	0.165	-0.126
-727.923	-78.312	-0.076	0.026
-726.908	-70.603	-0.272	-0.103
-725.894	-4.356	0.215	-0.149
-724.879	372.566	-0.033	-0.068
-723.864	800.000	-0.024	0.105
-722.850	-143.989	-0.148	-0.014
-721.835	401.531	0.056	-0.118
-720.821	-200.000	-0.033	-0.154
-719.806	319.973	-0.140	-0.267
-718.791	10.592	-0.381	0.291
-717.777	-200.000	-0.005	0.162
-716.762	158.443	0.042	-0.059
-715.748	-200.000	-0.029	-0.141
-714.733	-121.854	-0.395	0.065
-713.718	13.722	-0.274	-0.213
-712.704	-75.224	-0.333	-0.119
-711.689	800.000	-0.179	-0.594
-710.675	124.647	-0.099	-0.125
-709.660	-90.405	0.306	-0.089
-708.645	-188.261	0.188	0.002
-707.631	44.781	-0.347	0.319
-706.616	7.608	0.165	0.124
-705.602	71.707	-0.137	-0.142
-704.587	241.601	-0.049	-0.082
-703.572	-16.884	0.116	-0.073
-702.558	25.107	-0.206	-0.171
-701.543	800.000	-0.056	-0.222
-700.529	-200.000	-0.087	0.433
-699.514	-28.819	0.197	0.113
-698.499	-90.608	-0.117	-0.034
-697.485	158.621	-0.024	-0.033
-696.470	-114.275	0.412	-0.080
-695.456	-200.000	-0.001	0.379
-694.441	49.767	-0.231	0.218
-693.426	5.069	0.086	-0.064
-692.412	42.279	-0.178	-0.162
-691.397	-200.000	-0.422	0.000
-690.383	248.091	0.111	-0.188
-689.368	207.742	0.051	-0.080
-688.354	99.232	-0.049	0.057
-687.339	800.000	0.087	-0.331
-686.324	-131.576	0.340	0.045
-685.310	29.734	-0.467	0.398
-684.295	88.984	-0.177	0.197
-683.281	-200.000	-0.021	-0.189
-682.266	102.645	0.222	-0.260
-681.251	54.341	0.200	0.192
-680.237	800.000	-0.112	-0.482
-679.222	-5.754	-0.163	-0.112
-678.208	-200.000	0.047	-0.219
-677.193	185.859	0.054	-0.080
-676.178	-62.719	-0.188	0.078
-675.164	800.000	0.085	-0.275
-674.149	226.630	-0.016	-0.026
-673.135	-200.000	-0.004	-0.163
-672.120	162.956	0.176	-0.247
-671.105	-95.512	-0.411	0.110
-670.091	-200.000	-0.008	-0.115
-669.076	134.594	0.080	0.104
-668.062	155.501	-0.215	0.296
-667.047	-80.217	0.130	0.043
-666.032	-200.000	-0.040	-0.305
-665.018	-127.650	0.131	-0.019
-664.003	274.740	-0.143	0.252
-662.989	302.432	0.100	-0.185
-661.974	620.872	-0.101	0.253
-660.959	20.617	0.322	-0.260
-659.945	-101.057	0.117	-0.029
-658.930	758.927	0.070	0.190
-657.916	-171.393	0.414	0.014
-656.901	-200.000	0.002	-0.434
-655.886	-168.976	-0.083	-0.003
-654.872	373.395	0.051	0.104
-653.857	-66.187	0.025	0.010
-652.843	-200.000	-0.008	-0.081
-651.828	659.446	0.045	0.114
-650.814	-7.039	-0.222	-0.151
-649.799	-28.505	-0.108	-0.062
-648.784	-73.778	0.089	0.032
-647.770	-76.170	0.091	0.032
-646.755	272.916	0.035	0.062
-645.741	-29.216	0.235	0.135
-644.726	231.040	-0.113	-0.184
-643.711	-165.813	-0.080	0.003
-642.697	-103.952	-0.285	0.066
-641.682	682.601	0.120	-0.312
-640.668	-64.033	-0.246	-0.100
-639.653	573.173	0.036	-0.087
-638.638	800.000	-0.064	0.203
-637.624	535.618	-0.132	-0.312
-636.609	-45.714	-0.126	-0.062
-635.595	-200.000	0.029	0.245
-634.580	-83.678	-0.176	-0.056
-633.565	-21.969	0.123	-0.075
-632.551	-143.035	-0.177	0.017
-631.536	-200.000	-0.065	-0.415
-630.522	-105.759	-0.088	-0.020
-629.507	15.450	-0.138	-0.108
-628.492	-153.504	-0.131	0.009
-627.478	203.880	0.102	-0.158
-626.463	124.759	0.200	-0.252
-625.449	-51.664	-0.345	0.161
-624.434	11.552	0.187	-0.143
-623.419	-95.526	-0.074	0.020
-622.405	-81.308	-0.207	-0.068
-621.390	-98.635	-0.336	-0.085
-620.376	-163.333	0.392	0.019
-619.361	-200.000	0.016	0.170
-618.346	66.034	-0.013	-0.013
-617.332	-61.118	-0.081	-0.034
-616.317	-200.000	0.024	0.478
-615.303	238.235	0.153	-0.253
-614.288	800.000	0.039	-0.167
-613.273	-179.884	0.250	-0.005
-612.259	800.000	-0.109	-0.302
-611.244	92.944	-0.148	-0.166
-610.230	-200.000	-0.016	0.077
-609.215	-16.272	0.209	0.132
-608.201	800.000	0.042	-0.175
-607.186	268.683	-0.089	0.156
-606.171	26.759	0.092	-0.077
-605.157	-62.815	0.237	-0.098
-604.142	7.010	0.250	-0.185
-603.128	56.219	-0.215	-0.208
-602.113	-5.929	-0.307	-0.209
-601.098	-152.629	-0.169	-0.012
-600.084	-182.614	-0.285	-0.005
-599.069	42.749	-0.204	0.186
-598.055	92.950	-0.198	0.223
-597.040	-200.000	-0.003	-0.104
-596.025	-200.000	0.025	-0.274
-595.011	-200.000	0.005	-0.381
-593.996	-66.785	0.364	0.144
-592.982	200.225	0.066	-0.101
-591.967	21.151	-0.237	-0.192
-590.952	678.261	-0.036	0.094
-589.938	-103.456	-0.501	0.118
-588.923	-31.915	0.176	-0.098
-587.909	-165.416	-0.344	0.015
-586.894	112.340	-0.114	0.138
-585.879	-56.651	0.320	-0.141
-584.865	62.947	-0.053	0.052
-583.850	800.000	0.106	0.325
-582.836	-68.748	0.329	-0.127
-581.821	800.000	-0.084	0.346
-580.806	462.565	-0.066	-0.146
-579.792	242.406	-0.110	-0.184
-578.777	-82.843	0.145	-0.047
-577.763	-146.445	-0.242	-0.021
-576.748	-200.000	0.010	0.140
-575.733	800.000	-0.077	-0.275
-574.719	-200.000	-0.006	0.103
-573.704	386.431	0.063	-0.130
-572.690	-113.102	0.344	-0.068
-571.675	-126.085	-0.156	0.023
-570.661	-155.310	0.314	0.020
-569.646	-200.000	-0.040	0.296
-568.631	95.941	-0.091	-0.103
-567.617	419.868	-0.129	-0.274
-566.602	605.643	-0.100	0.248
-565.588	-184.323	-0.218	0.004
-564.573	57.808	-0.283	0.276
-563.558	-2.890	-0.076	-0.053
-562.544	79.090	0.090	-0.096
-561.529	60.211	0.226	0.223
-560.515	800.000	0.072	-0.225
-559.500	800.000	-0.043	-0.140
-558.485	800.000	0.025	0.085
-557.471	159.409	0.130	0.181
-556.456	800.000	0.036	0.148
-555.442	5.108	-0.196	-0.144
-554.427	-200.000	-0.001	-0.177
-553.412	14.417	0.178	0.138
-552.398	-200.000	0.024	-0.306
-551.383	18.588	0.048	0.038
-550.369	-187.524	0.437	0.006
-549.354	736.578	0.081	-0.217
-548.339	-113.730	-0.239	-0.046
-547.325	800.000	-0.056	-0.191
-546.310	-44.386	-0.042	-0.021
-545.296	-73.243	-0.162	-0.059
-544.281	-17.692	-0.118	0.074
-543.266	13.005	-0.088	-0.068
-542.252	245.556	0.155	-0.259
-541.237	-48.539	0.175	0.084
-540.223	346.225	0.040	0.077
-539.208	-200.000	0.004	-0.196
-538.193	-158.075	-0.076	-0.004
-537.179	126.167	0.120	0.151
-536.164	671.618	-0.079	-0.204
-535.150	-184.500	-0.368	0.006
-534.135	161.551	-0.134	-0.187
-533.121	-200.000	-0.001	0.146
-532.106	140.397	0.071	0.094
-531.091	205.138	-0.048	-0.074
-530.077	-69.775	0.382	-0.145
-529.062	50.007	0.105	-0.099
-528.048	800.000	-0.066	-0.195
-527.033	415.429	-0.155	-0.329
-526.018	52.238	-0.142	-0.135
-525.004	-200.000	-0.023	-0.269
-523.989	-25.193	0.174	-0.103
-522.975	-200.000	0.059	-0.272
-521.960	537.595	0.081	0.192
-520.945	584.856	-0.061	0.149
-519.931	800.000	-0.002	0.009
-518.916	-63.747	0.141	-0.058
-517.902	571.398	0.132	0.319
-516.887	-200.000	-0.029	0.218
-515.872	-24.064	-0.210	-0.125
-514.858	-134.085	0.243	-0.030
-513.843	180.674	-0.075	0.110
-512.829	-200.000	0.014	-0.059
-511.814	-101.964	-0.280	-0.067
-510.799	-41.604	-0.142	0.073
-509.785	-163.068	0.195	0.009
-508.770	-42.394	-0.089	0.045
-507.756	501.608	0.156	0.357
-506.741	47.642	0.111	-0.103
-505.726	-200.000	-0.020	-0.161
-504.712	-200.000	0.044	-0.252
-503.697	-143.168	-0.216	-0.021
-502.683	-31.519	0.083	-0.046
-501.668	708.925	0.111	0.291
-500.653	-60.952	0.068	-0.028
-499.639	6.485	-0.241	-0.178
-498.624	2.763	0.093	0.067
-497.610	5.489	-0.263	0.193
-496.595	-9.163	0.181	0.120
-495.581	7.756	-0.250	0.186
-494.566	-200.000	-0.008	-0.126
-493.551	800.000	-0.103	-0.330
-492.537	-34.172	0.080	0.044
-491.522	233.356	0.050	0.082
-490.508	-2.374	-0.100	0.070
-489.493	171.756	0.104	0.149
-488.478	236.966	-0.117	-0.192
-487.464	-18.012	0.208	-0.130
-486.449	260.336	-0.122	0.210
-485.435	-13.753	0.080	0.051
-484.420	800.000	0.064	0.180
-483.405	632.547	0.095	0.238
-482.391	-80.665	0.260	-0.086
-481.376	-80.927	-0.293	-0.096
-480.362	-145.947	-0.019	-0.002
-479.347	-200.000	-0.003	-0.019
-478.332	78.548	-0.091	-0.097
-477.318	-84.106	0.142	-0.045
-476.303	164.938	-0.056	0.078
-475.289	190.346	-0.030	0.044
-474.274	152.040	-0.150	-0.203
-473.259	13.121	0.268	-0.206
-472.245	-200.000	0.021	0.158
-471.230	-95.711	-0.076	0.020
-470.216	-200.000	-0.030	-0.147
-469.201	83.669	-0.082	-0.088
-468.186	95.374	-0.064	-0.072
-467.172	-123.543	-0.182	0.029
-466.157	404.324	-0.024	-0.049
-465.143	308.036	-0.014	-0.026
-464.128	57.272	0.270	0.262
-463.113	-96.491	-0.521	0.137
-462.099	-33.521	0.281	0.154
-461.084	-5.847	-0.181	-0.123
-460.070	163.228	0.174	0.242
-459.055	63.876	0.277	0.276
-458.040	86.705	0.179	-0.195
-457.026	361.741	0.083	0.165
-456.011	-200.000	-0.002	0.066
-454.997	800.000	-0.079	0.253
-453.982	-58.057	-0.148	0.064
-452.968	-86.979	0.152	0.046
-451.953	-200.000	-0.003	0.076
-450.938	-184.343	-0.493	0.008
-449.924	-200.000	-0.050	-0.227
-448.909	270.974	0.101	-0.176
-447.895	-7.764	-0.327	-0.219
-446.880	800.000	0.113	0.346
-445.865	396.058	-0.022	-0.045
-444.851	-175.648	0.211	0.006
-443.836	525.652	-0.076	0.177
-442.822	-126.767	-0.318	0.047
-441.807	31.570	0.028	0.024
-440.792	-13.956	0.298	0.191
-439.778	8.644	-0.351	-0.262
-438.763	441.934	0.028	0.061
-437.749	227.344	0.139	-0.223
-436.734	-13.356	-0.255	-0.164
-435.719	163.277	-0.058	-0.081
-434.705	62.856	-0.083	-0.082
-433.690	586.450	0.106	0.258
-432.676	-200.000	-0.056	-0.303
-431.661	64.216	0.138	-0.138
-430.646	-135.021	0.149	0.018
-429.632	-142.635	-0.155	0.015
-428.617	-67.980	-0.245	-0.095
-427.603	-37.475	0.021	-0.011
-426.588	37.267	0.069	0.060
-425.573	-20.561	0.248	-0.151
-424.559	800.000	0.089	-0.330
-423.544	39.481	0.272	0.241
-422.530	-74.897	0.064	0.023
-421.515	360.875	0.156	-0.310
-420.500	532.568	0.162	0.381
-419.486	101.174	0.261	0.300
-418.471	52.942	0.187	0.177
-417.457	108.956	-0.137	0.162
-416.442	-97.245	0.145	0.038
-415.428	-200.000	0.004	-0.053
-414.413	-200.000	0.013	-0.236
-413.398	8.048	-0.014	-0.011
-412.384	228.620	-0.081	-0.130
-411.369	800.000	-0.080	0.234
-410.355	-119.733	0.069	0.012
-409.340	104.875	0.216	0.253
-408.325	71.195	0.109	-0.112
-407.311	-16.896	0.103	-0.064
-406.296	-52.912	-0.373	0.170
-405.282	-79.957	-0.305	0.101
-404.267	-200.000	-0.018	-0.288
-403.252	-67.233	-0.133	-0.052
-402.238	800.000	0.097	0.318
-401.223	-200.000	-0.015	0.175
-400.209	-116.526	0.324	0.059
-399.194	294.896	-0.044	-0.080
-398.179	309.275	-0.124	-0.230
-397.165	-76.874	0.242	-0.084
-396.150	800.000	-0.014	0.060
-395.136	-200.000	0.012	-0.192
-394.121	-200.000	0.013	0.191
-393.106	-83.881	-0.294	-0.093
-392.092	-73.734	-0.083	0.030
-391.077	26.683	0.064	-0.053
-390.063	9.694	0.240	0.180
-389.048	-144.626	-0.011	0.001
-388.033	-129.407	0.479	0.066
-387.019	93.613	-0.224	-0.250
-386.004	-83.688	-0.193	-0.061
-384.990	-200.000	-0.058	0.269
-383.975	565.883	-0.049	-0.118
-382.960	351.746	0.101	-0.198
-381.946	29.986	0.285	-0.240
-380.931	-46.133	0.266	0.130
-379.917	-200.000	-0.001	-0.042
-378.902	16.742	-0.110	0.086
-377.888	-200.000	-0.026	0.210
-376.873	-200.000	-0.028	-0.122
-375.858	-64.748	0.233	-0.093
-374.844	-139.350	0.280	0.030
-373.829	-9.057	0.198	0.131
-372.815	-172.096	0.274	0.009
-371.800	-200.000	-0.004	0.295
-370.785	-159.682	0.071	-0.004
-369.771	148.732	0.273	0.365
-368.756	-115.485	0.283	0.053
-367.742	599.640	0.094	-0.230
-366.727	271.625	-0.233	-0.405
-365.712	137.562	-0.081	0.104
-364.698	-200.000	0.060	-0.275
-363.683	-84.865	0.254	-0.079
-362.669	-200.000	-0.011	0.305
-361.654	671.861	0.010	0.027
-360.639	138.565	0.161	-0.208
-359.625	-200.000	0.038	0.327
-358.610	-76.036	-0.259	0.091
-357.596	134.111	-0.235	0.300
-356.581	-129.054	-0.145	0.020
-355.566	-200.000	0.029	0.186
-354.552	-94.635	0.286	0.077
-353.537	85.592	0.093	-0.101
-352.523	81.501	0.160	-0.171
-351.508	104.092	0.281	0.326
-350.493	-200.000	0.015	0.418
-349.479	-68.425	-0.208	-0.080
-348.464	800.000	-0.068	0.261
-347.450	41.505	0.209	0.186
-346.435	-8.955	-0.191	0.126
-345.420	-32.735	0.343	-0.188
-344.406	360.559	0.062	0.123
-343.391	130.973	0.075	0.095
-342.377	-200.000	-0.043	0.220
-341.362	-170.310	0.312	-0.011
-340.348	-200.000	-0.010	-0.107
-339.333	34.477	-0.200	0.173
-338.318	-58.759	0.197	-0.084
-337.304	53.258	-0.404	-0.381
-336.289	800.000	0.100	0.393
-335.275	-200.000	0.031	0.261
-334.260	56.905	-0.221	0.212
-333.245	3.924	-0.053	-0.038
-332.231	-200.000	-0.006	-0.066
-331.216	126.872	0.163	-0.204
-330.202	-198.178	0.180	0.001
-329.187	100.147	0.091	0.104
-328.172	21.985	-0.245	0.197
-327.158	152.467	0.168	-0.226
-326.143	-200.000	-0.046	0.304
-325.129	510.938	0.048	0.110
-324.114	-158.196	0.353	-0.020
-323.099	-118.827	0.291	0.050
-322.085	-200.000	-0.049	-0.435
-321.070	-200.000	-0.020	0.211
-320.056	-89.176	0.416	0.121
-319.041	-200.000	-0.003	0.137
-318.026	800.000	-0.098	-0.341
-317.012	-113.917	0.070	-0.013
-315.997	238.539	0.031	-0.051
-314.983	-60.436	-0.190	-0.080
-313.968	-200.000	0.081	-0.388
-312.953	62.293	-0.137	0.135
-311.939	800.000	-0.054	0.167
-310.924	670.476	0.013	0.034
-309.910	-10.696	0.201	-0.131
-308.895	-156.644	-0.199	-0.012
-307.880	-71.490	-0.111	-0.041
-306.866	-200.000	0.003	-0.064
-305.851	69.281	0.250	-0.253
-304.837	128.706	-0.272	-0.342
-303.822	-82.753	-0.057	-0.018
-302.807	150.935	-0.085	0.114
-301.793	-60.517	-0.295	0.123
-300.778	800.000	-0.036	-0.103
-299.764	-55.675	0.040	0.018
-298.749	800.000	0.119	-0.325
-297.735	-4.336	0.067	0.046
-296.720	-200.000	0.013	-0.232
-295.705	127.550	-0.089	-0.111
-294.691	136.213	-0.195	0.250
-293.676	-200.000	0.033	-0.259
-292.662	-157.815	0.407	0.024
-291.647	111.021	-0.255	-0.302
-290.632	26.791	0.130	0.107
-289.618	38.681	0.219	0.192
-288.603	341.097	0.143	-0.276
-287.589	-81.296	-0.157	-0.051
-286.574	-200.000	0.024	-0.120
-285.559	-200.000	0.033	0.167
-284.545	-131.951	0.067	0.009
-283.530	281.200	-0.157	-0.277
-282.516	-67.979	-0.106	0.041
-281.501	279.788	0.253	0.446
-280.486	260.978	-0.073	0.124
-279.472	800.000	0.028	0.085
-278.457	50.969	-0.387	-0.361
-277.443	-35.928	-0.482	-0.257
-276.428	553.581	-0.150	0.356
-275.413	9.133	0.353	-0.263
-274.399	-136.612	0.171	0.019
-273.384	-7.192	0.067	0.045
-272.370	-200.000	-0.016	0.072
-271.355	-30.978	-0.264	0.147
-270.340	-43.288	0.064	0.032
-269.326	42.211	0.133	-0.119
-268.311	198.291	-0.044	-0.066
-267.297	-60.553	0.176	0.073
-266.282	800.000	-0.025	0.096
-265.267	800.000	-0.001	0.003
-264.253	-54.079	0.199	-0.089
-263.238	-90.084	-0.118	-0.034
-262.224	229.163	-0.180	0.289
-261.209	88.644	-0.173	0.189
-260.195	560.992	0.025	0.060
-259.180	762.806	-0.006	-0.015
-258.165	-67.873	-0.397	0.152
-257.151	-86.574	0.078	0.023
-256.136	800.000	0.032	-0.107
-255.122	-136.868	-0.204	0.023
-254.107	33.486	-0.103	-0.088
-253.092	800.000	-0.028	0.098
-252.078	-130.189	-0.224	-0.030
-251.063	-59.002	-0.359	0.152
-250.049	800.000	-0.086	-0.247
-249.034	191.156	0.091	-0.135
-248.019	92.737	-0.109	-0.121
-247.005	-86.980	-0.228	-0.068
-245.990	76.018	-0.264	-0.274
-244.976	-148.700	-0.143	0.011
-243.961	-200.000	0.034	0.162
-242.946	9.675	0.069	-0.051
-241.932	36.730	-0.172	0.150
-240.917	-200.000	-0.010	-0.102
-239.903	800.000	-0.057	0.167
-238.888	-71.019	0.319	-0.118
-237.873	800.000	-0.036	-0.130
-236.859	-35.890	-0.150	0.080
-235.844	181.156	-0.130	-0.187
-234.830	8.849	-0.222	-0.164
-233.815	-200.000	0.076	-0.480
-232.800	-64.465	-0.161	0.064
-231.786	-71.139	0.125	0.046
-230.771	-64.203	0.185	-0.074
-229.757	-200.000	0.015	-0.073
-228.742	-200.000	-0.021	-0.325
-227.727	-200.000	-0.054	-0.249
-226.713	-95.988	-0.210	-0.055
-225.698	-109.637	0.346	0.072
-224.684	800.000	-0.140	0.390
-223.669	587.942	-0.055	-0.133
-222.655	-143.582	0.251	0.023
-221.640	-108.814	-0.153	0.032
-220.625	-200.000	0.046	0.396
-219.611	220.362	-0.186	0.292
-218.596	565.736	-0.239	0.569
-217.582	-8.179	-0.258	0.171
-216.567	-200.000	-0.002	-0.117
-215.552	-30.850	-0.240	-0.133
-214.538	270.143	-0.188	0.325
-213.523	800.000	-0.042	0.171
-212.509	71.734	-0.131	-0.134
-211.494	-153.311	0.126	0.009
-210.479	-59.399	0.079	-0.033
-209.465	16.100	-0.146	-0.113
-208.450	106.270	-0.113	-0.131
-207.436	-105.956	-0.183	-0.040
-206.421	-149.956	-0.167	0.013
-205.406	-152.446	0.219	0.015
-204.392	-176.442	0.596	0.015
-203.377	-33.516	-0.086	-0.047
-202.363	31.332	-0.141	0.118
-201.348	65.274	0.192	0.190
-200.333	-200.000	0.039	-0.188
-199.319	25.891	0.088	0.072
-198.304	-104.364	0.328	0.075
-197.290	800.000	0.088	0.370
-196.275	119.495	0.158	0.192
-195.260	-200.000	0.021	0.103
-194.246	-200.000	0.020	0.193
-193.231	66.833	0.113	-0.113
-192.217	-6.253	0.231	-0.155
-191.202	-200.000	-0.026	-0.263
-190.187	800.000	-0.063	-0.170
-189.173	800.000	-0.056	0.165
-188.158	-151.092	-0.260	0.019
-187.144	-200.000	0.008	0.277
-186.129	88.407	0.261	-0.284
-185.114	-200.000	-0.054	-0.253
-184.100	5.793	-0.371	-0.269
-183.085	719.767	0.113	-0.294
-182.071	50.026	0.179	0.165
-181.056	-89.943	-0.135	-0.039
-180.042	429.631	0.101	0.214
-179.027	-63.877	-0.151	-0.061
-178.012	452.487	0.118	-0.256
-176.998	165.838	-0.254	0.352
-175.983	-111.641	-0.437	0.087
-174.969	14.277	0.073	-0.056
-173.954	147.678	0.295	0.390
-172.939	-159.781	-0.261	-0.014
-171.925	800.000	0.118	0.418
-170.910	-89.819	0.169	-0.048
-169.896	-80.642	0.193	0.063
-168.881	-200.000	-0.058	0.283
-167.866	163.338	-0.127	-0.175
-166.852	-59.124	-0.275	-0.116
-165.837	-200.000	0.005	0.067
-164.823	61.322	0.085	-0.083
-163.808	465.161	-0.091	0.200
-162.793	326.738	0.103	0.193
-161.779	101.149	0.144	-0.164
-160.764	445.721	-0.045	0.096
-159.750	-200.000	0.049	0.347
-158.735	800.000	0.022	0.067
-157.720	800.000	-0.112	0.434
-156.706	-38.721	0.334	-0.172
-155.691	-102.374	0.362	-0.085
-154.677	-200.000	-0.002	0.172
-153.662	-7.534	0.321	0.213
-152.647	193.382	0.027	0.040
-151.633	-102.989	0.262	0.061
-150.618	312.960	0.151	0.279
-149.604	-99.316	0.128	-0.032
-148.589	-200.000	0.022	0.220
-147.574	-58.753	0.182	-0.077
-146.560	-200.000	-0.043	-0.286
-145.545	-200.000	0.075	-0.371
-144.531	-16.735	0.148	-0.092
-143.516	71.380	-0.184	0.187
-142.502	74.628	-0.109	-0.112
-141.487	-57.046	0.196	0.084
-140.472	282.224	-0.114	-0.200
-139.458	-27.185	0.286	0.163
-138.443	313.556	0.163	0.300
-137.429	-200.000	0.044	-0.377
-136.414	-162.155	0.366	0.018
-135.399	66.779	0.040	0.040
-134.385	198.848	-0.178	0.267
-133.370	-200.000	0.005	-0.152
-132.356	-131.793	0.302	0.039
-131.341	-159.076	-0.244	-0.013
-130.326	35.355	-0.135	0.116
-129.312	-110.890	-0.337	-0.068
-128.297	800.000	-0.046	-0.147
-127.283	33.084	0.045	0.038
-126.268	4.573	0.410	-0.294
-125.253	119.557	-0.113	0.137
-124.239	50.991	-0.204	0.190
-123.224	-91.570	0.264	-0.074
-122.210	-23.223	0.025	0.015
-121.195	704.716	-0.072	-0.186
-120.180	-200.000	-0.005	-0.057
-119.166	-2.035	0.297	-0.204
-118.151	4.875	-0.106	0.076
-117.137	-74.918	-0.194	-0.068
-116.122	-15.820	0.382	-0.238
-115.107	-200.000	-0.024	-0.294
-114.093	71.305	0.132	0.134
-113.078	72.734	-0.086	-0.088
-112.064	17.264	0.185	-0.144
-111.049	501.612	0.026	0.058
-110.034	399.874	-0.035	-0.073
-109.020	157.624	-0.130	-0.176
-108.005	-200.000	0.001	0.125
-106.991	55.867	-0.057	0.054
-105.976	35.036	-0.267	-0.229
-104.962	-200.000	-0.000	-0.072
-103.947	-112.796	0.214	-0.042
-102.932	-200.000	0.023	-0.411
-101.918	-200.000	-0.005	-0.035
-100.903	339.455	-0.081	-0.155
-99.889	118.265	-0.113	-0.136
-98.874	345.339	0.085	-0.164
-97.859	-109.924	-0.035	-0.007
-96.845	800.000	0.096	-0.361
-95.830	-200.000	0.027	0.116
-94.816	800.000	-0.035	-0.119
-93.801	-173.005	0.506	-0.015
-92.786	497.608	-0.063	-0.142
-91.772	800.000	0.054	-0.157
-90.757	-18.175	-0.312	0.191
-89.743	-7.546	0.156	-0.103
-88.728	800.000	-0.075	-0.229
-87.713	-57.732	-0.103	-0.044
-86.699	-200.000	-0.001	0.223
-85.684	-200.000	0.012	0.096
-84.670	180.604	-0.082	0.117
-83.655	800.000	0.166	0.579
-82.640	-11.136	-0.120	0.077
-81.626	-51.915	-0.218	-0.099
-80.611	-147.768	-0.220	0.018
-79.597	72.073	0.153	0.156
-78.582	-184.926	-0.250	0.004
-77.567	-101.638	0.192	-0.046
-76.553	27.748	0.162	-0.133
-75.538	-100.387	0.248	-0.060
-74.524	-123.304	-0.297	-0.046
-73.509	-4.434	0.180	0.121
-72.494	-74.092	-0.163	-0.058
-71.480	-200.000	0.032	-0.364
-70.465	-71.876	0.349	-0.127
-69.451	-11.720	0.144	0.092
-68.436	12.733	0.121	0.091
-67.422	800.000	0.120	0.358
-66.407	105.268	0.078	-0.090
-65.392	-126.970	0.220	-0.032
-64.378	-200.000	0.029	0.274
-63.363	-171.351	-0.141	0.005
-62.349	-106.380	0.409	0.089
-61.334	33.179	-1.146	-0.970
-60.319	6.329	0.887	0.642
-59.305	-200.000	-0.181	-0.937
-58.290	411.272	0.673	1.393
-57.276	466.197	0.679	1.484
-56.261	-200.000	123.814	635.460
-55.246	392.316	1575.570	3195.613
-54.232	139.604	2751.201	3534.656
-53.217	94.415	2183.823	2420.110
-52.203	34.803	1609.297	1373.232
-51.188	26.249	1349.705	1099.852
-50.173	23.611	1311.778	1053.273
-49.159	50.705	1381.776	1276.008
-48.144	47.803	1392.685	1268.339
-47.130	26.379	1340.125	1092.656
-46.115	23.135	1321.087	1057.731
-45.100	22.821	1316.306	1051.993
-44.086	22.775	1313.979	1049.819
-43.071	22.771	1311.369	1047.667
-42.057	22.689	1309.287	1045.476
-41.042	22.630	1307.989	1044.051
-40.027	22.875	1305.903	1043.792
-39.013	22.779	1304.082	1041.726
-37.998	22.900	1302.040	1040.768
-36.984	22.938	1300.342	1039.593
-35.969	22.976	1298.413	1038.232
-34.954	23.045	1296.933	1037.410
-33.940	22.900	1296.300	1036.017
-32.925	22.963	1294.524	1034.921
-31.911	22.990	1292.887	1033.733
-30.896	23.004	1291.510	1032.668
-29.881	23.058	1290.245	1031.931
-28.867	23.091	1289.137	1031.200
-27.852	23.101	1287.407	1029.831
-26.838	23.040	1286.283	1028.536
-25.823	23.126	1284.987	1027.960
-24.809	23.069	1283.250	1026.198
-23.794	23.056	1281.961	1025.049
-22.779	23.048	1280.821	1024.051
-21.765	22.945	1279.833	1022.627
-20.750	23.012	1278.421	1021.844
-19.736	22.934	1277.078	1020.283
-18.721	23.009	1275.516	1019.425
-17.706	22.821	1274.705	1017.652
-16.692	22.965	1273.420	1017.417
-15.677	22.755	1272.948	1015.786
-14.663	22.770	1271.362	1014.570
-13.648	22.850	1270.223	1014.080
-12.633	22.934	1269.555	1013.986
-11.619	22.884	1269.008	1013.226
-10.604	22.905	1267.593	1012.177
-9.590	22.826	1267.087	1011.276
-8.575	22.815	1265.720	1010.082
-7.560	22.943	1264.706	1009.965
-6.546	22.883	1264.351	1009.300
-5.531	22.748	1263.574	1007.868
-4.517	22.851	1262.504	1007.564
-3.502	22.899	1261.250	1006.793
-2.487	22.949	1260.350	1006.323
-1.473	22.960	1255.991	1002.863
-0.458	21.763	1242.212	985.099
0.556	17.577	1227.893	951.929
1.571	14.441	1235.862	940.359
2.586	13.837	1251.611	948.805
3.600	13.643	1239.995	938.819
4.615	10.230	1165.944	864.472
5.629	3.681	1094.217	778.303
6.644	0.826	1077.067	751.860
7.659	0.554	1075.797	749.557
8.673	0.486	1074.564	748.290
9.688	0.624	1073.007	747.826
10.702	0.736	1070.660	746.677
11.717	4.462	1075.660	768.560
12.731	11.204	1084.413	808.284
13.746	15.619	1090.182	834.482
14.761	17.049	1091.437	842.473
15.775	16.320	1089.791	837.513
16.790	15.510	1087.227	831.464
17.804	14.702	1085.974	826.431
18.819	14.349	1084.938	823.826
19.834	14.103	1083.912	821.755
20.848	13.899	1083.010	819.993
21.863	13.614	1082.039	817.780
22.877	13.519	1081.545	816.863
23.892	13.453	1080.411	815.613
24.907	13.539	1079.953	815.620
25.921	13.540	1078.998	814.831
26.936	13.492	1078.373	814.051
27.950	13.494	1077.618	813.419
28.965	13.640	1076.019	812.855
29.980	13.624	1074.785	811.770
30.994	13.685	1073.625	811.123
32.009	13.723	1072.401	810.311
33.023	13.722	1071.352	809.443
34.038	13.600	1071.003	808.510
35.053	13.629	1070.062	807.871
36.067	13.606	1069.133	806.988
37.082	13.570	1068.159	806.006
38.096	13.558	1067.535	805.405
39.111	13.538	1066.668	804.582
40.126	13.706	1065.270	804.271
41.140	13.519	1063.791	802.176
42.155	13.502	1062.866	801.325
43.169	13.375	1061.973	799.966
44.184	13.502	1060.684	799.539
45.199	13.409	1060.302	798.731
46.213	13.443	1058.956	797.810
47.228	13.583	1057.504	797.322
48.242	13.499	1056.790	796.310
49.257	13.554	1055.530	795.551
50.271	13.521	1054.688	794.691
51.286	13.721	1053.737	794.859
52.301	13.578	1052.843	793.431
53.315	13.550	1052.119	792.681
54.330	13.452	1051.196	791.448
55.344	13.571	1049.822	790.912
56.359	13.489	1049.543	790.241
57.374	13.340	1048.688	788.815
58.388	13.470	1047.438	788.423
59.403	13.505	1046.542	787.846
60.417	13.401	1045.968	786.851
61.432	13.449	1044.636	786.006
62.447	13.368	1044.082	785.136
63.461	13.386	1043.335	784.589
64.476	13.405	1042.469	783.961
65.490	13.405	1041.679	783.296
66.505	13.385	1040.927	782.567
67.520	13.455	1039.932	782.078
68.534	13.432	1039.150	781.312
69.549	13.573	1038.559	781.463
70.563	13.323	1038.010	779.806
71.578	13.396	1036.978	779.307
72.593	13.377	1036.116	778.499
73.607	13.320	1035.452	777.660
74.622	13.380	1034.880	777.444
75.636	13.371	1034.363	776.946
76.651	13.274	1033.856	776.043
77.666	13.286	1032.873	775.293
78.680	13.298	1032.190	774.765
79.695	13.336	1031.602	774.435
80.709	13.419	1030.983	774.287
81.724	13.430	1030.343	773.792
82.739	13.553	1029.317	773.528
83.753	13.658	1028.354	773.223
84.768	13.545	1027.958	772.333
85.782	13.575	1026.597	771.378
86.797	13.527	1026.016	770.653
87.812	13.618	1024.718	770.032
88.826	13.543	1024.098	769.150
89.841	13.558	1023.194	768.472
90.855	13.583	1022.161	767.744
91.870	13.587	1021.610	767.279
92.884	13.585	1020.807	766.602
93.899	13.695	1019.440	766.016
94.914	13.655	1019.150	765.543
95.928	13.618	1018.566	764.866
96.943	13.616	1017.225	763.785
97.957	13.531	1016.628	762.878
98.972	13.711	1015.329	762.664
99.987	13.639	1014.345	761.525
101.001	13.675	1013.647	761.100
102.016	13.766	1012.420	760.525
103.030	13.665	1011.924	759.624
104.045	13.686	1011.317	759.198
105.060	13.672	1009.938	758.032
106.074	13.704	1009.051	757.442
107.089	13.578	1008.139	756.119
108.103	13.503	1007.650	755.344
109.118	13.437	1006.506	754.117
110.133	13.580	1005.556	753.992
111.147	13.502	1004.934	753.103
112.162	13.614	1004.117	752.931
113.176	13.551	1003.643	752.223
114.191	13.563	1002.801	751.579
115.206	13.697	1001.490	751.137
116.220	13.751	1000.692	750.718
117.235	13.535	999.678	748.913
118.249	13.663	998.986	748.905
119.264	13.655	998.268	748.266
120.279	13.614	997.643	747.547
121.293	13.557	996.707	746.521
122.308	13.612	995.735	745.975
123.322	13.572	994.770	745.010
124.337	13.575	993.848	744.265
125.352	13.478	992.648	742.867
126.366	13.524	991.758	742.339
127.381	13.464	991.010	741.445
128.395	13.636	989.600	741.095
129.410	13.642	988.467	740.207
130.424	13.599	987.895	739.522
131.439	13.650	986.908	738.944
132.454	13.649	986.350	738.458
133.468	13.678	984.939	737.462
134.483	13.803	983.910	737.181
135.497	13.593	983.649	735.989
136.512	13.578	982.785	735.212
137.527	13.640	981.843	734.715
138.541	13.636	981.272	734.204
139.556	13.747	980.680	734.190
140.570	13.589	980.248	733.104
141.585	13.685	979.304	732.757
142.600	13.745	978.238	732.159
143.614	13.876	977.233	731.917
144.629	13.801	976.761	731.171
145.643	13.780	975.724	730.236
146.658	13.702	974.945	729.245
147.673	13.709	973.638	728.234
148.687	13.704	973.340	727.925
149.702	13.698	972.218	726.995
150.716	13.726	971.765	726.716
151.731	13.695	970.750	725.756
152.746	13.793	970.303	725.786
153.760	13.833	969.243	725.103
154.775	13.917	968.703	725.005
155.789	13.910	968.092	724.453
156.804	13.889	967.010	723.484
157.819	13.894	966.764	723.261
158.833	13.835	966.160	722.487
159.848	13.970	964.948	722.104
160.862	13.856	964.373	721.116
161.877	13.900	963.266	720.416
162.892	13.800	962.414	719.278
163.906	13.747	961.840	718.557
164.921	13.811	960.643	717.878
165.935	13.931	959.848	717.737
166.950	13.906	958.880	716.843
167.964	13.909	958.334	716.383
168.979	13.995	957.262	715.888
169.994	13.962	956.176	714.870
171.008	13.882	955.958	714.302
172.023	13.987	955.001	713.973
173.037	13.961	954.852	713.690
174.052	13.989	953.167	712.485
175.067	13.926	953.078	712.085
176.081	13.949	952.560	711.736
177.096	14.003	951.778	711.316
178.110	14.069	950.678	710.714
179.125	14.027	950.501	710.342
180.140	14.080	949.761	709.949
181.154	14.104	949.320	709.661
182.169	14.013	949.281	709.180
183.183	14.125	948.614	709.098
184.198	14.278	947.131	708.576
185.213	14.223	946.545	707.843
186.227	14.326	945.910	707.743
187.242	14.256	945.288	706.919
188.256	14.298	944.666	706.567
189.271	14.256	943.627	705.549
190.286	14.176	943.029	704.703
191.300	14.017	942.369	703.475
192.315	14.116	941.890	703.471
193.329	14.145	941.217	703.032
194.344	14.054	940.758	702.242
195.359	14.235	939.775	702.210
196.373	14.284	939.469	702.122
197.388	14.208	939.163	701.512
198.402	14.251	938.458	701.104
199.417	14.460	937.363	701.102
200.432	14.470	937.174	700.944
201.446	14.497	936.303	700.342
202.461	14.431	936.242	699.957
203.475	14.398	935.557	699.245
204.490	14.451	934.533	698.639
205.504	14.275	933.846	697.330
206.519	14.316	933.387	697.095
207.534	14.399	932.353	696.609
208.548	14.519	931.571	696.465
209.563	14.409	931.046	695.551
210.577	14.543	930.351	695.530
211.592	14.505	929.681	694.806
212.607	14.668	928.897	694.837
213.621	14.609	927.938	693.813
214.636	14.518	927.426	692.991
215.650	14.564	926.732	692.602
216.665	14.598	926.251	692.325
217.680	14.526	925.581	691.463
218.694	14.618	924.840	691.229
219.709	14.724	924.015	690.990
220.723	14.698	923.196	690.210
221.738	14.610	922.778	689.472
222.753	14.751	921.819	689.278
223.767	14.840	921.268	689.170
224.782	14.859	920.761	688.807
225.796	14.806	920.262	688.155
226.811	14.976	919.559	688.269
227.826	14.749	919.075	686.914
228.840	14.706	918.148	685.983
229.855	14.670	917.144	685.023
230.869	14.684	916.615	684.625
231.884	14.766	916.162	684.561
232.899	14.867	914.930	683.995
233.913	14.779	914.314	683.115
234.928	14.705	913.842	682.398
235.942	14.707	913.231	681.890
236.957	14.818	912.414	681.674
237.972	14.744	912.030	681.021
238.986	14.892	911.418	681.107
240.001	14.647	911.044	679.771
241.015	14.880	910.101	679.957
242.030	15.062	909.041	679.844
243.045	14.963	908.877	679.259
244.059	14.811	908.559	678.343
245.074	15.055	906.960	678.079
246.088	14.955	906.533	677.293
247.103	14.932	906.670	677.244
248.117	15.009	906.061	677.040
249.132	15.060	904.934	676.342
250.147	15.004	904.443	675.690
251.161	15.170	903.462	675.567
252.176	15.219	903.121	675.450
253.190	15.122	902.149	674.273
254.205	15.244	901.733	674.395
255.220	15.224	900.925	673.648
256.234	15.245	900.500	673.356
257.249	15.204	899.650	672.496
258.263	15.325	898.946	672.396
259.278	15.223	898.475	671.574
260.293	15.360	897.822	671.576
261.307	15.369	897.291	671.157
262.322	15.358	896.484	670.448
263.336	15.413	895.905	670.176
264.351	15.458	895.303	669.845
265.366	15.435	894.689	669.235
266.380	15.439	894.125	668.768
267.395	15.544	893.278	668.495
268.409	15.520	891.999	667.385
269.424	15.499	891.697	667.014
270.439	15.485	891.017	666.394
271.453	15.497	890.140	665.726
272.468	15.479	889.893	665.410
273.482	15.562	888.929	664.958
274.497	15.520	888.752	664.602
275.512	15.487	888.043	663.881
276.526	15.600	887.590	663.932
277.541	15.720	886.921	663.846
278.555	15.553	886.444	662.771
279.570	15.760	885.126	662.542
280.585	15.711	884.958	662.163
281.599	15.659	884.108	661.264
282.614	15.687	883.725	661.032
283.628	15.620	883.045	660.201
284.643	15.747	882.390	660.152
285.657	15.728	881.673	659.481
286.672	15.674	880.995	658.706
287.687	15.718	880.623	658.540
288.701	15.792	879.687	658.073
289.716	15.886	878.849	657.753
290.730	15.733	878.709	656.995
291.745	15.928	877.636	656.892
292.760	15.928	877.257	656.550
293.774	15.826	877.001	655.904
294.789	15.914	875.768	655.266
295.803	15.866	875.308	654.677
296.818	15.766	874.808	653.857
297.833	15.916	874.000	653.777
298.847	15.923	873.263	653.195
299.862	15.964	872.701	652.878
300.876	15.936	872.414	652.495
301.891	16.004	871.574	652.074
302.906	16.126	871.173	652.189
303.920	16.109	870.573	651.614
304.935	16.118	869.994	651.160
305.949	16.159	869.169	650.640
306.964	15.960	869.145	649.797
307.979	16.045	868.236	649.389
308.993	16.271	867.326	649.521
310.008	16.348	866.565	649.189
311.022	16.353	865.921	648.667
312.037	16.090	865.768	647.488
313.052	16.109	865.099	647.000
314.066	16.216	864.653	647.021
315.081	16.221	863.682	646.256
316.095	16.069	863.359	645.377
317.110	16.274	862.582	645.521
318.125	16.116	862.518	644.812
319.139	16.251	861.920	644.823
320.154	16.202	861.608	644.346
321.168	16.264	860.956	644.038
322.183	16.289	860.444	643.694
323.197	16.159	860.057	642.850
324.212	16.312	859.157	642.703
325.227	16.229	858.923	642.158
326.241	16.348	857.936	641.813
327.256	16.256	857.519	641.095
328.270	16.221	857.064	640.565
329.285	16.258	856.430	640.175
330.300	16.256	855.874	639.696
331.314	16.456	854.863	639.640
332.329	16.498	854.581	639.531
333.343	16.387	854.731	639.168
334.358	16.448	853.995	638.793
335.373	16.428	853.488	638.281
336.387	16.425	853.509	638.229
337.402	16.555	852.910	638.214
338.416	16.526	852.814	637.976
339.431	16.658	851.738	637.611
340.446	16.657	851.489	637.368
341.460	16.731	851.171	637.351
342.475	16.609	850.813	636.568
343.489	16.486	850.593	635.883
344.504	16.594	850.025	635.808
345.519	16.651	849.387	635.491
346.533	16.649	849.364	635.409
347.548	16.664	848.179	634.523
348.562	16.805	847.463	634.459
349.577	16.611	847.268	633.528
350.592	16.835	846.186	633.502
351.606	16.650	845.943	632.573
352.621	16.513	845.593	631.742
353.635	16.668	845.153	631.938
354.650	16.617	844.381	631.115
355.665	16.622	843.391	630.335
356.679	16.658	842.732	629.923
357.694	16.754	842.105	629.755
358.708	16.783	841.487	629.345
359.723	16.775	841.254	629.086
360.738	16.856	840.204	628.544
361.752	16.904	839.961	628.484
362.767	16.985	839.183	628.146
363.781	17.118	838.368	627.975
364.796	16.964	838.011	627.081
365.810	16.860	838.295	626.853
366.825	17.037	837.788	627.074
367.840	17.097	836.819	626.513
368.854	17.133	836.587	626.419
369.869	17.079	836.256	625.916
370.883	17.120	835.681	625.579
371.898	17.076	835.358	625.122
372.913	17.109	835.048	624.957
373.927	17.116	834.573	624.572
374.942	17.144	834.014	624.200
375.956	17.105	833.433	623.566
376.971	17.048	833.384	623.267
377.986	17.230	832.712	623.376
379.000	17.250	832.048	622.896
380.015	17.246	831.930	622.738
381.029	17.405	830.909	622.502
382.044	17.272	830.196	621.427
383.059	17.487	829.269	621.460
384.073	17.455	829.219	621.251
385.088	17.417	828.397	620.442
386.102	17.388	828.175	620.114
387.117	17.303	827.685	619.383
388.132	17.401	826.935	619.124
389.146	17.430	826.365	618.748
390.161	17.382	826.171	618.375
391.175	17.391	825.756	618.043
392.190	17.349	824.929	617.217
393.205	17.501	824.658	617.509
394.219	17.440	824.310	616.973
395.234	17.324	824.094	616.336
396.248	17.392	823.350	615.971
397.263	17.344	822.831	615.355
398.278	17.381	822.869	615.462
399.292	17.446	821.934	614.943
400.307	17.372	821.840	614.552
401.321	17.454	821.107	614.246
402.336	17.489	820.719	614.026
403.350	17.422	820.279	613.403
404.365	17.520	819.974	613.475
405.380	17.532	819.471	613.084
406.394	17.713	818.382	612.868
407.409	17.575	818.004	612.033
408.423	17.678	817.738	612.150
409.438	17.838	817.473	612.472
410.453	17.840	817.141	612.176
411.467	17.738	816.889	611.568
412.482	17.763	816.780	611.523
413.496	17.875	815.910	611.216
414.511	17.823	815.191	610.438
415.526	17.875	815.281	610.638
416.540	17.852	814.481	609.904
417.555	17.860	814.229	609.687
418.569	17.844	813.778	609.241
419.584	17.918	813.200	609.016
420.599	17.970	812.966	608.974
421.613	114.469	1299.168	1487.457
422.628	99.076	1369.964	1487.504
