DTS Sentinel unit serial number:	SN413079Multiplexer serial number:	ORYXHardware model number:	OX4-SRSoftware version number:	ORYX F/W v4.00 Oryx Data Collector v3.7.2.0data status	okinstallation	princeton_trtdifferential loss correction	single-endedforward channel	channel 1reverse channel	N/Adate	2019/09/15time	03:30:35forward acquisition time	60.00reverse acquisition time	0.00gamma	496.2192k internal	0.2324k external	0.2324temperature offset calibration	0.9988default loss term (dB/km)	0.3790temperature slope calibration	1.0000multiplexer offset coefficient	1.0000multiplexer slope coefficient	1.0000fibre end	0.00T internal ref (°C)	31.00T ext. ref 1 (°C)	4.62T ext. ref 2 (°C)	25.80length (m)	temperature (°C)	Stokes	anti-Stokes-747.200	231.134	0.090	-0.150
-746.185	125.132	-0.080	-0.102
-745.171	-138.713	0.441	0.049
-744.156	463.055	-0.133	0.300
-743.142	-51.202	0.332	0.157
-742.127	122.934	0.073	0.093
-741.112	-200.000	0.052	-0.421
-740.098	97.419	0.088	-0.102
-739.083	-85.179	0.212	-0.067
-738.069	-183.201	0.341	0.006
-737.054	-46.114	0.257	0.128
-736.039	800.000	-0.036	0.141
-735.025	-50.764	0.177	-0.084
-734.010	-67.998	-0.167	0.066
-732.996	-9.482	-0.296	-0.199
-731.981	800.000	-0.070	-0.232
-730.966	-200.000	0.019	-0.113
-729.952	-28.716	0.126	-0.073
-728.937	-120.607	-0.153	-0.026
-727.923	132.641	0.165	-0.214
-726.908	-200.000	0.026	-0.163
-725.894	-59.629	-0.308	0.133
-724.879	-92.053	0.216	0.062
-723.864	800.000	-0.093	-0.410
-722.850	43.250	0.032	-0.029
-721.835	-115.986	-0.080	0.015
-720.821	52.768	0.315	0.304
-719.806	396.808	0.041	-0.087
-718.791	-106.633	-0.150	0.034
-717.777	-200.000	-0.019	-0.147
-716.762	781.650	0.049	-0.135
-715.748	-173.990	0.051	-0.002
-714.733	-83.274	-0.100	0.032
-713.718	-134.665	-0.405	0.050
-712.704	-200.000	-0.140	0.001
-711.689	751.824	-0.019	-0.052
-710.675	655.473	-0.076	0.198
-709.660	96.784	0.149	0.173
-708.645	284.457	0.117	-0.211
-707.631	-145.914	0.053	-0.005
-706.616	677.105	0.060	-0.158
-705.602	-115.949	-0.390	0.073
-704.587	-200.000	-0.016	0.114
-703.572	7.075	0.314	0.236
-702.558	-172.331	0.143	0.005
-701.543	-38.499	0.250	-0.133
-700.529	-144.979	0.478	0.044
-699.514	-87.433	0.087	0.026
-698.499	34.174	0.032	0.028
-697.485	785.205	0.134	-0.370
-696.470	1.955	-0.197	0.143
-695.456	-200.000	-0.002	0.497
-694.441	292.769	0.093	-0.170
-693.426	-105.492	0.053	-0.012
-692.412	223.701	0.037	-0.061
-691.397	-75.082	-0.155	-0.056
-690.383	648.116	0.046	0.119
-689.368	-200.000	0.013	-0.179
-688.354	-200.000	-0.182	-0.001
-687.339	16.893	-0.316	0.252
-686.324	-200.000	0.051	-0.229
-685.310	384.369	-0.044	-0.092
-684.295	-200.000	-0.001	-0.094
-683.281	-3.757	0.264	0.185
-682.266	-114.526	-0.279	0.054
-681.251	-200.000	0.042	0.222
-680.237	104.577	0.287	-0.341
-679.222	-125.425	-0.359	0.055
-678.208	-58.518	-0.348	-0.152
-677.193	-200.000	0.004	0.219
-676.178	-164.674	0.189	-0.009
-675.164	-106.317	-0.194	0.044
-674.149	70.670	-0.259	-0.270
-673.135	-5.453	0.158	-0.109
-672.120	14.222	-0.225	-0.177
-671.105	800.000	-0.075	0.296
-670.091	313.588	-0.142	-0.269
-669.076	800.000	0.083	-0.233
-668.062	-106.091	0.244	0.055
-667.047	784.766	-0.007	-0.020
-666.032	800.000	0.019	-0.083
-665.018	125.866	-0.054	0.069
-664.003	-37.922	-0.336	0.180
-662.989	-59.693	-0.209	-0.090
-661.974	48.540	-0.039	-0.037
-660.959	584.833	0.164	-0.405
-659.945	-26.196	0.024	0.014
-658.930	710.716	-0.040	-0.105
-657.916	-86.612	0.336	-0.104
-656.901	58.671	-0.115	-0.114
-655.886	-169.319	-0.409	0.015
-654.872	-87.944	-0.147	0.045
-653.857	74.196	0.076	0.081
-652.843	-74.128	0.352	-0.128
-651.828	22.949	0.220	0.181
-650.814	71.201	0.308	-0.321
-649.799	-200.000	-0.011	-0.127
-648.784	-200.000	0.041	-0.234
-647.770	495.297	0.180	-0.417
-646.755	800.000	0.060	-0.241
-645.741	-109.269	-0.146	0.031
-644.726	-34.245	-0.141	-0.078
-643.711	-130.181	-0.146	0.020
-642.697	-84.568	0.153	0.049
-641.682	-150.655	0.112	-0.009
-640.668	-114.626	0.261	0.050
-639.653	-59.633	0.109	-0.047
-638.638	-117.377	-0.254	-0.046
-637.624	-10.033	0.127	0.085
-636.609	26.984	0.077	-0.065
-635.595	-200.000	-0.016	0.156
-634.580	720.593	0.047	0.125
-633.565	-200.000	0.036	0.269
-632.551	-7.683	0.180	-0.123
-631.536	717.351	0.067	-0.179
-630.522	-6.195	0.309	0.212
-629.507	800.000	0.079	0.305
-628.492	-27.617	-0.414	0.242
-627.478	-53.750	0.190	-0.087
-626.463	-200.000	0.011	-0.505
-625.449	800.000	-0.050	-0.146
-624.434	-200.000	0.005	-0.065
-623.419	318.823	-0.140	0.266
-622.405	800.000	-0.023	-0.078
-621.390	-77.622	0.176	0.061
-620.376	27.804	0.267	-0.226
-619.361	357.196	-0.126	-0.253
-618.346	-200.000	0.005	-0.144
-617.332	800.000	-0.067	-0.216
-616.317	376.808	-0.077	-0.157
-615.303	556.360	0.110	0.266
-614.288	-1.381	-0.086	0.061
-613.273	-80.605	0.131	0.044
-612.259	-41.218	0.044	-0.023
-611.244	-35.766	0.031	-0.017
-610.230	-76.923	0.283	-0.099
-609.215	800.000	-0.095	0.279
-608.201	-96.421	0.253	0.067
-607.186	-156.184	0.129	0.008
-606.171	14.484	0.184	0.144
-605.157	27.567	-0.100	0.084
-604.142	-29.105	-0.212	-0.122
-603.128	340.569	0.151	-0.296
-602.113	-82.799	0.136	-0.044
-601.098	-14.130	0.387	-0.251
-600.084	-200.000	0.020	0.251
-599.069	-164.312	-0.248	-0.011
-598.055	426.634	-0.049	0.106
-597.040	-200.000	0.029	0.234
-596.025	-178.056	0.232	-0.006
-595.011	-200.000	0.002	0.024
-593.996	-200.000	0.008	0.376
-592.982	-200.000	-0.041	-0.314
-591.967	22.047	0.068	-0.056
-590.952	-181.666	-0.390	0.008
-589.938	43.586	-0.096	-0.088
-588.923	-117.855	-0.313	-0.056
-587.909	140.915	-0.184	0.243
-586.894	595.242	-0.070	-0.174
-585.879	93.329	0.185	0.210
-584.865	-123.566	0.268	0.043
-583.850	-82.697	-0.258	-0.084
-582.836	-11.912	-0.263	-0.173
-581.821	-61.848	-0.112	-0.047
-580.806	-0.025	0.092	-0.066
-579.792	-103.432	-0.121	0.028
-578.777	21.323	0.267	-0.218
-577.763	88.363	0.318	-0.354
-576.748	-200.000	0.002	-0.080
-575.733	-136.710	-0.365	0.042
-574.719	-200.000	0.002	-0.056
-573.704	-54.326	0.220	0.100
-572.690	-200.000	-0.002	-0.053
-571.675	-19.020	-0.272	0.170
-570.661	-189.835	0.352	0.004
-569.646	61.177	-0.334	-0.332
-568.631	-16.831	0.231	-0.146
-567.617	177.926	0.141	-0.206
-566.602	9.469	0.084	-0.064
-565.588	144.745	0.152	0.203
-564.573	-132.491	-0.344	-0.044
-563.558	155.751	-0.037	-0.052
-562.544	-15.093	-0.189	-0.121
-561.529	135.674	0.012	0.016
-560.515	86.645	0.062	0.068
-559.500	-200.000	0.010	-0.072
-558.485	800.000	0.042	0.119
-557.471	-200.000	-0.035	0.261
-556.456	38.365	-0.232	0.207
-555.442	27.197	-0.058	-0.049
-554.427	-28.567	0.275	0.159
-553.412	149.532	0.049	-0.067
-552.398	-127.247	-0.562	-0.082
-551.383	-149.245	0.156	-0.012
-550.369	133.100	-0.132	0.171
-549.354	754.216	-0.109	-0.295
-548.339	-80.797	-0.262	0.087
-547.325	29.138	0.104	0.088
-546.310	72.617	-0.099	-0.103
-545.296	-67.857	0.129	0.050
-544.281	-11.287	-0.086	-0.057
-543.266	-83.229	-0.142	-0.046
-542.252	-26.682	-0.229	-0.134
-541.237	-100.010	-0.214	0.053
-540.223	800.000	-0.023	-0.099
-539.208	29.597	-0.105	0.089
-538.193	-88.454	0.173	-0.052
-537.179	75.409	-0.028	-0.030
-536.164	-63.307	0.161	0.066
-535.150	87.273	-0.057	0.064
-534.135	-137.523	0.311	-0.035
-533.121	-77.006	-0.309	0.108
-532.106	300.694	-0.117	0.216
-531.091	-200.000	-0.016	0.084
-530.077	-75.302	-0.087	-0.031
-529.062	-59.071	0.119	-0.052
-528.048	552.929	0.090	-0.217
-527.033	-143.692	-0.349	0.033
-526.018	-115.241	0.242	-0.046
-525.004	5.278	-0.144	0.106
-523.989	47.957	-0.110	-0.103
-522.975	111.390	-0.065	-0.079
-521.960	-200.000	0.031	0.237
-520.945	55.716	0.156	0.152
-519.931	-200.000	-0.002	0.389
-518.916	96.310	-0.089	-0.102
-517.902	-87.334	-0.103	0.031
-516.887	-119.282	-0.226	0.039
-515.872	93.094	-0.110	-0.124
-514.858	-84.688	-0.289	0.091
-513.843	-19.640	0.083	-0.051
-512.829	-59.859	-0.191	-0.082
-511.814	608.957	0.048	-0.120
-510.799	-200.000	0.062	-0.443
-509.785	5.381	0.098	-0.072
-508.770	569.705	-0.047	-0.114
-507.756	-41.242	-0.145	0.075
-506.741	527.924	0.118	0.278
-505.726	-141.400	-0.261	0.026
-504.712	800.000	0.067	-0.239
-503.697	211.097	-0.159	0.250
-502.683	-68.318	-0.368	0.143
-501.668	-67.764	0.253	0.099
-500.653	-14.283	0.155	-0.100
-499.639	-143.477	0.219	-0.021
-498.624	20.401	-0.159	-0.128
-497.610	-58.057	0.160	-0.070
-496.595	800.000	0.076	-0.272
-495.581	100.535	0.140	0.163
-494.566	-200.000	-0.006	-0.050
-493.551	-200.000	0.034	0.183
-492.537	-119.936	-0.168	0.029
-491.522	242.829	-0.253	-0.424
-490.508	-53.787	0.153	-0.070
-489.493	24.547	0.166	0.137
-488.478	-133.923	0.143	-0.018
-487.464	-167.931	-0.246	0.010
-486.449	134.487	-0.155	-0.201
-485.435	152.911	-0.165	-0.225
-484.420	800.000	-0.008	-0.032
-483.405	-2.960	0.279	-0.194
-482.391	-78.631	-0.350	-0.120
-481.376	-48.363	-0.088	-0.042
-480.362	72.317	-0.240	0.250
-479.347	480.652	-0.139	0.314
-478.332	-42.751	0.111	0.056
-477.318	-200.000	0.017	-0.319
-476.303	-105.046	-0.346	-0.079
-475.289	217.115	-0.149	0.237
-474.274	53.859	0.098	-0.094
-473.259	-23.037	0.053	-0.032
-472.245	-97.871	-0.199	0.051
-471.230	-89.575	0.224	-0.066
-470.216	165.365	-0.100	0.141
-469.201	-200.000	0.024	0.116
-468.186	12.771	0.450	0.347
-467.172	-72.691	0.068	0.025
-466.157	-15.881	0.344	-0.219
-465.143	-31.038	-0.134	-0.076
-464.128	14.967	-0.064	0.050
-463.113	-200.000	0.010	0.393
-462.099	799.413	-0.109	0.300
-461.084	-42.862	-0.247	0.125
-460.070	-74.209	0.192	0.069
-459.055	30.771	0.187	0.160
-458.040	-200.000	0.038	0.254
-457.026	-19.270	0.180	-0.112
-456.011	-40.219	-0.469	-0.244
-454.997	-118.115	-0.117	-0.021
-453.982	144.604	-0.030	-0.040
-452.968	800.000	-0.056	0.206
-451.953	14.205	-0.030	-0.023
-450.938	-126.093	0.365	-0.055
-449.924	170.686	-0.172	-0.245
-448.909	106.946	0.102	0.121
-447.895	-200.000	-0.023	-0.159
-446.880	149.959	0.113	-0.153
-445.865	-0.762	0.216	0.153
-444.851	800.000	-0.038	0.115
-443.836	-155.840	0.098	0.006
-442.822	167.323	-0.211	0.299
-441.807	800.000	0.010	-0.041
-440.792	800.000	-0.012	0.045
-439.778	-54.789	0.030	0.013
-438.763	229.700	0.078	-0.127
-437.749	-124.674	-0.209	0.032
-436.734	-105.482	-0.202	0.046
-435.719	80.601	-0.178	-0.192
-434.705	-200.000	-0.007	-0.197
-433.690	611.916	0.064	0.158
-432.676	-200.000	-0.021	0.315
-431.661	-81.835	0.273	0.089
-430.646	-31.192	-0.038	-0.022
-429.632	-67.838	-0.352	0.137
-428.617	800.000	-0.085	0.268
-427.603	-38.732	-0.058	0.030
-426.588	-200.000	0.042	-0.266
-425.573	-200.000	-0.001	-0.228
-424.559	423.033	-0.037	-0.078
-423.544	4.789	-0.038	0.028
-422.530	667.607	0.010	0.025
-421.515	53.924	0.055	-0.053
-420.500	191.891	0.092	-0.138
-419.486	777.363	-0.082	0.223
-418.471	80.861	0.130	0.140
-417.457	68.897	-0.141	0.144
-416.442	-200.000	-0.044	0.247
-415.428	209.008	0.087	-0.135
-414.413	-129.282	-0.183	0.025
-413.398	-8.126	0.148	0.099
-412.384	241.066	-0.132	-0.219
-411.369	220.180	0.077	0.123
-410.355	-134.541	0.116	-0.014
-409.340	-15.714	-0.196	-0.124
-408.325	-200.000	0.041	0.268
-407.311	-126.319	-0.293	-0.044
-406.296	800.000	0.087	-0.319
-405.282	-93.272	-0.220	0.061
-404.267	-30.211	0.173	0.098
-403.252	37.286	-0.185	0.164
-402.238	203.474	-0.195	-0.301
-401.223	19.551	-0.092	-0.074
-400.209	-39.002	-0.159	-0.083
-399.194	-200.000	-0.021	0.162
-398.179	-189.852	0.052	0.001
-397.165	-200.000	-0.012	-0.085
-396.150	800.000	0.095	0.272
-395.136	800.000	-0.018	-0.074
-394.121	-200.000	0.008	-0.054
-393.106	246.849	0.150	0.252
-392.092	-42.452	0.059	-0.030
-391.077	10.602	0.342	-0.259
-390.063	-93.858	0.174	0.048
-389.048	322.866	-0.065	0.123
-388.033	12.434	0.271	-0.208
-387.019	16.417	-0.054	0.042
-386.004	486.719	-0.063	0.142
-384.990	149.001	0.174	0.234
-383.975	4.222	-0.016	-0.012
-382.960	71.247	0.290	-0.300
-381.946	-42.599	0.088	-0.045
-380.931	76.565	-0.120	-0.127
-379.917	-200.000	0.031	-0.338
-378.902	-105.529	-0.314	0.071
-377.888	161.411	-0.205	-0.285
-376.873	-70.973	-0.119	0.045
-375.858	91.408	0.116	0.130
-374.844	-93.473	0.256	0.071
-373.829	-115.481	-0.155	-0.029
-372.815	-42.679	-0.236	-0.119
-371.800	0.161	-0.319	-0.226
-370.785	182.157	-0.071	-0.105
-369.771	89.493	-0.172	0.191
-368.756	-69.556	0.186	0.071
-367.742	-52.663	-0.047	-0.022
-366.727	-85.700	0.352	-0.109
-365.712	-78.814	-0.357	-0.121
-364.698	800.000	-0.035	0.111
-363.683	-15.498	0.158	-0.101
-362.669	-116.355	-0.353	0.065
-361.654	800.000	0.003	0.013
-360.639	-200.000	0.018	0.127
-359.625	121.883	-0.324	-0.402
-358.610	163.554	0.138	-0.194
-357.596	-1.229	0.169	-0.119
-356.581	-138.642	-0.192	0.021
-355.566	800.000	-0.056	0.212
-354.552	419.201	-0.077	0.164
-353.537	446.066	0.166	0.363
-352.523	247.105	0.174	-0.292
-351.508	763.642	-0.171	-0.461
-350.493	4.312	0.030	-0.022
-349.479	-51.751	0.129	0.060
-348.464	-56.516	0.078	-0.034
-347.450	46.795	0.200	-0.185
-346.435	137.616	-0.262	0.341
-345.420	-200.000	-0.061	0.326
-344.406	259.563	0.137	0.234
-343.391	-35.571	-0.192	-0.104
-342.377	-200.000	-0.061	-0.489
-341.362	-39.040	-0.211	-0.110
-340.348	-127.667	0.315	0.045
-339.333	800.000	0.036	-0.109
-338.318	-200.000	-0.006	0.045
-337.304	-44.298	-0.078	0.039
-336.289	235.730	-0.060	0.099
-335.275	286.280	0.151	-0.271
-334.260	-80.620	0.232	-0.077
-333.245	578.399	0.149	-0.363
-332.231	-152.542	0.082	-0.006
-331.216	13.853	0.354	0.273
-330.202	197.720	0.089	0.135
-329.187	80.168	0.115	0.123
-328.172	800.000	0.084	0.294
-327.158	50.976	0.347	-0.327
-326.143	-96.096	-0.073	-0.019
-325.129	140.096	-0.055	-0.072
-324.114	626.126	-0.044	-0.109
-323.099	-71.284	-0.207	0.077
-322.085	46.235	-0.039	-0.036
-321.070	-200.000	-0.019	-0.445
-320.056	61.858	0.162	0.161
-319.041	697.816	-0.112	0.292
-318.026	504.169	-0.061	-0.140
-317.012	47.664	-0.244	-0.226
-315.997	232.856	0.184	0.301
-314.983	800.000	-0.047	0.189
-313.968	800.000	-0.057	0.159
-312.953	-200.000	0.001	-0.105
-311.939	196.085	0.235	0.355
-310.924	30.260	-0.093	-0.078
-309.910	765.127	0.104	-0.281
-308.895	-17.532	0.073	-0.046
-307.880	800.000	-0.054	-0.183
-306.866	-113.281	0.160	0.031
-305.851	800.000	-0.069	0.195
-304.837	-200.000	0.007	0.217
-303.822	-154.308	0.300	-0.020
-302.807	-146.944	0.280	0.024
-301.793	-17.728	0.178	0.111
-300.778	800.000	-0.044	0.150
-299.764	-200.000	0.009	0.153
-298.749	-182.753	0.223	0.004
-297.735	-200.000	0.002	0.087
-296.720	-124.912	0.147	-0.022
-295.705	89.130	0.231	0.255
-294.691	-110.424	-0.153	0.031
-293.676	-31.024	-0.261	-0.146
-292.662	-77.982	0.198	-0.068
-291.647	-60.825	0.034	0.014
-290.632	-14.968	-0.192	0.122
-289.618	-200.000	-0.046	0.214
-288.603	-177.317	-0.060	0.001
-287.589	800.000	0.007	0.026
-286.574	80.663	-0.209	-0.224
-285.559	123.480	-0.029	-0.036
-284.545	-200.000	-0.014	0.287
-283.530	-95.341	0.136	-0.036
-282.516	31.544	-0.166	-0.142
-281.501	-155.187	0.066	0.004
-280.486	-107.596	0.142	0.031
-279.472	226.703	0.080	0.128
-278.457	800.000	0.057	0.192
-277.443	360.824	-0.175	0.348
-276.428	-19.840	0.299	-0.183
-275.413	800.000	-0.025	-0.079
-274.399	800.000	-0.019	-0.053
-273.384	653.355	-0.082	-0.209
-272.370	-47.970	-0.167	0.080
-271.355	-119.487	-0.376	0.065
-270.340	121.149	0.173	-0.213
-269.326	536.268	0.132	-0.309
-268.311	108.631	0.115	-0.136
-267.297	-17.260	0.133	-0.083
-266.282	-200.000	-0.010	0.100
-265.267	3.168	0.317	-0.228
-264.253	-200.000	0.020	0.127
-263.238	-35.026	-0.286	-0.154
-262.224	-132.271	-0.141	-0.018
-261.209	-85.806	-0.101	0.031
-260.195	800.000	-0.082	0.226
-259.180	-200.000	-0.041	0.314
-258.165	-12.854	0.135	0.087
-257.151	-132.591	0.260	0.033
-256.136	503.818	0.200	-0.459
-255.122	262.330	0.210	-0.360
-254.107	344.500	0.167	0.325
-253.092	44.925	0.153	0.139
-252.078	-200.000	0.014	0.147
-251.063	-17.850	0.097	0.060
-250.049	439.269	-0.159	0.344
-249.034	0.614	-0.209	0.148
-248.019	642.973	-0.100	0.253
-247.005	2.106	0.240	-0.172
-245.990	-6.776	-0.174	0.117
-244.976	152.008	-0.012	0.016
-243.961	-67.153	-0.332	0.130
-242.946	-44.218	0.409	-0.203
-241.932	-200.000	-0.012	0.161
-240.917	24.291	-0.086	0.070
-239.903	-61.142	0.111	-0.046
-238.888	-200.000	0.024	0.113
-237.873	-28.775	0.030	0.017
-236.859	-114.719	0.316	-0.060
-235.844	-33.503	0.431	0.236
-234.830	800.000	0.058	0.204
-233.815	10.025	-0.170	-0.128
-232.800	191.446	0.108	0.160
-231.786	-76.348	0.257	0.089
-230.771	-7.938	-0.158	-0.106
-229.757	-153.819	-0.153	0.010
-228.742	-89.076	0.131	0.038
-227.727	-36.262	0.267	0.142
-226.713	-200.000	-0.065	-0.405
-225.698	316.370	-0.053	-0.099
-224.684	-30.886	0.170	0.095
-223.669	-200.000	-0.007	0.155
-222.655	16.167	0.125	0.097
-221.640	374.485	0.084	0.168
-220.625	32.392	0.207	-0.177
-219.611	-50.734	-0.388	0.181
-218.596	-41.717	0.054	-0.027
-217.582	97.085	0.115	-0.131
-216.567	68.141	-0.030	0.030
-215.552	587.362	-0.008	-0.020
-214.538	-200.000	-0.246	0.000
-213.523	-19.420	-0.224	0.137
-212.509	-35.431	0.252	-0.136
-211.494	-2.135	0.029	0.020
-210.479	-200.000	0.006	0.075
-209.465	148.332	-0.201	0.268
-208.450	402.826	0.093	0.193
-207.436	-69.318	-0.329	0.125
-206.421	41.807	0.075	-0.067
-205.406	800.000	0.124	-0.416
-204.392	-200.000	0.081	-0.574
-203.377	-89.420	-0.263	0.077
-202.363	218.745	-0.206	0.325
-201.348	-151.122	0.256	0.019
-200.333	173.161	-0.156	0.222
-199.319	195.433	0.129	0.194
-198.304	20.739	-0.186	-0.149
-197.290	-200.000	-0.019	0.231
-196.275	-13.614	-0.237	-0.152
-195.260	120.565	0.149	-0.183
-194.246	-126.248	0.081	-0.012
-193.231	35.007	0.192	0.166
-192.217	-192.552	-0.213	-0.002
-191.202	237.759	-0.156	0.256
-190.187	96.411	-0.081	0.092
-189.173	68.965	0.181	-0.183
-188.158	-142.055	0.157	0.015
-187.144	39.664	-0.260	-0.231
-186.129	800.000	0.058	0.188
-185.114	194.756	0.094	-0.140
-184.100	-200.000	-0.013	-0.225
-183.085	83.512	-0.116	-0.125
-182.071	-200.000	-0.001	0.183
-181.056	-114.104	-0.242	-0.046
-180.042	-64.507	-0.184	-0.074
-179.027	-35.328	-0.184	-0.099
-178.012	71.652	-0.151	0.155
-176.998	-63.446	0.444	0.180
-175.983	-35.544	0.103	0.055
-174.969	93.491	-0.115	-0.128
-173.954	-106.553	0.059	0.013
-172.939	7.272	0.094	-0.069
-171.925	-200.000	-0.017	0.171
-170.910	-200.000	-0.031	-0.242
-169.896	800.000	0.052	-0.180
-168.881	-21.116	0.254	0.153
-167.866	603.164	-0.062	-0.152
-166.852	519.255	-0.095	0.219
-165.837	800.000	-0.164	-0.538
-164.823	363.229	0.024	-0.048
-163.808	-55.310	0.152	-0.067
-162.793	-195.016	-0.178	-0.001
-161.779	130.250	-0.210	-0.266
-160.764	-113.971	0.136	0.026
-159.750	-200.000	0.014	0.180
-158.735	102.346	0.064	0.074
-157.720	350.214	0.172	0.335
-156.706	39.078	0.200	-0.177
-155.691	-123.218	0.457	-0.072
-154.677	148.212	-0.139	0.185
-153.662	-45.998	-0.195	0.095
-152.647	85.514	-0.266	-0.289
-151.633	556.998	0.064	0.152
-150.618	-200.000	-0.021	-0.210
-149.604	255.172	0.096	-0.162
-148.589	-200.000	-0.009	0.146
-147.574	79.889	-0.208	-0.221
-146.560	-143.413	-0.507	-0.048
-145.545	-200.000	0.134	0.000
-144.531	168.052	-0.199	-0.279
-143.516	-2.591	0.005	-0.003
-142.502	-12.088	0.073	0.047
-141.487	-35.007	0.206	-0.111
-140.472	-200.000	-0.003	-0.058
-139.458	-200.000	-0.020	-0.216
-138.443	-169.032	0.440	0.016
-137.429	124.450	-0.088	0.109
-136.414	461.691	0.108	0.238
-135.399	-200.000	-0.002	0.047
-134.385	800.000	0.101	0.295
-133.370	-200.000	0.005	-0.068
-132.356	800.000	0.076	0.220
-131.341	38.518	0.164	-0.144
-130.326	84.559	0.055	0.059
-129.312	-200.000	-0.019	-0.099
-128.297	-14.864	-0.127	0.080
-127.283	89.836	0.008	0.008
-126.268	-181.161	0.348	0.007
-125.253	175.932	0.141	0.201
-124.239	332.907	0.011	-0.020
-123.224	234.542	-0.238	-0.387
-122.210	125.692	-0.103	-0.128
-121.195	-89.953	0.195	0.056
-120.180	-3.044	0.519	0.357
-119.166	-33.671	-0.247	-0.134
-118.151	69.773	-0.228	0.232
-117.137	-141.674	-0.388	0.038
-116.122	-122.010	0.157	0.025
-115.107	-200.000	-0.073	0.379
-114.093	559.402	0.116	0.275
-113.078	-77.468	-0.259	0.088
-112.064	709.673	0.029	0.076
-111.049	-71.632	0.458	-0.168
-110.034	261.115	0.050	-0.086
-109.020	28.007	-0.241	0.201
-108.005	-200.000	-0.015	-0.111
-106.991	-164.429	-0.442	0.020
-105.976	-98.805	0.161	-0.040
-104.962	-1.879	0.008	-0.006
-103.947	-200.000	0.018	-0.231
-102.932	135.175	-0.186	-0.238
-101.918	-81.158	0.274	0.089
-100.903	69.505	0.143	0.145
-99.889	-200.000	-0.022	-0.146
-98.874	-96.426	-0.248	-0.064
-97.859	182.848	0.176	-0.255
-96.845	800.000	-0.047	-0.197
-95.830	202.433	0.167	-0.254
-94.816	296.750	0.097	-0.175
-93.801	-92.436	0.058	-0.016
-92.786	-168.557	0.301	-0.011
-91.772	18.340	-0.289	-0.227
-90.757	81.245	-0.040	-0.042
-89.743	-73.733	-0.204	0.073
-88.728	80.225	-0.166	-0.176
-87.713	47.030	-0.054	-0.050
-86.699	-184.039	-0.125	0.002
-85.684	-112.456	-0.162	-0.032
-84.670	-67.965	0.091	0.035
-83.655	-122.995	-0.219	0.035
-82.640	800.000	-0.106	-0.289
-81.626	41.982	-0.129	0.115
-80.611	-49.789	-0.211	0.099
-79.597	-200.000	-0.008	0.199
-78.582	-164.600	0.086	0.004
-77.567	-80.961	0.235	0.076
-76.553	-20.265	-0.140	-0.085
-75.538	-87.280	-0.067	0.020
-74.524	-200.000	-0.030	-0.334
-73.509	-17.014	-0.464	-0.288
-72.494	-63.346	0.128	-0.052
-71.480	-151.149	0.401	-0.030
-70.465	-131.235	0.263	-0.034
-69.451	-200.000	0.078	-0.349
-68.436	-200.000	-0.033	-0.202
-67.422	21.349	0.082	0.065
-66.407	31.457	-0.233	0.197
-65.392	-200.000	-0.087	0.400
-64.378	643.784	-0.098	-0.246
-63.363	800.000	0.044	-0.124
-62.349	-200.000	0.002	0.040
-61.334	61.300	-0.826	-0.807
-60.319	562.821	0.220	0.523
-59.305	800.000	-0.312	-1.280
-58.290	187.357	0.801	1.174
-57.276	329.182	0.674	1.273
-56.261	-200.000	101.246	602.482
-55.246	583.149	1414.083	3410.925
-54.232	191.412	2597.913	3844.023
-53.217	119.344	2141.686	2604.489
-52.203	43.266	1593.359	1429.708
-51.188	34.615	1328.593	1140.680
-50.173	31.350	1286.830	1085.843
-49.159	54.459	1337.386	1265.930
-48.144	56.519	1353.920	1293.715
-47.130	34.734	1310.485	1125.654
-46.115	31.263	1293.060	1090.418
-45.100	30.972	1288.106	1084.508
-44.086	30.923	1285.789	1082.227
-43.071	30.822	1283.865	1079.983
-42.057	30.916	1281.598	1078.576
-41.042	30.996	1279.790	1077.471
-40.027	31.105	1278.112	1076.645
-39.013	31.023	1276.388	1074.677
-37.998	30.937	1275.188	1073.134
-36.984	30.959	1273.378	1071.692
-35.969	31.064	1271.179	1070.401
-34.954	31.149	1269.257	1069.225
-33.940	31.041	1268.398	1067.844
-32.925	30.989	1266.909	1066.251
-31.911	31.050	1265.592	1065.445
-30.896	31.107	1264.240	1064.592
-29.881	31.070	1263.059	1063.345
-28.867	31.081	1261.411	1061.976
-27.852	31.115	1259.889	1060.850
-26.838	31.144	1258.738	1060.001
-25.823	31.142	1257.113	1058.577
-24.809	30.998	1256.440	1057.156
-23.794	31.104	1254.858	1056.384
-22.779	31.161	1253.112	1055.193
-21.765	31.161	1252.250	1054.427
-20.750	31.186	1250.555	1053.097
-19.736	30.998	1249.485	1051.095
-18.721	30.982	1248.288	1049.953
-17.706	30.943	1247.418	1048.960
-16.692	30.898	1245.839	1047.342
-15.677	30.927	1245.124	1046.861
-14.663	30.966	1244.063	1046.148
-13.648	30.873	1242.912	1044.612
-12.633	30.861	1242.349	1044.033
-11.619	30.881	1241.316	1043.234
-10.604	30.891	1240.089	1042.217
-9.590	30.862	1239.307	1041.360
-8.575	30.906	1238.125	1040.569
-7.560	30.983	1237.520	1040.449
-6.546	30.863	1236.523	1038.897
-5.531	30.917	1235.423	1038.234
-4.517	30.870	1234.973	1037.556
-3.502	30.924	1234.124	1037.098
-2.487	30.864	1233.231	1035.973
-1.473	30.898	1228.823	1032.418
-0.458	29.458	1214.278	1012.264
0.556	24.854	1196.898	975.419
1.571	21.172	1202.416	959.632
2.586	20.228	1217.068	965.986
3.600	19.895	1206.005	955.282
4.615	15.370	1135.942	876.124
5.629	7.851	1064.621	784.115
6.644	4.803	1045.754	755.379
7.659	4.587	1043.278	752.478
8.673	4.520	1041.996	751.166
9.688	4.561	1040.494	750.212
10.702	4.672	1038.928	749.551
11.717	8.844	1044.426	773.627
12.731	15.662	1053.990	813.753
13.746	18.606	1056.476	829.866
14.761	17.941	1055.727	825.988
15.775	16.907	1053.656	819.303
16.790	15.796	1051.542	812.224
17.804	15.190	1049.776	807.869
18.819	14.713	1049.128	804.998
19.834	14.562	1047.784	803.169
20.848	14.319	1047.362	801.608
21.863	14.107	1046.585	799.919
22.877	13.975	1045.846	798.652
23.892	13.957	1044.915	797.782
24.907	14.073	1044.262	797.768
25.921	14.017	1042.844	796.349
26.936	13.954	1042.202	795.482
27.950	14.067	1040.296	794.501
28.965	14.063	1038.980	793.405
29.980	14.315	1037.204	793.181
30.994	14.326	1036.266	792.445
32.009	14.280	1035.779	791.785
33.023	14.179	1034.422	790.198
34.038	14.201	1033.390	789.443
35.053	14.078	1032.910	788.423
36.067	14.241	1031.301	787.897
37.082	14.131	1031.014	787.088
38.096	14.223	1029.977	786.659
39.111	14.153	1029.269	785.721
40.126	14.085	1028.116	784.447
41.140	13.988	1026.718	782.854
42.155	13.878	1026.216	781.884
43.169	13.872	1024.653	780.598
44.184	13.867	1023.729	779.801
45.199	13.939	1022.618	779.223
46.213	14.005	1021.543	778.644
47.228	14.102	1020.726	778.407
48.242	14.109	1019.567	777.486
49.257	14.093	1018.735	776.709
50.271	14.202	1017.721	776.375
51.286	14.133	1016.917	775.370
52.301	14.068	1016.467	774.659
53.315	13.918	1015.273	772.983
54.330	14.061	1014.114	772.693
55.344	14.075	1012.710	771.620
56.359	13.927	1012.748	770.896
57.374	13.925	1011.687	770.011
58.388	13.947	1010.517	769.152
59.403	13.860	1009.972	768.267
60.417	13.931	1009.166	767.915
61.432	13.888	1008.429	767.090
62.447	13.786	1007.730	766.018
63.461	13.823	1006.978	765.549
64.476	13.773	1005.536	764.153
65.490	13.757	1004.869	763.506
66.505	13.839	1004.086	763.219
67.520	13.778	1003.765	762.629
68.534	13.884	1002.686	762.229
69.549	13.915	1002.424	762.105
70.563	13.812	1001.625	760.958
71.578	13.674	1000.533	759.427
72.593	13.707	1000.134	759.209
73.607	13.765	999.657	759.044
74.622	13.611	999.176	757.910
75.636	13.753	997.974	757.579
76.651	13.647	997.278	756.498
77.666	13.735	997.122	756.713
78.680	13.663	996.613	755.931
79.695	13.789	995.625	755.691
80.709	13.789	995.097	755.224
81.724	13.912	994.475	755.242
82.739	13.926	993.335	754.375
83.753	14.094	992.861	754.710
84.768	14.217	992.162	754.669
85.782	14.344	990.966	754.270
86.797	14.223	990.478	753.285
87.812	14.074	989.585	751.863
88.826	14.178	988.698	751.593
89.841	14.136	987.741	750.611
90.855	14.217	986.878	750.251
91.870	14.216	985.998	749.515
92.884	14.237	985.127	748.878
93.899	14.219	984.224	748.045
94.914	14.258	983.794	747.828
95.928	14.320	982.577	747.113
96.943	14.185	981.587	745.692
97.957	14.300	980.423	745.255
98.972	14.181	980.064	744.384
99.987	14.216	979.353	743.934
101.001	14.336	978.244	743.563
102.016	14.120	977.806	742.198
103.030	14.253	976.954	742.082
104.045	14.265	975.996	741.338
105.060	14.142	974.906	739.900
106.074	13.990	974.273	738.677
107.089	13.972	973.465	737.919
108.103	13.940	972.304	736.834
109.118	13.890	971.197	735.707
110.133	13.932	970.482	735.289
111.147	14.024	969.532	734.909
112.162	14.020	968.876	734.327
113.176	14.022	968.382	733.898
114.191	14.077	967.389	733.323
115.206	14.081	967.015	732.993
116.220	14.042	965.749	731.795
117.235	14.010	964.821	730.889
118.249	13.980	964.223	730.236
119.264	13.891	963.499	729.235
120.279	13.936	963.039	729.020
121.293	13.855	962.067	727.864
122.308	13.990	960.647	727.316
123.322	13.993	960.003	726.777
124.337	13.877	959.092	725.518
125.352	13.886	958.105	724.747
126.366	13.884	957.171	723.967
127.381	14.012	956.102	723.652
128.395	13.930	955.236	722.573
129.410	13.995	954.275	722.066
130.424	13.933	953.727	721.317
131.439	14.056	952.729	721.032
132.454	14.059	952.080	720.489
133.468	14.110	951.557	720.250
134.483	14.065	950.416	719.130
135.497	14.020	950.069	718.609
136.512	14.050	949.155	717.984
137.527	14.106	948.427	717.610
138.541	14.066	947.640	716.780
139.556	14.175	946.431	716.272
140.570	14.297	946.193	716.552
141.585	14.204	945.747	715.754
142.600	14.347	944.491	715.354
143.614	14.451	943.626	715.080
144.629	14.414	943.015	714.397
145.643	14.357	941.563	712.989
146.658	14.174	940.875	711.623
147.673	14.221	940.043	711.129
148.687	14.151	939.190	710.122
149.702	14.246	937.934	709.514
150.716	14.168	937.375	708.698
151.731	14.199	936.795	708.330
152.746	14.144	936.409	707.737
153.760	14.200	935.583	707.291
154.775	14.360	934.547	707.126
155.789	14.279	934.333	706.557
156.804	14.319	933.736	706.211
157.819	14.358	933.208	705.915
158.833	14.406	932.574	705.577
159.848	14.415	931.801	704.966
160.862	14.491	930.557	704.284
161.877	14.300	929.622	702.707
162.892	14.240	928.579	701.605
163.906	14.106	927.886	700.456
164.921	14.225	927.084	700.290
165.935	14.278	926.290	699.850
166.950	14.303	925.478	699.281
167.964	14.395	924.456	698.830
168.979	14.257	923.490	697.459
169.994	14.257	922.864	696.927
171.008	14.374	922.250	696.893
172.023	14.364	921.673	696.351
173.037	14.387	921.304	696.107
174.052	14.428	920.664	695.731
175.067	14.327	919.586	694.436
176.081	14.274	918.990	693.702
177.096	14.431	918.732	694.101
178.110	14.426	917.795	693.310
179.125	14.341	917.475	692.656
180.140	14.457	916.707	692.494
181.154	14.503	916.504	692.473
182.169	14.649	915.635	692.360
183.183	14.566	915.417	691.790
184.198	14.578	914.851	691.350
185.213	14.552	913.924	690.481
186.227	14.633	912.972	690.037
187.242	14.570	912.795	689.582
188.256	14.802	911.887	689.790
189.271	14.762	911.022	688.911
190.286	14.610	909.846	687.335
191.300	14.375	909.568	686.096
192.315	14.279	908.813	685.071
193.329	14.392	907.977	684.845
194.344	14.474	907.865	685.036
195.359	14.441	907.558	684.607
196.373	14.659	906.317	684.504
197.388	14.767	906.262	684.847
198.402	14.884	905.625	684.784
199.417	14.884	904.796	684.096
200.432	14.834	904.671	683.737
201.446	15.004	904.060	683.907
202.461	14.961	903.865	683.526
203.475	14.882	902.990	682.482
204.490	14.998	902.016	682.155
205.504	14.809	901.492	680.928
206.519	14.847	900.876	680.560
207.534	14.809	900.399	679.982
208.548	14.850	899.433	679.360
209.563	14.901	898.506	678.808
210.577	14.900	898.304	678.592
211.592	14.998	897.497	678.320
212.607	15.043	896.860	677.958
213.621	15.036	895.959	677.190
214.636	14.947	895.371	676.328
215.650	15.106	894.920	676.569
216.665	15.041	894.141	675.656
217.680	15.104	893.273	675.195
218.694	15.078	892.838	674.701
219.709	15.095	892.323	674.322
220.723	15.126	891.605	673.844
221.738	15.053	890.653	672.772
222.753	15.068	890.221	672.445
223.767	15.099	890.140	672.449
224.782	15.162	889.029	671.803
225.796	15.160	888.862	671.611
226.811	15.090	887.968	670.594
227.826	15.124	887.136	670.045
228.840	15.246	886.157	669.731
229.855	15.156	885.549	668.856
230.869	15.294	884.584	668.617
231.884	15.138	884.357	667.762
232.899	14.976	883.934	666.741
233.913	15.095	882.788	666.287
234.928	15.178	881.832	665.839
235.942	15.130	881.578	665.399
236.957	15.066	881.187	664.788
237.972	15.008	880.777	664.191
238.986	14.986	880.210	663.618
240.001	15.032	879.424	663.149
241.015	15.258	878.520	663.301
242.030	15.309	877.987	663.045
243.045	15.303	877.502	662.595
244.059	15.344	877.102	662.397
245.074	15.301	876.208	661.492
246.088	15.322	875.900	661.284
247.103	15.380	875.425	661.094
248.117	15.407	874.889	660.740
249.132	15.544	874.267	660.749
250.147	15.598	873.916	660.637
251.161	15.776	872.608	660.290
252.176	15.848	871.842	659.935
253.190	15.746	871.646	659.327
254.205	15.861	871.006	659.236
255.220	15.800	870.191	658.320
256.234	15.761	869.737	657.766
257.249	15.763	868.827	657.029
258.263	15.702	868.398	656.406
259.278	15.828	867.573	656.218
260.293	15.956	866.809	656.080
261.307	15.778	866.746	655.282
262.322	15.856	865.896	654.885
263.336	15.963	864.919	654.503
264.351	15.967	864.635	654.246
265.366	16.062	863.994	654.072
266.380	15.910	863.550	653.089
267.395	15.912	862.871	652.526
268.409	15.761	862.458	651.571
269.424	15.846	861.710	651.276
270.439	15.871	860.526	650.419
271.453	15.873	860.206	650.128
272.468	15.924	859.391	649.651
273.482	16.090	858.620	649.652
274.497	15.921	858.049	648.508
275.512	15.879	858.113	648.341
276.526	15.813	857.516	647.577
277.541	15.962	857.070	647.754
278.555	16.045	856.277	647.419
279.570	16.301	855.509	647.763
280.585	16.137	854.775	646.522
281.599	16.109	853.986	645.760
282.614	16.044	853.293	644.931
283.628	16.249	852.777	645.266
284.643	15.998	852.435	643.991
285.657	16.142	851.577	643.838
286.672	16.062	850.903	642.965
287.687	16.175	850.441	642.988
288.701	16.219	850.070	642.819
289.716	16.216	849.601	642.396
290.730	16.129	848.938	641.506
291.745	16.185	848.597	641.406
292.760	16.249	847.717	640.928
293.774	16.323	847.046	640.644
294.789	16.198	846.444	639.659
295.803	16.244	845.634	639.164
296.818	16.190	845.188	638.566
297.833	16.326	844.572	638.558
298.847	16.288	843.746	637.734
299.862	16.320	843.171	637.363
300.876	16.517	843.014	637.933
301.891	16.333	842.304	636.644
302.906	16.576	841.257	636.710
303.920	16.588	841.270	636.710
304.935	16.628	840.961	636.569
305.949	16.459	840.066	635.199
306.964	16.511	839.454	634.875
307.979	16.575	838.795	634.564
308.993	16.516	838.805	634.291
310.008	16.642	838.041	634.131
311.022	16.521	837.297	633.060
312.037	16.459	836.524	632.188
313.052	16.417	836.034	631.602
314.066	16.350	835.469	630.872
315.081	16.383	834.967	630.558
316.095	16.473	834.334	630.359
317.110	16.423	834.020	629.881
318.125	16.451	833.356	629.429
319.139	16.416	833.079	629.032
320.154	16.458	832.740	628.877
321.168	16.516	832.018	628.494
322.183	16.428	831.304	627.571
323.197	16.533	830.851	627.564
324.212	16.632	830.372	627.513
325.227	16.502	829.487	626.306
326.241	16.519	829.089	626.015
327.256	16.688	828.351	626.027
328.270	16.485	828.056	624.997
329.285	16.553	827.432	624.721
330.300	16.562	826.805	624.227
331.314	16.485	826.610	623.742
332.329	16.615	825.875	623.609
333.343	16.695	825.808	623.798
334.358	16.643	825.266	623.144
335.373	16.553	824.858	622.450
336.387	16.701	824.441	622.622
337.402	16.666	824.369	622.385
338.416	16.918	823.928	622.921
339.431	16.903	823.430	622.436
340.446	17.008	822.969	622.418
341.460	16.967	822.709	622.017
342.475	17.168	822.289	622.381
343.489	17.014	821.781	621.377
344.504	17.074	821.323	621.195
345.519	17.161	821.098	621.288
346.533	17.073	820.165	620.205
347.548	17.133	819.764	620.064
348.562	16.954	819.466	619.133
349.577	16.899	818.396	618.068
350.592	16.793	818.321	617.570
351.606	17.055	817.279	617.684
352.621	17.031	816.853	617.219
353.635	16.970	816.077	616.355
354.650	16.895	815.427	615.538
355.665	16.985	815.348	615.750
356.679	17.024	814.669	615.324
357.694	17.223	813.541	615.141
358.708	17.077	812.988	614.139
359.723	17.050	812.490	613.611
360.738	17.232	811.787	613.683
361.752	17.107	811.511	612.969
362.767	17.144	810.885	612.574
363.781	17.335	810.143	612.647
364.796	17.522	809.719	612.947
365.810	17.396	809.544	612.309
366.825	17.519	809.207	612.441
367.840	17.350	808.809	611.478
368.854	17.494	808.238	611.509
369.869	17.405	807.859	610.848
370.883	17.425	807.238	610.397
371.898	17.315	807.499	610.147
372.913	17.575	806.961	610.616
373.927	17.480	806.137	609.599
374.942	17.589	805.890	609.747
375.956	17.662	805.133	609.383
376.971	17.620	804.858	608.972
377.986	17.719	804.547	609.035
379.000	17.628	804.355	608.512
380.015	17.738	803.439	608.158
381.029	17.721	802.497	607.330
382.044	17.755	802.155	607.139
383.059	17.633	802.150	606.648
384.073	17.700	801.119	606.052
385.088	17.598	800.623	605.260
386.102	17.683	799.775	604.867
387.117	17.463	799.629	603.922
388.132	17.670	798.522	603.764
389.146	17.625	798.608	603.619
390.161	17.722	798.044	603.483
391.175	17.711	797.615	603.066
392.190	17.646	797.296	602.540
393.205	17.690	796.436	601.992
394.219	17.648	796.343	601.719
395.234	17.735	795.779	601.548
396.248	17.580	795.432	600.687
397.263	17.536	794.699	599.923
398.278	17.508	794.431	599.571
399.292	17.610	793.654	599.291
400.307	17.692	793.369	599.311
401.321	17.688	792.964	598.937
402.336	17.675	792.326	598.356
403.350	17.736	792.229	598.445
404.365	17.786	791.695	598.163
405.380	17.695	791.422	597.586
406.394	17.974	790.784	598.026
407.409	18.022	790.371	597.830
408.423	18.003	790.357	597.700
409.438	17.994	790.200	597.498
410.453	17.930	789.640	596.796
411.467	18.027	788.995	596.594
412.482	18.218	788.641	596.941
413.496	18.240	788.388	596.774
414.511	18.265	787.779	596.346
415.526	18.369	786.960	596.036
416.540	18.106	786.961	595.069
417.555	18.188	786.416	594.888
418.569	18.176	786.008	594.485
419.584	18.218	785.559	594.241
420.599	18.309	784.850	593.966
421.613	157.188	1370.611	1796.683
422.628	135.813	1455.972	1796.792
