DTS Sentinel unit serial number:	SN413079Multiplexer serial number:	ORYXHardware model number:	OX4-SRSoftware version number:	ORYX F/W v4.00 Oryx Data Collector v3.7.2.0data status	okinstallation	princeton_trtdifferential loss correction	single-endedforward channel	channel 1reverse channel	N/Adate	2019/09/12time	19:21:34forward acquisition time	15.00reverse acquisition time	0.00gamma	496.2192k internal	0.2322k external	0.2322temperature offset calibration	1.0105default loss term (dB/km)	0.3790temperature slope calibration	1.0000multiplexer offset coefficient	1.0000multiplexer slope coefficient	1.0000fibre end	0.00T internal ref (°C)	32.44T ext. ref 1 (°C)	3.19T ext. ref 2 (°C)	26.92length (m)	temperature (°C)	Stokes	anti-Stokes-747.200	-200.000	-0.031	0.248
-746.185	-14.645	-0.485	-0.315
-745.171	-15.293	0.686	-0.443
-744.156	-51.254	0.323	0.153
-743.142	-112.410	-0.467	-0.094
-742.127	-79.416	0.176	0.060
-741.112	244.307	0.061	0.103
-740.098	799.600	-0.226	0.629
-739.083	-114.266	-0.321	-0.063
-738.069	-1.909	-0.180	0.128
-737.054	-200.000	0.054	0.381
-736.039	-200.000	0.029	-0.565
-735.025	296.639	-0.572	1.060
-734.010	50.730	-0.276	-0.264
-732.996	-200.000	0.042	-0.288
-731.981	-81.871	-0.515	-0.170
-730.966	-191.102	-0.415	-0.004
-729.952	-113.130	-0.204	-0.041
-728.937	92.883	-0.227	0.259
-727.923	800.000	-0.247	0.821
-726.908	-151.203	-0.250	-0.019
-725.894	800.000	0.153	-0.492
-724.879	-146.301	-0.322	0.029
-723.864	-200.000	-0.005	-0.509
-722.850	203.817	-0.320	0.500
-721.835	-41.220	-0.557	-0.290
-720.821	29.602	0.104	0.090
-719.806	800.000	0.133	0.553
-718.791	-123.143	0.780	-0.126
-717.777	79.369	-0.324	-0.351
-716.762	800.000	0.139	0.405
-715.748	800.000	-0.102	0.333
-714.733	-111.032	0.768	-0.159
-713.718	-57.263	-0.394	0.175
-712.704	9.895	0.309	0.237
-711.689	88.110	0.463	0.518
-710.675	-51.428	-0.710	-0.335
-709.660	-80.961	-0.740	-0.247
-708.645	-200.000	-0.007	-0.229
-707.631	122.693	0.386	0.487
-706.616	660.459	0.092	0.239
-705.602	-164.315	0.219	0.010
-704.587	-200.000	-0.185	0.992
-703.572	24.214	0.522	-0.435
-702.558	185.698	0.179	0.268
-701.543	800.000	-0.219	0.706
-700.529	256.039	0.293	0.508
-699.514	85.120	-0.272	0.301
-698.499	9.408	-0.038	0.029
-697.485	31.779	-0.153	0.133
-696.470	-25.524	-0.178	0.106
-695.456	-200.000	0.003	0.150
-694.441	-97.806	-0.474	0.124
-693.426	-21.545	0.469	-0.288
-692.412	-200.000	0.080	-0.519
-691.397	74.846	-0.287	-0.305
-690.383	25.130	0.523	-0.437
-689.368	116.577	-0.344	0.425
-688.354	-200.000	0.052	-0.295
-687.339	549.007	0.256	-0.619
-686.324	270.140	0.150	-0.266
-685.310	-160.814	0.422	-0.023
-684.295	-126.911	-0.766	-0.114
-683.281	-129.938	-0.519	0.072
-682.266	-200.000	-0.077	-1.088
-681.251	-191.979	-0.309	-0.003
-680.237	-130.052	-0.403	-0.055
-679.222	-8.637	-0.452	-0.306
-678.208	137.376	0.278	-0.367
-677.193	-21.869	0.521	-0.319
-676.178	-200.000	-0.112	0.496
-675.164	114.621	-0.211	-0.259
-674.149	-148.866	-0.308	0.025
-673.135	-119.973	0.652	-0.113
-672.120	-110.257	0.450	-0.094
-671.105	-47.375	0.266	-0.131
-670.091	487.419	0.160	0.369
-669.076	63.962	0.225	-0.228
-668.062	800.000	0.197	0.596
-667.047	80.107	0.266	0.288
-666.032	800.000	0.064	-0.272
-665.018	189.633	0.346	-0.523
-664.003	-200.000	-0.240	1.268
-662.989	-184.953	-0.834	0.013
-661.974	-200.000	0.040	0.249
-660.959	66.764	-0.444	0.455
-659.945	113.455	-0.249	-0.304
-658.930	-82.575	-0.796	0.260
-657.916	-115.996	0.211	-0.040
-656.901	-50.679	-0.662	0.314
-655.886	202.917	-0.272	0.423
-654.872	72.707	0.480	0.505
-653.857	-78.883	0.430	0.148
-652.843	537.406	-0.293	0.701
-651.828	-22.208	0.643	0.393
-650.814	-200.000	0.131	-0.592
-649.799	800.000	0.032	0.137
-648.784	800.000	0.169	-0.685
-647.770	105.273	0.522	0.620
-646.755	119.162	0.227	0.283
-645.741	800.000	0.167	-0.628
-644.726	-200.000	-0.038	-0.372
-643.711	63.572	-0.641	-0.647
-642.697	-200.000	0.080	-0.634
-641.682	-61.392	-0.413	0.175
-640.668	800.000	0.125	0.436
-639.653	-83.229	-0.791	0.256
-638.638	535.553	0.010	-0.024
-637.624	-151.834	0.791	0.058
-636.609	-28.612	-0.443	0.257
-635.595	-39.132	0.306	0.162
-634.580	17.627	-0.869	0.696
-633.565	39.786	-0.381	-0.344
-632.551	-200.000	0.100	-0.781
-631.536	-92.355	-0.913	-0.259
-630.522	-146.451	0.084	-0.007
-629.507	691.318	0.149	0.392
-628.492	-98.766	-0.520	0.133
-627.478	-200.000	0.027	0.759
-626.463	-0.677	-0.354	-0.252
-625.449	800.000	0.093	-0.318
-624.434	-123.862	-0.393	-0.062
-623.419	55.610	-0.189	-0.184
-622.405	75.115	-0.271	-0.287
-621.390	800.000	-0.109	-0.380
-620.376	-79.709	-0.648	-0.220
-619.361	252.877	-0.073	0.125
-618.346	-137.440	0.390	-0.044
-617.332	-200.000	-0.097	-0.488
-616.317	85.485	0.313	-0.346
-615.303	-68.140	0.194	-0.076
-614.288	-200.000	0.060	0.818
-613.273	662.923	-0.337	0.873
-612.259	106.624	-0.258	-0.307
-611.244	-105.532	-0.285	0.065
-610.230	155.087	-0.075	-0.103
-609.215	-57.944	-0.215	0.094
-608.201	10.072	-0.685	-0.523
-607.186	-126.510	-0.911	-0.136
-606.171	-65.031	-0.641	-0.260
-605.157	118.412	0.190	-0.236
-604.142	17.224	-0.150	-0.120
-603.128	800.000	0.185	0.621
-602.113	29.268	-0.246	0.210
-601.098	800.000	0.118	-0.457
-600.084	-3.684	0.484	0.338
-599.069	19.260	-0.499	-0.403
-598.055	330.319	-0.385	-0.744
-597.040	21.005	-0.452	0.368
-596.025	-56.126	0.673	-0.301
-595.011	97.775	-0.462	0.534
-593.996	115.967	0.604	0.742
-592.982	-106.010	0.587	-0.133
-591.967	800.000	0.076	-0.238
-590.952	-133.791	-0.101	-0.013
-589.938	-200.000	-0.050	-0.500
-588.923	-46.614	0.412	0.203
-587.909	166.518	-0.163	-0.231
-586.894	-200.000	0.083	0.400
-585.879	800.000	0.151	-0.617
-584.865	-200.000	-0.164	0.753
-583.850	68.902	0.278	0.286
-582.836	-0.684	0.426	-0.303
-581.821	-200.000	-0.066	-0.298
-580.806	-38.137	-0.667	0.355
-579.792	-155.751	1.022	0.066
-578.777	-76.697	0.270	-0.095
-577.763	-37.234	-0.228	0.122
-576.748	800.000	-0.227	-0.699
-575.733	203.666	-0.364	-0.565
-574.719	-60.707	0.727	0.309
-573.704	800.000	-0.108	0.432
-572.690	-200.000	0.092	0.609
-571.675	-107.845	0.597	0.130
-570.661	153.532	-0.441	-0.606
-569.646	176.324	0.295	0.430
-568.631	351.742	0.323	0.643
-567.617	-37.118	-0.378	-0.203
-566.602	174.397	-0.201	-0.292
-565.588	-200.000	-0.059	0.355
-564.573	-19.840	-0.332	-0.206
-563.558	800.000	-0.208	-0.840
-562.544	-119.170	-0.581	-0.102
-561.529	-124.885	-0.302	0.047
-560.515	800.000	0.217	-0.730
-559.500	800.000	-0.047	0.172
-558.485	13.039	-0.591	-0.459
-557.471	-163.326	0.702	-0.034
-556.456	-48.414	-0.537	-0.260
-555.442	352.904	-0.308	-0.612
-554.427	-14.733	0.858	0.553
-553.412	49.201	0.245	-0.231
-552.398	-74.768	-0.409	-0.147
-551.383	157.347	-0.290	0.402
-550.369	-118.706	-0.391	-0.069
-549.354	104.368	0.234	0.276
-548.339	-84.794	0.518	0.163
-547.325	46.363	0.781	0.726
-546.310	-200.000	0.065	-0.327
-545.296	39.619	0.355	0.319
-544.281	800.000	-0.224	-0.740
-543.266	130.078	0.247	-0.317
-542.252	181.888	-0.442	0.652
-541.237	800.000	0.339	1.008
-540.223	800.000	0.074	0.238
-539.208	-12.775	-0.764	0.499
-538.193	-200.000	0.041	-0.579
-537.179	32.799	-0.599	-0.519
-536.164	-10.747	-0.439	0.291
-535.150	105.398	-0.580	-0.687
-534.135	113.607	0.300	-0.366
-533.121	100.288	0.229	0.266
-532.106	-116.283	0.586	-0.109
-531.091	125.746	0.461	0.584
-530.077	800.000	0.154	-0.644
-529.062	-200.000	-0.157	-0.816
-528.048	42.077	0.535	0.486
-527.033	250.077	-0.524	-0.892
-526.018	166.683	-0.320	0.454
-525.004	149.569	-0.203	0.276
-523.989	303.527	-0.197	0.366
-522.975	-79.219	0.249	0.085
-521.960	-200.000	0.070	-0.472
-520.945	-133.246	0.281	0.036
-519.931	-126.467	-0.776	0.116
-518.916	-200.000	-0.066	-0.503
-517.902	733.403	0.119	-0.319
-516.887	80.089	0.313	0.337
-515.872	-118.911	0.141	-0.025
-514.858	800.000	0.018	0.058
-513.843	-101.854	-0.569	0.138
-512.829	431.080	-0.102	0.221
-511.814	411.076	0.392	0.833
-510.799	393.108	0.009	-0.018
-509.785	303.566	-0.130	-0.242
-508.770	85.738	-0.061	-0.067
-507.756	311.490	-0.119	0.224
-506.741	-48.785	-0.597	-0.287
-505.726	-200.000	0.004	-0.058
-504.712	800.000	-0.139	-0.464
-503.697	-102.567	-0.397	-0.095
-502.683	-126.344	0.549	0.082
-501.668	-88.060	0.476	0.143
-500.653	-134.814	-0.627	-0.076
-499.639	438.110	-0.353	-0.769
-498.624	412.878	0.193	0.410
-497.610	-107.292	-0.336	-0.074
-496.595	200.167	-0.272	0.419
-495.581	399.205	-0.097	-0.202
-494.566	326.770	0.284	-0.544
-493.551	117.099	-0.133	-0.163
-492.537	-200.000	-0.002	0.179
-491.522	6.993	-0.388	0.289
-490.508	40.469	-0.207	-0.187
-489.493	-200.000	0.019	0.492
-488.478	-200.000	0.068	-0.775
-487.464	101.284	-0.475	0.553
-486.449	563.930	0.228	0.552
-485.435	-100.070	0.541	-0.135
-484.420	-128.199	0.328	-0.047
-483.405	-186.947	-0.265	-0.004
-482.391	-74.455	-0.902	0.325
-481.376	-80.936	-0.649	0.215
-480.362	-200.000	-0.030	0.341
-479.347	-96.406	-0.119	-0.032
-478.332	95.468	0.524	-0.598
-477.318	-41.547	-0.130	-0.067
-476.303	31.170	0.375	0.322
-475.289	-121.952	0.494	0.081
-474.274	-30.785	0.535	0.302
-473.259	800.000	-0.308	-0.897
-472.245	-200.000	0.187	-1.104
-471.230	49.051	-0.555	-0.521
-470.216	-24.372	-0.313	-0.186
-469.201	800.000	-0.282	0.787
-468.186	456.541	0.192	-0.425
-467.172	-63.212	-0.317	-0.130
-466.157	800.000	0.167	-0.664
-465.143	74.550	-0.393	-0.413
-464.128	13.742	-0.401	-0.312
-463.113	-117.273	0.657	0.119
-462.099	-200.000	0.010	-0.260
-461.084	-5.058	-0.655	0.451
-460.070	800.000	-0.091	-0.270
-459.055	-86.806	-0.178	-0.054
-458.040	-200.000	-0.026	0.226
-457.026	-152.408	0.867	0.062
-456.011	60.721	0.124	-0.123
-454.997	191.060	-0.314	0.472
-453.982	531.006	-0.232	0.548
-452.968	278.422	0.113	-0.202
-451.953	-47.962	-0.456	-0.221
-450.938	143.966	0.288	-0.384
-449.924	23.265	-0.054	0.044
-448.909	800.000	-0.128	0.366
-447.895	6.788	-0.555	-0.413
-446.880	81.580	-0.702	0.758
-445.865	334.016	-0.136	0.263
-444.851	-45.290	0.212	0.105
-443.836	-38.445	-0.303	0.160
-442.822	253.751	-0.225	0.383
-441.807	-38.776	0.379	-0.200
-440.792	283.833	0.232	-0.416
-439.778	457.355	0.078	-0.173
-438.763	-80.513	0.459	0.153
-437.749	-82.508	-0.111	-0.036
-436.734	-200.000	-0.141	-0.653
-435.719	91.007	0.427	-0.478
-434.705	-200.000	0.017	-0.291
-433.690	388.328	-0.187	0.387
-432.676	800.000	0.097	0.309
-431.661	-26.148	0.172	-0.101
-430.646	257.773	-0.148	0.255
-429.632	208.237	-0.382	-0.596
-428.617	-200.000	0.024	0.404
-427.603	-200.000	0.090	0.577
-426.588	-200.000	0.166	-0.728
-425.573	159.083	-0.276	-0.383
-424.559	-111.522	-0.573	-0.116
-423.544	48.641	-0.242	0.226
-422.530	53.341	-0.567	-0.542
-421.515	51.104	0.199	0.189
-420.500	-167.930	0.407	-0.016
-419.486	-16.081	0.421	-0.267
-418.471	-125.829	-0.917	-0.138
-417.457	27.234	0.071	0.060
-416.442	-200.000	-0.019	0.220
-415.428	41.374	-0.635	0.573
-414.413	-200.000	0.224	1.120
-413.398	-83.962	0.185	0.059
-412.384	-116.494	0.400	-0.074
-411.369	800.000	0.135	-0.514
-410.355	-200.000	-0.140	-0.674
-409.340	3.598	0.386	-0.281
-408.325	800.000	-0.152	0.469
-407.311	167.106	-0.344	0.487
-406.296	71.282	0.155	0.160
-405.282	81.149	-0.243	0.262
-404.267	-200.000	0.057	0.315
-403.252	13.991	-0.436	0.338
-402.238	-55.328	-0.429	0.192
-401.223	-81.982	0.738	-0.240
-400.209	73.147	0.384	-0.400
-399.194	436.763	-0.173	0.375
-398.179	386.486	0.301	-0.621
-397.165	-200.000	0.078	0.345
-396.150	249.687	0.188	0.317
-395.136	89.797	-0.522	0.581
-394.121	61.911	-0.175	0.174
-393.106	800.000	0.091	0.282
-392.092	-116.931	0.226	0.041
-391.077	-44.976	0.310	0.154
-390.063	23.641	0.566	-0.464
-389.048	-35.219	0.345	0.187
-388.033	49.312	0.351	0.329
-387.019	-165.657	0.681	0.029
-386.004	-14.866	-0.064	-0.041
-384.990	-68.822	-0.395	0.152
-383.975	-121.222	-0.913	0.152
-382.960	-4.903	0.379	-0.261
-381.946	36.827	0.409	-0.360
-380.931	-38.756	-0.500	0.263
-379.917	-97.171	0.403	0.105
-378.902	327.698	0.115	0.220
-377.888	199.118	-0.099	0.152
-376.873	345.682	0.070	-0.136
-375.858	-131.184	-0.485	-0.064
-374.844	800.000	0.169	0.694
-373.829	688.748	0.123	-0.322
-372.815	-39.690	0.769	-0.400
-371.800	19.557	-0.871	-0.698
-370.785	-200.000	-0.081	1.231
-369.771	14.209	0.314	-0.244
-368.756	330.961	-0.364	0.699
-367.742	-107.951	-0.489	-0.106
-366.727	-88.098	-0.684	0.204
-365.712	-164.655	-0.500	0.023
-364.698	163.228	0.397	-0.555
-363.683	-121.026	0.538	-0.090
-362.669	800.000	0.124	-0.464
-361.654	-174.023	0.705	-0.021
-360.639	-200.000	0.089	-0.777
-359.625	196.650	0.231	-0.350
-358.610	800.000	-0.263	0.838
-357.596	-200.000	-0.045	0.454
-356.581	-3.856	-0.496	0.343
-355.566	5.067	0.171	-0.125
-354.552	-17.299	0.275	0.172
-353.537	-124.002	-0.094	0.015
-352.523	5.373	0.355	0.261
-351.508	528.774	-0.209	-0.491
-350.493	-95.836	-0.491	0.130
-349.479	246.751	0.062	-0.104
-348.464	-200.000	0.036	-0.228
-347.450	-126.707	-0.612	0.090
-346.435	-136.340	0.645	-0.075
-345.420	233.537	0.117	-0.191
-344.406	19.614	0.584	-0.467
-343.391	-200.000	-0.136	-0.628
-342.377	-63.103	-0.582	-0.239
-341.362	144.143	0.620	0.822
-340.348	-82.072	1.159	0.376
-339.333	171.896	0.324	-0.463
-338.318	-121.168	0.730	-0.121
-337.304	-56.848	-0.275	0.121
-336.289	231.196	-0.444	0.723
-335.275	-200.000	-0.056	0.345
-334.260	257.884	-0.634	1.085
-333.245	-200.000	0.023	-0.491
-332.231	90.022	-0.265	-0.294
-331.216	-200.000	-0.079	-0.441
-330.202	150.205	0.163	-0.221
-329.187	-112.847	0.594	-0.117
-328.172	-122.963	0.898	0.144
-327.158	145.188	0.435	0.579
-326.143	-200.000	-0.026	-0.209
-325.129	86.683	0.329	0.361
-324.114	-171.571	0.995	-0.033
-323.099	365.354	0.144	0.289
-322.085	-200.000	-0.122	0.775
-321.070	73.054	0.628	0.652
-320.056	10.495	-0.461	0.349
-319.041	114.401	-0.584	0.706
-318.026	-35.953	-0.280	0.151
-317.012	-173.562	1.123	-0.034
-315.997	-200.000	-0.068	-0.493
-314.983	-200.000	-0.096	-0.587
-313.968	-114.098	0.367	-0.071
-312.953	-14.815	-0.487	-0.311
-311.939	-200.000	-0.012	-0.475
-310.924	-70.353	0.981	-0.370
-309.910	-118.628	0.398	0.070
-308.895	-144.590	0.311	-0.029
-307.880	192.470	-0.118	-0.177
-306.866	-80.472	0.543	-0.180
-305.851	800.000	-0.140	0.419
-304.837	-99.772	-0.612	-0.152
-303.822	431.475	0.307	-0.660
-302.807	-43.845	0.371	0.185
-301.793	-200.000	0.053	0.383
-300.778	366.159	-0.313	0.626
-299.764	28.509	-0.409	-0.344
-298.749	752.274	0.179	0.479
-297.735	-58.418	-0.710	0.306
-296.720	-47.538	-0.334	-0.161
-295.705	-20.650	0.733	0.447
-294.691	67.503	-0.557	0.564
-293.676	-101.549	0.770	0.186
-292.662	-19.676	0.288	0.177
-291.647	106.312	-0.271	0.319
-290.632	-200.000	-0.102	-0.647
-289.618	11.328	0.500	-0.380
-288.603	-75.085	0.984	0.350
-287.589	800.000	0.259	0.883
-286.574	372.628	0.328	-0.662
-285.559	800.000	0.079	0.272
-284.545	-156.565	-0.737	-0.045
-283.530	800.000	0.194	-0.745
-282.516	-200.000	0.002	-0.078
-281.501	-140.948	0.304	-0.031
-280.486	-16.080	-0.487	0.308
-279.472	-83.614	0.316	-0.100
-278.457	-37.419	0.757	0.401
-277.443	-103.334	-0.816	0.191
-276.428	800.000	-0.211	-0.641
-275.413	471.770	-0.066	-0.147
-274.399	-4.198	-0.623	0.428
-273.384	291.718	0.126	0.228
-272.370	143.660	-0.277	-0.366
-271.355	-22.246	0.231	0.139
-270.340	15.719	-0.820	-0.640
-269.326	-200.000	-0.005	0.318
-268.311	-200.000	-0.023	0.111
-267.297	16.052	-0.301	0.235
-266.282	259.751	0.356	0.610
-265.267	-78.606	0.739	0.251
-264.253	223.339	0.172	0.275
-263.238	800.000	0.211	-0.776
-262.224	800.000	-0.156	-0.432
-261.209	-80.911	0.725	-0.238
-260.195	-200.000	-0.033	0.623
-259.180	-26.640	0.851	0.494
-258.165	787.773	-0.247	-0.673
-257.151	26.684	-0.514	-0.426
-256.136	291.137	-0.127	0.229
-255.122	-98.639	0.307	0.078
-254.107	12.289	0.257	-0.197
-253.092	-34.014	-0.600	0.327
-252.078	-117.710	0.427	0.076
-251.063	316.848	-0.052	-0.097
-250.049	800.000	0.177	0.643
-249.034	2.120	-0.835	0.598
-248.019	-200.000	-0.010	0.552
-247.005	-83.258	0.125	-0.040
-245.990	800.000	-0.044	-0.163
-244.976	-74.982	0.311	0.110
-243.961	234.091	-0.233	-0.380
-242.946	409.407	-0.272	0.571
-241.932	-70.864	1.021	-0.381
-240.917	-200.000	0.008	-0.553
-239.903	3.545	-0.118	-0.085
-238.888	-173.982	0.539	0.016
-237.873	132.176	0.318	-0.406
-236.859	650.525	0.217	-0.551
-235.844	800.000	0.249	0.847
-234.830	-21.053	0.499	-0.302
-233.815	-200.000	0.043	-0.534
-232.800	-101.851	0.063	-0.015
-231.786	-120.649	0.437	0.073
-230.771	6.345	-0.385	-0.283
-229.757	561.100	0.223	0.534
-228.742	30.470	-0.503	0.426
-227.727	800.000	0.264	-0.863
-226.713	-109.151	-0.543	-0.114
-225.698	-118.264	0.662	-0.117
-224.684	153.594	-0.481	-0.653
-223.669	-139.602	-0.356	-0.038
-222.655	102.329	0.486	0.562
-221.640	-64.697	0.265	-0.107
-220.625	120.065	-0.578	-0.710
-219.611	-25.215	-0.579	0.340
-218.596	149.254	-0.099	0.132
-217.582	-109.810	0.136	0.028
-216.567	134.885	0.248	0.319
-215.552	-139.024	0.932	-0.100
-214.538	-200.000	0.050	0.518
-213.523	638.544	0.172	0.433
-212.509	-39.401	-0.852	0.442
-211.494	290.769	-0.262	0.471
-210.479	269.411	-0.379	0.659
-209.465	-21.053	0.501	0.303
-208.450	-200.000	-0.025	0.367
-207.436	-200.000	-0.220	1.035
-206.421	91.121	-0.486	-0.540
-205.406	22.423	0.509	-0.411
-204.392	-97.789	-0.393	-0.101
-203.377	-200.000	-0.000	-0.495
-202.363	89.322	0.365	0.403
-201.348	-10.042	0.494	-0.324
-200.333	800.000	-0.096	-0.335
-199.319	661.883	-0.091	0.231
-198.304	-200.000	0.015	-0.748
-197.290	676.360	0.106	-0.273
-196.275	75.972	-0.329	-0.344
-195.260	-30.796	0.346	-0.193
-194.246	305.955	-0.351	-0.646
-193.231	-85.552	-0.343	-0.105
-192.217	-54.700	-0.370	0.165
-191.202	129.125	-0.335	-0.423
-190.187	-200.000	0.031	-0.468
-189.173	9.880	0.254	0.191
-188.158	627.110	-0.231	-0.577
-187.144	64.437	0.464	0.463
-186.129	-200.000	0.023	0.107
-185.114	-5.721	0.398	-0.269
-184.100	14.330	0.514	-0.396
-183.085	5.779	0.504	-0.368
-182.071	-200.000	0.070	-0.645
-181.056	137.907	0.106	-0.137
-180.042	-157.733	0.472	-0.028
-179.027	-96.239	-0.519	0.136
-178.012	271.093	0.485	0.843
-176.998	-72.952	-0.241	-0.087
-175.983	-60.017	-0.298	-0.126
-174.969	-38.597	0.491	0.256
-173.954	-200.000	0.197	-0.891
-172.939	-78.941	-0.289	0.097
-171.925	800.000	-0.307	1.269
-170.910	-34.878	0.203	0.110
-169.896	622.326	-0.114	0.284
-168.881	101.270	0.313	0.360
-167.866	73.795	-0.700	0.724
-166.852	-200.000	0.013	0.397
-165.837	-200.000	-0.129	-0.776
-164.823	-133.142	-0.536	0.067
-163.808	283.217	-0.369	0.655
-162.793	486.643	-0.122	-0.275
-161.779	109.301	0.056	0.067
-160.764	80.671	0.785	-0.836
-159.750	-200.000	-0.043	-0.209
-158.735	-30.410	-0.219	0.123
-157.720	101.576	-0.409	0.471
-156.706	-140.898	0.487	0.049
-155.691	139.750	-0.087	-0.114
-154.677	-128.865	-0.211	0.029
-153.662	-64.573	0.620	-0.249
-152.647	295.291	-0.048	-0.086
-151.633	-115.048	0.769	0.144
-150.618	310.035	-0.183	-0.338
-149.604	78.724	0.487	0.514
-148.589	-83.966	0.872	-0.274
-147.574	800.000	0.115	-0.463
-146.560	-89.338	-0.872	0.254
-145.545	-61.768	-0.507	-0.210
-144.531	-8.735	0.107	0.071
-143.516	45.559	-0.349	0.318
-142.502	132.453	-0.453	0.576
-141.487	-106.495	-0.643	-0.142
-140.472	289.609	0.214	-0.383
-139.458	-143.349	0.706	-0.067
-138.443	-48.591	-0.492	0.233
-137.429	-93.816	0.366	-0.099
-136.414	-36.241	-0.433	0.231
-135.399	-43.708	0.200	0.099
-134.385	800.000	-0.274	1.061
-133.370	-154.676	0.559	-0.037
-132.356	228.046	-0.186	0.298
-131.341	208.026	0.465	0.717
-130.326	257.087	-0.236	0.400
-129.312	-114.533	0.684	-0.129
-128.297	-154.200	-0.418	0.028
-127.283	-83.321	-0.149	0.047
-126.268	17.319	-0.551	0.432
-125.253	800.000	-0.112	0.311
-124.239	-200.000	-0.057	-0.385
-123.224	520.615	-0.219	0.507
-122.210	715.846	0.075	0.197
-121.195	332.507	-0.091	-0.174
-120.180	121.642	0.281	-0.346
-119.166	245.973	-0.348	0.578
-118.151	629.780	0.130	0.325
-117.137	236.740	0.048	-0.078
-116.122	66.095	-0.475	0.475
-115.107	-87.635	0.874	-0.260
-114.093	-200.000	0.018	0.573
-113.078	800.000	0.205	-0.564
-112.064	177.036	0.197	0.282
-111.049	-200.000	-0.030	0.164
-110.034	-105.668	0.395	0.088
-109.020	13.079	-0.456	-0.348
-108.005	52.454	-0.150	-0.141
-106.991	181.410	-0.171	0.247
-105.976	-200.000	-0.050	0.472
-104.962	26.810	-0.407	0.336
-103.947	22.025	0.373	0.300
-102.932	-31.935	-0.463	0.255
-101.918	60.446	0.684	-0.667
-100.903	-74.344	-0.976	-0.347
-99.889	800.000	0.132	0.439
-98.874	237.149	0.458	0.748
-97.859	224.748	-0.406	0.647
-96.845	-200.000	-0.005	0.677
-95.830	341.089	0.289	0.556
-94.816	-47.970	0.097	-0.046
-93.801	800.000	0.170	-0.676
-92.786	144.157	-0.083	0.109
-91.772	270.880	0.463	0.802
-90.757	-33.209	0.754	0.411
-89.743	762.881	-0.173	-0.463
-88.728	-26.134	-0.410	-0.238
-87.713	800.000	0.125	-0.366
-86.699	-164.076	-0.483	0.022
-85.684	70.373	-0.719	0.732
-84.670	602.871	0.263	-0.644
-83.655	800.000	-0.124	0.485
-82.640	-57.681	-0.379	-0.163
-81.626	-100.260	-0.115	0.028
-80.611	-200.000	0.086	-0.629
-79.597	-3.399	0.504	-0.345
-78.582	-113.180	0.506	-0.098
-77.567	-14.053	0.331	0.210
-76.553	800.000	0.058	0.179
-75.538	12.304	-0.434	-0.329
-74.524	283.325	-0.082	-0.145
-73.509	310.683	0.146	-0.268
-72.494	75.158	0.679	0.705
-71.480	800.000	0.201	0.690
-70.465	719.985	-0.117	-0.306
-69.451	119.308	-0.405	0.494
-68.436	256.540	0.465	0.785
-67.422	11.034	0.231	-0.174
-66.407	393.450	0.168	-0.344
-65.392	236.223	0.075	-0.122
-64.378	-151.935	-0.420	0.030
-63.363	467.707	-0.185	-0.408
-62.349	-133.862	-0.275	-0.034
-61.334	-43.908	-0.822	-0.407
-60.319	800.000	-0.168	0.506
-59.305	-200.000	-0.129	-1.185
-58.290	141.906	0.783	1.021
-57.276	-200.000	-0.064	1.649
-56.261	-200.000	96.331	599.351
-55.246	676.842	1353.285	3459.286
-54.232	205.141	2515.023	3840.593
-53.217	120.777	2118.186	2590.044
-52.203	44.504	1589.437	1436.187
-51.188	35.990	1331.823	1152.687
-50.173	33.181	1289.663	1099.850
-49.159	56.169	1339.868	1279.408
-48.144	56.997	1356.852	1300.478
-47.130	36.231	1315.319	1139.650
-46.115	32.529	1297.387	1102.443
-45.100	32.398	1292.254	1097.273
-44.086	32.372	1289.568	1094.800
-43.071	32.231	1287.616	1092.276
-42.057	32.512	1284.918	1091.573
-41.042	32.337	1283.555	1089.358
-40.027	32.300	1282.503	1088.207
-39.013	32.331	1279.804	1086.058
-37.998	32.369	1278.260	1084.923
-36.984	32.314	1277.733	1084.113
-35.969	32.543	1275.006	1083.072
-34.954	32.528	1273.128	1081.349
-33.940	32.336	1272.522	1079.690
-32.925	32.518	1271.028	1079.422
-31.911	32.618	1269.121	1078.331
-30.896	32.449	1268.242	1076.580
-29.881	32.750	1265.906	1076.268
-28.867	32.599	1264.576	1074.234
-27.852	32.720	1263.298	1073.798
-26.838	32.455	1262.011	1071.152
-25.823	32.706	1260.712	1071.434
-24.809	32.395	1259.510	1068.603
-23.794	32.464	1260.030	1069.397
-22.779	32.595	1256.677	1067.250
-21.765	32.426	1255.630	1065.362
-20.750	32.597	1254.431	1065.269
-19.736	32.411	1253.690	1063.546
-18.721	32.297	1252.721	1062.034
-17.706	32.028	1252.132	1059.973
-16.692	32.322	1250.324	1060.062
-15.677	32.453	1247.993	1058.780
-14.663	32.543	1247.417	1058.753
-13.648	32.512	1246.151	1057.462
-12.633	32.387	1245.648	1056.294
-11.619	32.487	1244.417	1055.769
-10.604	32.295	1244.012	1054.309
-9.590	32.458	1242.381	1053.793
-8.575	32.109	1242.471	1051.873
-7.560	32.256	1240.960	1051.378
-6.546	32.436	1240.430	1051.892
-5.531	32.391	1239.545	1050.846
-4.517	32.375	1238.932	1050.196
-3.502	32.506	1237.505	1049.679
-2.487	32.457	1237.322	1049.206
-1.473	32.086	1232.969	1043.414
-0.458	30.712	1217.043	1022.351
0.556	28.020	1200.612	985.085
1.571	24.338	1204.689	968.393
2.586	23.296	1218.894	973.993
3.600	22.327	1208.860	960.602
4.615	17.005	1135.766	875.066
5.629	7.620	1061.924	772.646
6.644	3.509	1041.434	738.034
7.659	3.320	1039.177	735.466
8.673	2.939	1037.672	732.519
9.688	2.993	1036.133	731.626
10.702	3.154	1036.450	732.552
11.717	9.351	1044.135	767.570
12.731	19.002	1055.747	822.395
13.746	23.824	1062.512	850.733
14.761	24.190	1063.774	853.426
15.775	23.829	1061.186	849.546
16.790	23.392	1061.399	847.554
17.804	23.350	1061.144	847.073
18.819	23.507	1059.477	846.416
19.834	23.593	1059.471	846.750
20.848	23.368	1058.010	844.434
21.863	23.558	1057.940	845.208
22.877	23.179	1057.667	843.107
23.892	23.354	1056.617	843.029
24.907	23.209	1055.763	841.584
25.921	23.244	1054.619	840.764
26.936	23.112	1052.832	838.639
27.950	23.243	1050.651	837.447
28.965	22.854	1051.206	835.973
29.980	23.094	1048.832	835.148
30.994	23.311	1047.857	835.322
32.009	23.456	1047.069	835.302
33.023	23.095	1046.871	833.367
34.038	23.061	1046.153	832.563
35.053	23.206	1044.513	831.866
36.067	23.040	1044.207	830.770
37.082	22.931	1043.453	829.585
38.096	23.440	1042.398	831.056
39.111	23.670	1041.107	831.031
40.126	22.879	1041.441	827.519
41.140	23.190	1038.121	826.261
42.155	22.647	1037.587	823.228
43.169	22.403	1037.705	822.108
44.184	22.816	1035.205	821.980
45.199	22.528	1034.734	820.195
46.213	22.779	1034.289	820.934
47.228	22.969	1034.857	822.199
48.242	23.329	1032.598	822.003
49.257	23.357	1032.451	821.942
50.271	23.194	1032.313	821.003
51.286	23.272	1031.915	820.974
52.301	23.355	1031.517	820.972
53.315	23.123	1029.515	818.230
54.330	23.218	1028.151	817.513
55.344	23.191	1027.494	816.793
56.359	23.232	1025.808	815.570
57.374	22.838	1025.969	813.812
58.388	22.974	1024.359	813.088
59.403	22.790	1023.139	811.201
60.417	22.859	1023.009	811.344
61.432	22.607	1022.697	809.865
62.447	22.930	1021.367	810.224
63.461	22.830	1020.756	809.211
64.476	22.582	1019.541	807.041
65.490	22.534	1018.266	805.740
66.505	22.486	1017.979	805.222
67.520	22.679	1017.268	805.471
68.534	22.625	1016.669	804.679
69.549	22.394	1015.754	802.827
70.563	22.294	1014.057	800.959
71.578	21.983	1013.685	799.181
72.593	21.844	1013.385	798.242
73.607	21.979	1011.591	797.372
74.622	22.245	1011.708	798.599
75.636	22.220	1010.714	797.630
76.651	22.311	1010.409	797.734
77.666	22.222	1010.694	797.482
78.680	22.466	1009.012	797.192
79.695	22.249	1007.853	795.221
80.709	22.415	1007.958	795.986
81.724	22.665	1006.723	796.068
82.739	22.585	1007.218	796.027
83.753	23.290	1006.718	798.746
84.768	23.910	1005.194	800.253
85.782	24.092	1004.922	800.785
86.797	23.329	1004.867	797.240
87.812	23.593	1002.235	796.263
88.826	23.461	1002.491	795.806
89.841	23.647	1000.851	795.266
90.855	23.510	1000.338	794.178
91.870	23.755	999.275	794.355
92.884	23.819	998.552	793.998
93.899	23.700	997.516	792.573
94.914	23.603	996.954	791.622
95.928	23.576	995.753	790.478
96.943	23.365	994.398	788.393
97.957	23.065	994.599	787.150
98.972	23.393	992.599	786.952
99.987	23.500	991.959	786.849
101.001	23.362	991.669	785.939
102.016	23.266	991.274	785.133
103.030	23.435	990.831	785.459
104.045	23.435	989.609	784.420
105.060	23.249	988.790	782.882
106.074	23.154	987.439	781.323
107.089	23.273	986.161	780.769
108.103	22.678	985.684	777.699
109.118	22.554	984.935	776.493
110.133	22.390	983.391	774.482
111.147	22.432	981.053	772.760
112.162	22.429	981.552	773.070
113.176	22.449	981.629	773.151
114.191	22.705	980.214	773.091
115.206	22.749	979.181	772.400
116.220	22.751	978.273	771.625
117.235	22.399	977.075	769.074
118.249	22.246	976.193	767.640
119.264	22.277	975.092	766.843
120.279	22.272	974.569	766.344
121.293	22.014	973.770	764.526
122.308	22.216	971.716	763.720
123.322	22.187	970.965	762.938
124.337	22.131	970.399	762.184
125.352	21.852	971.002	761.377
126.366	22.192	969.766	761.815
127.381	22.899	967.795	763.254
128.395	22.633	968.109	762.284
129.410	22.776	967.651	762.473
130.424	22.783	966.494	761.526
131.439	22.966	965.988	761.848
132.454	22.876	966.150	761.520
133.468	23.074	964.041	760.643
134.483	22.730	963.681	758.810
135.497	22.957	962.818	759.043
136.512	22.828	961.911	757.703
137.527	23.004	962.113	758.553
138.541	23.164	960.834	758.164
139.556	23.009	960.141	756.885
140.570	23.317	959.263	757.443
141.585	23.271	958.676	756.716
142.600	23.463	957.981	756.919
143.614	23.635	956.981	756.795
144.629	23.576	957.197	756.649
145.643	23.453	956.097	755.190
146.658	23.326	953.534	752.557
147.673	23.171	952.351	750.901
148.687	22.999	951.933	749.775
149.702	22.995	950.501	748.565
150.716	23.059	949.671	748.115
151.731	22.759	949.854	746.923
152.746	23.306	948.856	748.386
153.760	23.489	947.676	748.158
154.775	23.354	947.112	747.079
155.789	23.378	946.511	746.641
156.804	23.187	946.247	745.560
157.819	23.280	945.412	745.228
158.833	23.512	944.572	745.477
159.848	23.804	944.641	746.689
160.862	23.807	942.111	744.639
161.877	23.492	940.486	741.968
162.892	23.199	939.845	740.172
163.906	23.018	939.515	739.092
164.921	23.043	937.924	737.877
165.935	22.674	938.982	737.104
166.950	23.110	937.367	737.592
167.964	22.999	937.401	737.086
168.979	23.120	935.129	735.741
169.994	22.988	934.480	734.615
171.008	23.253	933.939	735.227
172.023	23.540	933.528	736.027
173.037	23.766	932.212	735.860
174.052	23.571	931.343	734.302
175.067	23.302	930.487	732.450
176.081	22.860	929.836	730.046
177.096	22.973	928.657	729.524
178.110	22.746	928.343	728.274
179.125	22.746	928.062	727.992
180.140	22.684	928.141	727.731
181.154	23.305	927.295	729.562
182.169	23.499	926.924	730.006
183.183	23.411	927.481	730.018
184.198	23.061	926.714	727.909
185.213	23.143	925.929	727.565
186.227	23.517	924.101	727.601
187.242	23.529	923.943	727.458
188.256	23.553	924.093	727.611
189.271	23.180	923.475	725.531
190.286	23.092	922.249	724.142
191.300	22.484	920.300	720.066
192.315	22.070	919.887	717.986
193.329	22.338	919.892	719.021
194.344	23.072	918.771	721.076
195.359	22.868	919.053	720.402
196.373	23.147	918.923	721.372
197.388	23.287	918.172	721.292
198.402	23.752	917.934	722.930
199.417	23.954	917.614	723.438
200.432	23.827	916.763	722.188
201.446	24.021	916.136	722.417
202.461	23.972	915.816	721.902
203.475	23.548	914.195	718.843
204.490	23.071	914.025	716.712
205.504	23.108	913.411	716.315
206.519	23.343	911.612	715.794
207.534	23.316	912.245	716.118
208.548	23.465	911.349	715.954
209.563	23.727	910.236	716.072
210.577	23.684	910.109	715.732
211.592	23.811	910.150	716.215
212.607	23.909	909.789	716.263
213.621	23.812	908.392	714.707
214.636	23.910	906.435	713.499
215.650	23.929	905.646	712.889
216.665	23.921	905.567	712.735
217.680	23.573	905.434	711.173
218.694	23.999	904.292	711.916
219.709	23.752	904.134	710.742
220.723	23.185	903.390	707.826
221.738	23.305	902.217	707.324
222.753	23.714	901.443	708.287
223.767	23.418	902.214	707.649
224.782	23.599	901.647	707.864
225.796	24.091	900.994	709.246
226.811	23.631	900.214	706.739
227.826	23.125	899.314	703.957
228.840	23.269	897.965	703.409
229.855	23.154	897.709	702.691
230.869	23.235	896.273	701.825
231.884	23.080	896.273	701.151
232.899	23.432	895.252	701.680
233.913	23.368	894.603	700.857
234.928	23.282	893.443	699.547
235.942	22.934	893.129	697.866
236.957	22.669	892.657	696.390
237.972	22.637	893.129	696.568
238.986	22.968	891.479	696.525
240.001	22.579	891.148	694.672
241.015	22.919	890.587	695.511
242.030	23.348	890.146	696.796
243.045	23.138	889.805	695.640
244.059	23.074	890.481	695.854
245.074	23.422	889.232	696.183
246.088	23.566	888.690	696.266
247.103	23.670	887.785	695.899
248.117	24.147	887.634	697.589
249.132	24.154	887.600	697.527
250.147	24.587	887.685	699.231
251.161	24.906	886.719	699.651
252.176	24.530	885.964	697.526
253.190	24.939	885.730	698.878
254.205	24.446	886.018	697.119
255.220	24.548	884.046	695.902
256.234	24.514	883.119	694.979
257.249	24.630	882.989	695.264
258.263	24.321	882.821	693.869
259.278	24.437	880.821	692.687
260.293	24.298	881.473	692.598
261.307	24.493	880.371	692.427
262.322	24.589	879.381	691.961
263.336	24.584	878.606	691.271
264.351	24.231	877.923	689.307
265.366	24.294	876.824	688.626
266.380	24.328	877.650	689.345
267.395	24.550	876.434	689.186
268.409	24.234	875.858	687.454
269.424	24.485	875.121	687.781
270.439	24.123	874.324	685.700
271.453	24.267	873.321	685.408
272.468	24.202	873.326	685.098
273.482	24.344	872.839	685.202
274.497	24.207	871.762	683.770
275.512	24.211	871.586	683.587
276.526	24.233	871.048	683.188
277.541	24.547	871.521	684.705
278.555	24.572	870.394	683.854
279.570	24.949	869.663	684.661
280.585	24.407	868.910	681.937
281.599	23.909	868.903	679.966
282.614	24.348	866.519	679.716
283.628	24.143	865.852	678.350
284.643	24.231	865.300	678.195
285.657	23.983	866.170	677.871
286.672	24.261	864.876	677.856
287.687	24.464	864.798	678.507
288.701	24.704	863.621	678.432
289.716	24.304	864.082	677.215
290.730	24.232	863.586	676.494
291.745	24.160	862.481	675.296
292.760	24.486	862.388	676.397
293.774	25.252	860.489	677.744
294.789	24.750	861.432	676.529
295.803	24.701	859.457	674.733
296.818	24.518	858.510	673.240
297.833	24.290	858.586	672.379
298.847	24.197	858.205	671.672
299.862	24.402	857.834	672.094
300.876	24.586	858.103	672.936
301.891	24.787	857.479	673.147
302.906	24.798	856.686	672.503
303.920	24.923	856.693	672.922
304.935	24.918	856.108	672.382
305.949	24.849	855.200	671.351
306.964	24.705	853.413	669.350
307.979	24.454	853.094	668.101
308.993	24.799	853.122	669.356
310.008	24.766	852.639	668.793
311.022	24.587	851.715	667.342
312.037	24.550	851.316	666.831
313.052	24.013	851.091	664.591
314.066	23.720	850.391	662.891
315.081	23.950	849.562	663.046
316.095	24.131	849.092	663.293
317.110	24.086	849.105	663.077
318.125	24.237	847.669	662.457
319.139	23.577	847.053	659.466
320.154	23.565	846.293	658.773
321.168	24.067	845.610	660.042
322.183	24.199	845.514	660.401
323.197	24.161	844.457	659.376
324.212	24.275	843.691	659.140
325.227	24.431	842.496	658.726
326.241	24.049	842.863	657.540
327.256	24.010	842.462	657.026
328.270	23.752	842.018	655.669
329.285	23.655	841.436	654.801
330.300	23.854	840.908	655.065
331.314	23.728	840.277	654.053
332.329	24.478	840.734	657.111
333.343	24.761	839.732	657.311
334.358	24.485	839.778	656.274
335.373	24.417	840.012	656.148
336.387	24.964	838.892	657.223
337.402	25.006	838.517	657.026
338.416	24.913	839.323	657.259
339.431	25.333	837.888	657.614
340.446	25.493	837.423	657.779
341.460	25.261	837.565	656.982
342.475	25.206	837.500	656.671
343.489	25.189	836.970	656.134
344.504	25.256	836.746	656.146
345.519	25.450	835.578	655.879
346.533	25.118	835.436	654.500
347.548	24.986	834.673	653.363
348.562	24.868	834.014	652.357
349.577	24.615	833.697	651.129
350.592	24.765	832.832	650.945
351.606	24.541	832.056	649.464
352.621	24.448	831.649	648.753
353.635	24.811	829.918	648.660
354.650	24.516	829.382	647.115
355.665	24.679	829.098	647.425
356.679	25.188	827.640	648.069
357.694	24.669	828.303	646.655
358.708	24.491	828.017	645.732
359.723	24.534	826.972	645.015
360.738	24.436	826.297	644.077
361.752	24.697	825.198	644.105
362.767	25.312	825.567	646.553
363.781	25.120	825.125	645.457
364.796	25.381	825.406	646.560
365.810	25.417	824.060	645.578
366.825	25.228	824.546	645.219
367.840	25.284	823.176	644.291
368.854	25.141	821.831	642.669
369.869	25.177	821.897	642.794
370.883	25.096	820.977	641.729
371.898	25.266	821.479	642.673
372.913	25.189	821.902	642.671
373.927	24.893	820.684	640.600
374.942	24.910	820.560	640.509
375.956	25.321	819.313	640.946
376.971	25.153	819.346	640.316
377.986	25.622	818.546	641.308
379.000	25.868	818.438	642.044
380.015	25.596	818.293	640.903
381.029	25.476	816.973	639.385
382.044	25.305	817.711	639.298
383.059	25.605	815.847	638.850
384.073	25.459	814.961	637.580
385.088	25.232	814.253	636.166
386.102	24.937	813.718	634.646
387.117	25.087	812.835	634.433
388.132	24.368	812.793	631.798
389.146	24.876	812.030	632.946
390.161	25.154	811.192	633.219
391.175	25.939	811.384	636.084
392.190	25.268	810.725	633.143
393.205	25.024	809.340	631.146
394.219	24.013	809.698	627.804
395.234	24.150	808.890	627.607
396.248	24.762	808.394	629.320
397.263	24.522	808.684	628.644
398.278	24.646	807.248	627.907
399.292	24.293	807.014	626.430
400.307	24.314	807.072	626.493
401.321	24.538	806.246	626.584
402.336	24.836	805.845	627.260
403.350	25.360	806.311	629.406
404.365	25.819	805.935	630.664
405.380	25.963	805.352	630.655
406.394	25.915	805.732	630.731
407.409	25.644	805.044	629.188
408.423	26.076	804.194	629.978
409.438	25.747	804.360	628.901
410.453	25.751	802.766	627.614
411.467	25.880	803.145	628.303
412.482	25.771	801.978	626.957
413.496	25.972	802.291	627.846
414.511	26.054	802.024	627.868
415.526	25.950	801.736	627.224
416.540	25.737	800.539	625.493
417.555	25.760	799.814	624.948
418.569	25.845	799.823	625.197
419.584	25.711	799.425	624.366
420.599	25.983	799.041	624.952
421.613	160.915	1369.675	1793.943
422.628	139.675	1452.840	1794.014
