DTS Sentinel unit serial number:	SN413079Multiplexer serial number:	ORYXHardware model number:	OX4-SRSoftware version number:	ORYX F/W v4.00 Oryx Data Collector v3.7.2.0data status	okinstallation	princeton_trtdifferential loss correction	single-endedforward channel	channel 1reverse channel	N/Adate	2019/09/16time	07:46:35forward acquisition time	60.00reverse acquisition time	0.00gamma	496.2192k internal	0.2328k external	0.2328temperature offset calibration	0.9978default loss term (dB/km)	0.3790temperature slope calibration	1.0000multiplexer offset coefficient	1.0000multiplexer slope coefficient	1.0000fibre end	0.00T internal ref (°C)	28.06T ext. ref 1 (°C)	11.70T ext. ref 2 (°C)	24.68length (m)	temperature (°C)	Stokes	anti-Stokes-747.200	247.454	-0.016	0.027
-746.185	231.946	0.154	0.255
-745.171	-0.318	0.042	-0.030
-744.156	76.722	0.116	0.124
-743.142	-51.324	0.353	0.166
-742.127	800.000	-0.133	0.459
-741.112	-200.000	-0.018	0.368
-740.098	-79.440	0.139	-0.047
-739.083	577.369	-0.047	0.116
-738.069	53.770	-0.073	0.071
-737.054	151.787	0.109	0.149
-736.039	-112.512	-0.343	0.069
-735.025	212.613	0.247	0.393
-734.010	-27.367	0.041	0.024
-732.996	119.206	-0.222	-0.277
-731.981	7.984	0.151	-0.114
-730.966	390.455	-0.067	-0.140
-729.952	323.330	-0.024	-0.047
-728.937	52.470	-0.282	-0.271
-727.923	291.200	0.198	-0.363
-726.908	407.353	0.060	0.127
-725.894	-124.809	-0.246	-0.038
-724.879	-200.000	0.010	0.097
-723.864	-200.000	0.018	-0.137
-722.850	106.364	0.206	0.246
-721.835	-200.000	0.002	-0.396
-720.821	-112.593	-0.166	-0.033
-719.806	15.251	-0.192	0.151
-718.791	25.264	-0.232	-0.194
-717.777	-69.973	0.057	-0.022
-716.762	54.799	-0.275	0.268
-715.748	-200.000	0.014	-0.112
-714.733	296.676	-0.144	-0.265
-713.718	29.766	0.145	-0.124
-712.704	-41.076	0.121	-0.063
-711.689	800.000	-0.115	0.351
-710.675	262.333	0.083	0.145
-709.660	61.461	-0.159	-0.159
-708.645	-200.000	0.028	0.137
-707.631	800.000	0.058	-0.230
-706.616	110.013	0.027	0.032
-705.602	71.527	0.122	-0.127
-704.587	14.669	0.131	0.103
-703.572	-135.748	-0.175	0.021
-702.558	39.299	0.108	0.097
-701.543	185.313	0.096	-0.144
-700.529	306.947	0.033	-0.061
-699.514	-147.818	0.253	0.021
-698.499	385.998	-0.147	-0.304
-697.485	30.252	-0.177	0.152
-696.470	248.804	-0.050	0.086
-695.456	-31.440	-0.273	-0.155
-694.441	-200.000	0.006	0.220
-693.426	0.090	-0.142	0.102
-692.412	-200.000	-0.022	0.141
-691.397	-200.000	-0.013	-0.329
-690.383	-109.092	0.272	-0.058
-689.368	800.000	-0.129	-0.471
-688.354	800.000	0.054	-0.188
-687.339	-200.000	-0.031	-0.330
-686.324	-170.006	0.077	0.003
-685.310	-107.264	0.269	-0.060
-684.295	-200.000	-0.032	-0.248
-683.281	800.000	-0.063	-0.191
-682.266	-1.098	0.239	-0.170
-681.251	50.263	-0.169	-0.160
-680.237	-63.447	-0.330	-0.137
-679.222	-15.736	0.331	0.212
-678.208	-169.018	-0.208	0.008
-677.193	-154.633	0.071	0.005
-676.178	27.726	0.348	0.295
-675.164	-98.768	-0.046	0.012
-674.149	35.952	-0.214	0.190
-673.135	411.533	0.077	0.164
-672.120	-200.000	-0.018	-0.101
-671.105	-31.831	0.143	-0.080
-670.091	200.508	-0.166	0.257
-669.076	800.000	-0.088	-0.293
-668.062	295.932	0.073	-0.135
-667.047	-200.000	-0.061	-0.286
-666.032	-200.000	0.085	0.000
-665.018	17.451	-0.058	0.046
-664.003	127.420	-0.161	-0.205
-662.989	-175.814	0.392	-0.011
-661.974	6.218	-0.206	0.154
-660.959	-49.997	0.163	0.078
-659.945	153.026	-0.299	-0.410
-658.930	151.543	0.033	0.045
-657.916	-200.000	0.002	0.129
-656.901	27.311	0.057	-0.048
-655.886	319.790	-0.204	-0.389
-654.872	27.885	-0.118	-0.100
-653.857	-42.723	-0.291	-0.149
-652.843	-142.306	-0.064	-0.006
-651.828	114.961	-0.013	-0.016
-650.814	-200.000	-0.033	0.223
-649.799	-200.000	0.015	-0.222
-648.784	-200.000	0.053	-0.275
-647.770	-78.744	-0.121	-0.041
-646.755	31.279	0.173	0.149
-645.741	800.000	-0.048	0.153
-644.726	800.000	-0.004	0.016
-643.711	-41.844	-0.087	-0.045
-642.697	800.000	-0.089	-0.252
-641.682	-31.434	0.213	0.121
-640.668	96.153	0.052	-0.060
-639.653	6.692	-0.304	-0.227
-638.638	-35.243	0.241	0.132
-637.624	-45.929	-0.227	-0.112
-636.609	-113.610	0.187	0.037
-635.595	352.531	0.151	-0.301
-634.580	94.581	0.289	0.330
-633.565	-3.821	0.099	-0.069
-632.551	-89.221	-0.185	-0.055
-631.536	177.987	0.137	0.201
-630.522	-200.000	-0.004	-0.039
-629.507	20.133	0.120	-0.097
-628.492	-150.145	-0.183	-0.014
-627.478	322.440	-0.074	-0.142
-626.463	491.541	0.045	0.104
-625.449	144.026	0.184	-0.247
-624.434	800.000	0.041	-0.151
-623.419	-121.688	0.415	0.069
-622.405	249.047	-0.062	-0.106
-621.390	-40.233	-0.271	-0.141
-620.376	-200.000	0.010	-0.233
-619.361	800.000	-0.049	-0.202
-618.346	-200.000	-0.015	-0.210
-617.332	60.236	0.149	-0.147
-616.317	40.036	0.200	0.180
-615.303	800.000	-0.088	0.279
-614.288	-72.070	-0.252	-0.094
-613.273	47.982	0.146	0.137
-612.259	66.783	0.044	0.044
-611.244	199.732	0.127	0.196
-610.230	-12.577	-0.261	0.171
-609.215	231.067	-0.088	-0.145
-608.201	800.000	-0.060	-0.201
-607.186	28.405	-0.154	-0.130
-606.171	-200.000	0.039	-0.234
-605.157	-37.623	0.331	-0.177
-604.142	-106.485	-0.086	-0.019
-603.128	-32.549	-0.257	-0.144
-602.113	-75.455	0.124	-0.044
-601.098	-39.015	-0.320	-0.169
-600.084	-200.000	-0.047	0.268
-599.069	171.484	-0.389	0.559
-598.055	-13.181	-0.307	-0.200
-597.040	593.428	0.090	0.223
-596.025	-200.000	-0.043	-0.442
-595.011	519.569	-0.079	-0.185
-593.996	800.000	0.042	0.124
-592.982	-200.000	-0.037	0.257
-591.967	800.000	-0.118	0.514
-590.952	-4.254	-0.433	0.300
-589.938	275.348	0.144	0.256
-588.923	-27.114	-0.143	0.083
-587.909	-200.000	-0.011	0.095
-586.894	-200.000	-0.038	0.342
-585.879	111.041	-0.190	0.229
-584.865	299.221	0.104	0.192
-583.850	-92.062	-0.224	0.064
-582.836	-92.711	-0.227	0.064
-581.821	-200.000	0.025	-0.114
-580.806	96.607	-0.406	0.466
-579.792	340.062	-0.083	-0.162
-578.777	-200.000	0.043	-0.245
-577.763	-110.798	-0.165	-0.034
-576.748	-200.000	0.035	-0.205
-575.733	-200.000	0.049	-0.348
-574.719	-66.645	-0.028	0.011
-573.704	-52.133	-0.413	-0.192
-572.690	-107.800	0.401	0.088
-571.675	-159.377	-0.021	0.001
-570.661	121.384	0.235	0.293
-569.646	45.509	0.251	0.232
-568.631	-91.180	-0.110	0.031
-567.617	2.864	0.108	-0.079
-566.602	174.167	0.109	-0.157
-565.588	-200.000	0.005	-0.259
-564.573	316.284	-0.083	-0.156
-563.558	800.000	-0.080	0.326
-562.544	46.046	-0.072	0.067
-561.529	43.627	0.200	-0.183
-560.515	-164.471	0.122	0.006
-559.500	800.000	-0.102	-0.426
-558.485	91.403	-0.170	-0.191
-557.471	141.086	-0.178	0.236
-556.456	-150.169	-0.294	-0.023
-555.442	645.682	-0.132	0.336
-554.427	-130.353	0.237	-0.032
-553.412	118.853	0.153	-0.189
-552.398	106.259	-0.286	0.338
-551.383	-104.764	-0.037	0.008
-550.369	-91.264	0.470	0.134
-549.354	800.000	0.070	-0.238
-548.339	168.476	-0.077	-0.109
-547.325	-19.677	-0.207	0.128
-546.310	183.897	-0.123	-0.181
-545.296	121.024	-0.052	-0.065
-544.281	800.000	-0.033	-0.135
-543.266	-200.000	-0.071	0.325
-542.252	-121.365	-0.083	-0.014
-541.237	6.688	-0.100	0.075
-540.223	800.000	-0.045	0.143
-539.208	-90.231	-0.311	-0.090
-538.193	-200.000	-0.004	-0.076
-537.179	-120.803	0.234	-0.039
-536.164	-200.000	0.008	-0.173
-535.150	800.000	0.094	-0.336
-534.135	-114.641	0.160	-0.031
-533.121	-170.259	0.291	0.010
-532.106	13.815	0.186	0.145
-531.091	-56.231	-0.242	-0.108
-530.077	116.735	0.057	0.070
-529.062	800.000	0.041	-0.180
-528.048	-200.000	0.030	-0.194
-527.033	800.000	-0.115	-0.355
-526.018	-46.265	-0.145	-0.071
-525.004	223.277	-0.167	-0.270
-523.989	229.523	0.140	-0.228
-522.975	-96.234	-0.080	0.021
-521.960	17.305	-0.145	0.115
-520.945	-200.000	-0.041	-0.183
-519.931	362.280	-0.112	0.225
-518.916	-55.130	-0.204	0.092
-517.902	-72.577	-0.170	-0.063
-516.887	-141.551	0.312	-0.031
-515.872	-66.084	-0.077	-0.030
-514.858	800.000	-0.036	0.103
-513.843	91.065	-0.201	0.225
-512.829	-27.111	-0.108	-0.063
-511.814	-200.000	0.040	-0.252
-510.799	107.587	0.125	0.149
-509.785	252.633	0.100	0.171
-508.770	-132.676	-0.226	0.029
-507.756	-4.951	-0.059	-0.041
-506.741	-48.345	0.234	-0.113
-505.726	87.238	0.041	-0.045
-504.712	-13.115	-0.257	-0.167
-503.697	-30.581	-0.305	0.173
-502.683	-98.149	-0.211	0.054
-501.668	-141.880	0.286	-0.029
-500.653	-91.952	0.078	-0.022
-499.639	-100.351	0.125	0.031
-498.624	143.842	0.115	-0.153
-497.610	-200.000	0.015	0.318
-496.595	284.722	-0.099	0.178
-495.581	-200.000	0.001	0.348
-494.566	10.541	-0.229	0.174
-493.551	-90.239	-0.372	0.108
-492.537	25.504	-0.353	-0.293
-491.522	-158.504	0.079	0.005
-490.508	131.677	-0.171	0.220
-489.493	800.000	-0.106	-0.338
-488.478	757.462	-0.062	0.168
-487.464	-112.450	0.117	0.023
-486.449	-62.963	0.101	0.042
-485.435	55.608	0.145	0.140
-484.420	99.126	-0.233	0.269
-483.405	-44.438	0.176	-0.088
-482.391	-33.488	-0.140	-0.077
-481.376	-52.942	-0.352	-0.161
-480.362	-105.934	-0.223	-0.050
-479.347	800.000	-0.098	0.298
-478.332	800.000	-0.147	-0.439
-477.318	-200.000	0.012	-0.268
-476.303	688.461	-0.139	-0.363
-475.289	4.556	0.018	-0.013
-474.274	-200.000	0.016	-0.081
-473.259	800.000	-0.103	-0.289
-472.245	92.007	-0.033	0.037
-471.230	-0.445	0.140	0.099
-470.216	-128.944	-0.150	0.021
-469.201	163.405	-0.090	-0.126
-468.186	-167.112	0.296	-0.012
-467.172	-200.000	0.030	-0.176
-466.157	-29.604	0.250	-0.142
-465.143	40.096	0.211	0.189
-464.128	76.128	-0.421	0.444
-463.113	-200.000	-0.013	0.102
-462.099	-40.660	-0.482	-0.249
-461.084	-89.550	-0.089	0.026
-460.070	4.421	-0.034	0.025
-459.055	-157.793	-0.139	-0.008
-458.040	800.000	-0.182	0.764
-457.026	-200.000	0.015	0.078
-456.011	-119.455	0.167	-0.029
-454.997	278.967	0.044	0.079
-453.982	-200.000	-0.041	0.401
-452.968	-125.449	0.232	0.035
-451.953	800.000	0.060	0.177
-450.938	-79.694	-0.176	-0.059
-449.924	314.997	0.041	-0.078
-448.909	609.539	-0.082	0.205
-447.895	-141.500	0.096	0.010
-446.880	-119.830	0.239	0.041
-445.865	-200.000	-0.248	-0.000
-444.851	0.343	-0.158	0.112
-443.836	171.789	0.067	0.095
-442.822	-25.105	-0.164	0.097
-441.807	-97.644	0.247	-0.064
-440.792	-58.312	-0.209	-0.090
-439.778	83.879	-0.113	-0.122
-438.763	-153.757	0.236	0.016
-437.749	-167.540	0.221	0.009
-436.734	566.316	-0.170	0.410
-435.719	226.051	-0.187	0.302
-434.705	-137.833	0.232	-0.026
-433.690	-16.074	0.148	-0.094
-432.676	800.000	-0.109	0.339
-431.661	24.781	0.069	-0.057
-430.646	329.246	-0.061	0.117
-429.632	-188.645	0.181	-0.002
-428.617	178.963	0.276	-0.402
-427.603	458.007	-0.092	-0.204
-426.588	-6.655	0.239	0.162
-425.573	101.420	0.083	0.096
-424.559	440.966	-0.054	-0.118
-423.544	-200.000	0.022	-0.352
-422.530	100.586	0.065	0.075
-421.515	-134.938	0.406	-0.049
-420.500	-200.000	0.001	0.075
-419.486	423.620	-0.056	0.119
-418.471	44.248	-0.178	0.162
-417.457	-21.974	-0.099	0.060
-416.442	-93.547	0.156	0.043
-415.428	-48.873	-0.038	0.018
-414.413	-104.067	-0.162	-0.037
-413.398	-142.511	-0.079	0.008
-412.384	48.675	-0.128	0.119
-411.369	355.012	0.034	0.068
-410.355	-71.246	0.099	-0.037
-409.340	27.266	-0.106	0.088
-408.325	-72.603	0.243	0.089
-407.311	103.796	-0.080	0.094
-406.296	500.819	0.054	-0.124
-405.282	338.772	0.061	0.118
-404.267	-200.000	0.014	0.179
-403.252	-64.677	0.319	0.129
-402.238	127.703	0.090	0.113
-401.223	649.286	-0.116	-0.294
-400.209	-200.000	0.010	0.177
-399.194	800.000	-0.072	-0.291
-398.179	192.613	-0.139	-0.208
-397.165	-25.224	0.157	0.093
-396.150	-54.302	-0.235	-0.106
-395.136	74.895	-0.063	-0.066
-394.121	186.250	-0.091	-0.134
-393.106	119.504	-0.124	0.152
-392.092	-100.290	-0.280	0.069
-391.077	-163.230	-0.209	0.010
-390.063	-200.000	0.008	-0.198
-389.048	289.527	-0.105	0.190
-388.033	-200.000	-0.010	0.278
-387.019	-163.636	-0.086	0.004
-386.004	-176.156	0.275	-0.007
-384.990	407.451	-0.110	0.230
-383.975	-17.239	-0.188	0.118
-382.960	-200.000	0.051	-0.252
-381.946	-70.401	0.247	0.093
-380.931	201.060	0.128	0.196
-379.917	66.145	-0.298	0.301
-378.902	-10.552	-0.219	0.144
-377.888	-6.878	0.105	-0.071
-376.873	55.801	-0.277	0.267
-375.858	462.693	0.120	-0.265
-374.844	-54.914	-0.091	-0.041
-373.829	167.100	0.119	-0.168
-372.815	-200.000	-0.026	-0.185
-371.800	-100.691	0.281	0.069
-370.785	-121.103	-0.037	-0.006
-369.771	-87.070	-0.085	-0.026
-368.756	78.616	0.079	-0.084
-367.742	289.819	0.119	0.214
-366.727	800.000	-0.091	-0.349
-365.712	27.632	-0.040	-0.033
-364.698	25.870	0.266	-0.220
-363.683	306.537	0.204	-0.378
-362.669	800.000	-0.140	-0.396
-361.654	161.349	-0.058	-0.080
-360.639	-24.886	0.307	0.181
-359.625	-75.317	-0.127	0.045
-358.610	246.863	0.237	-0.397
-357.596	-189.212	0.245	-0.003
-356.581	12.760	0.093	0.071
-355.566	-140.628	0.060	-0.006
-354.552	-200.000	0.006	-0.033
-353.537	-200.000	0.019	-0.111
-352.523	76.005	-0.092	0.097
-351.508	-200.000	0.010	0.232
-350.493	-200.000	-0.015	-0.222
-349.479	-200.000	0.040	0.180
-348.464	85.275	0.130	0.142
-347.450	-200.000	-0.007	-0.324
-346.435	-77.564	0.268	0.092
-345.420	439.780	-0.119	0.259
-344.406	-55.871	-0.186	-0.083
-343.391	-200.000	-0.010	-0.183
-342.377	106.745	-0.091	0.108
-341.362	147.094	-0.143	0.191
-340.348	19.323	0.142	-0.113
-339.333	-200.000	-0.007	-0.213
-338.318	-53.626	-0.059	0.027
-337.304	-200.000	0.051	-0.236
-336.289	273.188	-0.122	-0.214
-335.275	331.897	0.135	-0.259
-334.260	-146.140	0.234	-0.020
-333.245	-25.446	-0.414	-0.243
-332.231	-59.218	0.184	-0.079
-331.216	-136.416	-0.176	0.020
-330.202	-200.000	-0.055	-0.561
-329.187	-49.150	-0.249	-0.118
-328.172	-77.680	-0.191	-0.066
-327.158	311.096	-0.033	-0.061
-326.143	-134.151	0.323	-0.039
-325.129	137.214	-0.310	-0.401
-324.114	-200.000	-0.034	0.319
-323.099	-142.181	0.475	-0.047
-322.085	-200.000	0.018	0.318
-321.070	800.000	-0.086	-0.248
-320.056	800.000	0.024	-0.098
-319.041	264.874	-0.050	0.086
-318.026	227.424	0.043	0.070
-317.012	-100.243	-0.317	-0.078
-315.997	-64.972	-0.182	-0.073
-314.983	709.342	0.099	-0.259
-313.968	800.000	0.066	-0.230
-312.953	-20.741	-0.347	0.211
-311.939	135.324	0.188	0.242
-310.924	-200.000	0.022	-0.103
-309.910	395.672	0.033	0.068
-308.895	-156.904	-0.097	0.006
-307.880	14.889	0.265	0.205
-306.866	800.000	-0.060	-0.239
-305.851	-75.699	0.140	-0.049
-304.837	-148.778	-0.150	-0.012
-303.822	131.137	0.062	-0.078
-302.807	800.000	0.104	0.447
-301.793	-105.184	-0.210	0.048
-300.778	-101.078	-0.295	-0.071
-299.764	-200.000	0.063	0.306
-298.749	-63.981	-0.395	0.160
-297.735	800.000	-0.056	0.182
-296.720	60.707	0.193	0.189
-295.705	55.033	0.103	-0.099
-294.691	522.060	-0.146	-0.339
-293.676	-119.445	0.121	-0.021
-292.662	800.000	-0.076	-0.238
-291.647	-200.000	-0.008	-0.184
-290.632	245.348	0.146	0.243
-289.618	217.405	-0.120	0.189
-288.603	-200.000	0.070	-0.335
-287.589	755.092	0.101	-0.270
-286.574	-200.000	-0.003	0.351
-285.559	-40.671	0.164	0.084
-284.545	-98.273	-0.312	0.079
-283.530	-200.000	0.004	0.055
-282.516	-200.000	0.059	-0.361
-281.501	-176.157	0.183	0.005
-280.486	-77.769	-0.216	0.074
-279.472	274.876	0.150	0.263
-278.457	48.765	0.139	-0.129
-277.443	-200.000	-0.027	-0.213
-276.428	-92.671	0.082	-0.023
-275.413	123.580	-0.117	0.145
-274.399	-170.987	-0.263	0.009
-273.384	19.860	-0.048	0.038
-272.370	-99.443	0.162	-0.040
-271.355	-47.714	0.136	-0.065
-270.340	64.366	0.259	-0.258
-269.326	206.625	-0.184	0.283
-268.311	324.076	0.184	-0.348
-267.297	161.403	-0.247	0.341
-266.282	543.346	0.195	0.460
-265.267	-12.384	-0.068	0.044
-264.253	-200.000	-0.011	-0.074
-263.238	-100.171	0.153	-0.038
-262.224	-84.094	0.148	0.046
-261.209	112.514	0.056	0.067
-260.195	-103.405	0.348	-0.081
-259.180	-96.297	0.412	-0.108
-258.165	-102.941	0.273	-0.064
-257.151	-200.000	0.096	-0.438
-256.136	-139.830	0.039	-0.004
-255.122	-75.309	0.411	0.145
-254.107	-200.000	0.031	0.168
-253.092	800.000	-0.005	-0.021
-252.078	800.000	0.065	0.182
-251.063	-200.000	0.047	-0.415
-250.049	132.159	-0.090	-0.114
-249.034	645.523	0.097	0.245
-248.019	35.231	-0.375	0.325
-247.005	-103.274	0.157	-0.037
-245.990	49.770	0.150	-0.140
-244.976	-50.262	0.216	0.101
-243.961	-38.654	0.132	0.069
-242.946	-163.851	-0.135	0.006
-241.932	-31.013	0.309	-0.172
-240.917	76.568	0.118	-0.124
-239.903	800.000	0.010	-0.038
-238.888	441.840	-0.236	0.511
-237.873	-148.630	-0.207	-0.017
-236.859	24.951	0.159	-0.130
-235.844	-200.000	-0.053	0.271
-234.830	387.682	0.249	0.508
-233.815	10.983	0.023	-0.017
-232.800	-145.237	0.310	-0.028
-231.786	64.371	-0.151	-0.150
-230.771	-157.751	-0.435	-0.026
-229.757	800.000	-0.063	0.253
-228.742	-138.044	-0.092	-0.010
-227.727	468.791	-0.055	-0.122
-226.713	-15.617	0.273	-0.172
-225.698	320.601	0.065	0.122
-224.684	-200.000	0.042	-0.198
-223.669	72.755	0.062	-0.064
-222.655	-79.583	-0.183	-0.061
-221.640	-93.851	0.242	0.066
-220.625	-35.457	0.077	-0.041
-219.611	800.000	0.052	-0.161
-218.596	-200.000	-0.016	-0.237
-217.582	-115.137	0.085	0.016
-216.567	-29.759	0.150	-0.085
-215.552	-5.131	0.157	0.107
-214.538	-11.949	-0.080	0.052
-213.523	328.340	0.019	-0.037
-212.509	174.535	-0.140	0.200
-211.494	15.461	0.193	-0.150
-210.479	358.635	0.053	-0.105
-209.465	-36.699	-0.379	0.201
-208.450	-73.553	-0.194	0.070
-207.436	800.000	0.073	-0.213
-206.421	143.207	-0.170	0.224
-205.406	350.725	-0.118	0.231
-204.392	-83.399	0.395	0.125
-203.377	-200.000	0.007	-0.050
-202.363	-70.214	-0.361	0.135
-201.348	-200.000	-0.017	-0.093
-200.333	-81.013	0.305	0.100
-199.319	-115.993	0.161	-0.030
-198.304	3.627	-0.172	0.124
-197.290	-200.000	-0.124	-0.000
-196.275	800.000	-0.031	0.134
-195.260	-93.215	-0.112	-0.031
-194.246	761.289	0.162	0.433
-193.231	-200.000	-0.002	0.157
-192.217	185.412	0.119	0.175
-191.202	-200.000	-0.009	-0.043
-190.187	604.461	0.127	0.312
-189.173	-75.361	-0.120	0.042
-188.158	-200.000	-0.019	-0.263
-187.144	-155.815	0.084	-0.005
-186.129	26.799	0.358	-0.296
-185.114	-26.013	0.183	0.106
-184.100	-22.789	0.211	-0.126
-183.085	47.569	0.247	0.227
-182.071	-20.543	-0.060	-0.037
-181.056	699.209	0.164	0.425
-180.042	-3.058	0.182	0.125
-179.027	-48.515	0.297	-0.141
-178.012	494.318	0.079	0.179
-176.998	-32.511	0.231	0.127
-175.983	-200.000	-0.054	-0.293
-174.969	123.974	0.083	-0.103
-173.954	-74.082	0.069	0.025
-172.939	220.844	-0.033	0.053
-171.925	-200.000	0.030	-0.268
-170.910	-186.642	0.196	-0.003
-169.896	-70.782	0.098	0.036
-168.881	46.424	0.130	-0.118
-167.866	-34.640	0.251	0.135
-166.852	339.969	0.142	-0.273
-165.837	-159.154	-0.425	0.024
-164.823	190.833	-0.055	-0.081
-163.808	-71.566	-0.102	0.038
-162.793	-110.368	-0.122	0.025
-161.779	-154.663	-0.093	-0.006
-160.764	320.791	-0.142	-0.266
-159.750	-200.000	0.027	0.198
-158.735	-183.753	0.430	0.007
-157.720	55.252	-0.072	-0.068
-156.706	800.000	0.062	0.207
-155.691	101.214	0.129	0.148
-154.677	-200.000	0.034	-0.237
-153.662	104.500	-0.048	0.055
-152.647	10.721	0.087	-0.066
-151.633	-118.923	-0.019	-0.003
-150.618	-58.304	0.254	-0.109
-149.604	54.859	0.108	-0.103
-148.589	-200.000	0.021	0.212
-147.574	-200.000	0.042	0.197
-146.560	800.000	0.028	-0.097
-145.545	773.326	0.118	-0.318
-144.531	253.665	-0.127	-0.214
-143.516	-200.000	0.022	-0.347
-142.502	53.232	-0.115	-0.108
-141.487	155.452	-0.128	0.173
-140.472	-77.914	-0.153	0.052
-139.458	-81.204	-0.271	-0.088
-138.443	515.815	-0.060	0.139
-137.429	98.758	0.212	-0.241
-136.414	-50.517	0.184	-0.085
-135.399	-200.000	-0.027	-0.230
-134.385	444.212	0.043	0.092
-133.370	-67.694	0.263	0.101
-132.356	-101.806	0.257	-0.061
-131.341	74.179	-0.139	0.144
-130.326	-200.000	0.025	0.338
-129.312	-35.180	-0.106	0.057
-128.297	311.312	0.123	0.228
-127.283	-74.925	0.593	-0.209
-126.268	226.371	0.152	-0.243
-125.253	800.000	-0.033	0.099
-124.239	94.656	-0.102	0.114
-123.224	268.657	0.173	-0.298
-122.210	197.039	0.172	-0.259
-121.195	-42.035	0.274	-0.138
-120.180	-200.000	0.015	-0.201
-119.166	131.649	0.154	-0.195
-118.151	-129.646	0.186	-0.025
-117.137	-103.740	0.285	-0.066
-116.122	195.719	0.211	0.316
-115.107	133.387	-0.195	-0.248
-114.093	-63.933	-0.103	0.041
-113.078	-100.091	-0.239	0.059
-112.064	410.528	-0.034	0.072
-111.049	24.812	-0.086	0.070
-110.034	-141.105	-0.074	-0.007
-109.020	800.000	-0.031	-0.106
-108.005	-109.821	0.113	-0.023
-106.991	16.599	0.127	0.098
-105.976	-181.437	0.251	0.005
-104.962	-200.000	0.008	-0.242
-103.947	-200.000	-0.015	-0.069
-102.932	-14.766	-0.225	0.142
-101.918	133.040	-0.154	-0.196
-100.903	-36.877	0.185	-0.098
-99.889	191.556	0.280	0.414
-98.874	800.000	-0.116	-0.415
-97.859	11.717	0.087	-0.066
-96.845	-68.359	-0.154	-0.059
-95.830	576.841	0.097	0.234
-94.816	244.783	-0.167	-0.277
-93.801	12.956	0.090	0.068
-92.786	-88.127	0.128	-0.038
-91.772	-87.039	0.164	-0.049
-90.757	363.979	0.061	-0.121
-89.743	-49.577	0.190	-0.089
-88.728	800.000	0.107	0.395
-87.713	800.000	0.078	0.275
-86.699	508.033	-0.152	0.346
-85.684	-140.501	-0.156	-0.016
-84.670	-200.000	-0.049	-0.294
-83.655	101.373	-0.128	0.146
-82.640	-200.000	0.000	-0.026
-81.626	-174.979	-0.025	0.001
-80.611	-18.378	0.242	-0.148
-79.597	-46.201	0.123	-0.059
-78.582	-185.916	0.091	-0.001
-77.567	-200.000	0.025	0.402
-76.553	-148.188	-0.322	-0.026
-75.538	-48.272	0.116	0.055
-74.524	-129.629	0.106	0.014
-73.509	651.888	0.048	-0.121
-72.494	800.000	0.094	0.365
-71.480	-200.000	0.055	-0.343
-70.465	-198.860	-0.221	0.001
-69.451	-200.000	-0.029	-0.205
-68.436	140.763	0.118	-0.154
-67.422	-200.000	0.004	0.215
-66.407	800.000	0.107	0.311
-65.392	-77.436	0.226	-0.077
-64.378	45.747	-0.395	0.358
-63.363	-200.000	0.068	0.293
-62.349	-117.098	-0.377	0.067
-61.334	38.154	-1.065	-0.930
-60.319	78.181	0.664	0.696
-59.305	-200.000	-0.212	-1.142
-58.290	224.772	0.667	1.058
-57.276	800.000	0.534	1.502
-56.261	-200.000	110.798	602.339
-55.246	436.214	1514.144	3233.609
-54.232	144.168	2691.378	3522.683
-53.217	103.215	2166.935	2491.929
-52.203	39.446	1610.248	1415.001
-51.188	31.319	1353.613	1140.090
-50.173	28.362	1314.414	1089.478
-49.159	53.629	1369.467	1289.099
-48.144	53.266	1384.891	1301.364
-47.130	31.643	1339.587	1130.052
-46.115	28.231	1322.028	1094.829
-45.100	27.988	1317.423	1089.528
-44.086	27.918	1314.699	1086.811
-43.071	27.877	1312.417	1084.638
-42.057	27.883	1310.313	1082.891
-41.042	27.900	1308.584	1081.522
-40.027	27.911	1307.208	1080.407
-39.013	27.984	1305.086	1079.042
-37.998	27.983	1303.272	1077.495
-36.984	28.003	1301.861	1076.400
-35.969	28.077	1299.460	1074.806
-34.954	28.016	1298.005	1073.203
-33.940	28.114	1296.628	1072.599
-32.925	28.022	1295.590	1071.160
-31.911	28.102	1293.984	1070.255
-30.896	28.184	1292.554	1069.507
-29.881	28.260	1291.000	1068.623
-28.867	28.238	1289.843	1067.494
-27.852	28.137	1288.362	1065.640
-26.838	28.156	1287.214	1064.761
-25.823	28.082	1285.572	1062.929
-24.809	28.080	1284.533	1062.013
-23.794	28.061	1283.137	1060.709
-22.779	28.230	1281.478	1060.272
-21.765	28.051	1280.995	1058.796
-20.750	28.131	1279.111	1057.662
-19.736	28.091	1277.497	1056.050
-18.721	27.937	1276.574	1054.357
-17.706	27.980	1275.419	1053.608
-16.692	28.051	1274.373	1053.114
-15.677	28.066	1273.197	1052.189
-14.663	28.066	1271.853	1051.032
-13.648	28.077	1271.066	1050.404
-12.633	28.066	1270.129	1049.524
-11.619	28.110	1268.946	1048.759
-10.604	28.060	1268.350	1047.938
-9.590	27.952	1267.770	1046.800
-8.575	27.964	1266.291	1045.607
-7.560	27.993	1266.009	1045.496
-6.546	28.036	1264.408	1044.377
-5.531	27.990	1263.783	1043.556
-4.517	28.001	1262.710	1042.694
-3.502	27.908	1262.602	1042.033
-2.487	28.070	1261.246	1041.795
-1.473	28.073	1257.466	1038.650
-0.458	27.021	1242.615	1020.434
0.556	22.622	1226.712	986.510
1.571	19.495	1233.567	974.309
2.586	18.791	1248.648	982.107
3.600	18.787	1238.361	973.908
4.615	17.142	1171.153	912.146
5.629	13.484	1104.312	841.451
6.644	11.797	1086.876	819.649
7.659	11.711	1084.423	817.298
8.673	11.618	1083.516	816.077
9.688	11.663	1081.744	814.896
10.702	11.775	1080.180	814.200
11.717	14.086	1082.470	827.369
12.731	17.163	1086.284	845.552
13.746	18.120	1087.132	850.898
14.761	17.686	1085.645	847.503
15.775	16.627	1083.327	840.366
16.790	15.689	1081.255	834.031
17.804	14.830	1079.988	828.724
18.819	14.447	1078.856	825.882
19.834	14.180	1077.895	823.753
20.848	13.848	1076.966	821.327
21.863	13.693	1076.192	819.896
22.877	13.496	1075.590	818.392
23.892	13.540	1074.635	817.812
24.907	13.480	1073.989	816.950
25.921	13.533	1073.026	816.406
26.936	13.539	1071.681	815.342
27.950	13.664	1070.077	814.664
28.965	13.747	1068.382	813.708
29.980	13.754	1067.200	812.770
30.994	13.789	1066.069	812.006
32.009	13.699	1065.303	810.912
33.023	13.765	1064.155	810.290
34.038	13.674	1062.883	808.805
35.053	13.693	1061.886	808.066
36.067	13.618	1060.877	806.861
37.082	13.756	1060.176	806.932
38.096	13.755	1059.522	806.357
39.111	13.664	1058.970	805.422
40.126	13.681	1057.465	804.291
41.140	13.509	1056.121	802.363
42.155	13.417	1055.138	801.099
43.169	13.472	1054.410	800.744
44.184	13.553	1052.966	799.965
45.199	13.522	1051.973	798.991
46.213	13.587	1050.772	798.320
47.228	13.623	1049.688	797.598
48.242	13.552	1048.724	796.454
49.257	13.672	1047.610	796.114
50.271	13.664	1046.843	795.426
51.286	13.642	1046.087	794.676
52.301	13.666	1045.026	793.913
53.315	13.628	1044.022	792.898
54.330	13.690	1042.639	792.073
55.344	13.484	1041.792	790.376
56.359	13.581	1040.931	790.114
57.374	13.446	1040.355	788.963
58.388	13.427	1039.345	788.041
59.403	13.534	1038.076	787.516
60.417	13.500	1037.908	787.158
61.432	13.417	1037.138	786.108
62.447	13.370	1036.445	785.291
63.461	13.449	1034.970	784.481
64.476	13.465	1034.179	783.887
65.490	13.414	1033.354	782.951
66.505	13.424	1032.697	782.433
67.520	13.450	1032.302	782.186
68.534	13.517	1031.570	781.878
69.549	13.609	1030.418	781.371
70.563	13.439	1029.425	779.746
71.578	13.412	1028.670	778.976
72.593	13.331	1028.222	778.189
73.607	13.320	1027.513	777.531
74.622	13.277	1026.859	776.765
75.636	13.337	1026.395	776.626
76.651	13.320	1025.419	775.743
77.666	13.348	1025.191	775.632
78.680	13.473	1024.025	775.268
79.695	13.512	1023.130	774.702
80.709	13.523	1022.602	774.285
81.724	13.525	1022.345	774.031
82.739	13.686	1021.428	774.018
83.753	13.705	1020.560	773.382
84.768	13.577	1020.090	772.363
85.782	13.759	1018.791	772.155
86.797	13.728	1017.710	771.125
87.812	13.567	1016.931	769.719
88.826	13.702	1016.023	769.588
89.841	13.664	1015.188	768.715
90.855	13.709	1014.295	768.175
91.870	13.778	1013.574	767.880
92.884	13.733	1012.756	766.988
93.899	13.860	1011.668	766.683
94.914	13.863	1010.955	766.084
95.928	13.811	1010.489	765.428
96.943	13.790	1009.039	764.163
97.957	13.697	1008.379	763.166
98.972	13.777	1007.526	762.821
99.987	13.717	1006.784	761.917
101.001	13.865	1005.431	761.505
102.016	13.822	1004.774	760.745
103.030	13.695	1004.260	759.704
104.045	13.703	1003.845	759.361
105.060	13.717	1002.534	758.365
106.074	13.669	1001.472	757.277
107.089	13.653	1000.416	756.336
108.103	13.498	999.527	754.893
109.118	13.533	998.499	754.210
110.133	13.652	997.141	753.657
111.147	13.552	997.015	753.038
112.162	13.653	995.933	752.616
113.176	13.510	995.287	751.413
114.191	13.630	994.643	751.405
115.206	13.658	993.676	750.734
116.220	13.586	993.303	750.059
117.235	13.582	991.541	748.644
118.249	13.571	991.023	748.134
119.264	13.528	990.508	747.485
120.279	13.582	989.051	746.566
121.293	13.681	988.211	746.312
122.308	13.563	987.535	745.201
123.322	13.525	986.567	744.235
124.337	13.523	985.388	743.272
125.352	13.417	984.439	742.014
126.366	13.531	983.107	741.454
127.381	13.445	982.313	740.406
128.395	13.480	981.242	739.693
129.410	13.670	979.958	739.504
130.424	13.636	979.769	739.143
131.439	13.583	978.869	738.164
132.454	13.673	978.106	737.926
133.468	13.814	976.873	737.557
134.483	13.700	975.940	736.278
135.497	13.647	975.514	735.660
136.512	13.575	975.072	734.940
137.527	13.679	973.780	734.362
138.541	13.607	973.623	733.860
139.556	13.612	972.784	733.183
140.570	13.775	971.883	733.161
141.585	13.858	970.853	732.684
142.600	13.835	970.094	731.948
143.614	13.821	969.360	731.268
144.629	13.874	968.719	730.950
145.643	13.841	967.409	729.751
146.658	13.837	966.426	728.929
147.673	13.786	965.645	728.054
148.687	13.748	964.829	727.204
149.702	13.648	963.932	726.027
150.716	13.687	963.090	725.499
151.731	13.703	962.467	725.039
152.746	13.793	961.948	724.974
153.760	13.853	961.434	724.787
154.775	13.886	960.651	724.273
155.789	13.947	960.152	724.099
156.804	14.000	958.748	723.209
157.819	14.055	958.391	723.112
158.833	13.933	957.980	722.209
159.848	13.981	957.404	721.921
160.862	13.997	955.865	720.763
161.877	13.906	954.918	719.594
162.892	13.873	954.262	718.891
163.906	13.901	953.060	718.045
164.921	13.845	952.490	717.309
165.935	14.028	951.022	716.930
166.950	13.974	950.437	716.194
167.964	13.959	949.741	715.540
168.979	13.906	948.451	714.278
169.994	13.984	947.981	714.196
171.008	14.045	947.109	713.738
172.023	13.904	946.962	712.960
173.037	14.117	946.070	713.138
174.052	14.037	945.099	712.000
175.067	13.986	944.226	711.059
176.081	14.008	943.783	710.756
177.096	13.948	943.164	709.973
178.110	13.963	942.576	709.531
179.125	14.005	942.197	709.361
180.140	13.990	941.904	709.016
181.154	14.093	940.744	708.519
182.169	14.141	940.611	708.560
183.183	14.260	939.796	708.389
184.198	14.224	938.700	707.345
185.213	14.188	938.402	706.909
186.227	14.318	937.714	706.877
187.242	14.269	937.226	706.240
188.256	14.246	936.516	705.545
189.271	14.325	935.518	705.063
190.286	14.186	934.812	703.882
191.300	13.934	934.530	702.543
192.315	13.985	933.890	702.214
193.329	13.966	933.102	701.481
194.344	14.044	932.369	701.194
195.359	14.208	931.805	701.402
196.373	14.304	930.970	701.113
197.388	14.419	930.456	701.147
198.402	14.359	930.508	700.873
199.417	14.399	929.451	700.183
200.432	14.474	928.807	699.949
201.446	14.602	928.414	700.129
202.461	14.544	928.029	699.533
203.475	14.527	927.140	698.732
204.490	14.483	926.563	698.050
205.504	14.463	925.782	697.317
206.519	14.354	925.302	696.436
207.534	14.503	924.140	696.124
208.548	14.481	923.700	695.640
209.563	14.493	922.954	695.063
210.577	14.609	922.041	694.801
211.592	14.638	921.694	694.595
212.607	14.596	921.015	693.850
213.621	14.560	920.185	693.013
214.636	14.565	919.883	692.743
215.650	14.606	918.967	692.165
216.665	14.593	918.004	691.325
217.680	14.745	917.278	691.344
218.694	14.607	917.121	690.595
219.709	14.819	915.967	690.539
220.723	14.765	915.747	690.091
221.738	14.736	915.175	689.479
222.753	14.753	913.966	688.576
223.767	14.856	913.563	688.637
224.782	14.722	913.457	687.943
225.796	14.831	912.753	687.803
226.811	14.897	912.017	687.459
227.826	14.877	911.165	686.671
228.840	14.789	910.246	685.558
229.855	14.767	909.520	684.862
230.869	14.800	908.756	684.358
231.884	14.771	907.937	683.563
232.899	14.809	907.429	683.276
233.913	14.685	906.983	682.371
234.928	14.761	906.013	681.894
235.942	14.740	905.456	681.325
236.957	14.907	905.093	681.674
237.972	14.774	904.285	680.466
238.986	14.800	903.637	680.022
240.001	14.761	903.085	679.388
241.015	14.807	902.751	679.265
242.030	14.878	902.035	678.953
243.045	14.884	901.289	678.357
244.059	14.959	900.472	677.985
245.074	15.060	899.739	677.784
246.088	14.991	899.312	677.120
247.103	14.986	898.731	676.603
248.117	15.002	898.452	676.399
249.132	15.201	897.551	676.466
250.147	15.253	897.018	676.212
251.161	15.348	896.192	675.914
252.176	15.406	895.547	675.600
253.190	15.341	895.324	675.110
254.205	15.394	894.552	674.682
255.220	15.261	894.170	673.800
256.234	15.190	893.209	672.729
257.249	15.390	892.516	672.952
258.263	15.372	891.712	672.212
259.278	15.439	890.599	671.582
260.293	15.420	890.459	671.340
261.307	15.481	889.972	671.159
262.322	15.452	889.447	670.589
263.336	15.582	888.220	670.124
264.351	15.590	887.376	669.459
265.366	15.532	887.057	668.927
266.380	15.488	886.291	668.115
267.395	15.572	885.570	667.845
268.409	15.397	885.092	666.730
269.424	15.504	884.517	666.663
270.439	15.562	883.323	665.934
271.453	15.444	883.096	665.235
272.468	15.443	882.569	664.777
273.482	15.661	881.904	665.079
274.497	15.502	881.306	663.942
275.512	15.560	880.640	663.610
276.526	15.487	880.616	663.247
277.541	15.421	879.853	662.353
278.555	15.732	879.100	662.954
279.570	15.759	878.552	662.586
280.585	15.645	877.843	661.546
281.599	15.681	876.903	660.920
282.614	15.768	875.755	660.339
283.628	15.703	875.477	659.814
284.643	15.581	875.341	659.173
285.657	15.603	874.922	658.886
286.672	15.759	873.615	658.454
287.687	15.681	873.637	658.109
288.701	15.773	872.566	657.602
289.716	15.808	872.003	657.259
290.730	15.777	871.267	656.523
291.745	15.876	871.119	656.738
292.760	15.831	869.913	655.595
293.774	15.790	869.677	655.202
294.789	15.962	868.268	654.750
295.803	15.870	868.096	654.206
296.818	15.875	867.345	653.602
297.833	15.837	866.741	652.940
298.847	15.864	866.408	652.736
299.862	16.066	865.675	652.909
300.876	15.901	865.504	652.084
301.891	16.039	864.532	651.828
302.906	16.036	864.062	651.402
303.920	16.084	863.581	651.169
304.935	16.055	863.058	650.606
305.949	16.136	862.223	650.230
306.964	16.097	861.736	649.656
307.979	16.211	860.990	649.475
308.993	16.073	861.118	648.982
310.008	16.234	859.667	648.451
311.022	16.299	859.079	648.197
312.037	16.210	858.545	647.396
313.052	16.039	858.233	646.449
314.066	16.086	857.580	646.079
315.081	16.178	857.108	646.018
316.095	16.271	856.425	645.805
317.110	16.166	855.827	644.895
318.125	16.191	855.853	644.950
319.139	16.035	855.079	643.716
320.154	16.168	854.268	643.555
321.168	16.132	854.007	643.166
322.183	16.248	853.063	642.840
323.197	16.340	852.388	642.621
324.212	16.172	852.253	641.825
325.227	16.312	851.704	641.886
326.241	16.233	851.160	641.122
327.256	16.220	850.476	640.499
328.270	16.309	849.722	640.211
329.285	16.160	849.570	639.477
330.300	16.200	848.583	638.829
331.314	16.184	848.302	638.498
332.329	16.299	847.817	638.512
333.343	16.376	847.194	638.278
334.358	16.294	846.984	637.754
335.373	16.410	846.524	637.789
336.387	16.473	846.193	637.721
337.402	16.481	845.836	637.424
338.416	16.525	845.598	637.355
339.431	16.442	845.340	636.790
340.446	16.561	844.952	636.890
341.460	16.504	844.792	636.500
342.475	16.526	844.058	635.972
343.489	16.574	843.413	635.609
344.504	16.692	842.797	635.534
345.519	16.642	842.521	635.080
346.533	16.692	841.880	634.730
347.548	16.657	841.304	634.107
348.562	16.640	840.869	633.662
349.577	16.587	840.434	633.078
350.592	16.678	839.494	632.655
351.606	16.597	838.943	631.879
352.621	16.720	837.913	631.507
353.635	16.659	837.675	631.045
354.650	16.822	836.921	631.027
355.665	16.639	836.403	629.901
356.679	16.806	835.683	629.922
357.694	16.841	834.823	629.350
358.708	16.758	834.427	628.687
359.723	16.753	833.785	628.128
360.738	16.696	833.578	627.706
361.752	16.782	832.888	627.450
362.767	16.825	832.175	627.016
363.781	16.921	831.488	626.800
364.796	16.953	831.371	626.773
365.810	17.018	831.151	626.791
366.825	17.063	830.461	626.384
367.840	16.960	830.349	625.863
368.854	17.062	829.459	625.512
369.869	16.988	828.893	624.756
370.883	17.214	828.449	625.200
371.898	17.023	828.260	624.296
372.913	16.975	828.055	623.913
373.927	17.164	827.417	624.071
374.942	17.209	826.773	623.696
375.956	17.147	826.983	623.569
376.971	17.157	825.947	622.771
377.986	17.233	825.633	622.756
379.000	17.304	824.991	622.478
380.015	17.284	824.660	622.099
381.029	17.367	823.834	621.725
382.044	17.278	823.485	621.082
383.059	17.380	822.536	620.685
384.073	17.254	822.166	619.888
385.088	17.240	821.748	619.467
386.102	17.293	821.282	619.256
387.117	17.227	820.302	618.222
388.132	17.112	820.200	617.673
389.146	17.327	819.335	617.747
390.161	17.374	818.847	617.496
391.175	17.420	818.381	617.257
392.190	17.315	818.183	616.671
393.205	17.192	817.741	615.838
394.219	17.337	817.473	616.106
395.234	17.310	816.696	615.367
396.248	17.280	816.191	614.826
397.263	17.258	815.784	614.384
398.278	17.284	815.642	614.318
399.292	17.234	815.217	613.764
400.307	17.285	814.571	613.406
401.321	17.396	814.054	613.363
402.336	17.392	813.492	612.869
403.350	17.599	812.879	613.098
404.365	17.555	812.825	612.844
405.380	17.500	812.608	612.430
406.394	17.644	811.561	612.102
407.409	17.650	811.072	611.702
408.423	17.699	810.617	611.481
409.438	17.634	810.800	611.332
410.453	17.602	810.245	610.743
411.467	17.663	809.680	610.483
412.482	17.803	809.313	610.655
413.496	17.865	808.941	610.541
414.511	17.902	808.927	610.607
415.526	17.938	808.049	610.020
416.540	17.785	807.681	609.143
417.555	17.739	807.121	608.502
418.569	17.883	806.850	608.756
419.584	17.948	806.014	608.303
420.599	17.917	806.029	608.151
421.613	110.875	1293.989	1474.941
422.628	95.657	1365.054	1475.028
