DTS Sentinel unit serial number:	SN413079Multiplexer serial number:	ORYXHardware model number:	OX4-SRSoftware version number:	ORYX F/W v4.00 Oryx Data Collector v3.7.2.0data status	okinstallation	princeton_trtdifferential loss correction	single-endedforward channel	channel 1reverse channel	N/Adate	2019/09/17time	21:58:35forward acquisition time	60.00reverse acquisition time	0.00gamma	496.2192k internal	0.2340k external	0.2340temperature offset calibration	0.9975default loss term (dB/km)	0.3790temperature slope calibration	1.0000multiplexer offset coefficient	1.0000multiplexer slope coefficient	1.0000fibre end	0.00T internal ref (°C)	26.12T ext. ref 1 (°C)	0.19T ext. ref 2 (°C)	18.85length (m)	temperature (°C)	Stokes	anti-Stokes-747.200	-142.471	-0.247	0.024
-746.185	-153.269	0.172	0.012
-745.171	172.403	-0.198	0.285
-744.156	-200.000	-0.014	-0.096
-743.142	-200.000	0.006	-0.167
-742.127	-89.335	-0.108	0.032
-741.112	800.000	-0.092	-0.311
-740.098	346.270	0.142	0.280
-739.083	-200.000	0.016	0.597
-738.069	42.314	-0.197	0.179
-737.054	47.768	0.171	0.160
-736.039	-171.557	-0.353	-0.012
-735.025	242.038	0.165	-0.276
-734.010	-44.355	-0.112	0.056
-732.996	126.671	-0.069	-0.088
-731.981	59.149	0.040	0.040
-730.966	800.000	0.062	0.205
-729.952	305.068	0.232	-0.433
-728.937	56.702	-0.180	0.176
-727.923	364.931	-0.101	-0.204
-726.908	184.934	-0.116	-0.172
-725.894	9.104	-0.204	0.155
-724.879	-200.000	0.002	-0.090
-723.864	309.683	0.085	0.159
-722.850	-75.639	0.429	0.153
-721.835	29.006	-0.272	-0.231
-720.821	200.997	0.071	0.109
-719.806	800.000	-0.104	-0.323
-718.791	705.733	0.025	0.067
-717.777	800.000	-0.028	0.086
-716.762	-159.147	0.169	-0.010
-715.748	42.647	-0.051	-0.046
-714.733	-68.421	0.192	0.075
-713.718	-175.305	-0.431	-0.012
-712.704	189.025	-0.115	-0.173
-711.689	501.230	0.101	-0.233
-710.675	49.040	0.185	0.174
-709.660	149.230	-0.206	-0.280
-708.645	-125.259	-0.009	0.001
-707.631	-91.735	-0.142	-0.040
-706.616	-132.796	0.341	0.044
-705.602	-0.593	-0.221	0.157
-704.587	433.769	-0.027	0.060
-703.572	-200.000	-0.000	0.108
-702.558	320.987	0.036	0.068
-701.543	-96.951	0.130	0.034
-700.529	-104.816	-0.083	-0.019
-699.514	800.000	-0.053	0.150
-698.499	24.500	-0.066	-0.055
-697.485	-95.731	-0.261	0.070
-696.470	-200.000	0.003	0.156
-695.456	-67.234	-0.092	0.036
-694.441	-143.398	0.096	-0.009
-693.426	-9.765	-0.150	0.100
-692.412	491.998	-0.053	-0.121
-691.397	-200.000	-0.020	0.168
-690.383	-49.578	0.137	-0.065
-689.368	77.777	0.233	0.248
-688.354	14.869	0.044	0.034
-687.339	-65.101	0.051	-0.021
-686.324	54.636	-0.105	0.101
-685.310	-186.109	-0.122	0.002
-684.295	800.000	-0.038	-0.120
-683.281	236.658	-0.134	0.221
-682.266	651.942	0.099	0.254
-681.251	448.396	-0.166	-0.365
-680.237	320.469	-0.264	-0.502
-679.222	-171.027	0.358	0.012
-678.208	-200.000	-0.025	-0.292
-677.193	-14.000	0.324	-0.209
-676.178	-137.095	0.112	-0.013
-675.164	-30.511	0.153	0.087
-674.149	-200.000	0.026	-0.128
-673.135	355.357	-0.072	0.143
-672.120	134.049	0.088	-0.113
-671.105	-153.361	0.254	-0.018
-670.091	800.000	0.058	-0.234
-669.076	-8.930	-0.025	-0.017
-668.062	-4.021	-0.221	-0.153
-667.047	-200.000	0.040	-0.261
-666.032	-200.000	-0.054	-0.340
-665.018	669.203	-0.068	0.176
-664.003	217.189	0.175	-0.278
-662.989	54.513	-0.073	-0.070
-661.974	81.286	-0.109	-0.117
-660.959	-0.245	0.082	-0.059
-659.945	-118.307	-0.168	-0.030
-658.930	208.084	-0.067	-0.105
-657.916	-62.361	-0.252	0.105
-656.901	-105.097	0.194	0.044
-655.886	-154.285	-0.475	0.032
-654.872	-200.000	0.024	-0.122
-653.857	-133.133	-0.142	0.018
-652.843	206.845	0.216	0.336
-651.828	-0.172	-0.116	-0.082
-650.814	-200.000	0.005	-0.080
-649.799	525.761	0.140	-0.328
-648.784	695.317	-0.019	-0.051
-647.770	800.000	-0.056	0.210
-646.755	800.000	-0.127	0.399
-645.741	265.662	0.218	-0.379
-644.726	800.000	-0.021	-0.082
-643.711	-200.000	-0.011	-0.123
-642.697	-200.000	-0.023	-0.350
-641.682	376.220	-0.046	-0.093
-640.668	-6.814	-0.176	-0.119
-639.653	-200.000	-0.011	-0.376
-638.638	-93.777	-0.119	-0.033
-637.624	-200.000	0.089	-0.567
-636.609	-91.431	-0.135	0.039
-635.595	-33.269	0.057	0.031
-634.580	154.028	-0.148	0.203
-633.565	576.006	0.102	-0.249
-632.551	-200.000	-0.012	-0.355
-631.536	569.068	0.090	-0.218
-630.522	-21.463	0.059	0.036
-629.507	26.216	-0.077	0.064
-628.492	154.316	0.084	0.116
-627.478	-41.116	-0.037	-0.019
-626.463	-70.484	0.135	0.051
-625.449	125.793	0.168	-0.212
-624.434	800.000	0.096	-0.287
-623.419	159.413	-0.193	-0.268
-622.405	38.321	-0.164	-0.146
-621.390	-91.032	0.242	-0.069
-620.376	-165.781	0.348	-0.015
-619.361	-153.836	-0.313	-0.021
-618.346	-200.000	0.009	0.100
-617.332	-162.633	0.238	0.012
-616.317	36.801	-0.102	0.090
-615.303	-200.000	0.015	0.161
-614.288	-151.127	-0.145	-0.011
-613.273	-111.736	-0.222	0.045
-612.259	800.000	0.025	-0.103
-611.244	-102.074	0.126	0.030
-610.230	800.000	-0.062	-0.242
-609.215	343.767	-0.124	0.243
-608.201	-200.000	-0.006	-0.277
-607.186	118.588	0.119	0.146
-606.171	-113.374	0.149	0.029
-605.157	-89.286	-0.214	-0.063
-604.142	-24.627	0.236	0.140
-603.128	-68.166	-0.055	0.021
-602.113	444.600	0.123	0.268
-601.098	90.247	0.088	-0.098
-600.084	-135.483	0.192	-0.023
-599.069	20.767	0.245	0.198
-598.055	800.000	0.073	-0.236
-597.040	-123.188	-0.166	0.027
-596.025	-61.448	-0.145	0.061
-595.011	-72.366	-0.122	0.045
-593.996	173.904	-0.072	-0.103
-592.982	334.031	0.150	-0.288
-591.967	189.723	-0.107	-0.160
-590.952	478.388	-0.142	-0.321
-589.938	-93.728	0.251	0.069
-588.923	800.000	-0.053	-0.167
-587.909	171.758	-0.205	-0.294
-586.894	-200.000	0.015	-0.123
-585.879	-177.376	-0.423	0.010
-584.865	372.847	-0.078	0.158
-583.850	90.765	-0.102	0.114
-582.836	58.689	0.082	-0.080
-581.821	-99.261	-0.167	0.042
-580.806	-115.327	-0.367	0.069
-579.792	-24.552	0.178	0.106
-578.777	-107.270	-0.352	-0.077
-577.763	79.143	0.224	-0.239
-576.748	386.478	-0.046	-0.095
-575.733	263.668	-0.087	-0.151
-574.719	-56.544	-0.080	0.035
-573.704	-104.804	0.295	0.068
-572.690	17.905	-0.146	0.116
-571.675	116.291	-0.125	0.153
-570.661	-11.288	0.041	0.027
-569.646	110.019	0.156	-0.187
-568.631	-200.000	0.036	-0.631
-567.617	362.293	-0.101	-0.203
-566.602	-129.748	-0.210	0.029
-565.588	744.210	0.070	-0.188
-564.573	70.467	0.077	-0.079
-563.558	-200.000	-0.042	0.189
-562.544	800.000	0.061	0.181
-561.529	-200.000	-0.006	0.034
-560.515	-200.000	-0.111	-0.517
-559.500	764.493	-0.046	-0.125
-558.485	-200.000	0.037	-0.203
-557.471	-30.915	-0.198	-0.111
-556.456	-200.000	0.061	0.458
-555.442	72.794	-0.068	0.071
-554.427	-200.000	-0.005	-0.067
-553.412	-162.330	-0.318	0.016
-552.398	204.931	-0.119	-0.184
-551.383	-76.368	0.144	-0.050
-550.369	-67.794	-0.226	-0.088
-549.354	-173.055	-0.043	-0.001
-548.339	553.067	-0.110	-0.263
-547.325	-132.466	-0.093	-0.012
-546.310	-21.335	0.283	0.172
-545.296	-150.918	-0.184	0.014
-544.281	-24.956	-0.257	0.152
-543.266	-12.597	0.155	0.100
-542.252	166.644	-0.076	0.107
-541.237	278.852	0.243	0.431
-540.223	-74.329	0.131	-0.047
-539.208	382.539	-0.106	0.216
-538.193	-45.682	0.187	0.092
-537.179	-12.551	0.156	-0.101
-536.164	-56.804	0.152	-0.067
-535.150	-118.690	0.128	-0.022
-534.135	800.000	0.073	0.295
-533.121	-49.838	0.077	-0.036
-532.106	-180.025	0.296	-0.006
-531.091	-74.964	-0.313	-0.111
-530.077	-143.399	0.223	-0.021
-529.062	800.000	0.039	0.115
-528.048	-30.046	0.129	-0.073
-527.033	-20.041	-0.332	0.204
-526.018	15.521	-0.115	-0.090
-525.004	-200.000	-0.047	0.592
-523.989	267.743	0.122	0.213
-522.975	-200.000	-0.000	0.048
-521.960	800.000	-0.118	-0.442
-520.945	451.736	-0.073	0.161
-519.931	18.488	-0.090	0.072
-518.916	-67.053	-0.319	-0.125
-517.902	37.985	-0.076	-0.067
-516.887	-200.000	-0.028	0.243
-515.872	225.521	0.141	-0.227
-514.858	489.376	-0.121	-0.274
-513.843	-99.751	0.199	0.050
-512.829	146.576	0.158	0.211
-511.814	104.527	0.072	0.084
-510.799	228.182	-0.210	0.339
-509.785	442.438	0.018	0.039
-508.770	-94.924	-0.035	0.010
-507.756	190.803	0.068	0.101
-506.741	344.422	-0.157	-0.306
-505.726	164.714	0.044	0.062
-504.712	800.000	0.107	-0.431
-503.697	-47.128	0.316	0.153
-502.683	-41.164	-0.250	0.128
-501.668	-200.000	-0.028	0.133
-500.653	88.914	0.029	0.032
-499.639	-95.250	-0.081	-0.022
-498.624	-35.279	0.142	-0.077
-497.610	100.579	-0.323	0.372
-496.595	-155.730	0.355	-0.023
-495.581	23.583	-0.254	-0.208
-494.566	243.236	-0.039	-0.064
-493.551	-57.021	-0.146	-0.064
-492.537	-64.597	0.313	0.126
-491.522	90.578	0.166	-0.185
-490.508	800.000	-0.085	0.255
-489.493	-46.590	0.248	-0.121
-488.478	196.625	0.142	-0.215
-487.464	-195.236	-0.175	0.001
-486.449	130.998	-0.237	-0.301
-485.435	160.690	0.074	0.102
-484.420	-20.877	-0.075	0.045
-483.405	112.038	0.116	0.139
-482.391	113.141	-0.268	0.323
-481.376	-170.933	-0.163	-0.006
-480.362	148.714	-0.192	0.258
-479.347	-200.000	-0.004	0.031
-478.332	-200.000	0.068	-0.459
-477.318	-21.995	-0.243	0.147
-476.303	-80.026	-0.246	-0.082
-475.289	-200.000	0.041	0.368
-474.274	-81.428	0.145	0.047
-473.259	8.112	-0.494	0.368
-472.245	4.051	-0.125	0.091
-471.230	800.000	0.015	0.049
-470.216	585.361	0.092	-0.225
-469.201	638.575	0.150	-0.379
-468.186	-104.727	-0.253	-0.058
-467.172	-200.000	0.031	0.230
-466.157	250.647	0.164	0.276
-465.143	-108.690	0.369	-0.079
-464.128	-91.535	-0.104	-0.029
-463.113	98.462	0.418	-0.478
-462.099	9.803	0.165	-0.124
-461.084	75.819	0.323	0.339
-460.070	331.514	-0.166	-0.317
-459.055	-167.028	0.133	-0.005
-458.040	686.967	0.051	0.132
-457.026	-88.026	0.185	-0.055
-456.011	201.408	0.122	-0.186
-454.997	280.310	0.107	-0.189
-453.982	800.000	-0.025	0.108
-452.968	-23.724	-0.215	0.127
-451.953	490.242	0.163	-0.370
-450.938	45.838	0.203	0.186
-449.924	800.000	0.074	-0.312
-448.909	800.000	0.106	0.354
-447.895	43.067	0.250	-0.226
-446.880	-42.513	0.243	-0.123
-445.865	-200.000	-0.044	-0.305
-444.851	-200.000	-0.030	-0.130
-443.836	-95.408	0.037	-0.010
-442.822	104.673	-0.268	-0.313
-441.807	8.387	0.165	-0.123
-440.792	348.530	-0.043	-0.085
-439.778	199.396	0.193	0.292
-438.763	-200.000	-0.029	0.360
-437.749	95.843	0.146	-0.165
-436.734	-99.613	-0.195	-0.049
-435.719	-149.715	0.044	0.003
-434.705	-38.711	-0.202	0.106
-433.690	220.021	0.070	-0.111
-432.676	-33.540	-0.089	-0.049
-431.661	-148.261	0.198	-0.016
-430.646	430.643	-0.089	0.190
-429.632	243.613	-0.112	-0.186
-428.617	-200.000	0.004	0.156
-427.603	-38.387	0.127	0.067
-426.588	700.684	-0.180	0.468
-425.573	197.724	0.130	-0.197
-424.559	-115.995	-0.291	0.054
-423.544	-148.666	-0.403	-0.032
-422.530	-200.000	0.013	-0.074
-421.515	275.772	-0.091	0.160
-420.500	-200.000	-0.028	0.173
-419.486	639.127	0.110	-0.277
-418.471	800.000	0.078	-0.308
-417.457	357.765	0.116	0.230
-416.442	-164.307	-0.135	-0.006
-415.428	2.316	0.255	0.183
-414.413	-31.029	0.407	0.228
-413.398	106.467	0.128	-0.150
-412.384	237.859	0.111	0.182
-411.369	-200.000	-0.039	-0.314
-410.355	-147.283	0.081	0.007
-409.340	144.584	0.073	0.096
-408.325	79.373	-0.017	0.018
-407.311	-200.000	0.014	-0.187
-406.296	-200.000	0.023	-0.154
-405.282	-131.059	0.291	0.038
-404.267	-200.000	0.018	0.141
-403.252	-148.176	0.049	0.004
-402.238	-200.000	0.018	0.206
-401.223	156.863	0.115	0.157
-400.209	-72.663	-0.052	-0.019
-399.194	129.790	-0.208	-0.263
-398.179	-79.188	-0.063	-0.021
-397.165	800.000	0.066	-0.275
-396.150	8.644	-0.252	0.188
-395.136	-25.206	-0.001	0.000
-394.121	-200.000	0.004	-0.171
-393.106	-164.951	0.201	-0.009
-392.092	-139.190	-0.177	-0.019
-391.077	733.589	-0.040	0.106
-390.063	0.842	-0.264	0.187
-389.048	-96.672	-0.063	-0.016
-388.033	800.000	0.058	-0.228
-387.019	140.789	-0.188	-0.245
-386.004	13.442	-0.346	-0.265
-384.990	17.191	-0.226	-0.177
-383.975	35.782	0.177	-0.153
-382.960	-200.000	0.052	0.263
-381.946	54.435	0.029	0.028
-380.931	-101.700	-0.227	-0.054
-379.917	-200.000	-0.023	-0.216
-378.902	513.003	0.017	0.040
-377.888	-52.800	-0.019	0.009
-376.873	-176.544	0.291	-0.007
-375.858	-93.297	-0.566	-0.155
-374.844	-35.205	-0.152	0.082
-373.829	-71.164	0.117	-0.044
-372.815	31.437	-0.153	-0.130
-371.800	-200.000	-0.026	0.173
-370.785	39.253	-0.172	0.152
-369.771	-38.548	0.196	0.102
-368.756	-78.804	0.141	-0.047
-367.742	126.963	0.131	-0.164
-366.727	-134.033	-0.192	-0.023
-365.712	21.692	-0.096	0.077
-364.698	-200.000	-0.072	-0.313
-363.683	-200.000	-0.054	0.254
-362.669	4.310	0.063	-0.045
-361.654	-200.000	-0.052	-0.559
-360.639	-177.374	0.152	-0.004
-359.625	8.467	-0.097	-0.072
-358.610	-1.080	0.135	0.094
-357.596	-85.802	-0.209	-0.064
-356.581	344.349	-0.119	0.230
-355.566	700.974	-0.039	-0.101
-354.552	-200.000	0.014	0.082
-353.537	-107.700	-0.335	-0.072
-352.523	105.453	0.121	0.141
-351.508	-114.094	0.193	0.037
-350.493	-54.286	-0.415	-0.186
-349.479	-18.719	-0.304	0.187
-348.464	-200.000	0.025	0.222
-347.450	90.280	0.170	-0.187
-346.435	-104.387	-0.227	0.052
-345.420	-200.000	-0.017	-0.100
-344.406	185.112	0.203	0.297
-343.391	139.000	0.222	0.289
-342.377	413.781	-0.147	0.308
-341.362	-2.798	-0.026	-0.018
-340.348	227.730	0.073	-0.117
-339.333	140.548	-0.371	-0.484
-338.318	23.115	-0.224	0.181
-337.304	-38.390	-0.209	-0.109
-336.289	13.778	-0.197	0.151
-335.275	800.000	0.049	0.137
-334.260	-109.964	-0.268	-0.055
-333.245	549.776	0.030	0.071
-332.231	-16.244	-0.179	-0.112
-331.216	49.734	-0.195	-0.181
-330.202	-130.182	0.191	0.026
-329.187	-102.225	0.424	0.101
-328.172	-86.989	0.172	-0.052
-327.158	-200.000	0.017	-0.244
-326.143	-200.000	-0.000	0.188
-325.129	-111.987	-0.312	-0.062
-324.114	14.131	0.208	-0.160
-323.099	-200.000	0.024	0.206
-322.085	-82.807	-0.160	-0.051
-321.070	466.473	-0.172	-0.381
-320.056	-200.000	-0.019	0.209
-319.041	800.000	0.096	0.281
-318.026	761.266	0.107	-0.285
-317.012	6.733	-0.153	0.112
-315.997	-51.764	-0.170	-0.078
-314.983	353.879	-0.143	0.280
-313.968	80.788	0.140	0.148
-312.953	-64.322	0.323	0.129
-311.939	-46.719	0.183	-0.088
-310.924	68.364	0.068	0.069
-309.910	323.132	-0.030	0.056
-308.895	-200.000	-0.027	0.205
-307.880	-54.024	-0.030	0.014
-306.866	-200.000	0.020	0.236
-305.851	124.363	-0.144	-0.179
-304.837	122.389	-0.202	-0.249
-303.822	-200.000	0.074	0.448
-302.807	-11.103	0.244	0.159
-301.793	-200.000	0.062	0.276
-300.778	-100.548	-0.252	0.061
-299.764	632.038	-0.031	-0.078
-298.749	-157.746	0.324	0.019
-297.735	41.224	0.115	0.102
-296.720	-93.225	-0.197	0.054
-295.705	-101.813	0.118	-0.028
-294.691	-135.320	-0.110	-0.013
-293.676	295.887	-0.258	0.466
-292.662	329.468	0.131	0.248
-291.647	-110.046	-0.080	0.016
-290.632	-200.000	-0.008	-0.054
-289.618	176.183	-0.023	-0.033
-288.603	800.000	-0.061	0.178
-287.589	36.538	-0.154	0.134
-286.574	12.795	-0.143	0.109
-285.559	-200.000	0.047	-0.368
-284.545	-200.000	0.009	-0.100
-283.530	-200.000	-0.025	-0.295
-282.516	-51.682	0.200	0.092
-281.501	32.172	0.092	0.078
-280.486	102.841	-0.050	-0.058
-279.472	-123.828	0.235	0.037
-278.457	-36.721	-0.293	0.155
-277.443	-188.118	-0.412	-0.005
-276.428	-200.000	0.007	0.217
-275.413	109.644	0.271	0.320
-274.399	-43.620	0.365	-0.181
-273.384	38.892	0.093	-0.082
-272.370	-87.102	0.402	-0.121
-271.355	-138.322	0.278	0.030
-270.340	75.157	-0.125	-0.129
-269.326	70.455	-0.110	0.112
-268.311	-200.000	-0.022	0.141
-267.297	19.781	-0.208	0.165
-266.282	800.000	-0.064	0.255
-265.267	740.924	0.116	0.308
-264.253	92.561	0.318	0.353
-263.238	-100.796	0.160	0.039
-262.224	-200.000	0.025	-0.199
-261.209	50.360	-0.028	0.026
-260.195	49.377	-0.220	-0.203
-259.180	-200.000	0.041	0.271
-258.165	-9.564	0.210	-0.138
-257.151	-61.616	-0.162	-0.067
-256.136	316.940	0.183	-0.340
-255.122	-110.916	-0.212	-0.043
-254.107	-114.000	0.223	-0.042
-253.092	-161.140	0.130	-0.007
-252.078	300.968	-0.227	0.413
-251.063	364.500	0.143	0.282
-250.049	50.829	0.273	0.255
-249.034	66.447	0.166	0.165
-248.019	121.981	0.129	0.158
-247.005	-96.755	-0.306	-0.079
-245.990	-66.730	0.315	-0.123
-244.976	72.856	0.152	-0.156
-243.961	-200.000	-0.025	-0.126
-242.946	18.618	-0.117	-0.092
-241.932	-63.481	0.169	0.068
-240.917	6.798	-0.024	-0.018
-239.903	-162.203	-0.120	0.006
-238.888	-169.681	0.129	-0.005
-237.873	72.764	-0.283	-0.290
-236.859	-41.196	0.351	-0.178
-235.844	-25.124	0.036	0.021
-234.830	-6.018	-0.221	-0.148
-233.815	-81.554	-0.334	0.108
-232.800	800.000	-0.050	-0.142
-231.786	-200.000	-0.025	-0.325
-230.771	22.667	0.175	0.141
-229.757	-20.041	-0.115	-0.070
-228.742	-55.895	-0.199	0.087
-227.727	91.539	-0.187	0.206
-226.713	152.692	-0.112	0.151
-225.698	330.278	0.076	0.143
-224.684	688.473	0.025	-0.063
-223.669	-200.000	-0.018	-0.205
-222.655	122.981	-0.077	-0.095
-221.640	-200.000	0.004	0.137
-220.625	-181.454	-0.085	-0.002
-219.611	31.752	0.254	0.215
-218.596	-23.101	-0.284	-0.168
-217.582	-162.091	-0.108	0.005
-216.567	-53.181	0.188	0.085
-215.552	-127.394	0.278	0.040
-214.538	-18.035	0.185	-0.114
-213.523	-61.336	-0.257	0.106
-212.509	800.000	0.093	-0.334
-211.494	-200.000	-0.025	0.135
-210.479	-90.917	0.259	-0.073
-209.465	154.656	-0.011	-0.015
-208.450	155.785	-0.072	-0.097
-207.436	-200.000	-0.002	-0.152
-206.421	-105.674	-0.176	0.039
-205.406	-44.838	0.312	-0.153
-204.392	-51.937	-0.106	-0.048
-203.377	114.668	-0.135	-0.161
-202.363	800.000	-0.053	-0.207
-201.348	-200.000	-0.066	0.359
-200.333	-28.361	0.071	0.040
-199.319	-200.000	-0.005	-0.259
-198.304	124.487	0.021	0.026
-197.290	96.029	0.361	0.404
-196.275	-62.592	-0.284	0.116
-195.260	-200.000	-0.000	0.020
-194.246	-19.517	-0.122	0.074
-193.231	-200.000	0.213	0.000
-192.217	78.628	0.122	0.128
-191.202	-200.000	-0.021	0.190
-190.187	218.349	0.085	-0.133
-189.173	-71.523	0.177	0.065
-188.158	-200.000	-0.012	-0.080
-187.144	302.044	-0.098	-0.178
-186.129	-68.706	0.335	0.127
-185.114	89.663	0.114	0.125
-184.100	283.929	0.218	0.384
-183.085	-200.000	-0.197	-0.000
-182.071	-36.945	0.286	0.150
-181.056	-106.948	-0.180	0.039
-180.042	390.743	-0.088	-0.178
-179.027	166.034	0.093	0.129
-178.012	800.000	-0.039	-0.119
-176.998	800.000	-0.051	-0.216
-175.983	800.000	0.056	-0.154
-174.969	87.850	0.261	0.284
-173.954	-200.000	0.006	-0.048
-172.939	495.356	0.151	-0.341
-171.925	224.159	-0.131	0.207
-170.910	66.576	-0.169	-0.168
-169.896	-57.747	-0.318	0.136
-168.881	-200.000	0.000	0.044
-167.866	80.518	-0.146	0.154
-166.852	-186.994	-0.271	0.004
-165.837	-118.866	-0.201	0.035
-164.823	132.365	0.054	-0.068
-163.808	277.281	-0.039	0.068
-162.793	108.646	0.330	0.387
-161.779	-85.938	0.211	0.064
-160.764	-60.687	-0.113	-0.047
-159.750	21.453	0.363	0.289
-158.735	111.500	0.251	0.297
-157.720	82.735	0.384	0.409
-156.706	800.000	-0.095	0.269
-155.691	0.793	0.402	0.282
-154.677	-200.000	0.243	0.000
-153.662	-200.000	-0.008	0.077
-152.647	-51.269	-0.092	0.042
-151.633	-200.000	0.027	-0.311
-150.618	-200.000	-0.007	-0.300
-149.604	-88.870	0.389	-0.113
-148.589	110.737	0.054	-0.064
-147.574	-200.000	-0.073	0.453
-146.560	-93.416	-0.363	-0.099
-145.545	-51.854	0.097	-0.044
-144.531	-132.840	0.072	-0.009
-143.516	29.406	0.361	0.301
-142.502	-183.532	-0.059	0.001
-141.487	-122.917	0.131	-0.021
-140.472	-162.623	-0.163	0.008
-139.458	-200.000	-0.018	-0.129
-138.443	18.644	-0.186	0.146
-137.429	-14.097	0.234	0.148
-136.414	-200.000	-0.001	-0.028
-135.399	-1.031	-0.049	0.034
-134.385	-92.747	0.210	0.058
-133.370	-114.043	-0.203	0.038
-132.356	-72.711	-0.238	-0.086
-131.341	-138.991	-0.379	0.040
-130.326	-31.365	-0.042	-0.023
-129.312	176.278	0.127	-0.181
-128.297	-83.491	0.098	0.031
-127.283	110.287	-0.106	-0.124
-126.268	-44.005	0.312	-0.153
-125.253	65.431	-0.124	-0.123
-124.239	-200.000	0.021	0.140
-123.224	-42.127	-0.160	0.080
-122.210	-155.693	0.650	0.041
-121.195	-29.813	-0.338	-0.189
-120.180	800.000	0.142	-0.429
-119.166	512.732	-0.110	-0.251
-118.151	33.272	0.226	0.192
-117.137	14.828	-0.239	-0.183
-116.122	285.869	-0.213	0.376
-115.107	90.699	0.160	0.175
-114.093	-115.665	-0.145	-0.027
-113.078	266.435	-0.053	-0.091
-112.064	-200.000	0.024	-0.246
-111.049	-200.000	-0.006	-0.058
-110.034	-200.000	-0.025	0.246
-109.020	-106.277	0.289	0.063
-108.005	369.942	-0.060	0.120
-106.991	-32.215	-0.053	0.029
-105.976	-200.000	-0.041	-0.292
-104.962	29.720	-0.407	-0.339
-103.947	-78.837	-0.090	-0.030
-102.932	-200.000	-0.010	0.060
-101.918	-41.366	0.111	-0.056
-100.903	-200.000	-0.007	-0.267
-99.889	-45.607	0.292	-0.141
-98.874	468.666	0.141	0.309
-97.859	-130.827	-0.373	0.049
-96.845	142.553	0.115	0.149
-95.830	-200.000	-0.017	-0.140
-94.816	800.000	-0.039	0.160
-93.801	203.440	0.101	-0.153
-92.786	1.807	-0.143	-0.101
-91.772	505.791	-0.155	-0.351
-90.757	-90.270	0.253	0.072
-89.743	61.912	-0.229	-0.223
-88.728	-95.013	0.348	0.092
-87.713	401.811	-0.132	-0.270
-86.699	61.721	-0.202	0.197
-85.684	167.990	-0.177	0.246
-84.670	-24.686	0.121	-0.070
-83.655	-99.201	-0.217	-0.054
-82.640	-200.000	-0.007	0.090
-81.626	-93.343	-0.123	0.033
-80.611	-135.096	0.156	0.018
-79.597	800.000	0.061	0.230
-78.582	29.207	0.085	-0.070
-77.567	-21.539	-0.253	-0.151
-76.553	-107.324	-0.083	0.018
-75.538	311.938	-0.127	-0.233
-74.524	532.066	0.148	0.342
-73.509	605.678	0.080	0.194
-72.494	-14.485	0.189	0.119
-71.480	96.148	-0.110	0.123
-70.465	-13.866	0.327	-0.206
-69.451	-200.000	-0.026	0.301
-68.436	-141.916	-0.135	-0.013
-67.422	172.620	-0.101	0.142
-66.407	219.849	-0.168	0.263
-65.392	-200.000	0.041	0.250
-64.378	96.955	0.071	-0.080
-63.363	-200.000	0.045	0.233
-62.349	-200.000	-0.042	0.266
-61.334	86.479	-0.827	-0.890
-60.319	48.370	0.847	0.774
-59.305	800.000	-0.502	-1.410
-58.290	596.722	0.574	1.388
-57.276	404.691	0.698	1.436
-56.261	-200.000	117.050	604.320
-55.246	418.979	1515.277	3163.216
-54.232	149.686	2669.264	3529.477
-53.217	97.260	2124.708	2379.393
-52.203	36.793	1569.958	1353.733
-51.188	29.367	1315.184	1090.303
-50.173	26.541	1277.228	1042.543
-49.159	50.832	1339.295	1237.656
-48.144	49.361	1353.031	1241.591
-47.130	29.434	1304.649	1081.785
-46.115	26.214	1286.470	1048.022
-45.100	26.014	1281.260	1042.578
-44.086	25.956	1278.743	1040.154
-43.071	26.013	1276.286	1038.441
-42.057	25.932	1274.394	1036.399
-41.042	25.946	1272.782	1035.124
-40.027	25.928	1271.252	1033.737
-39.013	25.967	1269.221	1032.267
-37.998	25.994	1268.194	1031.544
-36.984	26.138	1265.792	1030.376
-35.969	26.127	1264.157	1028.937
-34.954	26.039	1262.813	1027.306
-33.940	26.093	1261.440	1026.453
-32.925	26.229	1259.671	1025.746
-31.911	26.234	1258.493	1024.772
-30.896	26.224	1257.213	1023.631
-29.881	26.249	1255.976	1022.727
-28.867	26.207	1254.441	1021.201
-27.852	26.306	1252.673	1020.281
-26.838	26.162	1251.667	1018.606
-25.823	26.215	1250.792	1018.153
-24.809	26.147	1249.355	1016.558
-23.794	26.170	1248.197	1015.708
-22.779	26.267	1246.650	1014.952
-21.765	26.208	1245.884	1013.958
-20.750	26.066	1244.831	1012.265
-19.736	26.157	1243.118	1011.341
-18.721	26.031	1242.278	1009.911
-17.706	26.199	1240.312	1009.209
-16.692	26.155	1239.180	1008.005
-15.677	26.151	1238.180	1007.132
-14.663	26.066	1237.348	1005.940
-13.648	26.093	1236.274	1005.178
-12.633	26.066	1235.710	1004.528
-11.619	26.078	1234.549	1003.609
-10.604	26.084	1233.599	1002.829
-9.590	26.063	1232.611	1001.870
-8.575	26.037	1231.900	1001.108
-7.560	26.027	1230.900	1000.202
-6.546	26.100	1229.921	999.771
-5.531	26.136	1228.921	999.120
-4.517	25.984	1228.546	997.931
-3.502	26.020	1227.928	997.589
-2.487	26.179	1226.239	997.056
-1.473	25.929	1222.657	992.727
-0.458	24.123	1207.132	970.253
0.556	18.493	1191.300	930.874
1.571	14.603	1197.907	914.670
2.586	13.778	1212.182	920.913
3.600	13.742	1200.470	911.736
4.615	10.051	1131.136	839.856
5.629	3.472	1060.394	755.128
6.644	0.376	1042.736	727.563
7.659	0.167	1040.691	725.064
8.673	0.099	1039.973	724.172
9.688	0.098	1038.959	723.399
10.702	0.338	1036.644	722.872
11.717	4.206	1041.350	744.697
12.731	11.513	1050.831	786.724
13.746	16.116	1055.878	812.666
14.761	16.848	1056.987	816.975
15.775	15.917	1054.997	810.886
16.790	14.972	1052.992	804.728
17.804	14.338	1051.269	800.296
18.819	14.106	1050.256	798.342
19.834	13.804	1049.270	796.070
20.848	13.541	1048.709	794.314
21.863	13.339	1047.420	792.298
22.877	13.211	1046.855	791.189
23.892	12.964	1046.731	789.844
24.907	13.179	1045.464	789.846
25.921	13.111	1044.989	789.091
26.936	13.166	1044.139	788.641
27.950	13.233	1043.005	788.033
28.965	13.359	1041.687	787.572
29.980	13.424	1040.435	786.864
30.994	13.381	1039.568	785.933
32.009	13.354	1038.450	784.891
33.023	13.313	1037.620	783.998
34.038	13.345	1036.851	783.500
35.053	13.187	1036.366	782.317
36.067	13.276	1034.958	781.607
37.082	13.249	1034.223	780.855
38.096	13.254	1033.710	780.418
39.111	13.239	1032.847	779.630
40.126	13.225	1031.492	778.472
41.140	13.205	1030.431	777.509
42.155	13.130	1028.782	775.842
43.169	13.104	1028.075	775.119
44.184	13.057	1027.357	774.290
45.199	13.253	1025.879	774.022
46.213	13.261	1024.807	773.184
47.228	13.172	1024.129	772.186
48.242	13.180	1023.052	771.344
49.257	13.229	1022.156	770.832
50.271	13.323	1021.205	770.482
51.286	13.303	1020.361	769.682
52.301	13.179	1019.708	768.549
53.315	13.115	1018.943	767.605
54.330	13.170	1017.622	766.797
55.344	13.147	1016.978	766.139
56.359	13.227	1015.876	765.610
57.374	13.125	1015.225	764.580
58.388	13.056	1014.465	763.619
59.403	13.051	1013.923	763.124
60.417	13.183	1012.695	762.740
61.432	13.078	1012.124	761.758
62.447	12.982	1011.493	760.774
63.461	13.063	1010.175	760.087
64.476	13.109	1009.166	759.473
65.490	13.050	1009.104	759.085
66.505	13.013	1008.141	758.123
67.520	13.045	1007.106	757.427
68.534	13.206	1006.402	757.567
69.549	13.007	1005.867	756.186
70.563	13.006	1004.822	755.331
71.578	12.959	1004.420	754.746
72.593	13.076	1003.642	754.627
73.607	13.061	1002.809	753.867
74.622	12.991	1002.582	753.311
75.636	13.130	1001.206	752.845
76.651	13.000	1001.081	752.090
77.666	13.023	1000.216	751.477
78.680	13.091	999.584	751.245
79.695	13.007	999.031	750.382
80.709	13.098	998.423	750.274
81.724	13.068	997.984	749.743
82.739	13.147	996.760	749.113
83.753	13.345	995.975	749.354
84.768	13.266	995.499	748.572
85.782	13.352	994.320	748.007
86.797	13.169	993.827	746.743
87.812	13.141	992.847	745.814
88.826	13.250	991.393	745.146
89.841	13.246	990.878	744.675
90.855	13.418	990.025	744.742
91.870	13.368	989.177	743.814
92.884	13.348	988.008	742.781
93.899	13.450	987.121	742.506
94.914	13.309	986.666	741.468
95.928	13.354	985.726	740.897
96.943	13.375	984.857	740.272
97.957	13.296	984.468	739.560
98.972	13.363	983.468	739.043
99.987	13.363	982.192	738.017
101.001	13.274	981.650	737.147
102.016	13.348	980.552	736.588
103.030	13.372	979.850	736.101
104.045	13.268	979.289	735.153
105.060	13.339	978.377	734.718
106.074	13.170	977.560	733.291
107.089	13.226	976.530	732.703
108.103	13.119	975.807	731.621
109.118	13.274	974.515	731.271
110.133	13.203	973.748	730.317
111.147	13.234	973.079	729.888
112.162	13.281	972.105	729.301
113.176	13.394	971.521	729.297
114.191	13.282	970.741	728.156
115.206	13.322	970.057	727.753
116.220	13.351	969.014	727.031
117.235	13.195	968.471	725.874
118.249	13.252	967.442	725.290
119.264	13.320	967.076	725.251
120.279	13.397	965.877	724.623
121.293	13.257	965.066	723.339
122.308	13.225	964.455	722.675
123.322	13.314	963.320	722.153
124.337	13.083	962.368	720.366
125.352	13.233	961.128	720.029
126.366	13.417	959.629	719.642
127.381	13.240	959.062	718.382
128.395	13.242	958.260	717.727
129.410	13.096	957.679	716.594
130.424	13.284	956.349	716.351
131.439	13.394	955.394	716.048
132.454	13.312	955.318	715.573
133.468	13.200	954.596	714.486
134.483	13.355	952.988	713.885
135.497	13.224	952.609	712.974
136.512	13.300	951.628	712.503
137.527	13.349	950.998	712.180
138.541	13.346	950.098	711.431
139.556	13.303	949.360	710.631
140.570	13.398	948.754	710.522
141.585	13.398	947.814	709.757
142.600	13.426	946.595	708.900
143.614	13.501	946.286	708.925
144.629	13.684	944.926	708.627
145.643	13.508	944.724	707.662
146.658	13.512	943.355	706.592
147.673	13.464	942.807	705.914
148.687	13.490	941.924	705.300
149.702	13.528	940.914	704.642
150.716	13.374	940.164	703.365
151.731	13.332	939.983	702.987
152.746	13.349	939.243	702.445
153.760	13.415	938.659	702.224
154.775	13.548	937.937	702.187
155.789	13.643	937.231	701.998
156.804	13.537	936.560	700.987
157.819	13.615	935.733	700.633
158.833	13.651	935.180	700.310
159.848	13.675	934.581	699.900
160.862	13.559	933.407	698.470
161.877	13.571	932.211	697.566
162.892	13.560	931.506	696.931
163.906	13.636	930.775	696.640
164.921	13.624	929.614	695.659
165.935	13.565	929.049	694.928
166.950	13.629	927.914	694.286
167.964	13.714	927.274	694.102
168.979	13.663	926.215	693.033
169.994	13.608	925.395	692.127
171.008	13.701	924.830	692.033
172.023	13.688	924.312	691.529
173.037	13.786	923.893	691.563
174.052	13.848	922.538	690.746
175.067	13.782	922.310	690.242
176.081	13.725	921.947	689.672
177.096	13.685	921.196	688.882
178.110	13.607	921.116	688.436
179.125	13.696	920.302	688.135
180.140	13.738	919.777	687.856
181.154	13.742	919.573	687.662
182.169	13.835	918.251	686.998
183.183	13.816	917.930	686.618
184.198	13.995	916.881	686.511
185.213	13.971	916.078	685.752
186.227	13.898	916.119	685.420
187.242	13.987	915.146	684.996
188.256	13.957	914.648	684.439
189.271	14.026	913.730	683.975
190.286	13.835	913.090	682.651
191.300	13.701	912.535	681.624
192.315	13.755	911.711	681.173
193.329	13.813	911.186	680.956
194.344	13.916	910.570	680.859
195.359	13.792	910.536	680.266
196.373	14.077	909.420	680.535
197.388	14.027	908.983	679.947
198.402	14.057	908.436	679.600
199.417	14.171	907.770	679.507
200.432	14.140	907.026	678.764
201.446	14.133	906.616	678.369
202.461	14.196	906.528	678.496
203.475	14.195	905.595	677.734
204.490	14.072	905.124	676.824
205.504	14.103	904.245	676.232
206.519	14.219	903.161	675.832
207.534	14.094	902.916	675.082
208.548	14.059	902.521	674.585
209.563	14.124	901.254	673.840
210.577	14.240	900.661	673.807
211.592	14.209	900.184	673.264
212.607	14.304	899.480	673.064
213.621	14.202	898.768	672.058
214.636	14.327	898.033	671.954
215.650	14.406	897.344	671.698
216.665	14.369	896.791	671.076
217.680	14.447	896.046	670.775
218.694	14.252	895.700	669.669
219.709	14.355	895.029	669.523
220.723	14.385	894.102	668.890
221.738	14.327	893.856	668.416
222.753	14.388	893.221	668.124
223.767	14.560	892.476	668.200
224.782	14.395	892.159	667.240
225.796	14.364	891.823	666.806
226.811	14.512	890.830	666.598
227.826	14.446	890.086	665.718
228.840	14.608	889.149	665.602
229.855	14.543	888.514	664.812
230.869	14.419	887.734	663.673
231.884	14.408	887.179	663.155
232.899	14.526	886.500	663.059
233.913	14.540	885.931	662.631
234.928	14.527	885.089	661.893
235.942	14.450	884.666	661.213
236.957	14.421	884.093	660.608
237.972	14.436	883.742	660.349
238.986	14.492	882.909	659.890
240.001	14.532	882.319	659.548
241.015	14.591	881.760	659.305
242.030	14.576	881.425	658.938
243.045	14.643	880.448	658.411
244.059	14.545	879.887	657.546
245.074	14.651	879.417	657.557
246.088	14.619	878.448	656.646
247.103	14.590	878.030	656.164
248.117	14.601	877.857	656.018
249.132	14.737	877.288	656.069
250.147	15.039	876.059	656.278
251.161	14.972	875.710	655.694
252.176	14.893	874.936	654.749
253.190	14.952	874.425	654.538
254.205	14.985	873.666	654.041
255.220	15.010	873.183	653.718
256.234	15.053	872.572	653.372
257.249	15.051	871.947	652.840
258.263	14.907	871.268	651.711
259.278	14.972	870.828	651.578
260.293	15.015	870.310	651.298
261.307	15.215	869.257	651.230
262.322	15.092	868.853	650.394
263.336	15.184	868.305	650.281
264.351	15.216	867.159	649.492
265.366	15.214	866.648	649.043
266.380	15.190	866.125	648.500
267.395	15.269	865.216	648.068
268.409	15.195	864.780	647.398
269.424	15.366	863.498	647.042
270.439	15.187	863.062	645.967
271.453	15.143	863.029	645.716
272.468	15.112	862.351	645.032
273.482	15.247	861.831	645.105
274.497	15.224	861.094	644.408
275.512	15.205	860.790	644.051
276.526	15.171	860.390	643.566
277.541	15.291	859.662	643.422
278.555	15.321	858.969	642.964
279.570	15.345	858.410	642.578
280.585	15.474	857.476	642.316
281.599	15.279	857.064	641.205
282.614	15.521	856.114	641.363
283.628	15.535	855.549	640.937
284.643	15.337	855.205	639.866
285.657	15.423	854.642	639.715
286.672	15.552	853.942	639.626
287.687	15.408	853.030	638.341
288.701	15.584	852.325	638.424
289.716	15.441	851.684	637.346
290.730	15.480	851.528	637.320
291.745	15.566	850.873	637.101
292.760	15.702	849.955	636.872
293.774	15.669	849.753	636.538
294.789	15.620	848.791	635.575
295.803	15.507	848.351	634.764
296.818	15.600	847.741	634.603
297.833	15.665	846.967	634.211
298.847	15.627	846.731	633.835
299.862	15.635	845.789	633.105
300.876	15.691	845.492	633.036
301.891	15.770	844.726	632.704
302.906	15.700	844.275	632.046
303.920	15.832	843.695	632.052
304.935	15.868	843.186	631.749
305.949	15.810	842.674	631.095
306.964	15.847	841.666	630.420
307.979	15.836	841.244	630.009
308.993	16.037	840.603	630.224
310.008	15.869	840.120	629.176
311.022	15.955	839.549	629.017
312.037	15.945	838.918	628.450
313.052	15.883	838.551	627.891
314.066	15.864	837.732	627.149
315.081	15.810	837.510	626.725
316.095	15.879	836.570	626.226
317.110	16.017	836.419	626.567
318.125	15.886	835.873	625.619
319.139	15.915	835.396	625.314
320.154	15.798	835.214	624.687
321.168	15.727	834.971	624.188
322.183	15.936	833.522	623.824
323.197	15.995	833.154	623.710
324.212	15.903	832.800	623.050
325.227	16.019	831.938	622.777
326.241	15.810	831.773	621.826
327.256	15.961	831.437	622.079
328.270	16.041	830.211	621.402
329.285	15.997	830.183	621.162
330.300	16.127	828.915	620.637
331.314	16.078	828.956	620.433
332.329	16.166	828.135	620.087
333.343	16.016	828.023	619.396
334.358	16.132	827.578	619.437
335.373	15.963	827.572	618.756
336.387	16.062	827.085	618.702
337.402	16.068	826.837	618.481
338.416	16.105	826.363	618.207
339.431	16.255	825.958	618.401
340.446	16.261	825.718	618.189
341.460	16.368	825.318	618.228
342.475	16.399	824.660	617.790
343.489	16.241	824.079	616.723
344.504	16.292	823.874	616.704
345.519	16.362	823.618	616.710
346.533	16.310	823.107	616.083
347.548	16.302	822.362	615.442
348.562	16.280	821.670	614.793
349.577	16.341	821.183	614.595
350.592	16.502	820.309	614.471
351.606	16.487	819.502	613.758
352.621	16.326	819.116	612.831
353.635	16.386	818.798	612.754
354.650	16.510	817.786	612.393
355.665	16.491	817.434	612.007
356.679	16.445	816.706	611.242
357.694	16.529	816.112	611.046
358.708	16.630	815.293	610.744
359.723	16.601	815.021	610.381
360.738	16.562	814.299	609.647
361.752	16.595	813.502	609.114
362.767	16.549	813.299	608.744
363.781	16.755	812.728	609.002
364.796	16.717	812.339	608.520
365.810	16.769	812.062	608.446
366.825	16.805	811.489	608.092
367.840	16.707	811.250	607.508
368.854	16.847	810.463	607.366
369.869	16.812	809.994	606.834
370.883	16.648	810.119	606.287
371.898	16.742	809.850	606.368
372.913	16.909	809.179	606.409
373.927	16.897	808.455	605.772
374.942	16.857	807.758	605.054
375.956	16.923	807.737	605.219
376.971	16.976	807.185	604.940
377.986	16.889	806.954	604.403
379.000	17.070	806.542	604.686
380.015	17.023	805.986	604.050
381.029	17.063	805.299	603.624
382.044	17.130	804.507	603.214
383.059	17.029	803.857	602.316
384.073	17.020	803.505	601.967
385.088	16.886	803.139	601.164
386.102	16.954	802.449	600.836
387.117	17.039	801.497	600.368
388.132	16.980	801.618	600.199
389.146	17.099	800.946	600.063
390.161	17.142	800.614	599.913
391.175	17.126	800.187	599.482
392.190	17.184	799.474	599.100
393.205	17.204	798.951	598.726
394.219	17.106	798.864	598.262
395.234	17.116	798.353	597.863
396.248	17.087	797.720	597.235
397.263	17.200	797.270	597.242
398.278	17.039	796.937	596.372
399.292	17.322	796.500	596.986
400.307	17.163	796.111	596.085
401.321	16.940	796.013	595.175
402.336	17.083	795.355	595.132
403.350	17.203	794.801	595.086
404.365	17.298	794.218	594.928
405.380	17.110	794.145	594.162
406.394	17.409	793.415	594.610
407.409	17.338	792.830	593.871
408.423	17.446	792.803	594.176
409.438	17.230	792.588	593.207
410.453	17.366	792.257	593.383
411.467	17.389	791.715	593.005
412.482	17.436	790.909	592.511
413.496	17.428	790.918	592.437
414.511	17.419	790.621	592.130
415.526	17.429	790.268	591.847
416.540	17.508	789.523	591.512
417.555	17.594	789.214	591.526
418.569	17.457	788.814	590.700
419.584	17.659	788.218	590.904
420.599	17.799	787.692	590.941
421.613	113.421	1296.320	1482.793
422.628	97.421	1370.395	1482.878
