DTS Sentinel unit serial number:	SN413079Multiplexer serial number:	ORYXHardware model number:	OX4-SRSoftware version number:	ORYX F/W v4.00 Oryx Data Collector v3.7.2.0data status	okinstallation	princeton_trtdifferential loss correction	single-endedforward channel	channel 1reverse channel	N/Adate	2019/09/13time	08:50:35forward acquisition time	60.00reverse acquisition time	0.00gamma	496.2192k internal	0.2328k external	0.2328temperature offset calibration	1.0162default loss term (dB/km)	0.3790temperature slope calibration	1.0000multiplexer offset coefficient	1.0000multiplexer slope coefficient	1.0000fibre end	0.00T internal ref (°C)	28.08T ext. ref 1 (°C)	4.33T ext. ref 2 (°C)	25.05length (m)	temperature (°C)	Stokes	anti-Stokes-747.200	-83.646	0.342	-0.110
-746.185	800.000	0.037	0.108
-745.171	335.439	0.193	0.377
-744.156	-8.746	-0.289	0.196
-743.142	-83.787	0.119	0.038
-742.127	-200.000	-0.007	0.055
-741.112	800.000	-0.043	0.150
-740.098	-57.692	-0.091	-0.040
-739.083	616.408	0.045	-0.114
-738.069	800.000	0.028	0.096
-737.054	-57.722	-0.318	-0.140
-736.039	-170.114	0.294	0.011
-735.025	-34.427	-0.148	0.082
-734.010	42.486	-0.543	-0.498
-732.996	-160.362	0.094	0.005
-731.981	35.504	-0.207	-0.183
-730.966	-200.000	0.028	0.333
-729.952	-21.334	-0.226	-0.139
-728.937	25.306	-0.252	-0.211
-727.923	-200.000	-0.025	0.135
-726.908	547.425	-0.180	-0.433
-725.894	-200.000	-0.027	-0.136
-724.879	128.283	0.202	-0.258
-723.864	120.496	-0.094	0.118
-722.850	56.327	0.224	-0.220
-721.835	94.977	0.215	-0.246
-720.821	-156.156	-0.202	0.013
-719.806	27.063	-0.179	0.151
-718.791	800.000	0.055	-0.179
-717.777	-200.000	-0.087	-0.401
-716.762	-112.439	-0.107	-0.021
-715.748	-19.447	-0.247	0.154
-714.733	-200.000	0.020	0.119
-713.718	93.793	-0.230	-0.262
-712.704	-200.000	0.019	-0.131
-711.689	-200.000	-0.021	0.127
-710.675	-200.000	-0.014	-0.326
-709.660	-54.766	-0.213	0.097
-708.645	-24.518	0.270	0.162
-707.631	-200.000	-0.004	0.086
-706.616	339.331	0.174	-0.342
-705.602	-111.611	0.267	-0.055
-704.587	-30.595	-0.147	-0.084
-703.572	-84.687	-0.131	-0.042
-702.558	197.029	0.078	0.120
-701.543	-200.000	0.015	0.081
-700.529	-200.000	-0.026	-0.151
-699.514	800.000	-0.027	-0.113
-698.499	170.962	-0.047	0.068
-697.485	800.000	-0.024	0.070
-696.470	587.803	-0.192	-0.475
-695.456	12.422	0.176	-0.137
-694.441	68.742	-0.192	-0.198
-693.426	89.170	0.061	-0.068
-692.412	35.823	0.224	-0.198
-691.397	-129.298	0.074	-0.010
-690.383	373.267	-0.155	-0.316
-689.368	192.358	-0.017	-0.025
-688.354	800.000	-0.122	-0.528
-687.339	65.933	-0.014	0.014
-686.324	-146.133	-0.317	0.028
-685.310	-119.025	0.269	0.047
-684.295	-74.624	-0.463	0.168
-683.281	-88.988	0.082	0.024
-682.266	680.451	-0.011	-0.029
-681.251	-200.000	0.017	0.130
-680.237	403.179	0.146	0.309
-679.222	215.862	-0.082	0.131
-678.208	-104.476	0.166	-0.039
-677.193	-135.202	0.052	-0.006
-676.178	-118.762	-0.178	0.032
-675.164	-200.000	-0.007	0.237
-674.149	-170.385	0.167	-0.006
-673.135	-200.000	-0.008	-0.203
-672.120	-165.672	-0.302	0.013
-671.105	180.020	-0.197	0.290
-670.091	372.113	-0.098	-0.201
-669.076	-200.000	0.023	-0.145
-668.062	-154.263	-0.157	-0.011
-667.047	-9.482	0.182	0.122
-666.032	245.168	-0.211	-0.356
-665.018	-0.161	-0.137	0.098
-664.003	800.000	-0.054	-0.181
-662.989	209.248	0.118	-0.185
-661.974	-16.327	0.070	-0.045
-660.959	415.124	-0.056	-0.120
-659.945	-16.931	0.150	-0.095
-658.930	-148.208	-0.256	0.021
-657.916	339.453	0.111	-0.217
-656.901	-95.455	-0.629	0.170
-655.886	-20.866	0.181	-0.111
-654.872	-138.315	-0.348	0.039
-653.857	-1.948	-0.051	0.036
-652.843	-55.557	-0.250	0.113
-651.828	-80.308	-0.297	-0.100
-650.814	82.507	-0.191	-0.208
-649.799	-91.354	0.243	0.070
-648.784	158.036	-0.204	-0.284
-647.770	-93.552	-0.252	-0.070
-646.755	800.000	0.056	-0.242
-645.741	-88.749	-0.243	0.072
-644.726	6.328	-0.104	0.077
-643.711	542.246	-0.087	0.207
-642.697	-32.035	-0.386	-0.217
-641.682	-30.764	0.266	-0.151
-640.668	-200.000	-0.004	0.164
-639.653	-29.718	-0.129	-0.074
-638.638	-200.000	-0.007	-0.072
-637.624	30.275	0.249	-0.213
-636.609	800.000	-0.091	-0.278
-635.595	-31.147	0.087	-0.049
-634.580	-93.452	0.247	-0.069
-633.565	143.633	0.121	-0.161
-632.551	-77.409	-0.279	-0.097
-631.536	19.396	0.210	-0.169
-630.522	-200.000	0.044	-0.228
-629.507	148.008	-0.021	-0.028
-628.492	206.476	-0.077	0.120
-627.478	-200.000	-0.075	-0.359
-626.463	-200.000	0.034	-0.186
-625.449	-69.946	-0.342	-0.131
-624.434	-155.167	-0.326	0.021
-623.419	-36.337	-0.254	0.137
-622.405	-20.860	0.192	-0.118
-621.390	387.320	-0.028	-0.058
-620.376	329.071	0.086	0.166
-619.361	-54.567	0.115	0.052
-618.346	-20.813	-0.154	0.094
-617.332	61.740	-0.121	-0.121
-616.317	800.000	0.034	-0.107
-615.303	502.848	0.048	-0.112
-614.288	43.262	-0.108	0.099
-613.273	-200.000	-0.060	-0.362
-612.259	-11.420	0.096	-0.064
-611.244	432.589	0.039	0.085
-610.230	-59.976	0.452	-0.194
-609.215	-200.000	0.001	0.176
-608.201	140.364	0.266	0.352
-607.186	470.151	-0.086	0.193
-606.171	800.000	-0.084	-0.243
-605.157	576.182	0.209	0.512
-604.142	270.607	0.167	-0.294
-603.128	-70.972	0.029	-0.011
-602.113	-200.000	0.101	0.447
-601.098	131.898	-0.254	0.327
-600.084	175.163	-0.098	-0.143
-599.069	25.280	0.198	0.165
-598.055	-68.279	0.021	0.008
-597.040	-78.876	-0.094	0.032
-596.025	220.117	-0.075	0.120
-595.011	-184.623	-0.217	-0.004
-593.996	192.786	-0.050	-0.075
-592.982	97.796	0.114	0.132
-591.967	120.232	0.211	0.262
-590.952	-96.786	-0.200	0.053
-589.938	115.459	0.122	-0.149
-588.923	87.323	-0.225	-0.250
-587.909	-200.000	-0.008	-0.139
-586.894	17.165	-0.119	0.094
-585.879	-87.143	-0.335	-0.102
-584.865	-35.868	0.268	-0.145
-583.850	181.468	0.130	0.191
-582.836	395.600	0.036	-0.074
-581.821	-2.614	-0.335	0.235
-580.806	800.000	-0.067	0.205
-579.792	653.929	-0.076	-0.196
-578.777	88.204	-0.225	0.250
-577.763	75.327	-0.164	-0.173
-576.748	469.666	-0.113	0.254
-575.733	28.193	-0.413	0.349
-574.719	278.417	-0.162	0.289
-573.704	224.474	-0.148	0.239
-572.690	-88.377	-0.117	-0.035
-571.675	256.048	0.227	-0.389
-570.661	546.628	-0.100	-0.239
-569.646	264.484	0.115	-0.200
-568.631	-9.312	-0.177	-0.118
-567.617	-200.000	0.000	0.131
-566.602	499.326	-0.039	0.090
-565.588	-133.371	0.252	-0.032
-564.573	-45.169	0.235	0.117
-563.558	66.216	-0.259	-0.264
-562.544	108.149	-0.044	-0.053
-561.529	-200.000	0.019	-0.296
-560.515	-123.241	0.088	-0.014
-559.500	-200.000	-0.019	-0.191
-558.485	-200.000	0.023	-0.151
-557.471	499.495	-0.092	-0.212
-556.456	777.642	-0.036	-0.099
-555.442	266.192	-0.127	-0.222
-554.427	36.776	0.232	-0.205
-553.412	-200.000	0.076	-0.414
-552.398	-67.222	-0.247	0.097
-551.383	-147.964	-0.264	0.022
-550.369	-36.121	0.047	0.026
-549.354	-15.592	-0.069	-0.044
-548.339	800.000	0.078	0.257
-547.325	-200.000	0.026	-0.150
-546.310	800.000	-0.032	-0.127
-545.296	-50.789	-0.154	0.072
-544.281	291.804	0.115	-0.210
-543.266	-200.000	-0.003	-0.068
-542.252	-27.339	0.047	0.027
-541.237	800.000	-0.061	0.192
-540.223	165.902	0.163	0.230
-539.208	265.844	-0.083	0.144
-538.193	-90.195	0.353	0.103
-537.179	-137.879	-0.321	0.036
-536.164	157.169	-0.105	-0.145
-535.150	246.682	-0.079	-0.132
-534.135	-164.942	0.138	-0.006
-533.121	140.132	-0.032	0.042
-532.106	-200.000	0.054	-0.337
-531.091	113.249	-0.194	-0.235
-530.077	-200.000	0.000	-0.052
-529.062	348.087	-0.045	-0.088
-528.048	-31.795	0.297	0.167
-527.033	269.513	-0.144	0.252
-526.018	-134.057	-0.286	-0.035
-525.004	-50.202	0.070	-0.033
-523.989	256.170	-0.127	-0.218
-522.975	499.736	-0.024	-0.055
-521.960	800.000	0.030	-0.127
-520.945	-190.676	0.249	0.003
-519.931	128.887	-0.044	0.056
-518.916	-41.408	-0.109	-0.056
-517.902	-136.133	0.352	-0.041
-516.887	353.791	-0.056	0.111
-515.872	220.740	0.038	-0.060
-514.858	-200.000	-0.009	0.221
-513.843	800.000	0.037	0.147
-512.829	156.874	-0.100	-0.139
-511.814	-200.000	0.033	-0.322
-510.799	-84.740	-0.156	0.049
-509.785	-172.463	-0.144	-0.005
-508.770	-43.885	-0.273	0.137
-507.756	-1.459	-0.266	0.187
-506.741	-94.819	-0.191	0.052
-505.726	-200.000	0.035	0.270
-504.712	800.000	-0.102	0.371
-503.697	800.000	0.030	0.128
-502.683	-35.598	-0.133	0.072
-501.668	113.710	-0.106	-0.128
-500.653	-138.903	0.287	0.031
-499.639	32.596	0.079	-0.068
-498.624	-200.000	0.026	0.203
-497.610	-49.022	0.484	0.231
-496.595	358.160	-0.184	-0.366
-495.581	800.000	0.093	-0.283
-494.566	2.830	-0.190	-0.138
-493.551	132.872	0.178	0.229
-492.537	-134.395	0.238	-0.029
-491.522	-67.125	0.143	0.056
-490.508	-105.316	0.266	0.060
-489.493	-134.253	-0.250	-0.031
-488.478	273.898	-0.070	0.123
-487.464	-52.133	-0.172	-0.080
-486.449	800.000	-0.044	-0.176
-485.435	-96.103	-0.120	-0.032
-484.420	125.616	0.167	0.210
-483.405	260.718	0.194	0.335
-482.391	-109.470	-0.251	-0.053
-481.376	-178.690	0.082	-0.002
-480.362	-200.000	-0.021	-0.333
-479.347	-146.726	-0.255	0.022
-478.332	-77.803	-0.126	0.043
-477.318	800.000	0.130	0.364
-476.303	7.769	-0.121	-0.090
-475.289	-98.783	0.062	0.016
-474.274	361.380	0.119	0.237
-473.259	48.383	-0.166	-0.155
-472.245	94.442	0.046	0.052
-471.230	21.063	0.068	0.055
-470.216	-27.542	0.089	-0.052
-469.201	299.289	-0.178	0.326
-468.186	93.279	-0.120	0.135
-467.172	-106.191	0.119	0.027
-466.157	166.313	0.210	-0.297
-465.143	-87.267	0.263	0.079
-464.128	66.647	-0.062	0.062
-463.113	141.130	0.237	-0.312
-462.099	100.982	0.197	-0.228
-461.084	-200.000	0.022	-0.210
-460.070	26.850	0.285	-0.238
-459.055	519.723	-0.050	0.118
-458.040	-82.382	0.282	-0.091
-457.026	-3.400	0.266	-0.185
-456.011	-176.161	0.374	0.010
-454.997	35.151	-0.129	0.113
-453.982	800.000	-0.053	0.174
-452.968	64.695	0.044	-0.044
-451.953	-200.000	0.024	0.182
-450.938	-95.262	-0.198	-0.053
-449.924	-200.000	-0.040	0.190
-448.909	-134.757	-0.255	-0.031
-447.895	-72.823	0.303	-0.111
-446.880	-200.000	-0.022	-0.315
-445.865	34.203	-0.267	0.232
-444.851	-94.780	0.423	-0.114
-443.836	800.000	0.016	0.070
-442.822	103.284	-0.181	-0.212
-441.807	279.936	0.078	0.139
-440.792	19.535	0.129	-0.103
-439.778	225.161	-0.041	0.067
-438.763	-200.000	-0.038	-0.194
-437.749	-200.000	0.004	0.174
-436.734	-83.805	-0.211	-0.067
-435.719	279.790	-0.131	-0.232
-434.705	-4.853	-0.173	0.118
-433.690	-64.697	0.098	-0.040
-432.676	91.911	-0.230	0.258
-431.661	-142.055	-0.126	0.012
-430.646	-151.045	-0.387	0.029
-429.632	800.000	-0.113	-0.325
-428.617	-67.706	-0.283	0.110
-427.603	-168.912	0.258	0.010
-426.588	174.813	0.119	0.172
-425.573	-200.000	-0.066	0.599
-424.559	18.991	0.278	0.222
-423.544	-200.000	-0.073	-0.486
-422.530	800.000	0.046	0.171
-421.515	310.874	-0.181	0.337
-420.500	800.000	-0.041	-0.146
-419.486	-200.000	-0.022	0.105
-418.471	-183.911	0.419	0.007
-417.457	-113.176	0.212	-0.042
-416.442	-200.000	0.007	0.051
-415.428	-200.000	-0.002	-0.020
-414.413	-18.782	-0.040	0.025
-413.398	17.544	0.164	0.130
-412.384	72.938	-0.139	0.144
-411.369	69.708	-0.140	0.144
-410.355	85.345	0.102	0.112
-409.340	124.543	-0.226	-0.282
-408.325	578.776	-0.153	-0.373
-407.311	-34.983	-0.210	-0.114
-406.296	-142.417	-0.147	-0.014
-405.282	-200.000	-0.039	-0.212
-404.267	663.012	0.117	0.301
-403.252	-200.000	0.022	0.389
-402.238	-113.942	-0.191	0.037
-401.223	102.613	-0.038	0.044
-400.209	63.898	0.138	-0.138
-399.194	221.720	0.258	0.412
-398.179	800.000	0.065	0.229
-397.165	264.334	-0.163	0.282
-396.150	800.000	0.055	0.201
-395.136	-34.762	-0.136	-0.074
-394.121	104.739	-0.087	0.102
-393.106	800.000	-0.039	-0.163
-392.092	-133.083	-0.075	-0.009
-391.077	-174.500	0.114	0.003
-390.063	800.000	0.044	0.184
-389.048	-200.000	-0.014	-0.191
-388.033	42.924	-0.135	-0.122
-387.019	236.019	0.165	-0.271
-386.004	-114.364	-0.246	0.047
-384.990	-1.112	-0.173	0.121
-383.975	-141.269	0.202	-0.020
-382.960	800.000	-0.075	0.306
-381.946	-137.048	0.160	0.018
-380.931	-113.532	0.225	-0.044
-379.917	-119.049	-0.291	0.051
-378.902	-116.960	0.139	-0.025
-377.888	679.191	0.181	0.469
-376.873	800.000	0.018	0.062
-375.858	-200.000	0.005	-0.204
-374.844	-200.000	0.056	0.311
-373.829	-41.989	0.275	-0.140
-372.815	800.000	-0.171	0.513
-371.800	-130.572	-0.257	0.035
-370.785	-145.282	0.337	-0.030
-369.771	487.244	0.024	-0.055
-368.756	465.154	-0.212	-0.471
-367.742	200.022	-0.047	-0.072
-366.727	-132.851	-0.103	0.013
-365.712	-140.722	0.367	0.038
-364.698	-200.000	0.004	-0.190
-363.683	-60.640	0.334	0.141
-362.669	-200.000	-0.002	0.354
-361.654	254.367	0.048	-0.081
-360.639	-29.965	0.156	-0.088
-359.625	-49.956	0.255	-0.120
-358.610	152.821	0.096	-0.131
-357.596	398.858	0.063	0.130
-356.581	-195.071	-0.411	0.003
-355.566	800.000	0.056	0.158
-354.552	25.367	-0.217	0.179
-353.537	75.489	-0.098	0.103
-352.523	629.487	0.076	-0.190
-351.508	-200.000	-0.005	0.273
-350.493	800.000	-0.125	0.346
-349.479	123.347	0.146	0.181
-348.464	-65.618	0.121	-0.048
-347.450	-200.000	-0.039	-0.293
-346.435	-200.000	0.018	0.214
-345.420	448.354	-0.060	-0.131
-344.406	-164.498	-0.217	0.010
-343.391	592.861	-0.059	-0.145
-342.377	800.000	0.089	-0.325
-341.362	-200.000	0.010	-0.419
-340.348	800.000	0.023	-0.069
-339.333	800.000	0.066	-0.223
-338.318	100.957	0.214	0.246
-337.304	-200.000	-0.020	-0.182
-336.289	-200.000	-0.024	-0.295
-335.275	800.000	-0.064	0.210
-334.260	-200.000	0.054	-0.258
-333.245	88.078	0.066	0.072
-332.231	646.456	-0.091	-0.231
-331.216	-37.988	0.150	-0.079
-330.202	800.000	-0.034	0.129
-329.187	-108.293	0.165	0.035
-328.172	20.221	-0.447	0.358
-327.158	43.677	-0.047	0.043
-326.143	74.896	0.176	-0.184
-325.129	-21.620	-0.527	-0.318
-324.114	-60.714	0.167	0.070
-323.099	800.000	-0.075	0.237
-322.085	-184.003	0.251	-0.004
-321.070	-200.000	-0.025	-0.279
-320.056	-200.000	0.037	-0.171
-319.041	800.000	-0.047	-0.158
-318.026	-200.000	-0.017	0.127
-317.012	782.091	-0.028	-0.077
-315.997	748.309	-0.089	-0.237
-314.983	-11.501	0.189	0.123
-313.968	548.394	0.073	-0.173
-312.953	90.228	-0.311	0.345
-311.939	-150.082	-0.037	-0.003
-310.924	-200.000	-0.037	0.251
-309.910	-29.318	0.351	-0.199
-308.895	-91.648	-0.460	-0.130
-307.880	759.114	0.021	0.057
-306.866	-200.000	0.027	0.207
-305.851	30.362	0.232	-0.196
-304.837	800.000	-0.030	-0.107
-303.822	216.782	-0.263	-0.414
-302.807	797.974	0.101	-0.275
-301.793	-60.159	0.191	-0.081
-300.778	80.697	0.117	0.125
-299.764	-63.804	0.143	0.058
-298.749	-7.079	-0.172	-0.116
-297.735	-106.339	-0.207	-0.046
-296.720	164.796	-0.192	-0.268
-295.705	219.373	0.130	0.205
-294.691	800.000	-0.042	0.147
-293.676	-44.068	0.331	0.165
-292.662	-23.191	0.081	-0.048
-291.647	-70.075	0.272	-0.102
-290.632	-97.988	0.384	0.098
-289.618	800.000	0.050	-0.146
-288.603	-150.104	0.297	-0.023
-287.589	346.679	0.141	-0.276
-286.574	179.161	-0.270	0.390
-285.559	-95.418	0.476	0.127
-284.545	124.499	0.086	0.107
-283.530	48.588	0.067	-0.062
-282.516	-92.441	0.045	0.013
-281.501	-88.649	-0.106	0.031
-280.486	-156.740	0.099	-0.006
-279.472	425.937	0.155	-0.331
-278.457	-42.008	-0.249	-0.126
-277.443	-200.000	-0.009	0.098
-276.428	150.507	0.179	-0.241
-275.413	-0.890	0.158	-0.111
-274.399	769.473	-0.129	-0.347
-273.384	-127.126	-0.196	0.028
-272.370	-98.833	0.334	-0.084
-271.355	-159.028	0.067	-0.004
-270.340	-152.515	-0.300	0.021
-269.326	-41.276	-0.252	0.128
-268.311	-29.427	-0.276	0.156
-267.297	54.874	0.088	-0.084
-266.282	268.813	0.120	0.209
-265.267	319.231	0.021	-0.040
-264.253	-200.000	-0.066	0.410
-263.238	-200.000	0.038	0.183
-262.224	-0.473	0.289	-0.203
-261.209	36.705	0.283	0.247
-260.195	-13.109	-0.103	-0.066
-259.180	187.397	0.053	0.079
-258.165	-81.077	-0.214	0.070
-257.151	-200.000	-0.005	0.077
-256.136	-91.739	0.267	-0.075
-255.122	205.198	-0.086	-0.132
-254.107	17.209	0.035	-0.027
-253.092	267.320	0.059	0.102
-252.078	-22.246	0.125	0.075
-251.063	-12.645	-0.199	0.129
-250.049	-43.264	0.039	-0.020
-249.034	-200.000	-0.040	0.349
-248.019	-50.774	0.204	0.095
-247.005	717.134	0.058	0.153
-245.990	-84.339	0.190	0.059
-244.976	-200.000	0.014	0.335
-243.961	-200.000	0.052	-0.435
-242.946	1.933	-0.187	-0.133
-241.932	800.000	-0.121	-0.414
-240.917	-200.000	0.105	-0.472
-239.903	-200.000	-0.023	0.159
-238.888	-20.604	-0.192	-0.116
-237.873	-200.000	0.033	-0.258
-236.859	-18.112	0.227	-0.140
-235.844	174.026	-0.046	-0.066
-234.830	470.314	-0.113	0.251
-233.815	800.000	-0.049	-0.169
-232.800	-200.000	-0.013	-0.151
-231.786	25.751	-0.191	0.157
-230.771	-7.458	0.254	0.170
-229.757	112.064	-0.092	0.110
-228.742	45.416	0.102	-0.093
-227.727	-145.266	-0.084	0.007
-226.713	58.169	0.350	0.339
-225.698	17.549	0.309	-0.243
-224.684	-162.887	-0.191	0.009
-223.669	-74.084	-0.077	-0.028
-222.655	-94.639	0.218	0.059
-221.640	-119.752	-0.074	-0.013
-220.625	7.965	-0.225	-0.166
-219.611	38.279	-0.339	0.298
-218.596	-37.471	-0.108	-0.057
-217.582	339.278	0.029	-0.055
-216.567	-83.220	0.090	0.028
-215.552	132.281	-0.087	0.110
-214.538	-200.000	0.008	-0.136
-213.523	151.209	-0.259	0.348
-212.509	-80.978	-0.108	-0.035
-211.494	-157.274	0.080	0.005
-210.479	288.937	-0.051	0.091
-209.465	800.000	0.174	-0.599
-208.450	119.564	-0.009	0.011
-207.436	2.250	-0.445	0.317
-206.421	-200.000	0.027	-0.217
-205.406	210.471	-0.097	-0.150
-204.392	-75.474	0.211	-0.074
-203.377	-200.000	-0.016	-0.330
-202.363	-200.000	0.011	-0.217
-201.348	-200.000	-0.006	0.140
-200.333	-73.810	0.397	0.142
-199.319	800.000	-0.061	0.180
-198.304	5.756	0.142	0.103
-197.290	800.000	0.064	0.195
-196.275	-24.067	-0.234	0.138
-195.260	82.274	0.022	-0.024
-194.246	164.633	-0.146	0.203
-193.231	-9.829	0.225	-0.148
-192.217	-200.000	-0.002	0.151
-191.202	-93.405	0.227	0.062
-190.187	100.752	0.043	-0.049
-189.173	654.153	-0.073	-0.186
-188.158	-23.783	0.284	-0.167
-187.144	-200.000	0.034	-0.291
-186.129	18.687	0.073	0.058
-185.114	-118.723	-0.194	-0.034
-184.100	12.565	-0.539	0.410
-183.085	800.000	-0.052	-0.186
-182.071	172.580	-0.072	0.102
-181.056	97.749	0.048	0.055
-180.042	49.293	0.211	0.196
-179.027	-88.428	0.337	-0.099
-178.012	-57.629	0.253	0.109
-176.998	99.135	0.072	0.082
-175.983	-34.884	0.054	0.029
-174.969	-163.542	0.100	0.005
-173.954	-167.504	0.437	0.017
-172.939	3.091	0.100	0.072
-171.925	-200.000	-0.024	0.253
-170.910	210.059	-0.109	-0.168
-169.896	-200.000	0.009	-0.074
-168.881	-10.131	0.087	-0.057
-167.866	-55.902	-0.097	0.042
-166.852	-74.859	0.093	-0.033
-165.837	-58.563	-0.418	0.179
-164.823	-52.625	-0.183	0.083
-163.808	-61.653	-0.162	-0.067
-162.793	-87.102	-0.118	0.035
-161.779	-13.616	0.031	0.020
-160.764	351.444	0.050	0.098
-159.750	171.290	0.134	0.189
-158.735	-111.327	0.365	-0.073
-157.720	-93.610	-0.320	-0.087
-156.706	-79.789	-0.081	-0.027
-155.691	630.219	0.067	0.166
-154.677	-200.000	-0.002	0.320
-153.662	367.319	0.177	0.351
-152.647	130.458	-0.139	0.175
-151.633	-107.190	-0.290	-0.063
-150.618	163.393	-0.112	-0.155
-149.604	-12.105	0.113	0.073
-148.589	24.475	0.140	0.114
-147.574	-23.854	-0.142	-0.084
-146.560	-200.000	0.019	0.335
-145.545	182.545	0.299	0.434
-144.531	-69.882	-0.126	-0.047
-143.516	-166.749	0.216	-0.009
-142.502	-56.590	-0.298	-0.130
-141.487	-200.000	-0.077	-0.339
-140.472	268.186	-0.163	-0.282
-139.458	-200.000	0.020	0.155
-138.443	328.204	0.069	-0.131
-137.429	-31.305	-0.074	0.041
-136.414	-200.000	-0.010	0.069
-135.399	-200.000	-0.013	-0.069
-134.385	-7.638	-0.159	0.106
-133.370	-20.338	-0.150	-0.091
-132.356	-38.097	-0.360	-0.188
-131.341	291.010	0.136	0.243
-130.326	-111.698	0.155	-0.031
-129.312	-40.045	0.109	0.056
-128.297	619.376	0.073	-0.181
-127.283	-116.331	-0.329	0.060
-126.268	-88.351	0.144	-0.042
-125.253	-92.462	-0.552	-0.153
-124.239	411.450	-0.109	0.228
-123.224	78.336	-0.138	0.145
-122.210	361.847	-0.018	0.036
-121.195	-5.769	-0.200	-0.135
-120.180	800.000	-0.031	0.117
-119.166	124.891	-0.200	-0.248
-118.151	121.411	0.189	0.232
-117.137	800.000	-0.098	0.339
-116.122	264.360	-0.265	-0.454
-115.107	800.000	-0.036	-0.118
-114.093	-200.000	-0.066	0.294
-113.078	800.000	0.132	0.382
-112.064	47.726	0.180	0.165
-111.049	-95.261	0.213	-0.056
-110.034	-20.111	-0.182	-0.110
-109.020	90.655	-0.367	-0.404
-108.005	-77.909	-0.087	0.030
-106.991	-131.074	0.032	0.004
-105.976	-200.000	0.015	0.075
-104.962	-3.150	-0.056	-0.038
-103.947	-123.143	0.183	-0.029
-102.932	-60.943	0.197	0.082
-101.918	-200.000	-0.002	-0.188
-100.903	466.340	0.122	0.268
-99.889	365.509	-0.054	0.107
-98.874	-137.663	0.249	-0.027
-97.859	218.849	0.093	0.146
-96.845	13.495	-0.432	-0.329
-95.830	-200.000	0.012	0.112
-94.816	97.436	0.043	-0.049
-93.801	-122.946	0.194	-0.031
-92.786	58.544	-0.075	-0.072
-91.772	611.226	0.052	0.128
-90.757	-39.670	-0.188	-0.096
-89.743	-8.966	0.205	-0.135
-88.728	-177.612	0.162	-0.004
-87.713	14.931	-0.194	-0.149
-86.699	-200.000	0.050	0.243
-85.684	-135.059	0.014	0.002
-84.670	-105.856	-0.388	0.086
-83.655	-200.000	0.009	-0.233
-82.640	85.418	-0.360	0.388
-81.626	76.372	0.189	0.196
-80.611	-200.000	-0.013	0.175
-79.597	800.000	0.092	-0.271
-78.582	347.845	0.086	-0.166
-77.567	-200.000	-0.041	0.247
-76.553	-109.712	-0.282	0.058
-75.538	-200.000	0.010	-0.089
-74.524	61.961	0.061	-0.059
-73.509	4.020	0.157	0.113
-72.494	232.118	0.047	-0.076
-71.480	24.154	-0.196	-0.159
-70.465	-200.000	-0.011	0.095
-69.451	-96.883	0.339	-0.087
-68.436	320.315	0.097	-0.180
-67.422	90.304	0.171	-0.187
-66.407	480.618	0.037	0.082
-65.392	-48.770	0.207	-0.097
-64.378	-140.331	0.246	-0.025
-63.363	-186.843	-0.405	0.006
-62.349	436.039	-0.048	0.102
-61.334	97.920	-1.015	-1.146
-60.319	42.418	0.572	0.510
-59.305	800.000	-0.383	-1.119
-58.290	205.898	0.716	1.092
-57.276	288.440	0.720	1.280
-56.261	-200.000	110.634	601.712
-55.246	494.362	1528.544	3441.780
-54.232	173.659	2712.899	3840.476
-53.217	107.913	2172.522	2539.110
-52.203	39.635	1611.036	1416.948
-51.188	31.566	1351.306	1139.572
-50.173	28.451	1311.895	1087.836
-49.159	53.081	1368.751	1285.048
-48.144	52.744	1383.569	1296.869
-47.130	31.559	1337.475	1127.686
-46.115	28.253	1319.309	1092.631
-45.100	28.073	1314.433	1087.481
-44.086	27.920	1311.909	1084.441
-43.071	27.721	1310.021	1081.654
-42.057	27.876	1307.507	1080.452
-41.042	27.946	1306.370	1079.886
-40.027	27.989	1304.571	1078.608
-39.013	27.921	1302.442	1076.404
-37.998	27.946	1300.582	1074.972
-36.984	28.088	1298.702	1074.214
-35.969	28.036	1296.943	1072.410
-34.954	28.113	1295.380	1071.523
-33.940	28.114	1293.926	1070.287
-32.925	28.105	1292.474	1068.991
-31.911	28.182	1291.529	1068.615
-30.896	28.210	1289.524	1067.077
-29.881	28.140	1288.724	1065.966
-28.867	28.122	1287.109	1064.483
-27.852	28.234	1284.974	1063.326
-26.838	28.248	1284.071	1062.617
-25.823	28.266	1282.818	1061.644
-24.809	28.073	1281.828	1059.660
-23.794	28.197	1280.395	1059.150
-22.779	28.152	1278.898	1057.613
-21.765	28.139	1277.639	1056.454
-20.750	28.221	1276.367	1055.834
-19.736	28.073	1275.309	1054.065
-18.721	28.075	1273.810	1052.794
-17.706	28.095	1273.017	1052.211
-16.692	28.036	1271.522	1050.594
-15.677	28.036	1270.582	1049.776
-14.663	28.037	1269.917	1049.192
-13.648	28.035	1268.528	1047.989
-12.633	28.022	1267.338	1046.891
-11.619	28.024	1266.411	1046.099
-10.604	28.058	1265.813	1045.758
-9.590	27.949	1264.931	1044.364
-8.575	28.004	1263.566	1043.505
-7.560	27.989	1263.029	1042.939
-6.546	27.961	1262.252	1042.097
-5.531	27.975	1261.181	1041.246
-4.517	28.066	1260.319	1041.016
-3.502	27.957	1259.624	1039.780
-2.487	28.042	1258.258	1039.090
-1.473	28.082	1254.162	1035.893
-0.458	27.015	1239.806	1018.019
0.556	25.561	1223.729	982.342
1.571	21.983	1229.449	967.170
2.586	21.069	1243.445	973.000
3.600	20.241	1231.210	958.767
4.615	15.480	1158.798	877.474
5.629	8.019	1085.053	784.922
6.644	4.654	1066.998	755.467
7.659	4.303	1064.526	751.951
8.673	4.202	1063.127	750.406
9.688	4.171	1061.553	749.079
10.702	4.505	1059.872	749.435
11.717	9.550	1066.611	778.574
12.731	17.432	1077.925	825.130
13.746	21.547	1082.883	848.853
14.761	22.028	1083.400	851.514
15.775	21.153	1081.355	845.595
16.790	20.325	1079.215	839.845
17.804	19.618	1077.912	835.338
18.819	19.385	1076.945	833.387
19.834	19.305	1076.704	832.741
20.848	19.293	1075.704	831.836
21.863	19.063	1074.607	829.804
22.877	18.988	1073.822	828.765
23.892	18.865	1073.709	828.010
24.907	18.894	1072.897	827.454
25.921	18.793	1071.345	825.696
26.936	18.844	1070.106	824.916
27.950	18.888	1068.668	823.940
28.965	18.983	1067.300	823.272
29.980	19.190	1066.168	823.316
30.994	19.144	1065.256	822.315
32.009	19.322	1064.128	822.220
33.023	19.285	1063.020	821.115
34.038	19.016	1062.113	819.063
35.053	18.906	1061.549	818.033
36.067	18.885	1060.349	816.937
37.082	18.897	1059.803	816.500
38.096	19.235	1059.085	817.478
39.111	19.214	1058.407	816.784
40.126	18.992	1056.740	814.372
41.140	18.657	1055.699	811.914
42.155	18.530	1054.103	810.015
43.169	18.419	1053.119	808.662
44.184	18.458	1052.231	808.095
45.199	18.427	1051.192	807.080
46.213	18.666	1050.467	807.574
47.228	18.941	1049.456	808.021
48.242	19.073	1048.328	807.698
49.257	18.958	1047.618	806.543
50.271	18.944	1047.072	805.985
51.286	19.070	1046.033	805.702
52.301	19.070	1044.767	804.657
53.315	18.738	1044.249	802.633
54.330	18.705	1043.067	801.499
55.344	18.700	1042.189	800.730
56.359	18.644	1041.295	799.715
57.374	18.590	1040.650	798.893
58.388	18.623	1039.216	797.879
59.403	18.529	1038.409	796.752
60.417	18.457	1037.912	795.966
61.432	18.537	1036.898	795.487
62.447	18.334	1036.109	793.869
63.461	18.389	1035.059	793.252
64.476	18.168	1034.832	791.985
65.490	18.278	1033.486	791.390
66.505	18.317	1032.850	791.017
67.520	18.343	1032.197	790.562
68.534	18.469	1031.126	790.255
69.549	18.199	1030.971	788.822
70.563	18.242	1029.456	787.790
71.578	18.176	1028.704	786.844
72.593	17.963	1028.081	785.319
73.607	18.076	1027.079	785.001
74.622	18.177	1026.426	784.897
75.636	18.119	1026.151	784.351
76.651	18.226	1025.220	784.058
77.666	18.173	1025.195	783.727
78.680	18.222	1023.828	782.840
79.695	18.338	1023.346	782.928
80.709	18.406	1023.402	783.216
81.724	18.422	1022.393	782.444
82.739	18.729	1021.436	783.044
83.753	18.813	1021.295	783.253
84.768	19.194	1020.514	784.319
85.782	19.394	1019.792	784.602
86.797	19.204	1018.923	783.001
87.812	19.021	1018.047	781.426
88.826	19.112	1016.737	780.767
89.841	19.137	1015.949	780.205
90.855	19.247	1015.124	780.000
91.870	19.322	1014.359	779.685
92.884	19.080	1013.615	777.950
93.899	19.276	1012.438	777.862
94.914	19.341	1011.466	777.338
95.928	19.351	1010.463	776.544
96.943	19.302	1009.086	775.197
97.957	19.095	1008.655	773.869
98.972	19.027	1008.071	773.047
99.987	19.147	1007.172	772.824
101.001	19.135	1005.901	771.726
102.016	19.180	1005.047	771.206
103.030	19.138	1004.674	770.665
104.045	19.228	1003.485	770.085
105.060	19.054	1002.602	768.564
106.074	18.658	1001.883	766.176
107.089	18.541	1000.238	764.331
108.103	18.388	999.881	763.306
109.118	18.591	998.204	762.860
110.133	18.340	997.551	761.181
111.147	18.454	996.942	761.152
112.162	18.590	995.876	760.878
113.176	18.676	995.205	760.679
114.191	18.626	994.835	760.106
115.206	18.598	993.315	758.754
116.220	18.511	992.766	757.882
117.235	18.591	991.914	757.517
118.249	18.518	990.714	756.212
119.264	18.369	990.197	755.095
120.279	18.355	989.251	754.245
121.293	18.205	988.576	753.003
122.308	18.127	987.848	752.039
123.322	18.134	986.505	750.981
124.337	18.167	984.608	749.615
125.352	18.050	984.418	748.891
126.366	18.149	983.526	748.581
127.381	18.106	982.605	747.623
128.395	18.137	981.710	747.015
129.410	18.247	980.651	746.619
130.424	18.301	979.985	746.283
131.439	18.488	979.543	746.695
132.454	18.602	978.854	746.599
133.468	18.551	977.771	745.487
134.483	18.583	976.978	744.957
135.497	18.464	976.462	743.979
136.512	18.510	975.648	743.494
137.527	18.463	974.654	742.466
138.541	18.542	974.191	742.387
139.556	18.789	973.349	742.750
140.570	18.745	973.149	742.342
141.585	19.124	972.083	743.099
142.600	19.149	971.036	742.339
143.614	19.165	970.579	741.992
144.629	19.276	969.672	741.714
145.643	19.027	968.839	739.941
146.658	18.817	967.604	738.029
147.673	18.875	966.335	737.246
148.687	18.705	965.788	736.031
149.702	18.609	965.051	734.993
150.716	18.634	963.772	734.063
151.731	18.669	963.130	733.658
152.746	18.763	962.470	733.492
153.760	18.710	962.102	732.920
154.775	18.888	961.784	733.372
155.789	18.964	960.878	732.940
156.804	19.032	959.432	732.064
157.819	19.006	959.733	732.119
158.833	19.118	958.976	731.953
159.848	19.296	958.438	732.232
160.862	19.148	956.985	730.432
161.877	18.692	955.986	727.668
162.892	18.583	954.858	726.284
163.906	18.636	953.733	725.587
164.921	18.606	952.963	724.814
165.935	18.723	952.095	724.582
166.950	18.977	950.957	724.723
167.964	18.640	950.677	723.026
168.979	18.688	949.420	722.206
169.994	18.633	948.456	721.177
171.008	18.889	947.518	721.476
172.023	19.093	947.044	721.909
173.037	19.190	946.539	721.864
174.052	19.054	945.554	720.482
175.067	18.663	944.961	718.331
176.081	18.551	944.249	717.257
177.096	18.678	943.600	717.231
178.110	18.661	942.832	716.511
179.125	18.764	942.322	716.489
180.140	18.737	942.408	716.381
181.154	18.965	942.427	717.280
182.169	19.125	941.568	717.230
183.183	19.202	940.842	716.935
184.198	19.277	940.262	716.743
185.213	19.219	939.408	715.786
186.227	19.327	938.952	715.823
187.242	19.351	938.695	715.663
188.256	19.594	937.514	715.707
189.271	19.400	937.024	714.465
190.286	19.049	935.725	711.963
191.300	18.617	934.623	709.273
192.315	18.628	933.662	708.528
193.329	18.525	933.501	707.917
194.344	18.638	933.576	708.379
195.359	18.950	932.227	708.577
196.373	18.951	931.802	708.197
197.388	19.357	931.436	709.528
198.402	19.345	931.492	709.458
199.417	19.400	931.012	709.254
200.432	19.696	930.391	709.936
201.446	19.719	929.841	709.545
202.461	19.680	929.636	709.166
203.475	19.830	928.428	708.799
204.490	19.437	927.547	706.454
205.504	19.284	926.687	705.112
206.519	19.193	926.069	704.207
207.534	19.247	925.235	703.732
208.548	19.198	924.689	703.050
209.563	19.256	924.195	702.850
210.577	19.285	923.176	702.131
211.592	19.511	923.053	702.895
212.607	19.659	921.908	702.567
213.621	19.491	921.623	701.604
214.636	19.610	920.325	701.036
215.650	19.474	919.847	700.057
216.665	19.703	919.185	700.419
217.680	19.848	918.376	700.329
218.694	19.716	917.812	699.302
219.709	19.767	917.155	698.946
220.723	19.663	916.479	697.951
221.738	19.572	916.008	697.161
222.753	19.746	914.585	696.717
223.767	19.688	914.953	696.705
224.782	19.796	914.588	696.800
225.796	19.857	914.161	696.658
226.811	19.744	913.068	695.308
227.826	19.501	912.547	693.871
228.840	19.555	911.590	693.299
229.855	19.587	910.769	692.744
230.869	19.592	909.964	692.091
231.884	19.463	909.462	691.130
232.899	19.389	908.825	690.288
233.913	19.353	907.618	689.169
234.928	19.264	906.901	688.206
235.942	19.325	906.446	688.042
236.957	19.250	906.451	687.688
237.972	19.218	905.601	686.855
238.986	19.346	905.040	686.877
240.001	19.490	904.189	686.743
241.015	19.430	904.248	686.489
242.030	19.550	903.121	686.049
243.045	19.581	902.486	685.630
244.059	19.479	902.105	684.875
245.074	19.738	901.530	685.406
246.088	19.664	901.466	685.001
247.103	19.827	900.598	684.926
248.117	20.015	900.274	685.363
249.132	20.296	899.989	686.198
250.147	20.407	899.261	686.020
251.161	20.539	898.547	685.935
252.176	20.572	897.913	685.522
253.190	20.573	897.402	685.074
254.205	20.555	896.753	684.448
255.220	20.537	896.296	683.969
256.234	20.528	895.304	683.112
257.249	20.538	895.129	682.960
258.263	20.562	893.842	682.012
259.278	20.515	893.442	681.463
260.293	20.666	893.126	681.752
261.307	20.779	892.179	681.412
262.322	20.628	892.154	680.740
263.336	20.676	891.199	680.140
264.351	20.602	890.679	679.394
265.366	20.746	889.580	679.056
266.380	20.695	889.033	678.381
267.395	20.590	888.356	677.395
268.409	20.522	887.263	676.238
269.424	20.457	886.629	675.442
270.439	20.376	885.847	674.472
271.453	20.369	885.018	673.754
272.468	20.217	884.909	673.020
273.482	20.335	884.497	673.108
274.497	20.244	883.839	672.194
275.512	20.378	883.352	672.281
276.526	20.340	882.918	671.745
277.541	20.519	882.008	671.685
278.555	20.619	882.078	672.065
279.570	20.826	881.279	672.195
280.585	20.796	880.696	671.576
281.599	20.716	879.011	669.923
282.614	20.530	878.385	668.673
283.628	20.329	878.279	667.761
284.643	20.573	877.367	667.944
285.657	20.495	876.725	667.095
286.672	20.524	876.468	666.953
287.687	20.553	875.716	666.435
288.701	20.606	874.938	665.985
289.716	20.631	874.545	665.723
290.730	20.677	874.159	665.545
291.745	20.784	873.575	665.453
292.760	20.762	873.140	664.977
293.774	20.790	872.414	664.474
294.789	20.799	871.783	663.969
295.803	20.513	871.294	662.446
296.818	20.598	870.137	661.832
297.833	20.730	869.232	661.586
298.847	20.652	868.841	660.933
299.862	20.684	868.201	660.512
300.876	20.863	867.873	660.881
301.891	20.840	867.913	660.765
302.906	21.148	867.041	661.212
303.920	21.199	866.832	661.185
304.935	21.241	866.481	661.019
305.949	20.982	865.666	659.359
306.964	20.934	864.670	658.362
307.979	20.950	864.113	657.939
308.993	21.101	863.568	658.035
310.008	21.030	863.010	657.283
311.022	21.126	862.431	657.147
312.037	20.894	861.166	655.253
313.052	20.641	860.891	654.035
314.066	20.605	860.400	653.468
315.081	20.682	859.810	653.251
316.095	20.636	859.437	652.738
317.110	20.581	858.648	651.874
318.125	20.696	857.869	651.655
319.139	20.623	857.265	650.865
320.154	20.706	856.903	650.845
321.168	20.734	856.872	650.869
322.183	20.704	855.992	650.030
323.197	20.704	856.127	650.075
324.212	20.774	855.204	649.577
325.227	20.854	854.574	649.341
326.241	20.728	854.014	648.386
327.256	20.658	853.512	647.686
328.270	20.741	852.513	647.179
329.285	20.755	851.737	646.588
330.300	20.694	851.756	646.316
331.314	20.653	851.317	645.775
332.329	21.109	850.646	646.898
333.343	21.171	850.186	646.721
334.358	21.124	849.596	646.041
335.373	21.069	849.574	645.767
336.387	21.258	849.575	646.408
337.402	21.233	849.346	646.085
338.416	21.392	849.135	646.453
339.431	21.458	848.826	646.408
340.446	21.641	848.346	646.658
341.460	21.580	847.708	645.891
342.475	21.708	847.305	645.998
343.489	21.663	847.119	645.632
344.504	21.659	846.845	645.351
345.519	21.804	846.230	645.362
346.533	21.647	845.488	644.158
347.548	21.363	844.866	642.586
348.562	21.300	844.011	641.648
349.577	21.009	843.541	640.165
350.592	21.014	842.661	639.457
351.606	21.109	841.557	638.912
352.621	21.332	840.704	639.023
353.635	21.317	840.388	638.673
354.650	21.152	840.341	637.975
355.665	21.324	839.804	638.140
356.679	21.448	838.871	637.827
357.694	21.472	838.436	637.529
358.708	21.408	837.569	636.581
359.723	21.446	837.124	636.323
360.738	21.556	836.474	636.170
361.752	21.535	835.946	635.636
362.767	21.714	835.646	636.005
363.781	21.935	834.961	636.228
364.796	21.979	834.939	636.315
365.810	21.932	835.094	636.204
366.825	22.079	834.056	635.891
367.840	22.004	833.489	635.130
368.854	21.835	832.663	633.832
369.869	21.875	832.509	633.806
370.883	21.893	832.070	633.480
371.898	21.907	831.940	633.376
372.913	22.079	830.969	633.201
373.927	21.994	830.475	632.459
374.942	22.022	830.187	632.286
375.956	22.138	830.002	632.507
376.971	22.298	829.163	632.389
377.986	22.343	828.720	632.155
379.000	22.256	828.340	631.497
380.015	22.307	828.074	631.422
381.029	22.147	827.272	630.180
382.044	22.175	826.924	629.959
383.059	22.277	826.097	629.639
384.073	22.193	825.498	628.826
385.088	21.908	824.583	627.054
386.102	21.792	824.032	626.168
387.117	21.874	823.233	625.796
388.132	21.852	823.024	625.503
389.146	21.939	822.498	625.360
390.161	22.145	822.245	625.845
391.175	22.150	821.724	625.410
392.190	21.980	821.386	624.493
393.205	21.836	820.595	623.325
394.219	21.900	820.093	623.117
395.234	21.717	819.757	622.158
396.248	21.665	819.269	621.544
397.263	21.477	818.710	620.400
398.278	21.566	818.214	620.283
399.292	21.595	817.535	619.818
400.307	21.593	817.371	619.630
401.321	21.751	816.748	619.664
402.336	21.853	816.617	619.869
403.350	21.905	815.889	619.444
404.365	22.046	816.195	620.119
405.380	22.313	815.309	620.333
406.394	22.444	814.834	620.378
407.409	22.346	814.591	619.795
408.423	22.424	814.175	619.696
409.438	22.373	814.103	619.409
410.453	22.584	813.609	619.718
411.467	22.663	813.014	619.490
412.482	22.809	812.674	619.690
413.496	22.769	812.465	619.335
414.511	22.607	811.862	618.249
415.526	22.560	811.494	617.753
416.540	22.439	810.896	616.817
417.555	22.533	810.515	616.802
418.569	22.558	810.246	616.630
419.584	22.634	809.479	616.258
420.599	22.696	809.159	616.176
421.613	163.827	1371.088	1794.579
422.628	142.647	1452.956	1794.691
