DTS Sentinel unit serial number:	SN413079Multiplexer serial number:	ORYXHardware model number:	OX4-SRSoftware version number:	ORYX F/W v4.00 Oryx Data Collector v3.7.2.0data status	okinstallation	princeton_trtdifferential loss correction	single-endedforward channel	channel 1reverse channel	N/Adate	2019/09/12time	18:06:34forward acquisition time	15.00reverse acquisition time	0.00gamma	496.2192k internal	0.2316k external	0.2316temperature offset calibration	1.0108default loss term (dB/km)	0.3790temperature slope calibration	1.0000multiplexer offset coefficient	1.0000multiplexer slope coefficient	1.0000fibre end	0.00T internal ref (°C)	33.69T ext. ref 1 (°C)	2.92T ext. ref 2 (°C)	28.17length (m)	temperature (°C)	Stokes	anti-Stokes-747.200	-18.037	0.693	-0.440
-746.185	-200.000	0.127	-0.639
-745.171	-110.230	-1.152	-0.243
-744.156	-137.654	-0.576	-0.066
-743.142	26.836	-0.203	-0.173
-742.127	69.125	0.715	-0.744
-741.112	-200.000	0.106	1.213
-740.098	-200.000	-0.074	-0.793
-739.083	547.610	0.059	0.142
-738.069	-200.000	-0.029	-0.990
-737.054	43.483	0.216	0.200
-736.039	51.189	-0.353	-0.339
-735.025	-50.189	0.422	0.202
-734.010	386.021	-0.285	-0.596
-732.996	192.371	0.616	-0.942
-731.981	800.000	-0.150	-0.559
-730.966	800.000	0.111	0.329
-729.952	231.283	-0.516	-0.856
-728.937	26.347	-0.555	-0.470
-727.923	-29.344	0.102	-0.059
-726.908	228.426	0.161	-0.265
-725.894	-200.000	-0.079	-1.398
-724.879	-82.765	-0.324	-0.106
-723.864	-70.520	0.276	0.106
-722.850	-96.739	0.767	0.204
-721.835	-3.522	-0.153	-0.107
-720.821	361.200	-0.363	-0.736
-719.806	-200.000	-0.048	-0.618
-718.791	527.400	0.249	-0.593
-717.777	-200.000	-0.032	0.866
-716.762	-24.508	-0.359	0.216
-715.748	-109.175	-0.709	-0.152
-714.733	134.464	0.130	0.171
-713.718	16.415	-0.392	-0.313
-712.704	4.670	0.234	-0.174
-711.689	105.600	0.466	0.557
-710.675	64.530	0.466	-0.475
-709.660	-200.000	-0.033	-0.185
-708.645	-160.396	-0.646	0.035
-707.631	429.011	0.481	-1.051
-706.616	-114.065	0.228	0.045
-705.602	-200.000	-0.057	-0.895
-704.587	-105.650	-0.503	0.115
-703.572	-200.000	0.088	-1.066
-702.558	-110.325	-0.729	-0.153
-701.543	-114.671	-0.592	0.115
-700.529	-200.000	0.067	-0.419
-699.514	-1.183	0.390	0.279
-698.499	90.907	0.382	-0.433
-697.485	-200.000	0.080	-0.429
-696.470	800.000	0.054	0.200
-695.456	-123.564	0.530	-0.085
-694.441	79.162	-0.059	-0.064
-693.426	88.836	0.603	0.678
-692.412	117.743	-0.347	-0.432
-691.397	86.824	-0.259	0.289
-690.383	168.004	0.320	0.460
-689.368	45.830	0.139	-0.130
-688.354	709.371	0.300	0.801
-687.339	-171.085	0.583	0.020
-686.324	-162.915	-0.092	0.005
-685.310	60.141	0.182	0.182
-684.295	53.227	-0.424	-0.410
-683.281	110.960	-0.442	-0.538
-682.266	-150.255	0.545	0.043
-681.251	-118.791	-1.025	-0.182
-680.237	108.140	-0.266	0.321
-679.222	-60.083	-0.098	-0.042
-678.208	-200.000	-0.072	0.663
-677.193	274.453	0.368	0.658
-676.178	-13.584	-0.458	0.299
-675.164	-70.511	-0.448	0.171
-674.149	281.487	-0.434	-0.785
-673.135	800.000	0.194	-0.660
-672.120	784.862	-0.048	0.132
-671.105	146.939	-0.152	-0.206
-670.091	-86.187	-0.328	0.102
-669.076	666.839	0.178	-0.464
-668.062	-78.890	0.161	0.055
-667.047	173.005	-0.462	0.672
-666.032	544.671	0.215	-0.519
-665.018	-200.000	0.088	-0.513
-664.003	-54.658	-0.539	-0.246
-662.989	93.854	0.074	0.085
-661.974	51.516	0.742	-0.712
-660.959	-32.066	0.265	0.150
-659.945	252.702	0.087	0.149
-658.930	288.327	-0.387	-0.707
-657.916	-74.398	-0.614	-0.224
-656.901	362.601	-0.324	-0.657
-655.886	309.142	-0.246	-0.464
-654.872	-87.446	-0.729	0.223
-653.857	-200.000	-0.065	0.711
-652.843	214.369	0.413	0.661
-651.828	-200.000	0.032	-0.668
-650.814	-3.987	-0.457	0.320
-649.799	-108.066	-0.170	-0.037
-648.784	300.848	0.298	-0.555
-647.770	-41.662	-0.368	0.191
-646.755	-98.495	-0.534	-0.138
-645.741	34.843	-0.333	-0.294
-644.726	14.397	-0.463	0.365
-643.711	800.000	0.156	-0.646
-642.697	-200.000	-0.094	-1.132
-641.682	-158.901	-0.530	-0.030
-640.668	-52.407	-0.244	-0.114
-639.653	800.000	0.243	0.807
-638.638	-194.361	0.335	-0.003
-637.624	-31.535	-0.608	-0.345
-636.609	69.036	0.533	-0.552
-635.595	20.921	0.816	-0.667
-634.580	-200.000	0.104	0.813
-633.565	-59.886	-0.108	-0.046
-632.551	-23.655	-0.318	-0.193
-631.536	-160.692	0.103	0.006
-630.522	-200.000	-0.024	-0.346
-629.507	-72.067	0.544	0.204
-628.492	-13.575	0.803	-0.524
-627.478	-77.767	0.739	-0.257
-626.463	-73.952	-0.449	0.164
-625.449	246.444	-0.071	-0.120
-624.434	-69.084	0.730	-0.283
-623.419	-114.563	-0.528	0.102
-622.405	-106.887	0.307	-0.069
-621.390	174.032	0.296	-0.431
-620.376	-38.043	-0.385	0.206
-619.361	-200.000	-0.028	-0.518
-618.346	2.027	-0.302	-0.220
-617.332	800.000	0.119	-0.447
-616.317	-6.820	0.729	-0.500
-615.303	-37.294	-0.112	0.060
-614.288	800.000	0.234	0.933
-613.273	800.000	-0.120	-0.427
-612.259	-200.000	-0.013	0.729
-611.244	-56.017	-0.840	0.378
-610.230	800.000	0.151	-0.599
-609.215	-23.988	-0.903	0.544
-608.201	800.000	0.057	-0.172
-607.186	-50.040	1.012	-0.483
-606.171	-200.000	0.056	0.246
-605.157	800.000	-0.350	1.406
-604.142	261.388	0.389	-0.679
-603.128	763.357	0.310	-0.847
-602.113	-73.897	-1.029	0.376
-601.098	-37.950	0.815	0.436
-600.084	-134.130	0.773	-0.096
-599.069	-200.000	0.038	0.355
-598.055	-200.000	0.067	0.841
-597.040	200.940	-0.298	-0.462
-596.025	-104.933	0.309	0.071
-595.011	-200.000	-0.089	0.423
-593.996	427.093	0.430	0.934
-592.982	-52.899	0.560	-0.259
-591.967	-144.790	0.209	-0.019
-590.952	800.000	-0.224	-0.716
-589.938	152.283	0.103	-0.142
-588.923	-117.430	-0.113	-0.021
-587.909	800.000	-0.304	1.056
-586.894	387.717	0.071	0.148
-585.879	12.903	0.132	-0.103
-584.865	-5.871	-0.303	-0.209
-583.850	375.042	0.302	-0.620
-582.836	-89.522	-0.888	-0.263
-581.821	-10.262	-0.407	0.272
-580.806	-125.091	0.608	0.094
-579.792	-159.322	-0.435	-0.025
-578.777	-200.000	0.024	-0.673
-577.763	-122.744	0.521	-0.085
-576.748	-200.000	-0.050	-0.552
-575.733	-122.231	-0.302	-0.050
-574.719	-200.000	0.013	0.604
-573.704	144.180	-0.231	-0.311
-572.690	-68.823	0.720	-0.280
-571.675	357.530	0.105	0.211
-570.661	2.007	0.335	0.243
-569.646	281.592	-0.414	0.747
-568.631	152.851	-0.087	-0.119
-567.617	-40.702	-0.291	-0.152
-566.602	-146.314	-0.316	-0.028
-565.588	648.992	0.158	-0.407
-564.573	-100.835	-0.165	0.041
-563.558	-113.614	0.255	0.050
-562.544	-95.343	-0.999	0.270
-561.529	-1.750	0.659	0.467
-560.515	279.413	-0.233	-0.418
-559.500	418.437	0.209	0.449
-558.485	-170.372	-0.371	0.013
-557.471	65.487	-0.275	-0.280
-556.456	767.567	-0.237	0.648
-555.442	-67.363	-0.739	0.292
-554.427	196.281	0.110	-0.168
-553.412	170.688	0.284	0.409
-552.398	-116.989	0.606	-0.111
-551.383	-84.463	0.632	-0.201
-550.369	800.000	0.062	-0.252
-549.354	-61.944	-0.538	-0.226
-548.339	-49.036	0.309	0.149
-547.325	-200.000	0.065	0.806
-546.310	38.151	-0.515	0.461
-545.296	222.068	0.690	-1.116
-544.281	310.810	0.230	0.432
-543.266	-58.077	0.265	0.116
-542.252	-43.240	-0.337	0.171
-541.237	-41.975	-0.666	-0.343
-540.223	576.302	0.318	0.781
-539.208	433.486	-0.139	0.303
-538.193	671.264	0.106	-0.277
-537.179	800.000	0.182	0.745
-536.164	-19.481	0.554	-0.345
-535.150	-12.051	-0.650	0.428
-534.135	-200.000	-0.060	-0.465
-533.121	-175.557	0.856	0.023
-532.106	563.190	-0.112	0.273
-531.091	-172.950	0.503	0.016
-530.077	-118.093	0.270	0.048
-529.062	189.094	0.145	0.218
-528.048	-7.408	0.605	-0.412
-527.033	-200.000	-0.022	0.126
-526.018	428.631	0.316	0.687
-525.004	47.083	-0.137	-0.128
-523.989	22.222	-0.745	-0.611
-522.975	243.262	-0.507	-0.853
-521.960	-85.259	0.487	0.153
-520.945	-200.000	0.047	-0.339
-519.931	-200.000	-0.095	-1.366
-518.916	-21.961	0.024	-0.015
-517.902	301.073	-0.228	-0.424
-516.887	-11.638	-0.261	-0.172
-515.872	-160.714	-0.099	-0.005
-514.858	56.473	-0.482	0.471
-513.843	800.000	0.223	0.795
-512.829	-200.000	-0.003	0.605
-511.814	-118.372	0.721	0.129
-510.799	413.364	0.368	-0.785
-509.785	-132.387	-1.111	-0.144
-508.770	50.971	0.262	-0.249
-507.756	-128.472	0.443	0.063
-506.741	-94.997	0.662	0.180
-505.726	425.147	-0.187	0.404
-504.712	44.798	-0.328	-0.303
-503.697	-18.084	-0.412	-0.259
-502.683	19.994	0.061	-0.050
-501.668	-54.446	-0.495	0.225
-500.653	-200.000	-0.021	0.125
-499.639	800.000	-0.257	0.782
-498.624	17.560	-0.290	0.231
-497.610	121.110	0.209	-0.261
-496.595	800.000	-0.098	0.301
-495.581	-132.896	-0.352	0.045
-494.566	800.000	-0.207	-0.719
-493.551	-75.654	0.303	-0.108
-492.537	-2.024	-0.622	0.438
-491.522	-63.233	-0.626	0.259
-490.508	-97.057	0.303	0.080
-489.493	-200.000	0.065	0.431
-488.478	-35.041	-0.431	0.236
-487.464	-102.612	-0.106	-0.025
-486.449	36.455	-0.149	0.132
-485.435	162.158	0.190	0.267
-484.420	-200.000	0.158	-0.815
-483.405	800.000	-0.216	-0.818
-482.391	-69.849	0.199	0.076
-481.376	-200.000	0.080	0.989
-480.362	94.805	-0.330	-0.377
-479.347	104.651	0.360	-0.425
-478.332	-159.023	-0.313	0.018
-477.318	800.000	0.217	-0.615
-476.303	-163.893	0.332	-0.016
-475.289	-129.741	-0.448	-0.062
-474.274	536.600	0.109	-0.260
-473.259	-200.000	-0.012	-0.398
-472.245	-12.077	0.751	-0.493
-471.230	-88.197	-0.313	0.094
-470.216	82.057	0.654	-0.711
-469.201	-110.762	-0.425	-0.088
-468.186	173.963	0.607	0.879
-467.172	751.843	-0.458	1.240
-466.157	3.911	0.229	0.168
-465.143	-67.477	0.315	0.124
-464.128	-200.000	-0.040	0.269
-463.113	22.156	0.381	0.311
-462.099	-107.797	0.238	-0.052
-461.084	800.000	-0.143	-0.529
-460.070	800.000	-0.098	0.310
-459.055	-33.859	-0.442	0.244
-458.040	69.029	0.566	0.583
-457.026	444.092	0.195	0.428
-456.011	486.389	-0.162	-0.369
-454.997	88.698	-0.420	0.468
-453.982	5.788	-0.515	-0.381
-452.968	225.192	0.100	0.162
-451.953	-85.527	-0.321	0.100
-450.938	-200.000	-0.038	-0.708
-449.924	498.237	-0.136	-0.313
-448.909	-43.971	0.634	0.319
-447.895	-138.900	0.599	-0.065
-446.880	52.380	0.620	-0.592
-445.865	110.428	-0.571	0.687
-444.851	0.603	-0.688	-0.493
-443.836	30.568	0.487	0.417
-442.822	-75.042	-0.737	0.264
-441.807	-123.011	-0.034	-0.006
-440.792	86.708	0.383	0.423
-439.778	427.721	0.036	-0.078
-438.763	-200.000	-0.154	-1.179
-437.749	-180.607	-0.766	0.016
-436.734	193.854	-0.348	-0.527
-435.719	-200.000	-0.021	0.192
-434.705	800.000	0.101	0.386
-433.690	465.327	-0.283	0.634
-432.676	-146.947	0.838	-0.072
-431.661	336.889	-0.036	-0.070
-430.646	-51.280	0.961	0.450
-429.632	-53.770	-0.297	0.136
-428.617	-17.049	-0.519	0.328
-427.603	577.637	0.032	-0.079
-426.588	-200.000	-0.105	-0.692
-425.573	-47.430	-0.629	-0.306
-424.559	-128.471	-0.276	0.039
-423.544	-176.019	0.359	-0.010
-422.530	-95.119	0.970	0.262
-421.515	18.088	-0.216	-0.172
-420.500	472.098	-0.230	0.518
-419.486	300.649	0.190	-0.350
-418.471	388.034	-0.118	-0.245
-417.457	92.236	-0.164	0.185
-416.442	-129.606	-0.074	-0.010
-415.428	655.233	-0.278	0.713
-414.413	-114.919	0.169	-0.032
-413.398	-200.000	-0.071	0.571
-412.384	800.000	0.249	-0.880
-411.369	7.648	0.598	0.448
-410.355	-94.604	0.453	-0.123
-409.340	82.640	-0.260	0.283
-408.325	-200.000	0.000	0.196
-407.311	-200.000	0.110	-0.595
-406.296	-166.158	-0.645	0.027
-405.282	231.889	0.353	0.579
-404.267	-200.000	0.118	-0.885
-403.252	-9.282	-0.225	-0.150
-402.238	312.797	-0.291	-0.547
-401.223	-200.000	0.000	0.369
-400.209	800.000	0.110	-0.337
-399.194	-2.363	-0.506	0.355
-398.179	197.249	-0.314	0.480
-397.165	-138.427	0.739	0.081
-396.150	-111.700	-0.212	-0.043
-395.136	80.916	-0.452	-0.487
-394.121	-60.635	-0.552	0.234
-393.106	10.296	-1.317	1.001
-392.092	149.453	0.069	0.093
-391.077	-200.000	0.014	0.685
-390.063	-68.767	-1.251	0.483
-389.048	-200.000	-0.029	-0.829
-388.033	-200.000	0.057	-0.342
-387.019	-68.660	0.976	0.377
-386.004	-63.644	-0.523	-0.215
-384.990	800.000	0.030	-0.115
-383.975	-21.739	-0.501	0.305
-382.960	-138.749	-0.447	-0.049
-381.946	143.140	-0.351	-0.466
-380.931	-177.227	0.384	-0.010
-379.917	-46.607	-0.416	0.204
-378.902	-200.000	0.021	0.264
-377.888	-15.742	0.781	0.497
-376.873	-166.712	-0.451	0.019
-375.858	175.572	-0.390	-0.564
-374.844	105.731	0.623	0.736
-373.829	-52.703	-0.655	0.302
-372.815	-200.000	0.004	-0.552
-371.800	-92.068	0.762	0.215
-370.785	203.697	-0.436	-0.674
-369.771	-56.842	-0.241	-0.106
-368.756	-104.617	-0.299	0.069
-367.742	342.071	-0.242	-0.473
-366.727	-39.805	-0.549	-0.286
-365.712	800.000	0.164	0.673
-364.698	-83.450	0.393	0.126
-363.683	170.089	-0.250	0.358
-362.669	-200.000	-0.051	-0.773
-361.654	-52.147	0.465	-0.216
-360.639	-93.542	0.561	-0.155
-359.625	26.864	0.775	-0.648
-358.610	514.283	-0.345	0.803
-357.596	299.212	0.425	-0.780
-356.581	4.586	-0.415	0.304
-355.566	84.898	-0.635	0.695
-354.552	-113.067	-0.329	0.065
-353.537	-200.000	-0.083	0.675
-352.523	-188.555	0.094	-0.001
-351.508	-57.920	0.265	0.115
-350.493	-183.712	0.782	0.013
-349.479	-15.346	-0.179	0.114
-348.464	800.000	-0.161	0.524
-347.450	800.000	0.163	-0.653
-346.435	214.085	-0.472	-0.745
-345.420	565.985	0.123	-0.297
-344.406	276.349	0.072	0.127
-343.391	-171.970	0.159	-0.005
-342.377	27.663	-0.435	0.365
-341.362	268.679	0.322	0.564
-340.348	278.030	0.304	-0.541
-339.333	688.798	-0.323	0.843
-338.318	488.378	0.205	-0.467
-337.304	-124.597	-0.222	-0.034
-336.289	74.173	-0.500	0.524
-335.275	-200.000	-0.033	-0.286
-334.260	-128.356	-0.705	-0.100
-333.245	-119.905	-0.735	0.126
-332.231	44.385	0.303	0.277
-331.216	32.645	-0.708	-0.611
-330.202	800.000	0.042	0.176
-329.187	-43.799	0.590	0.296
-328.172	368.522	0.362	-0.729
-327.158	-82.555	-0.100	-0.032
-326.143	77.830	-0.497	-0.528
-325.129	-200.000	-0.117	0.611
-324.114	123.062	-0.492	-0.615
-323.099	0.049	0.140	0.099
-322.085	84.896	-0.789	-0.862
-321.070	-158.686	-0.684	0.039
-320.056	800.000	0.146	0.508
-319.041	-200.000	0.009	0.388
-318.026	347.806	-0.602	1.182
-317.012	240.325	-0.184	0.305
-315.997	47.178	0.212	0.196
-314.983	-16.122	0.193	0.122
-313.968	-94.567	0.874	0.237
-312.953	-19.561	0.501	0.309
-311.939	800.000	0.099	-0.295
-310.924	-200.000	-0.060	0.620
-309.910	-200.000	0.040	-0.381
-308.895	33.053	-0.678	0.585
-307.880	800.000	-0.080	0.331
-306.866	17.366	0.364	-0.288
-305.851	-12.667	0.528	-0.343
-304.837	57.467	0.248	0.241
-303.822	800.000	-0.176	0.520
-302.807	-200.000	0.029	0.265
-301.793	-200.000	-0.042	-0.207
-300.778	1.758	-0.215	-0.154
-299.764	405.141	-0.272	-0.571
-298.749	-32.513	0.344	0.191
-297.735	89.633	-0.674	0.749
-296.720	-159.254	-0.244	0.014
-295.705	-15.695	0.423	0.268
-294.691	-121.934	-0.207	-0.034
-293.676	800.000	-0.094	-0.358
-292.662	57.824	-0.183	-0.178
-291.647	160.389	0.364	0.505
-290.632	147.860	-0.563	-0.755
-289.618	-200.000	0.130	1.052
-288.603	800.000	-0.073	-0.244
-287.589	-62.634	-0.277	0.114
-286.574	800.000	-0.078	-0.330
-285.559	-85.182	0.267	-0.083
-284.545	-91.569	-0.722	0.205
-283.530	-101.417	1.236	-0.300
-282.516	-29.346	-0.842	0.480
-281.501	71.577	0.299	0.309
-280.486	800.000	0.249	0.816
-279.472	81.400	0.582	-0.625
-278.457	-200.000	0.057	0.420
-277.443	-101.594	-0.559	0.135
-276.428	-200.000	-0.091	-0.532
-275.413	76.163	0.221	0.232
-274.399	-96.254	0.972	0.256
-273.384	-98.621	0.318	0.081
-272.370	-80.586	-0.219	0.073
-271.355	136.693	0.220	-0.285
-270.340	227.294	0.314	-0.507
-269.326	612.108	-0.250	-0.622
-268.311	-94.109	0.653	0.178
-267.297	-177.275	0.712	-0.018
-266.282	-10.974	-0.581	0.381
-265.267	-31.747	0.292	0.163
-264.253	-200.000	0.049	0.449
-263.238	800.000	0.193	-0.565
-262.224	-85.996	0.340	-0.105
-261.209	-50.385	-0.625	0.293
-260.195	61.284	-0.165	-0.163
-259.180	-31.873	-0.946	-0.527
-258.165	156.660	0.198	0.272
-257.151	-22.773	0.268	-0.161
-256.136	-40.781	0.303	-0.156
-255.122	-163.106	-0.380	0.018
-254.107	-107.411	-0.519	-0.113
-253.092	-180.370	-0.325	-0.007
-252.078	-19.676	0.800	-0.492
-251.063	289.037	0.128	0.231
-250.049	205.148	0.105	-0.163
-249.034	-183.169	0.809	-0.014
-248.019	-200.000	-0.013	-0.244
-247.005	-101.193	-0.531	0.129
-245.990	292.406	0.197	0.356
-244.976	-52.253	-0.296	0.136
-243.961	-10.771	0.484	0.318
-242.946	162.084	0.290	0.404
-241.932	83.393	0.342	-0.370
-240.917	-133.881	0.282	0.035
-239.903	62.298	0.479	0.475
-238.888	-113.728	0.586	-0.113
-237.873	800.000	0.155	-0.511
-236.859	-30.595	-0.763	-0.429
-235.844	800.000	-0.257	1.108
-234.830	277.513	-0.196	-0.346
-233.815	-200.000	0.002	-0.313
-232.800	-153.144	1.308	0.091
-231.786	-171.366	0.793	0.026
-230.771	45.198	-0.385	0.352
-229.757	-10.761	-0.461	0.303
-228.742	800.000	-0.100	-0.432
-227.727	45.468	-0.369	0.338
-226.713	800.000	-0.313	-1.277
-225.698	-200.000	-0.006	0.272
-224.684	29.020	0.637	0.536
-223.669	800.000	-0.066	-0.193
-222.655	266.280	-0.143	0.248
-221.640	21.127	-0.245	0.197
-220.625	104.138	-0.506	0.590
-219.611	-89.070	0.681	-0.200
-218.596	-200.000	-0.170	-0.785
-217.582	-200.000	0.150	-0.886
-216.567	-200.000	0.038	-0.454
-215.552	-108.632	0.656	0.140
-214.538	12.579	-0.303	0.232
-213.523	-62.539	0.384	0.158
-212.509	82.188	-0.089	0.095
-211.494	800.000	-0.102	0.285
-210.479	-200.000	0.116	0.505
-209.465	-130.582	-0.086	0.012
-208.450	-99.680	0.530	-0.132
-207.436	-74.835	0.302	-0.107
-206.421	-200.000	-0.108	0.480
-205.406	-200.000	0.014	0.668
-204.392	-200.000	0.000	0.044
-203.377	-82.051	-0.303	-0.098
-202.363	99.014	0.375	0.429
-201.348	-49.791	0.285	0.134
-200.333	-45.452	-0.357	0.175
-199.319	20.913	-0.458	0.368
-198.304	800.000	-0.118	-0.505
-197.290	124.607	1.092	1.363
-196.275	12.799	-0.497	-0.381
-195.260	-200.000	-0.069	-0.526
-194.246	-21.215	-0.209	0.127
-193.231	-11.449	0.626	-0.409
-192.217	-70.371	-0.570	-0.214
-191.202	8.979	-0.245	-0.184
-190.187	-12.798	0.354	0.229
-189.173	-115.631	0.649	-0.121
-188.158	-157.595	-0.161	0.010
-187.144	-82.564	-0.692	0.222
-186.129	800.000	0.415	-1.247
-185.114	111.905	0.494	-0.592
-184.100	93.715	-0.315	-0.353
-183.085	800.000	-0.151	0.444
-182.071	-5.973	0.077	0.052
-181.056	512.963	0.141	0.327
-180.042	142.807	0.362	0.477
-179.027	185.849	0.175	0.258
-178.012	214.599	-0.559	0.878
-176.998	152.945	0.266	-0.361
-175.983	47.581	-0.083	0.077
-174.969	-107.128	0.415	0.091
-173.954	-181.215	0.416	0.008
-172.939	168.022	0.217	-0.305
-171.925	469.227	-0.222	-0.493
-170.910	559.351	0.227	-0.542
-169.896	-200.000	0.026	-0.640
-168.881	-16.313	0.529	0.333
-167.866	283.293	-0.202	-0.360
-166.852	126.438	-0.411	-0.515
-165.837	-36.233	0.426	-0.228
-164.823	800.000	0.165	-0.605
-163.808	-128.462	-0.375	0.053
-162.793	-152.953	-0.542	-0.038
-161.779	-196.333	0.188	-0.001
-160.764	-193.198	0.352	0.003
-159.750	181.151	-0.193	-0.281
-158.735	-200.000	0.053	-0.236
-157.720	-200.000	-0.070	-0.417
-156.706	-44.108	0.268	0.133
-155.691	-109.484	-0.767	0.160
-154.677	-25.272	-0.286	-0.167
-153.662	-200.000	-0.123	-0.616
-152.647	-200.000	-0.098	-1.131
-151.633	-56.260	0.663	-0.292
-150.618	-68.373	-1.368	0.526
-149.604	42.881	-0.146	-0.132
-148.589	-103.541	-0.611	0.142
-147.574	65.883	0.152	-0.153
-146.560	-200.000	-0.036	-0.616
-145.545	-12.087	0.683	0.443
-144.531	-28.775	0.290	-0.165
-143.516	-1.122	0.161	0.113
-142.502	-56.128	0.664	-0.293
-141.487	287.773	0.443	0.794
-140.472	155.325	-0.464	0.631
-139.458	-179.667	-0.231	-0.005
-138.443	-10.658	-0.433	0.284
-137.429	9.655	0.787	-0.590
-136.414	-195.047	0.374	-0.003
-135.399	321.014	-0.203	0.383
-134.385	-200.000	-0.012	0.818
-133.370	-118.396	0.725	-0.127
-132.356	-200.000	0.012	-0.055
-131.341	-31.530	-0.328	-0.182
-130.326	-200.000	-0.053	0.554
-129.312	665.269	0.181	0.461
-128.297	-1.014	0.435	-0.304
-127.283	-200.000	0.036	0.364
-126.268	203.521	-0.185	-0.283
-125.253	111.924	-0.142	0.170
-124.239	31.321	-0.130	-0.110
-123.224	-200.000	0.048	-0.230
-122.210	97.350	-0.560	-0.636
-121.195	-200.000	0.026	0.409
-120.180	304.931	0.270	0.496
-119.166	-100.800	0.453	-0.110
-118.151	643.326	-0.131	0.330
-117.137	-200.000	-0.069	0.567
-116.122	-104.545	-0.449	-0.103
-115.107	-200.000	-0.126	0.797
-114.093	-77.175	0.429	0.148
-113.078	-106.241	0.475	-0.105
-112.064	156.945	-0.259	-0.354
-111.049	9.127	-0.160	-0.119
-110.034	57.891	-0.309	-0.299
-109.020	4.917	0.314	-0.228
-108.005	82.039	0.274	0.293
-106.991	31.296	0.496	0.420
-105.976	88.182	-0.482	-0.529
-104.962	20.575	-0.241	-0.193
-103.947	59.550	0.113	-0.110
-102.932	137.727	0.290	0.376
-101.918	-200.000	-0.043	0.454
-100.903	478.521	0.294	-0.658
-99.889	-52.095	0.183	-0.084
-98.874	800.000	0.247	-0.739
-97.859	-200.000	-0.018	0.112
-96.845	-71.009	-0.618	-0.230
-95.830	-36.275	-0.808	-0.430
-94.816	-89.257	-0.045	-0.013
-93.801	-200.000	0.076	-0.636
-92.786	-119.120	-0.368	0.064
-91.772	281.345	-0.274	-0.485
-90.757	479.636	-0.126	0.283
-89.743	171.057	0.222	0.314
-88.728	-118.382	0.174	0.030
-87.713	118.597	-0.785	-0.957
-86.699	-40.295	-0.729	0.374
-85.684	32.999	0.599	0.513
-84.670	800.000	0.034	-0.114
-83.655	-163.803	-0.687	-0.032
-82.640	-200.000	-0.078	-0.447
-81.626	138.722	0.306	0.396
-80.611	-85.778	-0.437	-0.134
-79.597	252.179	-0.348	-0.585
-78.582	191.948	-0.129	-0.191
-77.567	-200.000	0.161	0.838
-76.553	232.659	-0.132	-0.214
-75.538	-118.669	-0.558	0.097
-74.524	-195.682	-0.632	0.005
-73.509	-32.791	0.482	0.264
-72.494	-85.272	-0.370	-0.114
-71.480	119.149	0.474	0.578
-70.465	266.165	0.584	1.006
-69.451	-5.279	0.315	-0.213
-68.436	507.673	0.228	-0.522
-67.422	-200.000	-0.045	-0.479
-66.407	131.431	0.614	0.779
-65.392	-200.000	0.020	-0.397
-64.378	-116.590	0.258	-0.047
-63.363	-93.551	0.438	-0.119
-62.349	-45.516	0.288	-0.141
-61.334	228.867	-1.015	-1.632
-60.319	-21.102	1.092	0.659
-59.305	800.000	-0.286	-0.912
-58.290	-200.000	-0.096	1.074
-57.276	391.219	1.110	2.273
-56.261	-200.000	96.063	572.836
-55.246	626.736	1378.404	3431.273
-54.232	196.980	2553.167	3839.070
-53.217	117.243	2137.125	2590.205
-52.203	44.901	1601.700	1453.814
-51.188	37.244	1341.617	1171.717
-50.173	34.033	1299.073	1115.718
-49.159	57.353	1348.424	1297.869
-48.144	58.718	1365.257	1322.156
-47.130	37.286	1322.099	1154.738
-46.115	33.887	1305.169	1119.914
-45.100	33.499	1300.604	1113.669
-44.086	33.409	1298.482	1111.280
-43.071	33.424	1296.593	1109.706
-42.057	33.319	1294.319	1107.106
-41.042	33.425	1292.807	1106.389
-40.027	33.660	1291.145	1106.293
-39.013	33.787	1288.906	1105.071
-37.998	33.597	1287.082	1102.357
-36.984	33.534	1284.643	1099.856
-35.969	33.667	1283.780	1099.848
-34.954	33.655	1281.639	1097.899
-33.940	33.573	1281.166	1096.976
-32.925	33.686	1280.381	1096.915
-31.911	33.740	1278.070	1095.201
-30.896	33.847	1276.299	1094.256
-29.881	33.906	1274.698	1093.179
-28.867	34.168	1272.824	1093.036
-27.852	33.865	1273.128	1091.514
-26.838	33.843	1271.214	1089.700
-25.823	33.909	1269.018	1088.157
-24.809	33.699	1268.722	1086.656
-23.794	33.707	1266.977	1085.164
-22.779	33.590	1266.392	1083.950
-21.765	33.783	1264.522	1083.406
-20.750	34.000	1262.408	1082.789
-19.736	33.785	1260.315	1079.730
-18.721	33.551	1260.635	1078.629
-17.706	33.530	1260.144	1078.045
-16.692	33.529	1258.420	1076.524
-15.677	33.619	1257.981	1076.614
-14.663	33.863	1256.797	1076.946
-13.648	33.691	1255.061	1074.436
-12.633	33.586	1254.966	1073.718
-11.619	33.576	1253.478	1072.346
-10.604	33.637	1253.309	1072.504
-9.590	33.531	1252.474	1071.149
-8.575	33.521	1251.231	1069.989
-7.560	33.244	1251.906	1068.957
-6.546	33.728	1249.344	1069.458
-5.531	33.652	1248.895	1068.599
-4.517	33.349	1247.563	1065.714
-3.502	33.534	1247.089	1066.308
-2.487	33.516	1245.833	1065.092
-1.473	33.278	1242.289	1060.684
-0.458	31.918	1227.243	1040.259
0.556	29.092	1209.453	1000.408
1.571	25.297	1212.393	982.033
2.586	24.103	1227.841	987.839
3.600	23.540	1217.145	976.053
4.615	17.393	1144.999	886.195
5.629	7.587	1068.839	779.275
6.644	3.272	1048.367	743.478
7.659	2.710	1046.455	739.350
8.673	2.929	1044.199	738.744
9.688	2.770	1042.094	736.428
10.702	3.193	1042.244	738.497
11.717	8.985	1050.361	772.128
12.731	19.241	1063.986	831.842
13.746	24.833	1070.715	864.115
14.761	26.522	1072.713	873.815
15.775	26.530	1072.515	873.615
16.790	26.071	1071.219	870.266
17.804	25.904	1072.047	870.056
18.819	26.036	1071.476	870.151
19.834	26.401	1069.699	870.389
20.848	26.430	1069.474	870.270
21.863	26.517	1069.767	870.850
22.877	26.141	1069.347	868.622
23.892	26.532	1067.985	869.320
24.907	26.336	1068.244	868.509
25.921	26.264	1066.341	866.541
26.936	26.379	1065.327	866.190
27.950	26.502	1062.518	864.420
28.965	26.217	1062.076	862.621
29.980	26.262	1060.508	861.485
30.994	26.341	1059.340	860.835
32.009	26.586	1057.978	860.821
33.023	26.424	1056.506	858.776
34.038	26.548	1056.288	859.114
35.053	26.235	1056.197	857.477
36.067	26.393	1054.961	857.147
37.082	26.340	1055.174	856.989
38.096	26.845	1054.316	858.609
39.111	26.643	1053.321	856.770
40.126	26.485	1052.149	854.992
41.140	26.208	1050.524	852.288
42.155	26.196	1047.854	849.990
43.169	26.099	1047.580	849.237
44.184	25.958	1047.274	848.253
45.199	26.081	1046.210	847.891
46.213	26.123	1044.470	846.603
47.228	26.132	1044.922	846.940
48.242	26.119	1043.897	845.973
49.257	26.079	1043.325	845.244
50.271	26.299	1042.535	845.559
51.286	26.677	1041.313	846.259
52.301	26.524	1040.086	844.476
53.315	26.134	1040.597	842.994
54.330	26.434	1038.116	842.306
55.344	26.352	1038.705	842.328
56.359	26.301	1037.393	840.951
57.374	26.171	1036.555	839.596
58.388	26.310	1034.838	838.773
59.403	26.069	1035.094	837.789
60.417	25.999	1034.137	836.614
61.432	26.097	1033.486	836.467
62.447	26.205	1032.044	835.728
63.461	26.282	1031.795	835.809
64.476	26.164	1030.464	834.110
65.490	26.169	1029.716	833.453
66.505	25.956	1029.466	832.198
67.520	26.254	1028.647	832.834
68.534	25.969	1027.784	830.750
69.549	25.499	1026.720	827.651
70.563	25.431	1026.620	827.185
71.578	25.382	1025.295	825.819
72.593	25.358	1024.226	824.773
73.607	25.557	1023.982	825.417
74.622	25.761	1023.710	826.063
75.636	25.987	1022.742	826.241
76.651	25.742	1021.631	824.153
77.666	25.799	1021.121	823.930
78.680	25.745	1019.393	822.213
79.695	25.902	1019.320	822.797
80.709	26.167	1019.548	824.119
81.724	26.254	1017.383	822.693
82.739	26.021	1017.366	821.544
83.753	26.458	1017.221	823.346
84.768	26.612	1016.643	823.505
85.782	26.830	1015.337	823.365
86.797	26.640	1014.714	821.924
87.812	26.597	1013.691	820.827
88.826	26.720	1012.228	820.127
89.841	26.394	1011.850	818.272
90.855	26.439	1011.896	818.443
91.870	26.759	1009.478	817.858
92.884	26.498	1009.658	816.753
93.899	26.409	1008.188	815.092
94.914	26.648	1008.118	816.040
95.928	26.577	1006.339	814.208
96.943	26.355	1004.987	812.046
97.957	26.125	1004.653	810.671
98.972	25.952	1003.300	808.731
99.987	26.426	1002.557	810.183
101.001	26.421	1001.977	809.623
102.016	26.497	1000.311	808.543
103.030	26.294	999.954	807.276
104.045	26.255	998.161	805.586
105.060	25.930	997.977	803.915
106.074	26.115	997.459	804.250
107.089	26.206	997.384	804.527
108.103	26.076	996.622	803.260
109.118	26.099	995.107	802.070
110.133	25.957	993.618	800.171
111.147	26.225	991.990	799.975
112.162	25.981	991.208	798.193
113.176	26.191	991.700	799.450
114.191	26.212	990.138	798.210
115.206	25.812	988.789	795.290
116.220	25.528	988.686	793.882
117.235	25.737	987.402	793.701
118.249	25.639	986.726	792.654
119.264	25.522	986.202	791.650
120.279	25.881	985.463	792.564
121.293	25.700	984.933	791.273
122.308	25.868	983.682	790.934
123.322	25.265	983.230	787.854
124.337	25.738	980.685	787.819
125.352	24.832	980.342	783.509
126.366	24.649	979.215	781.735
127.381	25.690	979.447	786.404
128.395	26.213	978.584	787.926
129.410	26.263	977.578	787.263
130.424	26.475	976.913	787.581
131.439	26.326	976.005	786.130
132.454	26.423	974.857	785.557
133.468	26.218	974.151	784.028
134.483	26.346	974.327	784.658
135.497	26.282	973.100	783.324
136.512	26.569	971.046	782.840
137.527	26.859	970.857	783.872
138.541	26.604	970.740	782.606
139.556	26.577	968.844	780.892
140.570	26.508	969.418	780.989
141.585	26.622	968.229	780.454
142.600	26.557	966.990	779.108
143.614	26.776	967.043	780.020
144.629	26.556	966.132	778.272
145.643	26.520	964.979	777.122
146.658	26.551	963.673	776.131
147.673	25.962	963.557	773.445
148.687	26.067	962.144	772.694
149.702	26.459	959.860	772.463
150.716	26.013	959.374	770.098
151.731	26.046	959.988	770.666
152.746	26.895	958.774	773.242
153.760	26.475	958.666	771.298
154.775	26.993	956.755	771.893
155.789	26.507	956.637	769.665
156.804	26.501	955.719	768.831
157.819	26.697	954.770	768.832
158.833	26.950	953.709	768.985
159.848	27.022	953.409	768.977
160.862	26.790	951.045	766.025
161.877	26.737	951.608	766.183
162.892	26.705	949.310	764.131
163.906	26.763	948.064	763.304
164.921	26.844	948.108	763.615
165.935	26.818	947.001	762.545
166.950	26.511	947.012	761.195
167.964	26.707	945.241	760.529
168.979	26.733	944.043	759.607
169.994	26.481	943.653	758.169
171.008	26.597	943.285	758.291
172.023	26.837	941.560	757.842
173.037	26.707	941.053	756.824
174.052	26.471	939.398	754.443
175.067	26.560	939.467	754.801
176.081	26.517	939.433	754.525
177.096	26.260	938.940	752.994
178.110	26.269	937.500	751.810
179.125	26.206	935.821	750.135
180.140	25.869	936.837	749.483
181.154	26.229	936.324	750.503
182.169	26.349	935.890	750.587
183.183	26.877	936.289	753.031
184.198	27.158	933.467	751.856
185.213	26.632	933.777	749.865
186.227	26.710	933.540	749.931
187.242	26.494	932.557	748.180
188.256	26.669	931.653	748.111
189.271	26.898	931.409	748.794
190.286	26.589	930.468	746.698
191.300	25.747	929.635	742.491
192.315	25.083	926.526	737.214
193.329	24.864	927.034	736.651
194.344	25.675	927.375	740.197
195.359	26.443	926.974	742.967
196.373	26.590	927.099	743.604
197.388	26.336	926.383	741.922
198.402	26.517	925.463	741.863
199.417	26.924	924.778	742.914
200.432	26.227	924.032	739.397
201.446	25.955	924.257	738.397
202.461	26.487	922.342	738.973
203.475	25.511	920.395	733.371
204.490	24.657	919.324	728.970
205.504	25.566	919.370	732.647
206.519	26.045	919.716	734.808
207.534	26.097	919.524	734.803
208.548	26.543	919.173	736.274
209.563	26.274	918.591	734.647
210.577	26.274	918.203	734.272
211.592	26.889	916.975	735.720
212.607	26.499	916.440	733.645
213.621	26.487	915.897	733.094
214.636	26.747	915.037	733.395
215.650	26.861	914.065	733.013
216.665	26.958	914.063	733.336
217.680	26.904	912.900	732.123
218.694	26.338	912.071	729.108
219.709	26.151	911.792	728.067
220.723	26.558	911.570	729.467
221.738	26.197	911.326	727.752
222.753	26.319	910.384	727.427
223.767	26.592	910.348	728.434
224.782	26.921	908.745	728.405
225.796	27.044	908.355	728.522
226.811	26.365	907.573	725.110
227.826	25.735	905.224	720.649
228.840	25.606	906.156	720.808
229.855	26.040	903.963	720.735
230.869	25.440	903.362	717.797
231.884	25.821	904.239	719.950
232.899	26.713	903.864	723.150
233.913	26.741	902.646	722.224
234.928	26.418	902.984	721.143
235.942	26.348	902.083	720.082
236.957	26.186	901.047	718.545
237.972	25.928	900.454	716.985
238.986	26.117	900.224	717.489
240.001	26.252	899.543	717.417
241.015	26.413	898.887	717.471
242.030	26.545	899.045	718.056
243.045	26.878	897.934	718.425
244.059	27.147	896.555	718.322
245.074	26.708	896.332	716.343
246.088	26.039	896.185	713.518
247.103	26.767	896.173	716.324
248.117	27.023	895.940	717.082
249.132	27.202	895.200	717.136
250.147	27.410	895.207	717.897
251.161	27.432	894.330	717.217
252.176	27.281	892.906	715.418
253.190	27.410	893.371	716.234
254.205	27.753	893.384	717.531
255.220	27.706	892.114	716.263
256.234	27.949	890.868	716.150
257.249	27.388	891.066	714.048
258.263	27.191	890.572	712.815
259.278	27.609	888.758	712.938
260.293	27.782	888.049	712.983
261.307	27.173	888.816	711.153
262.322	27.154	887.973	710.341
263.336	26.587	884.849	705.570
264.351	25.512	883.453	700.208
265.366	25.865	882.875	701.063
266.380	26.443	884.944	704.896
267.395	27.047	884.042	706.466
268.409	27.248	883.062	706.402
269.424	27.131	883.312	706.083
270.439	27.445	882.009	706.198
271.453	27.472	881.029	705.454
272.468	27.758	880.487	706.067
273.482	27.532	880.123	704.839
274.497	27.320	878.414	702.586
275.512	26.580	878.457	699.703
276.526	26.998	878.998	701.687
277.541	27.467	877.995	702.634
278.555	27.050	877.310	700.413
279.570	26.817	876.791	699.042
280.585	27.111	876.425	699.820
281.599	26.819	875.549	697.934
282.614	26.795	873.946	696.502
283.628	26.631	873.485	695.445
284.643	26.730	874.142	696.287
285.657	26.879	871.193	694.448
286.672	26.301	871.122	692.116
287.687	26.750	872.363	694.763
288.701	26.878	870.967	694.078
289.716	26.410	870.747	692.049
290.730	26.679	869.080	691.694
291.745	25.996	867.992	688.160
292.760	26.554	868.060	690.280
293.774	27.422	868.741	694.073
294.789	27.945	868.562	695.860
295.803	27.982	867.655	695.213
296.818	28.155	867.016	695.296
297.833	27.493	865.363	691.398
298.847	27.321	865.011	690.404
299.862	27.702	864.685	691.525
300.876	28.070	864.772	692.930
301.891	27.798	864.301	691.461
302.906	27.071	863.542	688.041
303.920	27.689	862.657	689.609
304.935	27.889	863.365	690.874
305.949	27.884	861.946	689.656
306.964	27.390	861.238	687.166
307.979	27.301	860.973	686.559
308.993	27.714	861.061	688.126
310.008	28.004	860.337	688.577
311.022	27.941	858.573	686.869
312.037	27.443	859.050	685.315
313.052	27.250	858.470	684.068
314.066	26.339	855.982	678.604
315.081	26.139	855.132	677.119
316.095	27.027	856.121	681.176
317.110	27.375	855.801	682.167
318.125	26.689	853.738	677.896
319.139	25.494	852.817	672.634
320.154	25.372	852.942	672.217
321.168	26.309	852.812	675.560
322.183	27.308	852.134	678.693
323.197	27.426	852.127	679.066
324.212	27.205	852.627	678.581
325.227	27.163	852.576	678.323
326.241	27.326	851.192	677.768
327.256	27.316	850.609	677.207
328.270	27.238	849.328	675.839
329.285	26.830	848.484	673.592
330.300	26.673	847.504	672.173
331.314	27.456	847.281	674.839
332.329	27.353	847.538	674.602
333.343	27.539	847.949	675.558
334.358	27.994	846.640	676.139
335.373	27.779	847.044	675.607
336.387	28.185	845.812	676.064
337.402	27.955	846.569	675.757
338.416	28.024	846.350	675.780
339.431	28.068	845.485	675.192
340.446	28.320	845.382	675.981
341.460	28.270	844.864	675.323
342.475	28.277	843.338	674.067
343.489	27.980	843.600	673.122
344.504	28.104	843.621	673.538
345.519	28.661	842.805	674.876
346.533	28.838	842.830	675.485
347.548	28.344	843.323	674.005
348.562	28.405	842.085	673.177
349.577	28.327	841.374	672.266
350.592	28.446	840.511	671.953
351.606	28.381	838.904	670.369
352.621	28.173	838.808	669.474
353.635	27.766	838.470	667.654
354.650	27.554	837.028	665.673
355.665	26.379	835.110	659.805
356.679	27.174	834.075	661.824
357.694	27.401	834.797	663.164
358.708	27.489	834.987	663.579
359.723	27.871	834.216	664.299
360.738	28.368	833.217	665.248
361.752	28.088	833.781	664.623
362.767	28.603	833.085	665.877
363.781	29.096	831.895	666.652
364.796	28.321	833.485	665.055
365.810	28.426	833.163	665.121
366.825	29.141	831.280	666.148
367.840	28.676	830.622	663.880
368.854	28.081	829.968	661.149
369.869	27.887	829.405	659.939
370.883	28.280	828.775	660.799
371.898	28.172	828.043	659.767
372.913	28.321	827.182	659.558
373.927	28.026	827.541	658.724
374.942	28.426	827.206	659.841
375.956	28.645	826.411	659.935
376.971	28.641	826.075	659.593
377.986	28.561	826.169	659.322
379.000	28.945	824.900	659.631
380.015	28.580	825.014	658.353
381.029	28.655	824.398	658.071
382.044	28.853	824.076	658.466
383.059	28.981	822.661	657.734
384.073	28.776	821.986	656.406
385.088	28.795	821.345	655.902
386.102	28.715	821.080	655.348
387.117	28.820	820.265	655.013
388.132	28.064	820.071	652.106
389.146	27.910	817.975	649.832
390.161	28.193	818.798	651.436
391.175	28.532	818.577	652.409
392.190	28.576	816.459	650.821
393.205	26.803	815.190	643.464
394.219	25.458	813.372	637.207
395.234	24.961	813.586	635.555
396.248	26.819	814.295	642.645
397.263	28.075	815.984	648.376
398.278	28.029	815.420	647.710
399.292	27.888	814.564	646.471
400.307	28.382	812.922	646.856
401.321	28.255	814.039	647.238
402.336	28.407	814.322	647.944
403.350	28.869	813.987	649.254
404.365	29.240	813.372	650.015
405.380	29.291	813.665	650.369
406.394	29.504	811.907	649.658
407.409	29.260	812.735	649.403
408.423	29.737	811.439	649.989
409.438	29.922	810.398	649.747
410.453	29.607	810.580	648.728
411.467	29.357	810.112	647.419
412.482	29.772	810.077	648.788
413.496	29.770	809.455	648.227
414.511	29.575	809.094	647.196
415.526	29.591	809.216	647.294
416.540	29.577	807.983	646.201
417.555	29.219	807.356	644.391
418.569	29.220	806.502	643.657
419.584	29.213	806.349	643.453
420.599	29.180	805.141	642.317
421.613	159.436	1371.368	1793.196
422.628	138.497	1453.922	1793.232
