DTS Sentinel unit serial number:	SN413079Multiplexer serial number:	ORYXHardware model number:	OX4-SRSoftware version number:	ORYX F/W v4.00 Oryx Data Collector v3.7.2.0data status	okinstallation	princeton_trtdifferential loss correction	single-endedforward channel	channel 1reverse channel	N/Adate	2019/09/19time	02:30:35forward acquisition time	60.00reverse acquisition time	0.00gamma	496.2192k internal	0.2344k external	0.2344temperature offset calibration	1.0022default loss term (dB/km)	0.3790temperature slope calibration	1.0000multiplexer offset coefficient	1.0000multiplexer slope coefficient	1.0000fibre end	0.00T internal ref (°C)	21.00T ext. ref 1 (°C)	0.68T ext. ref 2 (°C)	14.75length (m)	temperature (°C)	Stokes	anti-Stokes-747.200	85.914	0.086	-0.095
-746.185	-200.000	-0.067	0.308
-745.171	35.590	0.222	0.195
-744.156	226.669	0.183	-0.298
-743.142	357.807	0.040	-0.080
-742.127	-200.000	0.003	0.082
-741.112	-62.188	-0.203	0.085
-740.098	-109.503	-0.394	0.083
-739.083	3.804	0.087	-0.063
-738.069	-71.028	-0.316	0.119
-737.054	157.326	0.003	-0.004
-736.039	-133.868	-0.456	0.057
-735.025	-131.750	-0.172	0.023
-734.010	-175.238	-0.241	-0.007
-732.996	-200.000	0.002	0.219
-731.981	-150.836	-0.212	0.016
-730.966	180.977	-0.207	-0.304
-729.952	-165.345	-0.242	-0.011
-728.937	-139.302	-0.417	-0.045
-727.923	-18.793	-0.047	0.029
-726.908	-200.000	0.042	-0.392
-725.894	-98.227	0.158	0.041
-724.879	1.856	-0.103	-0.074
-723.864	675.199	0.149	0.387
-722.850	245.731	0.175	-0.295
-721.835	-200.000	0.022	-0.155
-720.821	-200.000	-0.056	0.281
-719.806	51.656	-0.271	-0.258
-718.791	281.746	-0.077	-0.138
-717.777	800.000	0.073	-0.209
-716.762	800.000	-0.075	-0.291
-715.748	334.548	0.038	-0.073
-714.733	-91.656	-0.363	-0.103
-713.718	800.000	0.042	-0.174
-712.704	106.062	-0.359	0.425
-711.689	360.736	-0.118	-0.237
-710.675	-122.502	-0.285	0.046
-709.660	390.992	0.138	-0.287
-708.645	583.143	0.113	0.278
-707.631	-34.472	-0.050	0.027
-706.616	-146.829	-0.053	-0.005
-705.602	258.196	0.014	0.024
-704.587	103.065	-0.141	-0.165
-703.572	-200.000	0.036	0.186
-702.558	-200.000	-0.057	-0.416
-701.543	-65.578	-0.402	-0.161
-700.529	800.000	0.126	-0.417
-699.514	-200.000	0.002	-0.118
-698.499	-188.698	-0.176	-0.002
-697.485	-160.633	0.270	-0.014
-696.470	800.000	-0.056	-0.185
-695.456	-74.498	-0.427	-0.154
-694.441	738.999	-0.089	-0.238
-693.426	800.000	-0.080	-0.319
-692.412	-200.000	-0.014	-0.112
-691.397	-18.348	0.252	0.158
-690.383	-153.427	-0.281	0.019
-689.368	35.011	-0.338	-0.295
-688.354	-72.109	-0.097	-0.036
-687.339	-200.000	0.006	-0.216
-686.324	536.165	-0.099	0.234
-685.310	502.470	0.073	0.169
-684.295	256.439	0.134	-0.230
-683.281	-31.322	0.316	-0.178
-682.266	443.101	0.046	-0.100
-681.251	15.505	-0.069	-0.054
-680.237	2.959	-0.124	-0.090
-679.222	-200.000	0.031	-0.153
-678.208	-79.992	-0.499	-0.167
-677.193	800.000	0.036	0.107
-676.178	-26.294	-0.139	-0.081
-675.164	-5.323	0.154	0.105
-674.149	-184.612	-0.069	-0.001
-673.135	73.849	-0.351	-0.367
-672.120	35.915	0.146	0.128
-671.105	800.000	-0.117	-0.379
-670.091	605.379	-0.163	0.406
-669.076	-1.248	-0.105	0.074
-668.062	-150.093	-0.068	-0.005
-667.047	-200.000	-0.007	-0.076
-666.032	-111.755	-0.454	-0.092
-665.018	800.000	-0.083	-0.307
-664.003	800.000	0.067	-0.202
-662.989	266.810	-0.114	-0.198
-661.974	48.450	0.256	0.239
-660.959	-200.000	0.031	-0.135
-659.945	705.504	0.137	-0.362
-658.930	244.253	0.069	-0.115
-657.916	126.321	-0.288	-0.364
-656.901	-155.294	0.234	0.015
-655.886	-200.000	-0.005	0.269
-654.872	-56.858	-0.315	0.139
-653.857	36.471	0.063	-0.056
-652.843	538.002	-0.100	0.238
-651.828	-200.000	0.012	0.145
-650.814	-35.483	-0.176	0.095
-649.799	-82.019	0.209	-0.068
-648.784	-72.137	-0.429	-0.159
-647.770	46.284	-0.137	0.126
-646.755	5.702	0.242	0.178
-645.741	-16.438	-0.117	0.074
-644.726	22.274	0.068	-0.055
-643.711	462.140	0.048	0.106
-642.697	20.927	-0.160	-0.129
-641.682	-136.034	0.311	-0.036
-640.668	-111.366	-0.359	-0.073
-639.653	-200.000	-0.042	0.188
-638.638	-81.273	0.100	0.033
-637.624	-43.182	-0.103	-0.052
-636.609	302.091	-0.041	0.076
-635.595	86.655	-0.366	-0.403
-634.580	473.737	-0.044	-0.100
-633.565	374.863	0.084	-0.171
-632.551	725.053	0.054	0.142
-631.536	-200.000	-0.051	-0.362
-630.522	121.080	0.174	-0.215
-629.507	800.000	-0.036	-0.125
-628.492	-29.823	-0.161	-0.092
-627.478	-77.545	-0.156	0.054
-626.463	-90.588	-0.056	0.016
-625.449	800.000	-0.039	0.156
-624.434	340.737	-0.032	0.062
-623.419	216.366	0.016	0.025
-622.405	800.000	0.040	0.112
-621.390	262.071	0.043	0.074
-620.376	224.172	-0.126	-0.202
-619.361	800.000	-0.169	-0.578
-618.346	-118.633	-0.100	-0.018
-617.332	-7.093	0.093	-0.063
-616.317	-200.000	0.039	-0.188
-615.303	102.464	0.012	-0.014
-614.288	-140.223	-0.103	-0.011
-613.273	100.821	0.194	-0.224
-612.259	6.182	0.026	-0.020
-611.244	658.188	0.086	0.221
-610.230	-200.000	0.017	0.090
-609.215	-94.834	0.151	0.041
-608.201	-109.494	-0.154	-0.032
-607.186	-105.534	0.383	-0.087
-606.171	-200.000	0.061	-0.539
-605.157	275.382	-0.137	-0.242
-604.142	143.189	-0.114	0.151
-603.128	81.706	-0.301	0.325
-602.113	-142.172	0.118	-0.012
-601.098	46.969	-0.363	0.336
-600.084	366.738	0.087	-0.174
-599.069	484.758	0.012	0.028
-598.055	157.246	-0.064	0.089
-597.040	-90.677	-0.192	0.055
-596.025	-200.000	-0.011	-0.366
-595.011	-141.047	-0.267	0.027
-593.996	-15.916	-0.230	-0.146
-592.982	-96.685	-0.266	-0.070
-591.967	298.730	0.139	-0.254
-590.952	22.404	-0.175	0.142
-589.938	101.710	0.200	0.232
-588.923	800.000	-0.024	0.103
-587.909	-117.884	0.197	0.035
-586.894	142.015	-0.132	-0.174
-585.879	476.581	0.071	0.160
-584.865	235.932	-0.112	-0.184
-583.850	800.000	0.021	-0.067
-582.836	-200.000	-0.061	-0.422
-581.821	-128.437	-0.123	0.017
-580.806	30.714	0.214	0.182
-579.792	32.037	0.259	0.222
-578.777	-200.000	0.013	-0.132
-577.763	800.000	0.079	0.242
-576.748	-134.932	-0.435	0.052
-575.733	-0.801	0.202	-0.142
-574.719	5.741	-0.157	0.115
-573.704	-20.537	0.460	-0.281
-572.690	-94.303	-0.248	0.067
-571.675	467.222	0.037	-0.082
-570.661	-200.000	0.005	0.154
-569.646	316.926	0.159	-0.299
-568.631	-56.247	-0.115	0.051
-567.617	170.222	0.196	-0.279
-566.602	-200.000	0.093	0.412
-565.588	50.048	-0.246	-0.231
-564.573	-82.227	-0.438	-0.142
-563.558	268.121	0.157	0.274
-562.544	133.573	0.051	0.065
-561.529	-97.345	-0.214	0.055
-560.515	66.487	-0.220	-0.223
-559.500	-63.163	-0.063	-0.026
-558.485	-200.000	0.044	-0.241
-557.471	-103.338	-0.113	0.026
-556.456	584.749	0.048	-0.118
-555.442	-200.000	0.012	-0.406
-554.427	49.545	0.319	0.299
-553.412	55.430	-0.057	-0.054
-552.398	-25.620	0.144	-0.084
-551.383	74.700	-0.051	0.054
-550.369	4.691	-0.205	0.149
-549.354	-200.000	0.042	-0.272
-548.339	-12.915	-0.052	-0.034
-547.325	-75.179	-0.201	-0.071
-546.310	-200.000	0.017	-0.174
-545.296	-200.000	0.026	-0.246
-544.281	-147.042	-0.072	0.006
-543.266	10.909	-0.138	-0.105
-542.252	177.385	0.025	-0.036
-541.237	227.726	-0.237	0.383
-540.223	145.550	0.275	0.366
-539.208	-200.000	-0.027	0.477
-538.193	-200.000	0.059	0.427
-537.179	-200.000	-0.021	-0.152
-536.164	189.809	0.026	-0.039
-535.150	-200.000	-0.010	0.170
-534.135	-22.898	0.108	-0.064
-533.121	-23.090	0.093	0.056
-532.106	350.291	-0.162	-0.319
-531.091	-73.272	0.032	0.011
-530.077	800.000	0.065	-0.218
-529.062	39.813	0.389	0.347
-528.048	-200.000	0.017	-0.226
-527.033	-108.979	0.301	-0.064
-526.018	-90.267	0.310	0.090
-525.004	-34.795	0.097	-0.052
-523.989	-29.560	0.095	-0.054
-522.975	-41.891	0.010	-0.005
-521.960	-140.284	0.271	-0.028
-520.945	800.000	-0.049	0.195
-519.931	56.432	-0.037	0.036
-518.916	-38.988	0.263	0.137
-517.902	3.953	-0.121	-0.088
-516.887	-200.000	-0.002	0.296
-515.872	202.016	-0.042	0.064
-514.858	-200.000	-0.021	-0.132
-513.843	-200.000	0.005	-0.229
-512.829	3.352	0.114	-0.082
-511.814	46.984	0.109	0.101
-510.799	171.489	0.006	-0.008
-509.785	106.082	0.166	0.195
-508.770	-134.524	-0.307	-0.037
-507.756	150.233	-0.110	-0.148
-506.741	-20.227	0.378	0.231
-505.726	31.731	-0.153	0.130
-504.712	-81.765	0.376	-0.122
-503.697	27.070	-0.079	0.065
-502.683	72.490	0.157	0.162
-501.668	-163.043	0.060	-0.003
-500.653	-78.666	-0.157	0.053
-499.639	-40.476	-0.197	0.102
-498.624	277.384	-0.076	0.135
-497.610	781.732	-0.056	-0.153
-496.595	74.086	0.142	0.148
-495.581	-31.400	0.286	-0.160
-494.566	800.000	-0.144	0.436
-493.551	-175.374	-0.221	0.006
-492.537	-92.164	0.188	-0.053
-491.522	56.434	-0.105	-0.101
-490.508	-109.242	-0.294	-0.062
-489.493	800.000	-0.020	0.054
-488.478	124.286	0.278	-0.347
-487.464	-200.000	-0.029	-0.166
-486.449	-176.513	0.103	-0.003
-485.435	-159.127	0.224	-0.013
-484.420	-48.069	0.126	0.061
-483.405	800.000	-0.048	-0.203
-482.391	-49.031	0.202	0.096
-481.376	-40.102	-0.258	0.133
-480.362	-134.991	-0.158	0.019
-479.347	-151.709	-0.457	-0.033
-478.332	540.314	-0.024	-0.055
-477.318	55.391	0.054	0.052
-476.303	800.000	-0.055	-0.158
-475.289	-200.000	0.005	-0.202
-474.274	-150.935	-0.339	0.025
-473.259	235.027	-0.153	0.250
-472.245	398.907	-0.044	-0.091
-471.230	-165.106	-0.440	0.019
-470.216	-200.000	-0.008	-0.104
-469.201	-99.054	-0.399	-0.100
-468.186	31.244	0.210	0.178
-467.172	-92.295	0.136	-0.038
-466.157	-12.760	-0.241	0.155
-465.143	-200.000	0.002	-0.097
-464.128	-19.678	0.270	-0.166
-463.113	-141.420	0.245	0.025
-462.099	-200.000	0.058	-0.262
-461.084	-110.845	-0.283	-0.058
-460.070	-125.869	-0.271	-0.040
-459.055	800.000	0.062	0.194
-458.040	-200.000	0.019	-0.159
-457.026	-115.452	-0.088	0.016
-456.011	-31.969	0.089	0.049
-454.997	-200.000	-0.000	-0.309
-453.982	387.834	-0.085	-0.174
-452.968	-119.157	-0.398	0.069
-451.953	800.000	-0.053	-0.193
-450.938	-168.321	-0.127	-0.005
-449.924	566.728	-0.153	0.368
-448.909	-90.164	0.167	-0.048
-447.895	509.051	-0.153	-0.352
-446.880	-20.351	-0.124	0.076
-445.865	-114.289	0.200	0.038
-444.851	6.015	0.188	0.138
-443.836	-106.442	0.344	0.076
-442.822	161.103	0.027	0.037
-441.807	-55.739	0.069	0.031
-440.792	673.772	0.116	-0.299
-439.778	800.000	-0.102	-0.415
-438.763	-200.000	0.024	-0.176
-437.749	-200.000	0.006	0.214
-436.734	117.764	0.159	-0.194
-435.719	189.594	0.073	-0.108
-434.705	-94.105	0.299	0.081
-433.690	-97.152	-0.142	0.037
-432.676	-196.723	0.101	0.001
-431.661	-157.564	-0.192	-0.011
-430.646	16.163	0.149	0.117
-429.632	331.150	0.122	-0.232
-428.617	150.568	-0.169	-0.227
-427.603	-200.000	-0.009	0.175
-426.588	289.437	0.171	0.307
-425.573	62.946	0.052	-0.052
-424.559	56.462	-0.042	0.040
-423.544	9.414	-0.051	0.038
-422.530	26.887	0.149	-0.123
-421.515	-69.212	-0.187	0.071
-420.500	-30.356	0.189	0.106
-419.486	126.030	0.087	0.108
-418.471	-183.471	0.438	-0.007
-417.457	-55.857	-0.288	0.127
-416.442	190.824	0.200	0.297
-415.428	-174.111	0.220	-0.006
-414.413	-25.739	-0.093	-0.054
-413.398	800.000	0.125	0.438
-412.384	-117.878	0.299	-0.053
-411.369	274.195	-0.105	-0.184
-410.355	91.798	0.244	0.271
-409.340	51.993	-0.047	-0.044
-408.325	-200.000	-0.016	-0.188
-407.311	-20.343	-0.196	0.119
-406.296	-200.000	-0.025	0.304
-405.282	-142.855	0.284	-0.027
-404.267	800.000	-0.009	0.025
-403.252	-3.967	-0.239	-0.164
-402.238	-61.649	0.278	0.115
-401.223	-129.277	-0.428	0.059
-400.209	-134.758	0.150	0.018
-399.194	-200.000	-0.194	-0.000
-398.179	102.302	-0.176	0.204
-397.165	712.586	0.065	-0.170
-396.150	516.942	0.084	0.194
-395.136	31.241	0.338	-0.287
-394.121	-200.000	-0.027	-0.195
-393.106	-128.737	0.246	-0.034
-392.092	279.136	-0.036	0.064
-391.077	-102.745	-0.161	-0.038
-390.063	70.651	0.207	0.211
-389.048	-90.583	0.247	0.070
-388.033	-200.000	0.001	0.234
-387.019	250.974	0.178	-0.299
-386.004	38.712	-0.163	0.144
-384.990	-200.000	-0.024	0.203
-383.975	312.046	-0.188	0.348
-382.960	106.442	-0.159	-0.186
-381.946	343.839	-0.089	-0.172
-380.931	-106.133	-0.372	0.082
-379.917	-122.867	0.128	0.020
-378.902	40.175	0.231	0.205
-377.888	492.463	0.068	-0.154
-376.873	-107.872	0.100	0.021
-375.858	-200.000	0.034	0.319
-374.844	220.968	0.139	-0.219
-373.829	800.000	-0.011	0.042
-372.815	800.000	0.019	-0.074
-371.800	-146.083	0.256	0.022
-370.785	298.653	0.102	-0.185
-369.771	55.006	0.022	-0.021
-368.756	-100.920	0.567	-0.137
-367.742	-200.000	-0.036	-0.269
-366.727	175.009	-0.031	0.044
-365.712	-65.595	-0.402	-0.159
-364.698	800.000	0.058	-0.213
-363.683	-105.300	-0.342	-0.077
-362.669	415.252	0.069	0.145
-361.654	116.050	-0.170	0.205
-360.639	-200.000	-0.021	0.273
-359.625	100.105	0.016	0.019
-358.610	-13.366	-0.286	0.183
-357.596	-57.245	0.100	-0.044
-356.581	522.027	-0.031	0.072
-355.566	374.299	-0.078	-0.156
-354.552	-87.466	-0.239	0.071
-353.537	244.790	-0.078	-0.130
-352.523	800.000	-0.019	0.063
-351.508	-10.361	0.206	-0.135
-350.493	-37.637	-0.507	-0.266
-349.479	687.396	0.088	-0.226
-348.464	33.549	-0.174	-0.149
-347.450	-113.936	0.252	-0.048
-346.435	-200.000	0.001	-0.216
-345.420	-20.336	0.039	0.023
-344.406	78.834	-0.167	-0.176
-343.391	-63.674	-0.197	-0.079
-342.377	800.000	0.047	-0.132
-341.362	-68.496	-0.299	0.114
-340.348	113.071	-0.065	0.078
-339.333	187.322	-0.173	-0.254
-338.318	-55.555	0.499	-0.220
-337.304	800.000	-0.057	-0.205
-336.289	-200.000	-0.008	-0.245
-335.275	187.515	-0.010	0.015
-334.260	-95.752	-0.210	-0.055
-333.245	-122.053	0.247	-0.040
-332.231	53.128	-0.067	-0.063
-331.216	-200.000	0.035	0.193
-330.202	450.998	0.097	0.211
-329.187	93.690	-0.037	0.042
-328.172	676.091	-0.080	0.205
-327.158	-200.000	0.032	-0.160
-326.143	-186.102	-0.136	0.002
-325.129	-200.000	0.323	-0.001
-324.114	297.746	-0.095	0.171
-323.099	47.422	-0.127	-0.117
-322.085	800.000	-0.039	0.119
-321.070	800.000	0.041	-0.115
-320.056	-200.000	0.016	0.121
-319.041	-1.100	-0.369	-0.257
-318.026	85.958	-0.061	-0.066
-317.012	-33.666	0.331	-0.180
-315.997	239.076	0.048	0.079
-314.983	-51.906	-0.240	0.110
-313.968	-200.000	-0.012	0.073
-312.953	703.695	0.124	0.320
-311.939	58.204	0.045	-0.043
-310.924	-200.000	-0.027	-0.268
-309.910	-77.385	0.354	-0.121
-308.895	-200.000	0.042	0.371
-307.880	-139.200	0.232	-0.025
-306.866	800.000	0.027	0.074
-305.851	671.445	0.017	-0.043
-304.837	-200.000	-0.010	-0.045
-303.822	-52.656	-0.153	-0.070
-302.807	-15.071	0.252	-0.159
-301.793	800.000	0.069	0.202
-300.778	-200.000	0.001	0.228
-299.764	-144.442	0.227	-0.021
-298.749	-160.122	0.273	0.015
-297.735	158.832	-0.205	-0.281
-296.720	283.254	0.102	0.180
-295.705	706.450	-0.005	0.014
-294.691	363.430	-0.127	-0.251
-293.676	800.000	0.008	-0.025
-292.662	556.118	-0.183	-0.434
-291.647	69.139	-0.085	-0.086
-290.632	278.656	-0.099	0.174
-289.618	-120.413	-0.141	-0.024
-288.603	703.726	-0.181	0.470
-287.589	53.509	-0.209	0.197
-286.574	113.169	0.111	0.132
-285.559	-129.483	0.233	0.032
-284.545	83.139	-0.125	-0.134
-283.530	532.596	0.023	-0.054
-282.516	25.725	0.059	-0.048
-281.501	504.645	-0.052	-0.117
-280.486	658.216	-0.079	0.201
-279.472	62.999	0.106	0.104
-278.457	-200.000	-0.013	0.316
-277.443	148.723	0.181	-0.240
-276.428	-27.888	0.310	-0.177
-275.413	-68.612	0.289	0.110
-274.399	245.007	0.072	-0.118
-273.384	-136.531	-0.045	-0.005
-272.370	-200.000	-0.001	0.057
-271.355	31.989	0.154	0.131
-270.340	-82.897	-0.278	0.088
-269.326	-88.284	0.143	0.042
-268.311	-106.249	-0.287	-0.063
-267.297	-100.345	-0.448	-0.109
-266.282	-31.453	0.091	-0.050
-265.267	-48.780	-0.470	0.222
-264.253	126.662	0.052	0.065
-263.238	-18.698	-0.129	0.079
-262.224	800.000	0.068	-0.268
-261.209	-147.745	0.026	0.002
-260.195	-50.765	0.201	0.093
-259.180	-131.163	-0.238	0.031
-258.165	-128.588	0.225	-0.031
-257.151	-200.000	0.009	0.109
-256.136	253.008	0.234	0.393
-255.122	-100.618	-0.144	-0.035
-254.107	196.412	-0.166	0.249
-253.092	-200.000	-0.012	0.000
-252.078	800.000	-0.134	0.414
-251.063	43.967	-0.115	-0.103
-250.049	-123.720	-0.287	0.045
-249.034	-200.000	0.059	-0.000
-248.019	-160.634	-0.090	-0.005
-247.005	272.063	0.124	-0.215
-245.990	-200.000	0.012	-0.156
-244.976	-184.188	-0.062	-0.001
-243.961	-118.475	-0.027	-0.005
-242.946	-62.928	-0.146	-0.059
-241.932	800.000	0.105	-0.349
-240.917	-200.000	0.052	0.253
-239.903	800.000	-0.052	-0.159
-238.888	-200.000	0.068	0.382
-237.873	-28.863	-0.070	-0.040
-236.859	671.852	-0.072	-0.184
-235.844	800.000	-0.083	-0.330
-234.830	0.427	0.304	0.213
-233.815	65.241	0.319	0.316
-232.800	-200.000	0.024	0.387
-231.786	-200.000	0.036	0.169
-230.771	-53.139	-0.129	-0.058
-229.757	52.526	-0.105	0.099
-228.742	-200.000	-0.008	0.037
-227.727	-25.074	-0.076	-0.044
-226.713	800.000	-0.038	0.161
-225.698	-90.663	0.146	-0.041
-224.684	-84.744	-0.134	0.041
-223.669	-181.275	-0.157	-0.003
-222.655	58.749	0.278	0.268
-221.640	-76.295	-0.106	0.037
-220.625	800.000	0.083	0.239
-219.611	406.697	0.105	-0.218
-218.596	-31.575	-0.242	-0.133
-217.582	52.980	0.137	-0.129
-216.567	800.000	0.041	0.130
-215.552	-131.172	-0.163	0.021
-214.538	80.436	-0.129	-0.136
-213.523	-200.000	-0.000	-0.193
-212.509	-200.000	-0.007	-0.124
-211.494	-200.000	0.062	-0.467
-210.479	499.348	-0.117	-0.263
-209.465	197.073	0.193	0.289
-208.450	176.240	-0.155	-0.221
-207.436	-200.000	0.022	0.219
-206.421	-200.000	0.018	-0.120
-205.406	-16.010	0.188	-0.117
-204.392	-166.650	0.117	0.005
-203.377	-167.070	0.180	-0.007
-202.363	593.654	-0.100	-0.242
-201.348	800.000	-0.052	0.220
-200.333	-200.000	0.003	0.065
-199.319	-128.905	0.211	-0.029
-198.304	-200.000	-0.054	0.483
-197.290	-45.589	-0.056	-0.027
-196.275	393.341	0.039	0.079
-195.260	8.482	0.138	0.102
-194.246	39.941	0.081	-0.071
-193.231	-200.000	0.010	-0.072
-192.217	-32.474	-0.106	-0.058
-191.202	800.000	-0.063	0.248
-190.187	394.131	-0.104	0.212
-189.173	404.499	-0.163	0.336
-188.158	-142.281	-0.086	-0.008
-187.144	81.516	0.193	0.204
-186.129	204.750	-0.092	0.140
-185.114	62.302	0.139	0.136
-184.100	800.000	0.014	0.054
-183.085	-173.696	0.094	-0.003
-182.071	200.672	0.216	0.325
-181.056	148.207	0.128	0.169
-180.042	-73.952	-0.372	0.132
-179.027	367.550	0.208	0.411
-178.012	174.292	-0.198	0.279
-176.998	74.107	-0.194	0.199
-175.983	800.000	-0.015	-0.042
-174.969	621.658	0.108	0.265
-173.954	21.023	0.044	-0.035
-172.939	-200.000	0.004	0.124
-171.925	-59.536	-0.137	-0.057
-170.910	-200.000	-0.050	-0.310
-169.896	-5.629	0.189	0.127
-168.881	-200.000	0.007	-0.037
-167.866	-200.000	0.035	0.249
-166.852	-200.000	-0.005	-0.198
-165.837	8.852	-0.173	-0.128
-164.823	454.267	0.077	-0.168
-163.808	-159.636	0.290	-0.016
-162.793	-10.959	0.322	-0.208
-161.779	431.391	0.197	0.418
-160.764	-200.000	0.031	-0.165
-159.750	-81.607	0.091	-0.029
-158.735	-43.816	0.134	-0.066
-157.720	412.996	-0.057	-0.119
-156.706	371.500	-0.101	-0.201
-155.691	800.000	-0.035	0.134
-154.677	-0.871	-0.045	0.031
-153.662	-159.966	0.353	0.019
-152.647	-200.000	0.002	-0.093
-151.633	132.953	0.021	0.027
-150.618	-200.000	-0.004	0.146
-149.604	-200.000	0.000	-0.187
-148.589	-147.681	0.321	0.026
-147.574	-200.000	0.024	-0.543
-146.560	800.000	0.036	-0.133
-145.545	-49.320	-0.225	0.105
-144.531	612.275	-0.027	0.067
-143.516	800.000	0.087	0.320
-142.502	-127.132	0.383	-0.055
-141.487	-98.367	0.242	0.061
-140.472	-1.826	-0.279	-0.192
-139.458	-25.260	0.198	0.115
-138.443	-200.000	-0.059	-0.268
-137.429	-146.275	0.256	0.022
-136.414	800.000	0.049	0.184
-135.399	335.377	-0.041	-0.078
-134.385	27.714	0.327	-0.269
-133.370	-200.000	0.000	-0.303
-132.356	76.442	-0.225	0.233
-131.341	187.275	-0.038	0.056
-130.326	-85.963	0.191	-0.058
-129.312	-111.170	0.286	-0.057
-128.297	351.116	0.091	-0.176
-127.283	7.183	0.208	-0.152
-126.268	-200.000	0.044	0.190
-125.253	591.483	-0.028	-0.068
-124.239	39.282	-0.117	-0.102
-123.224	-50.679	0.087	0.040
-122.210	86.469	-0.251	0.270
-121.195	124.804	-0.104	0.127
-120.180	79.368	-0.220	-0.230
-119.166	541.613	0.104	0.242
-118.151	-81.412	-0.407	-0.131
-117.137	-200.000	0.266	-0.001
-116.122	800.000	-0.118	0.387
-115.107	-200.000	0.017	-0.090
-114.093	-200.000	-0.024	0.176
-113.078	-92.106	0.156	-0.043
-112.064	-200.000	-0.000	-0.223
-111.049	143.289	-0.112	-0.146
-110.034	800.000	0.153	0.524
-109.020	-140.905	0.060	-0.006
-108.005	195.630	0.018	-0.026
-106.991	93.550	-0.108	0.119
-105.976	-141.823	0.313	0.031
-104.962	-94.472	0.052	-0.014
-103.947	-95.854	-0.416	-0.108
-102.932	328.374	0.244	0.458
-101.918	251.724	-0.164	0.272
-100.903	-66.929	0.401	0.154
-99.889	-21.270	-0.378	-0.226
-98.874	-173.364	-0.136	0.004
-97.859	-127.804	-0.071	0.010
-96.845	-52.822	0.065	0.029
-95.830	-200.000	-0.070	0.381
-94.816	-98.087	0.291	0.073
-93.801	-4.258	0.270	-0.182
-92.786	-46.501	0.185	-0.089
-91.772	-55.358	0.136	0.060
-90.757	-200.000	-0.030	-0.230
-89.743	-200.000	0.003	-0.259
-88.728	367.339	-0.161	0.318
-87.713	-21.751	0.291	0.173
-86.699	37.388	-0.112	0.097
-85.684	-135.070	0.099	0.012
-84.670	260.949	0.060	-0.102
-83.655	-200.000	0.017	-0.207
-82.640	-14.664	-0.310	-0.194
-81.626	248.466	0.072	-0.119
-80.611	22.235	-0.162	-0.129
-79.597	-144.327	0.318	-0.029
-78.582	137.747	0.097	0.124
-77.567	-63.544	-0.310	-0.124
-76.553	800.000	0.107	0.328
-75.538	33.122	-0.304	0.257
-74.524	32.244	0.084	-0.071
-73.509	330.559	0.206	0.387
-72.494	-19.304	0.192	-0.116
-71.480	240.488	-0.111	-0.181
-70.465	18.454	-0.055	0.043
-69.451	-200.000	0.024	-0.192
-68.436	-22.567	0.166	-0.098
-67.422	471.819	-0.104	-0.228
-66.407	-2.334	-0.207	0.141
-65.392	-200.000	-0.040	0.282
-64.378	126.873	-0.067	0.083
-63.363	-98.023	0.138	0.035
-62.349	800.000	-0.047	0.180
-61.334	136.702	-1.070	-1.361
-60.319	24.038	1.074	0.863
-59.305	491.767	-0.594	-1.325
-58.290	193.528	1.030	1.518
-57.276	612.214	0.544	1.327
-56.261	-200.000	135.887	682.700
-55.246	337.465	1678.305	3178.884
-54.232	134.082	2802.681	3537.494
-53.217	87.789	2170.243	2342.833
-52.203	32.177	1601.376	1345.735
-51.188	24.146	1350.940	1086.467
-50.173	21.913	1314.584	1043.918
-49.159	49.949	1388.572	1275.864
-48.144	46.098	1397.391	1260.351
-47.130	24.339	1344.434	1082.237
-46.115	21.178	1325.418	1047.945
-45.100	20.908	1320.115	1042.097
-44.086	20.892	1317.628	1039.994
-43.071	20.853	1315.256	1037.851
-42.057	20.855	1313.372	1036.334
-41.042	20.844	1311.798	1034.985
-40.027	20.933	1309.937	1034.003
-39.013	20.861	1308.210	1032.172
-37.998	20.944	1306.483	1031.261
-36.984	20.955	1304.724	1029.894
-35.969	21.008	1302.927	1028.748
-34.954	21.037	1301.093	1027.432
-33.940	20.905	1300.649	1026.265
-32.925	21.048	1298.862	1025.652
-31.911	21.060	1297.359	1024.496
-30.896	21.068	1295.935	1023.377
-29.881	21.137	1294.430	1022.556
-28.867	21.151	1293.129	1021.567
-27.852	21.062	1292.082	1020.177
-26.838	21.196	1290.444	1019.625
-25.823	21.112	1289.179	1018.097
-24.809	21.047	1287.880	1016.650
-23.794	21.078	1286.907	1016.026
-22.779	20.985	1285.470	1014.309
-21.765	21.076	1284.138	1013.746
-20.750	21.063	1282.801	1012.574
-19.736	21.033	1281.550	1011.375
-18.721	21.030	1280.138	1010.204
-17.706	21.045	1279.323	1009.605
-16.692	20.925	1278.616	1008.314
-15.677	20.874	1277.311	1006.948
-14.663	20.934	1276.208	1006.389
-13.648	21.075	1274.749	1006.011
-12.633	20.946	1274.013	1004.647
-11.619	20.929	1273.630	1004.204
-10.604	21.063	1272.212	1003.816
-9.590	20.929	1271.426	1002.385
-8.575	20.970	1270.545	1001.886
-7.560	20.895	1269.647	1000.712
-6.546	20.909	1268.892	1000.156
-5.531	20.879	1268.280	999.462
-4.517	21.030	1267.153	999.400
-3.502	21.017	1266.423	998.708
-2.487	20.962	1265.096	997.311
-1.473	20.818	1261.042	993.250
-0.458	19.201	1245.830	972.110
0.556	14.937	1230.379	935.618
1.571	11.467	1238.863	922.407
2.586	10.930	1254.797	931.115
3.600	11.007	1242.449	922.309
4.615	8.306	1171.007	854.750
5.629	3.088	1101.481	777.597
6.644	0.839	1085.536	755.059
7.659	0.703	1083.473	752.882
8.673	0.524	1083.173	751.714
9.688	0.634	1081.443	750.994
10.702	0.809	1078.842	749.991
11.717	3.949	1082.335	767.950
12.731	10.498	1090.815	806.569
13.746	15.534	1097.967	836.942
14.761	17.188	1099.623	846.376
15.775	16.546	1097.881	841.768
16.790	15.602	1095.769	835.384
17.804	14.870	1094.109	830.406
18.819	14.662	1092.660	828.204
19.834	14.456	1092.055	826.647
20.848	14.222	1091.579	825.056
21.863	13.945	1090.715	822.959
22.877	13.843	1089.548	821.498
23.892	13.689	1088.852	820.142
24.907	13.691	1088.660	819.933
25.921	13.746	1087.316	819.121
26.936	13.716	1086.711	818.444
27.950	13.872	1084.970	817.829
28.965	13.870	1084.048	817.052
29.980	13.854	1082.796	815.954
30.994	13.860	1081.809	815.169
32.009	13.971	1080.769	814.861
33.023	13.935	1080.003	814.033
34.038	13.945	1078.934	813.206
35.053	13.872	1078.457	812.416
36.067	13.812	1077.266	811.155
37.082	13.781	1076.911	810.665
38.096	13.845	1075.558	809.886
39.111	13.863	1074.712	809.266
40.126	13.873	1073.802	808.556
41.140	13.861	1072.424	807.387
42.155	13.783	1071.402	806.169
43.169	13.726	1070.127	804.860
44.184	13.683	1069.205	803.889
45.199	13.787	1068.322	803.655
46.213	13.687	1067.625	802.579
47.228	13.654	1066.667	801.629
48.242	13.859	1065.185	801.431
49.257	13.769	1064.205	800.189
50.271	13.806	1063.445	799.728
51.286	13.816	1062.652	799.109
52.301	13.808	1061.474	798.111
53.315	13.828	1060.516	797.415
54.330	13.707	1059.498	795.999
55.344	13.788	1058.634	795.671
56.359	13.725	1057.874	794.725
57.374	13.782	1056.863	794.168
58.388	13.654	1056.156	792.954
59.403	13.649	1055.367	792.266
60.417	13.613	1054.321	791.241
61.432	13.641	1053.632	790.786
62.447	13.605	1052.872	789.973
63.461	13.682	1051.909	789.552
64.476	13.567	1051.227	788.420
65.490	13.651	1050.196	787.979
66.505	13.646	1049.407	787.291
67.520	13.767	1048.119	786.829
68.534	13.687	1047.957	786.260
69.549	13.715	1047.204	785.759
70.563	13.680	1046.424	784.937
71.578	13.627	1045.884	784.210
72.593	13.684	1044.912	783.681
73.607	13.628	1043.991	782.659
74.622	13.622	1043.651	782.305
75.636	13.585	1042.885	781.489
76.651	13.667	1041.858	781.037
77.666	13.519	1041.352	779.891
78.680	13.587	1040.717	779.665
79.695	13.684	1039.715	779.304
80.709	13.563	1039.469	778.480
81.724	13.683	1038.973	778.605
82.739	13.735	1037.819	777.915
83.753	13.812	1036.742	777.397
84.768	13.882	1036.043	777.132
85.782	13.882	1034.673	776.035
86.797	13.783	1034.342	775.259
87.812	13.829	1033.047	774.434
88.826	13.799	1032.221	773.604
89.841	13.877	1031.194	773.128
90.855	13.963	1030.318	772.806
91.870	13.998	1029.147	772.019
92.884	13.926	1028.480	771.116
93.899	14.066	1027.413	770.900
94.914	13.979	1026.684	769.879
95.928	13.800	1026.198	768.617
96.943	13.761	1025.501	767.847
97.957	13.857	1024.704	767.625
98.972	13.886	1023.535	766.819
99.987	13.899	1022.509	766.040
101.001	13.781	1021.674	764.803
102.016	13.833	1020.451	764.060
103.030	13.922	1020.080	764.123
104.045	13.960	1019.226	763.590
105.060	13.901	1018.405	762.639
106.074	13.819	1017.580	761.578
107.089	13.802	1016.232	760.421
108.103	13.769	1015.877	759.940
109.118	13.695	1014.717	758.665
110.133	13.791	1013.854	758.392
111.147	13.779	1013.037	757.657
112.162	13.849	1011.997	757.131
113.176	13.787	1011.306	756.265
114.191	13.722	1011.265	755.874
115.206	13.890	1009.856	755.518
116.220	13.857	1008.942	754.618
117.235	13.882	1008.084	754.021
118.249	13.815	1007.472	753.192
119.264	13.807	1006.669	752.491
120.279	13.845	1006.059	752.139
121.293	13.729	1005.095	750.828
122.308	13.875	1004.383	750.891
123.322	13.838	1002.748	749.435
124.337	13.722	1001.922	748.225
125.352	13.795	1000.763	747.625
126.366	13.812	999.930	747.011
127.381	13.898	998.491	746.256
128.395	13.826	997.940	745.453
129.410	13.836	996.802	744.582
130.424	13.841	996.152	744.054
131.439	13.832	995.306	743.317
132.454	13.848	994.451	742.687
133.468	13.907	993.348	742.059
134.483	13.831	992.616	741.105
135.497	13.889	992.301	741.064
136.512	13.896	990.587	739.751
137.527	13.819	990.440	739.234
138.541	13.829	989.594	738.582
139.556	13.952	988.732	738.420
140.570	13.981	987.943	737.894
141.585	14.022	986.887	737.221
142.600	14.064	986.074	736.733
143.614	13.991	985.378	735.824
144.629	14.087	984.443	735.485
145.643	13.918	983.643	734.077
146.658	14.002	982.530	733.554
147.673	14.024	981.909	733.124
148.687	13.905	981.103	731.931
149.702	13.935	979.592	730.870
150.716	14.009	978.836	730.567
151.731	13.980	978.112	729.835
152.746	14.005	977.359	729.317
153.760	14.053	976.375	728.731
154.775	13.961	976.512	728.363
155.789	13.965	975.995	727.930
156.804	14.146	974.524	727.563
157.819	14.224	974.044	727.480
158.833	14.151	973.262	726.511
159.848	14.208	972.557	726.173
160.862	14.191	971.184	725.009
161.877	14.222	970.648	724.679
162.892	14.284	969.389	723.945
163.906	14.181	968.662	722.890
164.921	14.044	968.344	721.992
165.935	14.121	967.362	721.529
166.950	14.139	966.531	720.926
167.964	14.279	965.645	720.807
168.979	14.108	965.111	719.603
169.994	14.192	963.848	718.963
171.008	14.134	963.326	718.256
172.023	14.442	961.945	718.495
173.037	14.283	962.144	717.894
174.052	14.320	961.128	717.229
175.067	14.191	960.675	716.272
176.081	14.234	960.282	716.104
177.096	14.222	959.342	715.286
178.110	14.368	958.469	715.197
179.125	14.348	957.839	714.582
180.140	14.340	957.513	714.240
181.154	14.388	957.508	714.379
182.169	14.362	956.845	713.709
183.183	14.400	955.863	713.078
184.198	14.517	954.662	712.618
185.213	14.504	954.420	712.318
186.227	14.392	953.890	711.380
187.242	14.434	953.498	711.205
188.256	14.480	952.565	710.642
189.271	14.367	951.813	709.539
190.286	14.417	950.528	708.727
191.300	14.292	950.366	708.012
192.315	14.429	949.410	707.820
193.329	14.366	949.327	707.428
194.344	14.356	948.491	706.701
195.359	14.431	947.581	706.278
196.373	14.429	947.442	706.102
197.388	14.606	946.788	706.304
198.402	14.588	945.902	705.502
199.417	14.578	945.447	705.061
200.432	14.671	944.734	704.859
201.446	14.673	944.106	704.334
202.461	14.664	943.627	703.876
203.475	14.600	943.077	703.136
204.490	14.734	942.308	703.063
205.504	14.527	941.721	701.693
206.519	14.681	941.003	701.742
207.534	14.699	940.262	701.205
208.548	14.709	939.482	700.601
209.563	14.908	938.522	700.658
210.577	14.777	938.148	699.767
211.592	14.762	937.618	699.248
212.607	14.937	936.527	699.104
213.621	14.844	935.932	698.211
214.636	14.718	935.433	697.252
215.650	14.983	934.543	697.628
216.665	14.984	933.519	696.809
217.680	14.979	932.942	696.293
218.694	15.079	932.638	696.421
219.709	14.852	931.816	694.803
220.723	14.881	931.429	694.574
221.738	14.834	930.651	693.736
222.753	14.975	929.829	693.646
223.767	15.075	929.015	693.393
224.782	15.025	928.644	692.849
225.796	15.024	928.283	692.513
226.811	15.107	927.331	692.086
227.826	15.133	926.367	691.411
228.840	15.094	925.712	690.701
229.855	15.097	924.817	689.985
230.869	15.123	923.861	689.318
231.884	15.089	923.769	689.048
232.899	15.064	922.854	688.200
233.913	15.080	922.054	687.611
234.928	15.058	921.375	686.951
235.942	15.112	920.907	686.763
236.957	15.080	920.761	686.462
237.972	15.084	920.062	685.896
238.986	15.110	919.092	685.220
240.001	15.142	918.367	684.748
241.015	15.150	917.459	684.045
242.030	15.182	917.450	684.107
243.045	15.247	916.623	683.694
244.059	15.277	915.774	683.123
245.074	15.212	915.478	682.579
246.088	15.420	914.371	682.540
247.103	15.244	914.320	681.723
248.117	15.354	913.302	681.354
249.132	15.262	913.098	680.768
250.147	15.415	912.057	680.549
251.161	15.508	911.810	680.684
252.176	15.382	910.943	679.467
253.190	15.458	910.648	679.494
254.205	15.387	910.101	678.736
255.220	15.504	908.860	678.226
256.234	15.471	908.502	677.764
257.249	15.617	907.669	677.672
258.263	15.557	906.862	676.766
259.278	15.583	906.533	676.568
260.293	15.586	905.662	675.870
261.307	15.546	905.219	675.316
262.322	15.571	904.743	675.002
263.336	15.816	903.717	675.161
264.351	15.808	902.527	674.180
265.366	15.755	902.344	673.773
266.380	15.753	901.765	673.271
267.395	15.808	901.177	672.994
268.409	15.831	900.264	672.344
269.424	15.750	899.711	671.546
270.439	15.705	898.803	670.630
271.453	15.818	897.948	670.383
272.468	15.677	898.140	669.907
273.482	15.741	897.221	669.415
274.497	15.908	896.289	669.326
275.512	15.844	895.666	668.547
276.526	15.871	895.457	668.437
277.541	15.820	895.005	667.838
278.555	15.852	894.313	667.392
279.570	15.910	893.487	666.946
280.585	15.908	892.709	666.296
281.599	16.116	891.580	666.218
282.614	15.831	891.342	664.857
283.628	15.936	890.604	664.659
284.643	16.066	889.830	664.538
285.657	16.148	889.138	664.286
286.672	15.989	888.470	663.101
287.687	16.058	888.272	663.166
288.701	15.968	887.571	662.229
289.716	16.067	886.843	662.018
290.730	16.162	886.254	661.892
291.745	16.193	885.530	661.414
292.760	16.239	884.968	661.114
293.774	16.288	884.474	660.878
294.789	16.217	883.786	660.028
295.803	16.134	883.288	659.274
296.818	16.094	882.358	658.366
297.833	16.135	881.986	658.190
298.847	16.091	881.385	657.512
299.862	16.200	880.978	657.577
300.876	16.348	879.660	657.111
301.891	16.270	879.702	656.778
302.906	16.116	879.172	655.725
303.920	16.438	878.449	656.379
304.935	16.324	878.233	655.717
305.949	16.456	877.107	655.330
306.964	16.357	876.811	654.667
307.979	16.400	875.925	654.114
308.993	16.328	875.494	653.457
310.008	16.482	874.539	653.282
311.022	16.349	874.271	652.508
312.037	16.460	873.679	652.438
313.052	16.418	873.051	651.749
314.066	16.445	872.425	651.328
315.081	16.285	872.300	650.561
316.095	16.406	871.437	650.325
317.110	16.372	870.497	649.435
318.125	16.444	869.987	649.275
319.139	16.447	869.613	648.947
320.154	16.494	869.120	648.704
321.168	16.599	868.355	648.477
322.183	16.542	868.187	648.076
323.197	16.489	867.974	647.658
324.212	16.626	866.765	647.224
325.227	16.490	866.638	646.551
326.241	16.489	865.370	645.541
327.256	16.382	865.407	645.105
328.270	16.536	864.631	645.058
329.285	16.583	863.818	644.574
330.300	16.555	863.341	644.055
331.314	16.588	862.940	643.824
332.329	16.511	862.318	643.008
333.343	16.623	861.977	643.122
334.358	16.706	861.367	642.926
335.373	16.638	861.267	642.538
336.387	16.571	860.937	641.979
337.402	16.715	860.566	642.191
338.416	16.587	860.398	641.525
339.431	16.797	859.850	641.853
340.446	16.820	859.144	641.358
341.460	16.844	858.935	641.236
342.475	16.884	858.598	641.078
343.489	16.875	857.640	640.271
344.504	17.051	857.349	640.663
345.519	16.910	857.232	639.987
346.533	16.907	856.540	639.402
347.548	16.937	855.608	638.762
348.562	16.994	855.256	638.659
349.577	16.942	854.874	638.122
350.592	16.905	854.131	637.371
351.606	17.041	853.063	637.027
352.621	16.946	852.734	636.371
353.635	16.991	852.055	635.975
354.650	17.061	851.579	635.828
355.665	17.029	851.028	635.239
356.679	17.094	849.956	634.624
357.694	17.129	849.634	634.458
358.708	17.079	848.844	633.625
359.723	17.043	848.581	633.241
360.738	17.152	847.348	632.672
361.752	17.077	847.029	632.095
362.767	17.134	846.575	631.915
363.781	17.270	846.111	632.017
364.796	17.205	845.371	631.169
365.810	17.260	845.114	631.125
366.825	17.252	845.161	631.074
367.840	17.074	844.474	629.843
368.854	17.387	843.838	630.473
369.869	17.139	843.945	629.581
370.883	17.310	843.213	629.608
371.898	17.400	842.347	629.239
372.913	17.406	841.964	628.921
373.927	17.443	841.393	628.575
374.942	17.456	841.404	628.576
375.956	17.502	840.858	628.285
376.971	17.531	840.491	628.060
377.986	17.643	839.726	627.846
379.000	17.630	839.424	627.514
380.015	17.555	839.329	627.115
381.029	17.551	838.463	626.398
382.044	17.705	837.537	626.215
383.059	17.685	837.228	625.855
384.073	17.617	836.414	624.942
385.088	17.608	835.914	624.479
386.102	17.585	835.551	624.068
387.117	17.471	834.785	623.026
388.132	17.608	834.007	622.891
389.146	17.707	833.717	622.978
390.161	17.601	833.658	622.492
391.175	17.825	832.798	622.612
392.190	17.717	831.986	621.559
393.205	17.774	831.520	621.364
394.219	17.718	831.384	621.002
395.234	17.620	831.401	620.600
396.248	17.627	830.637	620.002
397.263	17.603	830.251	619.573
398.278	17.731	829.751	619.611
399.292	17.550	829.866	618.984
400.307	17.727	828.793	618.771
401.321	17.739	828.420	618.481
402.336	17.846	827.703	618.279
403.350	17.912	827.028	617.956
404.365	17.748	826.815	617.150
405.380	17.866	826.900	617.587
406.394	17.791	826.034	616.614
407.409	17.774	825.422	616.043
408.423	17.974	825.167	616.519
409.438	18.055	824.798	616.481
410.453	18.088	824.246	616.133
411.467	18.005	824.099	615.670
412.482	18.086	823.172	615.213
413.496	18.004	822.914	614.671
414.511	18.262	822.203	615.012
415.526	18.170	822.244	614.659
416.540	18.128	821.695	614.044
417.555	18.135	821.277	613.702
418.569	18.176	820.506	613.217
419.584	18.251	819.900	612.979
420.599	18.076	819.992	612.366
421.613	115.894	1301.476	1491.617
422.628	100.557	1371.599	1491.681
