DTS Sentinel unit serial number:	SN413079Multiplexer serial number:	ORYXHardware model number:	OX4-SRSoftware version number:	ORYX F/W v4.00 Oryx Data Collector v3.7.2.0data status	okinstallation	princeton_trtdifferential loss correction	single-endedforward channel	channel 1reverse channel	N/Adate	2019/09/16time	11:10:35forward acquisition time	60.00reverse acquisition time	0.00gamma	496.2192k internal	0.2299k external	0.2299temperature offset calibration	0.9969default loss term (dB/km)	0.3790temperature slope calibration	1.0000multiplexer offset coefficient	1.0000multiplexer slope coefficient	1.0000fibre end	0.00T internal ref (°C)	37.11T ext. ref 1 (°C)	12.82T ext. ref 2 (°C)	33.29length (m)	temperature (°C)	Stokes	anti-Stokes-747.200	10.449	0.125	0.097
-746.185	186.691	-0.194	0.295
-745.171	763.708	0.172	0.476
-744.156	800.000	-0.114	0.367
-743.142	198.067	0.173	0.269
-742.127	800.000	0.075	0.227
-741.112	-200.000	-0.022	-0.272
-740.098	-200.000	0.039	-0.201
-739.083	-58.560	-0.229	-0.101
-738.069	-15.023	0.154	0.100
-737.054	-200.000	-0.051	0.299
-736.039	159.954	0.095	-0.136
-735.025	-64.260	0.234	0.097
-734.010	-77.109	-0.400	-0.142
-732.996	475.376	0.151	-0.347
-731.981	214.613	0.168	-0.271
-730.966	504.625	-0.123	-0.291
-729.952	25.202	0.098	0.083
-728.937	-14.435	0.083	0.054
-727.923	155.197	0.119	-0.167
-726.908	-26.528	-0.278	-0.166
-725.894	-17.014	-0.306	0.197
-724.879	189.668	-0.003	0.005
-723.864	56.135	0.253	0.250
-722.850	124.996	0.222	-0.285
-721.835	86.755	-0.199	0.223
-720.821	135.787	0.151	-0.201
-719.806	-153.641	0.183	-0.013
-718.791	247.250	-0.036	0.061
-717.777	-4.888	-0.215	0.151
-716.762	800.000	-0.068	-0.229
-715.748	380.868	0.093	-0.194
-714.733	17.788	-0.119	-0.097
-713.718	410.847	0.195	0.421
-712.704	-162.818	-0.151	0.007
-711.689	80.162	-0.138	0.151
-710.675	-48.510	0.236	0.116
-709.660	-200.000	0.021	0.377
-708.645	-75.847	-0.113	0.041
-707.631	17.904	0.096	-0.078
-706.616	-173.722	0.164	-0.005
-705.602	-200.000	-0.146	0.000
-704.587	-110.396	0.368	-0.078
-703.572	-104.834	0.130	0.031
-702.558	-82.181	0.079	-0.026
-701.543	129.271	-0.216	-0.280
-700.529	-200.000	0.048	-0.306
-699.514	49.229	-0.264	0.253
-698.499	13.230	-0.100	-0.079
-697.485	-106.367	0.114	-0.026
-696.470	-142.121	-0.200	0.020
-695.456	120.621	0.166	-0.210
-694.441	100.535	0.039	-0.046
-693.426	133.125	0.193	0.254
-692.412	252.983	-0.135	-0.235
-691.397	41.029	-0.132	-0.121
-690.383	20.629	0.177	-0.146
-689.368	-5.612	-0.261	0.183
-688.354	-119.955	-0.442	-0.077
-687.339	-17.138	0.212	-0.136
-686.324	800.000	-0.060	-0.196
-685.310	-200.000	-0.008	-0.152
-684.295	18.211	-0.432	0.351
-683.281	-93.653	-0.097	-0.027
-682.266	-200.000	-0.057	0.299
-681.251	235.217	0.169	0.283
-680.237	96.529	0.060	-0.070
-679.222	-12.517	0.092	0.061
-678.208	-157.709	0.136	0.008
-677.193	-84.283	0.238	0.077
-676.178	-30.217	-0.256	-0.148
-675.164	59.345	-0.396	-0.397
-674.149	800.000	-0.066	0.279
-673.135	13.251	0.166	-0.131
-672.120	-60.780	-0.168	0.072
-671.105	800.000	0.083	-0.292
-670.091	150.044	-0.162	-0.224
-669.076	-200.000	-0.015	-0.265
-668.062	800.000	-0.064	0.285
-667.047	-16.807	-0.272	-0.175
-666.032	35.393	0.153	-0.137
-665.018	800.000	-0.051	-0.189
-664.003	136.445	0.177	0.235
-662.989	14.820	-0.045	-0.036
-661.974	-61.740	0.180	0.077
-660.959	79.827	0.131	0.143
-659.945	-200.000	0.043	0.339
-658.930	104.678	-0.111	0.133
-657.916	800.000	-0.057	-0.189
-656.901	49.070	-0.052	-0.049
-655.886	-104.120	0.022	0.005
-654.872	-200.000	-0.000	0.158
-653.857	-24.573	0.235	0.142
-652.843	-81.580	-0.144	0.048
-651.828	-94.661	-0.226	0.063
-650.814	464.788	-0.080	0.183
-649.799	-18.603	0.171	-0.109
-648.784	-200.000	0.008	-0.126
-647.770	-144.478	-0.108	-0.010
-646.755	769.375	0.042	-0.116
-645.741	-200.000	-0.018	-0.480
-644.726	337.682	0.008	0.015
-643.711	52.087	0.067	0.065
-642.697	-144.522	0.070	0.007
-641.682	-5.403	-0.059	-0.041
-640.668	525.179	-0.006	0.015
-639.653	248.570	0.103	0.178
-638.638	-170.763	0.201	0.007
-637.624	-33.278	-0.297	-0.167
-636.609	-48.587	-0.027	0.013
-635.595	-88.760	-0.281	0.085
-634.580	-122.762	0.113	0.019
-633.565	81.704	-0.226	-0.248
-632.551	239.066	0.064	0.108
-631.536	528.016	0.040	-0.095
-630.522	344.160	-0.130	0.259
-629.507	78.276	0.079	-0.085
-628.492	-93.513	0.268	0.075
-627.478	-120.222	-0.264	0.046
-626.463	-200.000	-0.062	-0.285
-625.449	-118.081	0.166	-0.030
-624.434	64.707	-0.136	0.139
-623.419	115.673	-0.071	-0.089
-622.405	792.297	0.097	-0.270
-621.390	-109.191	0.212	0.046
-620.376	413.349	0.080	-0.173
-619.361	-200.000	0.009	-0.092
-618.346	130.470	-0.061	-0.080
-617.332	-91.928	0.337	-0.097
-616.317	-64.135	0.105	-0.044
-615.303	-96.620	0.450	-0.120
-614.288	-7.352	0.143	0.099
-613.273	-200.000	-0.036	-0.437
-612.259	376.643	-0.086	0.179
-611.244	-1.165	-0.143	0.103
-610.230	73.395	-0.020	0.021
-609.215	13.727	-0.106	0.084
-608.201	324.019	0.055	-0.106
-607.186	-175.884	-0.189	0.005
-606.171	299.675	0.106	0.199
-605.157	-66.786	-0.303	-0.122
-604.142	3.538	-0.195	0.144
-603.128	112.551	-0.100	0.123
-602.113	701.968	0.164	0.439
-601.098	433.717	0.061	0.133
-600.084	800.000	-0.111	0.417
-599.069	-200.000	-0.056	-0.262
-598.055	332.968	0.076	0.148
-597.040	-98.823	-0.195	-0.050
-596.025	97.833	0.050	0.059
-595.011	78.150	0.090	0.097
-593.996	11.036	-0.590	0.457
-592.982	450.997	-0.076	0.171
-591.967	-200.000	0.006	0.473
-590.952	10.504	-0.183	0.142
-589.938	800.000	0.071	-0.231
-588.923	76.207	-0.096	-0.103
-587.909	621.037	0.047	-0.119
-586.894	800.000	0.077	0.234
-585.879	52.558	-0.313	0.303
-584.865	-116.059	-0.492	0.093
-583.850	-21.787	-0.068	0.042
-582.836	800.000	0.030	-0.131
-581.821	-123.515	0.257	-0.041
-580.806	28.781	-0.066	-0.057
-579.792	-123.391	-0.206	-0.033
-578.777	-200.000	-0.019	0.268
-577.763	800.000	-0.089	-0.338
-576.748	29.363	-0.092	-0.079
-575.733	-200.000	0.051	-0.232
-574.719	-65.686	-0.306	0.124
-573.704	800.000	0.099	0.297
-572.690	-14.144	0.118	-0.077
-571.675	-142.792	0.172	0.017
-570.661	-107.773	0.190	0.042
-569.646	-162.183	-0.151	0.008
-568.631	84.277	-0.093	-0.103
-567.617	436.476	0.302	0.667
-566.602	26.724	-0.305	0.259
-565.588	287.655	-0.063	0.115
-564.573	-200.000	-0.004	0.137
-563.558	-19.592	-0.250	0.157
-562.544	-200.000	0.075	-0.395
-561.529	-127.121	-0.466	0.069
-560.515	116.941	-0.112	0.139
-559.500	226.653	-0.101	-0.166
-558.485	103.871	-0.071	-0.084
-557.471	-200.000	0.008	-0.179
-556.456	173.091	0.043	0.063
-555.442	-200.000	-0.001	-0.031
-554.427	-200.000	-0.022	0.145
-553.412	282.837	0.111	0.202
-552.398	211.409	0.188	0.299
-551.383	104.595	-0.073	0.088
-550.369	35.332	-0.200	-0.178
-549.354	19.118	0.224	-0.182
-548.339	-200.000	-0.031	0.264
-547.325	800.000	0.036	-0.105
-546.310	-200.000	-0.054	-0.483
-545.296	-7.418	-0.071	0.049
-544.281	-200.000	0.000	0.151
-543.266	-142.087	0.333	0.033
-542.252	239.825	-0.094	0.158
-541.237	38.256	0.080	-0.072
-540.223	-49.414	0.128	0.062
-539.208	-92.576	0.243	-0.069
-538.193	-102.838	-0.184	-0.044
-537.179	-200.000	-0.060	-0.324
-536.164	217.629	0.087	0.140
-535.150	-63.634	-0.266	0.111
-534.135	-93.468	-0.281	-0.079
-533.121	-174.634	0.178	-0.005
-532.106	-200.000	-0.014	0.550
-531.091	-8.137	-0.195	0.133
-530.077	-134.439	0.140	-0.017
-529.062	-9.561	-0.388	0.262
-528.048	-130.435	0.068	-0.009
-527.033	-156.955	0.068	-0.004
-526.018	-110.466	0.256	-0.054
-525.004	319.778	0.128	0.245
-523.989	-131.158	0.137	0.018
-522.975	-99.870	0.056	-0.014
-521.960	6.432	0.041	0.031
-520.945	434.430	-0.084	-0.185
-519.931	-14.239	0.167	-0.109
-518.916	-104.358	0.040	0.009
-517.902	-30.774	0.229	0.131
-516.887	-195.709	0.296	-0.002
-515.872	-13.156	0.169	-0.111
-514.858	-200.000	0.012	-0.311
-513.843	-40.540	-0.218	0.114
-512.829	-23.468	0.198	0.120
-511.814	800.000	-0.066	-0.268
-510.799	52.522	-0.212	-0.205
-509.785	-200.000	-0.020	0.158
-508.770	321.455	0.194	0.374
-507.756	6.435	-0.212	-0.159
-506.741	577.927	0.025	0.061
-505.726	-38.851	0.148	0.079
-504.712	107.614	-0.141	-0.169
-503.697	20.002	0.154	-0.126
-502.683	-200.000	0.005	-0.283
-501.668	166.428	0.072	-0.104
-500.653	-200.000	-0.041	-0.188
-499.639	800.000	-0.021	0.094
-498.624	64.847	0.095	-0.096
-497.610	-104.896	-0.316	-0.073
-496.595	-96.553	0.054	0.014
-495.581	25.249	-0.175	-0.147
-494.566	5.939	-0.198	-0.148
-493.551	7.458	0.549	-0.415
-492.537	129.799	-0.035	-0.045
-491.522	-200.000	0.137	0.000
-490.508	-58.826	-0.184	0.081
-489.493	-200.000	-0.046	-0.330
-488.478	135.334	-0.147	-0.194
-487.464	81.129	-0.195	-0.213
-486.449	-93.208	0.122	0.034
-485.435	140.180	0.125	0.167
-484.420	-200.000	0.007	-0.274
-483.405	-200.000	0.024	0.485
-482.391	0.683	0.092	0.066
-481.376	-120.427	0.332	-0.057
-480.362	774.699	0.061	-0.167
-479.347	444.818	-0.093	0.205
-478.332	-113.869	-0.206	0.040
-477.318	-64.958	0.220	0.090
-476.303	-6.348	-0.249	-0.172
-475.289	-200.000	0.000	-0.072
-474.274	100.245	-0.094	-0.110
-473.259	-120.988	0.032	0.005
-472.245	226.033	-0.128	-0.210
-471.230	581.359	-0.070	-0.174
-470.216	-200.000	-0.027	-0.125
-469.201	511.157	0.021	0.050
-468.186	-200.000	-0.072	-0.361
-467.172	50.991	0.080	-0.076
-466.157	-32.554	0.234	-0.132
-465.143	-54.461	0.450	0.206
-464.128	800.000	-0.021	-0.069
-463.113	487.778	0.236	-0.543
-462.099	111.628	0.230	-0.280
-461.084	468.509	0.070	-0.158
-460.070	-200.000	-0.010	-0.096
-459.055	58.694	-0.096	0.095
-458.040	85.580	0.238	0.263
-457.026	93.526	0.175	-0.200
-456.011	800.000	-0.063	-0.220
-454.997	-170.792	-0.113	0.004
-453.982	247.337	-0.092	-0.157
-452.968	-99.866	0.025	-0.006
-451.953	-195.821	-0.174	0.001
-450.938	-200.000	-0.005	0.133
-449.924	-107.228	0.068	0.015
-448.909	-1.913	-0.186	-0.132
-447.895	-67.442	0.333	-0.132
-446.880	-2.299	-0.123	0.087
-445.865	-51.457	-0.325	0.153
-444.851	-128.700	-0.218	0.031
-443.836	-18.030	-0.230	-0.146
-442.822	233.407	0.071	-0.118
-441.807	-43.629	-0.183	-0.093
-440.792	800.000	-0.032	-0.135
-439.778	328.384	-0.160	-0.309
-438.763	-47.407	-0.101	-0.049
-437.749	127.542	-0.311	0.398
-436.734	-66.443	-0.155	-0.062
-435.719	-136.066	-0.077	-0.009
-434.705	800.000	-0.113	0.352
-433.690	96.765	0.264	0.305
-432.676	-200.000	0.047	0.288
-431.661	180.812	0.193	0.286
-430.646	-90.919	-0.200	0.058
-429.632	-40.941	0.141	-0.074
-428.617	800.000	0.053	0.223
-427.603	-16.550	0.209	-0.133
-426.588	32.328	0.040	-0.035
-425.573	-181.537	-0.412	0.008
-424.559	150.067	-0.159	0.217
-423.544	546.566	-0.179	-0.431
-422.530	97.679	-0.101	0.117
-421.515	701.065	0.176	0.467
-420.500	800.000	-0.032	0.112
-419.486	-37.087	-0.273	0.147
-418.471	132.496	0.076	0.099
-417.457	-49.508	-0.245	0.118
-416.442	66.199	-0.119	0.122
-415.428	370.678	-0.132	-0.269
-414.413	-108.540	-0.170	0.037
-413.398	-106.616	0.301	0.067
-412.384	-200.000	0.035	0.205
-411.369	-75.359	0.315	0.113
-410.355	-151.434	0.243	-0.018
-409.340	-156.643	0.285	-0.018
-408.325	-131.331	-0.273	0.036
-407.311	-71.859	-0.170	-0.064
-406.296	82.656	0.030	0.032
-405.282	-139.791	-0.339	-0.036
-404.267	197.954	0.198	-0.304
-403.252	-67.814	0.261	0.103
-402.238	800.000	-0.091	0.256
-401.223	217.442	0.126	0.202
-400.209	-93.403	0.229	-0.064
-399.194	-88.565	0.157	-0.047
-398.179	277.220	0.076	0.136
-397.165	-200.000	0.064	0.327
-396.150	-11.924	0.301	0.199
-395.136	59.057	0.186	-0.184
-394.121	-17.347	0.177	0.112
-393.106	-200.000	-0.013	-0.140
-392.092	210.046	0.136	-0.215
-391.077	-15.405	-0.184	-0.118
-390.063	-98.533	-0.026	-0.007
-389.048	13.216	-0.221	0.172
-388.033	-200.000	-0.054	0.309
-387.019	51.163	-0.159	0.152
-386.004	-84.403	-0.414	0.132
-384.990	-177.926	-0.232	-0.006
-383.975	29.216	0.186	0.158
-382.960	264.036	0.054	0.095
-381.946	87.010	-0.142	0.157
-380.931	-20.775	-0.369	0.227
-379.917	128.038	0.094	-0.120
-378.902	43.042	0.213	-0.195
-377.888	800.000	-0.044	0.151
-376.873	3.792	0.289	-0.212
-375.858	79.655	-0.263	0.284
-374.844	-11.672	0.107	0.071
-373.829	-106.264	-0.209	-0.047
-372.815	107.164	0.020	-0.023
-371.800	800.000	0.022	0.092
-370.785	-38.231	-0.058	0.031
-369.771	-139.731	-0.136	-0.014
-368.756	-104.132	0.024	-0.006
-367.742	261.384	-0.065	0.113
-366.727	-200.000	0.001	0.051
-365.712	17.546	0.063	0.050
-364.698	14.371	-0.299	-0.234
-363.683	-31.164	0.134	-0.076
-362.669	-200.000	0.048	-0.270
-361.654	309.902	-0.144	-0.270
-360.639	-130.034	-0.177	-0.024
-359.625	-139.436	-0.428	-0.046
-358.610	-87.936	-0.109	-0.033
-357.596	6.425	-0.142	0.106
-356.581	-72.347	-0.286	-0.106
-355.566	461.855	0.133	0.299
-354.552	184.317	0.104	0.155
-353.537	-3.309	-0.077	0.054
-352.523	-200.000	0.022	0.234
-351.508	-96.444	0.067	0.018
-350.493	53.789	-0.053	-0.052
-349.479	358.406	0.069	-0.139
-348.464	38.840	-0.180	-0.161
-347.450	-44.780	-0.458	-0.229
-346.435	-120.148	-0.353	0.061
-345.420	186.063	0.205	-0.307
-344.406	-44.110	-0.309	0.156
-343.391	800.000	-0.106	-0.353
-342.377	-200.000	0.017	0.360
-341.362	800.000	0.122	-0.441
-340.348	800.000	0.066	-0.264
-339.333	598.972	-0.117	0.291
-338.318	-37.125	-0.111	-0.059
-337.304	800.000	0.045	0.185
-336.289	146.240	0.163	0.220
-335.275	-96.813	-0.274	-0.072
-334.260	-103.554	-0.068	-0.016
-333.245	-200.000	-0.057	0.415
-332.231	65.909	0.121	0.123
-331.216	432.912	0.094	-0.205
-330.202	45.659	-0.389	-0.361
-329.187	98.059	0.197	-0.227
-328.172	69.181	-0.043	-0.045
-327.158	800.000	0.031	-0.126
-326.143	91.898	0.181	0.204
-325.129	-38.295	-0.159	-0.085
-324.114	800.000	-0.103	0.360
-323.099	608.481	0.093	0.233
-322.085	-200.000	-0.008	0.079
-321.070	-101.533	0.516	0.126
-320.056	-200.000	0.036	0.396
-319.041	204.359	0.144	0.224
-318.026	-23.514	-0.232	-0.140
-317.012	800.000	0.081	-0.256
-315.997	-81.893	0.093	0.031
-314.983	27.304	0.231	0.195
-313.968	-90.288	0.228	0.067
-312.953	148.260	0.288	-0.390
-311.939	-95.931	-0.309	0.082
-310.924	-156.825	-0.119	-0.007
-309.910	-135.553	0.456	0.054
-308.895	33.373	-0.262	-0.228
-307.880	324.770	-0.119	-0.228
-306.866	34.670	-0.192	0.169
-305.851	800.000	-0.091	-0.296
-304.837	-123.872	-0.163	0.026
-303.822	45.335	-0.071	0.066
-302.807	110.048	0.084	-0.102
-301.793	256.844	0.181	-0.311
-300.778	-128.721	0.151	0.021
-299.764	64.543	0.176	-0.178
-298.749	-42.567	0.037	-0.019
-297.735	102.558	-0.087	-0.102
-296.720	192.954	-0.206	-0.312
-295.705	-171.557	0.239	0.008
-294.691	15.086	-0.170	-0.133
-293.676	786.956	-0.071	0.195
-292.662	713.434	-0.084	-0.224
-291.647	800.000	0.128	-0.394
-290.632	800.000	0.041	0.156
-289.618	-200.000	-0.044	-0.225
-288.603	-118.206	-0.449	0.080
-287.589	420.975	-0.177	0.381
-286.574	-87.728	-0.358	0.108
-285.559	-200.000	0.002	0.156
-284.545	223.591	0.150	-0.242
-283.530	-11.156	0.271	-0.179
-282.516	-179.174	0.142	0.003
-281.501	243.722	-0.131	-0.220
-280.486	-200.000	0.012	0.331
-279.472	800.000	-0.095	0.340
-278.457	113.515	0.214	0.260
-277.443	-200.000	0.039	0.293
-276.428	-112.485	0.095	-0.019
-275.413	-178.817	0.153	-0.003
-274.399	-82.970	0.326	-0.105
-273.384	-194.274	0.229	-0.002
-272.370	-200.000	-0.024	0.197
-271.355	69.965	0.101	-0.105
-270.340	-0.093	-0.161	0.115
-269.326	224.441	-0.035	-0.057
-268.311	62.467	-0.155	-0.155
-267.297	-200.000	-0.025	-0.175
-266.282	-108.377	0.138	0.030
-265.267	-170.689	-0.324	-0.011
-264.253	-197.054	0.125	0.001
-263.238	56.157	0.173	0.168
-262.224	-57.735	0.283	-0.124
-261.209	178.855	-0.066	-0.096
-260.195	-200.000	-0.034	0.237
-259.180	800.000	-0.051	-0.142
-258.165	-141.971	-0.045	-0.005
-257.151	20.491	-0.215	-0.174
-256.136	-65.357	0.360	-0.145
-255.122	133.371	0.249	0.322
-254.107	69.795	0.175	0.181
-253.092	-65.119	0.336	-0.136
-252.078	-51.636	0.171	-0.080
-251.063	-87.343	0.324	0.098
-250.049	602.455	0.140	-0.348
-249.034	-158.183	0.308	0.018
-248.019	-78.585	0.226	0.077
-247.005	655.073	-0.051	-0.131
-245.990	13.357	-0.302	0.234
-244.976	335.379	0.096	0.187
-243.961	6.681	-0.209	-0.156
-242.946	800.000	-0.100	-0.325
-241.932	1.179	0.255	0.183
-240.917	-13.566	-0.278	-0.180
-239.903	-200.000	0.065	-0.332
-238.888	-33.571	-0.261	-0.144
-237.873	-71.744	-0.218	-0.081
-236.859	800.000	0.030	0.124
-235.844	-22.896	-0.268	-0.162
-234.830	-0.386	-0.296	0.211
-233.815	-105.311	-0.118	0.027
-232.800	-200.000	-0.036	-0.267
-231.786	-27.464	-0.189	0.110
-230.771	427.551	0.064	0.137
-229.757	800.000	-0.057	-0.168
-228.742	625.985	0.164	0.414
-227.727	-62.527	-0.243	-0.101
-226.713	115.784	0.074	0.090
-225.698	-93.459	0.226	-0.063
-224.684	-128.629	-0.319	-0.045
-223.669	800.000	0.069	-0.250
-222.655	80.389	-0.182	-0.196
-221.640	188.093	-0.114	0.170
-220.625	-132.692	0.153	-0.020
-219.611	17.478	0.262	-0.208
-218.596	800.000	-0.098	-0.320
-217.582	-28.759	0.115	0.066
-216.567	-72.927	0.269	-0.099
-215.552	-11.691	-0.120	0.079
-214.538	-136.063	0.203	0.024
-213.523	-51.852	0.081	0.037
-212.509	405.236	-0.127	-0.267
-211.494	24.052	0.024	-0.020
-210.479	59.638	-0.327	0.323
-209.465	338.112	0.154	-0.299
-208.450	-142.430	0.428	-0.042
-207.436	31.117	0.081	-0.070
-206.421	-64.410	0.252	-0.102
-205.406	-177.827	0.195	-0.005
-204.392	-102.509	-0.312	-0.074
-203.377	83.199	0.086	-0.094
-202.363	-138.383	0.030	0.003
-201.348	-62.007	0.359	-0.150
-200.333	-200.000	0.002	-0.202
-199.319	800.000	0.079	0.306
-198.304	333.289	0.185	0.357
-197.290	210.498	-0.217	-0.341
-196.275	102.776	0.183	-0.213
-195.260	328.969	-0.049	-0.095
-194.246	-14.846	0.320	0.205
-193.231	8.843	0.319	0.240
-192.217	-30.467	0.397	0.225
-191.202	-99.356	0.117	-0.029
-190.187	800.000	0.074	-0.218
-189.173	8.941	0.184	0.139
-188.158	-77.564	-0.080	-0.028
-187.144	-70.761	0.012	-0.005
-186.129	382.985	0.089	-0.183
-185.114	39.548	-0.063	0.056
-184.100	53.674	0.076	-0.072
-183.085	-157.310	-0.166	-0.010
-182.071	-200.000	0.027	0.262
-181.056	-98.147	0.192	-0.049
-180.042	800.000	0.085	-0.242
-179.027	50.254	0.309	0.292
-178.012	-179.695	-0.161	0.003
-176.998	-114.595	0.179	-0.034
-175.983	379.421	-0.072	-0.147
-174.969	-3.988	-0.271	0.187
-173.954	8.581	0.204	0.153
-172.939	-200.000	0.053	0.326
-171.925	9.633	0.230	0.174
-170.910	376.363	-0.185	0.376
-169.896	-55.610	-0.056	0.025
-168.881	-57.307	0.169	0.074
-167.866	-200.000	0.009	0.073
-166.852	-63.483	0.183	-0.075
-165.837	-127.018	-0.033	-0.005
-164.823	7.190	0.109	0.081
-163.808	-200.000	-0.017	0.181
-162.793	17.373	-0.124	0.098
-161.779	172.260	0.092	-0.132
-160.764	-122.272	-0.333	-0.054
-159.750	118.561	-0.068	-0.083
-158.735	-64.963	-0.286	-0.115
-157.720	445.536	0.065	0.141
-156.706	-159.336	-0.358	-0.020
-155.691	381.631	-0.050	0.103
-154.677	148.091	0.040	-0.054
-153.662	-130.684	0.149	-0.020
-152.647	-40.812	0.499	-0.258
-151.633	-200.000	-0.009	0.044
-150.618	-200.000	-0.001	0.342
-149.604	-200.000	-0.080	0.397
-148.589	-66.427	0.178	-0.071
-147.574	-200.000	0.018	-0.332
-146.560	345.725	-0.068	0.134
-145.545	-109.904	0.129	-0.027
-144.531	-50.111	-0.149	-0.070
-143.516	-11.161	0.130	0.085
-142.502	-119.257	0.030	-0.005
-141.487	151.581	0.142	-0.193
-140.472	49.999	0.122	0.115
-139.458	-110.518	0.407	0.084
-138.443	-115.191	-0.189	0.036
-137.429	-200.000	-0.016	0.111
-136.414	205.144	0.199	-0.308
-135.399	123.271	-0.074	0.092
-134.385	86.794	-0.126	-0.138
-133.370	187.801	0.145	-0.215
-132.356	-200.000	-0.002	0.097
-131.341	-137.013	0.279	-0.032
-130.326	-186.235	0.221	-0.003
-129.312	-200.000	-0.036	0.228
-128.297	316.397	0.072	0.136
-127.283	566.314	-0.014	-0.034
-126.268	54.627	-0.133	-0.128
-125.253	-56.258	-0.087	0.039
-124.239	-200.000	-0.011	0.335
-123.224	-83.217	-0.177	-0.057
-122.210	109.210	-0.109	-0.130
-121.195	64.447	-0.063	-0.063
-120.180	-3.893	-0.222	-0.153
-119.166	-87.192	-0.316	-0.096
-118.151	78.985	0.130	-0.139
-117.137	-78.456	-0.143	0.049
-116.122	-200.000	-0.016	-0.150
-115.107	-200.000	-0.035	0.184
-114.093	42.343	-0.198	0.179
-113.078	-200.000	-0.050	0.495
-112.064	-48.836	-0.233	-0.111
-111.049	738.305	-0.130	0.346
-110.034	-105.073	0.191	-0.043
-109.020	130.114	0.125	0.159
-108.005	800.000	0.058	0.214
-106.991	-67.149	0.214	-0.084
-105.976	-200.000	0.002	0.108
-104.962	44.984	-0.065	0.060
-103.947	316.245	0.097	-0.182
-102.932	64.359	-0.226	0.226
-101.918	25.050	0.097	-0.080
-100.903	-40.016	0.197	0.102
-99.889	800.000	-0.036	0.134
-98.874	800.000	-0.060	-0.239
-97.859	-147.181	-0.395	0.033
-96.845	-200.000	0.002	0.035
-95.830	119.430	-0.138	0.170
-94.816	53.697	-0.078	-0.074
-93.801	-80.417	-0.316	-0.105
-92.786	-191.488	-0.289	0.003
-91.772	144.411	0.158	-0.210
-90.757	100.311	0.125	0.144
-89.743	193.191	-0.110	0.165
-88.728	209.917	0.162	0.252
-87.713	218.987	0.149	0.238
-86.699	-13.763	0.215	-0.138
-85.684	75.107	-0.066	-0.069
-84.670	84.675	-0.213	0.232
-83.655	-49.048	-0.268	-0.127
-82.640	800.000	0.016	-0.061
-81.626	-200.000	0.011	0.123
-80.611	219.303	-0.218	-0.346
-79.597	564.896	-0.053	0.127
-78.582	622.626	0.044	0.109
-77.567	27.361	0.164	0.137
-76.553	-200.000	0.007	-0.054
-75.538	111.159	0.131	0.156
-74.524	156.338	-0.092	0.126
-73.509	44.255	-0.151	0.138
-72.494	-200.000	0.050	-0.316
-71.480	-44.721	0.459	-0.228
-70.465	-121.454	0.219	0.036
-69.451	-152.707	0.287	-0.020
-68.436	-68.621	0.278	0.107
-67.422	-200.000	-0.037	-0.319
-66.407	198.001	-0.038	0.057
-65.392	-7.737	0.215	0.144
-64.378	-160.329	-0.151	0.008
-63.363	-89.029	0.086	-0.025
-62.349	16.444	-0.137	0.107
-61.334	126.968	-0.815	-1.027
-60.319	800.000	-0.046	-0.168
-59.305	800.000	-0.271	-0.942
-58.290	179.122	0.531	0.771
-57.276	81.397	0.998	1.071
-56.261	-200.000	87.743	498.478
-55.246	431.641	1422.083	3060.531
-54.232	140.356	2646.728	3468.730
-53.217	108.472	2253.993	2672.105
-52.203	47.808	1687.137	1564.220
-51.188	40.429	1414.773	1264.786
-50.173	37.138	1370.775	1205.013
-49.159	55.809	1414.173	1361.224
-48.144	60.187	1433.331	1407.218
-47.130	40.950	1390.695	1246.331
-46.115	37.135	1373.098	1206.841
-45.100	36.981	1367.975	1201.339
-44.086	36.950	1365.742	1199.134
-43.071	36.835	1363.141	1196.093
-42.057	36.855	1361.044	1194.333
-41.042	36.992	1359.011	1193.345
-40.027	37.057	1357.600	1192.455
-39.013	37.014	1355.629	1190.412
-37.998	37.146	1353.392	1189.213
-36.984	37.140	1351.641	1187.591
-35.969	37.107	1350.010	1185.907
-34.954	37.104	1348.175	1184.232
-33.940	37.151	1346.594	1183.080
-32.925	37.133	1345.463	1181.930
-31.911	37.215	1343.854	1180.971
-30.896	37.209	1342.466	1179.665
-29.881	37.302	1340.893	1178.801
-28.867	37.307	1339.147	1177.250
-27.852	37.255	1337.763	1175.670
-26.838	37.274	1336.136	1174.313
-25.823	37.301	1334.827	1173.279
-24.809	37.190	1333.667	1171.541
-23.794	37.266	1331.570	1170.108
-22.779	37.246	1330.244	1168.776
-21.765	37.187	1329.828	1168.010
-20.750	37.192	1327.820	1166.229
-19.736	37.170	1326.014	1164.464
-18.721	37.056	1325.196	1163.018
-17.706	37.036	1324.112	1161.902
-16.692	36.944	1323.214	1160.518
-15.677	37.047	1321.583	1159.654
-14.663	37.080	1320.275	1158.661
-13.648	37.014	1318.936	1157.045
-12.633	37.001	1318.352	1156.406
-11.619	36.971	1317.535	1155.467
-10.604	36.994	1316.366	1154.534
-9.590	37.019	1315.325	1153.722
-8.575	36.950	1314.562	1152.596
-7.560	36.997	1313.891	1152.242
-6.546	36.956	1313.042	1151.210
-5.531	36.979	1311.888	1150.288
-4.517	37.000	1310.558	1149.200
-3.502	37.050	1309.609	1148.621
-2.487	36.941	1308.923	1147.326
-1.473	37.085	1304.743	1144.468
-0.458	35.988	1289.756	1124.871
0.556	30.831	1270.265	1083.057
1.571	26.710	1274.164	1062.190
2.586	25.440	1288.573	1066.569
3.600	24.317	1277.868	1051.006
4.615	20.938	1207.429	974.132
5.629	15.769	1133.021	886.838
6.644	13.026	1112.981	856.854
7.659	12.780	1110.097	853.285
8.673	12.722	1108.789	851.902
9.688	12.752	1107.264	850.813
10.702	13.046	1105.675	851.031
11.717	16.304	1110.055	871.163
12.731	19.926	1114.615	893.391
13.746	19.388	1112.877	889.147
14.761	17.782	1110.011	878.516
15.775	16.684	1107.452	870.767
16.790	15.529	1105.482	863.205
17.804	14.770	1103.592	857.758
18.819	14.364	1102.599	854.827
19.834	13.938	1101.405	851.642
20.848	13.705	1100.424	849.618
21.863	13.498	1099.482	847.757
22.877	13.365	1099.206	846.785
23.892	13.402	1097.849	845.853
24.907	13.464	1097.189	845.587
25.921	13.359	1095.915	843.997
26.936	13.520	1094.729	843.828
27.950	13.514	1093.169	842.520
28.965	13.558	1091.999	841.767
29.980	13.606	1090.218	840.563
30.994	13.719	1088.722	839.910
32.009	13.700	1088.086	839.246
33.023	13.809	1086.613	838.588
34.038	13.567	1085.761	836.633
35.053	13.628	1084.816	836.138
36.067	13.481	1083.665	834.440
37.082	13.598	1082.826	834.305
38.096	13.600	1082.085	833.674
39.111	13.620	1081.405	833.176
40.126	13.434	1080.158	831.206
41.140	13.465	1078.925	830.340
42.155	13.281	1077.783	828.466
43.169	13.316	1076.628	827.680
44.184	13.245	1075.664	826.512
45.199	13.395	1074.362	826.184
46.213	13.317	1073.759	825.261
47.228	13.450	1072.180	824.636
48.242	13.443	1071.273	823.831
49.257	13.404	1070.037	822.614
50.271	13.587	1069.187	822.794
51.286	13.442	1068.728	821.650
52.301	13.418	1067.240	820.317
53.315	13.471	1066.185	819.694
54.330	13.392	1065.358	818.593
55.344	13.309	1064.830	817.708
56.359	13.378	1063.853	817.225
57.374	13.503	1062.168	816.476
58.388	13.445	1061.721	815.775
59.403	13.289	1060.891	814.297
60.417	13.270	1060.197	813.598
61.432	13.261	1059.960	813.296
62.447	13.297	1058.428	812.228
63.461	13.271	1057.482	811.302
64.476	13.173	1056.609	810.079
65.490	13.317	1055.533	809.889
66.505	13.284	1055.084	809.311
67.520	13.354	1054.424	809.075
68.534	13.299	1053.540	808.058
69.549	13.194	1053.333	807.312
70.563	13.295	1051.698	806.484
71.578	13.164	1051.467	805.595
72.593	13.220	1050.290	804.893
73.607	13.284	1049.713	804.692
74.622	13.158	1049.562	803.892
75.636	13.105	1048.595	802.821
76.651	13.234	1047.666	802.667
77.666	13.161	1047.221	801.901
78.680	13.217	1046.620	801.642
79.695	13.227	1045.851	801.032
80.709	13.391	1045.153	801.220
81.724	13.415	1044.025	800.401
82.739	13.488	1043.645	800.388
83.753	13.549	1042.689	799.881
84.768	13.639	1042.087	799.782
85.782	13.583	1041.044	798.641
86.797	13.521	1040.159	797.590
87.812	13.518	1038.803	796.466
88.826	13.473	1038.204	795.720
89.841	13.498	1037.228	795.025
90.855	13.705	1035.776	794.831
91.870	13.657	1035.432	794.266
92.884	13.630	1034.442	793.310
93.899	13.598	1033.788	792.583
94.914	13.615	1032.866	791.887
95.928	13.643	1032.005	791.293
96.943	13.643	1031.064	790.500
97.957	13.574	1030.279	789.499
98.972	13.560	1029.374	788.670
99.987	13.685	1028.333	788.397
101.001	13.616	1027.479	787.344
102.016	13.609	1026.309	786.343
103.030	13.594	1026.082	786.033
104.045	13.591	1024.969	785.095
105.060	13.680	1024.044	784.737
106.074	13.514	1023.254	783.276
107.089	13.400	1022.213	781.873
108.103	13.409	1021.089	780.987
109.118	13.424	1020.139	780.261
110.133	13.367	1019.101	779.131
111.147	13.229	1018.821	778.198
112.162	13.474	1017.320	778.133
113.176	13.501	1016.330	777.436
114.191	13.401	1016.264	776.847
115.206	13.460	1015.246	776.274
116.220	13.440	1014.552	775.584
117.235	13.398	1013.418	774.450
118.249	13.525	1012.552	774.313
119.264	13.486	1011.839	773.517
120.279	13.398	1011.339	772.655
121.293	13.394	1010.249	771.735
122.308	13.403	1009.398	771.059
123.322	13.458	1007.987	770.169
124.337	13.466	1007.248	769.577
125.352	13.350	1006.366	768.294
126.366	13.546	1004.805	767.942
127.381	13.419	1004.170	766.802
128.395	13.400	1003.374	766.038
129.410	13.480	1002.109	765.372
130.424	13.459	1001.395	764.665
131.439	13.530	1000.773	764.451
132.454	13.687	999.815	764.374
133.468	13.559	998.811	762.951
134.483	13.630	997.875	762.495
135.497	13.602	996.940	761.582
136.512	13.560	996.425	760.929
137.527	13.580	995.454	760.212
138.541	13.589	994.826	759.706
139.556	13.681	994.037	759.458
140.570	13.712	993.257	758.937
141.585	13.737	992.457	758.374
142.600	13.843	991.521	758.072
143.614	13.749	990.716	756.963
144.629	13.763	989.898	756.333
145.643	13.726	989.080	755.476
146.658	13.684	987.823	754.258
147.673	13.684	986.572	753.235
148.687	13.540	986.063	752.125
149.702	13.669	985.179	751.968
150.716	13.680	984.015	751.064
151.731	13.576	983.567	750.187
152.746	13.556	982.979	749.582
153.760	13.686	982.205	749.509
154.775	13.729	981.747	749.288
155.789	13.772	980.921	748.785
156.804	13.707	980.297	747.950
157.819	13.754	979.631	747.588
158.833	13.773	979.148	747.241
159.848	13.847	978.333	746.883
160.862	13.962	977.064	746.367
161.877	13.764	976.152	744.713
162.892	13.669	975.069	743.398
163.906	13.685	973.839	742.463
164.921	13.574	973.506	741.648
165.935	13.813	972.342	741.764
166.950	13.888	971.029	741.031
167.964	13.840	970.263	740.168
168.979	13.821	969.420	739.374
169.994	13.875	968.676	738.980
171.008	13.755	968.046	737.901
172.023	13.801	967.291	737.464
173.037	13.866	966.640	737.192
174.052	13.870	966.290	736.879
175.067	13.849	965.188	735.879
176.081	13.800	964.668	735.200
177.096	13.752	964.351	734.684
178.110	13.756	963.946	734.326
179.125	13.762	963.252	733.761
180.140	13.895	962.160	733.449
181.154	13.885	961.857	733.109
182.169	14.098	961.209	733.489
183.183	14.098	960.523	732.902
184.198	14.013	959.895	731.984
185.213	13.997	959.062	731.212
186.227	13.949	958.815	730.749
187.242	14.004	957.996	730.303
188.256	13.981	957.660	729.880
189.271	14.129	956.547	729.619
190.286	13.963	955.459	727.995
191.300	13.960	954.325	727.055
192.315	13.820	954.269	726.332
193.329	13.980	953.698	726.533
194.344	13.953	952.942	725.777
195.359	14.044	952.266	725.594
196.373	14.118	951.573	725.324
197.388	14.222	951.153	725.396
198.402	14.279	950.700	725.233
199.417	14.252	950.105	724.599
200.432	14.198	949.922	724.157
201.446	14.261	949.186	723.808
202.461	14.336	948.694	723.695
203.475	14.330	947.750	722.884
204.490	14.412	946.893	722.520
205.504	14.410	945.828	721.636
206.519	14.201	945.636	720.521
207.534	14.209	944.958	719.975
208.548	14.311	944.420	719.941
209.563	14.314	943.440	719.146
210.577	14.396	943.045	719.134
211.592	14.390	942.297	718.475
212.607	14.333	941.484	717.545
213.621	14.327	940.644	716.816
214.636	14.415	940.298	716.869
215.650	14.440	939.370	716.205
216.665	14.521	938.760	716.025
217.680	14.537	937.598	715.141
218.694	14.477	937.299	714.592
219.709	14.649	936.188	714.417
220.723	14.469	935.819	713.306
221.738	14.519	934.838	712.706
222.753	14.525	934.534	712.436
223.767	14.553	933.915	712.023
224.782	14.514	933.427	711.423
225.796	14.717	932.906	711.825
226.811	14.618	932.086	710.715
227.826	14.658	931.090	710.064
228.840	14.513	930.639	709.040
229.855	14.686	929.287	708.681
230.869	14.639	928.903	708.127
231.884	14.497	927.896	706.697
232.899	14.717	927.362	707.159
233.913	14.588	927.245	706.459
234.928	14.549	926.181	705.420
235.942	14.635	925.290	705.045
236.957	14.748	924.657	704.976
237.972	14.640	924.099	704.035
238.986	14.677	923.496	703.668
240.001	14.567	922.964	702.735
241.015	14.633	922.580	702.658
242.030	14.618	922.025	702.113
243.045	14.841	921.224	702.375
244.059	14.761	920.686	701.570
245.074	14.645	919.908	700.427
246.088	14.755	918.949	700.095
247.103	14.808	918.487	699.906
248.117	14.889	918.281	700.025
249.132	14.875	917.579	699.369
250.147	15.035	916.855	699.425
251.161	14.980	916.025	698.500
252.176	15.056	915.673	698.484
253.190	15.118	914.841	698.049
254.205	15.110	913.895	697.232
255.220	15.107	913.132	696.577
256.234	15.124	912.858	696.375
257.249	15.204	912.050	696.028
258.263	15.030	911.438	694.780
259.278	15.176	910.314	694.467
260.293	15.225	909.808	694.219
261.307	15.153	909.628	693.722
262.322	15.400	908.564	693.874
263.336	15.419	908.047	693.494
264.351	15.364	907.106	692.490
265.366	15.400	906.519	692.128
266.380	15.373	906.122	691.650
267.395	15.341	905.250	690.792
268.409	15.341	904.358	690.052
269.424	15.384	903.315	689.372
270.439	15.344	902.871	688.806
271.453	15.306	902.068	687.979
272.468	15.341	901.394	687.546
273.482	15.284	901.192	687.099
274.497	15.389	900.538	686.969
275.512	15.326	899.673	685.989
276.526	15.234	899.724	685.592
277.541	15.320	898.912	685.263
278.555	15.465	898.193	685.248
279.570	15.564	897.492	685.055
280.585	15.495	896.874	684.242
281.599	15.644	895.549	683.775
282.614	15.452	895.250	682.708
283.628	15.495	894.772	682.457
284.643	15.559	893.767	681.890
285.657	15.700	893.413	682.130
286.672	15.495	892.797	680.771
287.687	15.625	892.261	680.827
288.701	15.548	891.821	680.118
289.716	15.468	891.389	679.404
290.730	15.552	890.643	679.117
291.745	15.590	889.869	678.620
292.760	15.644	889.276	678.327
293.774	15.609	888.639	677.639
294.789	15.772	887.837	677.624
295.803	15.795	886.806	676.871
296.818	15.720	886.217	676.057
297.833	15.640	885.876	675.419
298.847	15.764	885.409	675.499
299.862	15.757	884.746	674.905
300.876	15.688	884.138	674.104
301.891	15.745	883.519	673.803
302.906	15.896	882.815	673.811
303.920	15.905	882.647	673.656
304.935	15.954	881.845	673.183
305.949	16.016	881.183	672.864
306.964	15.923	880.176	671.667
307.979	15.900	879.950	671.342
308.993	15.988	879.286	671.128
310.008	15.948	878.774	670.518
311.022	15.957	877.912	669.837
312.037	16.074	877.193	669.693
313.052	15.964	876.792	668.892
314.066	15.808	876.759	668.185
315.081	15.935	875.811	667.908
316.095	15.874	875.082	667.054
317.110	15.893	874.799	666.853
318.125	15.919	873.918	666.224
319.139	15.892	873.867	666.021
320.154	16.055	873.287	666.165
321.168	15.908	872.547	664.958
322.183	16.013	871.772	664.724
323.197	15.993	871.334	664.252
324.212	16.160	870.729	664.393
325.227	15.874	870.184	662.791
326.241	15.929	869.711	662.588
327.256	16.168	868.926	662.870
328.270	15.994	868.503	661.804
329.285	16.166	867.947	661.997
330.300	16.112	867.026	661.027
331.314	16.184	866.580	660.908
332.329	16.156	866.310	660.536
333.343	16.203	865.650	660.156
334.358	16.216	865.336	659.912
335.373	16.404	864.799	660.177
336.387	16.277	864.546	659.430
337.402	16.305	864.330	659.316
338.416	16.245	864.240	658.953
339.431	16.411	863.480	658.962
340.446	16.355	863.201	658.474
341.460	16.413	862.995	658.486
342.475	16.474	862.259	658.103
343.489	16.395	861.535	657.182
344.504	16.532	861.332	657.505
345.519	16.581	860.804	657.233
346.533	16.541	860.134	656.508
347.548	16.500	859.527	655.828
348.562	16.359	859.539	655.231
349.577	16.411	858.352	654.472
350.592	16.410	857.683	653.899
351.606	16.400	857.494	653.660
352.621	16.388	856.269	652.620
353.635	16.412	856.025	652.471
354.650	16.461	855.447	652.160
355.665	16.488	854.828	651.734
356.679	16.637	854.021	651.637
357.694	16.627	853.131	650.860
358.708	16.686	852.399	650.472
359.723	16.569	851.951	649.623
360.738	16.752	851.404	649.851
361.752	16.588	851.085	648.919
362.767	16.857	850.208	649.225
363.781	16.788	849.873	648.647
364.796	16.823	849.403	648.365
365.810	17.038	848.742	648.626
366.825	16.809	848.799	647.735
367.840	16.867	848.211	647.452
368.854	16.879	847.639	647.003
369.869	16.686	847.392	646.022
370.883	16.803	846.619	645.820
371.898	16.824	846.427	645.695
372.913	16.974	846.101	645.963
373.927	16.982	845.271	645.303
374.942	16.942	845.124	644.982
375.956	17.084	844.616	645.075
376.971	17.111	843.759	644.467
377.986	17.013	843.868	644.122
379.000	17.074	842.993	643.626
380.015	17.143	842.369	643.353
381.029	17.118	842.171	643.051
382.044	17.059	841.419	642.198
383.059	17.069	840.897	641.781
384.073	17.012	840.468	641.180
385.088	17.020	839.849	640.682
386.102	17.040	839.029	640.075
387.117	16.950	838.465	639.249
388.132	17.155	837.652	639.344
389.146	17.102	837.559	639.015
390.161	17.189	836.914	638.796
391.175	17.188	836.534	638.445
392.190	17.257	835.568	637.911
393.205	17.065	835.345	636.965
394.219	17.175	835.043	637.090
395.234	17.044	834.861	636.403
396.248	17.059	834.229	635.922
397.263	17.085	833.616	635.494
398.278	17.283	832.912	635.643
399.292	17.158	832.531	634.826
400.307	17.217	832.327	634.835
401.321	17.263	831.950	634.663
402.336	17.116	831.405	633.644
403.350	17.221	831.149	633.786
404.365	17.306	830.563	633.599
405.380	17.247	830.238	633.075
406.394	17.445	829.295	633.035
407.409	17.383	829.077	632.586
408.423	17.464	828.973	632.751
409.438	17.534	828.250	632.402
410.453	17.537	827.756	631.981
411.467	17.626	827.440	632.014
412.482	17.518	827.152	631.338
413.496	17.662	826.442	631.273
414.511	17.638	826.186	630.931
415.526	17.612	825.723	630.426
416.540	17.638	825.406	630.225
417.555	17.666	824.910	629.891
418.569	17.611	824.736	629.501
419.584	17.630	824.106	629.034
420.599	17.603	823.823	628.663
421.613	99.174	1281.049	1420.685
422.628	85.579	1347.656	1420.816
