DTS Sentinel unit serial number:	SN413079Multiplexer serial number:	ORYXHardware model number:	OX4-SRSoftware version number:	ORYX F/W v4.00 Oryx Data Collector v3.7.2.0data status	okinstallation	princeton_trtdifferential loss correction	single-endedforward channel	channel 1reverse channel	N/Adate	2019/09/17time	04:14:35forward acquisition time	60.00reverse acquisition time	0.00gamma	496.2192k internal	0.2323k external	0.2323temperature offset calibration	0.9961default loss term (dB/km)	0.3790temperature slope calibration	1.0000multiplexer offset coefficient	1.0000multiplexer slope coefficient	1.0000fibre end	0.00T internal ref (°C)	29.81T ext. ref 1 (°C)	0.14T ext. ref 2 (°C)	24.28length (m)	temperature (°C)	Stokes	anti-Stokes-747.200	66.705	-0.154	0.158
-746.185	200.859	0.214	0.333
-745.171	369.907	-0.062	0.127
-744.156	800.000	-0.056	0.159
-743.142	-96.269	0.133	-0.035
-742.127	-200.000	0.042	0.455
-741.112	237.930	-0.108	0.181
-740.098	240.505	0.106	0.178
-739.083	548.588	0.032	-0.076
-738.069	66.369	-0.148	0.152
-737.054	-9.921	-0.438	-0.294
-736.039	516.193	-0.093	-0.219
-735.025	-112.835	0.107	-0.021
-734.010	6.250	-0.247	0.185
-732.996	800.000	-0.040	-0.120
-731.981	391.356	-0.166	-0.348
-730.966	-47.888	-0.425	-0.208
-729.952	-200.000	-0.017	0.222
-728.937	-97.353	-0.256	-0.067
-727.923	9.436	-0.181	-0.138
-726.908	-73.266	-0.280	-0.104
-725.894	-13.048	-0.104	0.068
-724.879	800.000	-0.104	-0.335
-723.864	155.288	-0.079	0.110
-722.850	-167.797	0.197	-0.008
-721.835	96.937	0.234	-0.271
-720.821	-200.000	-0.031	-0.383
-719.806	-57.579	-0.096	0.043
-718.791	-138.268	-0.066	-0.007
-717.777	642.661	-0.084	-0.217
-716.762	-200.000	-0.018	-0.317
-715.748	-107.787	-0.048	-0.010
-714.733	-85.247	-0.346	-0.109
-713.718	122.351	0.226	0.285
-712.704	-4.442	-0.163	-0.113
-711.689	-31.307	0.208	0.118
-710.675	-156.973	-0.142	-0.009
-709.660	69.198	-0.271	0.281
-708.645	-49.997	-0.314	0.150
-707.631	-29.607	-0.166	-0.096
-706.616	-120.808	-0.040	-0.007
-705.602	37.041	0.191	0.170
-704.587	800.000	0.054	-0.222
-703.572	27.185	-0.238	-0.201
-702.558	146.468	-0.135	0.182
-701.543	-200.000	0.009	0.339
-700.529	800.000	-0.039	0.162
-699.514	317.634	-0.137	-0.261
-698.499	63.532	0.246	-0.249
-697.485	460.152	-0.214	-0.480
-696.470	800.000	-0.112	0.337
-695.456	-53.847	0.100	-0.046
-694.441	800.000	-0.048	0.167
-693.426	206.829	-0.049	-0.077
-692.412	-123.494	-0.424	-0.068
-691.397	-18.789	-0.225	-0.141
-690.383	0.890	-0.136	-0.098
-689.368	29.063	0.156	-0.134
-688.354	141.582	-0.094	-0.125
-687.339	60.590	0.058	-0.058
-686.324	724.856	-0.077	0.207
-685.310	800.000	-0.058	0.237
-684.295	312.920	-0.210	-0.398
-683.281	89.131	0.059	0.066
-682.266	-80.513	-0.118	-0.039
-681.251	-36.146	-0.115	-0.062
-680.237	-115.496	-0.140	0.026
-679.222	202.968	0.116	-0.181
-678.208	37.208	-0.251	0.224
-677.193	800.000	0.038	0.163
-676.178	-154.684	-0.367	0.025
-675.164	163.743	0.025	-0.035
-674.149	293.796	0.013	0.023
-673.135	162.676	-0.139	-0.196
-672.120	2.711	0.391	-0.286
-671.105	49.478	0.150	-0.142
-670.091	228.196	0.129	-0.211
-669.076	-200.000	0.010	0.191
-668.062	68.274	0.065	0.067
-667.047	431.886	0.059	-0.128
-666.032	-146.404	0.081	0.007
-665.018	-25.872	-0.085	-0.051
-664.003	331.446	0.069	-0.133
-662.989	-123.123	-0.410	0.066
-661.974	-153.392	-0.344	-0.024
-660.959	24.187	0.133	0.111
-659.945	499.198	-0.071	0.165
-658.930	414.929	0.043	0.092
-657.916	800.000	-0.014	-0.045
-656.901	473.754	-0.119	-0.270
-655.886	66.796	-0.351	0.359
-654.872	-179.960	0.335	-0.007
-653.857	203.238	-0.103	0.160
-652.843	800.000	-0.054	0.209
-651.828	-53.847	-0.179	0.082
-650.814	-75.085	-0.435	-0.157
-649.799	-45.964	-0.164	0.082
-648.784	800.000	-0.055	0.167
-647.770	120.813	0.154	-0.192
-646.755	-69.881	0.370	-0.142
-645.741	392.512	-0.193	0.404
-644.726	119.097	-0.204	0.254
-643.711	-200.000	-0.019	-0.192
-642.697	-25.911	-0.240	-0.142
-641.682	116.756	0.081	-0.100
-640.668	-163.187	-0.112	-0.005
-639.653	596.587	0.089	0.223
-638.638	148.172	0.066	-0.090
-637.624	-200.000	-0.048	-0.280
-636.609	338.647	-0.083	-0.163
-635.595	108.580	-0.314	-0.378
-634.580	-25.996	-0.110	0.065
-633.565	36.585	0.083	-0.074
-632.551	48.133	0.260	0.244
-631.536	-92.310	-0.162	-0.046
-630.522	800.000	-0.049	0.205
-629.507	-53.907	-0.082	0.038
-628.492	48.210	-0.126	0.118
-627.478	-78.718	-0.466	0.160
-626.463	-69.098	0.094	0.036
-625.449	86.789	0.199	0.221
-624.434	-18.690	0.295	0.185
-623.419	378.927	0.160	-0.328
-622.405	-8.975	-0.347	0.234
-621.390	-200.000	0.014	0.192
-620.376	-200.000	0.006	0.056
-619.361	261.659	-0.072	0.126
-618.346	-162.770	-0.180	0.009
-617.332	89.706	-0.119	0.134
-616.317	89.658	0.155	0.174
-615.303	-8.924	-0.255	-0.172
-614.288	-170.413	0.201	0.007
-613.273	-92.360	-0.161	-0.046
-612.259	800.000	-0.068	0.200
-611.244	-42.060	-0.340	0.175
-610.230	29.866	-0.196	-0.167
-609.215	28.378	-0.196	0.167
-608.201	295.295	-0.050	-0.092
-607.186	257.855	0.099	0.171
-606.171	2.329	0.235	0.171
-605.157	246.108	-0.184	0.311
-604.142	-200.000	-0.047	-0.304
-603.128	124.309	0.196	-0.247
-602.113	-180.356	0.300	-0.006
-601.098	95.960	-0.155	-0.178
-600.084	-200.000	-0.055	0.326
-599.069	800.000	0.147	0.409
-598.055	-200.000	-0.012	-0.165
-597.040	-14.027	0.356	-0.231
-596.025	70.500	0.172	-0.179
-595.011	-108.172	0.180	-0.039
-593.996	-9.378	0.052	-0.035
-592.982	800.000	-0.044	-0.190
-591.967	121.771	-0.243	-0.304
-590.952	168.112	-0.113	-0.162
-589.938	-8.505	0.183	-0.124
-588.923	585.456	0.153	-0.377
-587.909	-76.053	0.331	0.117
-586.894	128.635	-0.146	-0.186
-585.879	-114.037	0.221	-0.043
-584.865	239.997	-0.072	0.120
-583.850	-61.720	-0.170	-0.071
-582.836	800.000	-0.033	0.097
-581.821	-136.498	-0.312	0.036
-580.806	-200.000	0.022	0.170
-579.792	13.510	-0.220	-0.171
-578.777	800.000	0.111	-0.310
-577.763	627.098	0.052	-0.132
-576.748	-24.994	-0.224	-0.133
-575.733	-200.000	0.028	-0.307
-574.719	42.754	0.052	0.048
-573.704	59.805	0.194	-0.193
-572.690	-52.271	-0.243	-0.113
-571.675	-79.042	0.110	-0.037
-570.661	-111.067	-0.447	-0.092
-569.646	-200.000	-0.066	0.398
-568.631	-200.000	-0.076	0.561
-567.617	-200.000	-0.006	-0.119
-566.602	79.524	-0.247	-0.265
-565.588	-39.649	0.347	-0.182
-564.573	189.968	0.104	0.157
-563.558	375.995	0.088	-0.181
-562.544	-200.000	-0.003	-0.087
-561.529	800.000	0.117	0.359
-560.515	-91.664	-0.221	0.063
-559.500	29.753	0.048	0.041
-558.485	114.313	-0.116	0.142
-557.471	800.000	0.114	-0.330
-556.456	244.798	0.220	0.370
-555.442	65.285	-0.159	0.161
-554.427	-20.368	0.083	-0.051
-553.412	479.523	-0.169	-0.384
-552.398	-2.779	0.102	0.072
-551.383	743.009	-0.036	-0.096
-550.369	-200.000	-0.009	0.180
-549.354	-167.343	-0.101	-0.004
-548.339	345.592	0.057	0.112
-547.325	209.331	-0.181	-0.285
-546.310	-33.021	0.083	-0.046
-545.296	-103.102	0.124	0.029
-544.281	800.000	0.121	0.371
-543.266	800.000	-0.110	0.398
-542.252	473.579	0.060	-0.136
-541.237	-178.347	0.167	-0.004
-540.223	-127.208	-0.084	-0.012
-539.208	-15.613	-0.158	-0.101
-538.193	800.000	0.061	0.181
-537.179	169.269	0.166	0.238
-536.164	224.654	-0.161	0.261
-535.150	72.108	-0.270	0.282
-534.135	800.000	-0.062	-0.224
-533.121	465.303	-0.107	-0.239
-532.106	-200.000	-0.017	0.208
-531.091	-200.000	0.001	-0.187
-530.077	-69.512	-0.223	0.086
-529.062	-200.000	0.014	0.090
-528.048	242.260	0.081	-0.136
-527.033	187.299	-0.126	-0.189
-526.018	484.872	-0.017	0.039
-525.004	422.017	0.161	0.347
-523.989	-151.830	0.302	0.022
-522.975	-112.568	-0.299	-0.060
-521.960	-200.000	0.047	0.367
-520.945	379.045	-0.071	0.146
-519.931	407.152	-0.075	0.159
-518.916	317.119	0.101	0.192
-517.902	800.000	0.060	0.168
-516.887	-44.700	-0.165	0.082
-515.872	-109.477	0.175	-0.037
-514.858	15.709	-0.081	0.064
-513.843	-200.000	-0.048	-0.465
-512.829	616.059	0.064	-0.162
-511.814	-105.492	-0.252	0.057
-510.799	800.000	-0.056	0.222
-509.785	-200.000	0.029	0.143
-508.770	318.483	-0.151	0.286
-507.756	-200.000	-0.001	0.129
-506.741	-200.000	0.000	-0.203
-505.726	659.784	0.139	-0.358
-504.712	18.882	-0.240	-0.192
-503.697	173.023	-0.134	0.193
-502.683	-69.317	0.179	-0.069
-501.668	-200.000	-0.010	0.048
-500.653	-157.229	-0.247	0.015
-499.639	147.985	0.128	0.173
-498.624	-200.000	-0.036	0.177
-497.610	-19.955	0.053	-0.033
-496.595	456.977	-0.122	0.270
-495.581	-78.296	0.283	-0.097
-494.566	-112.077	-0.115	-0.023
-493.551	-200.000	0.060	0.289
-492.537	43.855	0.215	-0.197
-491.522	-182.275	-0.145	0.003
-490.508	-200.000	-0.019	0.467
-489.493	-153.535	0.363	0.025
-488.478	800.000	0.041	0.169
-487.464	-88.862	0.209	-0.062
-486.449	276.354	-0.133	0.237
-485.435	-200.000	-0.005	-0.103
-484.420	-33.924	0.252	-0.139
-483.405	-34.682	-0.152	0.083
-482.391	-64.428	-0.231	-0.094
-481.376	-200.000	0.009	-0.149
-480.362	-200.000	-0.023	0.207
-479.347	-200.000	0.058	0.427
-478.332	-33.332	0.093	-0.052
-477.318	118.290	-0.106	-0.130
-476.303	-98.675	0.103	-0.026
-475.289	800.000	0.023	-0.094
-474.274	233.968	-0.077	-0.127
-473.259	146.288	-0.227	-0.304
-472.245	800.000	-0.033	-0.102
-471.230	-67.643	0.232	0.091
-470.216	27.646	-0.256	-0.215
-469.201	68.066	-0.129	0.132
-468.186	800.000	0.104	0.321
-467.172	164.481	0.204	0.287
-466.157	-200.000	-0.023	-0.201
-465.143	-200.000	-0.009	-0.098
-464.128	-102.742	-0.115	0.027
-463.113	-200.000	-0.034	-0.465
-462.099	-22.383	-0.486	0.294
-461.084	-109.331	-0.112	-0.024
-460.070	225.856	0.141	0.229
-459.055	59.416	-0.260	-0.256
-458.040	800.000	-0.054	-0.184
-457.026	391.576	0.082	-0.170
-456.011	355.348	-0.070	0.138
-454.997	178.411	-0.153	0.223
-453.982	-95.108	0.239	0.064
-452.968	-83.023	-0.133	0.043
-451.953	606.146	0.090	-0.225
-450.938	-200.000	-0.016	-0.073
-449.924	-17.077	-0.202	0.128
-448.909	644.051	-0.058	0.149
-447.895	-113.563	-0.042	0.008
-446.880	288.956	0.062	-0.113
-445.865	256.746	0.232	0.398
-444.851	800.000	0.051	-0.182
-443.836	-46.539	0.183	0.090
-442.822	-109.497	-0.147	-0.031
-441.807	-3.863	-0.077	-0.053
-440.792	-70.053	-0.048	0.018
-439.778	142.801	-0.040	-0.053
-438.763	89.779	-0.098	0.110
-437.749	177.583	0.224	-0.326
-436.734	0.159	0.216	0.154
-435.719	-157.003	0.340	-0.021
-434.705	-200.000	-0.017	0.176
-433.690	61.955	0.176	-0.175
-432.676	-60.826	0.052	-0.022
-431.661	-190.523	0.198	-0.002
-430.646	-54.780	0.261	-0.117
-429.632	800.000	-0.019	-0.053
-428.617	800.000	-0.073	0.226
-427.603	-121.095	0.325	-0.054
-426.588	-138.929	-0.199	-0.022
-425.573	238.416	0.101	0.167
-424.559	32.331	-0.075	0.065
-423.544	261.421	-0.091	0.157
-422.530	-200.000	-0.034	-0.393
-421.515	60.072	-0.055	0.054
-420.500	-73.381	-0.157	0.057
-419.486	541.662	0.039	-0.092
-418.471	-200.000	-0.022	0.193
-417.457	654.372	-0.103	-0.262
-416.442	-200.000	0.027	0.216
-415.428	102.497	-0.163	-0.191
-414.413	-200.000	-0.106	-0.481
-413.398	7.159	-0.298	-0.222
-412.384	-75.719	0.293	0.104
-411.369	-200.000	0.044	0.240
-410.355	800.000	0.045	-0.150
-409.340	15.448	-0.127	-0.100
-408.325	393.428	-0.101	-0.210
-407.311	800.000	0.098	-0.301
-406.296	-200.000	-0.059	0.551
-405.282	101.588	0.124	-0.144
-404.267	798.036	-0.037	0.103
-403.252	-20.989	0.064	0.039
-402.238	519.781	0.010	-0.024
-401.223	-200.000	0.018	-0.104
-400.209	-200.000	-0.026	-0.222
-399.194	-138.525	-0.078	-0.009
-398.179	318.329	-0.138	0.259
-397.165	106.807	0.166	0.196
-396.150	-44.430	0.312	-0.156
-395.136	-105.421	-0.409	0.093
-394.121	-200.000	0.050	-0.232
-393.106	-160.129	0.076	0.004
-392.092	-200.000	-0.066	0.290
-391.077	98.815	0.186	0.214
-390.063	-17.360	0.162	0.102
-389.048	800.000	0.075	-0.303
-388.033	-104.011	0.047	0.011
-387.019	-116.746	-0.141	0.026
-386.004	-7.709	-0.098	0.066
-384.990	-75.548	-0.166	0.059
-383.975	310.824	-0.015	0.029
-382.960	-94.567	0.128	0.035
-381.946	348.096	0.028	-0.055
-380.931	-200.000	0.047	0.210
-379.917	-87.121	-0.355	-0.107
-378.902	435.761	-0.073	-0.158
-377.888	-200.000	-0.046	0.390
-376.873	339.189	0.164	0.318
-375.858	498.556	-0.068	-0.156
-374.844	127.448	0.054	-0.069
-373.829	422.056	0.113	-0.242
-372.815	337.352	-0.069	0.133
-371.800	153.982	0.056	-0.077
-370.785	-9.018	0.022	0.015
-369.771	563.466	-0.050	0.120
-368.756	800.000	-0.077	-0.226
-367.742	64.610	-0.232	-0.232
-366.727	-100.499	-0.093	-0.023
-365.712	52.514	-0.094	-0.090
-364.698	800.000	-0.101	-0.376
-363.683	15.393	0.313	-0.244
-362.669	-133.746	0.177	-0.022
-361.654	-39.300	-0.104	-0.054
-360.639	800.000	0.056	0.212
-359.625	-184.718	-0.027	-0.000
-358.610	-200.000	0.021	-0.105
-357.596	-67.941	0.328	0.127
-356.581	17.807	-0.177	0.140
-355.566	-200.000	-0.001	-0.105
-354.552	-92.475	-0.026	-0.007
-353.537	-65.361	0.136	-0.054
-352.523	-168.547	-0.132	0.005
-351.508	-68.908	-0.177	0.068
-350.493	80.918	0.158	0.170
-349.479	17.520	-0.213	0.168
-348.464	-23.666	-0.157	-0.093
-347.450	458.249	0.232	-0.513
-346.435	-110.982	0.226	-0.046
-345.420	-19.528	0.098	-0.060
-344.406	800.000	0.056	0.202
-343.391	-30.940	0.136	0.077
-342.377	133.635	-0.044	0.057
-341.362	-135.674	-0.126	0.015
-340.348	94.213	-0.047	-0.053
-339.333	-170.158	-0.106	0.004
-338.318	-78.415	0.296	0.101
-337.304	-131.904	-0.183	-0.024
-336.289	6.922	-0.185	0.137
-335.275	800.000	0.033	0.138
-334.260	209.912	-0.081	0.127
-333.245	-19.406	0.190	-0.117
-332.231	-90.722	-0.147	-0.042
-331.216	800.000	-0.150	-0.537
-330.202	38.403	-0.157	0.139
-329.187	-42.859	0.255	-0.128
-328.172	-200.000	0.042	-0.202
-327.158	-47.677	-0.088	0.042
-326.143	321.378	0.248	0.468
-325.129	800.000	0.111	-0.326
-324.114	7.804	0.276	0.205
-323.099	193.351	-0.142	0.214
-322.085	179.363	0.101	0.147
-321.070	800.000	0.010	-0.032
-320.056	-173.084	0.256	0.008
-319.041	-72.755	0.200	-0.073
-318.026	371.428	-0.024	-0.048
-317.012	183.174	0.220	0.322
-315.997	-192.404	-0.292	-0.003
-314.983	800.000	-0.037	-0.144
-313.968	771.606	-0.104	-0.281
-312.953	-133.663	-0.260	0.032
-311.939	-137.437	-0.104	0.012
-310.924	300.247	0.045	0.082
-309.910	-151.727	-0.215	0.016
-308.895	-29.139	-0.210	0.119
-307.880	-108.528	-0.039	-0.008
-306.866	169.701	-0.188	-0.267
-305.851	280.298	-0.091	-0.161
-304.837	-200.000	0.284	-0.000
-303.822	-84.350	-0.259	-0.081
-302.807	-24.556	0.232	-0.137
-301.793	-200.000	-0.032	0.140
-300.778	-200.000	-0.032	0.323
-299.764	729.341	-0.015	0.039
-298.749	-200.000	-0.078	-0.371
-297.735	81.400	-0.183	-0.196
-296.720	-155.512	-0.304	-0.019
-295.705	-88.958	0.346	0.102
-294.691	534.350	-0.034	-0.080
-293.676	48.456	0.060	-0.056
-292.662	-28.949	0.145	-0.083
-291.647	184.831	0.098	0.144
-290.632	5.303	0.177	-0.130
-289.618	195.027	0.019	-0.028
-288.603	161.717	-0.121	0.168
-287.589	-200.000	-0.029	-0.287
-286.574	800.000	-0.018	0.060
-285.559	-167.508	-0.212	0.008
-284.545	-36.562	0.191	-0.102
-283.530	101.756	0.154	-0.178
-282.516	-51.783	-0.246	0.114
-281.501	512.854	-0.130	0.301
-280.486	-200.000	0.037	-0.332
-279.472	-61.152	0.138	-0.058
-278.457	-104.908	-0.265	-0.060
-277.443	-13.224	-0.135	-0.087
-276.428	800.000	-0.040	-0.143
-275.413	800.000	-0.073	-0.209
-274.399	-132.264	0.094	0.012
-273.384	220.381	0.195	0.310
-272.370	-96.804	-0.254	-0.066
-271.355	131.409	0.318	-0.406
-270.340	126.938	-0.048	-0.061
-269.326	80.732	0.353	-0.377
-268.311	800.000	-0.083	-0.317
-267.297	-98.421	0.102	-0.026
-266.282	-103.118	-0.212	0.050
-265.267	-200.000	0.049	-0.415
-264.253	42.289	0.255	0.229
-263.238	246.854	-0.065	-0.108
-262.224	-100.527	0.084	-0.020
-261.209	90.343	-0.197	-0.219
-260.195	1.538	-0.210	-0.149
-259.180	-51.559	0.128	0.059
-258.165	-73.155	0.088	0.032
-257.151	800.000	0.085	-0.292
-256.136	725.069	-0.179	-0.474
-255.122	41.231	0.341	0.305
-254.107	-81.494	-0.101	-0.033
-253.092	-21.944	-0.167	-0.101
-252.078	396.385	0.162	-0.336
-251.063	90.962	-0.163	-0.181
-250.049	-108.840	0.557	0.118
-249.034	-27.049	-0.012	-0.007
-248.019	18.337	0.329	0.260
-247.005	625.324	0.022	-0.054
-245.990	-200.000	-0.000	-0.029
-244.976	-160.899	0.366	0.019
-243.961	-54.798	0.329	-0.147
-242.946	78.353	-0.144	0.152
-241.932	-148.617	0.232	-0.019
-240.917	-200.000	-0.038	-0.187
-239.903	-200.000	-0.010	-0.046
-238.888	35.071	-0.147	0.127
-237.873	-133.682	0.314	0.039
-236.859	-85.961	-0.179	-0.055
-235.844	-200.000	-0.000	0.190
-234.830	-200.000	-0.008	-0.118
-233.815	89.283	0.149	-0.164
-232.800	165.793	0.171	-0.240
-231.786	508.138	-0.112	-0.256
-230.771	-86.195	-0.269	0.082
-229.757	-65.014	-0.361	0.144
-228.742	179.880	-0.216	0.313
-227.727	418.947	0.158	0.334
-226.713	174.623	0.193	-0.276
-225.698	-85.682	0.418	0.129
-224.684	-19.488	0.231	-0.142
-223.669	-89.971	0.070	0.020
-222.655	-3.792	-0.341	0.234
-221.640	-50.350	-0.174	0.081
-220.625	646.418	0.126	-0.319
-219.611	45.825	0.156	0.143
-218.596	-83.832	-0.101	-0.032
-217.582	-106.027	0.272	-0.061
-216.567	-65.668	0.204	0.081
-215.552	225.137	-0.061	0.097
-214.538	800.000	-0.040	0.150
-213.523	-200.000	-0.054	0.458
-212.509	73.343	-0.216	0.223
-211.494	2.741	-0.119	-0.085
-210.479	297.462	-0.055	-0.101
-209.465	-186.332	-0.137	0.002
-208.450	-200.000	0.014	-0.118
-207.436	46.032	0.301	-0.276
-206.421	800.000	0.074	0.224
-205.406	-119.200	0.158	0.027
-204.392	127.598	-0.142	0.178
-203.377	-87.691	0.420	-0.125
-202.363	496.121	0.135	0.308
-201.348	84.058	0.195	0.210
-200.333	-90.118	-0.102	-0.029
-199.319	-61.818	-0.215	0.089
-198.304	-62.616	-0.123	0.050
-197.290	-119.172	-0.411	-0.071
-196.275	-68.907	0.151	-0.058
-195.260	-127.196	-0.166	-0.024
-194.246	8.459	-0.048	-0.036
-193.231	-158.834	0.369	0.021
-192.217	800.000	-0.105	-0.310
-191.202	800.000	-0.142	-0.442
-190.187	800.000	-0.044	0.149
-189.173	-68.515	-0.478	0.183
-188.158	-141.651	0.261	0.026
-187.144	-98.928	0.049	0.012
-186.129	-102.960	0.203	-0.048
-185.114	-11.456	-0.064	0.042
-184.100	0.463	0.218	0.154
-183.085	800.000	0.061	0.208
-182.071	-54.903	-0.161	0.072
-181.056	-126.141	-0.113	0.017
-180.042	-161.913	-0.219	0.011
-179.027	47.957	0.120	0.111
-178.012	-17.017	0.219	-0.136
-176.998	-76.397	0.206	-0.072
-175.983	800.000	-0.031	-0.103
-174.969	39.196	-0.223	-0.197
-173.954	-200.000	0.010	-0.081
-172.939	-35.589	0.211	0.113
-171.925	522.950	-0.043	-0.100
-170.910	-200.000	-0.018	0.216
-169.896	73.792	-0.113	0.117
-168.881	334.651	0.165	-0.315
-167.866	39.996	-0.050	0.045
-166.852	-101.239	0.084	0.020
-165.837	87.226	-0.032	0.035
-164.823	-200.000	0.044	0.295
-163.808	-106.557	0.181	0.040
-162.793	800.000	0.115	0.394
-161.779	481.075	0.061	-0.136
-160.764	-200.000	-0.057	-0.429
-159.750	-181.028	0.168	-0.003
-158.735	180.336	0.150	0.217
-157.720	70.367	0.116	0.118
-156.706	-98.209	-0.106	0.027
-155.691	6.773	-0.047	-0.034
-154.677	-200.000	0.026	0.182
-153.662	-200.000	0.016	0.404
-152.647	467.308	0.144	0.318
-151.633	-17.176	-0.226	-0.141
-150.618	141.887	0.266	0.348
-149.604	-200.000	0.007	-0.245
-148.589	596.431	-0.023	0.056
-147.574	75.551	0.254	-0.265
-146.560	-200.000	0.021	0.274
-145.545	-108.984	-0.220	-0.046
-144.531	-10.351	-0.252	0.165
-143.516	-86.234	0.168	-0.051
-142.502	800.000	0.024	0.104
-141.487	52.812	0.216	-0.203
-140.472	368.003	-0.171	0.341
-139.458	-200.000	-0.068	0.483
-138.443	-200.000	0.035	0.247
-137.429	-148.576	-0.265	0.021
-136.414	447.654	-0.067	-0.145
-135.399	-18.045	-0.063	0.039
-134.385	326.128	0.161	0.304
-133.370	-127.155	-0.108	0.016
-132.356	110.801	-0.269	-0.319
-131.341	478.305	0.104	-0.232
-130.326	367.509	0.063	0.125
-129.312	-200.000	-0.012	0.234
-128.297	-200.000	-0.108	0.599
-127.283	-200.000	0.039	-0.260
-126.268	567.498	-0.143	0.343
-125.253	-200.000	-0.027	-0.428
-124.239	154.748	0.195	-0.264
-123.224	-134.792	-0.330	0.039
-122.210	119.059	0.200	-0.244
-121.195	800.000	-0.097	0.271
-120.180	-13.970	0.093	-0.059
-119.166	217.233	0.102	-0.160
-118.151	-200.000	0.030	-0.293
-117.137	-97.072	0.131	0.034
-116.122	-124.874	-0.217	-0.033
-115.107	139.114	0.137	-0.177
-114.093	-71.351	-0.199	-0.073
-113.078	-200.000	0.018	-0.221
-112.064	131.995	0.300	0.380
-111.049	-200.000	0.005	-0.148
-110.034	-200.000	0.033	0.227
-109.020	304.459	0.108	-0.197
-108.005	-155.901	0.214	0.013
-106.991	-63.783	-0.268	-0.108
-105.976	800.000	-0.006	0.019
-104.962	-42.314	-0.149	-0.075
-103.947	-104.858	-0.317	0.072
-102.932	2.499	-0.063	-0.045
-101.918	-11.899	-0.137	-0.088
-100.903	-86.223	0.453	0.137
-99.889	197.568	0.150	-0.226
-98.874	-150.641	-0.055	0.004
-97.859	-66.073	0.169	-0.066
-96.845	390.332	0.090	0.184
-95.830	800.000	-0.108	0.302
-94.816	-200.000	0.001	-0.012
-93.801	36.949	-0.363	0.316
-92.786	-61.924	0.190	-0.078
-91.772	345.231	-0.092	-0.178
-90.757	156.208	-0.013	-0.017
-89.743	107.012	0.188	0.220
-88.728	-10.538	0.054	-0.035
-87.713	37.807	0.202	-0.176
-86.699	-177.722	0.040	-0.001
-85.684	-22.934	0.182	0.108
-84.670	272.190	0.126	-0.219
-83.655	480.529	-0.175	0.390
-82.640	18.972	-0.148	-0.117
-81.626	-118.505	0.162	0.028
-80.611	213.105	0.171	-0.266
-79.597	365.746	-0.115	-0.229
-78.582	-148.470	0.441	-0.036
-77.567	-149.731	-0.146	-0.011
-76.553	92.307	0.233	0.258
-75.538	34.078	-0.195	0.167
-74.524	344.921	0.125	-0.241
-73.509	-39.312	-0.158	0.082
-72.494	540.288	0.055	0.130
-71.480	-46.453	-0.190	-0.092
-70.465	57.490	0.253	-0.244
-69.451	-15.561	-0.256	0.160
-68.436	462.618	0.048	0.106
-67.422	-82.169	0.183	0.059
-66.407	-181.360	-0.166	0.003
-65.392	-4.034	0.009	-0.006
-64.378	33.296	-0.162	0.139
-63.363	-200.000	-0.030	0.406
-62.349	-127.448	-0.109	0.016
-61.334	171.784	-0.805	-1.136
-60.319	45.380	0.385	0.349
-59.305	388.788	-0.353	-0.719
-58.290	35.876	0.875	0.756
-57.276	291.254	0.845	1.511
-56.261	-200.000	107.691	588.428
-55.246	452.041	1472.234	3198.968
-54.232	147.588	2655.515	3516.637
-53.217	106.451	2159.690	2516.779
-52.203	41.312	1607.408	1428.775
-51.188	33.309	1346.506	1148.504
-50.173	30.202	1305.715	1095.345
-49.159	54.079	1358.272	1283.837
-48.144	54.863	1373.553	1302.942
-47.130	33.373	1329.437	1134.149
-46.115	29.955	1311.807	1098.820
-45.100	29.841	1306.863	1093.958
-44.086	29.662	1304.850	1091.175
-43.071	29.753	1301.857	1089.166
-42.057	29.649	1299.930	1086.898
-41.042	29.738	1297.970	1085.737
-40.027	29.702	1296.661	1084.390
-39.013	29.771	1294.664	1083.079
-37.998	29.774	1292.803	1081.497
-36.984	29.830	1291.151	1080.399
-35.969	29.850	1289.281	1078.909
-34.954	29.756	1288.306	1077.501
-33.940	29.833	1286.549	1076.436
-32.925	29.918	1285.202	1075.765
-31.911	29.872	1284.151	1074.574
-30.896	29.949	1282.125	1073.284
-29.881	29.910	1281.068	1072.127
-28.867	30.038	1279.432	1071.457
-27.852	29.931	1278.442	1069.969
-26.838	29.893	1276.781	1068.316
-25.823	29.968	1275.101	1067.298
-24.809	29.973	1274.026	1066.383
-23.794	29.864	1273.322	1065.129
-22.779	29.810	1271.988	1063.659
-21.765	29.815	1270.873	1062.713
-20.750	29.862	1269.291	1061.614
-19.736	29.765	1267.784	1059.759
-18.721	29.721	1266.461	1058.357
-17.706	29.743	1265.791	1057.883
-16.692	29.796	1264.280	1056.879
-15.677	29.818	1263.223	1056.079
-14.663	29.808	1262.368	1055.265
-13.648	29.632	1261.242	1053.278
-12.633	29.677	1260.304	1052.712
-11.619	29.755	1259.091	1052.098
-10.604	29.875	1258.210	1052.004
-9.590	29.741	1257.554	1050.651
-8.575	29.748	1256.004	1049.358
-7.560	29.724	1255.195	1048.500
-6.546	29.791	1254.602	1048.348
-5.531	29.632	1253.881	1046.803
-4.517	29.881	1252.695	1047.179
-3.502	29.801	1251.786	1045.924
-2.487	29.798	1251.235	1045.403
-1.473	29.704	1247.040	1041.331
-0.458	28.266	1232.157	1020.853
0.556	22.930	1215.229	982.721
1.571	19.225	1221.582	967.010
2.586	18.357	1236.185	973.555
3.600	18.198	1225.380	964.061
4.615	13.452	1152.712	881.589
5.629	4.711	1077.166	780.077
6.644	0.476	1057.156	744.649
7.659	0.077	1055.071	741.148
8.673	-0.009	1053.932	739.860
9.688	-0.004	1052.706	738.958
10.702	0.358	1050.426	739.065
11.717	5.474	1057.539	769.208
12.731	13.905	1068.273	818.666
13.746	17.454	1072.276	839.196
14.761	17.090	1071.034	836.353
15.775	15.988	1069.193	829.422
16.790	14.940	1067.430	822.827
17.804	14.322	1065.395	818.151
18.819	14.044	1064.206	815.799
19.834	13.804	1063.369	813.910
20.848	13.441	1062.833	811.650
21.863	13.275	1061.873	810.027
22.877	13.094	1061.096	808.478
23.892	12.947	1060.358	807.129
24.907	13.027	1059.866	807.069
25.921	13.056	1058.689	806.246
26.936	13.143	1058.105	806.153
27.950	13.160	1057.002	805.325
28.965	13.325	1055.876	805.197
29.980	13.356	1054.613	804.317
30.994	13.307	1053.786	803.373
32.009	13.344	1052.806	802.736
33.023	13.341	1051.758	801.853
34.038	13.217	1050.605	800.301
35.053	13.154	1049.878	799.374
36.067	13.232	1048.907	798.941
37.082	13.385	1047.870	798.820
38.096	13.309	1047.383	798.011
39.111	13.199	1046.701	796.891
40.126	13.334	1045.135	796.274
41.140	13.136	1044.533	794.794
42.155	13.090	1043.046	793.370
43.169	13.026	1042.504	792.579
44.184	13.090	1041.172	791.806
45.199	12.979	1040.423	790.633
46.213	13.021	1039.163	789.806
47.228	13.143	1038.164	789.563
48.242	13.147	1037.336	788.879
49.257	13.232	1036.022	788.217
50.271	13.110	1035.546	787.206
51.286	13.269	1034.362	786.993
52.301	13.145	1033.652	785.792
53.315	13.152	1032.369	784.779
54.330	13.134	1031.054	783.628
55.344	13.110	1030.520	783.036
56.359	13.122	1029.600	782.326
57.374	13.156	1028.920	781.899
58.388	13.041	1028.032	780.611
59.403	13.015	1027.271	779.840
60.417	13.126	1026.448	779.671
61.432	12.991	1025.766	778.448
62.447	12.981	1024.871	777.653
63.461	12.966	1023.836	776.730
64.476	12.931	1023.387	776.154
65.490	13.119	1022.206	776.072
66.505	12.861	1022.199	774.789
67.520	13.048	1021.256	774.883
68.534	13.103	1020.528	774.517
69.549	13.067	1019.511	773.511
70.563	13.101	1018.848	773.100
71.578	12.989	1017.901	771.785
72.593	12.969	1017.379	771.231
73.607	12.887	1016.677	770.247
74.622	12.807	1016.277	769.500
75.636	12.817	1015.801	769.120
76.651	12.883	1014.456	768.338
77.666	12.755	1014.351	767.597
78.680	12.832	1013.670	767.371
79.695	12.977	1012.705	767.246
80.709	12.981	1012.348	766.927
81.724	13.035	1011.196	766.238
82.739	13.108	1010.679	766.116
83.753	13.123	1010.042	765.634
84.768	13.310	1008.829	765.513
85.782	13.244	1008.763	765.094
86.797	13.243	1007.223	763.853
87.812	13.219	1006.039	762.775
88.826	13.109	1005.467	761.767
89.841	13.328	1004.456	761.942
90.855	13.147	1003.701	760.469
91.870	13.368	1002.680	760.646
92.884	13.224	1002.269	759.601
93.899	13.287	1001.036	758.891
94.914	13.465	1000.073	758.911
95.928	13.462	999.492	758.390
96.943	13.302	998.905	757.141
97.957	13.264	997.663	755.962
98.972	13.289	996.874	755.411
99.987	13.314	995.729	754.591
101.001	13.318	995.026	754.008
102.016	13.321	994.264	753.380
103.030	13.354	993.547	752.918
104.045	13.310	992.871	752.139
105.060	13.334	992.122	751.612
106.074	13.095	991.822	750.237
107.089	13.152	989.892	748.970
108.103	13.131	989.089	748.196
109.118	13.090	988.287	747.338
110.133	13.082	987.996	747.019
111.147	13.055	986.639	745.802
112.162	13.188	985.753	745.667
113.176	13.196	985.091	745.136
114.191	13.194	984.419	744.555
115.206	13.187	984.078	744.198
116.220	13.077	983.258	743.017
117.235	13.168	982.156	742.527
118.249	13.303	980.779	742.027
119.264	13.187	980.310	741.087
120.279	13.157	979.772	740.479
121.293	13.215	978.511	739.720
122.308	13.180	977.633	738.833
123.322	13.020	977.167	737.703
124.337	13.206	975.784	737.424
125.352	13.214	974.666	736.547
126.366	13.081	973.923	735.328
127.381	13.151	972.805	734.732
128.395	13.055	972.195	733.781
129.410	13.130	971.357	733.415
130.424	13.230	970.297	732.993
131.439	13.180	969.662	732.225
132.454	13.322	968.686	732.055
133.468	13.134	968.124	730.733
134.483	13.289	967.027	730.525
135.497	13.331	966.195	730.017
136.512	13.164	965.611	728.776
137.527	13.358	964.300	728.575
138.541	13.307	963.384	727.595
139.556	13.319	963.016	727.303
140.570	13.255	962.535	726.598
141.585	13.396	961.173	726.123
142.600	13.429	960.732	725.869
143.614	13.387	959.922	725.009
144.629	13.562	958.777	724.848
145.643	13.282	958.146	723.081
146.658	13.325	957.215	722.502
147.673	13.310	956.250	721.644
148.687	13.321	955.446	721.023
149.702	13.363	954.313	720.287
150.716	13.409	953.331	719.683
151.731	13.395	952.725	719.098
152.746	13.199	952.640	718.122
153.760	13.400	951.692	718.212
154.775	13.314	951.550	717.671
155.789	13.415	950.566	717.304
156.804	13.422	949.994	716.838
157.819	13.579	949.085	716.768
158.833	13.530	948.511	716.059
159.848	13.585	947.599	715.545
160.862	13.565	946.694	714.714
161.877	13.394	945.705	713.166
162.892	13.381	944.987	712.505
163.906	13.473	943.720	711.880
164.921	13.290	943.417	710.803
165.935	13.416	941.913	710.147
166.950	13.490	941.727	710.261
167.964	13.545	940.609	709.592
168.979	13.428	940.170	708.697
169.994	13.441	938.935	707.760
171.008	13.493	938.115	707.298
172.023	13.448	937.316	706.441
173.037	13.649	936.845	706.882
174.052	13.566	936.029	705.851
175.067	13.593	935.167	705.252
176.081	13.665	934.499	704.994
177.096	13.566	934.260	704.331
178.110	13.593	933.750	703.996
179.125	13.579	933.190	703.455
180.140	13.525	932.819	702.884
181.154	13.617	932.183	702.732
182.169	13.632	931.682	702.354
183.183	13.694	930.864	701.938
184.198	13.671	930.022	701.146
185.213	13.609	929.492	700.420
186.227	13.855	928.661	700.772
187.242	13.724	928.422	699.977
188.256	13.805	927.771	699.767
189.271	13.716	927.132	698.846
190.286	13.734	925.869	697.910
191.300	13.744	925.307	697.464
192.315	13.531	924.872	696.180
193.329	13.508	924.374	695.645
194.344	13.712	923.395	695.705
195.359	13.804	922.785	695.568
196.373	13.881	922.181	695.377
197.388	13.851	922.023	695.069
198.402	13.897	921.598	694.881
199.417	13.904	921.064	694.444
200.432	14.017	920.126	694.146
201.446	14.049	919.563	693.794
202.461	14.000	919.163	693.227
203.475	13.957	918.320	692.352
204.490	14.119	917.422	692.286
205.504	13.978	916.719	691.108
206.519	14.027	916.281	690.920
207.534	13.956	915.621	690.069
208.548	13.970	914.922	689.539
209.563	14.019	913.986	688.976
210.577	14.133	913.582	689.082
211.592	14.233	912.671	688.747
212.607	14.093	912.435	687.929
213.621	14.170	911.754	687.675
214.636	14.196	910.546	686.808
215.650	14.190	909.825	686.178
216.665	14.224	908.978	685.618
217.680	14.296	908.496	685.494
218.694	14.317	907.807	684.999
219.709	14.243	907.265	684.224
220.723	14.159	906.864	683.517
221.738	14.334	905.598	683.219
222.753	14.393	905.027	682.969
223.767	14.254	905.051	682.359
224.782	14.360	904.296	682.161
225.796	14.350	903.916	681.773
226.811	14.401	902.698	681.002
227.826	14.257	902.375	680.112
228.840	14.358	901.234	679.604
229.855	14.307	900.819	679.024
230.869	14.323	899.612	678.116
231.884	14.244	899.426	677.597
232.899	14.348	898.853	677.526
233.913	14.310	897.787	676.510
234.928	14.292	897.419	676.097
235.942	14.306	896.733	675.578
236.957	14.357	896.555	675.594
237.972	14.457	895.345	675.026
238.986	14.290	894.978	674.013
240.001	14.347	894.641	673.929
241.015	14.395	893.899	673.505
242.030	14.592	892.865	673.461
243.045	14.455	892.374	672.479
244.059	14.385	891.968	671.832
245.074	14.435	891.081	671.308
246.088	14.568	890.543	671.379
247.103	14.573	889.940	670.884
248.117	14.584	889.831	670.786
249.132	14.739	888.653	670.461
250.147	14.752	888.265	670.161
251.161	14.796	887.878	669.987
252.176	14.743	886.795	668.897
253.190	14.793	886.338	668.692
254.205	14.708	886.167	668.166
255.220	14.810	884.926	667.576
256.234	14.862	884.218	667.191
257.249	14.844	883.779	666.732
258.263	14.800	883.031	665.930
259.278	15.013	882.037	665.969
260.293	14.941	881.825	665.464
261.307	15.067	880.935	665.234
262.322	14.969	880.476	664.442
263.336	14.994	879.917	664.061
264.351	15.059	878.929	663.514
265.366	15.012	878.423	662.884
266.380	15.102	878.156	662.981
267.395	14.947	877.350	661.700
268.409	15.090	876.388	661.482
269.424	15.033	875.500	660.527
270.439	15.180	874.644	660.404
271.453	15.019	874.229	659.399
272.468	15.033	874.284	659.435
273.482	15.088	873.065	658.676
274.497	15.108	872.628	658.366
275.512	15.153	872.065	658.061
276.526	15.230	871.521	657.894
277.541	15.189	870.851	657.166
278.555	15.233	870.488	657.007
279.570	15.171	869.940	656.292
280.585	15.167	869.443	655.845
281.599	15.212	868.456	655.217
282.614	15.279	867.676	654.835
283.628	15.093	867.770	654.121
284.643	15.291	866.518	653.890
285.657	15.370	865.874	653.656
286.672	15.382	865.171	653.114
287.687	15.373	865.000	652.892
288.701	15.295	864.230	651.950
289.716	15.382	863.659	651.799
290.730	15.371	863.159	651.320
291.745	15.473	862.377	651.068
292.760	15.446	861.818	650.484
293.774	15.535	860.925	650.099
294.789	15.501	860.685	649.725
295.803	15.496	860.067	649.182
296.818	15.381	859.552	648.294
297.833	15.350	859.109	647.783
298.847	15.452	857.991	647.274
299.862	15.513	857.352	646.971
300.876	15.478	857.275	646.719
301.891	15.682	856.282	646.699
302.906	15.573	856.124	646.104
303.920	15.518	855.572	645.418
304.935	15.664	854.915	645.425
305.949	15.855	853.891	645.329
306.964	15.668	853.138	643.985
307.979	15.619	853.132	643.736
308.993	15.739	852.605	643.741
310.008	15.807	851.680	643.244
311.022	15.564	851.646	642.235
312.037	15.734	850.747	642.146
313.052	15.709	850.123	641.524
314.066	15.696	849.590	641.016
315.081	15.548	849.153	640.065
316.095	15.701	848.367	639.999
317.110	15.708	847.691	639.459
318.125	15.661	847.526	639.102
319.139	15.561	847.197	638.416
320.154	15.862	846.199	638.751
321.168	15.922	845.582	638.454
322.183	15.886	845.406	638.129
323.197	15.862	845.132	637.774
324.212	15.854	844.153	636.947
325.227	15.593	844.301	636.015
326.241	15.733	843.107	635.589
327.256	15.757	842.556	635.210
328.270	15.902	841.863	635.179
329.285	15.874	841.062	634.411
330.300	15.873	840.468	633.904
331.314	15.897	839.745	633.391
332.329	16.024	839.461	633.601
333.343	15.829	839.361	632.733
334.358	15.832	839.267	632.618
335.373	15.993	838.756	632.782
336.387	16.133	838.195	632.827
337.402	16.039	838.146	632.382
338.416	16.097	837.600	632.132
339.431	16.014	837.431	631.637
340.446	16.160	836.842	631.684
341.460	16.157	836.384	631.273
342.475	16.299	835.840	631.338
343.489	16.108	835.709	630.466
344.504	16.335	834.906	630.655
345.519	16.163	835.041	630.056
346.533	16.204	833.949	629.329
347.548	16.167	833.426	628.742
348.562	16.173	832.913	628.320
349.577	16.203	832.210	627.846
350.592	16.094	832.035	627.256
351.606	16.121	831.153	626.635
352.621	16.149	830.531	626.214
353.635	16.073	830.051	625.513
354.650	16.185	829.475	625.440
355.665	16.249	828.509	624.895
356.679	16.236	828.180	624.544
357.694	16.277	827.384	624.038
358.708	16.412	826.559	623.860
359.723	16.439	826.072	623.536
360.738	16.442	825.697	623.209
361.752	16.401	825.022	622.495
362.767	16.484	824.602	622.429
363.781	16.477	823.700	621.667
364.796	16.479	823.481	621.454
365.810	16.414	823.443	621.131
366.825	16.436	822.974	620.803
367.840	16.714	821.988	621.024
368.854	16.617	821.750	620.431
369.869	16.591	821.344	619.977
370.883	16.611	821.040	619.766
371.898	16.774	820.250	619.711
372.913	16.754	820.348	619.656
373.927	16.618	819.737	618.641
374.942	16.745	819.127	618.590
375.956	16.740	818.914	618.358
376.971	16.793	818.469	618.162
377.986	16.846	817.840	617.826
379.000	16.817	817.131	617.129
380.015	16.773	816.983	616.800
381.029	16.769	816.545	616.401
382.044	16.915	815.688	616.232
383.059	16.938	815.003	615.742
384.073	16.848	814.686	615.123
385.088	16.880	813.907	614.597
386.102	16.978	813.228	614.382
387.117	16.903	812.998	613.882
388.132	16.823	812.646	613.274
389.146	16.992	811.578	613.025
390.161	16.923	811.102	612.363
391.175	16.843	811.004	611.945
392.190	16.876	810.650	611.744
393.205	16.793	809.956	610.864
394.219	16.887	809.603	610.883
395.234	16.943	809.454	610.920
396.248	16.840	808.857	610.044
397.263	16.866	808.300	609.664
398.278	16.830	807.979	609.235
399.292	17.024	807.368	609.420
400.307	16.921	807.178	608.852
401.321	17.036	806.708	608.857
402.336	17.008	806.123	608.261
403.350	16.949	805.815	607.765
404.365	17.047	805.515	607.835
405.380	17.124	804.743	607.472
406.394	17.309	804.088	607.584
407.409	17.111	803.888	606.672
408.423	17.078	803.858	606.480
409.438	17.220	803.085	606.350
410.453	17.141	802.943	605.906
411.467	17.286	801.859	605.553
412.482	17.305	801.867	605.570
413.496	17.387	801.408	605.462
414.511	17.394	801.129	605.224
415.526	17.284	800.594	604.376
416.540	17.328	800.200	604.181
417.555	17.452	799.693	604.184
418.569	17.265	799.311	603.178
419.584	17.318	799.071	603.131
420.599	17.512	798.445	603.292
421.613	109.022	1291.757	1468.787
422.628	93.755	1363.651	1468.855
