DTS Sentinel unit serial number:	SN413079Multiplexer serial number:	ORYXHardware model number:	OX4-SRSoftware version number:	ORYX F/W v4.00 Oryx Data Collector v3.7.2.0data status	okinstallation	princeton_trtdifferential loss correction	single-endedforward channel	channel 1reverse channel	N/Adate	2019/09/19time	10:42:35forward acquisition time	60.00reverse acquisition time	0.00gamma	496.2192k internal	0.2338k external	0.2338temperature offset calibration	1.0008default loss term (dB/km)	0.3790temperature slope calibration	1.0000multiplexer offset coefficient	1.0000multiplexer slope coefficient	1.0000fibre end	0.00T internal ref (°C)	24.56T ext. ref 1 (°C)	0.73T ext. ref 2 (°C)	20.16length (m)	temperature (°C)	Stokes	anti-Stokes-747.200	-5.150	0.267	0.185
-746.185	339.865	-0.163	0.320
-745.171	353.911	-0.134	0.267
-744.156	-114.029	-0.225	-0.044
-743.142	800.000	-0.066	0.274
-742.127	552.411	-0.104	0.251
-741.112	-46.420	-0.324	-0.160
-740.098	508.189	-0.139	0.324
-739.083	262.945	-0.029	-0.051
-738.069	-70.083	-0.394	-0.151
-737.054	332.919	-0.017	-0.033
-736.039	161.268	-0.179	-0.251
-735.025	-137.872	-0.267	-0.030
-734.010	545.780	-0.112	-0.268
-732.996	-180.125	-0.240	-0.005
-731.981	188.710	0.020	0.030
-730.966	-51.561	-0.323	-0.151
-729.952	32.281	0.217	-0.187
-728.937	-200.000	0.001	0.050
-727.923	84.708	0.166	0.182
-726.908	-106.512	-0.450	-0.101
-725.894	-35.040	-0.110	0.060
-724.879	80.930	-0.047	-0.050
-723.864	-185.258	-0.682	-0.011
-722.850	502.415	-0.070	-0.163
-721.835	-103.465	-0.383	0.090
-720.821	-200.000	0.047	-0.264
-719.806	-24.181	-0.389	-0.233
-718.791	800.000	-0.028	0.120
-717.777	-163.207	-0.109	-0.005
-716.762	-30.116	0.127	0.073
-715.748	-200.000	-0.024	-0.131
-714.733	410.957	0.035	0.075
-713.718	61.862	0.288	-0.288
-712.704	-200.000	-0.016	-0.306
-711.689	-200.000	-0.004	-0.107
-710.675	27.231	-0.026	-0.022
-709.660	-200.000	0.032	0.446
-708.645	800.000	-0.078	0.246
-707.631	284.448	-0.033	-0.060
-706.616	6.137	-0.330	-0.245
-705.602	124.344	-0.008	0.010
-704.587	-199.001	0.118	-0.001
-703.572	-46.241	-0.268	-0.132
-702.558	-5.288	-0.099	-0.068
-701.543	-114.006	0.164	-0.032
-700.529	800.000	0.125	-0.368
-699.514	-11.079	-0.265	0.175
-698.499	487.868	-0.093	-0.213
-697.485	-17.719	-0.161	0.101
-696.470	800.000	-0.085	0.321
-695.456	144.668	0.310	0.415
-694.441	-13.126	-0.273	-0.178
-693.426	675.108	0.098	-0.254
-692.412	-56.369	-0.452	0.201
-691.397	189.248	0.140	-0.210
-690.383	-77.665	0.163	-0.057
-689.368	-118.058	-0.089	-0.016
-688.354	373.406	0.049	0.101
-687.339	-36.204	0.225	0.122
-686.324	-103.323	-0.446	0.105
-685.310	2.032	-0.387	-0.280
-684.295	-135.129	0.076	0.009
-683.281	-200.000	-0.017	-0.356
-682.266	-38.373	-0.159	-0.084
-681.251	-29.345	-0.237	-0.136
-680.237	-200.000	-0.005	-0.037
-679.222	266.293	0.133	-0.232
-678.208	800.000	-0.149	-0.567
-677.193	-82.217	-0.175	-0.057
-676.178	36.609	-0.157	0.139
-675.164	-200.000	-0.066	-0.345
-674.149	218.904	0.048	0.077
-673.135	-200.000	0.064	-0.308
-672.120	-200.000	0.000	-0.135
-671.105	-137.452	-0.304	-0.034
-670.091	12.271	0.042	-0.032
-669.076	277.765	0.147	-0.261
-668.062	0.303	-0.315	-0.225
-667.047	35.690	0.083	0.073
-666.032	-200.000	-0.040	-0.195
-665.018	-43.150	-0.110	-0.056
-664.003	800.000	-0.072	0.262
-662.989	269.314	0.119	-0.209
-661.974	80.455	-0.056	0.060
-660.959	-145.093	0.174	-0.016
-659.945	17.522	0.050	-0.040
-658.930	347.249	-0.117	0.231
-657.916	-79.924	-0.232	0.078
-656.901	-87.376	0.342	0.104
-655.886	458.857	-0.072	0.161
-654.872	9.986	-0.256	-0.195
-653.857	511.405	-0.131	-0.304
-652.843	-195.271	0.272	0.002
-651.828	-200.000	0.049	-0.278
-650.814	-200.000	-0.004	-0.194
-649.799	125.171	0.244	0.307
-648.784	191.895	0.122	0.184
-647.770	800.000	-0.057	-0.197
-646.755	-200.000	0.012	0.316
-645.741	14.775	-0.129	-0.101
-644.726	-200.000	-0.029	-0.188
-643.711	-150.269	-0.221	0.017
-642.697	800.000	0.051	-0.167
-641.682	-70.623	0.077	0.029
-640.668	63.170	0.215	-0.215
-639.653	93.379	0.090	-0.101
-638.638	-200.000	-0.015	0.202
-637.624	349.263	-0.103	-0.203
-636.609	-200.000	0.006	0.064
-635.595	-136.163	-0.123	0.014
-634.580	-5.810	0.166	0.113
-633.565	-57.086	0.159	-0.070
-632.551	361.092	-0.098	-0.197
-631.536	-65.189	0.158	-0.063
-630.522	186.879	-0.039	-0.058
-629.507	-95.638	0.346	-0.093
-628.492	49.530	0.111	0.105
-627.478	-112.187	-0.099	-0.020
-626.463	800.000	0.052	0.145
-625.449	-28.930	-0.129	-0.074
-624.434	-200.000	-0.089	-0.415
-623.419	-200.000	-0.062	0.382
-622.405	800.000	-0.009	0.035
-621.390	-200.000	-0.004	0.116
-620.376	295.553	-0.120	-0.220
-619.361	800.000	0.092	-0.377
-618.346	-200.000	0.039	-0.203
-617.332	-56.153	0.089	0.040
-616.317	-10.570	-0.029	-0.019
-615.303	-200.000	0.052	-0.266
-614.288	6.214	-0.196	0.145
-613.273	-127.759	-0.089	0.013
-612.259	-72.937	-0.206	-0.075
-611.244	62.743	-0.167	0.167
-610.230	-152.647	0.078	-0.006
-609.215	323.147	-0.061	-0.116
-608.201	153.968	0.200	0.273
-607.186	800.000	0.081	0.277
-606.171	-128.626	-0.140	0.020
-605.157	398.816	-0.129	0.269
-604.142	-200.000	0.004	0.037
-603.128	800.000	-0.009	0.027
-602.113	-55.366	-0.224	-0.100
-601.098	800.000	0.092	-0.275
-600.084	264.082	-0.078	0.136
-599.069	-200.000	-0.015	-0.145
-598.055	-116.350	-0.175	0.032
-597.040	-181.836	0.325	0.006
-596.025	800.000	-0.055	0.175
-595.011	800.000	0.104	-0.311
-593.996	-51.012	0.047	0.022
-592.982	-4.703	-0.266	0.183
-591.967	4.330	0.298	-0.217
-590.952	-200.000	0.047	-0.303
-589.938	55.769	-0.139	-0.135
-588.923	-43.608	-0.170	-0.086
-587.909	-134.001	0.228	-0.028
-586.894	507.461	-0.165	-0.381
-585.879	-110.747	0.323	-0.066
-584.865	-188.780	-0.223	-0.003
-583.850	-45.764	-0.174	-0.086
-582.836	-121.153	-0.212	-0.035
-581.821	273.598	-0.121	-0.213
-580.806	135.264	-0.064	-0.082
-579.792	-98.966	-0.194	-0.049
-578.777	-200.000	-0.005	-0.160
-577.763	360.876	-0.041	-0.083
-576.748	775.869	0.105	0.286
-575.733	-200.000	0.043	0.308
-574.719	137.286	-0.162	0.212
-573.704	472.090	-0.104	-0.234
-572.690	-142.571	-0.157	-0.015
-571.675	-200.000	-0.018	-0.126
-570.661	248.697	-0.096	0.162
-569.646	-96.290	-0.373	-0.098
-568.631	-91.148	0.068	0.019
-567.617	-81.183	-0.129	-0.043
-566.602	-161.528	0.321	0.016
-565.588	-191.323	-0.180	-0.002
-564.573	-120.650	0.109	-0.018
-563.558	-200.000	0.038	-0.310
-562.544	61.268	-0.108	-0.107
-561.529	-94.582	-0.046	0.013
-560.515	559.078	-0.050	-0.121
-559.500	-33.750	-0.188	0.103
-558.485	-200.000	-0.034	0.187
-557.471	800.000	0.087	0.322
-556.456	776.457	0.092	-0.251
-555.442	18.054	0.030	0.024
-554.427	-200.000	0.049	0.274
-553.412	-118.620	-0.322	-0.057
-552.398	-200.000	-0.009	0.128
-551.383	478.178	-0.125	0.283
-550.369	35.299	-0.198	-0.173
-549.354	43.913	-0.132	-0.121
-548.339	-200.000	-0.023	0.233
-547.325	800.000	-0.126	0.447
-546.310	-143.929	0.129	0.012
-545.296	33.539	-0.104	-0.090
-544.281	-64.288	0.220	-0.089
-543.266	-193.903	-0.370	0.003
-542.252	727.455	-0.098	-0.259
-541.237	290.679	0.171	-0.310
-540.223	784.465	0.118	0.322
-539.208	588.956	0.040	-0.099
-538.193	-80.235	-0.121	-0.040
-537.179	236.916	-0.050	0.083
-536.164	-200.000	0.021	0.130
-535.150	100.497	0.256	0.296
-534.135	294.161	0.012	0.022
-533.121	796.707	-0.131	0.358
-532.106	-40.698	-0.207	0.107
-531.091	-10.467	0.111	0.073
-530.077	-200.000	0.035	-0.235
-529.062	-0.905	-0.116	-0.082
-528.048	-174.656	0.145	0.004
-527.033	-200.000	0.012	0.103
-526.018	-75.890	-0.121	0.043
-525.004	800.000	0.068	0.252
-523.989	-98.907	0.370	0.093
-522.975	129.569	-0.060	-0.076
-521.960	20.831	-0.167	0.134
-520.945	-47.528	0.384	0.186
-519.931	-49.654	0.032	-0.015
-518.916	318.604	-0.078	-0.147
-517.902	-46.585	0.269	0.131
-516.887	-72.842	-0.232	-0.085
-515.872	-95.268	-0.121	-0.032
-514.858	-200.000	0.013	-0.118
-513.843	15.572	0.164	0.128
-512.829	-170.963	-0.178	0.006
-511.814	-128.340	-0.352	-0.050
-510.799	-9.261	-0.065	0.043
-509.785	-200.000	-0.048	-0.356
-508.770	-62.893	0.183	-0.075
-507.756	-13.898	-0.147	0.095
-506.741	800.000	-0.026	0.071
-505.726	-200.000	-0.005	0.039
-504.712	442.837	-0.114	-0.248
-503.697	-109.073	-0.301	-0.064
-502.683	-116.633	0.302	-0.055
-501.668	-156.022	0.259	0.016
-500.653	119.634	0.061	0.075
-499.639	-102.139	-0.046	-0.011
-498.624	61.372	0.173	-0.171
-497.610	800.000	-0.099	-0.321
-496.595	-131.781	-0.156	0.020
-495.581	800.000	0.048	0.196
-494.566	-200.000	0.004	0.026
-493.551	55.145	-0.039	-0.037
-492.537	96.517	-0.106	0.121
-491.522	132.829	0.181	-0.231
-490.508	800.000	-0.035	-0.142
-489.493	93.177	-0.215	0.241
-488.478	195.673	-0.258	0.390
-487.464	-78.146	0.165	0.056
-486.449	-97.273	0.236	-0.061
-485.435	260.125	0.098	0.169
-484.420	-148.135	0.234	0.019
-483.405	-147.970	0.140	0.012
-482.391	-54.140	0.080	0.036
-481.376	76.493	0.077	0.081
-480.362	519.740	-0.119	-0.277
-479.347	-200.000	-0.021	-0.101
-478.332	364.128	-0.095	-0.191
-477.318	-58.081	-0.280	0.121
-476.303	296.723	-0.088	0.159
-475.289	-44.342	-0.147	0.073
-474.274	-200.000	-0.022	-0.272
-473.259	16.737	-0.228	0.179
-472.245	-78.897	0.423	0.143
-471.230	-149.958	0.310	0.024
-470.216	-200.000	-0.010	-0.114
-469.201	51.666	-0.303	-0.286
-468.186	800.000	-0.055	-0.237
-467.172	-109.618	0.243	0.051
-466.157	158.295	-0.091	0.125
-465.143	800.000	0.018	0.073
-464.128	160.372	0.106	0.147
-463.113	33.585	-0.212	0.183
-462.099	266.062	0.088	0.153
-461.084	-200.000	-0.026	0.157
-460.070	-65.561	0.259	-0.103
-459.055	-200.000	-0.042	0.230
-458.040	800.000	-0.031	-0.108
-457.026	20.531	0.126	-0.101
-456.011	47.187	0.193	-0.178
-454.997	32.650	-0.216	0.186
-453.982	108.547	0.239	-0.283
-452.968	-78.797	0.225	-0.076
-451.953	122.179	-0.191	-0.236
-450.938	-45.314	-0.166	0.082
-449.924	-87.754	-0.169	0.051
-448.909	-102.543	0.127	-0.030
-447.895	-91.739	0.272	0.077
-446.880	4.931	0.278	0.203
-445.865	-200.000	-0.055	0.392
-444.851	-33.148	0.329	0.181
-443.836	113.420	-0.065	-0.078
-442.822	480.330	-0.085	-0.192
-441.807	800.000	0.017	0.066
-440.792	800.000	-0.023	-0.096
-439.778	151.256	0.238	-0.321
-438.763	-46.267	-0.120	-0.058
-437.749	-42.076	0.092	0.047
-436.734	-200.000	-0.021	0.133
-435.719	51.183	-0.259	0.244
-434.705	152.092	0.133	-0.180
-433.690	-200.000	0.001	-0.112
-432.676	-200.000	-0.006	0.308
-431.661	600.414	-0.099	0.244
-430.646	52.552	-0.150	0.142
-429.632	800.000	0.045	0.148
-428.617	-100.517	-0.057	-0.014
-427.603	-200.000	-0.002	-0.187
-426.588	684.540	-0.046	0.118
-425.573	-42.128	-0.272	0.138
-424.559	257.416	0.138	0.236
-423.544	37.142	0.126	-0.111
-422.530	-71.156	-0.304	-0.113
-421.515	186.163	-0.122	0.180
-420.500	-200.000	-0.132	0.000
-419.486	82.042	0.139	-0.149
-418.471	-79.151	0.249	0.084
-417.457	13.416	-0.141	0.108
-416.442	-28.754	-0.033	-0.019
-415.428	-62.498	0.309	-0.127
-414.413	-1.124	0.166	-0.116
-413.398	14.935	-0.194	-0.150
-412.384	150.945	-0.053	-0.071
-411.369	17.151	0.199	0.156
-410.355	800.000	-0.101	0.296
-409.340	-87.888	-0.104	0.031
-408.325	107.109	-0.152	-0.179
-407.311	-152.818	-0.238	0.017
-406.296	9.297	-0.188	0.141
-405.282	130.517	-0.079	0.100
-404.267	-95.291	-0.066	0.017
-403.252	-32.903	-0.161	0.088
-402.238	-200.000	-0.061	-0.310
-401.223	17.262	0.081	-0.064
-400.209	-43.560	-0.381	0.191
-399.194	-108.446	0.376	-0.080
-398.179	38.618	-0.062	0.055
-397.165	-30.506	-0.271	0.152
-396.150	800.000	0.058	-0.183
-395.136	380.814	-0.127	-0.258
-394.121	200.904	-0.121	-0.185
-393.106	11.196	0.076	-0.058
-392.092	8.027	0.239	-0.178
-391.077	-200.000	-0.061	0.000
-390.063	234.287	-0.084	0.137
-389.048	571.726	0.032	0.077
-388.033	436.018	-0.190	-0.408
-387.019	206.140	-0.201	-0.309
-386.004	21.843	0.054	-0.043
-384.990	-200.000	0.036	-0.242
-383.975	-84.570	0.031	0.010
-382.960	454.872	-0.114	-0.249
-381.946	-200.000	-0.025	-0.110
-380.931	52.491	-0.124	-0.117
-379.917	-79.742	-0.198	-0.066
-378.902	81.217	-0.080	-0.085
-377.888	29.975	-0.097	-0.082
-376.873	800.000	0.110	-0.395
-375.858	205.575	-0.168	-0.258
-374.844	800.000	-0.067	-0.207
-373.829	32.277	-0.048	0.041
-372.815	661.607	0.050	0.127
-371.800	-99.344	0.092	0.023
-370.785	-4.391	0.027	0.019
-369.771	-63.744	0.237	-0.096
-368.756	-200.000	-0.032	0.199
-367.742	-200.000	-0.028	0.140
-366.727	152.389	0.026	0.035
-365.712	-121.669	-0.361	0.059
-364.698	-200.000	0.019	0.373
-363.683	800.000	-0.074	-0.208
-362.669	156.981	-0.326	0.446
-361.654	-200.000	0.061	0.544
-360.639	-129.132	0.171	0.024
-359.625	25.672	0.064	-0.052
-358.610	627.131	-0.055	0.137
-357.596	6.550	-0.138	0.101
-356.581	-89.648	0.173	0.050
-355.566	-200.000	-0.015	0.102
-354.552	728.986	0.079	0.208
-353.537	-122.732	0.151	-0.024
-352.523	-108.969	-0.180	0.038
-351.508	-80.345	0.127	0.042
-350.493	-109.700	-0.160	-0.033
-349.479	-36.325	0.174	-0.093
-348.464	351.445	-0.084	-0.163
-347.450	-67.241	0.173	-0.067
-346.435	800.000	0.055	0.233
-345.420	-77.490	-0.066	0.023
-344.406	248.259	0.138	0.230
-343.391	-200.000	0.028	0.345
-342.377	-200.000	0.028	-0.322
-341.362	-158.020	0.177	-0.010
-340.348	-200.000	-0.019	-0.201
-339.333	-101.649	-0.068	0.016
-338.318	202.323	-0.080	0.122
-337.304	-91.596	-0.406	0.114
-336.289	800.000	-0.107	-0.297
-335.275	16.550	0.176	-0.137
-334.260	22.054	0.137	-0.110
-333.245	129.792	-0.199	0.251
-332.231	6.608	-0.114	-0.083
-331.216	-9.538	0.052	0.034
-330.202	356.334	0.140	-0.276
-329.187	390.099	0.163	-0.335
-328.172	309.432	0.124	0.229
-327.158	675.945	-0.015	0.039
-326.143	-128.448	-0.098	0.014
-325.129	141.985	0.175	0.229
-324.114	-157.209	-0.100	-0.006
-323.099	-112.490	-0.092	0.018
-322.085	15.169	-0.094	0.072
-321.070	-200.000	0.030	0.223
-320.056	800.000	-0.029	-0.080
-319.041	-13.007	0.153	0.098
-318.026	234.187	-0.013	0.021
-317.012	800.000	0.032	-0.129
-315.997	-116.234	0.372	0.068
-314.983	50.078	-0.024	0.022
-313.968	61.748	0.128	-0.126
-312.953	383.817	0.084	-0.171
-311.939	-20.039	-0.092	-0.056
-310.924	24.373	0.081	-0.066
-309.910	21.008	0.146	0.117
-308.895	-200.000	-0.011	0.211
-307.880	40.251	-0.140	-0.124
-306.866	167.121	0.036	0.051
-305.851	162.287	-0.092	-0.127
-304.837	244.453	-0.076	0.127
-303.822	-84.135	0.237	-0.074
-302.807	-200.000	0.008	0.109
-301.793	360.698	0.114	0.225
-300.778	-153.411	0.220	0.015
-299.764	-43.156	0.284	0.142
-298.749	27.128	0.240	0.199
-297.735	677.816	-0.108	0.277
-296.720	800.000	-0.016	0.052
-295.705	-121.069	0.246	0.041
-294.691	-176.674	-0.257	0.006
-293.676	61.479	-0.215	-0.211
-292.662	-101.044	0.266	0.064
-291.647	57.551	0.287	-0.277
-290.632	62.499	-0.136	0.134
-289.618	800.000	-0.044	0.135
-288.603	70.652	0.142	-0.145
-287.589	800.000	-0.019	-0.060
-286.574	-35.423	-0.123	-0.066
-285.559	-200.000	0.003	0.061
-284.545	-83.317	-0.103	0.033
-283.530	-45.381	-0.159	0.078
-282.516	-119.083	0.299	0.051
-281.501	-66.455	-0.275	-0.108
-280.486	-56.794	0.192	0.083
-279.472	-115.768	0.248	0.046
-278.457	-11.465	0.394	-0.255
-277.443	34.136	-0.034	-0.029
-276.428	-200.000	-0.038	-0.254
-275.413	-160.524	0.094	-0.005
-274.399	-153.652	-0.123	-0.008
-273.384	46.690	0.042	-0.039
-272.370	800.000	0.054	-0.191
-271.355	-200.000	0.027	0.128
-270.340	800.000	0.033	0.135
-269.326	31.597	0.141	-0.119
-268.311	76.996	-0.070	-0.073
-267.297	-172.115	-0.125	0.004
-266.282	46.844	-0.267	-0.244
-265.267	800.000	-0.076	0.288
-264.253	316.191	-0.074	0.138
-263.238	-128.041	0.092	0.013
-262.224	82.807	-0.150	0.161
-261.209	-200.000	-0.063	0.281
-260.195	1.664	-0.221	0.156
-259.180	93.074	0.308	-0.343
-258.165	70.423	0.084	-0.086
-257.151	423.055	-0.084	-0.178
-256.136	231.171	0.103	0.166
-255.122	31.741	0.200	0.169
-254.107	276.864	-0.172	0.302
-253.092	60.188	0.351	-0.342
-252.078	288.314	0.042	-0.074
-251.063	-87.267	0.226	-0.067
-250.049	-200.000	-0.009	-0.243
-249.034	-137.322	0.277	-0.031
-248.019	-70.257	-0.133	-0.050
-247.005	54.938	-0.275	-0.261
-245.990	-97.567	-0.628	-0.160
-244.976	800.000	-0.072	-0.272
-243.961	-35.714	-0.107	-0.057
-242.946	-200.000	-0.039	0.196
-241.932	142.659	-0.086	0.112
-240.917	318.130	-0.043	-0.080
-239.903	-130.119	0.367	0.049
-238.888	-200.000	0.021	-0.204
-237.873	800.000	0.122	-0.341
-236.859	-200.000	-0.015	-0.157
-235.844	-149.548	0.366	0.028
-234.830	166.631	0.039	0.055
-233.815	126.174	0.074	-0.092
-232.800	800.000	0.104	0.354
-231.786	-200.000	0.016	0.093
-230.771	82.783	-0.089	0.095
-229.757	344.664	0.164	-0.316
-228.742	800.000	-0.042	0.147
-227.727	800.000	0.045	0.124
-226.713	103.048	-0.151	0.174
-225.698	-200.000	0.028	-0.354
-224.684	179.839	-0.184	-0.265
-223.669	-124.569	0.105	-0.016
-222.655	-35.884	0.162	0.086
-221.640	800.000	-0.026	0.078
-220.625	70.036	-0.151	-0.153
-219.611	-37.342	0.139	0.073
-218.596	33.426	0.259	0.221
-217.582	399.739	-0.089	-0.183
-216.567	-137.235	-0.205	-0.023
-215.552	800.000	0.020	0.075
-214.538	39.677	0.226	-0.199
-213.523	-16.976	0.373	0.231
-212.509	-200.000	0.016	-0.156
-211.494	-66.554	-0.503	-0.196
-210.479	-200.000	0.022	-0.121
-209.465	35.487	-0.143	0.123
-208.450	-200.000	-0.349	0.000
-207.436	-116.321	0.318	-0.058
-206.421	205.657	-0.134	-0.205
-205.406	800.000	-0.053	0.175
-204.392	800.000	0.046	0.127
-203.377	85.301	-0.099	0.107
-202.363	-200.000	-0.008	-0.060
-201.348	356.958	-0.091	0.178
-200.333	200.853	0.153	0.232
-199.319	-200.000	0.009	-0.416
-198.304	-160.017	0.204	0.011
-197.290	61.175	-0.316	-0.309
-196.275	152.663	-0.177	0.237
-195.260	139.467	0.089	0.115
-194.246	-106.722	-0.122	-0.027
-193.231	3.405	-0.054	0.038
-192.217	629.347	0.080	0.199
-191.202	-99.007	0.275	0.068
-190.187	-61.200	0.310	0.128
-189.173	-98.363	0.150	0.038
-188.158	-19.641	-0.075	0.046
-187.144	249.721	0.085	0.141
-186.129	241.543	-0.116	-0.190
-185.114	-140.171	0.111	0.011
-184.100	-2.291	0.331	0.228
-183.085	72.721	0.237	-0.243
-182.071	-200.000	0.005	0.179
-181.056	-200.000	-0.022	-0.160
-180.042	144.057	0.317	0.415
-179.027	0.512	0.409	0.287
-178.012	-200.000	-0.003	-0.114
-176.998	32.436	-0.058	-0.049
-175.983	265.913	-0.192	0.330
-174.969	25.162	0.114	0.092
-173.954	184.756	-0.007	0.010
-172.939	-200.000	-0.018	-0.159
-171.925	329.917	-0.038	0.071
-170.910	-5.259	0.518	0.349
-169.896	88.374	0.031	-0.034
-168.881	-200.000	-0.001	-0.110
-167.866	-200.000	-0.010	0.137
-166.852	60.714	-0.205	-0.200
-165.837	112.685	0.068	0.080
-164.823	800.000	-0.110	-0.402
-163.808	-200.000	0.007	-0.065
-162.793	101.698	0.060	0.069
-161.779	27.608	0.179	-0.148
-160.764	704.852	0.082	0.213
-159.750	800.000	0.021	0.087
-158.735	800.000	0.033	-0.104
-157.720	-200.000	0.004	0.120
-156.706	3.422	-0.278	0.199
-155.691	305.951	-0.142	-0.259
-154.677	-22.695	-0.119	-0.070
-153.662	800.000	-0.079	0.224
-152.647	-200.000	-0.050	-0.314
-151.633	122.488	-0.098	0.120
-150.618	-200.000	0.006	0.117
-149.604	254.887	0.244	0.410
-148.589	800.000	-0.155	-0.482
-147.574	-32.254	-0.127	0.069
-146.560	61.400	0.366	-0.357
-145.545	-167.666	-0.215	-0.008
-144.531	-82.510	-0.255	-0.081
-143.516	74.295	-0.155	-0.159
-142.502	-200.000	-0.045	0.315
-141.487	6.854	0.144	0.105
-140.472	-63.277	-0.279	0.113
-139.458	800.000	-0.056	0.214
-138.443	157.621	0.143	-0.194
-137.429	-62.773	-0.097	-0.039
-136.414	-200.000	-0.067	0.306
-135.399	-200.000	-0.088	-0.433
-134.385	-9.138	0.173	-0.114
-133.370	56.367	-0.108	0.103
-132.356	-200.000	-0.004	0.207
-131.341	-23.717	0.341	0.200
-130.326	32.166	0.070	0.059
-129.312	469.148	0.076	-0.166
-128.297	-63.219	0.328	-0.133
-127.283	18.157	0.082	-0.064
-126.268	-120.122	0.310	0.052
-125.253	18.128	-0.251	-0.196
-124.239	-40.277	0.284	-0.145
-123.224	800.000	-0.063	0.249
-122.210	-200.000	0.063	0.459
-121.195	433.802	0.057	0.122
-120.180	-200.000	-0.027	-0.130
-119.166	-61.438	-0.205	0.084
-118.151	140.301	0.046	-0.059
-117.137	-77.296	-0.289	0.098
-116.122	-88.187	-0.349	0.102
-115.107	579.726	-0.091	-0.217
-114.093	183.773	0.147	-0.213
-113.078	-69.415	-0.055	-0.021
-112.064	-110.743	0.268	-0.054
-111.049	-112.210	-0.204	-0.040
-110.034	-182.985	0.031	0.001
-109.020	-200.000	-0.014	0.312
-108.005	-18.496	-0.297	0.181
-106.991	-200.000	0.064	0.291
-105.976	-17.069	-0.087	0.054
-104.962	-54.987	-0.396	0.175
-103.947	97.730	0.174	0.196
-102.932	-44.831	0.141	0.069
-101.918	161.653	-0.109	-0.149
-100.903	800.000	-0.037	-0.133
-99.889	-200.000	0.014	0.203
-98.874	-76.134	0.077	0.027
-97.859	-137.991	0.145	0.016
-96.845	117.836	0.057	0.068
-95.830	800.000	-0.077	-0.222
-94.816	-28.964	0.036	0.020
-93.801	-200.000	-0.020	-0.278
-92.786	-148.196	0.361	-0.029
-91.772	8.455	0.214	0.157
-90.757	-118.931	-0.150	-0.026
-89.743	-200.000	-0.055	0.418
-88.728	-3.604	0.086	-0.058
-87.713	104.392	0.083	0.095
-86.699	-200.000	0.007	-0.363
-85.684	-156.699	0.222	-0.013
-84.670	-98.243	0.124	0.031
-83.655	-80.313	-0.332	-0.109
-82.640	-200.000	0.088	-0.446
-81.626	-112.801	0.178	0.035
-80.611	322.429	-0.146	0.271
-79.597	-200.000	-0.040	-0.249
-78.582	683.686	0.094	-0.240
-77.567	-131.999	0.326	-0.041
-76.553	586.221	-0.235	0.565
-75.538	-200.000	-0.023	0.339
-74.524	-200.000	0.034	0.188
-73.509	258.357	-0.110	-0.186
-72.494	-200.000	0.088	-0.384
-71.480	270.680	-0.138	-0.237
-70.465	358.203	0.054	-0.104
-69.451	-76.447	0.322	-0.111
-68.436	38.327	-0.241	-0.210
-67.422	92.923	-0.038	-0.042
-66.407	-66.627	-0.151	0.058
-65.392	800.000	-0.117	-0.358
-64.378	341.182	0.103	-0.197
-63.363	349.286	0.148	0.285
-62.349	-168.482	-0.124	-0.005
-61.334	247.302	-0.905	-1.493
-60.319	6.163	0.831	0.602
-59.305	687.253	-0.436	-1.114
-58.290	161.524	0.739	1.010
-57.276	183.388	0.693	1.000
-56.261	-200.000	122.514	619.194
-55.246	378.522	1582.333	3162.085
-54.232	139.212	2750.793	3533.461
-53.217	95.022	2185.626	2429.825
-52.203	36.403	1612.509	1388.799
-51.188	27.906	1354.866	1115.240
-50.173	25.161	1317.153	1067.836
-49.159	50.801	1382.651	1278.614
-48.144	48.581	1395.695	1277.056
-47.130	27.921	1344.776	1106.851
-46.115	24.813	1325.802	1072.587
-45.100	24.539	1321.300	1067.267
-44.086	24.466	1318.840	1064.799
-43.071	24.377	1316.555	1062.386
-42.057	24.434	1314.477	1061.006
-41.042	24.462	1312.773	1059.753
-40.027	24.531	1311.077	1058.753
-39.013	24.581	1308.472	1056.903
-37.998	24.443	1307.589	1055.334
-36.984	24.512	1305.768	1054.225
-35.969	24.574	1303.963	1053.093
-34.954	24.599	1302.216	1051.789
-33.940	24.518	1301.169	1050.423
-32.925	24.555	1299.573	1049.313
-31.911	24.672	1297.935	1048.636
-30.896	24.705	1296.575	1047.686
-29.881	24.794	1294.957	1046.860
-28.867	24.697	1293.943	1045.428
-27.852	24.632	1292.672	1043.981
-26.838	24.648	1291.596	1043.163
-25.823	24.694	1290.090	1042.173
-24.809	24.634	1288.325	1040.361
-23.794	24.594	1287.648	1039.535
-22.779	24.682	1285.489	1038.266
-21.765	24.711	1284.666	1037.728
-20.750	24.671	1283.306	1036.357
-19.736	24.611	1281.657	1034.638
-18.721	24.531	1281.431	1033.947
-17.706	24.484	1280.053	1032.527
-16.692	24.488	1278.659	1031.383
-15.677	24.486	1277.913	1030.729
-14.663	24.551	1276.648	1030.040
-13.648	24.447	1275.809	1028.723
-12.633	24.469	1274.193	1027.505
-11.619	24.480	1274.031	1027.398
-10.604	24.523	1272.614	1026.465
-9.590	24.447	1271.674	1025.227
-8.575	24.443	1270.417	1024.152
-7.560	24.463	1269.898	1023.807
-6.546	24.474	1268.870	1022.997
-5.531	24.520	1267.762	1022.327
-4.517	24.544	1267.546	1022.250
-3.502	24.512	1266.993	1021.582
-2.487	24.576	1265.257	1020.505
-1.473	24.470	1261.782	1017.060
-0.458	23.246	1246.325	997.670
0.556	18.847	1230.745	961.351
1.571	15.263	1238.355	946.999
2.586	14.496	1253.154	953.845
3.600	14.453	1240.963	944.237
4.615	10.742	1167.866	868.723
5.629	4.055	1095.035	780.850
6.644	0.905	1078.039	753.007
7.659	0.750	1075.219	750.204
8.673	0.568	1074.870	748.988
9.688	0.687	1072.985	748.198
10.702	0.768	1071.383	747.414
11.717	4.886	1076.339	771.225
12.731	11.748	1085.277	811.711
13.746	16.021	1090.649	836.925
14.761	17.158	1091.458	843.118
15.775	16.354	1090.236	838.111
16.790	15.431	1088.152	831.864
17.804	14.859	1086.412	827.627
18.819	14.484	1084.974	824.603
19.834	14.289	1084.175	822.958
20.848	13.991	1083.491	820.896
21.863	13.752	1082.465	818.865
22.877	13.619	1081.373	817.313
23.892	13.606	1080.667	816.642
24.907	13.605	1080.212	816.221
25.921	13.540	1079.274	815.119
26.936	13.618	1078.886	815.138
27.950	13.673	1077.477	814.270
28.965	13.767	1076.311	813.779
29.980	13.675	1075.050	812.306
30.994	13.747	1074.127	811.889
32.009	13.783	1073.156	811.257
33.023	13.726	1072.003	810.034
34.038	13.762	1070.650	809.118
35.053	13.620	1070.049	807.899
36.067	13.736	1069.315	807.837
37.082	13.704	1068.646	807.104
38.096	13.774	1067.444	806.469
39.111	13.700	1066.765	805.522
40.126	13.701	1065.466	804.476
41.140	13.493	1064.755	802.861
42.155	13.509	1063.361	801.813
43.169	13.480	1062.518	800.970
44.184	13.443	1061.302	799.801
45.199	13.551	1060.304	799.499
46.213	13.509	1059.161	798.366
47.228	13.591	1058.037	797.843
48.242	13.600	1057.025	797.053
49.257	13.526	1056.411	796.165
50.271	13.608	1054.982	795.408
51.286	13.670	1053.928	794.841
52.301	13.724	1052.768	794.154
53.315	13.602	1052.147	793.033
54.330	13.521	1050.968	791.685
55.344	13.614	1050.031	791.356
56.359	13.579	1049.201	790.491
57.374	13.553	1048.345	789.654
58.388	13.571	1047.442	788.989
59.403	13.421	1046.778	787.705
60.417	13.515	1046.060	787.542
61.432	13.456	1045.250	786.582
62.447	13.344	1044.542	785.449
63.461	13.525	1043.192	785.223
64.476	13.557	1042.307	784.636
65.490	13.492	1041.644	783.763
66.505	13.647	1040.541	783.596
67.520	13.697	1039.442	782.935
68.534	13.519	1039.369	781.970
69.549	13.520	1038.565	781.298
70.563	13.487	1038.190	780.792
71.578	13.529	1037.213	780.186
72.593	13.513	1035.993	779.125
73.607	13.536	1035.626	778.888
74.622	13.558	1034.624	778.168
75.636	13.451	1034.045	777.161
76.651	13.476	1033.658	776.921
77.666	13.396	1033.038	776.011
78.680	13.467	1032.139	775.601
79.695	13.434	1031.340	774.775
80.709	13.427	1031.006	774.424
81.724	13.596	1029.694	774.161
82.739	13.686	1029.000	773.988
83.753	13.595	1028.503	773.122
84.768	13.804	1026.977	772.880
85.782	13.729	1026.276	771.936
86.797	13.583	1025.792	770.822
87.812	13.711	1024.604	770.459
88.826	13.683	1023.377	769.337
89.841	13.682	1022.526	768.626
90.855	13.712	1021.560	767.967
91.870	13.775	1020.585	767.459
92.884	13.859	1019.894	767.260
93.899	13.718	1019.463	766.215
94.914	13.760	1018.452	765.583
95.928	13.802	1017.366	764.891
96.943	13.748	1016.934	764.253
97.957	13.674	1016.086	763.207
98.972	13.755	1015.152	762.810
99.987	13.712	1013.999	761.678
101.001	13.710	1012.932	760.799
102.016	13.583	1012.605	759.903
103.030	13.710	1011.606	759.669
104.045	13.774	1010.586	759.129
105.060	13.797	1010.114	758.813
106.074	13.728	1008.862	757.491
107.089	13.669	1007.737	756.307
108.103	13.698	1007.041	755.853
109.118	13.694	1006.228	755.157
110.133	13.712	1004.876	754.154
111.147	13.720	1004.265	753.670
112.162	13.521	1003.966	752.472
113.176	13.560	1003.057	751.904
114.191	13.799	1001.867	752.028
115.206	13.721	1001.390	751.247
116.220	13.737	1000.329	750.458
117.235	13.695	999.436	749.535
118.249	13.694	998.757	748.954
119.264	13.692	997.397	747.858
120.279	13.569	997.445	747.272
121.293	13.665	996.178	746.690
122.308	13.629	995.815	746.189
123.322	13.650	994.893	745.527
124.337	13.588	993.510	744.145
125.352	13.482	992.451	742.812
126.366	13.666	991.310	742.715
127.381	13.679	989.768	741.552
128.395	13.598	989.432	740.874
129.410	13.681	988.271	740.311
130.424	13.674	987.669	739.763
131.439	13.818	986.627	739.559
132.454	13.635	986.319	738.445
133.468	13.710	984.847	737.614
134.483	13.812	983.998	737.366
135.497	13.760	983.190	736.463
136.512	13.727	982.614	735.819
137.527	13.737	981.607	735.044
138.541	13.709	980.962	734.374
139.556	13.757	980.214	733.962
140.570	13.675	979.840	733.252
141.585	13.737	978.803	732.687
142.600	13.856	977.585	732.234
143.614	13.936	977.006	732.090
144.629	13.876	976.379	731.291
145.643	13.694	975.880	730.048
146.658	13.787	974.571	729.417
147.673	13.903	973.212	728.841
148.687	13.744	972.582	727.609
149.702	13.865	971.811	727.497
150.716	13.878	970.836	726.761
151.731	13.805	970.418	726.064
152.746	13.980	969.482	726.065
153.760	13.886	968.920	725.170
154.775	13.871	968.410	724.659
155.789	13.885	967.668	724.097
156.804	13.892	966.582	723.251
157.819	14.073	965.995	723.536
158.833	14.072	965.469	723.075
159.848	14.093	964.351	722.266
160.862	14.097	963.686	721.719
161.877	14.025	962.607	720.535
162.892	13.993	961.808	719.735
163.906	13.924	960.818	718.633
164.921	14.016	960.385	718.644
165.935	13.991	959.590	717.874
166.950	13.931	958.594	716.810
167.964	13.970	957.669	716.224
168.979	14.038	956.857	715.843
169.994	14.078	955.602	715.015
171.008	13.926	955.662	714.340
172.023	14.132	954.497	714.292
173.037	14.194	953.634	713.850
174.052	14.092	953.116	712.960
175.067	14.056	952.535	712.311
176.081	14.088	951.669	711.735
177.096	14.258	950.927	711.845
178.110	14.148	950.399	710.918
179.125	14.130	950.217	710.642
180.140	14.080	949.498	709.827
181.154	14.221	949.109	710.073
182.169	14.241	948.760	709.836
183.183	14.244	947.865	709.116
184.198	14.283	946.714	708.361
185.213	14.314	946.113	707.977
186.227	14.286	945.329	707.210
187.242	14.264	945.147	706.916
188.256	14.257	944.499	706.339
189.271	14.320	943.484	705.784
190.286	14.242	942.777	704.865
191.300	14.309	942.173	704.635
192.315	14.263	941.214	703.661
193.329	14.224	941.305	703.500
194.344	14.320	940.181	703.004
195.359	14.313	939.613	702.487
196.373	14.247	938.806	701.544
197.388	14.460	938.144	701.883
198.402	14.413	937.695	701.288
199.417	14.497	937.332	701.310
200.432	14.443	936.490	700.388
201.446	14.647	935.772	700.649
202.461	14.601	935.371	700.092
203.475	14.523	935.088	699.489
204.490	14.488	934.028	698.489
205.504	14.480	933.592	698.069
206.519	14.515	932.238	697.140
207.534	14.481	931.942	696.715
208.548	14.597	930.934	696.384
209.563	14.507	930.467	695.597
210.577	14.641	929.469	695.346
211.592	14.599	929.150	694.874
212.607	14.647	928.378	694.436
213.621	14.559	928.005	693.729
214.636	14.613	926.869	693.040
215.650	14.735	926.094	692.907
216.665	14.759	925.386	692.415
217.680	14.622	925.180	691.631
218.694	14.641	924.305	690.996
219.709	14.657	923.758	690.591
220.723	14.758	923.015	690.392
221.738	14.901	921.698	689.936
222.753	14.677	921.050	688.468
223.767	14.808	920.815	688.771
224.782	15.025	919.808	688.848
225.796	14.899	919.564	688.086
226.811	14.816	919.113	687.348
227.826	14.702	918.586	686.424
228.840	14.835	917.114	685.806
229.855	14.968	916.285	685.671
230.869	14.834	915.816	684.712
231.884	14.818	915.032	684.003
232.899	14.898	914.266	683.694
233.913	14.931	913.624	683.290
234.928	14.871	913.019	682.529
235.942	14.921	912.341	682.169
236.957	14.897	911.900	681.680
237.972	14.823	911.480	681.003
238.986	15.023	910.359	680.921
240.001	14.866	910.040	679.982
241.015	14.967	909.338	679.808
242.030	14.996	908.587	679.306
243.045	14.955	908.221	678.805
244.059	14.956	907.968	678.559
245.074	14.961	907.073	677.850
246.088	15.021	906.125	677.327
247.103	15.058	905.492	676.940
248.117	15.084	905.284	676.833
249.132	15.196	904.303	676.488
250.147	15.197	903.833	676.084
251.161	15.267	903.048	675.717
252.176	15.250	902.225	674.974
253.190	15.293	901.631	674.644
254.205	15.326	901.082	674.304
255.220	15.351	900.580	673.968
256.234	15.271	899.782	672.994
257.249	15.408	899.168	673.024
258.263	15.490	898.139	672.520
259.278	15.426	897.760	671.923
260.293	15.510	896.903	671.555
261.307	15.566	896.465	671.394
262.322	15.475	895.276	670.082
263.336	15.466	895.061	669.823
264.351	15.534	894.475	669.599
265.366	15.581	893.605	669.075
266.380	15.670	892.868	668.816
267.395	15.521	892.556	667.933
268.409	15.593	891.763	667.565
269.424	15.628	891.004	667.077
270.439	15.527	890.296	666.087
271.453	15.606	889.695	665.893
272.468	15.527	889.476	665.357
273.482	15.566	888.387	664.638
274.497	15.640	888.169	664.708
275.512	15.692	887.341	664.235
276.526	15.698	887.065	663.994
277.541	15.536	886.580	662.933
278.555	15.585	885.936	662.587
279.570	15.823	884.802	662.614
280.585	15.823	884.137	662.060
281.599	15.857	883.238	661.460
282.614	15.727	882.992	660.708
283.628	15.867	881.988	660.449
284.643	15.822	881.598	659.922
285.657	15.826	881.025	659.448
286.672	15.766	880.469	658.740
287.687	15.832	879.793	658.435
288.701	15.846	879.380	658.119
289.716	15.915	878.665	657.798
290.730	15.874	877.771	656.909
291.745	15.910	877.170	656.543
292.760	16.011	876.454	656.341
293.774	15.949	876.282	655.912
294.789	15.873	875.900	655.273
295.803	15.941	874.653	654.545
296.818	16.022	874.068	654.365
297.833	15.985	873.233	653.538
298.847	15.995	872.871	653.249
299.862	16.060	872.295	653.012
300.876	15.941	871.686	652.038
301.891	16.204	870.743	652.291
302.906	16.092	870.516	651.630
303.920	16.042	870.068	651.043
304.935	16.259	869.021	651.042
305.949	16.215	868.574	650.480
306.964	16.187	868.302	650.107
307.979	16.239	867.631	649.750
308.993	16.224	867.301	649.389
310.008	16.261	866.678	649.005
311.022	16.194	865.826	648.052
312.037	16.267	865.373	647.939
313.052	16.116	864.757	646.839
314.066	16.334	863.765	646.875
315.081	16.285	863.512	646.438
316.095	16.280	862.673	645.736
317.110	16.264	862.152	645.227
318.125	16.347	861.449	644.960
319.139	16.333	861.138	644.620
320.154	16.318	860.800	644.251
321.168	16.301	860.162	643.652
322.183	16.323	859.336	643.062
323.197	16.384	859.401	643.283
324.212	16.479	858.420	642.855
325.227	16.399	857.959	642.149
326.241	16.399	857.228	641.546
327.256	16.405	856.937	641.291
328.270	16.447	855.821	640.560
329.285	16.457	855.303	640.152
330.300	16.496	854.854	639.910
331.314	16.478	854.502	639.522
332.329	16.484	854.043	639.144
333.343	16.607	853.570	639.196
334.358	16.475	853.055	638.256
335.373	16.513	852.613	638.012
336.387	16.540	852.376	637.880
337.402	16.429	852.445	637.458
338.416	16.565	852.131	637.679
339.431	16.659	851.435	637.454
340.446	16.713	850.556	636.942
341.460	16.580	850.579	636.405
342.475	16.707	850.030	636.414
343.489	16.785	849.462	636.225
344.504	16.885	848.891	636.118
345.519	16.793	848.747	635.606
346.533	16.829	848.169	635.253
347.548	16.834	847.421	634.657
348.562	16.789	846.899	634.041
349.577	16.700	846.987	633.715
350.592	16.747	845.909	633.029
351.606	16.838	845.072	632.688
352.621	16.800	843.942	631.642
353.635	16.816	844.013	631.702
354.650	16.770	843.126	630.810
355.665	16.836	842.668	630.657
356.679	16.884	841.865	630.179
357.694	16.998	841.203	630.051
358.708	16.926	840.475	629.182
359.723	16.850	840.238	628.666
360.738	16.880	839.714	628.331
361.752	16.910	839.022	627.870
362.767	17.138	838.393	628.187
363.781	16.960	837.941	627.135
364.796	17.024	837.576	627.042
365.810	17.063	836.968	626.674
366.825	17.103	836.566	626.467
367.840	17.106	836.140	626.103
368.854	17.279	835.670	626.332
369.869	17.142	835.131	625.369
370.883	17.170	834.799	625.167
371.898	17.011	834.781	624.514
372.913	17.157	834.352	624.674
373.927	17.232	833.257	624.077
374.942	17.320	832.969	624.127
375.956	17.368	832.933	624.220
376.971	17.410	832.229	623.792
377.986	17.276	831.643	622.808
379.000	17.318	831.234	622.598
380.015	17.422	830.455	622.341
381.029	17.493	829.878	622.113
382.044	17.512	829.496	621.842
383.059	17.443	828.733	620.961
384.073	17.357	828.517	620.433
385.088	17.316	828.083	619.904
386.102	17.455	827.591	619.986
387.117	17.371	826.771	619.010
388.132	17.427	826.287	618.796
389.146	17.457	825.762	618.459
390.161	17.518	825.296	618.275
391.175	17.669	824.311	618.032
392.190	17.504	824.182	617.282
393.205	17.658	823.504	617.278
394.219	17.518	823.241	616.519
395.234	17.580	823.006	616.511
396.248	17.515	822.679	615.977
397.263	17.492	822.211	615.490
398.278	17.512	821.610	615.059
399.292	17.497	821.083	614.554
400.307	17.644	820.799	614.817
401.321	17.596	820.083	614.056
402.336	17.741	819.751	614.273
403.350	17.647	819.490	613.686
404.365	17.688	819.467	613.760
405.380	17.682	818.472	612.942
406.394	17.706	818.112	612.704
407.409	17.648	817.455	611.949
408.423	17.815	817.374	612.434
409.438	17.885	816.748	612.161
410.453	17.848	816.370	611.692
411.467	17.926	816.043	611.671
412.482	17.870	815.625	611.103
413.496	17.968	815.073	610.985
414.511	18.001	814.653	610.736
415.526	17.891	814.301	610.025
416.540	18.001	813.646	609.872
417.555	17.839	813.386	609.044
418.569	17.885	812.876	608.775
419.584	17.894	812.582	608.531
420.599	18.101	811.619	608.493
421.613	114.528	1297.803	1486.334
422.628	99.113	1368.647	1486.418
