DTS Sentinel unit serial number:	SN413079Multiplexer serial number:	ORYXHardware model number:	OX4-SRSoftware version number:	ORYX F/W v4.00 Oryx Data Collector v3.7.2.0data status	okinstallation	princeton_trtdifferential loss correction	single-endedforward channel	channel 1reverse channel	N/Adate	2019/09/13time	11:02:35forward acquisition time	60.00reverse acquisition time	0.00gamma	496.2192k internal	0.2318k external	0.2318temperature offset calibration	1.0163default loss term (dB/km)	0.3790temperature slope calibration	1.0000multiplexer offset coefficient	1.0000multiplexer slope coefficient	1.0000fibre end	0.00T internal ref (°C)	31.92T ext. ref 1 (°C)	4.65T ext. ref 2 (°C)	28.80length (m)	temperature (°C)	Stokes	anti-Stokes-747.200	120.152	-0.134	-0.168
-746.185	-123.197	-0.221	-0.036
-745.171	-200.000	-0.005	-0.341
-744.156	81.291	-0.191	-0.209
-743.142	-136.823	0.303	0.035
-742.127	-12.679	-0.247	0.163
-741.112	-200.000	-0.061	-0.353
-740.098	-46.250	-0.292	0.145
-739.083	-35.242	-0.278	0.153
-738.069	-200.000	-0.034	0.207
-737.054	361.984	0.044	0.089
-736.039	-200.000	-0.050	0.265
-735.025	1.686	0.171	0.125
-734.010	800.000	-0.033	0.120
-732.996	800.000	-0.130	-0.421
-731.981	-116.298	0.096	0.018
-730.966	-200.000	0.025	-0.114
-729.952	800.000	0.041	0.134
-728.937	-114.972	-0.387	-0.074
-727.923	359.225	-0.268	0.541
-726.908	-200.000	0.008	0.129
-725.894	282.082	-0.127	0.231
-724.879	-30.266	-0.121	-0.069
-723.864	-163.366	-0.400	0.019
-722.850	-200.000	-0.146	0.000
-721.835	142.077	-0.052	-0.069
-720.821	-110.824	-0.192	0.040
-719.806	156.085	-0.184	0.257
-718.791	41.038	-0.295	0.269
-717.777	91.781	0.029	0.033
-716.762	370.268	-0.115	-0.235
-715.748	-126.078	0.130	0.020
-714.733	28.993	0.048	0.041
-713.718	298.255	-0.029	-0.054
-712.704	-51.633	-0.161	0.076
-711.689	356.676	0.123	-0.248
-710.675	-90.601	-0.158	-0.046
-709.660	-175.757	-0.334	0.009
-708.645	-200.000	0.005	0.121
-707.631	-4.407	-0.174	0.122
-706.616	398.083	-0.177	0.375
-705.602	-200.000	0.036	-0.458
-704.587	-200.000	0.012	0.190
-703.572	-68.571	-0.044	-0.017
-702.558	-200.000	0.015	-0.096
-701.543	645.011	0.040	-0.104
-700.529	-139.421	0.051	-0.005
-699.514	253.935	-0.154	-0.266
-698.499	-13.381	0.288	0.189
-697.485	-200.000	-0.003	-0.181
-696.470	-105.737	0.339	0.077
-695.456	-19.315	-0.104	-0.065
-694.441	-184.022	-0.430	0.007
-693.426	-9.593	0.216	0.145
-692.412	349.545	0.116	0.231
-691.397	236.549	-0.119	-0.199
-690.383	-77.331	0.231	0.081
-689.368	800.000	0.085	-0.239
-688.354	29.376	0.255	-0.219
-687.339	800.000	-0.046	0.149
-686.324	-55.132	-0.212	-0.096
-685.310	-200.000	0.020	0.186
-684.295	-78.589	-0.346	-0.119
-683.281	-102.519	0.113	0.027
-682.266	-80.650	-0.215	-0.072
-681.251	-67.843	0.197	0.078
-680.237	62.206	0.102	-0.103
-679.222	-200.000	0.025	-0.132
-678.208	-134.950	-0.360	-0.044
-677.193	-104.122	0.222	-0.052
-676.178	354.409	-0.112	0.224
-675.164	135.378	0.245	0.321
-674.149	-164.797	0.010	-0.000
-673.135	-111.667	0.284	-0.058
-672.120	-88.103	0.034	0.010
-671.105	-57.522	0.269	0.119
-670.091	-200.000	-0.001	-0.044
-669.076	-99.058	0.157	0.040
-668.062	-41.515	-0.048	-0.025
-667.047	800.000	-0.079	-0.236
-666.032	-178.103	0.224	-0.005
-665.018	297.847	0.157	0.291
-664.003	224.463	0.108	-0.176
-662.989	-117.148	0.282	-0.052
-661.974	800.000	0.093	0.277
-660.959	-84.872	-0.038	-0.012
-659.945	266.402	-0.148	-0.261
-658.930	-200.000	0.059	-0.299
-657.916	-12.371	-0.241	0.159
-656.901	135.126	0.359	0.471
-655.886	-84.349	-0.131	-0.042
-654.872	-37.944	-0.117	-0.062
-653.857	238.667	-0.086	-0.144
-652.843	56.844	0.239	-0.235
-651.828	287.642	-0.108	-0.198
-650.814	-162.412	-0.137	0.007
-649.799	110.375	0.146	0.177
-648.784	-200.000	0.007	0.176
-647.770	800.000	-0.028	0.111
-646.755	39.358	-0.044	-0.039
-645.741	371.068	0.019	-0.039
-644.726	-54.126	0.173	0.079
-643.711	-29.366	-0.222	0.128
-642.697	74.093	-0.221	-0.234
-641.682	-200.000	-0.004	-0.074
-640.668	-98.504	-0.150	0.039
-639.653	-66.263	0.147	-0.059
-638.638	-136.164	0.057	0.007
-637.624	800.000	0.019	-0.057
-636.609	10.059	0.173	0.132
-635.595	90.084	-0.280	0.315
-634.580	55.703	0.235	0.230
-633.565	-33.325	-0.058	0.032
-632.551	84.318	-0.147	-0.162
-631.536	-200.000	0.024	-0.348
-630.522	-108.622	-0.381	-0.082
-629.507	800.000	0.093	-0.355
-628.492	451.077	0.080	-0.179
-627.478	48.182	-0.056	-0.053
-626.463	-132.124	0.068	-0.009
-625.449	-200.000	-0.001	-0.152
-624.434	-126.696	-0.352	-0.053
-623.419	-200.000	-0.048	-0.230
-622.405	-44.568	0.296	0.149
-621.390	-173.698	0.202	0.006
-620.376	-200.000	0.020	-0.194
-619.361	-6.012	-0.154	-0.106
-618.346	564.780	-0.107	0.261
-617.332	-94.651	-0.146	-0.040
-616.317	16.044	0.120	-0.095
-615.303	-2.719	0.146	-0.103
-614.288	-200.000	0.006	0.087
-613.273	-14.573	0.198	0.128
-612.259	-144.834	-0.218	-0.020
-611.244	422.477	-0.128	-0.277
-610.230	-200.000	0.005	-0.068
-609.215	-36.853	-0.154	-0.083
-608.201	-46.817	0.341	-0.168
-607.186	732.471	-0.068	0.184
-606.171	-116.971	-0.334	-0.061
-605.157	35.467	-0.289	-0.255
-604.142	468.294	-0.103	-0.232
-603.128	-200.000	0.071	0.331
-602.113	-200.000	-0.045	0.339
-601.098	800.000	0.087	-0.298
-600.084	319.429	0.182	-0.347
-599.069	585.694	0.031	0.076
-598.055	-200.000	-0.044	-0.308
-597.040	-161.279	-0.150	0.008
-596.025	46.710	0.284	-0.266
-595.011	-96.643	0.160	0.042
-593.996	490.312	0.112	0.258
-592.982	73.600	-0.332	0.349
-591.967	-9.987	-0.110	-0.073
-590.952	-121.819	0.240	0.040
-589.938	162.662	0.088	-0.124
-588.923	-200.000	-0.009	0.048
-587.909	-139.581	-0.142	-0.015
-586.894	-7.558	-0.131	0.089
-585.879	-105.941	-0.011	-0.003
-584.865	-161.711	-0.226	-0.012
-583.850	317.038	-0.152	-0.290
-582.836	119.341	-0.209	-0.261
-581.821	-61.444	0.160	0.068
-580.806	556.300	-0.117	0.283
-579.792	86.265	-0.212	-0.234
-578.777	722.546	0.097	-0.261
-577.763	544.045	-0.089	0.214
-576.748	-30.651	0.532	0.303
-575.733	-184.967	-0.130	-0.002
-574.719	294.881	-0.041	0.076
-573.704	-58.311	-0.109	-0.047
-572.690	-113.629	-0.153	0.030
-571.675	-120.610	-0.099	0.017
-570.661	-53.466	-0.160	0.074
-569.646	-187.074	-0.270	0.004
-568.631	16.276	0.244	-0.193
-567.617	99.123	-0.136	0.158
-566.602	800.000	0.108	0.432
-565.588	346.166	-0.066	0.131
-564.573	217.548	-0.130	-0.209
-563.558	-36.880	-0.326	-0.176
-562.544	-200.000	-0.061	-0.308
-561.529	514.065	0.039	0.091
-560.515	11.831	0.266	-0.205
-559.500	-56.665	-0.005	-0.002
-558.485	216.730	0.066	0.105
-557.471	-74.457	0.262	-0.095
-556.456	-200.000	-0.000	-0.136
-555.442	412.039	0.033	0.071
-554.427	-200.000	-0.028	-0.125
-553.412	-83.811	0.185	0.059
-552.398	-91.175	-0.498	0.143
-551.383	49.671	-0.207	0.196
-550.369	800.000	-0.040	0.111
-549.354	193.278	-0.179	0.272
-548.339	-125.688	0.056	-0.008
-547.325	-200.000	-0.005	0.116
-546.310	-167.604	-0.112	-0.004
-545.296	-28.990	0.146	-0.084
-544.281	-200.000	-0.021	0.237
-543.266	-97.735	-0.310	-0.081
-542.252	167.000	-0.135	0.192
-541.237	-200.000	0.024	-0.174
-540.223	-6.503	0.215	-0.147
-539.208	-100.962	-0.356	-0.088
-538.193	-115.990	-0.053	0.010
-537.179	45.362	0.138	-0.128
-536.164	-200.000	0.019	0.262
-535.150	35.765	-0.388	-0.342
-534.135	-200.000	-0.002	0.342
-533.121	-13.420	0.005	-0.003
-532.106	-200.000	0.011	0.141
-531.091	72.050	0.151	-0.158
-530.077	-166.790	-0.455	-0.019
-529.062	-200.000	-0.035	0.234
-528.048	-81.229	-0.288	-0.095
-527.033	26.832	-0.154	0.130
-526.018	-200.000	-0.017	-0.530
-525.004	252.709	-0.097	0.167
-523.989	297.125	0.183	-0.336
-522.975	-110.336	0.285	0.060
-521.960	-71.977	-0.239	0.089
-520.945	-110.402	-0.099	-0.021
-519.931	668.172	-0.062	0.162
-518.916	-17.855	0.240	0.151
-517.902	-71.754	0.303	-0.113
-516.887	267.474	0.082	0.145
-515.872	619.781	-0.087	0.218
-514.858	-75.219	-0.122	-0.044
-513.843	800.000	-0.103	-0.303
-512.829	236.792	-0.077	-0.128
-511.814	488.318	-0.117	0.267
-510.799	-79.307	-0.219	-0.074
-509.785	320.737	-0.062	0.119
-508.770	800.000	-0.070	0.231
-507.756	133.280	0.096	0.124
-506.741	-39.320	-0.264	-0.139
-505.726	-122.975	-0.230	-0.037
-504.712	531.690	-0.076	0.181
-503.697	25.253	-0.176	-0.146
-502.683	-200.000	-0.016	-0.153
-501.668	-200.000	0.033	0.302
-500.653	-97.167	0.159	0.042
-499.639	-86.056	-0.241	-0.075
-498.624	59.147	0.093	0.092
-497.610	-50.271	0.381	-0.181
-496.595	130.056	0.175	-0.225
-495.581	289.330	0.113	-0.206
-494.566	230.776	0.087	0.143
-493.551	302.064	-0.128	0.237
-492.537	-12.850	-0.191	0.124
-491.522	442.722	-0.082	-0.181
-490.508	-178.072	0.057	0.001
-489.493	97.053	0.039	-0.045
-488.478	-69.621	-0.075	0.029
-487.464	32.473	-0.253	0.219
-486.449	-195.953	-0.353	-0.003
-485.435	800.000	0.130	-0.369
-484.420	214.032	-0.158	-0.251
-483.405	32.752	0.155	0.134
-482.391	-131.150	-0.122	-0.016
-481.376	-39.062	0.300	0.158
-480.362	-200.000	-0.057	-0.297
-479.347	-13.820	0.345	-0.223
-478.332	51.503	0.386	-0.367
-477.318	-166.249	-0.070	-0.003
-476.303	-128.468	-0.249	-0.035
-475.289	-121.898	-0.374	-0.062
-474.274	111.339	0.058	-0.070
-473.259	1.758	-0.145	-0.105
-472.245	-62.745	0.037	0.015
-471.230	-8.012	-0.184	-0.124
-470.216	-189.846	0.459	0.005
-469.201	-200.000	-0.002	-0.040
-468.186	136.003	0.078	-0.102
-467.172	-83.826	0.238	-0.076
-466.157	-29.116	-0.170	0.098
-465.143	-80.246	-0.232	-0.078
-464.128	12.941	0.169	-0.131
-463.113	-200.000	-0.045	-0.305
-462.099	108.990	-0.059	-0.071
-461.084	118.336	0.195	-0.241
-460.070	-43.588	0.268	0.135
-459.055	-124.652	-0.166	-0.026
-458.040	-135.451	-0.156	-0.019
-457.026	-76.111	0.422	0.149
-456.011	287.433	-0.084	0.153
-454.997	-36.858	-0.075	-0.040
-453.982	143.306	-0.184	0.245
-452.968	800.000	-0.086	0.319
-451.953	231.568	-0.148	0.242
-450.938	769.651	0.087	0.236
-449.924	-70.969	0.255	-0.096
-448.909	800.000	-0.036	0.158
-447.895	-20.028	0.132	0.081
-446.880	-85.249	0.385	0.120
-445.865	-200.000	-0.005	-0.109
-444.851	-93.511	-0.161	-0.045
-443.836	800.000	0.099	0.395
-442.822	24.200	-0.120	-0.099
-441.807	778.587	-0.053	-0.144
-440.792	800.000	0.068	0.196
-439.778	-65.063	-0.176	-0.071
-438.763	-200.000	-0.004	-0.066
-437.749	151.926	-0.273	0.372
-436.734	-200.000	0.012	0.059
-435.719	-43.334	-0.394	0.199
-434.705	116.271	-0.265	-0.324
-433.690	582.389	0.065	0.160
-432.676	-25.234	-0.281	0.166
-431.661	-148.637	0.450	0.037
-430.646	-142.129	-0.296	0.029
-429.632	200.333	0.048	-0.073
-428.617	-134.686	-0.096	-0.012
-427.603	48.971	0.165	0.155
-426.588	-170.068	0.184	-0.007
-425.573	-15.325	-0.210	0.134
-424.559	-44.808	-0.277	0.138
-423.544	-31.661	0.123	0.069
-422.530	-48.710	-0.077	-0.037
-421.515	-87.690	0.084	0.025
-420.500	75.370	-0.093	0.098
-419.486	-33.585	0.144	0.080
-418.471	-200.000	-0.020	-0.229
-417.457	-101.657	-0.093	0.022
-416.442	-146.723	0.198	-0.017
-415.428	61.682	-0.114	0.114
-414.413	-200.000	0.001	-0.067
-413.398	91.994	-0.077	-0.086
-412.384	-200.000	-0.043	-0.223
-411.369	6.917	0.109	0.081
-410.355	408.290	0.077	0.163
-409.340	-125.642	-0.220	0.033
-408.325	640.858	0.075	-0.192
-407.311	40.639	0.208	-0.187
-406.296	546.745	0.096	0.229
-405.282	800.000	0.075	-0.236
-404.267	-73.532	0.315	-0.115
-403.252	-158.221	0.163	0.010
-402.238	-127.849	-0.128	0.018
-401.223	800.000	-0.078	-0.238
-400.209	-200.000	0.017	0.309
-399.194	187.766	-0.095	0.141
-398.179	-51.169	0.148	0.069
-397.165	45.065	-0.116	-0.106
-396.150	800.000	-0.061	-0.249
-395.136	-78.179	0.195	0.067
-394.121	124.593	0.098	0.124
-393.106	-161.989	0.194	-0.010
-392.092	-75.069	0.025	-0.009
-391.077	-90.026	0.448	-0.130
-390.063	-200.000	0.169	-0.001
-389.048	-63.363	0.240	0.099
-388.033	30.220	-0.159	0.136
-387.019	-200.000	-0.063	-0.291
-386.004	5.979	0.214	0.158
-384.990	269.018	-0.037	0.065
-383.975	593.466	-0.077	-0.190
-382.960	-57.406	-0.202	0.089
-381.946	211.372	0.095	-0.150
-380.931	32.177	-0.162	0.139
-379.917	328.031	-0.012	0.023
-378.902	-200.000	-0.004	-0.040
-377.888	89.371	0.131	-0.146
-376.873	173.993	-0.052	-0.075
-375.858	800.000	0.038	-0.107
-374.844	-59.367	-0.133	0.057
-373.829	117.093	-0.234	-0.287
-372.815	-154.312	0.232	-0.016
-371.800	-200.000	0.009	0.084
-370.785	32.704	0.178	-0.154
-369.771	-87.478	0.465	0.140
-368.756	285.543	0.098	-0.176
-367.742	-200.000	-0.006	0.100
-366.727	-92.971	0.155	0.043
-365.712	101.038	-0.171	0.198
-364.698	71.102	-0.024	-0.025
-363.683	-122.685	-0.084	-0.014
-362.669	9.733	-0.027	0.020
-361.654	-200.000	0.013	-0.127
-360.639	-200.000	-0.034	-0.264
-359.625	531.137	0.131	0.308
-358.610	-78.415	0.380	-0.130
-357.596	-144.405	0.111	0.010
-356.581	-107.717	-0.078	-0.017
-355.566	-102.595	-0.291	-0.069
-354.552	-112.791	0.318	-0.063
-353.537	-88.941	0.366	0.108
-352.523	-87.183	0.086	-0.026
-351.508	98.606	0.111	0.128
-350.493	-50.576	-0.312	0.146
-349.479	71.053	-0.241	-0.249
-348.464	147.150	0.062	-0.083
-347.450	-95.749	-0.156	-0.042
-346.435	-54.619	0.271	0.122
-345.420	490.161	0.129	-0.295
-344.406	800.000	-0.021	-0.079
-343.391	194.125	0.180	-0.272
-342.377	800.000	0.057	-0.246
-341.362	95.497	0.190	-0.216
-340.348	5.918	-0.276	-0.204
-339.333	223.603	0.093	0.150
-338.318	-200.000	0.042	0.289
-337.304	317.209	-0.059	0.112
-336.289	-98.817	0.354	-0.090
-335.275	-102.321	-0.086	-0.021
-334.260	-2.093	0.136	0.095
-333.245	-186.882	0.160	0.002
-332.231	-41.395	0.266	0.136
-331.216	153.265	0.047	-0.064
-330.202	349.561	0.186	0.366
-329.187	-200.000	0.004	-0.080
-328.172	-179.744	0.192	-0.004
-327.158	-14.452	-0.245	-0.157
-326.143	-38.400	-0.170	-0.089
-325.129	-92.754	0.319	0.089
-324.114	26.345	0.360	0.299
-323.099	59.759	-0.075	0.074
-322.085	-48.979	0.116	0.055
-321.070	-6.718	0.171	0.116
-320.056	286.300	0.112	-0.202
-319.041	-69.407	-0.198	-0.076
-318.026	759.043	0.103	0.277
-317.012	8.621	0.281	0.210
-315.997	-96.969	0.377	-0.098
-314.983	-153.702	0.343	-0.023
-313.968	-171.867	-0.173	-0.006
-312.953	95.155	-0.145	0.164
-311.939	-98.523	-0.139	0.035
-310.924	-101.009	-0.326	0.080
-309.910	714.923	0.061	-0.161
-308.895	-200.000	-0.030	-0.293
-307.880	800.000	-0.042	0.125
-306.866	-78.264	-0.139	-0.047
-305.851	800.000	-0.041	-0.124
-304.837	136.139	-0.091	-0.118
-303.822	-200.000	-0.006	0.032
-302.807	18.679	0.116	-0.093
-301.793	-200.000	0.015	0.260
-300.778	67.685	0.209	0.213
-299.764	-60.775	0.141	0.059
-298.749	290.767	0.064	-0.116
-297.735	-200.000	-0.009	-0.272
-296.720	110.223	0.053	-0.064
-295.705	78.226	-0.122	-0.130
-294.691	-145.509	-0.294	0.026
-293.676	-74.006	0.223	-0.081
-292.662	286.589	-0.112	0.201
-291.647	-106.645	-0.371	0.082
-290.632	-149.975	0.490	0.038
-289.618	-166.889	0.214	-0.009
-288.603	-200.000	0.041	0.186
-287.589	-200.000	-0.037	-0.244
-286.574	-200.000	0.022	0.109
-285.559	117.727	0.060	-0.073
-284.545	-91.855	-0.196	0.055
-283.530	-40.366	-0.062	0.032
-282.516	800.000	-0.017	0.068
-281.501	13.352	-0.331	-0.255
-280.486	800.000	0.017	0.051
-279.472	-24.157	0.138	-0.082
-278.457	-3.266	0.148	-0.102
-277.443	800.000	-0.097	-0.268
-276.428	81.405	0.144	-0.155
-275.413	-51.016	-0.220	-0.102
-274.399	7.419	0.110	-0.082
-273.384	277.383	0.043	0.077
-272.370	109.691	-0.140	-0.167
-271.355	51.084	-0.101	0.095
-270.340	27.040	-0.148	0.123
-269.326	208.244	-0.150	-0.233
-268.311	257.271	0.154	0.264
-267.297	-155.045	-0.155	-0.010
-266.282	-148.315	-0.249	-0.020
-265.267	-78.064	-0.047	-0.016
-264.253	1.781	0.319	-0.228
-263.238	-83.755	0.174	0.055
-262.224	-95.148	-0.117	-0.031
-261.209	160.425	0.240	-0.333
-260.195	-200.000	-0.024	-0.244
-259.180	-18.458	-0.135	-0.084
-258.165	-62.333	0.409	0.169
-257.151	-136.228	-0.301	0.035
-256.136	-200.000	-0.050	0.502
-255.122	-96.749	-0.348	-0.091
-254.107	-107.080	-0.255	0.056
-253.092	-47.268	0.298	0.144
-252.078	-200.000	-0.009	-0.417
-251.063	129.126	0.063	-0.080
-250.049	-21.962	-0.061	-0.037
-249.034	-41.452	0.279	0.142
-248.019	-52.442	-0.150	-0.069
-247.005	800.000	-0.126	0.453
-245.990	-169.394	0.171	0.006
-244.976	800.000	0.093	0.373
-243.961	139.761	0.255	-0.334
-242.946	6.958	-0.024	0.017
-241.932	114.427	-0.084	-0.102
-240.917	-200.000	0.056	0.334
-239.903	-74.857	-0.280	-0.100
-238.888	45.150	0.155	0.142
-237.873	109.916	0.190	0.226
-236.859	128.573	-0.036	-0.045
-235.844	-74.293	0.135	0.049
-234.830	800.000	-0.102	0.348
-233.815	-200.000	0.005	-0.055
-232.800	29.409	-0.217	0.183
-231.786	800.000	-0.014	0.056
-230.771	51.020	0.135	0.127
-229.757	135.368	0.125	-0.162
-228.742	800.000	-0.112	0.340
-227.727	800.000	0.153	0.537
-226.713	40.771	-0.053	-0.047
-225.698	-3.002	0.242	-0.167
-224.684	51.406	-0.105	0.099
-223.669	-200.000	0.041	0.194
-222.655	63.627	0.015	0.015
-221.640	131.225	-0.097	0.124
-220.625	-39.073	0.275	0.144
-219.611	-124.017	0.314	-0.049
-218.596	-14.041	-0.134	-0.086
-217.582	45.440	0.168	-0.153
-216.567	-103.857	0.146	-0.034
-215.552	-31.170	-0.202	0.113
-214.538	-40.531	-0.017	-0.009
-213.523	800.000	0.030	0.098
-212.509	79.295	0.179	-0.190
-211.494	79.346	0.102	0.108
-210.479	-38.872	-0.131	-0.069
-209.465	-200.000	-0.027	-0.157
-208.450	658.210	-0.038	0.098
-207.436	-145.335	0.219	-0.020
-206.421	305.689	-0.062	0.114
-205.406	800.000	-0.053	-0.150
-204.392	105.546	0.147	0.172
-203.377	398.771	-0.058	0.121
-202.363	96.743	-0.210	0.238
-201.348	213.382	0.052	0.081
-200.333	800.000	-0.022	-0.063
-199.319	-200.000	-0.012	0.383
-198.304	-30.809	0.090	-0.051
-197.290	-200.000	-0.440	-0.001
-196.275	-6.727	-0.060	-0.040
-195.260	675.604	0.084	0.217
-194.246	12.473	-0.087	-0.066
-193.231	-113.627	0.227	0.044
-192.217	-2.456	-0.295	0.205
-191.202	197.111	0.116	0.176
-190.187	-49.720	-0.129	-0.061
-189.173	96.436	-0.134	-0.152
-188.158	8.736	0.089	0.066
-187.144	-87.376	-0.227	-0.068
-186.129	607.709	0.102	0.253
-185.114	180.749	-0.139	-0.202
-184.100	-66.463	0.098	0.039
-183.085	229.181	0.137	0.222
-182.071	51.145	0.163	-0.153
-181.056	-171.290	0.085	-0.003
-180.042	-61.736	-0.145	-0.060
-179.027	493.520	-0.066	-0.150
-178.012	367.994	-0.070	-0.140
-176.998	-200.000	-0.012	0.119
-175.983	-200.000	-0.001	-0.042
-174.969	-200.000	-0.030	-0.198
-173.954	800.000	-0.093	-0.270
-172.939	-200.000	0.015	0.181
-171.925	800.000	0.047	-0.130
-170.910	133.348	-0.329	-0.420
-169.896	800.000	0.031	-0.098
-168.881	208.949	0.297	0.460
-167.866	-200.000	0.011	-0.077
-166.852	3.039	0.303	-0.218
-165.837	800.000	0.048	-0.152
-164.823	-200.000	0.015	0.140
-163.808	143.069	-0.074	0.097
-162.793	-116.797	0.177	0.032
-161.779	80.788	0.241	-0.257
-160.764	-57.683	-0.288	0.125
-159.750	271.720	-0.199	-0.346
-158.735	11.586	0.158	0.120
-157.720	85.342	0.257	0.279
-156.706	-174.174	-0.376	-0.011
-155.691	76.936	0.043	0.045
-154.677	465.444	-0.034	0.076
-153.662	231.228	-0.114	0.184
-152.647	4.824	-0.126	-0.092
-151.633	-92.828	0.046	-0.013
-150.618	800.000	-0.073	0.307
-149.604	-200.000	0.005	0.404
-148.589	-57.462	0.199	0.086
-147.574	-154.134	0.201	-0.013
-146.560	399.971	-0.146	0.302
-145.545	-94.682	0.471	0.126
-144.531	-61.955	0.029	-0.012
-143.516	195.994	-0.047	-0.071
-142.502	202.427	0.231	-0.353
-141.487	550.678	0.068	0.162
-140.472	240.274	0.196	-0.323
-139.458	-200.000	-0.004	0.116
-138.443	104.092	-0.107	-0.125
-137.429	-99.570	-0.300	0.075
-136.414	-146.624	-0.100	0.009
-135.399	-200.000	0.047	0.449
-134.385	223.672	-0.204	-0.326
-133.370	800.000	-0.042	-0.135
-132.356	144.307	-0.123	-0.163
-131.341	800.000	0.052	-0.214
-130.326	68.268	-0.150	0.152
-129.312	144.925	0.187	0.247
-128.297	800.000	0.146	0.491
-127.283	20.535	-0.093	-0.075
-126.268	149.497	-0.070	0.093
-125.253	-200.000	0.016	0.166
-124.239	800.000	-0.086	-0.275
-123.224	17.869	0.057	0.045
-122.210	-200.000	-0.004	-0.049
-121.195	182.392	-0.059	0.086
-120.180	-200.000	-0.007	-0.114
-119.166	215.860	0.061	-0.095
-118.151	-196.959	0.230	0.001
-117.137	54.237	-0.139	-0.132
-116.122	800.000	-0.059	-0.198
-115.107	137.995	0.065	0.085
-114.093	13.929	0.196	0.150
-113.078	-200.000	-0.022	-0.243
-112.064	-143.235	-0.117	0.011
-111.049	-30.675	-0.145	-0.081
-110.034	-66.701	0.299	-0.117
-109.020	-200.000	0.085	0.437
-108.005	0.013	-0.189	-0.133
-106.991	-14.271	0.079	-0.050
-105.976	19.924	0.165	-0.132
-104.962	800.000	-0.071	-0.280
-103.947	19.833	-0.085	-0.067
-102.932	-200.000	-0.029	0.129
-101.918	800.000	0.092	-0.290
-100.903	-92.500	0.206	-0.057
-99.889	-200.000	0.044	-0.428
-98.874	-66.588	-0.195	0.076
-97.859	-157.440	-0.310	0.018
-96.845	-54.709	0.294	0.131
-95.830	-200.000	-0.154	0.001
-94.816	-137.761	0.197	0.022
-93.801	-56.499	0.153	-0.067
-92.786	-75.535	-0.284	0.100
-91.772	-32.912	0.157	-0.086
-90.757	-46.685	0.164	0.079
-89.743	199.338	0.195	-0.295
-88.728	-98.480	-0.329	0.083
-87.713	-5.671	0.040	0.027
-86.699	800.000	0.161	-0.663
-85.684	-91.359	-0.079	0.022
-84.670	178.012	-0.034	0.049
-83.655	209.046	-0.022	0.035
-82.640	-42.385	0.182	0.092
-81.626	-59.416	0.103	0.043
-80.611	16.084	0.267	-0.208
-79.597	72.483	-0.128	0.131
-78.582	-162.361	-0.155	0.008
-77.567	-110.429	-0.319	-0.065
-76.553	-200.000	-0.080	0.428
-75.538	800.000	-0.083	-0.310
-74.524	-200.000	-0.014	-0.203
-73.509	54.212	-0.358	-0.339
-72.494	800.000	-0.091	0.372
-71.480	-173.193	-0.103	0.003
-70.465	-80.381	0.156	0.051
-69.451	-153.414	-0.098	-0.007
-68.436	-150.817	0.268	0.020
-67.422	-26.800	0.326	-0.188
-66.407	160.398	-0.037	-0.051
-65.392	-200.000	0.003	-0.085
-64.378	-115.553	-0.316	0.058
-63.363	658.267	0.018	0.046
-62.349	-166.730	0.331	-0.013
-61.334	140.281	-0.794	-1.032
-60.319	115.346	0.708	0.852
-59.305	264.166	-0.301	-0.516
-58.290	89.511	0.701	0.770
-57.276	391.156	0.743	1.519
-56.261	-200.000	95.499	592.335
-55.246	636.446	1398.288	3497.519
-54.232	191.410	2590.417	3841.928
-53.217	119.641	2170.197	2647.900
-52.203	44.014	1621.575	1463.856
-51.188	35.437	1356.598	1172.491
-50.173	32.215	1314.640	1117.063
-49.159	54.885	1361.023	1293.874
-48.144	56.639	1377.397	1319.965
-47.130	35.624	1337.031	1156.521
-46.115	32.090	1319.671	1120.418
-45.100	31.820	1314.602	1114.460
-44.086	31.733	1312.442	1112.071
-43.071	31.718	1309.937	1109.817
-42.057	31.641	1308.179	1107.828
-41.042	31.776	1305.725	1106.502
-40.027	31.810	1304.612	1105.716
-39.013	31.784	1302.798	1103.980
-37.998	31.808	1300.943	1102.506
-36.984	31.948	1298.733	1101.412
-35.969	31.995	1296.818	1100.020
-34.954	31.926	1295.581	1098.524
-33.940	31.970	1293.955	1097.354
-32.925	31.998	1292.633	1096.354
-31.911	32.103	1290.801	1095.371
-30.896	32.016	1289.583	1093.789
-29.881	31.964	1288.457	1092.486
-28.867	31.971	1287.018	1091.261
-27.852	32.112	1285.111	1090.424
-26.838	32.013	1283.981	1088.843
-25.823	31.999	1282.346	1087.331
-24.809	32.066	1281.354	1086.837
-23.794	32.054	1280.275	1085.808
-22.779	32.098	1278.462	1084.483
-21.765	31.993	1277.423	1082.951
-20.750	32.042	1275.594	1081.645
-19.736	31.928	1274.801	1080.269
-18.721	31.920	1273.433	1079.023
-17.706	31.867	1272.251	1077.671
-16.692	31.761	1271.527	1076.406
-15.677	31.835	1270.184	1075.656
-14.663	31.913	1268.853	1074.929
-13.648	31.869	1267.481	1073.473
-12.633	31.826	1266.870	1072.669
-11.619	31.925	1265.703	1072.201
-10.604	31.956	1264.763	1071.541
-9.590	31.833	1264.037	1070.184
-8.575	31.857	1262.789	1069.221
-7.560	31.723	1262.474	1068.145
-6.546	31.813	1260.969	1067.341
-5.531	31.684	1260.574	1066.229
-4.517	31.741	1259.749	1065.813
-3.502	31.760	1258.950	1065.207
-2.487	31.815	1257.676	1064.396
-1.473	31.772	1253.830	1060.856
-0.458	30.613	1239.244	1041.982
0.556	29.201	1221.314	1004.268
1.571	25.333	1226.611	987.315
2.586	23.983	1241.302	991.530
3.600	22.774	1228.502	974.550
4.615	16.966	1155.648	886.412
5.629	8.875	1080.475	788.997
6.644	5.002	1060.351	755.496
7.659	4.710	1057.664	752.106
8.673	4.409	1056.402	749.686
9.688	4.480	1054.903	748.899
10.702	4.999	1053.274	750.172
11.717	10.532	1061.316	782.595
12.731	18.736	1072.555	830.669
13.746	22.158	1076.468	850.209
14.761	21.970	1076.126	848.952
15.775	21.158	1073.977	843.261
16.790	20.184	1071.613	836.636
17.804	19.607	1070.611	832.997
18.819	19.229	1069.702	830.392
19.834	19.056	1069.078	829.005
20.848	18.967	1068.347	827.934
21.863	18.905	1067.264	826.724
22.877	18.636	1066.989	825.146
23.892	18.712	1065.667	824.411
24.907	18.627	1065.317	823.663
25.921	18.543	1064.441	822.511
26.936	18.637	1063.107	821.856
27.950	18.663	1061.842	820.927
28.965	18.780	1060.202	820.147
29.980	18.937	1058.958	819.860
30.994	19.036	1057.777	819.344
32.009	19.146	1056.096	818.495
33.023	19.052	1055.727	817.691
34.038	18.821	1054.878	815.863
35.053	18.749	1054.013	814.779
36.067	18.848	1052.634	814.109
37.082	18.803	1052.216	813.503
38.096	18.844	1051.755	813.267
39.111	18.908	1051.018	812.929
40.126	18.712	1049.423	810.699
41.140	18.424	1047.871	808.069
42.155	18.396	1047.001	807.196
43.169	18.353	1045.491	805.759
44.184	18.312	1044.184	804.484
45.199	18.230	1043.860	803.778
46.213	18.424	1043.143	804.065
47.228	18.739	1042.043	804.624
48.242	18.708	1041.237	803.784
49.257	18.848	1039.775	803.239
50.271	18.795	1038.931	802.268
51.286	18.835	1038.562	802.103
52.301	18.825	1037.388	801.078
53.315	18.653	1036.667	799.648
54.330	18.517	1035.147	797.771
55.344	18.637	1034.230	797.552
56.359	18.518	1033.974	796.729
57.374	18.522	1032.497	795.541
58.388	18.372	1031.591	794.075
59.403	18.284	1031.379	793.434
60.417	18.359	1030.145	792.762
61.432	18.205	1029.782	791.701
62.447	18.188	1028.637	790.673
63.461	18.129	1027.795	789.684
64.476	18.096	1026.766	788.671
65.490	18.106	1025.935	788.008
66.505	18.126	1025.458	787.665
67.520	18.188	1024.992	787.523
68.534	18.187	1024.257	786.882
69.549	18.092	1023.801	786.026
70.563	18.098	1022.097	784.675
71.578	17.920	1021.947	783.673
72.593	17.939	1020.553	782.622
73.607	17.844	1020.357	781.968
74.622	18.027	1019.507	782.083
75.636	17.952	1018.870	781.182
76.651	18.155	1018.291	781.597
77.666	17.967	1017.823	780.310
78.680	17.992	1017.153	779.845
79.695	18.009	1016.618	779.441
80.709	18.288	1015.942	780.125
81.724	18.305	1015.621	779.889
82.739	18.447	1014.472	779.583
83.753	18.687	1014.123	780.337
84.768	18.962	1013.259	780.852
85.782	19.166	1012.399	781.044
86.797	19.044	1011.501	779.729
87.812	18.922	1010.505	778.341
88.826	18.788	1009.661	777.014
89.841	18.983	1008.841	777.199
90.855	18.996	1007.746	776.345
91.870	19.073	1007.370	776.334
92.884	18.946	1006.682	775.161
93.899	18.951	1005.882	774.501
94.914	19.149	1004.767	774.463
95.928	18.931	1004.416	773.147
96.943	18.857	1003.083	771.717
97.957	18.870	1002.181	771.014
98.972	18.926	1001.190	770.432
99.987	18.961	1000.454	769.956
101.001	18.920	999.545	769.005
102.016	18.868	998.576	767.959
103.030	19.095	997.727	768.251
104.045	18.882	997.458	767.028
105.060	18.797	996.234	765.638
106.074	18.572	994.875	763.525
107.089	18.364	993.983	761.847
108.103	18.363	993.183	761.160
109.118	18.225	992.333	759.830
110.133	18.134	991.377	758.629
111.147	18.235	990.113	758.043
112.162	18.298	989.462	757.754
113.176	18.406	988.924	757.754
114.191	18.504	988.496	757.790
115.206	18.360	987.493	756.318
116.220	18.251	986.672	755.143
117.235	18.145	985.913	754.028
118.249	18.435	984.806	754.391
119.264	18.232	983.982	752.801
120.279	18.137	983.101	751.642
121.293	18.116	982.559	751.069
122.308	18.066	981.418	749.911
123.322	18.114	980.068	749.021
124.337	17.947	979.403	747.719
125.352	18.020	978.090	746.969
126.366	18.019	977.134	746.168
127.381	18.007	976.307	745.416
128.395	18.118	975.747	745.406
129.410	18.213	974.726	744.974
130.424	18.319	973.689	744.578
131.439	18.379	973.275	744.455
132.454	18.400	972.540	743.918
133.468	18.535	971.381	743.553
134.483	18.506	970.628	742.787
135.497	18.393	969.962	741.719
136.512	18.334	969.196	740.816
137.527	18.570	968.077	740.914
138.541	18.535	967.534	740.281
139.556	18.618	967.202	740.318
140.570	18.838	966.675	740.798
141.585	19.022	965.525	740.643
142.600	18.978	965.128	740.084
143.614	19.037	964.110	739.490
144.629	19.027	963.592	738.985
145.643	18.972	962.622	737.941
146.658	18.756	961.432	736.039
147.673	18.541	960.829	734.590
148.687	18.434	959.813	733.289
149.702	18.319	958.761	731.931
150.716	18.392	958.041	731.630
151.731	18.448	957.331	731.262
152.746	18.424	956.672	730.591
153.760	18.641	955.520	730.570
154.775	18.725	955.572	730.903
155.789	18.853	954.571	730.617
156.804	18.697	954.371	729.734
157.819	18.865	953.456	729.685
158.833	18.992	952.898	729.730
159.848	19.018	952.283	729.307
160.862	19.019	950.822	728.127
161.877	18.711	949.682	725.887
162.892	18.584	948.692	724.532
163.906	18.495	947.810	723.418
164.921	18.491	947.070	722.771
165.935	18.759	945.801	722.868
166.950	18.639	945.288	721.908
167.964	18.781	944.244	721.643
168.979	18.559	943.377	719.984
169.994	18.720	941.913	719.479
171.008	18.721	942.045	719.518
172.023	19.075	941.089	720.204
173.037	19.070	940.742	719.857
174.052	18.939	939.870	718.580
175.067	18.549	939.004	716.225
176.081	18.386	938.710	715.257
177.096	18.504	937.878	715.051
178.110	18.625	937.327	715.071
179.125	18.592	936.898	714.544
180.140	18.635	936.548	714.391
181.154	18.881	936.056	714.980
182.169	19.049	935.641	715.296
183.183	19.113	934.791	714.851
184.198	19.087	934.067	714.125
185.213	19.080	933.662	713.722
186.227	19.078	932.866	713.042
187.242	19.039	932.560	712.583
188.256	19.181	931.852	712.565
189.271	19.237	931.212	712.244
190.286	18.886	930.338	710.064
191.300	18.377	928.766	706.703
192.315	18.310	928.138	705.886
193.329	18.474	927.353	705.903
194.344	18.661	927.360	706.613
195.359	18.807	926.424	706.438
196.373	18.980	926.126	706.858
197.388	19.054	926.031	707.030
198.402	19.301	925.570	707.627
199.417	19.399	924.908	707.461
200.432	19.452	924.573	707.361
201.446	19.606	924.186	707.632
202.461	19.722	923.484	707.507
203.475	19.345	923.285	705.752
204.490	19.372	921.618	704.525
205.504	19.113	921.043	702.964
206.519	18.974	920.573	701.976
207.534	19.026	920.108	701.770
208.548	19.094	919.282	701.357
209.563	19.148	918.299	700.764
210.577	19.338	917.277	700.695
211.592	19.372	917.193	700.708
212.607	19.487	916.112	700.284
213.621	19.338	915.833	699.407
214.636	19.387	914.903	698.830
215.650	19.542	914.551	699.131
216.665	19.605	913.799	698.749
217.680	19.634	913.440	698.529
218.694	19.637	912.489	697.752
219.709	19.461	912.139	696.710
220.723	19.336	911.491	695.650
221.738	19.391	910.452	695.016
222.753	19.373	909.643	694.267
223.767	19.543	909.467	694.753
224.782	19.663	908.960	694.790
225.796	19.754	908.583	694.804
226.811	19.729	907.514	693.823
227.826	19.440	906.937	692.164
228.840	19.296	905.930	690.755
229.855	19.323	905.855	690.747
230.869	19.465	904.659	690.344
231.884	19.436	903.670	689.411
232.899	19.208	903.395	688.230
233.913	19.270	902.157	687.472
234.928	19.022	902.010	686.310
235.942	19.249	900.982	686.372
236.957	19.170	900.898	685.933
237.972	19.253	900.080	685.576
238.986	19.260	899.681	685.242
240.001	19.228	899.158	684.654
241.015	19.363	898.331	684.502
242.030	19.376	897.893	684.159
243.045	19.472	897.455	684.144
244.059	19.442	896.927	683.561
245.074	19.448	896.440	683.154
246.088	19.681	895.412	683.230
247.103	19.765	894.814	683.048
248.117	19.944	894.455	683.420
249.132	20.135	894.575	684.207
250.147	20.352	893.878	684.465
251.161	20.377	893.128	683.930
252.176	20.355	892.347	683.186
253.190	20.533	891.897	683.479
254.205	20.613	891.150	683.164
255.220	20.432	890.385	681.804
256.234	20.380	890.046	681.279
257.249	20.273	889.520	680.396
258.263	20.280	888.566	679.637
259.278	20.344	887.825	679.259
260.293	20.492	887.529	679.552
261.307	20.656	886.898	679.650
262.322	20.517	886.208	678.518
263.336	20.711	885.285	678.508
264.351	20.501	884.980	677.397
265.366	20.481	884.340	676.766
266.380	20.441	883.837	676.168
267.395	20.389	882.929	675.210
268.409	20.359	881.775	674.152
269.424	20.341	880.921	673.368
270.439	20.251	880.250	672.446
271.453	20.311	879.512	672.057
272.468	20.290	879.318	671.767
273.482	20.346	878.566	671.349
274.497	20.215	878.298	670.579
275.512	20.193	877.633	669.928
276.526	20.107	877.536	669.460
277.541	20.214	876.769	669.231
278.555	20.464	876.624	670.026
279.570	20.659	876.158	670.362
280.585	20.693	875.052	669.587
281.599	20.461	873.885	667.743
282.614	20.313	873.070	666.491
283.628	20.392	872.708	666.461
284.643	20.284	872.442	665.783
285.657	20.336	871.433	665.156
286.672	20.440	870.762	664.982
287.687	20.375	870.373	664.379
288.701	20.470	869.718	664.181
289.716	20.528	869.242	663.981
290.730	20.595	868.382	663.519
291.745	20.541	867.964	662.935
292.760	20.567	867.292	662.462
293.774	20.815	867.056	663.170
294.789	20.737	866.004	662.009
295.803	20.526	864.950	660.342
296.818	20.506	864.754	660.061
297.833	20.462	864.159	659.381
298.847	20.584	863.280	659.112
299.862	20.460	863.362	658.647
300.876	20.587	863.030	658.818
301.891	20.831	861.876	658.802
302.906	20.960	861.382	658.853
303.920	21.138	861.472	659.537
304.935	21.082	860.821	658.768
305.949	20.988	859.825	657.593
306.964	20.717	859.289	656.102
307.979	20.872	858.795	656.252
308.993	20.956	858.114	655.989
310.008	21.056	857.541	655.871
311.022	20.909	857.017	654.859
312.037	20.785	856.080	653.619
313.052	20.519	855.671	652.249
314.066	20.388	854.746	650.997
315.081	20.448	854.458	650.944
316.095	20.576	853.300	650.482
317.110	20.627	852.979	650.374
318.125	20.466	852.694	649.495
319.139	20.609	852.113	649.529
320.154	20.665	851.594	649.285
321.168	20.931	850.840	649.644
322.183	20.689	850.793	648.650
323.197	20.615	850.437	648.043
324.212	20.750	849.712	647.936
325.227	20.682	849.339	647.344
326.241	20.604	848.447	646.315
327.256	20.717	847.561	646.005
328.270	20.634	847.392	645.510
329.285	20.510	847.048	644.731
330.300	20.628	845.990	644.306
331.314	20.661	845.643	644.107
332.329	20.890	845.397	644.708
333.343	20.846	845.064	644.236
334.358	20.927	844.512	644.059
335.373	20.940	844.442	643.995
336.387	21.181	843.637	644.214
337.402	21.081	843.848	643.947
338.416	21.323	843.286	644.354
339.431	21.383	843.091	644.370
340.446	21.378	842.584	643.907
341.460	21.360	842.387	643.633
342.475	21.487	842.018	643.760
343.489	21.518	841.773	643.630
344.504	21.594	841.028	643.285
345.519	21.714	840.451	643.225
346.533	21.600	839.860	642.297
347.548	21.252	839.221	640.478
348.562	21.218	838.378	639.654
349.577	21.062	838.003	638.740
350.592	21.056	837.059	637.942
351.606	21.016	836.274	637.140
352.621	21.070	835.895	636.991
353.635	21.156	835.561	636.995
354.650	21.229	834.635	636.498
355.665	21.203	834.368	636.143
356.679	21.385	833.640	636.194
357.694	21.246	833.054	635.185
358.708	21.178	832.400	634.383
359.723	21.395	831.482	634.415
360.738	21.375	831.035	633.947
361.752	21.448	830.354	633.637
362.767	21.689	829.920	634.121
363.781	21.582	829.888	633.652
364.796	21.788	829.273	633.871
365.810	21.902	829.092	634.089
366.825	22.027	828.628	634.130
367.840	21.886	828.639	633.572
368.854	21.848	827.550	632.545
369.869	21.684	827.155	631.596
370.883	21.738	826.490	631.228
371.898	21.838	826.585	631.605
372.913	21.850	825.955	631.112
373.927	21.727	825.415	630.200
374.942	21.832	824.752	630.018
375.956	21.892	824.712	630.145
376.971	21.990	823.963	629.868
377.986	22.282	823.571	630.562
379.000	21.981	823.182	629.129
380.015	22.065	822.449	628.814
381.029	22.064	821.731	628.205
382.044	22.111	821.265	627.960
383.059	22.184	820.468	627.556
384.073	21.979	820.035	626.438
385.088	21.890	819.464	625.629
386.102	21.828	818.682	624.755
387.117	21.676	818.567	624.072
388.132	21.738	817.414	623.359
389.146	21.653	817.422	623.007
390.161	21.939	817.200	623.799
391.175	22.022	816.749	623.695
392.190	21.897	816.046	622.658
393.205	21.854	815.386	621.946
394.219	21.621	815.134	620.875
395.234	21.661	814.181	620.234
396.248	21.527	814.321	619.813
397.263	21.632	813.158	619.242
398.278	21.667	813.035	619.219
399.292	21.421	812.545	617.923
400.307	21.466	811.969	617.588
401.321	21.552	811.514	617.490
402.336	21.658	811.180	617.557
403.350	21.676	811.170	617.557
404.365	22.020	810.502	618.205
405.380	22.140	809.928	618.133
406.394	22.256	809.594	618.232
407.409	22.340	809.071	618.074
408.423	22.366	809.121	618.150
409.438	22.446	808.734	618.077
410.453	22.416	808.310	617.596
411.467	22.571	807.657	617.584
412.482	22.607	807.553	617.576
413.496	22.703	807.096	617.509
414.511	22.582	807.157	617.077
415.526	22.486	805.980	615.789
416.540	22.440	805.738	615.386
417.555	22.611	805.311	615.604
418.569	22.469	804.970	614.791
419.584	22.437	804.567	614.320
420.599	22.609	803.738	614.231
421.613	162.714	1369.610	1794.711
422.628	141.475	1452.087	1794.835
