DTS Sentinel unit serial number:	SN413079Multiplexer serial number:	ORYXHardware model number:	OX4-SRSoftware version number:	ORYX F/W v4.00 Oryx Data Collector v3.7.2.0data status	okinstallation	princeton_trtdifferential loss correction	single-endedforward channel	channel 1reverse channel	N/Adate	2019/09/17time	08:26:35forward acquisition time	60.00reverse acquisition time	0.00gamma	496.2192k internal	0.2328k external	0.2328temperature offset calibration	0.9966default loss term (dB/km)	0.3790temperature slope calibration	1.0000multiplexer offset coefficient	1.0000multiplexer slope coefficient	1.0000fibre end	0.00T internal ref (°C)	27.50T ext. ref 1 (°C)	0.12T ext. ref 2 (°C)	22.89length (m)	temperature (°C)	Stokes	anti-Stokes-747.200	-74.294	0.131	0.048
-746.185	391.541	-0.031	-0.065
-745.171	72.085	-0.189	0.198
-744.156	-200.000	-0.014	0.112
-743.142	-200.000	-0.003	0.297
-742.127	211.578	0.160	0.254
-741.112	-200.000	0.030	-0.292
-740.098	-50.732	0.279	0.132
-739.083	-57.866	-0.197	0.087
-738.069	251.499	-0.201	0.345
-737.054	-200.000	0.010	-0.056
-736.039	-173.762	-0.300	-0.009
-735.025	-169.863	0.128	-0.005
-734.010	304.073	-0.112	0.210
-732.996	128.698	0.104	-0.134
-731.981	-113.131	-0.163	-0.032
-730.966	-105.479	-0.311	-0.071
-729.952	-75.195	-0.292	-0.105
-728.937	-5.505	-0.066	-0.046
-727.923	99.957	-0.158	-0.184
-726.908	800.000	0.036	0.154
-725.894	-79.682	-0.207	0.070
-724.879	36.531	-0.054	-0.048
-723.864	-192.714	-0.153	0.001
-722.850	204.149	0.197	-0.307
-721.835	83.413	0.143	0.157
-720.821	478.723	0.076	-0.174
-719.806	-66.113	-0.111	0.044
-718.791	-27.865	0.203	-0.118
-717.777	-62.457	0.028	0.012
-716.762	123.346	-0.131	0.165
-715.748	4.132	0.128	0.094
-714.733	-13.934	-0.318	-0.207
-713.718	225.360	0.057	0.093
-712.704	617.597	0.128	0.324
-711.689	-51.415	-0.271	-0.128
-710.675	-62.858	0.228	-0.095
-709.660	-200.000	0.003	0.314
-708.645	81.213	0.125	0.136
-707.631	64.441	-0.229	-0.232
-706.616	-7.588	-0.035	-0.024
-705.602	248.328	0.117	0.199
-704.587	-44.755	-0.472	0.237
-703.572	-95.417	-0.249	-0.067
-702.558	-106.978	-0.156	0.035
-701.543	-200.000	-0.055	-0.286
-700.529	87.399	0.106	-0.118
-699.514	-61.751	0.100	0.042
-698.499	-65.062	-0.031	-0.012
-697.485	130.962	-0.127	-0.164
-696.470	-57.074	0.182	0.081
-695.456	-181.694	0.096	0.002
-694.441	531.368	-0.013	0.032
-693.426	219.486	-0.105	-0.169
-692.412	496.972	-0.047	0.109
-691.397	1.302	0.122	-0.088
-690.383	-59.080	-0.137	-0.059
-689.368	203.587	0.090	-0.140
-688.354	-101.028	-0.212	0.052
-687.339	-131.594	-0.251	-0.033
-686.324	-86.667	0.246	-0.076
-685.310	-138.702	0.172	0.019
-684.295	-67.322	0.298	-0.118
-683.281	-200.000	-0.004	-0.055
-682.266	800.000	0.080	-0.240
-681.251	13.276	0.116	-0.091
-680.237	-153.857	0.160	-0.011
-679.222	-119.633	-0.193	-0.034
-678.208	-131.663	-0.065	0.009
-677.193	-75.813	-0.294	-0.105
-676.178	647.814	0.046	0.118
-675.164	157.895	-0.030	0.042
-674.149	-90.780	0.024	-0.007
-673.135	63.414	-0.101	-0.102
-672.120	-76.724	-0.328	-0.115
-671.105	-118.523	0.263	-0.047
-670.091	-4.825	-0.097	0.067
-669.076	-200.000	-0.040	0.188
-668.062	-19.186	-0.178	-0.111
-667.047	293.622	0.092	0.168
-666.032	12.094	0.146	0.113
-665.018	649.151	-0.051	-0.130
-664.003	521.304	-0.153	-0.362
-662.989	25.094	0.369	-0.308
-661.974	70.047	-0.236	0.244
-660.959	456.010	-0.066	-0.147
-659.945	-81.955	0.149	-0.049
-658.930	-132.720	-0.301	-0.039
-657.916	3.222	-0.116	0.085
-656.901	57.963	-0.235	-0.231
-655.886	-11.757	0.089	-0.059
-654.872	-134.951	-0.092	-0.011
-653.857	-35.375	-0.204	0.111
-652.843	-131.440	0.291	0.039
-651.828	-21.359	0.151	-0.092
-650.814	65.525	-0.013	-0.014
-649.799	5.826	-0.184	-0.136
-648.784	-134.066	0.342	0.043
-647.770	-16.402	0.187	0.119
-646.755	86.571	0.146	0.162
-645.741	800.000	-0.051	0.216
-644.726	-32.895	0.272	-0.152
-643.711	-192.235	-0.190	-0.002
-642.697	120.792	-0.074	0.092
-641.682	-83.991	-0.296	0.095
-640.668	184.855	0.031	0.047
-639.653	137.246	-0.300	0.394
-638.638	50.711	-0.046	-0.044
-637.624	21.921	-0.159	-0.130
-636.609	119.617	-0.276	-0.343
-635.595	150.119	-0.192	-0.261
-634.580	317.892	-0.055	0.105
-633.565	-32.768	-0.198	-0.111
-632.551	-125.845	-0.398	-0.060
-631.536	-149.053	0.171	0.014
-630.522	123.474	0.092	0.116
-629.507	-118.879	0.100	-0.018
-628.492	99.688	-0.124	0.144
-627.478	257.981	0.253	0.436
-626.463	259.822	-0.128	0.222
-625.449	-62.784	-0.063	0.026
-624.434	-142.048	-0.085	-0.009
-623.419	53.476	-0.124	0.119
-622.405	106.167	-0.158	-0.188
-621.390	-200.000	0.006	-0.508
-620.376	49.681	-0.122	0.116
-619.361	800.000	0.064	-0.202
-618.346	11.577	-0.192	-0.148
-617.332	-122.897	0.069	0.011
-616.317	-95.287	0.509	0.137
-615.303	111.057	0.121	0.146
-614.288	780.954	0.070	0.191
-613.273	800.000	0.033	-0.112
-612.259	297.590	-0.070	-0.128
-611.244	139.898	-0.242	-0.320
-610.230	153.414	-0.176	-0.242
-609.215	-13.844	-0.079	0.051
-608.201	-200.000	-0.002	-0.070
-607.186	-7.021	0.365	-0.248
-606.171	421.914	0.120	-0.257
-605.157	42.085	0.272	-0.248
-604.142	-24.030	-0.162	-0.097
-603.128	800.000	0.036	-0.116
-602.113	800.000	0.063	-0.244
-601.098	372.960	0.057	-0.115
-600.084	-200.000	-0.011	-0.208
-599.069	15.703	-0.171	0.135
-598.055	125.758	-0.098	0.124
-597.040	237.637	0.065	0.108
-596.025	-155.302	-0.131	0.009
-595.011	-112.892	-0.051	0.010
-593.996	156.831	0.097	-0.135
-592.982	355.307	0.049	0.098
-591.967	-200.000	0.037	0.279
-590.952	133.857	0.188	-0.243
-589.938	-63.966	0.456	-0.187
-588.923	580.999	-0.098	0.242
-587.909	-174.035	-0.316	-0.009
-586.894	-3.234	-0.152	-0.106
-585.879	340.791	-0.139	-0.271
-584.865	-200.000	0.001	-0.229
-583.850	91.489	-0.146	0.165
-582.836	324.944	-0.111	-0.213
-581.821	-200.000	-0.002	0.117
-580.806	761.905	-0.116	-0.316
-579.792	250.863	0.102	-0.173
-578.777	-200.000	0.034	0.283
-577.763	1.985	0.214	0.154
-576.748	-200.000	0.042	-0.207
-575.733	-44.658	0.114	-0.057
-574.719	-200.000	0.002	-0.103
-573.704	61.810	-0.175	0.175
-572.690	26.263	0.032	-0.027
-571.675	-9.055	-0.022	-0.015
-570.661	-200.000	0.012	-0.214
-569.646	800.000	-0.087	0.362
-568.631	-200.000	0.044	0.564
-567.617	-26.578	-0.484	-0.284
-566.602	-137.342	-0.195	-0.022
-565.588	366.732	-0.159	0.321
-564.573	0.633	0.190	0.136
-563.558	-200.000	-0.053	-0.318
-562.544	19.549	-0.152	0.122
-561.529	800.000	0.112	0.411
-560.515	800.000	0.053	0.188
-559.500	-87.964	-0.104	-0.031
-558.485	-127.616	0.154	0.022
-557.471	174.928	0.042	0.060
-556.456	198.772	-0.165	0.252
-555.442	-78.450	0.277	0.095
-554.427	380.414	0.135	0.277
-553.412	4.883	-0.134	0.098
-552.398	-58.242	-0.209	0.091
-551.383	103.462	0.275	0.323
-550.369	-148.231	-0.383	0.032
-549.354	-20.281	0.290	-0.179
-548.339	99.544	0.017	-0.019
-547.325	25.518	0.229	-0.191
-546.310	-131.513	-0.110	0.015
-545.296	-49.777	-0.158	0.075
-544.281	-104.624	-0.261	-0.060
-543.266	382.982	-0.067	-0.138
-542.252	258.933	-0.103	-0.178
-541.237	800.000	0.081	-0.274
-540.223	-8.075	0.245	0.165
-539.208	-86.319	0.055	0.017
-538.193	-200.000	0.047	0.359
-537.179	331.837	-0.082	-0.159
-536.164	-140.229	-0.172	0.018
-535.150	-36.322	0.109	0.059
-534.135	-200.000	0.045	-0.363
-533.121	-1.014	-0.061	0.043
-532.106	-67.154	-0.257	0.101
-531.091	-200.000	-0.029	0.239
-530.077	344.570	-0.086	-0.169
-529.062	-57.133	0.242	-0.107
-528.048	157.333	0.044	-0.060
-527.033	398.280	0.127	0.265
-526.018	-200.000	-0.011	0.217
-525.004	800.000	-0.081	0.237
-523.989	387.750	0.103	-0.214
-522.975	77.739	0.184	0.195
-521.960	800.000	0.049	-0.158
-520.945	278.991	0.063	0.112
-519.931	-87.698	0.247	0.074
-518.916	-143.972	0.176	0.017
-517.902	28.304	-0.128	-0.108
-516.887	-118.876	-0.384	-0.067
-515.872	50.947	-0.231	-0.219
-514.858	-90.644	0.217	-0.063
-513.843	-78.086	0.242	-0.083
-512.829	-200.000	-0.012	0.079
-511.814	-200.000	-0.041	-0.357
-510.799	8.133	-0.222	0.166
-509.785	74.010	0.092	-0.097
-508.770	-200.000	0.034	0.314
-507.756	800.000	-0.083	-0.291
-506.741	-37.533	0.073	0.039
-505.726	800.000	0.048	0.164
-504.712	-200.000	-0.033	-0.161
-503.697	462.212	-0.106	0.236
-502.683	69.734	-0.110	0.114
-501.668	162.165	0.143	0.200
-500.653	-200.000	0.026	0.183
-499.639	-200.000	-0.064	-0.330
-498.624	-62.746	0.418	-0.173
-497.610	-116.958	-0.198	-0.036
-496.595	800.000	-0.054	-0.195
-495.581	800.000	0.070	-0.261
-494.566	-90.810	-0.226	0.065
-493.551	-79.998	-0.268	0.090
-492.537	-200.000	-0.009	0.164
-491.522	-103.428	0.100	-0.023
-490.508	30.593	0.198	-0.169
-489.493	-26.679	0.082	0.048
-488.478	-95.169	0.123	-0.033
-487.464	800.000	0.074	0.263
-486.449	343.688	0.048	-0.094
-485.435	-200.000	-0.041	0.291
-484.420	800.000	-0.039	0.148
-483.405	72.813	-0.062	0.065
-482.391	-175.344	0.133	-0.004
-481.376	116.600	0.216	-0.265
-480.362	800.000	-0.037	-0.141
-479.347	336.180	-0.041	-0.079
-478.332	96.896	-0.107	-0.123
-477.318	-28.212	-0.231	0.133
-476.303	-156.238	0.423	0.026
-475.289	21.219	-0.126	-0.102
-474.274	444.235	0.161	-0.352
-473.259	294.014	-0.163	0.297
-472.245	800.000	0.034	-0.134
-471.230	-90.861	-0.343	0.098
-470.216	337.098	0.110	-0.213
-469.201	470.643	0.129	-0.289
-468.186	-121.093	-0.104	-0.017
-467.172	108.697	-0.207	0.246
-466.157	-193.101	0.159	0.001
-465.143	800.000	0.071	-0.285
-464.128	-200.000	0.065	-0.535
-463.113	695.513	-0.032	0.084
-462.099	425.727	0.064	-0.138
-461.084	800.000	0.111	-0.346
-460.070	160.812	0.214	-0.298
-459.055	-200.000	-0.003	0.370
-458.040	-99.813	-0.122	-0.030
-457.026	117.231	0.078	-0.095
-456.011	6.927	-0.020	-0.015
-454.997	-44.058	-0.160	-0.080
-453.982	-54.743	0.158	-0.071
-452.968	22.775	0.214	0.174
-451.953	159.106	-0.096	0.133
-450.938	-50.638	-0.145	0.068
-449.924	191.139	-0.084	-0.126
-448.909	75.569	-0.061	0.064
-447.895	-200.000	0.294	-0.000
-446.880	77.254	0.169	0.179
-445.865	-53.275	0.304	-0.139
-444.851	86.756	-0.100	-0.110
-443.836	-79.548	-0.374	0.126
-442.822	156.597	-0.323	0.445
-441.807	209.391	-0.069	-0.107
-440.792	509.616	0.075	-0.174
-439.778	202.743	-0.041	0.063
-438.763	19.406	0.139	0.111
-437.749	-200.000	0.005	0.146
-436.734	800.000	-0.026	0.092
-435.719	-50.466	-0.278	-0.131
-434.705	70.129	0.062	-0.064
-433.690	50.423	0.367	0.346
-432.676	-95.099	-0.332	0.089
-431.661	-200.000	-0.066	0.337
-430.646	-110.553	0.118	-0.024
-429.632	369.475	0.143	-0.288
-428.617	-200.000	-0.011	-0.087
-427.603	-74.369	0.216	0.078
-426.588	260.325	-0.069	0.119
-425.573	33.132	-0.238	-0.205
-424.559	-122.293	0.296	-0.048
-423.544	-66.582	-0.311	0.123
-422.530	-200.000	0.041	0.341
-421.515	411.628	0.078	-0.166
-420.500	-14.503	-0.147	0.094
-419.486	-72.175	0.031	0.011
-418.471	174.993	-0.065	-0.094
-417.457	76.317	-0.175	0.184
-416.442	-23.898	0.437	0.260
-415.428	-34.475	0.136	-0.074
-414.413	-200.000	0.004	0.122
-413.398	228.343	0.146	0.237
-412.384	155.584	-0.103	-0.141
-411.369	-4.194	-0.131	-0.090
-410.355	-178.654	-0.261	-0.006
-409.340	-99.234	0.259	-0.065
-408.325	-91.871	0.175	-0.049
-407.311	-200.000	0.003	0.105
-406.296	800.000	0.101	0.306
-405.282	442.218	-0.117	-0.256
-404.267	-138.805	0.407	0.044
-403.252	-109.239	0.069	0.014
-402.238	-64.006	-0.359	-0.146
-401.223	-108.313	0.189	-0.041
-400.209	-76.718	-0.175	-0.061
-399.194	-45.396	0.246	0.121
-398.179	800.000	-0.064	0.222
-397.165	-133.312	0.307	0.039
-396.150	794.399	-0.036	-0.099
-395.136	529.096	-0.058	0.136
-394.121	-200.000	0.002	-0.227
-393.106	71.635	-0.125	0.129
-392.092	76.226	0.103	0.108
-391.077	-200.000	0.017	0.097
-390.063	-70.694	0.146	-0.055
-389.048	-74.278	0.114	-0.041
-388.033	75.162	0.212	0.223
-387.019	14.165	-0.127	-0.098
-386.004	6.146	0.177	0.131
-384.990	-0.875	-0.149	0.105
-383.975	-200.000	0.040	0.309
-382.960	-84.438	0.101	-0.032
-381.946	-75.497	0.303	-0.107
-380.931	-111.643	0.253	0.051
-379.917	100.473	0.118	0.136
-378.902	800.000	-0.077	-0.231
-377.888	146.970	-0.065	0.086
-376.873	-200.000	-0.008	0.043
-375.858	300.219	0.055	-0.102
-374.844	33.310	-0.208	0.179
-373.829	-153.113	0.113	-0.008
-372.815	226.545	0.065	-0.105
-371.800	-72.708	0.092	0.034
-370.785	-51.587	0.422	0.195
-369.771	-34.471	-0.240	0.131
-368.756	-200.000	-0.045	0.256
-367.742	47.347	-0.020	-0.019
-366.727	800.000	-0.026	-0.098
-365.712	-54.714	0.255	-0.114
-364.698	-200.000	0.018	0.147
-363.683	50.610	-0.110	0.103
-362.669	-35.335	-0.258	0.140
-361.654	800.000	-0.072	0.243
-360.639	22.031	-0.430	-0.348
-359.625	643.260	-0.013	0.032
-358.610	-131.432	-0.178	0.023
-357.596	800.000	0.024	0.086
-356.581	70.140	0.177	-0.181
-355.566	527.338	0.131	-0.307
-354.552	-200.000	-0.015	0.000
-353.537	800.000	-0.081	0.269
-352.523	92.545	-0.125	0.140
-351.508	800.000	0.035	-0.132
-350.493	178.408	0.245	0.356
-349.479	-89.023	0.209	-0.061
-348.464	85.935	-0.360	0.393
-347.450	181.534	-0.291	0.425
-346.435	-139.091	0.050	-0.005
-345.420	-100.648	-0.148	-0.036
-344.406	106.872	-0.249	0.293
-343.391	-17.842	0.111	0.069
-342.377	-102.247	-0.416	0.099
-341.362	35.195	-0.206	0.179
-340.348	-109.260	-0.103	-0.022
-339.333	335.662	0.089	-0.171
-338.318	-63.747	0.114	0.046
-337.304	-200.000	0.045	0.310
-336.289	800.000	-0.068	0.287
-335.275	-113.407	-0.301	0.059
-334.260	-200.000	0.065	0.284
-333.245	20.306	-0.278	-0.222
-332.231	-59.499	-0.328	0.140
-331.216	116.738	0.110	0.134
-330.202	-123.277	-0.700	-0.111
-329.187	239.578	-0.144	0.238
-328.172	-200.000	0.027	-0.312
-327.158	-200.000	-0.016	-0.198
-326.143	-35.003	-0.149	-0.081
-325.129	800.000	0.102	0.378
-324.114	-105.809	0.274	0.061
-323.099	193.880	-0.078	-0.118
-322.085	27.420	-0.129	0.107
-321.070	-129.714	-0.213	0.029
-320.056	-166.504	0.335	-0.014
-319.041	-200.000	-0.042	0.230
-318.026	800.000	0.026	-0.072
-317.012	-50.992	0.237	0.110
-315.997	659.984	-0.056	0.144
-314.983	-150.606	0.090	0.007
-313.968	-200.000	0.071	-0.352
-312.953	73.407	0.183	-0.190
-311.939	47.914	-0.306	-0.283
-310.924	-200.000	0.032	-0.192
-309.910	55.557	0.082	-0.079
-308.895	-141.895	0.093	-0.009
-307.880	-55.282	-0.036	-0.016
-306.866	216.802	0.103	-0.162
-305.851	329.177	-0.071	-0.134
-304.837	-200.000	-0.017	-0.111
-303.822	-200.000	-0.019	-0.190
-302.807	-200.000	-0.005	-0.241
-301.793	-178.965	-0.176	0.004
-300.778	-9.268	0.091	0.060
-299.764	20.493	-0.088	-0.071
-298.749	-128.984	0.307	-0.043
-297.735	-31.893	-0.080	-0.044
-296.720	-200.000	-0.027	-0.189
-295.705	-200.000	0.124	0.562
-294.691	-58.598	0.244	-0.105
-293.676	-63.502	0.181	-0.074
-292.662	-94.946	0.241	-0.065
-291.647	-70.000	0.124	0.047
-290.632	-105.676	0.216	0.048
-289.618	-164.563	-0.193	0.009
-288.603	-88.052	-0.270	-0.080
-287.589	-165.082	-0.150	-0.007
-286.574	42.163	-0.241	-0.217
-285.559	-94.254	0.043	0.012
-284.545	36.759	0.241	0.211
-283.530	-200.000	-0.025	-0.142
-282.516	-86.745	-0.259	0.078
-281.501	546.314	0.127	-0.300
-280.486	228.560	0.209	0.336
-279.472	29.894	0.123	0.103
-278.457	180.053	-0.203	0.294
-277.443	-197.433	-0.349	0.002
-276.428	-93.345	-0.219	-0.060
-275.413	-60.536	-0.438	-0.184
-274.399	800.000	-0.050	-0.158
-273.384	-64.101	0.401	-0.162
-272.370	-200.000	-0.010	0.162
-271.355	-76.614	0.171	-0.059
-270.340	127.223	0.039	0.049
-269.326	-42.243	0.097	0.049
-268.311	177.746	-0.111	-0.160
-267.297	-28.187	-0.238	0.136
-266.282	-97.347	0.192	0.049
-265.267	800.000	-0.024	0.078
-264.253	-200.000	0.011	-0.468
-263.238	-125.086	-0.431	-0.065
-262.224	119.099	0.179	-0.219
-261.209	-165.751	0.485	0.021
-260.195	18.564	0.428	0.338
-259.180	800.000	-0.080	0.342
-258.165	43.199	-0.202	0.182
-257.151	-139.002	0.352	0.038
-256.136	800.000	-0.074	0.245
-255.122	800.000	-0.147	0.411
-254.107	458.844	0.126	-0.277
-253.092	186.834	0.182	-0.269
-252.078	763.776	0.051	0.137
-251.063	120.527	-0.179	-0.219
-250.049	423.459	0.009	-0.018
-249.034	-37.032	0.171	0.091
-248.019	-200.000	0.031	-0.258
-247.005	-26.165	-0.221	-0.129
-245.990	1.678	0.227	0.162
-244.976	-200.000	0.018	0.301
-243.961	27.613	-0.264	0.220
-242.946	142.070	-0.142	0.186
-241.932	800.000	0.018	-0.051
-240.917	-163.723	-0.244	0.011
-239.903	13.962	0.361	-0.278
-238.888	-19.627	-0.128	0.079
-237.873	284.027	0.138	-0.245
-236.859	-104.829	0.271	0.061
-235.844	-200.000	0.028	0.213
-234.830	-36.110	0.170	0.091
-233.815	93.862	-0.167	-0.187
-232.800	43.937	-0.174	-0.158
-231.786	-200.000	0.023	-0.249
-230.771	107.293	0.064	-0.075
-229.757	-200.000	0.019	0.149
-228.742	-200.000	-0.061	-0.417
-227.727	800.000	-0.142	0.445
-226.713	-26.022	0.288	-0.167
-225.698	75.611	-0.137	-0.143
-224.684	94.729	-0.028	-0.032
-223.669	-14.713	0.161	-0.102
-222.655	143.353	0.040	-0.053
-221.640	-166.751	-0.426	-0.017
-220.625	183.977	0.032	-0.047
-219.611	154.574	-0.063	-0.086
-218.596	552.226	-0.130	-0.309
-217.582	-84.532	0.226	-0.071
-216.567	86.615	0.099	-0.108
-215.552	265.320	-0.126	0.216
-214.538	-141.931	-0.081	0.008
-213.523	303.847	-0.163	0.299
-212.509	-30.979	0.325	0.181
-211.494	-106.810	0.151	-0.033
-210.479	-200.000	-0.007	0.215
-209.465	800.000	0.027	0.116
-208.450	-122.073	-0.263	-0.043
-207.436	-44.575	-0.109	-0.054
-206.421	-22.853	0.127	0.075
-205.406	-200.000	0.000	-0.062
-204.392	-26.559	-0.083	-0.048
-203.377	-17.722	0.337	0.209
-202.363	97.336	0.238	-0.269
-201.348	744.742	-0.042	-0.111
-200.333	163.255	-0.140	-0.194
-199.319	628.437	-0.039	0.097
-198.304	-30.773	-0.227	0.126
-197.290	-200.000	-0.037	-0.308
-196.275	-159.834	-0.188	-0.010
-195.260	3.753	-0.190	0.137
-194.246	403.937	-0.094	0.195
-193.231	221.421	0.061	-0.097
-192.217	-200.000	0.019	-0.120
-191.202	72.401	0.142	-0.146
-190.187	-23.295	0.082	0.049
-189.173	290.657	-0.133	0.239
-188.158	66.466	0.166	0.166
-187.144	110.369	0.229	-0.271
-186.129	201.962	-0.194	-0.295
-185.114	-200.000	-0.005	0.179
-184.100	563.884	-0.048	0.114
-183.085	580.332	-0.103	-0.249
-182.071	-78.183	0.058	0.020
-181.056	132.991	-0.307	-0.391
-180.042	-48.510	-0.153	-0.073
-179.027	800.000	0.058	0.243
-178.012	-35.312	0.177	0.095
-176.998	35.421	0.036	0.031
-175.983	-200.000	0.021	-0.104
-174.969	-153.377	0.252	-0.017
-173.954	-136.838	-0.429	0.049
-172.939	800.000	0.131	-0.453
-171.925	-76.039	0.081	0.028
-170.910	-109.442	0.394	0.082
-169.896	-109.842	0.355	0.073
-168.881	36.312	0.156	-0.136
-167.866	560.075	-0.072	-0.171
-166.852	139.663	-0.328	-0.426
-165.837	800.000	0.102	-0.420
-164.823	244.798	0.158	-0.261
-163.808	-200.000	-0.056	-0.314
-162.793	-200.000	0.021	-0.159
-161.779	-145.826	0.202	-0.018
-160.764	-43.351	-0.341	-0.170
-159.750	-58.881	0.176	0.075
-158.735	-46.503	-0.106	0.051
-157.720	66.688	0.332	0.333
-156.706	-200.000	0.009	0.043
-155.691	-200.000	-0.086	0.409
-154.677	-41.458	0.153	0.077
-153.662	86.122	-0.096	-0.104
-152.647	-54.285	0.358	-0.160
-151.633	800.000	-0.029	0.122
-150.618	10.114	0.147	0.110
-149.604	148.790	-0.150	0.199
-148.589	167.811	0.020	0.028
-147.574	-152.360	0.208	-0.015
-146.560	-30.119	-0.342	0.191
-145.545	22.580	0.308	-0.248
-144.531	-104.791	0.071	0.016
-143.516	-4.352	0.124	-0.084
-142.502	800.000	-0.037	0.135
-141.487	199.944	-0.068	-0.103
-140.472	345.159	-0.032	-0.063
-139.458	27.233	-0.146	0.121
-138.443	274.711	-0.071	0.124
-137.429	22.357	0.164	0.132
-136.414	345.602	0.106	0.204
-135.399	800.000	0.069	0.199
-134.385	800.000	0.063	0.260
-133.370	332.908	0.055	0.104
-132.356	-63.311	-0.289	0.117
-131.341	-136.023	0.170	-0.020
-130.326	-44.772	0.162	0.079
-129.312	75.760	-0.211	-0.220
-128.297	800.000	-0.066	-0.251
-127.283	-165.515	-0.161	-0.007
-126.268	-120.340	0.269	-0.045
-125.253	469.531	0.102	-0.225
-124.239	-71.014	0.335	-0.124
-123.224	-122.160	-0.232	0.037
-122.210	406.188	0.240	0.498
-121.195	-200.000	-0.011	0.140
-120.180	-98.607	-0.168	0.042
-119.166	214.386	-0.139	0.216
-118.151	7.740	-0.072	-0.053
-117.137	-76.864	-0.157	-0.054
-116.122	-28.886	0.217	0.123
-115.107	174.293	-0.185	0.264
-114.093	-131.908	0.298	-0.038
-113.078	83.472	0.180	-0.192
-112.064	-153.484	-0.136	-0.009
-111.049	27.011	0.082	-0.068
-110.034	-200.000	0.012	0.358
-109.020	-121.569	0.361	0.059
-108.005	-181.003	0.137	-0.003
-106.991	800.000	0.070	-0.217
-105.976	192.159	-0.148	0.219
-104.962	11.550	0.336	-0.253
-103.947	-165.724	0.141	-0.006
-102.932	-87.927	-0.159	0.047
-101.918	2.891	0.130	-0.092
-100.903	-111.331	-0.074	-0.015
-99.889	-200.000	-0.001	0.043
-98.874	-115.066	0.167	-0.031
-97.859	283.772	-0.048	0.084
-96.845	508.374	0.104	0.236
-95.830	-109.017	0.150	-0.031
-94.816	-200.000	0.006	0.220
-93.801	800.000	-0.068	0.189
-92.786	-10.887	-0.180	0.117
-91.772	800.000	0.007	-0.021
-90.757	716.885	0.043	0.112
-89.743	-109.796	-0.100	0.021
-88.728	-173.489	-0.183	0.005
-87.713	153.649	0.144	-0.194
-86.699	691.368	0.028	-0.071
-85.684	18.208	-0.075	0.058
-84.670	75.853	0.025	-0.026
-83.655	-138.367	-0.289	-0.031
-82.640	430.547	-0.106	-0.225
-81.626	-142.043	0.117	0.011
-80.611	800.000	0.048	0.134
-79.597	105.662	-0.123	-0.143
-78.582	-127.292	-0.334	0.048
-77.567	84.962	0.172	0.185
-76.553	-200.000	0.108	0.699
-75.538	-80.355	0.223	0.073
-74.524	-76.046	-0.478	0.166
-73.509	800.000	-0.068	-0.225
-72.494	-174.440	-0.360	-0.010
-71.480	147.916	-0.053	0.071
-70.465	131.916	-0.187	0.236
-69.451	-113.899	-0.120	0.023
-68.436	-61.499	0.349	-0.144
-67.422	-149.283	-0.273	-0.021
-66.407	-33.546	0.573	-0.311
-65.392	-1.362	0.187	0.129
-64.378	28.529	-0.172	-0.142
-63.363	-200.000	0.009	0.237
-62.349	41.650	0.086	0.076
-61.334	91.158	-1.030	-1.134
-60.319	110.332	0.515	0.607
-59.305	-200.000	-0.222	-1.064
-58.290	287.445	0.639	1.134
-57.276	760.654	0.570	1.517
-56.261	-200.000	112.306	634.266
-55.246	465.457	1504.493	3302.883
-54.232	147.555	2667.861	3525.119
-53.217	103.768	2153.323	2480.815
-52.203	38.902	1602.433	1404.093
-51.188	30.696	1349.350	1132.589
-50.173	27.914	1311.441	1084.243
-49.159	55.686	1366.627	1298.565
-48.144	54.126	1381.478	1303.217
-47.130	31.173	1337.314	1125.187
-46.115	27.664	1319.793	1089.476
-45.100	27.415	1314.801	1083.834
-44.086	27.291	1312.836	1081.434
-43.071	27.383	1309.814	1079.444
-42.057	27.320	1308.573	1078.005
-41.042	27.331	1306.693	1076.480
-40.027	27.358	1305.293	1075.447
-39.013	27.364	1303.355	1073.843
-37.998	27.391	1301.134	1072.125
-36.984	27.439	1299.633	1071.132
-35.969	27.545	1297.562	1070.006
-34.954	27.564	1296.110	1068.878
-33.940	27.565	1295.002	1067.927
-32.925	27.598	1293.124	1066.527
-31.911	27.483	1292.099	1064.965
-30.896	27.561	1290.838	1064.340
-29.881	27.571	1289.433	1063.200
-28.867	27.627	1287.744	1062.092
-27.852	27.544	1286.604	1060.626
-26.838	27.500	1285.165	1059.141
-25.823	27.621	1283.810	1058.684
-24.809	27.533	1282.318	1056.900
-23.794	27.504	1281.556	1056.065
-22.779	27.498	1279.886	1054.613
-21.765	27.560	1278.430	1053.727
-20.750	27.518	1277.307	1052.516
-19.736	27.555	1275.893	1051.525
-18.721	27.514	1274.541	1050.132
-17.706	27.549	1273.171	1049.162
-16.692	27.503	1272.558	1048.354
-15.677	27.486	1271.391	1047.248
-14.663	27.490	1270.459	1046.464
-13.648	27.495	1269.442	1045.614
-12.633	27.493	1267.986	1044.361
-11.619	27.482	1267.195	1043.605
-10.604	27.479	1266.226	1042.748
-9.590	27.427	1265.459	1041.782
-8.575	27.413	1264.558	1040.916
-7.560	27.474	1263.251	1040.148
-6.546	27.374	1262.699	1039.078
-5.531	27.514	1261.491	1038.845
-4.517	27.435	1260.876	1037.847
-3.502	27.381	1260.514	1037.196
-2.487	27.376	1259.385	1036.201
-1.473	27.359	1255.369	1032.760
-0.458	26.060	1240.480	1013.178
0.556	21.004	1224.518	976.789
1.571	17.502	1231.218	962.285
2.586	16.579	1246.635	968.965
3.600	16.395	1234.936	958.742
4.615	12.066	1161.513	878.507
5.629	4.200	1086.749	782.318
6.644	0.393	1068.022	749.862
7.659	0.128	1065.559	746.750
8.673	-0.027	1064.606	745.252
9.688	0.007	1063.289	744.431
10.702	0.267	1061.333	744.279
11.717	5.037	1067.569	772.250
12.731	12.970	1077.901	819.180
13.746	16.871	1082.255	841.831
14.761	16.965	1082.043	842.057
15.775	16.024	1079.794	835.566
16.790	14.992	1077.911	828.927
17.804	14.402	1076.319	824.711
18.819	14.061	1075.078	822.001
19.834	13.775	1074.226	819.864
20.848	13.562	1073.236	817.981
21.863	13.276	1072.382	815.848
22.877	13.113	1071.921	814.622
23.892	13.193	1070.975	814.224
24.907	13.031	1070.793	813.214
25.921	13.165	1069.548	812.860
26.936	13.232	1068.519	812.333
27.950	13.109	1067.920	811.205
28.965	13.255	1066.537	810.795
29.980	13.406	1065.079	810.355
30.994	13.431	1063.802	809.434
32.009	13.496	1063.054	809.109
33.023	13.323	1062.162	807.517
34.038	13.334	1061.103	806.695
35.053	13.331	1060.330	806.020
36.067	13.231	1059.621	804.921
37.082	13.357	1058.457	804.578
38.096	13.268	1058.204	803.881
39.111	13.205	1057.599	803.049
40.126	13.158	1056.031	801.559
41.140	13.170	1054.432	800.332
42.155	13.065	1053.656	799.161
43.169	13.023	1053.061	798.436
44.184	13.018	1051.954	797.505
45.199	13.010	1051.063	796.717
46.213	13.112	1049.407	795.884
47.228	13.226	1048.265	795.498
48.242	13.163	1047.698	794.691
49.257	13.168	1046.510	793.747
50.271	13.292	1045.218	793.290
51.286	13.215	1044.938	792.639
52.301	13.228	1043.877	791.828
53.315	13.248	1042.372	790.709
54.330	13.076	1041.944	789.492
55.344	13.134	1040.741	788.786
56.359	13.144	1039.875	788.109
57.374	13.083	1039.317	787.326
58.388	13.056	1038.408	786.440
59.403	12.915	1037.665	785.134
60.417	13.097	1036.412	784.983
61.432	13.064	1035.734	784.243
62.447	13.124	1034.497	783.524
63.461	13.082	1034.032	782.903
64.476	12.953	1033.029	781.462
65.490	12.978	1032.570	781.166
66.505	13.057	1031.637	780.762
67.520	13.021	1031.208	780.200
68.534	12.991	1030.778	779.663
69.549	13.024	1029.433	778.734
70.563	13.005	1028.744	778.051
71.578	12.892	1027.974	776.871
72.593	12.983	1027.266	776.695
73.607	12.907	1026.660	775.811
74.622	13.031	1025.625	775.540
75.636	12.936	1025.187	774.697
76.651	13.072	1024.617	774.837
77.666	12.828	1024.374	773.435
78.680	13.010	1023.326	773.430
79.695	12.930	1022.793	772.587
80.709	13.167	1021.681	772.784
81.724	13.083	1021.036	771.836
82.739	13.079	1020.763	771.544
83.753	13.252	1019.507	771.331
84.768	13.277	1018.926	770.939
85.782	13.286	1017.969	770.190
86.797	13.307	1016.911	769.421
87.812	13.197	1016.055	768.193
88.826	13.357	1014.612	767.775
89.841	13.142	1014.107	766.330
90.855	13.259	1013.615	766.434
91.870	13.272	1012.590	765.650
92.884	13.452	1011.246	765.397
93.899	13.338	1010.477	764.223
94.914	13.452	1009.752	764.134
95.928	13.395	1008.928	763.177
96.943	13.295	1008.737	762.503
97.957	13.259	1007.505	761.341
98.972	13.293	1006.590	760.739
99.987	13.404	1005.443	760.313
101.001	13.360	1004.243	759.136
102.016	13.252	1004.134	758.494
103.030	13.364	1003.048	758.119
104.045	13.311	1002.370	757.296
105.060	13.234	1001.525	756.240
106.074	13.155	1000.492	755.030
107.089	13.200	999.203	754.198
108.103	13.078	998.410	752.974
109.118	13.273	997.231	752.908
110.133	13.007	996.775	751.286
111.147	13.303	995.913	751.913
112.162	13.211	995.068	750.793
113.176	13.411	994.101	750.902
114.191	13.311	993.357	749.823
115.206	13.234	992.824	749.006
116.220	13.376	991.766	748.783
117.235	13.146	990.793	746.942
118.249	13.078	990.319	746.213
119.264	13.146	989.458	745.805
120.279	13.191	988.228	745.014
121.293	13.160	987.638	744.364
122.308	13.193	986.761	743.783
123.322	13.235	985.368	742.856
124.337	13.166	984.679	741.963
125.352	13.173	983.940	741.372
126.366	13.225	982.468	740.429
127.381	13.239	981.501	739.698
128.395	13.209	980.913	739.056
129.410	13.081	979.810	737.587
130.424	13.233	978.827	737.458
131.439	13.283	978.211	737.154
132.454	13.258	977.459	736.412
133.468	13.356	976.714	736.222
134.483	13.296	975.607	735.056
135.497	13.284	974.914	734.412
136.512	13.294	973.842	733.585
137.527	13.224	972.956	732.541
138.541	13.243	972.281	732.054
139.556	13.258	971.795	731.692
140.570	13.428	970.979	731.763
141.585	13.471	969.953	731.114
142.600	13.405	969.191	730.182
143.614	13.536	968.595	730.249
144.629	13.480	967.789	729.331
145.643	13.504	966.706	728.553
146.658	13.283	966.555	727.404
147.673	13.420	965.240	726.951
148.687	13.285	964.427	725.683
149.702	13.329	963.389	725.029
150.716	13.391	962.748	724.753
151.731	13.349	961.950	723.906
152.746	13.527	961.331	724.153
153.760	13.391	961.305	723.477
154.775	13.422	960.633	723.040
155.789	13.375	960.019	722.311
156.804	13.494	958.739	721.804
157.819	13.599	958.094	721.709
158.833	13.718	957.612	721.803
159.848	13.652	956.756	720.803
160.862	13.573	955.983	719.817
161.877	13.555	954.700	718.708
162.892	13.513	953.550	717.598
163.906	13.524	953.016	717.180
164.921	13.495	952.039	716.257
165.935	13.464	951.384	715.564
166.950	13.509	950.268	714.856
167.964	13.589	949.433	714.511
168.979	13.536	948.750	713.705
169.994	13.599	947.506	712.976
171.008	13.602	947.216	712.708
172.023	13.603	946.616	712.196
173.037	13.682	946.044	712.046
174.052	13.720	945.059	711.404
175.067	13.625	944.543	710.545
176.081	13.579	944.153	709.992
177.096	13.742	943.035	709.786
178.110	13.626	942.711	708.981
179.125	13.602	942.137	708.385
180.140	13.697	941.519	708.263
181.154	13.639	941.352	707.828
182.169	13.713	940.579	707.500
183.183	13.818	939.974	707.428
184.198	13.819	939.211	706.799
185.213	13.871	938.298	706.270
186.227	13.887	937.761	705.870
187.242	13.817	937.179	705.074
188.256	13.893	936.662	704.944
189.271	13.915	935.617	704.188
190.286	13.819	934.546	702.911
191.300	13.684	933.702	701.642
192.315	13.662	933.763	701.536
193.329	13.750	932.987	701.262
194.344	13.773	931.962	700.526
195.359	13.817	931.534	700.329
196.373	13.849	931.040	700.030
197.388	13.937	930.956	700.276
198.402	14.057	929.842	699.884
199.417	13.935	929.654	699.163
200.432	14.086	928.884	699.159
201.446	14.201	928.195	699.061
202.461	14.173	928.300	698.960
203.475	14.018	927.496	697.645
204.490	14.138	926.432	697.284
205.504	14.187	925.211	696.509
206.519	13.981	925.237	695.605
207.534	14.000	924.879	695.353
208.548	14.031	923.958	694.727
209.563	14.076	923.128	694.232
210.577	14.090	922.499	693.755
211.592	14.242	921.524	693.593
212.607	14.252	920.938	693.132
213.621	14.230	920.299	692.499
214.636	14.227	919.271	691.654
215.650	14.206	918.816	691.160
216.665	14.204	918.519	690.867
217.680	14.299	917.616	690.521
218.694	14.278	916.839	689.788
219.709	14.239	916.345	689.196
220.723	14.224	915.546	688.471
221.738	14.329	914.831	688.308
222.753	14.347	914.386	687.987
223.767	14.400	913.537	687.505
224.782	14.259	913.481	686.819
225.796	14.467	912.559	686.923
226.811	14.354	911.872	685.879
227.826	14.455	910.704	685.353
228.840	14.304	910.330	684.394
229.855	14.511	909.139	684.287
230.869	14.255	908.760	682.892
231.884	14.483	907.825	683.063
232.899	14.256	907.143	681.560
233.913	14.366	906.603	681.541
234.928	14.180	906.446	680.603
235.942	14.318	905.641	680.502
236.957	14.432	904.836	680.302
237.972	14.372	904.473	679.723
238.986	14.399	903.564	679.093
240.001	14.582	902.412	678.912
241.015	14.495	902.160	678.308
242.030	14.347	902.002	677.527
243.045	14.502	901.111	677.426
244.059	14.449	900.584	676.756
245.074	14.591	899.865	676.730
246.088	14.597	898.867	675.947
247.103	14.530	898.381	675.247
248.117	14.709	897.915	675.561
249.132	14.673	897.664	675.167
250.147	14.704	896.709	674.517
251.161	14.830	895.785	674.271
252.176	14.864	895.290	673.975
253.190	14.883	894.513	673.406
254.205	14.871	894.086	672.978
255.220	14.929	893.146	672.442
256.234	14.870	892.880	671.948
257.249	14.888	892.462	671.644
258.263	14.899	891.627	671.002
259.278	14.997	890.673	670.616
260.293	15.012	890.105	670.191
261.307	14.998	889.608	669.699
262.322	15.099	888.775	669.419
263.336	15.103	887.984	668.779
264.351	15.241	887.008	668.534
265.366	15.104	886.624	667.639
266.380	15.197	885.851	667.370
267.395	15.090	885.546	666.654
268.409	15.137	884.883	666.284
269.424	15.068	883.796	665.132
270.439	14.987	883.702	664.678
271.453	15.198	882.286	664.395
272.468	15.225	881.825	664.096
273.482	15.140	881.229	663.250
274.497	15.058	881.086	662.759
275.512	15.206	880.319	662.711
276.526	15.326	879.684	662.649
277.541	15.174	879.270	661.674
278.555	15.268	878.704	661.562
279.570	15.215	878.444	661.097
280.585	15.315	877.461	660.694
281.599	15.321	876.240	659.742
282.614	15.179	876.004	658.947
283.628	15.358	875.448	659.171
284.643	15.300	874.626	658.269
285.657	15.282	874.095	657.738
286.672	15.302	873.768	657.515
287.687	15.241	872.865	656.535
288.701	15.436	872.149	656.704
289.716	15.400	871.827	656.261
290.730	15.397	871.330	655.817
291.745	15.391	871.007	655.493
292.760	15.479	869.948	654.981
293.774	15.641	869.027	654.863
294.789	15.595	868.598	654.300
295.803	15.391	867.923	652.941
296.818	15.390	867.491	652.554
297.833	15.593	866.651	652.653
298.847	15.569	865.887	651.928
299.862	15.421	865.705	651.157
300.876	15.556	865.098	651.168
301.891	15.713	864.401	651.195
302.906	15.572	863.942	650.243
303.920	15.759	863.467	650.550
304.935	15.679	862.494	649.453
305.949	15.775	861.872	649.297
306.964	15.681	861.787	648.815
307.979	15.608	861.335	648.132
308.993	15.767	860.573	648.114
310.008	15.806	859.731	647.576
311.022	15.984	858.710	647.433
312.037	15.747	858.673	646.435
313.052	15.639	857.821	645.322
314.066	15.786	857.450	645.549
315.081	15.679	857.021	644.761
316.095	15.853	856.171	644.730
317.110	15.700	855.797	643.808
318.125	15.755	855.197	643.509
319.139	15.788	854.661	643.175
320.154	15.886	854.016	643.006
321.168	15.894	853.266	642.413
322.183	15.779	853.189	641.861
323.197	15.821	852.874	641.728
324.212	15.841	852.013	641.100
325.227	15.935	851.257	640.833
326.241	15.981	850.754	640.571
327.256	15.765	850.103	639.203
328.270	15.813	849.818	639.116
329.285	16.013	848.939	639.155
330.300	15.884	848.741	638.461
331.314	15.906	848.191	638.074
332.329	16.005	847.638	637.978
333.343	16.058	847.064	637.689
334.358	15.833	846.892	636.652
335.373	15.976	846.455	636.809
336.387	16.004	846.483	636.878
337.402	16.064	845.658	636.428
338.416	16.113	845.492	636.433
339.431	16.138	845.327	636.343
340.446	16.151	844.630	635.814
341.460	16.235	844.366	635.876
342.475	16.220	843.592	635.179
343.489	16.217	843.534	635.067
344.504	16.261	842.542	634.429
345.519	16.505	841.757	634.698
346.533	16.376	841.555	634.006
347.548	16.268	840.902	633.054
348.562	16.185	840.928	632.708
349.577	16.317	839.771	632.272
350.592	16.312	839.067	631.668
351.606	16.144	838.945	630.893
352.621	16.244	837.752	630.313
353.635	16.208	837.349	629.819
354.650	16.362	836.739	629.881
355.665	16.404	836.053	629.466
356.679	16.599	835.289	629.559
357.694	16.379	834.800	628.315
358.708	16.343	834.491	627.895
359.723	16.381	833.336	627.109
360.738	16.461	833.338	627.353
361.752	16.485	832.876	627.039
362.767	16.496	832.217	626.530
363.781	16.445	831.594	625.817
364.796	16.542	831.312	625.906
365.810	16.685	830.904	626.072
366.825	16.666	830.413	625.577
367.840	16.602	829.953	624.941
368.854	16.719	829.714	625.135
369.869	16.685	828.908	624.347
370.883	16.642	828.222	623.616
371.898	16.864	827.756	624.030
372.913	16.738	827.545	623.349
373.927	16.742	827.294	623.122
374.942	16.643	827.056	622.521
375.956	16.710	826.614	622.380
376.971	16.961	825.834	622.660
377.986	17.118	825.406	622.858
379.000	16.890	824.885	621.576
380.015	16.798	824.421	620.832
381.029	16.910	823.838	620.748
382.044	16.742	823.402	619.749
383.059	16.976	822.715	620.034
384.073	16.930	822.076	619.329
385.088	17.002	821.584	619.167
386.102	16.955	820.916	618.437
387.117	16.933	820.494	617.984
388.132	16.906	819.827	617.328
389.146	16.928	819.466	617.084
390.161	16.949	819.057	616.797
391.175	17.050	818.259	616.507
392.190	16.902	818.134	615.821
393.205	16.963	817.461	615.482
394.219	17.002	817.083	615.283
395.234	16.998	816.588	614.842
396.248	16.835	816.126	613.850
397.263	16.884	816.117	613.967
398.278	16.911	815.793	613.768
399.292	16.984	814.980	613.362
400.307	16.961	814.378	612.773
401.321	16.952	814.135	612.503
402.336	17.130	813.335	612.490
403.350	17.084	813.002	612.021
404.365	17.064	812.940	611.848
405.380	17.212	812.071	611.670
406.394	17.109	811.615	610.901
407.409	17.334	811.340	611.450
408.423	17.373	811.095	611.351
409.438	17.372	810.622	610.939
410.453	17.617	809.700	611.068
411.467	17.353	809.397	609.840
412.482	17.302	808.953	609.266
413.496	17.486	808.715	609.694
414.511	17.355	808.713	609.170
415.526	17.441	807.757	608.701
416.540	17.488	807.408	608.553
417.555	17.394	806.972	607.834
418.569	17.411	806.680	607.622
419.584	17.579	805.938	607.608
420.599	17.627	805.786	607.610
421.613	110.846	1294.860	1477.439
422.628	95.608	1366.081	1477.517
