DTS Sentinel unit serial number:	SN413079Multiplexer serial number:	ORYXHardware model number:	OX4-SRSoftware version number:	ORYX F/W v4.00 Oryx Data Collector v3.7.2.0data status	okinstallation	princeton_trtdifferential loss correction	single-endedforward channel	channel 1reverse channel	N/Adate	2019/09/14time	22:10:35forward acquisition time	60.00reverse acquisition time	0.00gamma	496.2192k internal	0.2319k external	0.2319temperature offset calibration	1.0010default loss term (dB/km)	0.3790temperature slope calibration	1.0000multiplexer offset coefficient	1.0000multiplexer slope coefficient	1.0000fibre end	0.00T internal ref (°C)	32.62T ext. ref 1 (°C)	4.72T ext. ref 2 (°C)	27.62length (m)	temperature (°C)	Stokes	anti-Stokes-747.200	-122.712	-0.266	-0.044
-746.185	-200.000	0.062	0.297
-745.171	-200.000	0.018	-0.366
-744.156	-67.607	-0.119	-0.047
-743.142	-3.161	-0.034	0.024
-742.127	-108.374	-0.184	0.040
-741.112	136.719	0.121	0.159
-740.098	64.795	-0.142	0.145
-739.083	54.992	-0.111	-0.108
-738.069	-7.473	-0.426	0.292
-737.054	61.499	-0.238	-0.239
-736.039	168.347	-0.056	-0.081
-735.025	-200.000	-0.014	-0.238
-734.010	800.000	-0.018	0.054
-732.996	-155.985	0.165	-0.011
-731.981	-200.000	0.014	-0.455
-730.966	-186.184	-0.310	0.005
-729.952	385.443	-0.102	0.212
-728.937	-200.000	-0.316	0.000
-727.923	-91.250	-0.334	-0.097
-726.908	-200.000	-0.013	-0.199
-725.894	137.195	-0.144	-0.191
-724.879	3.518	0.217	-0.160
-723.864	-104.341	-0.422	-0.099
-722.850	-200.000	0.027	0.135
-721.835	-56.054	-0.134	0.061
-720.821	60.436	-0.263	0.263
-719.806	27.216	0.150	-0.128
-718.791	133.666	-0.180	0.235
-717.777	-104.371	0.364	-0.085
-716.762	20.055	0.397	-0.324
-715.748	-200.000	-0.019	-0.243
-714.733	-200.000	-0.006	0.140
-713.718	800.000	-0.095	0.333
-712.704	588.814	-0.027	0.066
-711.689	-178.712	0.152	-0.004
-710.675	323.236	-0.052	-0.100
-709.660	800.000	-0.049	0.162
-708.645	37.534	-0.153	-0.138
-707.631	509.222	-0.139	0.327
-706.616	-173.647	-0.087	0.003
-705.602	800.000	-0.057	0.245
-704.587	-200.000	0.002	-0.156
-703.572	72.813	0.233	-0.246
-702.558	-189.851	0.249	-0.003
-701.543	-158.706	-0.203	0.012
-700.529	-147.007	-0.292	0.025
-699.514	-136.816	0.025	-0.003
-698.499	-71.612	-0.095	0.036
-697.485	-183.943	-0.487	-0.008
-696.470	-88.635	0.144	0.043
-695.456	-62.412	0.164	-0.069
-694.441	116.143	-0.127	0.158
-693.426	-200.000	-0.022	0.132
-692.412	166.383	-0.156	0.223
-691.397	-111.375	0.183	0.038
-690.383	0.145	-0.115	-0.083
-689.368	-19.678	0.183	-0.114
-688.354	800.000	0.058	0.219
-687.339	168.924	-0.067	0.096
-686.324	-157.319	-0.310	-0.019
-685.310	-200.000	0.009	-0.259
-684.295	99.908	-0.145	-0.170
-683.281	32.578	0.135	-0.118
-682.266	400.334	0.034	-0.073
-681.251	688.223	-0.120	-0.316
-680.237	526.565	-0.098	-0.232
-679.222	-116.438	-0.251	0.047
-678.208	-200.000	-0.018	-0.082
-677.193	-15.050	0.230	-0.149
-676.178	-10.138	0.105	-0.071
-675.164	166.819	-0.260	-0.372
-674.149	15.267	-0.147	0.116
-673.135	-124.629	-0.287	-0.045
-672.120	800.000	0.073	0.304
-671.105	218.948	0.106	-0.171
-670.091	-200.000	-0.016	-0.328
-669.076	-59.559	-0.183	-0.079
-668.062	-114.832	0.134	-0.026
-667.047	-145.014	-0.344	0.032
-666.032	232.291	0.077	0.127
-665.018	800.000	-0.090	0.327
-664.003	317.148	0.177	0.338
-662.989	-67.366	-0.067	0.027
-661.974	800.000	-0.052	-0.196
-660.959	334.626	0.171	-0.333
-659.945	680.651	0.097	-0.255
-658.930	44.124	0.056	0.052
-657.916	91.717	0.183	-0.208
-656.901	202.442	0.129	0.201
-655.886	-200.000	-0.038	-0.209
-654.872	81.358	-0.213	0.232
-653.857	-26.222	-0.198	-0.117
-652.843	-200.000	-0.023	-0.176
-651.828	526.262	-0.105	0.248
-650.814	167.053	-0.159	0.228
-649.799	215.753	-0.135	-0.216
-648.784	-69.510	-0.212	0.082
-647.770	160.271	-0.033	-0.046
-646.755	-200.000	0.010	-0.296
-645.741	62.219	0.082	0.082
-644.726	-9.313	-0.049	-0.033
-643.711	39.007	0.122	0.110
-642.697	-200.000	-0.036	-0.161
-641.682	-135.555	-0.187	0.022
-640.668	-28.323	0.055	0.032
-639.653	-80.419	0.150	-0.050
-638.638	-12.367	-0.087	-0.057
-637.624	93.005	0.147	0.167
-636.609	-148.759	0.066	0.005
-635.595	35.317	-0.327	-0.289
-634.580	-44.395	0.264	0.133
-633.565	-90.020	-0.273	0.080
-632.551	800.000	0.050	0.181
-631.536	-200.000	0.014	-0.163
-630.522	786.852	0.053	0.148
-629.507	-30.250	-0.041	0.024
-628.492	84.925	-0.147	0.162
-627.478	55.077	-0.092	0.090
-626.463	-91.743	0.250	-0.071
-625.449	-178.797	-0.412	0.009
-624.434	201.895	0.044	-0.068
-623.419	-21.544	0.145	-0.089
-622.405	298.646	-0.096	0.178
-621.390	800.000	0.082	0.301
-620.376	241.985	0.082	-0.138
-619.361	-36.781	-0.115	0.062
-618.346	208.473	0.006	-0.010
-617.332	-61.911	0.262	-0.110
-616.317	-125.291	0.074	-0.011
-615.303	-8.926	-0.200	0.135
-614.288	406.000	0.166	-0.353
-613.273	26.407	0.316	0.266
-612.259	-9.381	-0.164	0.110
-611.244	-55.283	-0.129	-0.058
-610.230	800.000	0.062	-0.198
-609.215	-200.000	-0.051	-0.273
-608.201	-200.000	-0.023	0.128
-607.186	324.143	0.046	0.089
-606.171	213.236	0.117	-0.186
-605.157	85.748	-0.127	-0.140
-604.142	-200.000	0.017	-0.492
-603.128	738.538	-0.074	-0.199
-602.113	800.000	-0.027	0.105
-601.098	800.000	0.070	-0.216
-600.084	-103.797	-0.227	-0.053
-599.069	-139.961	-0.157	0.017
-598.055	25.399	-0.195	0.163
-597.040	-81.557	0.251	0.083
-596.025	20.599	0.101	0.082
-595.011	-146.415	0.212	-0.019
-593.996	-200.000	-0.003	0.105
-592.982	407.055	-0.171	-0.364
-591.967	252.311	-0.134	0.230
-590.952	-157.382	-0.106	-0.006
-589.938	-200.000	0.021	0.165
-588.923	192.603	0.019	-0.029
-587.909	62.348	-0.221	0.222
-586.894	79.847	-0.039	0.043
-585.879	588.499	0.108	-0.267
-584.865	3.733	0.118	-0.087
-583.850	165.559	-0.189	-0.268
-582.836	-62.830	-0.181	0.075
-581.821	800.000	-0.024	0.103
-580.806	-172.869	0.191	-0.006
-579.792	-44.902	-0.174	-0.087
-578.777	-200.000	-0.037	-0.244
-577.763	-71.674	-0.454	0.170
-576.748	72.565	0.125	-0.131
-575.733	800.000	0.099	-0.388
-574.719	227.820	0.100	0.163
-573.704	-44.431	0.114	-0.057
-572.690	404.403	-0.106	-0.223
-571.675	59.116	0.095	-0.094
-570.661	-200.000	0.052	0.439
-569.646	-7.814	-0.169	-0.115
-568.631	-158.500	-0.264	-0.015
-567.617	-18.217	0.063	0.040
-566.602	715.389	0.097	-0.259
-565.588	132.603	0.119	-0.154
-564.573	-34.659	-0.197	-0.108
-563.558	206.075	0.079	-0.124
-562.544	800.000	-0.091	0.276
-561.529	-149.463	0.331	-0.026
-560.515	117.745	0.194	0.240
-559.500	-45.938	0.054	0.027
-558.485	800.000	0.039	0.129
-557.471	-146.615	-0.345	-0.030
-556.456	54.301	-0.268	0.259
-555.442	252.938	-0.245	0.420
-554.427	61.174	-0.070	-0.070
-553.412	-51.632	0.356	-0.167
-552.398	-29.272	-0.297	-0.171
-551.383	8.753	-0.175	0.133
-550.369	-94.712	0.180	-0.049
-549.354	47.089	-0.117	0.110
-548.339	157.489	0.055	-0.077
-547.325	22.682	0.265	-0.218
-546.310	-200.000	-0.003	0.324
-545.296	-106.766	-0.236	0.053
-544.281	-10.337	0.112	0.074
-543.266	33.235	-0.075	0.065
-542.252	-200.000	-0.016	0.095
-541.237	87.377	-0.252	0.280
-540.223	6.422	0.417	0.311
-539.208	167.984	0.134	-0.191
-538.193	668.115	-0.020	0.051
-537.179	47.261	0.119	0.111
-536.164	-56.822	0.112	0.050
-535.150	-200.000	-0.010	-0.188
-534.135	-74.305	0.140	0.051
-533.121	157.311	-0.117	0.162
-532.106	91.188	0.084	0.094
-531.091	-131.227	0.182	-0.024
-530.077	273.970	-0.089	-0.158
-529.062	60.781	0.156	0.155
-528.048	-200.000	0.026	0.152
-527.033	-109.786	0.217	-0.046
-526.018	-46.362	0.390	-0.192
-525.004	183.483	0.137	0.203
-523.989	399.194	-0.020	0.043
-522.975	-80.584	-0.126	-0.042
-521.960	-68.078	0.220	0.086
-520.945	-200.000	0.004	-0.333
-519.931	800.000	-0.063	-0.197
-518.916	66.765	-0.153	-0.157
-517.902	-16.635	-0.076	0.048
-516.887	491.802	0.074	-0.169
-515.872	-29.634	0.292	0.167
-514.858	44.861	0.048	-0.044
-513.843	-7.987	0.215	-0.145
-512.829	-101.582	0.056	0.014
-511.814	-0.062	0.221	0.158
-510.799	-80.436	0.135	-0.045
-509.785	-114.919	0.435	-0.083
-508.770	40.304	-0.401	0.362
-507.756	-21.563	-0.190	0.116
-506.741	740.441	0.035	0.093
-505.726	7.205	-0.149	-0.111
-504.712	800.000	-0.063	0.206
-503.697	-76.056	-0.074	-0.026
-502.683	64.135	-0.268	-0.270
-501.668	609.149	-0.101	-0.253
-500.653	-88.507	-0.260	0.078
-499.639	-200.000	-0.015	0.117
-498.624	24.246	0.023	0.019
-497.610	800.000	0.058	0.211
-496.595	-55.522	-0.202	0.091
-495.581	-94.789	-0.560	0.152
-494.566	252.176	-0.090	0.153
-493.551	800.000	-0.085	-0.352
-492.537	-36.559	0.089	-0.048
-491.522	391.746	-0.052	-0.108
-490.508	10.405	-0.166	0.126
-489.493	800.000	-0.102	0.365
-488.478	-183.667	-0.089	0.002
-487.464	-200.000	0.001	0.035
-486.449	-200.000	-0.006	0.160
-485.435	800.000	0.020	-0.068
-484.420	-59.338	-0.379	-0.163
-483.405	57.025	-0.290	-0.283
-482.391	-132.646	-0.349	-0.045
-481.376	-70.070	-0.171	-0.065
-480.362	-127.081	-0.253	-0.037
-479.347	128.448	-0.123	-0.157
-478.332	-75.422	0.197	0.070
-477.318	15.500	-0.265	0.208
-476.303	-28.936	0.168	-0.096
-475.289	-9.043	-0.209	-0.140
-474.274	-76.344	0.138	-0.049
-473.259	-200.000	-0.025	0.502
-472.245	-53.838	-0.146	-0.067
-471.230	61.763	0.063	-0.063
-470.216	-52.902	0.130	-0.060
-469.201	37.203	-0.275	0.244
-468.186	-14.370	-0.097	-0.063
-467.172	-71.340	-0.107	-0.040
-466.157	204.457	-0.068	-0.106
-465.143	66.000	-0.183	-0.186
-464.128	-85.864	0.143	-0.044
-463.113	95.024	-0.251	0.286
-462.099	-200.000	0.052	-0.235
-461.084	90.596	-0.072	0.080
-460.070	-6.404	0.135	-0.092
-459.055	-200.000	-0.026	-0.139
-458.040	267.696	0.210	0.368
-457.026	3.307	0.370	0.269
-456.011	-95.581	0.078	-0.021
-454.997	-200.000	0.114	-0.600
-453.982	520.665	-0.091	-0.213
-452.968	197.685	-0.147	-0.225
-451.953	800.000	0.079	-0.260
-450.938	70.713	0.045	-0.046
-449.924	14.629	0.362	0.283
-448.909	-200.000	-0.046	-0.214
-447.895	-33.157	-0.301	0.167
-446.880	-55.785	0.362	-0.162
-445.865	455.334	0.101	-0.224
-444.851	34.816	-0.154	0.134
-443.836	406.140	0.046	-0.097
-442.822	-144.052	-0.240	0.023
-441.807	800.000	-0.126	0.394
-440.792	-104.549	0.201	0.046
-439.778	-159.702	-0.263	-0.014
-438.763	-30.753	0.153	0.086
-437.749	-40.096	0.225	0.117
-436.734	-100.415	0.219	-0.054
-435.719	-58.150	-0.129	0.056
-434.705	0.494	0.298	-0.213
-433.690	234.059	-0.275	0.452
-432.676	-200.000	-0.006	0.179
-431.661	60.653	-0.117	-0.116
-430.646	331.948	-0.078	-0.151
-429.632	-200.000	0.011	0.206
-428.617	-96.124	-0.049	-0.013
-427.603	-200.000	-0.060	-0.297
-426.588	-18.606	0.299	-0.187
-425.573	121.069	-0.198	-0.247
-424.559	273.343	0.084	-0.148
-423.544	274.904	0.088	-0.156
-422.530	800.000	-0.031	0.087
-421.515	-111.445	-0.213	0.043
-420.500	800.000	0.068	-0.229
-419.486	-200.000	0.001	0.097
-418.471	159.635	-0.022	-0.030
-417.457	105.504	0.290	-0.343
-416.442	-91.712	0.089	0.025
-415.428	238.024	0.096	0.159
-414.413	-171.587	0.324	-0.011
-413.398	80.047	0.102	-0.110
-412.384	-16.218	0.121	0.077
-411.369	-200.000	-0.021	0.109
-410.355	-200.000	-0.015	0.462
-409.340	99.001	-0.185	0.213
-408.325	800.000	-0.053	-0.206
-407.311	800.000	-0.044	-0.125
-406.296	-127.114	-0.222	-0.033
-405.282	-58.323	-0.225	0.098
-404.267	375.131	0.141	-0.286
-403.252	-129.169	0.114	-0.016
-402.238	-14.944	-0.348	-0.223
-401.223	383.847	0.030	-0.062
-400.209	800.000	0.043	-0.122
-399.194	-175.484	-0.348	-0.009
-398.179	-200.000	0.029	-0.575
-397.165	-32.203	0.201	-0.112
-396.150	34.115	0.040	-0.035
-395.136	102.191	0.114	0.133
-394.121	252.604	-0.162	0.276
-393.106	-200.000	0.003	0.071
-392.092	788.513	0.032	-0.087
-391.077	-196.140	0.411	0.003
-390.063	157.762	-0.122	-0.169
-389.048	-200.000	-0.004	-0.143
-388.033	414.565	0.125	-0.265
-387.019	235.884	-0.164	0.271
-386.004	800.000	0.108	0.322
-384.990	-2.553	-0.247	0.172
-383.975	-74.447	-0.089	0.032
-382.960	800.000	-0.043	-0.169
-381.946	-109.766	-0.341	0.071
-380.931	-200.000	-0.058	-0.263
-379.917	-102.260	-0.255	-0.061
-378.902	-200.000	0.002	0.256
-377.888	187.079	0.120	0.178
-376.873	-200.000	0.017	-0.127
-375.858	-200.000	0.011	0.328
-374.844	105.433	0.108	0.127
-373.829	624.719	0.121	-0.305
-372.815	800.000	0.051	0.186
-371.800	582.793	0.160	-0.392
-370.785	-144.491	0.125	-0.012
-369.771	-200.000	0.059	-0.298
-368.756	527.810	0.059	0.140
-367.742	6.490	-0.190	0.141
-366.727	1.360	0.185	0.132
-365.712	-200.000	0.003	-0.165
-364.698	-175.948	0.377	0.010
-363.683	-200.000	-0.057	-0.311
-362.669	-200.000	-0.033	0.321
-361.654	650.372	-0.045	-0.114
-360.639	-25.711	-0.072	0.042
-359.625	62.829	-0.195	0.195
-358.610	114.318	0.102	-0.124
-357.596	800.000	0.078	-0.300
-356.581	10.779	-0.211	0.161
-355.566	94.339	0.027	0.031
-354.552	195.147	-0.077	0.116
-353.537	-144.962	-0.253	-0.023
-352.523	-38.526	0.296	-0.156
-351.508	-136.813	0.096	-0.011
-350.493	39.688	0.133	-0.119
-349.479	-186.992	-0.170	0.002
-348.464	3.470	-0.164	-0.119
-347.450	415.615	-0.113	0.239
-346.435	190.142	-0.176	-0.263
-345.420	-28.101	0.193	0.111
-344.406	-14.948	0.101	-0.065
-343.391	-200.000	0.011	-0.192
-342.377	-200.000	-0.068	-0.313
-341.362	-20.540	-0.350	-0.214
-340.348	-7.425	0.079	0.054
-339.333	-101.383	0.101	0.024
-338.318	-178.918	-0.163	-0.004
-337.304	360.871	-0.091	0.181
-336.289	212.348	-0.269	-0.423
-335.275	25.431	0.137	-0.113
-334.260	-144.696	-0.179	-0.016
-333.245	-200.000	0.003	0.167
-332.231	-130.788	0.107	-0.014
-331.216	-200.000	-0.059	-0.357
-330.202	-111.323	0.201	-0.041
-329.187	-74.050	0.240	0.087
-328.172	-42.706	-0.165	0.084
-327.158	-200.000	-0.004	0.078
-326.143	-200.000	0.003	-0.055
-325.129	800.000	-0.113	-0.437
-324.114	765.583	-0.018	0.048
-323.099	-65.378	0.216	-0.086
-322.085	65.723	0.080	0.081
-321.070	-96.625	0.159	-0.042
-320.056	-200.000	0.025	-0.414
-319.041	-79.213	0.320	-0.108
-318.026	167.356	-0.053	-0.074
-317.012	275.200	0.064	0.112
-315.997	-200.000	0.002	0.181
-314.983	-34.186	-0.282	0.154
-313.968	-162.982	0.302	0.015
-312.953	-200.000	-0.029	-0.213
-311.939	-44.608	-0.121	0.060
-310.924	673.900	-0.077	0.199
-309.910	-129.402	0.128	-0.018
-308.895	100.763	-0.249	0.288
-307.880	116.738	0.135	0.165
-306.866	-200.000	0.023	-0.175
-305.851	800.000	-0.054	0.165
-304.837	317.571	-0.184	0.346
-303.822	-16.965	-0.118	0.074
-302.807	257.289	-0.098	-0.168
-301.793	-38.733	-0.148	-0.078
-300.778	-177.873	0.207	-0.005
-299.764	-43.533	-0.240	0.121
-298.749	-82.273	-0.073	0.024
-297.735	-200.000	-0.060	-0.434
-296.720	-158.502	0.267	-0.015
-295.705	793.695	0.202	0.554
-294.691	51.194	0.343	0.323
-293.676	-62.266	0.136	0.056
-292.662	72.651	-0.173	0.179
-291.647	-120.346	0.127	-0.021
-290.632	-200.000	-0.022	0.271
-289.618	159.223	-0.118	0.163
-288.603	570.869	-0.024	-0.057
-287.589	-60.137	0.329	-0.139
-286.574	-82.921	-0.259	0.083
-285.559	-6.228	-0.123	-0.084
-284.545	-200.000	-0.004	0.194
-283.530	39.767	0.056	-0.050
-282.516	-200.000	-0.022	0.097
-281.501	-160.787	0.119	0.006
-280.486	800.000	-0.114	0.413
-279.472	-200.000	0.001	0.399
-278.457	-24.807	-0.162	-0.096
-277.443	194.128	0.073	-0.110
-276.428	57.179	0.324	-0.314
-275.413	115.271	0.071	0.087
-274.399	203.141	-0.121	0.186
-273.384	-156.382	-0.157	-0.010
-272.370	-49.302	0.412	-0.195
-271.355	-63.169	0.150	0.062
-270.340	165.124	0.137	0.192
-269.326	329.190	-0.027	0.051
-268.311	-94.574	-0.257	0.069
-267.297	-11.862	-0.371	-0.242
-266.282	-200.000	-0.040	-0.192
-265.267	-45.273	-0.189	0.093
-264.253	197.783	0.187	0.283
-263.238	86.668	-0.037	0.041
-262.224	-82.101	0.224	0.073
-261.209	119.299	0.071	-0.087
-260.195	-98.434	-0.319	0.081
-259.180	-132.492	0.122	-0.016
-258.165	270.487	-0.095	-0.166
-257.151	-160.498	0.297	0.016
-256.136	68.642	-0.091	0.093
-255.122	-58.703	0.314	0.135
-254.107	-141.123	0.364	0.037
-253.092	155.343	0.162	0.221
-252.078	800.000	0.018	-0.058
-251.063	800.000	0.026	-0.074
-250.049	800.000	-0.069	-0.243
-249.034	287.332	0.066	0.119
-248.019	35.869	-0.059	0.052
-247.005	125.472	-0.044	-0.056
-245.990	51.674	0.222	-0.210
-244.976	-81.800	0.276	0.090
-243.961	-89.135	0.222	0.065
-242.946	-127.508	0.324	-0.047
-241.932	77.676	-0.206	-0.218
-240.917	415.688	-0.247	0.523
-239.903	-200.000	0.071	0.425
-238.888	-40.344	-0.306	-0.158
-237.873	142.502	0.097	-0.128
-236.859	491.708	-0.049	-0.111
-235.844	-106.512	0.149	-0.033
-234.830	130.574	-0.143	-0.182
-233.815	-92.794	0.237	-0.066
-232.800	-74.443	-0.302	-0.108
-231.786	440.794	-0.164	0.355
-230.771	-73.386	0.167	-0.061
-229.757	-200.000	-0.001	0.007
-228.742	-200.000	-0.025	-0.117
-227.727	-13.726	-0.028	-0.018
-226.713	-200.000	0.027	-0.214
-225.698	-105.020	-0.248	0.056
-224.684	326.936	-0.070	0.133
-223.669	210.315	-0.033	0.052
-222.655	-200.000	-0.133	0.000
-221.640	-92.359	0.051	0.014
-220.625	-80.658	-0.015	-0.005
-219.611	527.987	-0.122	0.284
-218.596	202.337	0.123	-0.189
-217.582	76.966	-0.097	0.102
-216.567	230.900	-0.036	-0.059
-215.552	388.699	0.119	0.244
-214.538	182.463	-0.123	0.180
-213.523	-18.225	0.095	0.059
-212.509	-200.000	0.069	0.307
-211.494	541.504	-0.098	0.231
-210.479	800.000	0.061	-0.197
-209.465	57.899	-0.018	0.017
-208.450	-200.000	-0.002	-0.058
-207.436	147.700	-0.185	-0.247
-206.421	304.467	0.120	-0.221
-205.406	-47.233	0.086	-0.042
-204.392	-1.743	-0.246	-0.172
-203.377	-94.113	0.266	-0.072
-202.363	-200.000	-0.065	0.293
-201.348	800.000	-0.044	0.130
-200.333	800.000	0.024	-0.070
-199.319	429.563	-0.095	0.204
-198.304	-94.781	0.068	-0.018
-197.290	427.356	-0.078	-0.168
-196.275	800.000	0.038	-0.109
-195.260	20.741	-0.055	-0.044
-194.246	800.000	-0.065	0.222
-193.231	-200.000	-0.055	-0.262
-192.217	-52.143	-0.150	-0.069
-191.202	-200.000	0.005	-0.051
-190.187	800.000	0.107	-0.367
-189.173	-147.831	-0.275	-0.023
-188.158	241.330	-0.061	-0.100
-187.144	-200.000	-0.081	0.548
-186.129	-120.306	0.304	0.051
-185.114	-43.724	0.128	-0.064
-184.100	58.359	0.117	-0.114
-183.085	-79.993	0.134	-0.045
-182.071	462.213	0.070	-0.154
-181.056	-144.968	-0.294	0.027
-180.042	-200.000	0.043	0.204
-179.027	-51.362	0.456	-0.211
-178.012	151.046	-0.074	-0.100
-176.998	-90.413	0.296	0.085
-175.983	173.296	0.152	-0.217
-174.969	57.301	-0.079	-0.076
-173.954	-200.000	0.267	-0.000
-172.939	-172.936	0.091	0.003
-171.925	19.366	0.223	0.177
-170.910	-109.142	0.142	-0.030
-169.896	246.933	0.185	0.309
-168.881	-88.280	-0.184	-0.054
-167.866	800.000	0.094	0.292
-166.852	78.232	0.266	0.281
-165.837	86.986	0.287	0.314
-164.823	163.488	0.129	-0.179
-163.808	675.622	-0.112	-0.288
-162.793	-52.358	-0.390	0.178
-161.779	-26.488	0.392	0.227
-160.764	210.570	0.116	0.180
-159.750	-117.863	0.131	0.023
-158.735	16.021	0.169	0.132
-157.720	-86.858	-0.045	0.014
-156.706	-36.362	0.054	0.029
-155.691	-112.036	-0.443	0.088
-154.677	35.160	0.037	-0.032
-153.662	-150.571	-0.164	-0.012
-152.647	-35.830	0.065	-0.035
-151.633	-91.101	0.100	-0.028
-150.618	13.321	-0.065	-0.050
-149.604	-200.000	0.006	0.175
-148.589	713.256	0.142	0.371
-147.574	-38.559	0.228	-0.119
-146.560	800.000	0.061	0.198
-145.545	48.318	-0.086	-0.080
-144.531	-94.494	0.231	-0.062
-143.516	-140.685	-0.366	0.037
-142.502	-28.462	0.145	-0.083
-141.487	86.626	-0.058	-0.064
-140.472	291.865	-0.019	-0.034
-139.458	411.086	0.071	-0.149
-138.443	37.820	0.121	0.106
-137.429	-200.000	0.026	0.472
-136.414	-21.193	-0.142	0.086
-135.399	57.339	-0.159	0.153
-134.385	50.829	-0.029	0.027
-133.370	-25.364	0.247	-0.144
-132.356	-84.760	0.212	-0.066
-131.341	322.549	-0.067	0.126
-130.326	-173.402	-0.133	0.004
-129.312	57.892	0.089	-0.086
-128.297	322.410	-0.171	-0.321
-127.283	52.518	-0.232	0.219
-126.268	-85.636	0.275	0.085
-125.253	-46.425	-0.033	0.016
-124.239	-200.000	0.052	0.364
-123.224	192.945	-0.126	0.188
-122.210	45.477	0.259	-0.236
-121.195	-200.000	-0.004	-0.120
-120.180	61.666	0.141	-0.139
-119.166	101.149	-0.088	-0.101
-118.151	115.061	-0.028	-0.034
-117.137	-159.473	0.377	-0.021
-116.122	-118.730	0.037	-0.006
-115.107	800.000	-0.094	0.336
-114.093	800.000	0.053	-0.215
-113.078	87.917	-0.140	0.153
-112.064	-200.000	-0.027	-0.311
-111.049	-59.826	0.056	-0.024
-110.034	-55.674	0.357	0.158
-109.020	-41.338	0.216	0.110
-108.005	-200.000	-0.099	0.444
-106.991	-172.040	-0.184	-0.006
-105.976	150.400	-0.060	-0.081
-104.962	-5.639	0.282	0.191
-103.947	779.348	-0.036	0.096
-102.932	7.404	-0.105	0.077
-101.918	-113.632	-0.112	0.022
-100.903	51.573	-0.159	-0.149
-99.889	-200.000	-0.010	-0.051
-98.874	363.940	0.103	0.205
-97.859	15.115	-0.250	-0.193
-96.845	-2.672	0.154	0.106
-95.830	-200.000	0.008	-0.170
-94.816	-153.835	-0.374	0.025
-93.801	-200.000	0.045	0.358
-92.786	800.000	0.038	-0.153
-91.772	-0.054	-0.061	-0.043
-90.757	9.987	0.168	-0.126
-89.743	334.155	0.026	-0.049
-88.728	13.181	-0.084	-0.064
-87.713	-34.605	0.132	0.071
-86.699	-65.904	-0.267	0.105
-85.684	458.004	-0.127	0.278
-84.670	37.928	0.193	0.169
-83.655	32.595	0.073	0.062
-82.640	-49.075	0.185	-0.087
-81.626	212.018	-0.107	-0.167
-80.611	402.525	0.161	0.334
-79.597	152.630	-0.204	0.274
-78.582	800.000	-0.051	-0.149
-77.567	-41.647	0.114	-0.058
-76.553	-123.110	-0.212	-0.033
-75.538	-51.473	-0.150	0.069
-74.524	-98.499	-0.103	-0.026
-73.509	-200.000	0.012	-0.177
-72.494	191.418	0.138	0.205
-71.480	-78.563	0.489	0.165
-70.465	120.944	0.234	-0.287
-69.451	27.842	-0.200	0.166
-68.436	83.601	-0.121	-0.129
-67.422	-63.062	-0.116	0.047
-66.407	382.552	-0.048	-0.096
-65.392	800.000	0.056	-0.241
-64.378	106.787	-0.281	-0.328
-63.363	-51.607	0.171	-0.079
-62.349	-92.261	-0.109	-0.030
-61.334	100.492	-1.129	-1.292
-60.319	193.188	0.298	0.444
-59.305	-200.000	-0.100	-1.380
-58.290	375.243	0.452	0.908
-57.276	460.887	0.554	1.215
-56.261	-200.000	95.397	577.821
-55.246	654.099	1373.038	3469.826
-54.232	199.932	2542.606	3843.848
-53.217	120.684	2140.133	2619.674
-52.203	44.608	1604.836	1452.824
-51.188	36.211	1342.892	1165.191
-50.173	32.996	1301.093	1110.022
-49.159	55.044	1347.852	1282.147
-48.144	57.132	1364.319	1310.225
-47.130	36.338	1323.578	1149.007
-46.115	32.896	1306.369	1113.755
-45.100	32.612	1301.482	1107.876
-44.086	32.473	1299.359	1105.208
-43.071	32.356	1297.019	1102.487
-42.057	32.440	1294.966	1101.191
-41.042	32.497	1293.217	1099.992
-40.027	32.487	1291.987	1098.845
-39.013	32.569	1289.604	1097.248
-37.998	32.519	1288.034	1095.582
-36.984	32.634	1286.203	1094.648
-35.969	32.582	1284.728	1093.049
-34.954	32.675	1282.523	1091.667
-33.940	32.734	1281.709	1091.274
-32.925	32.780	1280.118	1090.139
-31.911	32.739	1278.657	1088.614
-30.896	32.879	1277.114	1088.065
-29.881	32.775	1275.794	1086.300
-28.867	32.719	1274.573	1084.896
-27.852	32.766	1272.999	1083.781
-26.838	32.802	1271.062	1082.294
-25.823	32.726	1270.363	1081.224
-24.809	32.795	1268.725	1080.180
-23.794	32.743	1267.600	1078.881
-22.779	32.815	1266.161	1078.028
-21.765	32.688	1265.247	1076.481
-20.750	32.664	1263.698	1074.983
-19.736	32.661	1262.726	1074.099
-18.721	32.434	1262.002	1072.147
-17.706	32.437	1260.648	1070.971
-16.692	32.539	1258.961	1070.072
-15.677	32.541	1258.056	1069.275
-14.663	32.565	1256.839	1068.330
-13.648	32.602	1255.736	1067.562
-12.633	32.522	1254.952	1066.397
-11.619	32.531	1254.256	1065.815
-10.604	32.543	1253.294	1065.024
-9.590	32.560	1252.339	1064.267
-8.575	32.372	1251.391	1062.360
-7.560	32.468	1250.368	1061.988
-6.546	32.593	1249.602	1062.001
-5.531	32.513	1249.140	1061.117
-4.517	32.561	1247.713	1060.129
-3.502	32.653	1246.455	1059.535
-2.487	32.568	1245.971	1058.609
-1.473	32.622	1241.790	1055.311
-0.458	31.180	1226.588	1034.368
0.556	26.840	1209.200	996.455
1.571	23.241	1213.703	980.188
2.586	22.184	1228.783	986.353
3.600	21.492	1217.865	973.651
4.615	16.601	1146.475	890.807
5.629	8.492	1072.559	793.209
6.644	4.918	1053.010	761.249
7.659	4.658	1050.617	758.185
8.673	4.619	1049.875	757.389
9.688	4.665	1047.923	756.138
10.702	4.950	1046.245	756.245
11.717	9.310	1052.767	782.137
12.731	16.513	1062.960	824.904
13.746	19.236	1065.538	840.126
14.761	18.380	1063.887	834.582
15.775	17.235	1062.084	827.521
16.790	16.380	1059.392	821.195
17.804	15.699	1057.680	816.491
18.819	15.278	1056.796	813.692
19.834	14.979	1056.445	811.900
20.848	14.755	1055.417	809.954
21.863	14.691	1054.299	808.710
22.877	14.527	1053.818	807.478
23.892	14.433	1053.128	806.423
24.907	14.491	1052.295	805.993
25.921	14.534	1051.123	805.232
26.936	14.504	1049.691	803.918
27.950	14.577	1048.160	803.028
28.965	14.647	1047.030	802.425
29.980	14.719	1045.398	801.452
30.994	14.861	1044.475	801.351
32.009	14.811	1043.412	800.230
33.023	14.659	1042.760	798.929
34.038	14.612	1041.743	797.856
35.053	14.559	1041.069	797.013
36.067	14.630	1039.649	796.193
37.082	14.714	1038.550	795.685
38.096	14.694	1038.186	795.239
39.111	14.800	1037.415	795.082
40.126	14.572	1035.961	792.814
41.140	14.377	1034.892	791.002
42.155	14.305	1033.882	789.818
43.169	14.276	1032.649	788.666
44.184	14.326	1031.397	787.878
45.199	14.357	1030.491	787.261
46.213	14.487	1029.487	787.039
47.228	14.545	1028.753	786.681
48.242	14.514	1027.396	785.432
49.257	14.480	1026.443	784.473
50.271	14.705	1025.287	784.575
51.286	14.555	1024.719	783.368
52.301	14.620	1023.658	782.793
53.315	14.567	1022.622	781.681
54.330	14.472	1021.536	780.341
55.344	14.465	1020.572	779.500
56.359	14.358	1020.344	778.757
57.374	14.511	1018.682	778.135
58.388	14.345	1018.266	776.975
59.403	14.304	1017.582	776.193
60.417	14.394	1016.507	775.721
61.432	14.396	1015.649	775.006
62.447	14.246	1014.874	773.652
63.461	14.244	1014.111	772.993
64.476	14.312	1012.846	772.274
65.490	14.236	1012.417	771.524
66.505	14.234	1011.891	771.046
67.520	14.369	1011.041	770.956
68.534	14.260	1010.360	769.865
69.549	14.251	1009.371	769.002
70.563	14.172	1009.124	768.381
71.578	14.116	1008.139	767.304
72.593	14.135	1007.271	766.665
73.607	14.071	1006.833	765.967
74.622	14.172	1006.167	765.856
75.636	14.167	1005.261	765.079
76.651	14.226	1004.427	764.646
77.666	14.179	1004.252	764.230
78.680	14.203	1003.519	763.714
79.695	14.328	1002.477	763.426
80.709	14.324	1002.187	763.120
81.724	14.447	1001.158	762.833
82.739	14.415	1000.847	762.380
83.753	14.577	999.936	762.360
84.768	14.645	999.125	761.983
85.782	14.723	998.322	761.661
86.797	14.649	997.663	760.754
87.812	14.614	996.105	759.338
88.826	14.603	995.080	758.442
89.841	14.749	994.155	758.330
90.855	14.766	993.307	757.695
91.870	14.840	992.810	757.585
92.884	14.734	991.731	756.211
93.899	14.665	990.987	755.265
94.914	14.766	990.394	755.205
95.928	14.741	989.771	754.548
96.943	14.630	988.527	753.034
97.957	14.642	987.581	752.300
98.972	14.605	987.099	751.702
99.987	14.718	986.161	751.429
101.001	14.610	985.498	750.371
102.016	14.595	984.436	749.429
103.030	14.775	983.260	749.274
104.045	14.619	982.977	748.293
105.060	14.587	981.834	747.211
106.074	14.497	981.038	746.140
107.089	14.373	979.785	744.566
108.103	14.326	978.798	743.539
109.118	14.329	978.234	743.059
110.133	14.279	977.417	742.150
111.147	14.285	976.669	741.540
112.162	14.391	975.849	741.325
113.176	14.550	974.789	741.162
114.191	14.424	974.428	740.261
115.206	14.472	973.666	739.830
116.220	14.603	972.302	739.311
117.235	14.615	971.278	738.520
118.249	14.499	970.647	737.462
119.264	14.414	969.851	736.417
120.279	14.412	969.161	735.819
121.293	14.344	968.546	734.986
122.308	14.387	967.430	734.261
123.322	14.331	966.747	733.431
124.337	14.321	965.779	732.589
125.352	14.438	964.348	731.955
126.366	14.339	963.886	731.102
127.381	14.356	962.628	730.158
128.395	14.346	962.368	729.852
129.410	14.442	961.179	729.309
130.424	14.603	960.073	729.108
131.439	14.450	959.680	728.077
132.454	14.601	958.739	727.957
133.468	14.579	958.064	727.283
134.483	14.506	957.020	726.110
135.497	14.524	956.348	725.614
136.512	14.544	955.329	724.861
137.527	14.517	954.833	724.304
138.541	14.555	954.155	723.890
139.556	14.623	953.574	723.681
140.570	14.757	952.938	723.715
141.585	14.749	952.133	723.005
142.600	14.723	951.260	722.164
143.614	14.925	950.370	722.301
144.629	14.816	949.397	721.024
145.643	14.769	948.746	720.265
146.658	14.683	947.532	718.910
147.673	14.634	946.888	718.145
148.687	14.616	945.920	717.272
149.702	14.543	944.984	716.185
150.716	14.537	944.148	715.461
151.731	14.599	943.429	715.117
152.746	14.627	942.694	714.619
153.760	14.664	942.336	714.442
154.775	14.759	941.326	714.018
155.789	14.834	940.546	713.683
156.804	14.889	940.090	713.509
157.819	14.785	939.573	712.609
158.833	14.876	938.741	712.303
159.848	14.837	938.056	711.556
160.862	14.793	937.403	710.809
161.877	14.841	936.000	709.889
162.892	14.671	935.019	708.359
163.906	14.660	934.653	707.974
164.921	14.754	933.261	707.255
165.935	14.608	932.835	706.250
166.950	14.821	931.621	706.168
167.964	14.747	930.828	705.195
168.979	14.631	930.042	704.044
169.994	14.790	928.843	703.747
171.008	14.649	928.575	702.888
172.023	14.867	928.080	703.365
173.037	14.945	927.028	702.834
174.052	14.760	926.477	701.579
175.067	14.741	925.697	700.848
176.081	14.677	925.354	700.254
177.096	14.661	924.809	699.714
178.110	14.761	923.885	699.373
179.125	14.675	923.402	698.586
180.140	14.764	922.785	698.430
181.154	14.995	922.218	698.902
182.169	15.059	921.765	698.763
183.183	15.022	921.250	698.158
184.198	14.989	920.495	697.387
185.213	15.014	919.626	696.772
186.227	15.023	919.293	696.494
187.242	15.151	918.378	696.271
188.256	15.169	918.113	696.083
189.271	15.020	917.619	695.029
190.286	14.887	916.347	693.451
191.300	14.718	915.813	692.286
192.315	14.832	914.984	692.070
193.329	14.722	914.581	691.249
194.344	14.795	914.125	691.143
195.359	14.865	913.422	690.841
196.373	15.060	912.650	691.001
197.388	15.113	912.351	690.934
198.402	15.206	911.828	690.858
199.417	15.234	911.362	690.561
200.432	15.446	910.698	690.867
201.446	15.381	910.625	690.486
202.461	15.414	909.717	689.872
203.475	15.378	909.447	689.458
204.490	15.359	907.954	688.184
205.504	15.151	907.796	687.151
206.519	15.134	906.630	686.141
207.534	15.116	906.368	685.807
208.548	15.158	905.780	685.471
209.563	15.227	905.078	685.162
210.577	15.233	904.206	684.467
211.592	15.496	903.425	684.887
212.607	15.481	902.716	684.231
213.621	15.461	901.769	683.368
214.636	15.456	901.490	683.077
215.650	15.453	900.740	682.435
216.665	15.398	900.668	682.096
217.680	15.722	899.081	682.149
218.694	15.457	899.064	681.001
219.709	15.616	898.272	680.985
220.723	15.725	897.321	680.646
221.738	15.504	897.113	679.533
222.753	15.519	896.669	679.197
223.767	15.580	896.029	678.897
224.782	15.603	895.567	678.582
225.796	15.659	895.020	678.334
226.811	15.717	894.130	677.831
227.826	15.585	893.315	676.622
228.840	15.557	892.552	675.873
229.855	15.570	891.780	675.279
230.869	15.714	891.223	675.376
231.884	15.584	890.088	673.937
232.899	15.553	889.550	673.344
233.913	15.521	888.716	672.525
234.928	15.515	888.102	671.979
235.942	15.540	887.519	671.579
236.957	15.453	887.249	670.967
237.972	15.500	886.700	670.679
238.986	15.572	886.009	670.385
240.001	15.513	885.215	669.488
241.015	15.509	884.688	669.016
242.030	15.525	884.446	668.836
243.045	15.642	883.410	668.458
244.059	15.667	883.036	668.217
245.074	15.700	882.365	667.780
246.088	15.691	881.910	667.342
247.103	15.783	881.529	667.361
248.117	15.961	880.850	667.494
249.132	16.105	880.135	667.459
250.147	16.072	879.932	667.119
251.161	16.019	879.325	666.389
252.176	16.192	878.686	666.529
253.190	16.220	877.622	665.774
254.205	16.206	877.203	665.343
255.220	16.148	876.835	664.776
256.234	16.219	876.151	664.477
257.249	16.200	875.192	663.617
258.263	16.246	874.598	663.286
259.278	16.210	873.736	662.435
260.293	16.142	873.266	661.753
261.307	16.236	873.040	661.892
262.322	16.323	872.242	661.570
263.336	16.427	871.169	661.103
264.351	16.352	870.212	660.026
265.366	16.379	869.881	659.823
266.380	16.391	869.477	659.504
267.395	16.385	868.929	659.005
268.409	16.370	868.011	658.194
269.424	16.315	867.264	657.355
270.439	16.387	866.653	657.113
271.453	16.226	866.096	656.005
272.468	16.233	865.429	655.469
273.482	16.302	865.485	655.721
274.497	16.294	864.656	655.007
275.512	16.293	863.650	654.182
276.526	16.393	863.012	654.030
277.541	16.329	863.045	653.748
278.555	16.506	862.292	653.804
279.570	16.555	861.668	653.463
280.585	16.562	860.726	652.715
281.599	16.659	859.692	652.249
282.614	16.440	859.214	650.986
283.628	16.541	858.986	651.142
284.643	16.529	858.398	650.594
285.657	16.574	857.432	649.976
286.672	16.588	857.214	649.808
287.687	16.628	856.363	649.260
288.701	16.551	855.881	648.542
289.716	16.614	855.410	648.368
290.730	16.643	854.676	647.864
291.745	16.570	854.423	647.335
292.760	16.757	853.003	646.918
293.774	16.717	853.014	646.717
294.789	16.592	852.309	645.649
295.803	16.630	851.521	645.137
296.818	16.811	850.362	644.892
297.833	16.591	850.497	644.101
298.847	16.595	849.750	643.493
299.862	16.693	849.424	643.561
300.876	16.757	848.674	643.177
301.891	16.782	848.294	642.930
302.906	16.766	847.860	642.482
303.920	17.009	846.943	642.653
304.935	17.078	846.461	642.491
305.949	17.045	845.774	641.787
306.964	16.984	844.991	640.905
307.979	17.040	844.351	640.575
308.993	17.023	844.083	640.252
310.008	17.059	843.410	639.819
311.022	16.918	843.278	639.131
312.037	16.826	842.566	638.187
313.052	16.927	841.784	637.919
314.066	16.735	841.423	636.869
315.081	16.862	840.866	636.867
316.095	16.855	840.359	636.402
317.110	16.742	839.730	635.443
318.125	16.787	839.293	635.225
319.139	16.866	838.812	635.100
320.154	16.875	838.394	634.761
321.168	16.937	837.773	634.469
322.183	16.922	837.221	633.937
323.197	16.850	836.875	633.351
324.212	16.944	836.188	633.125
325.227	17.001	835.640	632.865
326.241	16.992	834.989	632.284
327.256	17.085	833.975	631.806
328.270	16.927	834.019	631.197
329.285	16.904	833.570	630.716
330.300	16.939	832.652	630.093
331.314	17.065	832.510	630.398
332.329	17.175	831.350	629.872
333.343	17.166	831.558	629.943
334.358	17.055	831.278	629.262
335.373	17.103	830.891	629.092
336.387	17.218	830.622	629.259
337.402	17.371	829.984	629.285
338.416	17.425	829.313	628.922
339.431	17.425	829.281	628.842
340.446	17.561	828.781	628.909
341.460	17.447	828.670	628.346
342.475	17.547	828.294	628.376
343.489	17.554	827.667	627.871
344.504	17.595	827.330	627.708
345.519	17.683	826.779	627.559
346.533	17.569	826.219	626.661
347.548	17.472	825.629	625.800
348.562	17.297	825.143	624.734
349.577	17.267	824.684	624.222
350.592	17.217	824.162	623.587
351.606	17.362	823.123	623.278
352.621	17.517	822.204	623.092
353.635	17.472	821.802	622.568
354.650	17.517	821.351	622.335
355.665	17.411	820.978	621.613
356.679	17.550	820.004	621.325
357.694	17.704	819.551	621.488
358.708	17.502	818.748	620.092
359.723	17.440	818.463	619.594
360.738	17.492	818.112	619.461
361.752	17.547	817.271	618.973
362.767	17.567	816.869	618.686
363.781	17.800	816.255	619.008
364.796	17.779	815.673	618.438
365.810	17.692	815.559	617.982
366.825	17.853	815.488	618.455
367.840	17.772	814.822	617.603
368.854	17.859	814.190	617.386
369.869	17.865	813.407	616.756
370.883	17.880	813.261	616.644
371.898	17.906	813.066	616.539
372.913	17.958	812.502	616.243
373.927	17.922	811.907	615.609
374.942	17.988	811.627	615.579
375.956	18.004	811.252	615.299
376.971	18.008	810.830	614.938
377.986	18.058	810.418	614.749
379.000	18.065	810.170	614.531
380.015	18.105	809.093	613.806
381.029	18.087	808.775	613.445
382.044	18.032	808.366	612.883
383.059	18.082	807.321	612.218
384.073	18.088	806.737	611.742
385.088	17.998	806.256	611.000
386.102	17.960	805.838	610.493
387.117	17.982	805.214	610.043
388.132	17.960	804.464	609.344
389.146	18.121	804.381	609.801
390.161	18.184	803.954	609.649
391.175	18.357	802.921	609.427
392.190	18.074	802.387	607.960
393.205	17.847	802.859	607.458
394.219	17.937	802.327	607.322
395.234	17.938	801.636	606.748
396.248	17.928	801.215	606.341
397.263	17.877	800.662	605.685
398.278	18.047	800.378	606.020
399.292	18.091	799.739	605.638
400.307	18.099	799.387	605.349
401.321	18.047	798.768	604.641
402.336	18.136	798.294	604.543
403.350	18.169	798.144	604.494
404.365	18.310	797.287	604.290
405.380	18.514	796.838	604.615
406.394	18.239	796.676	603.467
407.409	18.417	796.497	603.907
408.423	18.396	796.031	603.424
409.438	18.604	795.509	603.709
410.453	18.566	794.936	603.086
411.467	18.541	794.647	602.726
412.482	18.619	794.354	602.726
413.496	18.709	793.725	602.512
414.511	18.683	793.497	602.193
415.526	18.591	793.297	601.666
416.540	18.560	792.510	600.906
417.555	18.586	792.423	600.878
418.569	18.602	792.100	600.637
419.584	18.658	791.221	600.112
420.599	18.631	791.054	599.839
421.613	157.281	1370.273	1796.839
422.628	136.121	1454.660	1796.962
