DTS Sentinel unit serial number:	SN413079Multiplexer serial number:	ORYXHardware model number:	OX4-SRSoftware version number:	ORYX F/W v4.00 Oryx Data Collector v3.7.2.0data status	okinstallation	princeton_trtdifferential loss correction	single-endedforward channel	channel 1reverse channel	N/Adate	2019/09/19time	02:58:35forward acquisition time	60.00reverse acquisition time	0.00gamma	496.2192k internal	0.2344k external	0.2344temperature offset calibration	1.0018default loss term (dB/km)	0.3790temperature slope calibration	1.0000multiplexer offset coefficient	1.0000multiplexer slope coefficient	1.0000fibre end	0.00T internal ref (°C)	20.87T ext. ref 1 (°C)	0.68T ext. ref 2 (°C)	14.67length (m)	temperature (°C)	Stokes	anti-Stokes-747.200	180.371	0.094	0.138
-746.185	271.264	-0.080	0.141
-745.171	-100.296	0.169	-0.042
-744.156	-42.774	-0.325	0.166
-743.142	34.938	-0.025	-0.022
-742.127	-92.564	-0.139	0.039
-741.112	-165.096	0.306	0.014
-740.098	257.639	0.134	0.231
-739.083	26.664	0.127	0.107
-738.069	-49.835	-0.429	-0.204
-737.054	-30.256	0.149	-0.085
-736.039	106.398	-0.135	-0.160
-735.025	38.964	-0.245	0.219
-734.010	111.801	-0.133	-0.161
-732.996	88.998	-0.221	0.246
-731.981	-120.002	-0.344	-0.059
-730.966	334.920	0.138	0.267
-729.952	800.000	0.126	-0.520
-728.937	-200.000	0.030	-0.396
-727.923	364.475	-0.219	-0.440
-726.908	-30.910	0.104	-0.059
-725.894	442.153	-0.078	-0.170
-724.879	-133.692	-0.185	-0.023
-723.864	-111.726	-0.421	-0.085
-722.850	-91.339	0.237	-0.068
-721.835	372.640	0.133	0.271
-720.821	-134.941	0.148	-0.018
-719.806	226.867	-0.151	-0.245
-718.791	173.040	0.180	0.259
-717.777	760.407	0.148	0.402
-716.762	18.039	0.322	-0.257
-715.748	383.730	-0.083	-0.171
-714.733	-53.505	-0.349	-0.160
-713.718	-200.000	-0.028	-0.555
-712.704	-118.949	-0.235	0.041
-711.689	323.677	0.096	-0.184
-710.675	-23.927	-0.297	0.178
-709.660	49.550	0.467	-0.440
-708.645	-137.223	-0.292	0.033
-707.631	245.554	-0.068	-0.115
-706.616	-11.229	-0.066	-0.043
-705.602	23.485	0.087	0.071
-704.587	-73.388	-0.285	0.104
-703.572	255.838	0.089	-0.152
-702.558	10.820	0.118	0.090
-701.543	-200.000	0.025	-0.310
-700.529	117.122	0.142	-0.174
-699.514	-60.000	-0.127	0.054
-698.499	-200.000	0.004	-0.134
-697.485	-185.945	-0.235	-0.003
-696.470	-129.042	0.207	0.029
-695.456	-200.000	-0.001	-0.158
-694.441	-200.000	0.006	-0.064
-693.426	273.777	-0.072	-0.128
-692.412	-7.354	0.148	-0.100
-691.397	-41.546	0.304	-0.156
-690.383	712.711	0.165	-0.436
-689.368	-42.290	-0.188	-0.096
-688.354	-200.000	0.001	0.168
-687.339	-23.539	-0.274	-0.164
-686.324	-115.566	-0.242	0.045
-685.310	-163.532	-0.089	-0.004
-684.295	-73.409	0.053	-0.019
-683.281	-142.936	0.362	-0.035
-682.266	178.098	0.089	-0.129
-681.251	800.000	0.058	-0.182
-680.237	-150.979	0.256	0.019
-679.222	16.561	-0.088	-0.069
-678.208	-151.561	-0.218	-0.016
-677.193	-161.881	-0.488	-0.025
-676.178	146.052	-0.102	-0.136
-675.164	-200.000	0.018	-0.159
-674.149	84.477	-0.064	-0.069
-673.135	-200.000	-0.008	-0.109
-672.120	-200.000	-0.016	0.366
-671.105	73.947	-0.219	-0.229
-670.091	-1.928	0.080	0.056
-669.076	4.671	0.057	-0.042
-668.062	-200.000	-0.036	0.543
-667.047	-100.343	-0.214	0.053
-666.032	-116.433	0.183	0.034
-665.018	95.650	0.208	0.237
-664.003	800.000	0.007	0.022
-662.989	-62.510	-0.036	0.015
-661.974	-69.141	0.429	0.165
-660.959	-25.395	0.428	0.253
-659.945	-25.604	-0.316	-0.186
-658.930	30.373	0.259	0.221
-657.916	-165.694	0.348	-0.015
-656.901	-105.556	-0.171	-0.039
-655.886	-44.583	0.226	0.113
-654.872	-200.000	-0.019	0.140
-653.857	-200.000	-0.038	0.271
-652.843	191.274	-0.027	0.040
-651.828	323.322	0.048	-0.092
-650.814	-14.065	0.155	0.100
-649.799	-200.000	0.008	-0.043
-648.784	226.658	-0.284	-0.460
-647.770	8.551	0.137	-0.103
-646.755	-182.450	-0.109	0.002
-645.741	-200.000	0.058	-0.288
-644.726	49.393	-0.029	0.027
-643.711	-200.000	0.002	0.136
-642.697	22.360	-0.297	-0.242
-641.682	159.591	0.172	0.239
-640.668	-25.848	0.193	-0.113
-639.653	347.247	0.016	-0.031
-638.638	-86.753	0.367	0.112
-637.624	-37.796	-0.391	-0.207
-636.609	-32.282	0.213	-0.119
-635.595	63.140	0.266	-0.265
-634.580	-55.939	-0.267	0.119
-633.565	-200.000	0.009	0.209
-632.551	-180.844	-0.033	0.001
-631.536	85.758	-0.415	0.454
-630.522	-131.726	-0.128	-0.017
-629.507	15.187	-0.179	0.140
-628.492	28.504	0.206	0.174
-627.478	-128.084	0.160	-0.023
-626.463	800.000	0.094	-0.270
-625.449	-200.000	0.006	-0.220
-624.434	-33.781	-0.348	-0.191
-623.419	-115.628	0.054	0.010
-622.405	-200.000	-0.018	0.274
-621.390	-31.367	0.189	-0.106
-620.376	192.619	0.051	-0.077
-619.361	-57.513	-0.318	0.139
-618.346	-5.943	0.202	0.138
-617.332	79.728	0.087	0.093
-616.317	-99.872	-0.167	-0.041
-615.303	-200.000	0.012	-0.057
-614.288	244.019	-0.111	-0.186
-613.273	800.000	0.031	0.103
-612.259	207.396	-0.198	0.307
-611.244	-200.000	-0.026	0.189
-610.230	-142.952	0.016	-0.002
-609.215	47.156	0.136	0.126
-608.201	800.000	0.133	0.423
-607.186	-156.728	-0.208	-0.013
-606.171	-200.000	0.055	0.275
-605.157	800.000	-0.080	-0.346
-604.142	-38.924	-0.191	-0.100
-603.128	-131.311	-0.340	-0.045
-602.113	1.420	-0.380	0.272
-601.098	-18.987	0.127	-0.079
-600.084	-28.313	0.105	-0.060
-599.069	-51.153	0.231	0.108
-598.055	440.637	0.175	-0.380
-597.040	42.984	-0.099	-0.090
-596.025	-54.865	-0.175	-0.079
-595.011	-75.400	0.251	-0.089
-593.996	-117.649	-0.268	0.048
-592.982	115.608	-0.194	-0.236
-591.967	158.103	0.221	-0.305
-590.952	260.022	-0.125	-0.215
-589.938	69.850	-0.195	0.200
-588.923	-69.775	-0.170	0.065
-587.909	242.756	-0.180	-0.299
-586.894	-48.322	0.100	-0.048
-585.879	86.023	0.124	0.136
-584.865	-2.077	0.213	-0.149
-583.850	-110.442	0.532	0.110
-582.836	599.468	0.126	-0.312
-581.821	800.000	0.048	0.156
-580.806	170.935	-0.249	-0.354
-579.792	74.570	-0.191	0.200
-578.777	-200.000	-0.008	0.163
-577.763	-200.000	0.034	0.163
-576.748	-77.596	0.138	0.048
-575.733	138.353	-0.176	-0.229
-574.719	285.159	-0.041	-0.073
-573.704	1.260	-0.454	-0.324
-572.690	800.000	0.018	0.057
-571.675	800.000	0.104	-0.358
-570.661	678.173	0.071	-0.184
-569.646	179.086	-0.129	-0.188
-568.631	165.522	-0.266	-0.374
-567.617	-21.783	0.149	0.090
-566.602	23.393	-0.218	-0.178
-565.588	-34.611	-0.002	-0.001
-564.573	-143.794	-0.451	0.042
-563.558	162.042	-0.094	-0.131
-562.544	23.487	0.356	0.291
-561.529	-121.850	-0.229	-0.037
-560.515	306.553	-0.086	-0.160
-559.500	-56.087	-0.058	0.025
-558.485	653.297	-0.051	0.130
-557.471	51.068	-0.246	0.232
-556.456	734.142	0.093	0.248
-555.442	370.322	0.189	0.380
-554.427	-148.651	-0.207	0.017
-553.412	179.309	-0.083	-0.120
-552.398	-125.228	-0.074	-0.011
-551.383	116.081	-0.111	-0.135
-550.369	800.000	0.050	0.148
-549.354	413.353	-0.204	-0.431
-548.339	-51.900	0.066	0.030
-547.325	-76.623	0.112	0.039
-546.310	158.249	0.200	0.276
-545.296	-8.938	0.110	0.073
-544.281	-85.009	0.054	-0.017
-543.266	-133.465	-0.105	-0.013
-542.252	-103.580	-0.334	-0.078
-541.237	-17.631	-0.191	-0.119
-540.223	-200.000	-0.000	0.030
-539.208	-200.000	-0.014	0.074
-538.193	41.381	0.218	0.195
-537.179	-81.339	0.099	-0.032
-536.164	333.645	0.278	-0.534
-535.150	-82.037	0.271	-0.088
-534.135	-115.592	-0.137	0.025
-533.121	-200.000	0.056	-0.245
-532.106	-200.000	-0.035	0.227
-531.091	-124.522	0.175	0.027
-530.077	-159.085	-0.121	0.007
-529.062	-25.888	0.211	0.124
-528.048	619.104	-0.075	-0.186
-527.033	-200.000	-0.047	0.235
-526.018	-83.540	0.500	-0.159
-525.004	-19.985	0.104	0.064
-523.989	-36.754	-0.096	-0.051
-522.975	-97.506	0.284	0.073
-521.960	-1.383	0.346	-0.242
-520.945	149.460	0.279	-0.375
-519.931	-77.863	-0.283	0.097
-518.916	243.290	0.060	0.100
-517.902	800.000	-0.031	-0.098
-516.887	-200.000	-0.040	-0.186
-515.872	96.593	-0.141	0.160
-514.858	326.660	-0.059	0.112
-513.843	-117.958	0.356	0.063
-512.829	19.999	-0.140	0.112
-511.814	-63.385	0.127	0.052
-510.799	-120.505	-0.150	-0.025
-509.785	278.830	-0.202	-0.357
-508.770	-85.860	0.117	-0.036
-507.756	10.990	0.253	-0.192
-506.741	366.187	-0.118	0.235
-505.726	-176.812	-0.220	-0.006
-504.712	-176.720	0.150	0.004
-503.697	-22.028	-0.341	0.205
-502.683	-76.863	0.144	-0.050
-501.668	9.761	-0.072	-0.054
-500.653	154.669	-0.180	0.245
-499.639	-200.000	-0.006	-0.181
-498.624	240.533	0.165	0.273
-497.610	-38.896	-0.176	0.092
-496.595	302.547	-0.183	0.336
-495.581	31.821	0.188	-0.160
-494.566	352.725	-0.080	-0.156
-493.551	176.564	0.068	-0.099
-492.537	87.660	-0.053	0.058
-491.522	-200.000	-0.012	-0.191
-490.508	-81.953	-0.227	0.074
-489.493	-66.563	-0.112	0.044
-488.478	554.542	0.063	0.151
-487.464	-76.919	-0.260	-0.090
-486.449	-200.000	0.004	-0.118
-485.435	-200.000	0.031	-0.174
-484.420	441.551	0.113	0.245
-483.405	-200.000	-0.024	-0.212
-482.391	61.950	0.092	0.091
-481.376	50.123	0.054	0.050
-480.362	-37.325	0.098	0.052
-479.347	800.000	-0.051	0.210
-478.332	-200.000	0.068	-0.359
-477.318	29.112	-0.207	0.174
-476.303	-49.573	-0.085	-0.040
-475.289	52.153	0.181	0.171
-474.274	-21.551	0.206	-0.125
-473.259	15.848	-0.240	-0.187
-472.245	52.423	-0.046	0.043
-471.230	237.196	0.154	0.253
-470.216	800.000	-0.096	-0.355
-469.201	224.778	0.279	-0.447
-468.186	-110.857	-0.211	-0.043
-467.172	16.624	-0.150	0.118
-466.157	-200.000	0.002	0.020
-465.143	-70.021	0.172	0.065
-464.128	208.731	0.294	-0.456
-463.113	252.592	-0.195	0.329
-462.099	-107.154	-0.088	0.019
-461.084	235.451	0.221	0.361
-460.070	223.145	-0.194	0.310
-459.055	-170.215	-0.273	-0.010
-458.040	-200.000	0.079	-0.380
-457.026	800.000	0.041	0.120
-456.011	-21.105	-0.137	0.083
-454.997	30.622	-0.038	-0.032
-453.982	123.521	0.030	-0.037
-452.968	-61.107	0.041	0.017
-451.953	-44.887	-0.199	-0.098
-450.938	561.691	-0.070	0.168
-449.924	-5.032	0.022	-0.015
-448.909	109.367	-0.217	-0.257
-447.895	-23.403	-0.176	-0.104
-446.880	-105.208	-0.151	-0.034
-445.865	6.671	0.141	0.104
-444.851	106.648	0.050	-0.058
-443.836	-62.030	0.094	-0.039
-442.822	621.304	-0.082	0.205
-441.807	-67.623	0.137	-0.053
-440.792	450.297	-0.101	-0.221
-439.778	270.250	0.243	-0.423
-438.763	-32.888	0.178	0.098
-437.749	-61.755	-0.422	0.175
-436.734	-141.415	0.202	-0.020
-435.719	-87.542	-0.236	-0.071
-434.705	167.139	0.125	-0.176
-433.690	762.950	-0.055	-0.149
-432.676	800.000	0.081	0.230
-431.661	-200.000	-0.024	-0.167
-430.646	81.540	-0.214	0.229
-429.632	100.006	0.066	0.076
-428.617	111.137	0.156	-0.185
-427.603	-200.000	-0.032	-0.204
-426.588	77.799	0.260	-0.274
-425.573	-36.983	-0.078	-0.041
-424.559	800.000	-0.013	0.042
-423.544	-200.000	0.038	-0.287
-422.530	2.309	-0.121	0.086
-421.515	316.351	0.052	0.098
-420.500	-119.805	0.334	-0.057
-419.486	93.089	-0.057	0.064
-418.471	240.332	0.233	0.384
-417.457	191.780	0.151	0.224
-416.442	-13.966	-0.038	-0.024
-415.428	301.735	-0.029	-0.052
-414.413	-194.365	0.285	-0.002
-413.398	-60.139	-0.266	-0.112
-412.384	800.000	0.039	0.122
-411.369	155.354	-0.104	0.142
-410.355	44.826	-0.397	-0.361
-409.340	84.425	-0.205	-0.221
-408.325	-200.000	-0.012	-0.133
-407.311	-73.486	-0.216	-0.078
-406.296	102.614	0.210	0.242
-405.282	-50.177	-0.391	-0.183
-404.267	-126.227	-0.577	-0.085
-403.252	153.504	0.099	0.133
-402.238	-40.496	0.177	0.091
-401.223	-36.940	0.107	0.057
-400.209	181.113	-0.116	-0.168
-399.194	-200.000	-0.010	-0.227
-398.179	-121.420	-0.123	0.020
-397.165	-56.266	0.222	-0.097
-396.150	42.846	-0.171	-0.154
-395.136	-27.335	-0.286	0.164
-394.121	-114.213	-0.272	0.052
-393.106	-56.968	0.371	-0.162
-392.092	170.763	0.055	0.078
-391.077	7.028	0.311	-0.229
-390.063	-200.000	0.038	0.325
-389.048	-200.000	-0.025	-0.132
-388.033	83.143	-0.202	0.217
-387.019	-107.483	-0.114	-0.025
-386.004	-82.815	0.404	0.129
-384.990	550.202	0.088	-0.208
-383.975	800.000	0.042	0.143
-382.960	-102.994	-0.192	0.045
-381.946	-200.000	0.045	-0.276
-380.931	51.935	0.145	-0.136
-379.917	-135.173	0.251	0.030
-378.902	-98.563	-0.085	0.021
-377.888	271.868	0.103	0.180
-376.873	-200.000	0.009	0.366
-375.858	77.640	0.271	-0.285
-374.844	0.560	-0.098	-0.069
-373.829	800.000	-0.060	-0.236
-372.815	-200.000	-0.074	0.332
-371.800	174.405	0.138	-0.197
-370.785	-140.105	-0.264	-0.027
-369.771	198.202	0.103	-0.155
-368.756	800.000	-0.035	-0.134
-367.742	800.000	-0.022	-0.065
-366.727	-200.000	0.036	-0.378
-365.712	97.027	0.107	0.121
-364.698	-89.838	-0.207	0.060
-363.683	80.192	-0.058	0.062
-362.669	358.188	-0.187	-0.369
-361.654	-25.487	0.176	0.103
-360.639	192.840	-0.157	0.234
-359.625	86.267	0.113	0.123
-358.610	-56.266	0.234	0.102
-357.596	701.434	-0.013	-0.033
-356.581	-77.655	0.258	0.088
-355.566	800.000	-0.094	0.320
-354.552	-90.953	-0.142	-0.040
-353.537	800.000	-0.105	0.306
-352.523	-50.213	0.054	0.025
-351.508	27.042	-0.167	0.138
-350.493	8.321	0.058	-0.043
-349.479	-114.848	0.259	-0.049
-348.464	106.179	0.305	0.356
-347.450	-137.494	0.100	0.011
-346.435	-92.362	0.174	-0.048
-345.420	254.723	0.068	-0.115
-344.406	-200.000	0.016	0.178
-343.391	17.186	-0.298	-0.233
-342.377	182.891	-0.208	-0.303
-341.362	-158.349	-0.270	-0.015
-340.348	150.632	0.057	0.076
-339.333	169.379	-0.040	0.056
-338.318	-36.560	0.423	0.224
-337.304	-37.755	0.099	0.052
-336.289	-200.000	-0.046	0.217
-335.275	195.047	0.127	0.191
-334.260	-200.000	0.042	-0.207
-333.245	-47.812	0.233	0.111
-332.231	-200.000	-0.005	-0.266
-331.216	4.456	-0.128	0.092
-330.202	800.000	0.095	0.372
-329.187	-3.287	-0.172	0.118
-328.172	-116.076	0.118	0.022
-327.158	132.733	0.214	-0.271
-326.143	800.000	0.096	0.273
-325.129	45.826	0.117	0.106
-324.114	53.822	0.240	0.227
-323.099	-37.780	0.299	0.157
-322.085	121.799	-0.232	0.285
-321.070	-44.965	0.050	-0.024
-320.056	-120.348	-0.031	-0.005
-319.041	-63.019	0.105	0.043
-318.026	-70.936	-0.258	-0.096
-317.012	421.750	0.111	0.234
-315.997	800.000	0.044	-0.167
-314.983	277.928	0.159	-0.278
-313.968	331.270	0.102	0.193
-312.953	630.065	-0.040	0.100
-311.939	263.469	0.031	-0.053
-310.924	-178.810	0.170	0.004
-309.910	-200.000	0.004	0.067
-308.895	-12.156	-0.173	0.112
-307.880	-0.781	-0.075	-0.052
-306.866	-65.412	-0.306	-0.121
-305.851	-65.948	0.005	0.002
-304.837	7.541	0.207	0.153
-303.822	-42.125	-0.009	-0.004
-302.807	-118.738	0.280	0.048
-301.793	27.480	-0.148	0.122
-300.778	-134.465	-0.103	-0.012
-299.764	-200.000	0.030	0.131
-298.749	433.564	-0.144	0.307
-297.735	249.801	-0.023	0.039
-296.720	-54.304	-0.283	0.126
-295.705	0.294	0.139	0.097
-294.691	203.305	-0.158	-0.240
-293.676	-173.855	0.252	-0.007
-292.662	-10.342	0.232	-0.151
-291.647	-3.980	-0.125	-0.085
-290.632	-87.674	-0.349	-0.103
-289.618	-200.000	0.018	-0.238
-288.603	9.349	0.132	0.098
-287.589	261.308	-0.047	0.080
-286.574	-200.000	0.014	0.409
-285.559	-200.000	0.045	0.279
-284.545	-19.906	0.200	0.121
-283.530	-200.000	0.022	0.301
-282.516	-141.655	-0.391	0.039
-281.501	-0.234	0.114	0.080
-280.486	315.238	0.097	0.180
-279.472	-200.000	0.007	-0.032
-278.457	337.508	0.110	0.211
-277.443	-42.842	0.235	0.117
-276.428	-60.817	0.117	-0.049
-275.413	479.812	0.146	0.325
-274.399	-200.000	0.023	-0.445
-273.384	800.000	-0.115	-0.476
-272.370	-104.151	-0.034	-0.008
-271.355	15.393	-0.136	-0.105
-270.340	-200.000	-0.038	0.178
-269.326	-200.000	0.027	-0.287
-268.311	131.095	0.103	0.130
-267.297	800.000	0.053	-0.152
-266.282	-56.106	0.142	-0.062
-265.267	24.934	0.221	-0.180
-264.253	208.061	-0.197	-0.303
-263.238	1.289	0.246	-0.174
-262.224	305.580	0.020	0.037
-261.209	91.675	0.198	0.219
-260.195	800.000	-0.031	-0.086
-259.180	-200.000	-0.027	0.170
-258.165	-123.074	0.177	-0.028
-257.151	-200.000	0.013	0.057
-256.136	800.000	0.044	0.176
-255.122	-105.539	0.112	0.025
-254.107	-81.666	0.234	-0.075
-253.092	-200.000	0.009	-0.318
-252.078	23.822	0.138	-0.112
-251.063	-105.847	0.092	-0.020
-250.049	4.466	0.087	-0.063
-249.034	37.867	0.231	0.202
-248.019	-102.286	0.355	0.084
-247.005	-200.000	0.021	0.170
-245.990	-30.207	-0.181	-0.101
-244.976	-70.575	-0.193	-0.072
-243.961	141.349	0.117	-0.152
-242.946	650.325	-0.031	0.079
-241.932	-34.070	-0.333	0.180
-240.917	-200.000	0.023	-0.148
-239.903	35.205	0.125	-0.107
-238.888	-200.000	0.042	-0.361
-237.873	-149.287	0.330	-0.026
-236.859	-66.685	0.267	0.104
-235.844	160.045	0.099	-0.136
-234.830	-45.606	-0.069	0.034
-233.815	304.565	0.142	-0.259
-232.800	184.138	-0.189	0.274
-231.786	150.308	-0.118	0.157
-230.771	-76.612	0.225	0.077
-229.757	-91.020	-0.178	0.050
-228.742	-63.657	-0.355	-0.143
-227.727	800.000	-0.065	-0.232
-226.713	-48.739	0.223	-0.105
-225.698	209.646	-0.230	-0.353
-224.684	191.173	0.093	0.137
-223.669	-200.000	0.004	0.317
-222.655	55.786	0.216	-0.205
-221.640	-200.000	-0.021	-0.227
-220.625	247.150	-0.141	0.233
-219.611	92.095	0.024	0.026
-218.596	-190.370	0.160	0.002
-217.582	312.619	0.043	0.078
-216.567	-39.742	-0.299	0.153
-215.552	657.639	0.032	0.080
-214.538	-10.120	-0.275	0.179
-213.523	-36.380	-0.081	0.043
-212.509	-13.688	-0.108	-0.069
-211.494	-113.249	0.115	-0.022
-210.479	800.000	0.007	0.023
-209.465	-200.000	0.058	-0.282
-208.450	182.532	0.246	0.355
-207.436	800.000	-0.052	0.146
-206.421	124.124	0.157	0.194
-205.406	-14.092	-0.285	0.180
-204.392	-2.693	0.394	0.270
-203.377	-141.742	-0.055	-0.005
-202.363	62.431	0.075	0.074
-201.348	224.316	-0.093	0.147
-200.333	-111.353	-0.326	-0.065
-199.319	282.248	0.138	0.242
-198.304	-200.000	-0.021	-0.105
-197.290	230.223	-0.137	-0.220
-196.275	-200.000	-0.029	-0.302
-195.260	49.661	-0.080	-0.074
-194.246	-28.950	-0.258	0.145
-193.231	-200.000	0.028	0.283
-192.217	-82.781	-0.358	0.113
-191.202	276.727	0.086	0.150
-190.187	-95.148	0.070	0.018
-189.173	-27.875	-0.231	0.131
-188.158	-67.588	0.360	0.138
-187.144	-200.000	-0.009	0.228
-186.129	800.000	0.015	-0.044
-185.114	214.592	0.186	-0.289
-184.100	129.555	-0.043	0.053
-183.085	-11.455	-0.098	0.063
-182.071	-72.304	0.127	-0.046
-181.056	-200.000	-0.002	0.343
-180.042	800.000	-0.171	0.507
-179.027	-170.016	0.169	0.006
-178.012	-200.000	0.001	-0.228
-176.998	428.725	-0.191	-0.403
-175.983	283.509	0.150	0.264
-174.969	800.000	0.005	-0.017
-173.954	8.188	0.137	-0.101
-172.939	272.332	-0.029	0.050
-171.925	-90.088	0.165	-0.047
-170.910	-2.769	-0.229	-0.156
-169.896	-29.439	-0.223	0.125
-168.881	-200.000	0.013	-0.274
-167.866	-61.594	0.254	-0.104
-166.852	-78.306	-0.276	-0.093
-165.837	103.990	-0.244	0.281
-164.823	118.171	-0.112	0.135
-163.808	-23.135	-0.038	0.022
-162.793	800.000	-0.009	-0.033
-161.779	-79.058	-0.227	0.075
-160.764	800.000	-0.049	0.132
-159.750	-85.497	0.204	-0.062
-158.735	-40.080	-0.156	0.079
-157.720	163.416	0.153	-0.210
-156.706	-133.696	0.244	0.030
-155.691	81.169	0.124	-0.131
-154.677	-200.000	0.002	0.218
-153.662	742.200	-0.024	0.064
-152.647	-200.000	-0.026	-0.121
-151.633	-138.536	-0.131	-0.014
-150.618	221.722	0.117	-0.184
-149.604	-200.000	0.017	-0.115
-148.589	-200.000	0.032	0.216
-147.574	181.532	0.248	-0.357
-146.560	-200.000	0.013	-0.094
-145.545	260.020	0.188	0.317
-144.531	800.000	-0.046	-0.138
-143.516	158.108	-0.091	0.123
-142.502	-155.568	0.259	0.016
-141.487	-80.155	0.293	-0.096
-140.472	25.363	0.341	0.277
-139.458	-200.000	-0.014	-0.065
-138.443	800.000	0.075	0.294
-137.429	91.616	-0.216	-0.238
-136.414	-86.235	0.142	-0.043
-135.399	-200.000	-0.046	0.370
-134.385	392.984	0.088	0.179
-133.370	88.317	-0.033	-0.036
-132.356	-109.128	0.244	-0.051
-131.341	-70.705	0.179	-0.066
-130.326	666.254	-0.068	0.171
-129.312	-20.831	0.060	-0.036
-128.297	176.253	0.215	0.305
-127.283	-69.048	-0.242	-0.091
-126.268	254.574	-0.179	-0.299
-125.253	800.000	0.030	0.127
-124.239	86.789	0.084	-0.090
-123.224	-193.244	0.508	-0.004
-122.210	-200.000	0.019	0.412
-121.195	417.064	-0.035	-0.074
-120.180	-32.647	-0.127	-0.069
-119.166	-200.000	0.015	-0.120
-118.151	-161.255	0.072	0.004
-117.137	246.397	0.043	-0.071
-116.122	155.408	-0.145	0.195
-115.107	89.229	0.378	-0.411
-114.093	-44.583	-0.101	-0.049
-113.078	38.700	0.043	-0.037
-112.064	800.000	-0.036	0.100
-111.049	800.000	0.133	-0.372
-110.034	-81.687	0.198	0.063
-109.020	134.287	0.036	0.045
-108.005	-159.850	0.118	0.006
-106.991	-39.293	-0.230	0.118
-105.976	800.000	0.072	0.305
-104.962	120.560	0.098	0.119
-103.947	16.698	0.123	-0.095
-102.932	45.438	0.138	-0.124
-101.918	-129.146	0.166	-0.023
-100.903	-20.016	0.130	0.078
-99.889	66.965	0.309	0.307
-98.874	-200.000	-0.005	-0.078
-97.859	-200.000	-0.002	-0.103
-96.845	21.939	0.208	0.165
-95.830	461.106	0.181	-0.393
-94.816	800.000	0.075	-0.302
-93.801	800.000	-0.063	0.178
-92.786	800.000	-0.032	0.129
-91.772	-200.000	-0.063	0.372
-90.757	-200.000	0.012	-0.067
-89.743	-61.640	0.187	-0.076
-88.728	-200.000	0.001	0.021
-87.713	800.000	-0.026	0.105
-86.699	189.746	0.145	0.212
-85.684	-124.156	-0.157	-0.024
-84.670	-89.514	0.370	0.106
-83.655	336.226	-0.118	0.223
-82.640	70.301	0.336	0.339
-81.626	-200.000	0.003	0.150
-80.611	-200.000	0.046	-0.264
-79.597	162.844	0.023	-0.031
-78.582	551.658	-0.133	-0.312
-77.567	-136.003	0.278	0.032
-76.553	-165.003	-0.172	-0.007
-75.538	-200.000	-0.020	0.109
-74.524	-59.264	-0.146	-0.061
-73.509	800.000	-0.043	-0.137
-72.494	-28.008	0.184	-0.104
-71.480	-200.000	0.028	-0.197
-70.465	-68.281	0.067	-0.025
-69.451	152.239	-0.035	0.047
-68.436	-29.363	0.084	0.047
-67.422	776.210	-0.119	0.317
-66.407	290.844	0.019	0.034
-65.392	139.736	0.070	-0.089
-64.378	-48.630	0.240	0.112
-63.363	800.000	0.115	-0.367
-62.349	50.753	0.125	0.115
-61.334	69.706	-1.149	-1.154
-60.319	51.318	0.948	0.877
-59.305	544.494	-0.620	-1.444
-58.290	339.776	0.826	1.569
-57.276	800.000	0.602	1.936
-56.261	-200.000	136.104	684.846
-55.246	338.424	1680.195	3186.042
-54.232	134.070	2803.656	3538.077
-53.217	87.629	2171.741	2342.664
-52.203	32.033	1602.876	1345.762
-51.188	24.081	1352.145	1086.882
-50.173	21.910	1316.066	1044.922
-49.159	49.868	1390.299	1276.769
-48.144	46.089	1398.531	1261.134
-47.130	24.257	1345.826	1082.700
-46.115	21.070	1327.124	1048.490
-45.100	20.960	1321.566	1043.394
-44.086	20.742	1319.308	1040.271
-43.071	20.645	1317.151	1037.950
-42.057	20.735	1314.631	1036.455
-41.042	20.763	1313.719	1035.863
-40.027	20.802	1311.622	1034.400
-39.013	20.828	1309.854	1033.122
-37.998	20.806	1308.214	1031.655
-36.984	20.717	1306.493	1029.730
-35.969	20.827	1304.976	1029.143
-34.954	20.910	1303.029	1028.056
-33.940	20.885	1301.487	1026.652
-32.925	20.875	1300.776	1025.996
-31.911	20.943	1298.901	1024.872
-30.896	21.063	1297.290	1024.269
-29.881	21.060	1295.796	1023.025
-28.867	20.932	1295.055	1021.653
-27.852	20.908	1293.667	1020.375
-26.838	21.060	1291.818	1019.769
-25.823	20.940	1291.044	1018.413
-24.809	20.922	1289.658	1017.177
-23.794	20.995	1288.319	1016.505
-22.779	20.983	1286.763	1015.164
-21.765	20.952	1285.846	1014.222
-20.750	20.895	1284.454	1012.750
-19.736	20.880	1283.342	1011.746
-18.721	20.836	1282.436	1010.738
-17.706	20.863	1281.087	1009.793
-16.692	20.811	1280.169	1008.726
-15.677	20.879	1278.639	1007.876
-14.663	20.745	1277.871	1006.455
-13.648	20.807	1276.924	1006.028
-12.633	20.829	1275.260	1004.802
-11.619	20.815	1274.949	1004.439
-10.604	20.904	1273.821	1004.023
-9.590	20.799	1273.204	1002.888
-8.575	20.888	1272.212	1002.581
-7.560	20.885	1271.174	1001.705
-6.546	20.765	1270.767	1000.657
-5.531	20.769	1270.088	1000.107
-4.517	20.850	1269.166	999.804
-3.502	20.888	1267.972	999.044
-2.487	20.807	1267.078	997.832
-1.473	20.713	1262.916	993.978
-0.458	19.139	1247.231	972.711
0.556	14.759	1232.357	936.334
1.571	11.317	1241.029	923.385
2.586	10.759	1256.066	931.289
3.600	10.927	1243.251	922.658
4.615	8.163	1171.111	854.255
5.629	3.051	1102.114	778.039
6.644	0.835	1085.844	755.424
7.659	0.645	1084.287	753.328
8.673	0.640	1083.331	752.571
9.688	0.581	1081.873	751.202
10.702	0.822	1079.253	750.512
11.717	4.006	1082.796	768.739
12.731	10.425	1091.713	807.051
13.746	15.577	1097.998	837.371
14.761	17.132	1100.224	846.754
15.775	16.553	1098.423	842.407
16.790	15.631	1095.927	835.835
17.804	14.942	1094.872	831.535
18.819	14.539	1093.691	828.561
19.834	14.366	1092.317	826.589
20.848	14.041	1092.208	824.823
21.863	13.955	1090.645	823.145
22.877	13.614	1090.415	821.209
23.892	13.673	1089.438	820.692
24.907	13.698	1088.512	820.045
25.921	13.776	1088.061	820.018
26.936	13.719	1087.424	819.182
27.950	13.808	1086.246	818.662
28.965	13.891	1084.728	817.855
29.980	13.977	1083.413	817.214
30.994	13.972	1082.388	816.342
32.009	13.901	1081.314	815.113
33.023	13.814	1080.786	814.215
34.038	13.834	1079.728	813.443
35.053	13.715	1079.097	812.315
36.067	13.912	1077.904	812.308
37.082	13.751	1077.323	811.012
38.096	13.885	1076.100	810.672
39.111	13.852	1075.668	810.113
40.126	13.767	1074.737	808.927
41.140	13.713	1073.074	807.343
42.155	13.724	1072.176	806.650
43.169	13.683	1071.257	805.685
44.184	13.585	1070.295	804.413
45.199	13.617	1068.992	803.519
46.213	13.745	1067.978	803.309
47.228	13.800	1066.731	802.565
48.242	13.763	1065.489	801.379
49.257	13.770	1064.879	800.886
50.271	13.771	1064.104	800.234
51.286	13.768	1063.041	799.349
52.301	13.770	1062.111	798.590
53.315	13.799	1061.339	798.080
54.330	13.696	1060.427	796.825
55.344	13.738	1058.976	795.870
56.359	13.799	1058.438	795.687
57.374	13.858	1057.341	795.071
58.388	13.598	1056.810	793.359
59.403	13.682	1056.135	793.184
60.417	13.570	1055.078	791.786
61.432	13.542	1054.690	791.289
62.447	13.564	1053.293	790.278
63.461	13.545	1052.632	789.618
64.476	13.608	1051.576	789.058
65.490	13.581	1051.007	788.434
66.505	13.673	1049.619	787.761
67.520	13.677	1048.911	787.178
68.534	13.767	1048.141	786.959
69.549	13.603	1047.723	785.794
70.563	13.639	1047.049	785.389
71.578	13.647	1045.976	784.553
72.593	13.574	1045.729	783.952
73.607	13.662	1044.407	783.309
74.622	13.592	1044.216	782.768
75.636	13.558	1043.628	782.096
76.651	13.568	1042.925	781.546
77.666	13.618	1042.044	781.054
78.680	13.715	1041.125	780.751
79.695	13.594	1040.445	779.602
80.709	13.735	1039.930	779.812
81.724	13.615	1039.464	778.827
82.739	13.724	1038.467	778.525
83.753	13.965	1037.224	778.655
84.768	13.848	1036.238	777.299
85.782	13.845	1035.782	776.871
86.797	13.748	1035.459	776.106
87.812	13.560	1034.395	774.362
88.826	13.845	1032.666	774.330
89.841	13.788	1031.726	773.292
90.855	13.773	1031.101	772.684
91.870	13.796	1030.294	772.118
92.884	13.901	1029.333	771.815
93.899	13.853	1028.524	770.917
94.914	14.003	1027.392	770.700
95.928	13.865	1026.602	769.398
96.943	13.760	1026.518	768.782
97.957	13.822	1025.530	768.260
98.972	13.778	1024.197	766.988
99.987	13.869	1023.187	766.585
101.001	13.811	1022.492	765.731
102.016	13.860	1021.302	764.997
103.030	13.993	1020.429	764.887
104.045	13.856	1019.888	763.785
105.060	13.868	1019.052	763.147
106.074	13.873	1017.959	762.284
107.089	13.770	1017.144	761.133
108.103	13.663	1016.296	759.939
109.118	13.766	1015.129	759.470
110.133	13.741	1014.431	758.766
111.147	13.814	1013.733	758.513
112.162	13.696	1013.095	757.427
113.176	13.924	1011.828	757.456
114.191	13.947	1011.327	757.119
115.206	13.928	1010.433	756.293
116.220	13.886	1009.531	755.360
117.235	13.896	1008.701	754.719
118.249	13.892	1007.866	754.010
119.264	13.813	1007.418	753.248
120.279	13.797	1006.177	752.182
121.293	13.756	1005.535	751.450
122.308	13.787	1004.839	751.005
123.322	13.951	1003.027	750.322
124.337	13.796	1002.610	749.245
125.352	13.766	1001.979	748.574
126.366	13.678	1000.946	747.336
127.381	13.758	999.196	746.325
128.395	13.858	998.045	745.850
129.410	13.828	997.107	744.947
130.424	13.801	996.426	744.252
131.439	13.798	995.904	743.781
132.454	13.815	995.444	743.450
133.468	13.854	994.080	742.537
134.483	13.813	993.682	741.993
135.497	13.790	992.213	740.727
136.512	13.774	991.803	740.282
137.527	13.810	991.038	739.806
138.541	13.862	990.455	739.541
139.556	13.793	989.371	738.357
140.570	13.950	988.406	738.268
141.585	13.996	987.598	737.804
142.600	14.035	986.554	737.133
143.614	13.956	986.095	736.374
144.629	13.991	985.162	735.767
145.643	14.056	984.143	735.227
146.658	14.024	983.092	734.239
147.673	13.943	982.412	733.308
148.687	13.886	981.426	732.253
149.702	13.911	980.458	731.576
150.716	13.936	979.767	731.109
151.731	13.928	979.124	730.526
152.746	13.914	978.524	729.953
153.760	13.900	977.805	729.290
154.775	14.038	977.292	729.449
155.789	14.150	976.404	729.213
156.804	14.209	975.444	728.692
157.819	14.051	974.994	727.600
158.833	14.246	974.313	727.877
159.848	14.168	973.451	726.831
160.862	14.143	972.483	725.934
161.877	14.076	971.227	724.639
162.892	14.152	970.771	724.568
163.906	14.042	969.504	723.076
164.921	14.022	968.811	722.411
165.935	14.241	967.529	722.339
166.950	14.091	966.870	721.134
167.964	14.127	966.040	720.608
168.979	14.108	965.150	719.795
169.994	14.153	964.294	719.288
171.008	14.268	963.692	719.276
172.023	14.320	962.729	718.717
173.037	14.282	961.983	717.932
174.052	14.200	961.769	717.357
175.067	14.220	960.820	716.671
176.081	14.165	960.285	715.969
177.096	14.166	960.277	715.905
178.110	14.416	958.505	715.594
179.125	14.286	958.398	714.894
180.140	14.279	958.329	714.749
181.154	14.388	957.378	714.443
182.169	14.283	956.895	713.569
183.183	14.501	955.801	713.626
184.198	14.416	955.408	712.904
185.213	14.445	954.622	712.377
186.227	14.492	953.982	712.040
187.242	14.393	953.382	711.107
188.256	14.488	952.927	711.109
189.271	14.419	951.903	709.989
190.286	14.320	951.100	708.907
191.300	14.152	950.780	707.887
192.315	14.305	949.771	707.724
193.329	14.325	949.242	707.351
194.344	14.533	948.427	707.567
195.359	14.408	947.935	706.603
196.373	14.426	947.449	706.257
197.388	14.610	946.783	706.479
198.402	14.546	946.541	705.962
199.417	14.569	945.879	705.505
200.432	14.726	944.916	705.385
201.446	14.691	944.648	704.977
202.461	14.694	944.139	704.548
203.475	14.752	943.283	704.089
204.490	14.576	942.682	702.838
205.504	14.688	941.875	702.644
206.519	14.687	941.326	702.169
207.534	14.707	940.280	701.412
208.548	14.748	939.631	701.038
209.563	14.761	939.020	700.575
210.577	14.743	938.277	699.882
211.592	14.744	937.834	699.492
212.607	14.890	936.812	699.282
213.621	14.769	936.473	698.458
214.636	14.801	935.585	697.868
215.650	14.853	934.990	697.580
216.665	14.806	934.495	696.955
217.680	14.964	933.446	696.766
218.694	14.923	932.762	696.024
219.709	14.939	932.391	695.755
220.723	14.770	931.711	694.480
221.738	14.893	930.824	694.270
222.753	14.889	930.290	693.794
223.767	14.931	929.782	693.527
224.782	14.975	929.032	693.090
225.796	15.035	928.540	692.909
226.811	15.212	927.144	692.539
227.826	15.058	926.924	691.677
228.840	15.015	926.205	690.901
229.855	15.100	925.042	690.322
230.869	14.978	925.124	689.820
231.884	15.070	923.754	689.116
232.899	14.987	923.341	688.406
233.913	14.902	922.594	687.436
234.928	15.012	922.028	687.405
235.942	14.963	921.515	686.763
236.957	15.070	920.960	686.728
237.972	15.079	920.004	685.991
238.986	15.167	919.336	685.790
240.001	15.195	918.487	685.211
241.015	15.195	918.011	684.797
242.030	15.094	917.427	683.888
243.045	15.114	917.162	683.712
244.059	15.158	916.258	683.156
245.074	15.211	915.985	683.108
246.088	15.157	915.098	682.168
247.103	15.199	914.422	681.771
248.117	15.300	913.789	681.653
249.132	15.228	913.547	681.117
250.147	15.385	912.613	680.997
251.161	15.330	911.969	680.237
252.176	15.447	911.299	680.149
253.190	15.432	910.224	679.228
254.205	15.416	910.188	679.074
255.220	15.492	909.338	678.689
256.234	15.495	908.319	677.878
257.249	15.580	908.114	678.009
258.263	15.565	907.479	677.414
259.278	15.547	906.655	676.665
260.293	15.529	906.270	676.246
261.307	15.516	905.852	675.825
262.322	15.651	904.529	675.318
263.336	15.762	904.116	675.397
264.351	15.683	903.373	674.466
265.366	15.729	902.554	673.978
266.380	15.693	902.030	673.382
267.395	15.687	901.314	672.766
268.409	15.760	900.176	672.145
269.424	15.650	900.078	671.576
270.439	15.698	898.939	670.857
271.453	15.714	898.588	670.601
272.468	15.789	897.808	670.257
273.482	15.699	897.875	669.889
274.497	15.556	897.513	668.991
275.512	15.801	896.121	668.867
276.526	15.838	895.566	668.540
277.541	15.864	895.159	668.280
278.555	15.848	894.922	667.984
279.570	15.878	893.979	667.338
280.585	15.882	893.436	666.888
281.599	15.867	892.179	665.832
282.614	15.850	891.613	665.285
283.628	16.032	891.006	665.492
284.643	15.879	890.855	664.715
285.657	16.057	889.636	664.449
286.672	15.980	889.311	663.842
287.687	15.995	889.053	663.652
288.701	16.095	887.649	662.940
289.716	15.991	887.539	662.387
290.730	16.065	886.685	661.982
291.745	16.141	886.012	661.721
292.760	15.955	885.400	660.475
293.774	16.097	884.868	660.579
294.789	16.137	884.134	660.127
295.803	15.983	883.640	659.099
296.818	16.209	882.871	659.347
297.833	16.104	882.184	658.369
298.847	16.096	881.638	657.871
299.862	16.137	880.720	657.285
300.876	16.319	880.285	657.612
301.891	16.295	879.510	656.883
302.906	16.276	879.110	656.451
303.920	16.360	878.582	656.325
304.935	16.430	878.018	656.119
305.949	16.391	877.373	655.428
306.964	16.352	876.879	654.847
307.979	16.446	876.092	654.569
308.993	16.446	875.744	654.248
310.008	16.394	874.990	653.426
311.022	16.447	874.401	653.133
312.037	16.476	873.781	652.725
313.052	16.360	873.055	651.676
314.066	16.323	872.571	651.118
315.081	16.456	872.230	651.315
316.095	16.370	871.280	650.218
317.110	16.397	871.069	650.105
318.125	16.412	870.417	649.621
319.139	16.316	869.974	648.864
320.154	16.554	869.385	649.281
321.168	16.484	869.026	648.686
322.183	16.489	868.112	647.967
323.197	16.430	868.045	647.633
324.212	16.430	867.534	647.196
325.227	16.467	866.489	646.499
326.241	16.577	866.007	646.502
327.256	16.460	865.641	645.724
328.270	16.482	865.000	645.275
329.285	16.431	864.515	644.661
330.300	16.674	863.606	644.852
331.314	16.585	863.003	644.006
332.329	16.612	862.330	643.550
333.343	16.637	862.227	643.509
334.358	16.657	861.803	643.211
335.373	16.698	861.202	642.861
336.387	16.677	861.099	642.648
337.402	16.698	860.965	642.570
338.416	16.716	860.462	642.206
339.431	16.792	860.061	642.141
340.446	16.927	859.273	642.006
341.460	16.861	859.004	641.500
342.475	16.890	858.334	641.053
343.489	16.898	858.311	641.006
344.504	17.051	857.492	640.915
345.519	16.999	856.915	640.232
346.533	16.872	856.751	639.573
347.548	16.951	855.985	639.245
348.562	16.804	855.647	638.381
349.577	16.911	855.236	638.421
350.592	16.989	854.256	637.927
351.606	16.833	853.535	636.746
352.621	16.898	853.010	636.539
353.635	16.960	852.433	636.285
354.650	17.042	851.709	635.997
355.665	16.918	851.288	635.162
356.679	16.923	850.593	634.605
357.694	17.048	849.679	634.333
358.708	17.007	849.324	633.862
359.723	17.170	848.640	633.902
360.738	17.055	848.079	632.997
361.752	17.084	847.478	632.601
362.767	17.225	846.709	632.496
363.781	17.181	846.285	631.960
364.796	17.350	845.571	631.999
365.810	17.271	845.374	631.502
366.825	17.248	844.903	631.009
367.840	17.344	844.600	631.085
368.854	17.207	844.342	630.325
369.869	17.388	843.369	630.216
370.883	17.350	842.834	629.618
371.898	17.232	842.871	629.152
372.913	17.476	841.779	629.187
373.927	17.356	841.663	628.600
374.942	17.338	841.475	628.337
375.956	17.491	841.072	628.545
376.971	17.450	840.661	628.033
377.986	17.464	840.059	627.579
379.000	17.501	839.471	627.219
380.015	17.499	839.385	627.091
381.029	17.558	838.582	626.652
382.044	17.542	838.033	626.128
383.059	17.621	837.187	625.730
384.073	17.523	836.415	624.739
385.088	17.632	835.785	624.615
386.102	17.496	835.309	623.706
387.117	17.588	835.086	623.820
388.132	17.434	834.724	622.932
389.146	17.633	833.520	622.704
390.161	17.647	833.046	622.346
391.175	17.728	832.964	622.524
392.190	17.649	832.322	621.703
393.205	17.526	832.122	621.048
394.219	17.546	831.990	620.968
395.234	17.610	831.303	620.633
396.248	17.572	830.837	620.093
397.263	17.677	829.931	619.745
398.278	17.586	829.877	619.318
399.292	17.634	829.341	619.039
400.307	17.734	828.931	619.038
401.321	17.708	828.309	618.427
402.336	17.639	827.769	617.716
403.350	17.706	827.429	617.653
404.365	17.794	827.028	617.616
405.380	17.860	826.560	617.453
406.394	17.936	825.569	616.931
407.409	17.814	825.596	616.456
408.423	17.969	825.427	616.836
409.438	17.872	824.799	615.960
410.453	17.790	824.573	615.443
411.467	18.004	823.566	615.407
412.482	17.984	823.185	614.997
413.496	18.127	822.973	615.296
414.511	18.225	822.559	615.287
415.526	18.130	822.337	614.725
416.540	18.065	821.704	613.964
417.555	18.243	820.760	613.843
418.569	18.230	820.886	613.835
419.584	18.226	820.284	613.318
420.599	18.135	819.971	612.701
421.613	115.980	1301.348	1492.230
422.628	100.640	1371.447	1492.297
