DTS Sentinel unit serial number:	SN413079Multiplexer serial number:	ORYXHardware model number:	OX4-SRSoftware version number:	ORYX F/W v4.00 Oryx Data Collector v3.7.2.0data status	okinstallation	princeton_trtdifferential loss correction	single-endedforward channel	channel 1reverse channel	N/Adate	2019/09/17time	00:02:35forward acquisition time	60.00reverse acquisition time	0.00gamma	496.2192k internal	0.2325k external	0.2325temperature offset calibration	0.9955default loss term (dB/km)	0.3790temperature slope calibration	1.0000multiplexer offset coefficient	1.0000multiplexer slope coefficient	1.0000fibre end	0.00T internal ref (°C)	29.58T ext. ref 1 (°C)	0.09T ext. ref 2 (°C)	23.95length (m)	temperature (°C)	Stokes	anti-Stokes-747.200	-200.000	0.041	0.394
-746.185	-200.000	0.016	-0.087
-745.171	-31.146	-0.214	0.122
-744.156	271.205	-0.034	-0.061
-743.142	65.076	-0.191	0.194
-742.127	122.369	-0.142	0.179
-741.112	-200.000	-0.053	0.341
-740.098	-200.000	-0.033	0.457
-739.083	800.000	0.088	0.255
-738.069	-200.000	0.035	0.183
-737.054	-123.945	0.188	0.030
-736.039	-17.706	-0.122	-0.077
-735.025	-200.000	0.041	0.245
-734.010	0.044	-0.033	-0.024
-732.996	205.507	-0.096	-0.151
-731.981	-200.000	0.019	0.190
-730.966	52.969	0.126	0.122
-729.952	-17.691	-0.198	0.125
-728.937	-95.557	-0.278	0.075
-727.923	-200.000	0.039	-0.173
-726.908	800.000	-0.065	0.269
-725.894	-65.553	-0.227	0.092
-724.879	-6.699	0.206	-0.141
-723.864	800.000	-0.055	-0.166
-722.850	393.903	-0.066	-0.138
-721.835	68.005	-0.038	-0.039
-720.821	289.444	0.141	-0.258
-719.806	94.361	0.210	-0.240
-718.791	800.000	0.009	0.027
-717.777	114.574	-0.173	-0.212
-716.762	-140.344	-0.147	0.015
-715.748	49.237	-0.254	-0.240
-714.733	-156.494	-0.154	-0.010
-713.718	68.503	-0.151	0.156
-712.704	-200.000	-0.014	-0.095
-711.689	687.653	-0.144	-0.379
-710.675	-153.021	-0.251	0.018
-709.660	-200.000	-0.010	0.152
-708.645	800.000	0.075	0.269
-707.631	800.000	0.059	0.196
-706.616	-136.341	-0.255	0.030
-705.602	-96.995	-0.262	-0.069
-704.587	-152.180	-0.067	-0.005
-703.572	-121.555	0.221	-0.037
-702.558	277.646	0.117	0.209
-701.543	-106.272	0.201	0.045
-700.529	34.225	-0.276	0.242
-699.514	356.082	0.105	-0.210
-698.499	18.388	-0.199	-0.160
-697.485	-200.000	0.080	-0.555
-696.470	-200.000	0.043	-0.196
-695.456	-200.000	0.013	0.061
-694.441	800.000	0.071	-0.235
-693.426	-168.318	0.232	-0.009
-692.412	-24.874	-0.123	0.073
-691.397	800.000	0.054	-0.177
-690.383	-49.895	0.131	0.062
-689.368	-200.000	0.035	-0.265
-688.354	-56.566	-0.163	-0.073
-687.339	312.652	0.056	0.107
-686.324	-107.311	0.061	0.014
-685.310	-200.000	0.052	-0.338
-684.295	18.823	0.248	0.200
-683.281	-99.486	-0.024	-0.006
-682.266	-42.767	-0.201	0.103
-681.251	-133.343	-0.351	0.044
-680.237	152.432	-0.032	0.044
-679.222	538.142	0.055	0.132
-678.208	-4.572	0.085	-0.059
-677.193	-200.000	-0.066	-0.305
-676.178	130.408	-0.079	0.102
-675.164	800.000	0.079	-0.325
-674.149	-200.000	-0.009	-0.359
-673.135	128.987	0.122	0.156
-672.120	252.777	0.035	0.060
-671.105	800.000	0.095	0.308
-670.091	-90.909	-0.168	0.049
-669.076	13.839	-0.269	-0.211
-668.062	800.000	0.044	-0.178
-667.047	-72.575	-0.196	0.073
-666.032	-200.000	-0.013	-0.086
-665.018	131.598	0.085	-0.110
-664.003	800.000	0.024	-0.101
-662.989	-59.270	-0.205	-0.089
-661.974	333.450	-0.054	-0.105
-660.959	-109.408	-0.102	-0.022
-659.945	220.489	-0.079	-0.127
-658.930	7.662	-0.196	-0.147
-657.916	-19.934	0.056	0.035
-656.901	39.488	0.218	-0.197
-655.886	-106.994	0.301	0.067
-654.872	-62.079	-0.440	-0.185
-653.857	-200.000	-0.114	-0.513
-652.843	419.904	0.101	0.217
-651.828	106.462	-0.136	-0.162
-650.814	-200.000	0.027	-0.182
-649.799	356.662	-0.084	-0.169
-648.784	685.878	-0.083	0.218
-647.770	800.000	-0.153	-0.501
-646.755	-200.000	0.049	-0.433
-645.741	-90.624	-0.402	-0.117
-644.726	77.960	-0.240	0.258
-643.711	-200.000	-0.008	0.077
-642.697	167.618	0.262	0.375
-641.682	-200.000	0.012	0.196
-640.668	242.990	0.041	0.070
-639.653	-200.000	-0.034	0.266
-638.638	-39.264	-0.167	0.088
-637.624	-200.000	0.006	-0.316
-636.609	-200.000	0.011	-0.499
-635.595	470.328	0.038	0.085
-634.580	279.055	0.191	-0.342
-633.565	-200.000	0.052	-0.235
-632.551	-200.000	0.021	-0.276
-631.536	-107.339	0.197	-0.044
-630.522	798.892	0.037	-0.103
-629.507	0.997	0.128	-0.092
-628.492	721.683	-0.020	0.053
-627.478	-94.203	0.134	0.037
-626.463	-55.698	0.190	0.085
-625.449	19.049	-0.192	0.155
-624.434	-31.172	0.068	0.038
-623.419	-20.778	-0.084	-0.052
-622.405	-200.000	0.003	0.051
-621.390	-100.324	-0.364	0.091
-620.376	229.875	0.122	0.201
-619.361	-89.224	-0.175	0.052
-618.346	456.505	-0.087	-0.193
-617.332	-42.921	-0.239	-0.122
-616.317	-166.110	-0.340	-0.015
-615.303	-200.000	-0.008	0.307
-614.288	-79.837	-0.338	-0.114
-613.273	-200.000	-0.088	-0.476
-612.259	800.000	-0.203	-0.744
-611.244	-173.334	0.131	0.004
-610.230	190.193	-0.103	-0.155
-609.215	514.575	0.068	0.160
-608.201	129.914	0.101	0.130
-607.186	-175.660	0.093	0.003
-606.171	-82.899	-0.186	0.060
-605.157	-200.000	0.071	0.315
-604.142	-61.064	-0.321	-0.136
-603.128	36.740	0.365	0.323
-602.113	83.930	0.088	-0.096
-601.098	56.796	-0.272	-0.265
-600.084	11.648	-0.137	-0.106
-599.069	-200.000	0.017	0.324
-598.055	122.528	-0.115	-0.144
-597.040	83.055	-0.152	0.166
-596.025	-70.888	-0.316	0.120
-595.011	327.896	0.110	0.212
-593.996	-2.865	0.330	0.231
-592.982	102.908	-0.230	-0.270
-591.967	4.153	-0.182	-0.134
-590.952	226.790	0.124	0.202
-589.938	86.262	-0.180	0.199
-588.923	800.000	0.030	-0.102
-587.909	800.000	-0.117	0.387
-586.894	1.195	-0.286	0.206
-585.879	28.035	0.241	0.204
-584.865	-200.000	0.053	-0.373
-583.850	116.405	-0.300	-0.369
-582.836	-200.000	0.014	0.236
-581.821	-42.971	0.221	-0.113
-580.806	540.341	-0.026	0.061
-579.792	235.320	-0.026	0.043
-578.777	800.000	0.053	0.177
-577.763	-200.000	0.046	0.202
-576.748	346.678	0.062	-0.121
-575.733	81.222	-0.218	-0.236
-574.719	117.302	0.246	0.303
-573.704	-159.270	0.101	0.006
-572.690	-191.106	-0.171	0.002
-571.675	152.775	0.172	0.235
-570.661	686.745	-0.036	-0.094
-569.646	-200.000	0.008	0.197
-568.631	-200.000	-0.041	-0.289
-567.617	-27.486	-0.137	0.080
-566.602	-200.000	-0.061	0.298
-565.588	68.576	0.232	0.238
-564.573	162.278	-0.048	-0.068
-563.558	52.789	0.253	0.242
-562.544	93.869	-0.223	0.254
-561.529	449.937	-0.071	0.157
-560.515	135.483	-0.092	0.119
-559.500	181.020	-0.111	-0.164
-558.485	291.834	-0.051	0.093
-557.471	-121.620	0.310	0.051
-556.456	10.324	0.254	0.194
-555.442	93.827	0.197	-0.224
-554.427	564.642	-0.117	-0.284
-553.412	-200.000	0.020	0.341
-552.398	-200.000	0.080	-0.405
-551.383	152.098	-0.250	0.342
-550.369	-200.000	0.008	-0.189
-549.354	-48.134	0.093	0.045
-548.339	-200.000	-0.005	0.036
-547.325	169.645	0.020	-0.029
-546.310	-68.266	-0.299	-0.116
-545.296	9.555	0.355	-0.269
-544.281	-87.544	0.215	0.065
-543.266	-200.000	0.021	-0.239
-542.252	-27.929	0.187	0.109
-541.237	65.717	-0.198	0.201
-540.223	-126.459	-0.089	0.013
-539.208	-200.000	-0.012	0.075
-538.193	-59.494	-0.034	-0.015
-537.179	-200.000	0.018	-0.144
-536.164	38.718	-0.081	0.072
-535.150	-132.973	-0.177	0.022
-534.135	-102.166	0.174	-0.042
-533.121	-34.723	0.136	-0.074
-532.106	-72.467	-0.290	-0.107
-531.091	-96.586	0.279	0.074
-530.077	800.000	0.110	-0.403
-529.062	134.273	0.127	-0.164
-528.048	-86.994	0.233	0.071
-527.033	-12.353	-0.178	0.116
-526.018	-127.166	0.424	-0.062
-525.004	-35.690	-0.334	-0.181
-523.989	-200.000	0.002	0.204
-522.975	-60.707	-0.193	-0.082
-521.960	-14.758	-0.087	-0.056
-520.945	-97.056	0.425	-0.111
-519.931	-95.339	-0.309	0.083
-518.916	-62.594	0.039	0.016
-517.902	59.391	0.282	0.278
-516.887	800.000	-0.104	0.372
-515.872	-107.833	0.120	0.026
-514.858	322.281	0.096	-0.183
-513.843	800.000	0.026	-0.096
-512.829	92.211	-0.159	-0.179
-511.814	371.218	0.167	-0.338
-510.799	15.032	0.370	-0.290
-509.785	257.736	0.135	-0.231
-508.770	18.538	-0.279	0.223
-507.756	-16.075	-0.152	0.097
-506.741	-151.498	0.142	-0.010
-505.726	-200.000	0.071	0.469
-504.712	-14.172	-0.021	0.013
-503.697	230.278	0.174	-0.284
-502.683	167.446	0.098	-0.139
-501.668	5.256	0.097	0.071
-500.653	167.412	-0.121	-0.172
-499.639	421.913	0.131	0.281
-498.624	-155.831	-0.367	0.023
-497.610	-75.136	0.352	0.126
-496.595	-14.078	0.190	-0.122
-495.581	53.895	-0.198	0.190
-494.566	-200.000	0.019	0.145
-493.551	119.451	-0.075	-0.092
-492.537	-91.903	-0.160	-0.045
-491.522	-156.467	-0.019	0.001
-490.508	-192.384	0.422	-0.004
-489.493	188.635	-0.111	-0.165
-488.478	-84.670	-0.313	0.099
-487.464	80.428	0.107	-0.115
-486.449	-95.452	-0.264	0.071
-485.435	495.024	0.212	0.486
-484.420	397.866	-0.082	0.172
-483.405	-114.734	0.435	0.083
-482.391	800.000	-0.061	-0.198
-481.376	-56.271	0.218	-0.097
-480.362	-8.470	0.137	0.092
-479.347	22.064	0.074	0.060
-478.332	-140.133	0.254	0.027
-477.318	207.558	-0.030	0.046
-476.303	-73.387	-0.327	0.119
-475.289	-200.000	0.003	0.044
-474.274	-67.845	0.089	-0.035
-473.259	-112.127	-0.487	-0.098
-472.245	-200.000	-0.025	0.307
-471.230	160.735	-0.129	-0.180
-470.216	-7.979	0.368	-0.248
-469.201	435.143	-0.082	0.177
-468.186	218.218	0.096	-0.153
-467.172	444.534	-0.108	-0.236
-466.157	612.325	-0.082	-0.204
-465.143	327.926	-0.072	-0.138
-464.128	262.188	0.106	-0.184
-463.113	-141.033	-0.261	0.027
-462.099	1.850	-0.183	-0.131
-461.084	-100.845	-0.175	0.043
-460.070	626.629	-0.152	0.382
-459.055	-19.302	0.461	0.285
-458.040	791.978	0.028	0.078
-457.026	800.000	-0.124	0.415
-456.011	-82.938	-0.153	0.049
-454.997	-68.715	-0.329	0.127
-453.982	800.000	0.126	0.357
-452.968	46.454	-0.161	0.149
-451.953	-49.077	0.081	0.039
-450.938	-150.657	-0.295	0.022
-449.924	-60.601	-0.202	-0.086
-448.909	437.457	0.085	-0.185
-447.895	-15.619	-0.305	-0.194
-446.880	-4.499	-0.026	-0.018
-445.865	4.072	-0.151	0.110
-444.851	-200.000	-0.007	0.134
-443.836	79.307	0.061	-0.065
-442.822	79.933	-0.026	0.028
-441.807	800.000	-0.096	0.291
-440.792	356.174	0.110	0.218
-439.778	-27.427	0.167	0.097
-438.763	-11.503	-0.141	0.093
-437.749	511.114	0.069	0.161
-436.734	-200.000	-0.002	0.146
-435.719	800.000	0.082	0.281
-434.705	51.030	-0.211	0.200
-433.690	-99.623	0.176	0.044
-432.676	285.051	0.127	0.229
-431.661	800.000	-0.070	-0.199
-430.646	64.469	0.185	-0.186
-429.632	-200.000	-0.085	0.402
-428.617	800.000	0.066	-0.231
-427.603	-142.943	0.099	-0.010
-426.588	73.004	-0.263	-0.274
-425.573	242.029	0.120	0.200
-424.559	800.000	0.094	0.317
-423.544	729.325	-0.016	0.041
-422.530	-200.000	0.015	0.229
-421.515	-138.019	-0.069	-0.008
-420.500	-200.000	-0.036	-0.203
-419.486	-200.000	-0.025	0.143
-418.471	-77.860	-0.251	0.086
-417.457	-200.000	-0.016	0.211
-416.442	-130.532	0.281	0.038
-415.428	-116.329	-0.187	-0.034
-414.413	-78.204	-0.199	-0.068
-413.398	-109.862	0.069	-0.015
-412.384	800.000	0.069	-0.237
-411.369	800.000	0.073	-0.218
-410.355	800.000	0.095	0.302
-409.340	423.019	0.059	0.127
-408.325	135.402	0.192	0.248
-407.311	800.000	-0.072	-0.231
-406.296	800.000	0.055	0.193
-405.282	24.521	0.337	0.277
-404.267	-41.363	-0.139	-0.071
-403.252	54.224	-0.060	-0.057
-402.238	-10.668	-0.234	-0.154
-401.223	-54.684	-0.014	-0.006
-400.209	-5.073	-0.325	-0.223
-399.194	-29.070	-0.263	-0.150
-398.179	-12.097	0.207	-0.135
-397.165	281.426	0.061	-0.108
-396.150	-200.000	-0.021	0.111
-395.136	385.926	-0.116	0.239
-394.121	-107.020	0.050	-0.011
-393.106	-200.000	0.001	-0.130
-392.092	800.000	0.041	-0.176
-391.077	23.796	0.376	0.308
-390.063	-61.677	0.064	0.027
-389.048	-102.186	0.138	-0.033
-388.033	216.384	0.120	0.190
-387.019	191.297	0.242	-0.363
-386.004	-137.644	-0.259	0.029
-384.990	-128.110	0.285	0.041
-383.975	162.753	-0.156	-0.218
-382.960	-200.000	0.007	-0.369
-381.946	343.751	0.093	-0.182
-380.931	-60.257	-0.361	0.153
-379.917	800.000	0.048	0.172
-378.902	-200.000	0.043	-0.329
-377.888	-200.000	0.026	0.132
-376.873	-80.555	-0.460	0.153
-375.858	20.438	0.157	0.127
-374.844	-200.000	-0.045	-0.327
-373.829	-75.988	-0.209	0.074
-372.815	155.543	-0.140	-0.192
-371.800	332.630	0.117	-0.224
-370.785	720.551	0.164	-0.433
-369.771	800.000	0.091	-0.314
-368.756	-200.000	0.137	0.608
-367.742	-120.016	0.126	-0.022
-366.727	-67.772	-0.020	0.008
-365.712	69.766	0.247	0.254
-364.698	800.000	-0.094	-0.268
-363.683	800.000	-0.074	-0.301
-362.669	-56.500	-0.107	0.047
-361.654	-200.000	0.010	-0.237
-360.639	43.552	0.171	0.156
-359.625	-85.707	0.172	-0.053
-358.610	152.458	-0.265	0.360
-357.596	-141.473	-0.508	0.051
-356.581	-1.483	0.232	-0.163
-355.566	800.000	0.082	0.297
-354.552	800.000	0.043	0.182
-353.537	68.121	-0.260	-0.265
-352.523	-47.799	0.140	-0.067
-351.508	-95.564	-0.355	-0.094
-350.493	315.771	0.019	-0.036
-349.479	60.310	0.068	0.067
-348.464	-132.644	-0.255	0.032
-347.450	17.986	0.380	0.301
-346.435	-200.000	-0.023	-0.117
-345.420	-200.000	0.018	0.268
-344.406	-200.000	0.004	-0.128
-343.391	612.169	0.067	-0.166
-342.377	256.581	-0.151	-0.257
-341.362	406.797	0.057	0.119
-340.348	339.475	0.014	-0.027
-339.333	-200.000	0.081	-0.360
-338.318	-21.797	0.102	0.062
-337.304	-44.921	-0.195	-0.096
-336.289	800.000	0.116	-0.366
-335.275	-123.829	-0.287	0.045
-334.260	-63.185	0.198	-0.081
-333.245	-200.000	-0.009	-0.229
-332.231	-47.581	0.106	0.051
-331.216	-28.963	0.120	0.068
-330.202	55.978	0.087	-0.084
-329.187	166.054	-0.149	-0.210
-328.172	58.357	-0.147	0.143
-327.158	64.690	0.034	-0.034
-326.143	-1.657	0.116	0.081
-325.129	53.326	-0.085	-0.081
-324.114	800.000	0.062	-0.175
-323.099	-6.752	0.189	0.128
-322.085	188.867	0.074	0.110
-321.070	263.147	0.204	-0.352
-320.056	-51.275	0.094	-0.044
-319.041	-102.987	0.519	0.122
-318.026	-27.105	0.404	0.234
-317.012	-200.000	0.027	0.398
-315.997	-144.657	0.480	-0.044
-314.983	554.298	0.044	0.105
-313.968	-111.610	-0.079	-0.016
-312.953	-127.175	0.293	0.042
-311.939	-200.000	0.010	0.100
-310.924	389.634	-0.069	-0.141
-309.910	-76.680	-0.222	-0.077
-308.895	241.009	0.128	-0.212
-307.880	175.355	0.255	0.367
-306.866	59.930	-0.176	0.173
-305.851	600.720	-0.107	-0.263
-304.837	-48.662	0.097	-0.046
-303.822	-195.150	0.185	0.001
-302.807	74.185	0.195	0.203
-301.793	-125.178	-0.269	0.041
-300.778	-30.826	0.194	-0.109
-299.764	800.000	0.064	0.220
-298.749	-72.596	-0.193	-0.071
-297.735	-151.795	0.226	-0.016
-296.720	800.000	-0.078	-0.267
-295.705	-200.000	0.030	-0.142
-294.691	189.655	0.064	0.095
-293.676	8.537	0.177	0.132
-292.662	31.628	0.259	-0.220
-291.647	-200.000	-0.094	-0.422
-290.632	-90.336	-0.248	-0.071
-289.618	481.225	0.059	-0.132
-288.603	159.338	0.022	0.031
-287.589	-200.000	0.003	0.063
-286.574	-107.645	0.204	-0.044
-285.559	255.395	-0.085	-0.145
-284.545	165.841	0.174	-0.245
-283.530	-200.000	0.013	0.304
-282.516	86.367	-0.224	-0.245
-281.501	800.000	-0.098	-0.398
-280.486	-53.153	0.213	0.097
-279.472	53.931	0.140	0.133
-278.457	49.927	-0.308	-0.288
-277.443	-200.000	0.003	-0.089
-276.428	-82.352	-0.150	-0.048
-275.413	-200.000	-0.032	0.198
-274.399	6.818	-0.218	0.161
-273.384	-80.533	0.205	0.068
-272.370	-77.153	-0.310	0.107
-271.355	525.913	-0.120	0.280
-270.340	-200.000	0.017	-0.097
-269.326	96.787	-0.292	0.331
-268.311	179.505	-0.151	-0.219
-267.297	498.348	-0.044	-0.101
-266.282	6.725	0.252	0.186
-265.267	585.243	-0.031	-0.075
-264.253	638.470	0.081	0.204
-263.238	800.000	-0.076	0.249
-262.224	-25.121	-0.136	0.080
-261.209	-114.393	0.277	-0.053
-260.195	139.012	-0.125	0.163
-259.180	180.171	0.192	0.279
-258.165	478.925	-0.028	0.063
-257.151	-169.653	-0.276	-0.010
-256.136	47.149	0.192	-0.177
-255.122	61.375	-0.067	0.066
-254.107	-131.225	-0.229	-0.030
-253.092	78.899	-0.085	-0.091
-252.078	-59.072	-0.232	0.099
-251.063	569.308	-0.073	0.175
-250.049	-147.934	0.240	-0.020
-249.034	163.675	0.074	-0.103
-248.019	284.836	-0.092	0.164
-247.005	-124.744	-0.232	0.036
-245.990	-103.635	-0.234	-0.054
-244.976	140.115	-0.189	-0.247
-243.961	18.054	0.131	0.103
-242.946	-109.874	0.084	0.017
-241.932	-158.494	0.185	-0.011
-240.917	-200.000	0.108	-0.528
-239.903	-200.000	-0.018	0.141
-238.888	378.409	0.037	-0.075
-237.873	112.186	-0.127	-0.151
-236.859	800.000	-0.041	-0.162
-235.844	27.169	-0.044	0.037
-234.830	78.868	-0.035	0.037
-233.815	-26.041	0.230	-0.134
-232.800	45.518	-0.184	-0.168
-231.786	-200.000	0.046	-0.261
-230.771	-70.795	0.056	-0.021
-229.757	522.949	-0.047	-0.110
-228.742	-15.298	0.271	0.171
-227.727	620.252	0.057	-0.142
-226.713	800.000	0.142	0.432
-225.698	22.664	-0.218	-0.177
-224.684	4.651	0.105	0.076
-223.669	800.000	-0.021	0.059
-222.655	-200.000	-0.016	-0.377
-221.640	-122.322	-0.134	-0.022
-220.625	99.008	-0.067	-0.077
-219.611	-151.559	-0.109	0.008
-218.596	89.415	-0.107	0.118
-217.582	-192.593	0.050	-0.000
-216.567	-127.200	-0.116	-0.017
-215.552	-200.000	0.002	-0.259
-214.538	-119.337	0.191	-0.033
-213.523	7.487	-0.143	-0.106
-212.509	800.000	0.047	0.148
-211.494	800.000	-0.035	-0.145
-210.479	11.552	-0.151	-0.114
-209.465	-110.978	0.274	0.056
-208.450	-32.898	-0.140	0.077
-207.436	-158.129	-0.331	-0.019
-206.421	-182.775	0.105	-0.002
-205.406	35.878	0.318	0.276
-204.392	800.000	-0.049	0.194
-203.377	357.675	-0.103	-0.203
-202.363	109.615	0.146	-0.173
-201.348	-200.000	0.055	0.412
-200.333	-169.245	-0.046	0.002
-199.319	-200.000	-0.024	0.238
-198.304	-170.458	-0.161	0.006
-197.290	-74.968	0.331	0.117
-196.275	303.197	-0.161	-0.295
-195.260	628.299	0.093	0.232
-194.246	89.667	-0.335	0.369
-193.231	-115.109	0.374	0.070
-192.217	126.516	-0.213	0.266
-191.202	649.000	0.044	-0.110
-190.187	201.624	0.226	-0.344
-189.173	800.000	0.042	-0.153
-188.158	358.837	0.121	0.239
-187.144	-200.000	-0.006	-0.226
-186.129	-158.099	0.162	0.009
-185.114	800.000	0.091	-0.288
-184.100	258.526	0.179	-0.305
-183.085	40.648	-0.109	-0.097
-182.071	70.091	0.221	0.226
-181.056	191.656	-0.161	0.240
-180.042	94.969	0.116	-0.130
-179.027	-200.000	0.024	0.135
-178.012	-89.979	-0.210	0.060
-176.998	-182.979	-0.313	-0.006
-175.983	800.000	-0.048	-0.203
-174.969	-94.083	0.306	-0.083
-173.954	-89.646	0.264	-0.076
-172.939	67.121	-0.126	0.127
-171.925	155.514	-0.126	-0.171
-170.910	-200.000	-0.018	-0.128
-169.896	3.328	-0.227	-0.163
-168.881	-200.000	-0.033	-0.173
-167.866	87.745	0.112	-0.123
-166.852	-55.579	0.248	0.110
-165.837	226.971	-0.276	0.442
-164.823	-73.031	0.337	-0.122
-163.808	-139.344	0.170	0.018
-162.793	753.378	-0.092	0.246
-161.779	60.608	-0.369	0.360
-160.764	800.000	0.045	-0.185
-159.750	-200.000	-0.054	-0.264
-158.735	-120.692	-0.166	0.028
-157.720	-188.783	-0.230	-0.003
-156.706	169.900	-0.085	-0.120
-155.691	298.813	-0.116	0.210
-154.677	-200.000	0.035	0.251
-153.662	-173.667	0.321	-0.009
-152.647	146.274	0.204	-0.270
-151.633	-55.227	0.178	-0.079
-150.618	-152.574	0.299	-0.021
-149.604	-130.060	-0.161	0.022
-148.589	104.319	0.173	0.200
-147.574	725.313	0.093	-0.244
-146.560	-94.494	-0.258	-0.069
-145.545	-108.252	0.057	-0.012
-144.531	-53.627	0.337	0.152
-143.516	180.387	-0.016	-0.023
-142.502	26.588	0.064	0.053
-141.487	-200.000	-0.027	0.140
-140.472	37.134	-0.244	-0.213
-139.458	342.453	0.084	0.161
-138.443	216.845	-0.072	0.113
-137.429	151.185	0.215	0.288
-136.414	597.668	-0.137	-0.334
-135.399	-200.000	-0.003	-0.470
-134.385	-20.410	-0.256	0.155
-133.370	-140.448	-0.247	-0.025
-132.356	280.995	0.198	-0.349
-131.341	-200.000	0.009	-0.228
-130.326	174.822	0.156	-0.222
-129.312	-200.000	-0.003	-0.037
-128.297	-88.076	-0.323	-0.096
-127.283	-6.191	0.254	-0.171
-126.268	-67.902	0.410	0.158
-125.253	-108.577	-0.298	0.063
-124.239	356.962	-0.070	0.137
-123.224	800.000	0.018	0.058
-122.210	115.797	-0.030	0.036
-121.195	-21.161	0.315	-0.190
-120.180	1.782	0.314	-0.223
-119.166	87.647	-0.234	-0.255
-118.151	-78.526	0.199	-0.067
-117.137	647.406	0.031	0.078
-116.122	800.000	0.022	-0.091
-115.107	-156.896	0.234	0.014
-114.093	-56.023	-0.067	-0.029
-113.078	21.799	0.082	0.066
-112.064	800.000	0.086	-0.306
-111.049	-27.111	-0.174	0.100
-110.034	91.166	-0.159	-0.176
-109.020	-103.099	0.211	-0.049
-108.005	513.395	0.126	0.289
-106.991	-182.933	0.205	0.004
-105.976	191.404	0.127	0.189
-104.962	180.846	-0.052	0.075
-103.947	-70.101	0.220	0.082
-102.932	654.365	-0.107	0.270
-101.918	589.756	-0.088	0.213
-100.903	-167.690	0.321	0.013
-99.889	21.163	0.118	-0.094
-98.874	-146.859	0.269	-0.023
-97.859	671.113	-0.048	0.121
-96.845	-200.000	-0.029	-0.245
-95.830	249.912	-0.139	-0.232
-94.816	-174.589	0.146	-0.004
-93.801	-46.571	0.050	0.024
-92.786	-120.445	-0.270	-0.045
-91.772	31.116	0.322	0.271
-90.757	-75.902	-0.365	0.127
-89.743	46.377	-0.177	0.162
-88.728	-200.000	0.006	-0.244
-87.713	-54.178	-0.066	0.030
-86.699	-200.000	-0.011	-0.058
-85.684	402.352	0.052	0.107
-84.670	-16.649	-0.256	-0.160
-83.655	-86.833	0.267	0.080
-82.640	47.891	0.163	-0.150
-81.626	-200.000	-0.032	-0.214
-80.611	-133.859	-0.358	-0.044
-79.597	-200.000	0.153	0.001
-78.582	-43.342	0.244	0.121
-77.567	-181.594	-0.272	0.005
-76.553	-154.620	-0.407	0.027
-75.538	-111.343	0.138	-0.028
-74.524	-122.748	-0.172	-0.027
-73.509	-65.658	0.172	0.068
-72.494	-58.493	0.040	-0.017
-71.480	176.278	0.028	-0.040
-70.465	-43.008	0.146	-0.073
-69.451	238.076	-0.106	-0.173
-68.436	39.090	-0.078	-0.069
-67.422	-111.345	0.047	0.009
-66.407	-128.215	-0.391	0.055
-65.392	800.000	-0.036	-0.133
-64.378	8.847	0.289	-0.214
-63.363	-158.228	0.326	-0.019
-62.349	-200.000	-0.033	0.157
-61.334	95.959	-1.089	-1.222
-60.319	55.596	0.491	0.467
-59.305	-200.000	-0.160	-0.983
-58.290	102.392	0.832	0.955
-57.276	436.384	0.587	1.255
-56.261	-200.000	109.129	593.969
-55.246	445.596	1484.404	3202.380
-54.232	147.124	2662.811	3518.076
-53.217	105.795	2153.375	2501.169
-52.203	40.809	1603.568	1420.301
-51.188	33.110	1344.943	1144.782
-50.173	29.948	1304.761	1091.925
-49.159	54.206	1358.480	1283.466
-48.144	54.438	1374.507	1299.952
-47.130	33.155	1329.044	1131.342
-46.115	29.669	1312.126	1096.254
-45.100	29.504	1306.805	1090.792
-44.086	29.334	1304.640	1087.942
-43.071	29.483	1301.825	1086.424
-42.057	29.333	1299.828	1083.836
-41.042	29.438	1298.006	1082.891
-40.027	29.361	1296.587	1081.209
-39.013	29.519	1294.722	1080.539
-37.998	29.523	1292.566	1078.719
-36.984	29.534	1290.941	1077.387
-35.969	29.519	1289.480	1076.033
-34.954	29.534	1287.808	1074.684
-33.940	29.544	1286.415	1073.537
-32.925	29.732	1284.770	1073.213
-31.911	29.574	1283.897	1071.525
-30.896	29.658	1281.819	1070.234
-29.881	29.707	1280.846	1069.665
-28.867	29.667	1279.440	1068.219
-27.852	29.741	1277.748	1067.186
-26.838	29.692	1276.526	1065.841
-25.823	29.713	1275.056	1064.692
-24.809	29.540	1274.470	1063.164
-23.794	29.588	1273.402	1062.512
-22.779	29.668	1271.127	1061.029
-21.765	29.599	1270.668	1060.208
-20.750	29.684	1268.915	1059.188
-19.736	29.570	1267.432	1057.259
-18.721	29.576	1266.289	1056.296
-17.706	29.635	1265.127	1055.623
-16.692	29.536	1264.125	1054.176
-15.677	29.580	1263.037	1053.477
-14.663	29.567	1261.845	1052.370
-13.648	29.480	1260.821	1050.981
-12.633	29.524	1259.796	1050.335
-11.619	29.536	1258.995	1049.694
-10.604	29.629	1258.107	1049.438
-9.590	29.534	1257.319	1048.201
-8.575	29.500	1256.197	1047.031
-7.560	29.538	1255.241	1046.405
-6.546	29.437	1254.634	1045.288
-5.531	29.503	1253.619	1044.771
-4.517	29.553	1252.502	1044.086
-3.502	29.617	1251.600	1043.653
-2.487	29.504	1251.157	1042.604
-1.473	29.617	1246.369	1039.209
-0.458	28.034	1232.194	1018.538
0.556	22.825	1215.124	981.563
1.571	19.314	1221.417	966.900
2.586	18.419	1236.153	973.395
3.600	18.189	1225.352	963.508
4.615	13.281	1152.098	879.775
5.629	4.487	1076.662	778.198
6.644	0.497	1056.437	743.874
7.659	0.077	1054.381	740.292
8.673	-0.125	1053.808	738.831
9.688	-0.067	1052.354	738.034
10.702	0.238	1050.335	738.046
11.717	5.392	1056.895	767.956
12.731	13.862	1067.909	817.771
13.746	17.446	1071.941	838.474
14.761	16.960	1071.024	835.289
15.775	15.959	1068.745	828.517
16.790	14.835	1067.104	821.648
17.804	14.282	1065.226	817.415
18.819	13.899	1064.268	814.733
19.834	13.589	1063.363	812.447
20.848	13.426	1062.020	810.550
21.863	13.221	1061.469	809.056
22.877	13.011	1060.574	807.273
23.892	12.956	1059.766	806.316
24.907	12.992	1059.199	805.991
25.921	12.895	1058.921	805.232
26.936	13.112	1057.494	805.137
27.950	13.086	1057.012	804.573
28.965	13.182	1055.653	803.931
29.980	13.332	1054.091	803.400
30.994	13.225	1053.609	802.444
32.009	13.253	1052.575	801.719
33.023	13.194	1051.534	800.571
34.038	13.260	1050.343	799.911
35.053	13.116	1049.914	798.819
36.067	13.179	1048.908	798.284
37.082	13.213	1047.854	797.578
38.096	13.151	1047.864	797.214
39.111	13.239	1046.591	796.599
40.126	13.188	1045.169	795.202
41.140	12.979	1044.378	793.524
42.155	12.988	1042.900	792.373
43.169	13.026	1042.026	791.824
44.184	13.003	1041.385	791.155
45.199	13.010	1040.502	790.448
46.213	12.928	1039.431	789.172
47.228	13.143	1038.109	789.129
48.242	13.071	1037.347	788.134
49.257	13.091	1036.137	787.239
50.271	13.063	1035.669	786.680
51.286	13.226	1034.345	786.381
52.301	13.048	1033.877	785.109
53.315	13.216	1032.205	784.567
54.330	13.097	1031.321	783.262
55.344	12.964	1031.107	782.399
56.359	13.126	1030.158	782.376
57.374	13.051	1029.196	781.226
58.388	13.048	1028.106	780.315
59.403	12.915	1027.468	779.129
60.417	13.066	1026.543	779.076
61.432	12.954	1026.159	778.187
62.447	12.961	1025.133	777.369
63.461	12.912	1024.374	776.495
64.476	12.862	1023.369	775.429
65.490	12.887	1022.836	775.077
66.505	12.909	1022.079	774.535
67.520	12.866	1021.430	773.775
68.534	12.934	1020.907	773.628
69.549	12.819	1020.435	772.665
70.563	12.859	1019.252	771.889
71.578	12.813	1018.214	770.818
72.593	12.815	1017.761	770.416
73.607	12.855	1017.062	770.006
74.622	12.960	1016.234	769.800
75.636	12.809	1015.854	768.740
76.651	12.780	1014.943	767.847
77.666	12.795	1014.601	767.592
78.680	12.917	1013.386	767.169
79.695	12.936	1012.790	766.737
80.709	12.922	1012.270	766.214
81.724	13.064	1011.718	766.389
82.739	13.087	1010.635	765.607
83.753	13.214	1009.761	765.463
84.768	13.154	1009.072	764.597
85.782	13.249	1008.112	764.239
86.797	13.120	1007.280	762.944
87.812	13.018	1006.644	761.928
88.826	13.152	1005.081	761.292
89.841	13.173	1004.324	760.750
90.855	13.187	1004.188	760.641
91.870	13.318	1002.761	760.099
92.884	13.184	1002.477	759.200
93.899	13.303	1001.308	758.795
94.914	13.248	1000.681	757.998
95.928	13.247	999.860	757.305
96.943	13.359	998.794	756.944
97.957	13.217	997.841	755.504
98.972	13.226	997.082	754.906
99.987	13.263	996.058	754.233
101.001	13.245	995.333	753.535
102.016	13.119	994.495	752.256
103.030	13.283	993.682	752.325
104.045	13.209	992.987	751.393
105.060	13.143	992.107	750.360
106.074	13.085	991.094	749.266
107.089	13.042	990.306	748.409
108.103	13.127	989.129	747.838
109.118	12.981	988.262	746.457
110.133	13.167	986.940	746.230
111.147	13.099	986.027	745.167
112.162	13.108	985.609	744.827
113.176	13.030	985.138	744.054
114.191	13.097	984.539	743.839
115.206	13.183	983.691	743.519
116.220	13.026	983.139	742.327
117.235	13.089	981.488	741.299
118.249	13.162	980.796	741.037
119.264	13.119	980.160	740.299
120.279	13.138	979.267	739.645
121.293	13.086	978.643	738.875
122.308	13.122	977.247	737.917
123.322	13.117	976.415	737.202
124.337	12.977	976.047	736.233
125.352	12.984	974.444	734.988
126.366	13.067	973.095	734.277
127.381	13.010	972.539	733.538
128.395	13.056	971.531	732.917
129.410	13.045	970.721	732.194
130.424	13.205	969.410	731.847
131.439	13.143	968.923	731.140
132.454	13.278	968.342	731.237
133.468	13.057	967.962	729.908
134.483	13.236	966.361	729.426
135.497	13.140	965.495	728.285
136.512	13.225	964.769	728.045
137.527	13.155	963.791	726.937
138.541	13.242	963.216	726.821
139.556	13.214	962.818	726.332
140.570	13.202	961.873	725.502
141.585	13.298	961.307	725.433
142.600	13.347	959.980	724.581
143.614	13.311	959.126	723.714
144.629	13.330	958.415	723.199
145.643	13.454	957.061	722.653
146.658	13.248	956.484	721.256
147.673	13.244	955.803	720.663
148.687	13.275	954.767	719.950
149.702	13.178	953.996	718.885
150.716	13.331	953.259	718.929
151.731	13.121	952.922	717.700
152.746	13.197	952.065	717.320
153.760	13.302	951.414	717.223
154.775	13.274	951.028	716.745
155.789	13.384	950.184	716.523
156.804	13.326	949.747	715.878
157.819	13.467	948.794	715.705
158.833	13.536	948.069	715.393
159.848	13.330	947.674	714.145
160.862	13.422	946.317	713.454
161.877	13.378	945.754	712.780
162.892	13.477	944.477	712.178
163.906	13.403	943.578	711.119
164.921	13.362	942.944	710.404
165.935	13.329	942.378	709.773
166.950	13.417	941.207	709.206
167.964	13.428	939.964	708.252
168.979	13.533	938.759	707.729
169.994	13.364	938.648	706.862
171.008	13.472	938.080	706.833
172.023	13.407	937.419	705.992
173.037	13.502	936.609	705.727
174.052	13.571	935.913	705.433
175.067	13.533	935.200	704.674
176.081	13.492	934.852	704.172
177.096	13.490	934.016	703.475
178.110	13.599	933.370	703.387
179.125	13.483	932.795	702.400
180.140	13.408	933.033	702.196
181.154	13.548	931.872	701.855
182.169	13.735	931.248	702.113
183.183	13.710	931.113	701.846
184.198	13.633	930.260	700.816
185.213	13.633	929.360	700.076
186.227	13.622	928.918	699.636
187.242	13.694	928.149	699.295
188.256	13.672	927.561	698.700
189.271	13.766	926.491	698.227
190.286	13.691	925.867	697.378
191.300	13.562	925.189	696.266
192.315	13.486	924.851	695.629
193.329	13.511	923.999	695.030
194.344	13.574	923.585	694.923
195.359	13.672	922.704	694.610
196.373	13.813	921.768	694.433
197.388	13.863	921.639	694.483
198.402	13.845	921.727	694.414
199.417	13.941	920.662	693.950
200.432	13.875	920.511	693.501
201.446	13.960	919.564	693.078
202.461	13.978	919.475	693.026
203.475	14.118	918.513	692.822
204.490	13.864	917.595	691.011
205.504	13.889	916.840	690.486
206.519	14.001	915.917	690.196
207.534	13.886	915.457	689.308
208.548	13.949	914.933	689.117
209.563	13.790	914.284	687.907
210.577	13.892	913.368	687.581
211.592	14.135	912.729	688.045
212.607	14.109	911.976	687.308
213.621	14.055	911.257	686.482
214.636	14.008	910.753	685.848
215.650	14.027	910.480	685.658
216.665	14.057	909.455	684.949
217.680	14.192	908.609	684.807
218.694	14.209	907.813	684.218
219.709	14.226	907.281	683.826
220.723	14.251	906.517	683.293
221.738	14.147	905.657	682.156
222.753	14.213	905.489	682.241
223.767	14.295	904.710	681.927
224.782	14.340	903.839	681.396
225.796	14.383	903.564	681.306
226.811	14.215	903.168	680.259
227.826	14.232	902.411	679.697
228.840	14.318	901.358	679.195
229.855	14.199	900.742	678.187
230.869	14.282	899.931	677.853
231.884	14.402	899.176	677.714
232.899	14.294	898.682	676.841
233.913	14.172	898.158	675.892
234.928	14.255	897.306	675.529
235.942	14.223	896.665	674.855
236.957	14.376	895.969	674.891
237.972	14.131	895.940	673.817
238.986	14.287	894.924	673.625
240.001	14.368	894.306	673.428
241.015	14.301	893.937	672.819
242.030	14.389	892.690	672.176
243.045	14.370	892.575	671.953
244.059	14.436	891.729	671.522
245.074	14.486	891.337	671.368
246.088	14.383	891.004	670.646
247.103	14.537	889.950	670.410
248.117	14.585	889.408	670.138
249.132	14.583	889.106	669.842
250.147	14.686	888.486	669.728
251.161	14.750	887.925	669.505
252.176	14.728	886.986	668.646
253.190	14.685	886.526	668.069
254.205	14.774	885.775	667.799
255.220	14.796	884.909	667.174
256.234	14.857	884.368	666.953
257.249	14.807	883.633	666.139
258.263	14.832	882.731	665.502
259.278	15.033	881.615	665.400
260.293	14.909	881.610	664.844
261.307	15.005	881.256	664.898
262.322	14.970	880.714	664.292
263.336	14.957	879.777	663.476
264.351	15.026	879.126	663.202
265.366	15.114	878.069	662.692
266.380	14.951	877.909	661.869
267.395	15.030	877.249	661.623
268.409	14.920	876.195	660.338
269.424	15.009	875.458	660.074
270.439	14.925	874.799	659.186
271.453	14.897	874.385	658.706
272.468	14.869	874.282	658.461
273.482	15.125	873.069	658.496
274.497	15.023	872.654	657.725
275.512	15.114	871.962	657.502
276.526	15.022	871.982	657.096
277.541	15.072	871.325	656.739
278.555	15.105	870.458	656.158
279.570	15.214	869.764	656.004
280.585	15.238	868.976	655.445
281.599	15.117	868.305	654.405
282.614	15.110	867.857	653.986
283.628	15.278	867.208	654.095
284.643	15.176	866.821	653.345
285.657	15.115	866.136	652.533
286.672	15.208	865.465	652.332
287.687	15.298	864.897	652.197
288.701	15.210	864.344	651.378
289.716	15.226	863.722	650.917
290.730	15.273	863.299	650.723
291.745	15.429	862.570	650.719
292.760	15.339	862.065	649.931
293.774	15.496	860.966	649.655
294.789	15.340	860.999	649.019
295.803	15.348	859.824	648.105
296.818	15.336	859.134	647.483
297.833	15.471	858.356	647.357
298.847	15.555	857.594	647.049
299.862	15.441	857.405	646.412
300.876	15.470	857.130	646.258
301.891	15.525	856.156	645.678
302.906	15.491	856.087	645.440
303.920	15.552	855.397	645.096
304.935	15.671	854.569	644.870
305.949	15.559	853.995	643.951
306.964	15.553	853.628	643.595
307.979	15.613	852.746	643.100
308.993	15.652	852.679	643.143
310.008	15.722	851.670	642.594
311.022	15.588	851.381	641.807
312.037	15.674	850.436	641.366
313.052	15.626	850.006	640.801
314.066	15.579	849.659	640.304
315.081	15.556	849.071	639.716
316.095	15.529	848.415	639.063
317.110	15.664	847.754	639.021
318.125	15.619	847.182	638.363
319.139	15.636	847.333	638.486
320.154	15.558	846.582	637.565
321.168	15.641	845.984	637.373
322.183	15.752	845.079	637.059
323.197	15.732	844.788	636.706
324.212	15.809	844.211	636.505
325.227	15.770	843.385	635.677
326.241	15.614	843.009	634.750
327.256	15.771	842.311	634.759
328.270	15.720	841.574	633.959
329.285	15.809	841.282	634.017
330.300	15.733	840.765	633.283
331.314	15.808	840.224	633.103
332.329	15.876	839.885	633.048
333.343	15.865	839.674	632.790
334.358	15.845	839.111	632.234
335.373	15.780	838.545	631.510
336.387	15.807	838.469	631.497
337.402	15.950	838.140	631.730
338.416	15.866	838.222	631.421
339.431	16.132	837.117	631.528
340.446	16.199	836.702	631.409
341.460	16.017	836.492	630.514
342.475	15.995	836.178	630.141
343.489	16.056	835.707	629.958
344.504	16.087	835.351	629.749
345.519	16.136	834.677	629.370
346.533	16.127	834.138	628.874
347.548	16.089	833.695	628.341
348.562	16.110	832.913	627.775
349.577	16.157	832.678	627.718
350.592	15.997	831.786	626.396
351.606	16.082	831.381	626.349
352.621	16.281	830.435	626.321
353.635	16.181	829.587	625.256
354.650	16.255	828.936	624.983
355.665	16.181	828.546	624.359
356.679	16.216	828.087	624.086
357.694	16.200	827.671	623.659
358.708	16.343	826.749	623.436
359.723	16.162	826.336	622.401
360.738	16.365	825.645	622.575
361.752	16.248	825.169	621.732
362.767	16.331	825.021	621.869
363.781	16.357	824.238	621.318
364.796	16.504	823.636	621.352
365.810	16.519	823.090	620.941
366.825	16.681	822.724	621.203
367.840	16.563	822.317	620.408
368.854	16.525	821.922	619.915
369.869	16.536	821.325	619.451
370.883	16.472	821.349	619.178
371.898	16.560	820.451	618.770
372.913	16.619	820.128	618.688
373.927	16.633	819.567	618.261
374.942	16.688	819.035	618.005
375.956	16.648	818.427	617.345
376.971	16.654	818.676	617.501
377.986	16.853	817.676	617.417
379.000	16.783	817.481	616.960
380.015	16.725	816.933	616.281
381.029	16.716	816.363	615.766
382.044	16.756	815.833	615.455
383.059	16.748	815.559	615.166
384.073	16.576	814.845	613.949
385.088	16.707	813.926	613.676
386.102	16.760	813.261	613.313
387.117	16.775	812.940	613.070
388.132	16.895	812.250	612.929
389.146	16.928	811.584	612.491
390.161	16.952	811.400	612.385
391.175	16.841	811.061	611.675
392.190	16.848	810.388	611.138
393.205	16.834	809.920	610.681
394.219	16.770	809.864	610.353
395.234	16.809	809.110	609.872
396.248	16.822	808.555	609.447
397.263	16.881	808.259	609.384
398.278	16.803	808.286	609.069
399.292	16.835	807.747	608.723
400.307	16.792	807.345	608.210
401.321	16.939	806.322	607.915
402.336	16.817	806.251	607.370
403.350	17.066	805.312	607.500
404.365	16.992	805.311	607.181
405.380	16.989	804.745	606.690
406.394	16.991	804.001	606.080
407.409	17.086	804.093	606.436
408.423	17.075	803.744	606.080
409.438	17.132	803.358	605.938
410.453	17.228	802.905	605.887
411.467	17.193	802.100	605.100
412.482	17.376	801.632	605.345
413.496	17.251	801.784	604.963
414.511	17.233	801.559	604.675
415.526	17.324	800.693	604.290
416.540	17.277	800.310	603.782
417.555	17.199	799.801	603.068
418.569	17.250	799.588	603.033
419.584	17.231	798.997	602.469
420.599	17.302	798.462	602.262
421.613	109.245	1292.710	1470.255
422.628	93.954	1364.700	1470.334
