DTS Sentinel unit serial number:	SN413079Multiplexer serial number:	ORYXHardware model number:	OX4-SRSoftware version number:	ORYX F/W v4.00 Oryx Data Collector v3.7.2.0data status	okinstallation	princeton_trtdifferential loss correction	single-endedforward channel	channel 1reverse channel	N/Adate	2019/09/14time	00:50:35forward acquisition time	60.00reverse acquisition time	0.00gamma	496.2192k internal	0.2337k external	0.2337temperature offset calibration	1.0074default loss term (dB/km)	0.3790temperature slope calibration	1.0000multiplexer offset coefficient	1.0000multiplexer slope coefficient	1.0000fibre end	0.00T internal ref (°C)	26.39T ext. ref 1 (°C)	3.18T ext. ref 2 (°C)	21.19length (m)	temperature (°C)	Stokes	anti-Stokes-747.200	37.769	-0.273	0.243
-746.185	-200.000	0.002	0.189
-745.171	-115.739	0.215	-0.040
-744.156	-200.000	-0.048	0.235
-743.142	-51.981	-0.254	-0.119
-742.127	-14.101	-0.133	-0.086
-741.112	52.959	0.148	-0.142
-740.098	-41.757	-0.176	-0.090
-739.083	136.628	-0.106	-0.138
-738.069	93.888	-0.166	-0.189
-737.054	242.224	-0.041	0.068
-736.039	-118.479	0.175	-0.031
-735.025	135.273	0.132	0.172
-734.010	604.221	-0.069	-0.172
-732.996	413.561	0.134	-0.286
-731.981	800.000	0.056	-0.174
-730.966	47.633	-0.146	0.136
-729.952	484.081	0.100	0.228
-728.937	-200.000	0.013	0.452
-727.923	800.000	0.065	-0.193
-726.908	-200.000	-0.015	-0.124
-725.894	-59.505	-0.288	-0.124
-724.879	51.604	-0.314	0.299
-723.864	-4.928	0.153	0.106
-722.850	-200.000	-0.011	-0.106
-721.835	-155.419	-0.255	0.017
-720.821	150.832	-0.137	-0.187
-719.806	-200.000	-0.007	0.187
-718.791	481.987	-0.073	0.166
-717.777	800.000	-0.100	0.388
-716.762	-83.989	0.140	-0.045
-715.748	235.249	-0.096	0.159
-714.733	184.314	0.114	0.170
-713.718	-200.000	0.011	-0.223
-712.704	-88.323	-0.371	-0.111
-711.689	-31.503	0.180	0.101
-710.675	19.034	0.269	0.216
-709.660	264.886	-0.167	0.292
-708.645	443.567	0.085	0.188
-707.631	800.000	0.056	-0.167
-706.616	49.574	0.116	0.110
-705.602	-99.027	-0.056	0.014
-704.587	-50.508	0.174	-0.082
-703.572	72.806	0.091	-0.095
-702.558	-117.071	0.331	-0.061
-701.543	800.000	0.114	-0.398
-700.529	-101.564	-0.033	-0.008
-699.514	272.204	0.022	-0.039
-698.499	-22.525	-0.114	-0.069
-697.485	800.000	0.040	-0.136
-696.470	97.009	0.162	-0.186
-695.456	-39.767	0.350	0.183
-694.441	110.863	-0.094	0.113
-693.426	-200.000	0.060	-0.292
-692.412	34.562	0.295	0.258
-691.397	35.947	0.086	0.076
-690.383	69.125	-0.195	0.201
-689.368	-10.393	0.171	-0.114
-688.354	800.000	-0.047	-0.176
-687.339	-37.149	0.356	0.191
-686.324	-94.164	0.198	0.054
-685.310	-149.057	-0.418	0.034
-684.295	-160.898	0.292	-0.015
-683.281	-46.946	-0.384	-0.188
-682.266	-78.807	-0.035	0.012
-681.251	231.831	-0.109	0.180
-680.237	-79.589	0.375	-0.127
-679.222	-87.860	0.055	-0.017
-678.208	-200.000	0.023	-0.198
-677.193	-200.000	-0.031	-0.446
-676.178	34.275	0.143	-0.125
-675.164	-57.286	0.131	0.058
-674.149	21.538	-0.411	-0.335
-673.135	-200.000	-0.043	-0.294
-672.120	45.962	0.080	0.075
-671.105	-32.344	0.093	-0.052
-670.091	-102.838	-0.252	-0.060
-669.076	-133.573	0.298	-0.037
-668.062	-122.196	0.215	-0.035
-667.047	-156.884	0.115	0.007
-666.032	-129.138	0.578	-0.081
-665.018	-200.000	-0.053	-0.580
-664.003	194.749	-0.172	-0.261
-662.989	-129.793	0.098	0.013
-661.974	44.483	0.170	-0.156
-660.959	-46.262	-0.029	-0.014
-659.945	123.154	-0.109	0.137
-658.930	-200.000	-0.003	0.160
-657.916	599.613	-0.131	0.325
-656.901	800.000	0.025	0.086
-655.886	17.876	0.180	0.144
-654.872	270.107	0.218	0.383
-653.857	-200.000	-0.056	-0.410
-652.843	-200.000	0.005	-0.200
-651.828	195.284	0.167	0.254
-650.814	-128.303	-0.337	-0.048
-649.799	-200.000	0.025	0.263
-648.784	-25.104	-0.218	-0.129
-647.770	744.232	0.095	-0.255
-646.755	181.585	0.052	0.077
-645.741	800.000	-0.033	0.119
-644.726	-118.261	0.150	0.027
-643.711	800.000	-0.003	0.010
-642.697	-200.000	-0.006	0.273
-641.682	113.866	-0.099	0.120
-640.668	17.071	-0.067	-0.053
-639.653	-51.689	-0.242	0.113
-638.638	74.526	0.268	-0.281
-637.624	-70.163	-0.356	-0.135
-636.609	-200.000	-0.059	0.323
-635.595	800.000	0.013	-0.044
-634.580	306.013	0.097	-0.180
-633.565	265.864	0.098	-0.172
-632.551	513.815	0.021	-0.050
-631.536	800.000	0.060	-0.188
-630.522	10.833	-0.086	0.066
-629.507	-61.695	0.171	-0.072
-628.492	132.828	-0.067	-0.086
-627.478	0.746	0.316	-0.226
-626.463	85.454	-0.114	0.125
-625.449	-200.000	0.022	-0.120
-624.434	125.775	0.094	-0.118
-623.419	-144.864	-0.286	0.026
-622.405	-29.422	0.240	0.137
-621.390	304.264	-0.112	0.208
-620.376	-143.380	-0.541	0.052
-619.361	3.529	0.122	-0.089
-618.346	509.036	-0.124	-0.288
-617.332	410.591	-0.144	-0.305
-616.317	-200.000	-0.009	0.210
-615.303	-46.316	-0.236	0.116
-614.288	51.751	-0.055	-0.053
-613.273	338.358	-0.098	-0.191
-612.259	116.829	-0.104	-0.128
-611.244	324.004	-0.086	-0.163
-610.230	505.116	0.041	-0.095
-609.215	800.000	-0.111	-0.329
-608.201	-60.235	0.185	-0.079
-607.186	357.707	-0.052	0.103
-606.171	-142.143	-0.270	-0.027
-605.157	-112.291	-0.310	0.062
-604.142	-35.342	0.347	-0.188
-603.128	109.115	-0.230	0.275
-602.113	-71.783	-0.121	0.045
-601.098	57.893	-0.147	0.144
-600.084	-45.228	-0.214	0.106
-599.069	-200.000	-0.056	-0.327
-598.055	-200.000	0.038	-0.178
-597.040	345.986	0.189	0.372
-596.025	-47.660	-0.250	0.121
-595.011	791.716	0.075	0.206
-593.996	-137.215	-0.125	-0.014
-592.982	800.000	0.027	0.111
-591.967	-41.347	0.195	0.100
-590.952	-73.229	0.031	-0.011
-589.938	-46.663	0.409	-0.200
-588.923	76.837	-0.105	-0.111
-587.909	704.242	-0.130	0.342
-586.894	293.667	0.146	-0.266
-585.879	68.257	-0.186	0.190
-584.865	-70.367	0.129	0.049
-583.850	-18.595	0.201	-0.125
-582.836	-8.651	0.184	-0.123
-581.821	46.041	0.162	0.150
-580.806	-183.489	-0.269	0.005
-579.792	168.525	-0.102	0.146
-578.777	-62.182	-0.204	0.085
-577.763	-200.000	0.063	-0.365
-576.748	-48.796	-0.164	-0.079
-575.733	800.000	-0.050	0.159
-574.719	716.482	0.111	-0.293
-573.704	163.840	0.130	0.183
-572.690	-36.149	-0.075	-0.040
-571.675	143.765	0.107	0.142
-570.661	151.637	-0.074	-0.101
-569.646	800.000	-0.058	-0.198
-568.631	123.364	-0.123	-0.154
-567.617	800.000	-0.039	-0.141
-566.602	-89.147	0.087	0.026
-565.588	-140.919	-0.250	-0.026
-564.573	-140.751	0.129	-0.013
-563.558	800.000	0.120	-0.479
-562.544	-34.708	-0.212	-0.115
-561.529	170.006	0.145	-0.206
-560.515	226.909	0.067	-0.108
-559.500	-94.411	-0.049	0.013
-558.485	542.770	0.096	0.227
-557.471	318.772	0.210	-0.396
-556.456	-95.355	-0.238	-0.064
-555.442	-200.000	0.050	-0.284
-554.427	329.142	-0.014	-0.027
-553.412	125.573	0.093	-0.117
-552.398	233.425	0.069	0.113
-551.383	-25.356	0.249	0.147
-550.369	-102.042	-0.257	-0.062
-549.354	-101.506	0.333	-0.081
-548.339	-86.642	-0.076	0.023
-547.325	237.444	-0.048	-0.080
-546.310	-85.646	-0.257	-0.079
-545.296	-134.589	0.249	-0.030
-544.281	-17.724	0.301	-0.188
-543.266	800.000	0.054	-0.228
-542.252	-200.000	0.026	-0.413
-541.237	402.096	-0.050	0.106
-540.223	279.546	-0.111	0.198
-539.208	-200.000	-0.037	0.258
-538.193	800.000	0.142	0.391
-537.179	-109.187	0.275	-0.058
-536.164	-200.000	-0.057	0.324
-535.150	-98.049	-0.213	0.055
-534.135	23.714	0.205	-0.168
-533.121	-146.975	-0.225	0.019
-532.106	33.060	-0.224	-0.194
-531.091	771.674	-0.068	-0.183
-530.077	-111.651	-0.288	0.058
-529.062	137.483	-0.177	0.231
-528.048	115.923	-0.224	0.273
-527.033	-123.095	-0.074	0.012
-526.018	338.602	0.142	0.274
-525.004	-111.874	0.333	-0.067
-523.989	115.415	0.118	-0.143
-522.975	-52.966	-0.339	0.155
-521.960	442.316	0.176	0.384
-520.945	800.000	0.091	0.319
-519.931	291.902	0.124	-0.224
-518.916	-95.244	0.423	-0.114
-517.902	-103.978	-0.325	0.075
-516.887	73.812	0.163	0.170
-515.872	-69.593	-0.065	-0.025
-514.858	-41.346	0.105	-0.054
-513.843	800.000	-0.079	-0.258
-512.829	239.587	0.054	0.090
-511.814	800.000	-0.062	0.193
-510.799	125.314	-0.089	0.112
-509.785	214.730	-0.214	0.337
-508.770	-49.288	-0.142	0.067
-507.756	77.379	-0.054	0.058
-506.741	54.241	-0.228	0.218
-505.726	-200.000	0.029	-0.410
-504.712	620.492	-0.065	-0.162
-503.697	-48.316	-0.092	0.044
-502.683	-76.135	0.228	0.080
-501.668	800.000	0.058	-0.251
-500.653	-114.139	-0.099	-0.019
-499.639	-137.962	-0.084	-0.009
-498.624	107.355	0.220	0.260
-497.610	44.289	0.120	0.110
-496.595	633.150	-0.136	0.342
-495.581	-109.845	0.315	0.066
-494.566	104.196	0.195	-0.228
-493.551	-200.000	0.035	0.227
-492.537	-27.557	0.100	-0.058
-491.522	720.715	-0.114	0.300
-490.508	-128.305	0.212	0.030
-489.493	97.894	0.058	0.066
-488.478	800.000	0.057	0.199
-487.464	-118.487	0.184	-0.032
-486.449	120.184	0.161	-0.199
-485.435	-56.243	0.037	-0.016
-484.420	-167.756	-0.107	-0.004
-483.405	197.794	-0.171	-0.260
-482.391	205.028	-0.177	0.273
-481.376	-200.000	-0.007	-0.274
-480.362	241.736	0.083	-0.138
-479.347	-200.000	0.013	0.123
-478.332	-47.421	0.114	0.055
-477.318	-176.248	0.167	0.004
-476.303	91.061	0.124	0.138
-475.289	-58.989	-0.341	-0.147
-474.274	-39.132	0.211	0.110
-473.259	121.626	-0.194	0.240
-472.245	45.995	-0.132	-0.121
-471.230	-124.734	0.108	0.017
-470.216	-200.000	0.062	-0.507
-469.201	220.802	-0.239	0.381
-468.186	-50.537	-0.432	-0.202
-467.172	-47.497	0.221	0.107
-466.157	-97.317	-0.098	0.025
-465.143	-200.000	-0.017	-0.075
-464.128	155.034	-0.140	0.191
-463.113	-200.000	0.026	0.274
-462.099	800.000	-0.055	-0.151
-461.084	45.686	0.127	-0.116
-460.070	-78.454	0.216	0.073
-459.055	545.493	-0.121	0.287
-458.040	197.246	-0.166	0.252
-457.026	-200.000	-0.017	0.182
-456.011	-49.252	-0.092	0.043
-454.997	-27.830	0.128	0.074
-453.982	-200.000	-0.021	0.145
-452.968	800.000	0.020	0.080
-451.953	-130.959	-0.504	0.067
-450.938	102.622	-0.212	-0.246
-449.924	-200.000	-0.025	-0.141
-448.909	-200.000	-0.022	0.242
-447.895	-144.914	0.381	0.035
-446.880	336.284	0.127	0.244
-445.865	-193.561	-0.376	0.003
-444.851	66.628	0.177	0.179
-443.836	40.007	0.292	0.260
-442.822	170.282	-0.064	0.091
-441.807	-200.000	-0.004	0.023
-440.792	-132.624	0.162	0.021
-439.778	41.800	-0.074	0.067
-438.763	-25.833	0.195	-0.114
-437.749	192.439	-0.082	-0.122
-436.734	-23.399	-0.214	-0.128
-435.719	-89.963	-0.105	0.031
-434.705	-71.896	-0.029	0.011
-433.690	-149.412	-0.161	0.013
-432.676	-200.000	-0.049	-0.340
-431.661	800.000	-0.044	-0.151
-430.646	-200.000	0.031	0.182
-429.632	-200.000	-0.014	-0.099
-428.617	554.275	-0.088	0.210
-427.603	-118.922	0.049	-0.009
-426.588	213.333	-0.179	0.281
-425.573	800.000	-0.091	-0.250
-424.559	57.935	-0.106	-0.103
-423.544	56.099	-0.330	0.317
-422.530	-115.993	-0.177	0.033
-421.515	82.847	-0.152	-0.164
-420.500	-68.441	-0.058	0.022
-419.486	-14.813	-0.141	-0.090
-418.471	-23.016	0.048	0.029
-417.457	-60.290	-0.153	0.065
-416.442	680.120	0.050	-0.128
-415.428	-186.039	0.301	0.004
-414.413	321.422	0.204	-0.385
-413.398	-136.620	-0.305	0.035
-412.384	347.275	-0.087	0.171
-411.369	-200.000	-0.040	-0.291
-410.355	203.050	0.055	-0.084
-409.340	-67.324	0.293	0.114
-408.325	-95.252	-0.154	0.041
-407.311	-120.961	0.165	0.027
-406.296	-200.000	-0.092	-0.403
-405.282	-200.000	-0.024	0.111
-404.267	-94.384	0.265	0.072
-403.252	-200.000	-0.046	-0.346
-402.238	-114.076	0.354	0.068
-401.223	-19.093	0.326	0.201
-400.209	-76.736	0.321	0.111
-399.194	-30.715	0.080	-0.045
-398.179	646.107	-0.123	-0.312
-397.165	-140.383	0.180	0.019
-396.150	-104.930	-0.408	-0.093
-395.136	118.821	-0.040	0.049
-394.121	274.409	-0.172	-0.302
-393.106	158.870	-0.153	-0.211
-392.092	-74.198	0.285	0.102
-391.077	-44.974	-0.300	-0.148
-390.063	-120.599	-0.247	-0.041
-389.048	-145.485	0.159	0.014
-388.033	-42.765	0.142	-0.071
-387.019	800.000	-0.020	0.085
-386.004	6.705	0.206	0.151
-384.990	-146.124	-0.363	0.032
-383.975	-140.904	0.189	-0.019
-382.960	237.120	-0.150	-0.247
-381.946	-22.101	-0.184	0.111
-380.931	-38.864	0.257	-0.134
-379.917	800.000	0.035	0.133
-378.902	800.000	-0.086	0.241
-377.888	57.026	0.033	0.032
-376.873	20.655	-0.130	-0.104
-375.858	32.794	-0.027	-0.023
-374.844	300.809	0.161	-0.293
-373.829	-94.598	0.023	0.006
-372.815	-18.668	-0.049	0.030
-371.800	-200.000	0.014	0.164
-370.785	11.543	0.059	-0.045
-369.771	-200.000	-0.032	-0.174
-368.756	207.953	-0.102	0.157
-367.742	-96.122	0.156	0.041
-366.727	247.303	-0.056	-0.093
-365.712	283.064	-0.213	-0.378
-364.698	-148.243	0.267	-0.022
-363.683	347.088	-0.109	0.212
-362.669	-200.000	-0.062	-0.296
-361.654	-47.161	0.123	-0.060
-360.639	-200.000	0.001	-0.029
-359.625	800.000	-0.026	-0.073
-358.610	-144.585	-0.235	0.021
-357.596	-200.000	0.054	0.282
-356.581	408.669	-0.142	-0.297
-355.566	-117.158	0.227	0.041
-354.552	-200.000	0.053	-0.320
-353.537	-21.938	-0.281	-0.169
-352.523	800.000	0.167	0.511
-351.508	-42.946	0.507	0.255
-350.493	124.071	0.086	-0.106
-349.479	-55.161	0.112	-0.050
-348.464	360.845	0.064	0.126
-347.450	41.131	-0.199	-0.178
-346.435	-83.012	-0.069	-0.022
-345.420	-78.551	-0.181	0.061
-344.406	-167.261	-0.370	-0.015
-343.391	194.066	0.075	-0.112
-342.377	-121.226	0.079	0.013
-341.362	-124.328	-0.223	-0.034
-340.348	-150.703	0.080	0.006
-339.333	-200.000	-0.029	0.463
-338.318	800.000	-0.084	-0.292
-337.304	24.610	-0.159	0.130
-336.289	-129.399	-0.261	0.036
-335.275	122.160	-0.115	-0.143
-334.260	79.322	0.232	-0.245
-333.245	41.489	-0.126	-0.113
-332.231	-117.295	-0.112	0.020
-331.216	-29.727	0.052	0.029
-330.202	155.898	-0.174	-0.237
-329.187	-200.000	0.024	-0.220
-328.172	-200.000	0.021	0.226
-327.158	-200.000	0.003	-0.333
-326.143	67.843	-0.052	-0.053
-325.129	-79.413	-0.179	0.060
-324.114	-110.837	0.173	-0.035
-323.099	800.000	-0.155	0.458
-322.085	-86.851	-0.173	-0.052
-321.070	-28.710	0.333	-0.189
-320.056	-142.617	-0.087	-0.008
-319.041	25.758	0.227	0.187
-318.026	-141.803	0.149	-0.015
-317.012	-200.000	-0.015	-0.391
-315.997	-60.505	-0.171	0.072
-314.983	-48.358	0.155	-0.074
-313.968	-200.000	0.001	-0.140
-312.953	-64.355	-0.037	-0.015
-311.939	-108.420	0.458	0.097
-310.924	35.011	-0.184	-0.159
-309.910	226.087	0.130	-0.207
-308.895	-192.606	0.436	-0.004
-307.880	725.601	-0.071	-0.186
-306.866	-200.000	0.026	-0.144
-305.851	-91.012	-0.079	-0.022
-304.837	4.987	-0.201	-0.146
-303.822	-85.351	-0.243	0.075
-302.807	-96.236	0.309	-0.081
-301.793	41.945	0.165	-0.148
-300.778	-38.629	-0.153	0.080
-299.764	-36.591	0.478	0.253
-298.749	29.131	-0.189	0.158
-297.735	-200.000	-0.013	-0.068
-296.720	195.387	-0.164	0.246
-295.705	140.242	0.106	0.138
-294.691	-96.800	0.373	0.097
-293.676	253.282	0.072	-0.122
-292.662	38.081	0.217	-0.191
-291.647	131.643	0.175	0.222
-290.632	-200.000	0.005	-0.473
-289.618	287.175	-0.054	-0.096
-288.603	11.884	-0.149	0.113
-287.589	100.822	-0.175	-0.201
-286.574	-60.394	-0.237	-0.099
-285.559	-154.878	-0.353	0.023
-284.545	-200.000	0.064	0.330
-283.530	-200.000	0.080	0.382
-282.516	44.443	0.174	0.158
-281.501	-106.216	0.158	0.035
-280.486	135.793	0.238	-0.305
-279.472	-22.283	0.152	0.091
-278.457	-99.086	0.335	-0.084
-277.443	43.991	0.174	0.158
-276.428	55.427	0.180	0.172
-275.413	51.113	-0.236	0.221
-274.399	255.349	-0.089	-0.150
-273.384	-68.904	0.270	0.103
-272.370	115.111	0.196	-0.236
-271.355	-133.211	-0.223	-0.028
-270.340	-200.000	0.011	-0.054
-269.326	88.410	0.013	-0.014
-268.311	800.000	-0.039	-0.123
-267.297	-10.589	0.189	-0.123
-266.282	-68.257	0.218	0.083
-265.267	80.929	-0.185	-0.196
-264.253	800.000	0.102	-0.345
-263.238	-49.582	0.206	0.097
-262.224	-145.432	0.130	-0.012
-261.209	-169.307	0.125	0.005
-260.195	-200.000	-0.028	-0.210
-259.180	270.558	-0.135	0.234
-258.165	800.000	-0.059	0.201
-257.151	-200.000	-0.013	-0.091
-256.136	-200.000	0.001	0.412
-255.122	184.822	-0.107	0.156
-254.107	12.173	-0.198	0.150
-253.092	44.010	-0.155	0.140
-252.078	-200.000	0.010	-0.052
-251.063	-122.186	0.279	-0.045
-250.049	74.489	0.139	0.144
-249.034	243.972	-0.091	-0.150
-248.019	-9.601	0.095	0.062
-247.005	-52.731	-0.105	-0.048
-245.990	41.038	0.312	0.277
-244.976	-99.492	-0.332	0.082
-243.961	20.779	-0.107	0.086
-242.946	60.595	0.279	0.272
-241.932	-123.751	-0.135	0.021
-240.917	-200.000	-0.050	0.235
-239.903	-86.672	0.165	-0.050
-238.888	-165.098	-0.029	0.001
-237.873	-104.125	-0.370	-0.085
-236.859	-200.000	-0.004	0.252
-235.844	115.687	-0.054	-0.065
-234.830	768.890	-0.077	-0.207
-233.815	-56.477	0.186	0.081
-232.800	800.000	-0.040	0.115
-231.786	-39.704	0.225	0.116
-230.771	-142.010	-0.357	-0.035
-229.757	73.956	0.072	-0.075
-228.742	248.399	-0.045	-0.075
-227.727	5.394	-0.219	0.159
-226.713	127.562	0.113	-0.142
-225.698	800.000	0.096	-0.296
-224.684	12.946	-0.168	-0.128
-223.669	138.549	-0.222	-0.287
-222.655	711.250	0.024	-0.063
-221.640	85.852	0.274	0.296
-220.625	-200.000	0.008	0.350
-219.611	679.383	0.061	0.155
-218.596	254.024	0.120	-0.201
-217.582	-67.533	-0.027	-0.010
-216.567	-200.000	0.010	0.109
-215.552	-140.908	-0.166	0.017
-214.538	276.020	0.104	-0.181
-213.523	33.013	-0.086	-0.074
-212.509	300.889	-0.134	0.243
-211.494	-200.000	-0.111	-0.620
-210.479	-9.163	-0.319	-0.210
-209.465	-91.862	0.165	0.046
-208.450	-114.137	0.100	0.019
-207.436	-130.308	-0.373	-0.050
-206.421	-11.364	0.125	0.081
-205.406	800.000	-0.021	0.058
-204.392	192.529	0.084	-0.124
-203.377	74.027	0.098	-0.101
-202.363	-117.330	0.210	0.037
-201.348	178.030	-0.177	-0.254
-200.333	-65.250	-0.209	0.083
-199.319	-200.000	-0.035	0.154
-198.304	31.132	0.188	-0.158
-197.290	208.012	-0.216	0.332
-196.275	125.048	-0.048	-0.060
-195.260	-149.152	0.183	0.014
-194.246	800.000	-0.082	-0.294
-193.231	-200.000	-0.050	-0.434
-192.217	-138.208	0.518	0.056
-191.202	59.129	-0.126	-0.122
-190.187	-200.000	-0.000	-0.105
-189.173	316.243	0.088	-0.164
-188.158	-123.580	-0.293	-0.046
-187.144	-11.312	-0.060	0.039
-186.129	-200.000	0.027	0.332
-185.114	64.807	0.219	0.217
-184.100	134.888	0.053	0.067
-183.085	-140.217	0.271	0.028
-182.071	-200.000	-0.014	-0.069
-181.056	800.000	0.055	0.221
-180.042	-200.000	0.003	-0.028
-179.027	154.311	-0.041	-0.055
-178.012	-200.000	0.007	0.075
-176.998	-200.000	-0.025	0.293
-175.983	123.248	0.091	0.111
-174.969	73.418	0.247	0.254
-173.954	26.061	-0.193	0.158
-172.939	-69.077	0.300	0.113
-171.925	-200.000	0.075	-0.379
-170.910	85.821	0.149	0.161
-169.896	-32.960	-0.416	-0.227
-168.881	-21.374	0.144	-0.086
-167.866	26.507	0.246	0.202
-166.852	354.579	0.067	0.130
-165.837	-200.000	-0.003	-0.325
-164.823	-148.861	-0.318	0.025
-163.808	-200.000	-0.032	0.588
-162.793	-15.989	0.177	0.111
-161.779	800.000	0.125	0.368
-160.764	189.637	0.114	-0.168
-159.750	59.085	0.148	0.143
-158.735	-20.720	0.039	0.023
-157.720	152.594	0.245	0.329
-156.706	800.000	-0.083	-0.311
-155.691	-164.262	0.334	-0.015
-154.677	0.661	0.260	0.183
-153.662	-20.572	-0.318	0.192
-152.647	800.000	-0.082	0.272
-151.633	-31.489	-0.048	0.026
-150.618	-50.129	0.281	-0.131
-149.604	108.798	0.241	-0.282
-148.589	-107.717	-0.236	-0.051
-147.574	-87.479	0.417	0.124
-146.560	-200.000	-0.030	0.261
-145.545	-200.000	-0.037	-0.185
-144.531	108.819	0.104	-0.122
-143.516	13.239	0.138	0.105
-142.502	361.039	-0.101	-0.199
-141.487	-200.000	-0.040	0.210
-140.472	-43.687	-0.186	0.092
-139.458	110.047	0.089	-0.105
-138.443	800.000	0.084	0.304
-137.429	16.558	0.265	-0.205
-136.414	597.737	0.165	0.401
-135.399	-200.000	-0.046	0.267
-134.385	-48.948	-0.187	-0.088
-133.370	-74.853	0.190	0.067
-132.356	800.000	-0.059	0.243
-131.341	101.256	0.127	-0.145
-130.326	-14.370	-0.210	-0.132
-129.312	-85.816	0.101	0.031
-128.297	571.571	0.151	0.359
-127.283	-88.610	-0.178	0.052
-126.268	-127.295	0.215	0.031
-125.253	-130.588	-0.254	0.034
-124.239	800.000	-0.085	0.256
-123.224	65.231	-0.009	-0.009
-122.210	800.000	0.164	-0.477
-121.195	154.702	0.122	0.165
-120.180	-200.000	0.096	0.473
-119.166	51.937	-0.214	-0.199
-118.151	-29.192	0.171	0.096
-117.137	-29.422	-0.198	0.111
-116.122	79.126	0.178	0.187
-115.107	-200.000	-0.038	0.201
-114.093	-100.472	-0.330	0.080
-113.078	-200.000	0.006	0.146
-112.064	243.191	-0.161	0.264
-111.049	800.000	-0.156	0.435
-110.034	201.657	0.247	0.373
-109.020	47.962	0.038	-0.035
-108.005	-200.000	-0.137	-0.000
-106.991	64.902	0.151	-0.150
-105.976	204.298	0.077	0.116
-104.962	800.000	0.121	-0.363
-103.947	-200.000	-0.057	-0.285
-102.932	395.077	0.066	-0.134
-101.918	236.950	0.037	0.060
-100.903	800.000	0.107	-0.321
-99.889	800.000	-0.049	0.202
-98.874	-132.600	-0.222	0.028
-97.859	800.000	0.083	-0.277
-96.845	223.957	0.298	0.471
-95.830	-200.000	-0.019	0.154
-94.816	-200.000	0.046	0.335
-93.801	179.186	-0.209	0.300
-92.786	800.000	-0.021	0.057
-91.772	-200.000	0.026	0.278
-90.757	-67.371	0.131	-0.050
-89.743	6.338	-0.144	-0.104
-88.728	-82.039	0.211	-0.067
-87.713	-117.068	-0.436	0.078
-86.699	-28.457	0.440	0.248
-85.684	-97.431	-0.385	0.098
-84.670	-45.952	-0.418	0.202
-83.655	800.000	-0.055	0.197
-82.640	281.741	-0.104	-0.182
-81.626	461.925	-0.053	0.116
-80.611	39.837	0.129	-0.113
-79.597	-69.528	0.268	-0.100
-78.582	8.344	-0.185	-0.136
-77.567	106.800	-0.105	0.121
-76.553	-200.000	0.002	-0.071
-75.538	9.658	-0.190	0.141
-74.524	-107.625	0.132	-0.028
-73.509	-93.162	0.404	-0.110
-72.494	389.339	0.111	0.226
-71.480	-200.000	0.002	0.153
-70.465	72.742	-0.220	0.225
-69.451	-46.428	0.230	0.111
-68.436	-200.000	0.043	0.285
-67.422	-200.000	-0.018	0.151
-66.407	-23.946	0.033	-0.019
-65.392	-18.864	0.551	-0.336
-64.378	-200.000	0.032	-0.385
-63.363	99.818	0.174	0.197
-62.349	-9.112	-0.146	0.095
-61.334	133.329	-0.970	-1.225
-60.319	-15.980	0.561	0.349
-59.305	499.776	-0.360	-0.812
-58.290	96.085	1.092	1.220
-57.276	800.000	0.616	1.829
-56.261	-200.000	116.576	642.267
-55.246	496.195	1540.845	3461.718
-54.232	176.131	2707.868	3842.304
-53.217	104.764	2149.787	2476.047
-52.203	37.959	1584.055	1376.151
-51.188	29.871	1327.225	1104.927
-50.173	26.951	1288.521	1055.710
-49.159	52.102	1347.919	1254.956
-48.144	50.739	1360.894	1258.880
-47.130	29.828	1314.657	1094.038
-46.115	26.503	1296.867	1059.756
-45.100	26.233	1292.097	1054.240
-44.086	26.335	1288.983	1052.248
-43.071	26.145	1287.134	1049.598
-42.057	26.167	1284.888	1047.847
-41.042	26.251	1283.057	1046.799
-40.027	26.265	1282.079	1046.041
-39.013	26.269	1279.583	1043.987
-37.998	26.190	1278.332	1042.469
-36.984	26.392	1275.876	1041.592
-35.969	26.400	1274.351	1040.348
-34.954	26.330	1272.876	1038.700
-33.940	26.392	1271.597	1037.973
-32.925	26.453	1270.434	1037.332
-31.911	26.373	1268.482	1035.242
-30.896	26.481	1267.004	1034.609
-29.881	26.438	1265.624	1033.198
-28.867	26.577	1264.414	1032.963
-27.852	26.469	1263.128	1031.254
-26.838	26.513	1261.615	1030.225
-25.823	26.507	1260.339	1029.113
-24.809	26.463	1259.161	1027.856
-23.794	26.499	1257.386	1026.574
-22.779	26.444	1256.434	1025.445
-21.765	26.464	1255.314	1024.602
-20.750	26.533	1254.119	1023.975
-19.736	26.455	1252.704	1022.341
-18.721	26.390	1251.606	1021.035
-17.706	26.369	1250.386	1019.884
-16.692	26.374	1249.050	1018.777
-15.677	26.369	1248.032	1017.882
-14.663	26.344	1246.755	1016.655
-13.648	26.290	1245.950	1015.658
-12.633	26.370	1244.552	1014.929
-11.619	26.223	1244.347	1013.893
-10.604	26.411	1243.140	1013.923
-9.590	26.337	1241.905	1012.465
-8.575	26.372	1240.984	1011.867
-7.560	26.430	1240.254	1011.558
-6.546	26.262	1239.958	1010.332
-5.531	26.328	1238.386	1009.384
-4.517	26.216	1238.065	1008.457
-3.502	26.290	1237.165	1008.094
-2.487	26.342	1236.104	1007.483
-1.473	26.265	1232.255	1003.875
-0.458	24.808	1217.462	983.779
0.556	21.727	1200.891	948.101
1.571	18.045	1206.897	932.701
2.586	17.242	1221.745	939.652
3.600	16.855	1209.683	928.177
4.615	12.767	1139.007	852.752
5.629	6.034	1068.874	767.372
6.644	3.406	1050.891	741.759
7.659	3.000	1049.077	738.462
8.673	3.105	1047.906	738.081
9.688	3.200	1046.785	737.678
10.702	3.208	1044.565	736.086
11.717	7.027	1049.279	757.662
12.731	14.382	1059.657	800.547
13.746	18.860	1065.317	826.333
14.761	19.645	1065.695	830.328
15.775	18.867	1064.190	825.345
16.790	17.847	1062.009	818.690
17.804	17.150	1060.480	814.103
18.819	16.857	1059.510	811.880
19.834	16.669	1058.936	810.469
20.848	16.493	1058.292	809.064
21.863	16.247	1057.752	807.403
22.877	16.138	1056.441	805.811
23.892	16.171	1055.992	805.553
24.907	16.162	1055.324	804.927
25.921	16.175	1053.937	803.863
26.936	16.264	1052.571	803.170
27.950	16.285	1051.025	802.019
28.965	16.258	1050.214	801.201
29.980	16.403	1048.641	800.621
30.994	16.490	1047.737	800.271
32.009	16.554	1046.432	799.507
33.023	16.482	1045.293	798.226
34.038	16.319	1044.527	796.801
35.053	16.352	1043.319	795.964
36.067	16.398	1042.258	795.300
37.082	16.332	1041.863	794.618
38.096	16.380	1041.139	794.219
39.111	16.454	1040.037	793.655
40.126	16.221	1039.208	791.863
41.140	16.065	1037.594	789.829
42.155	15.949	1036.129	788.101
43.169	16.007	1035.115	787.532
44.184	15.970	1034.279	786.655
45.199	15.980	1033.466	786.013
46.213	16.018	1032.353	785.272
47.228	16.290	1031.306	785.673
48.242	16.239	1030.266	784.574
49.257	16.172	1029.825	783.857
50.271	16.323	1028.794	783.704
51.286	16.414	1028.059	783.498
52.301	16.223	1027.177	781.870
53.315	16.065	1026.084	780.239
54.330	16.124	1024.515	779.251
55.344	15.997	1024.215	778.366
56.359	16.056	1023.552	778.067
57.374	16.050	1022.191	776.934
58.388	16.086	1020.897	776.048
59.403	15.849	1020.724	774.757
60.417	15.916	1019.831	774.318
61.432	15.889	1019.147	773.606
62.447	15.850	1018.021	772.506
63.461	15.726	1017.709	771.630
64.476	15.872	1016.012	770.944
65.490	15.806	1015.932	770.514
66.505	15.885	1014.975	770.082
67.520	15.800	1014.415	769.201
68.534	16.017	1013.766	769.628
69.549	15.883	1012.711	768.151
70.563	15.841	1012.224	767.523
71.578	15.751	1011.021	766.131
72.593	15.658	1010.796	765.469
73.607	15.665	1009.826	764.699
74.622	15.746	1008.825	764.239
75.636	15.789	1008.075	763.802
76.651	15.833	1007.482	763.482
77.666	15.615	1007.054	762.101
78.680	15.880	1006.206	762.594
79.695	15.781	1005.988	761.912
80.709	15.920	1005.296	761.952
81.724	16.109	1004.721	762.304
82.739	16.175	1003.978	761.970
83.753	16.196	1003.327	761.504
84.768	16.382	1002.626	761.743
85.782	16.589	1002.020	762.147
86.797	16.437	1001.157	760.738
87.812	16.185	999.933	758.606
88.826	16.432	998.451	758.525
89.841	16.434	997.705	757.900
90.855	16.599	996.791	757.877
91.870	16.521	996.522	757.259
92.884	16.481	995.381	756.147
93.899	16.482	994.593	755.485
94.914	16.569	993.810	755.212
95.928	16.398	993.322	754.008
96.943	16.366	991.773	752.623
97.957	16.488	990.906	752.444
98.972	16.393	990.200	751.418
99.987	16.289	989.509	750.367
101.001	16.442	988.207	749.992
102.016	16.301	987.419	748.699
103.030	16.497	986.976	749.167
104.045	16.404	986.401	748.254
105.060	16.209	985.558	746.683
106.074	16.027	984.233	744.810
107.089	15.998	983.210	743.840
108.103	15.987	982.034	742.838
109.118	15.940	981.138	741.885
110.133	15.846	980.362	740.821
111.147	15.993	978.859	740.268
112.162	15.878	979.117	739.892
113.176	16.153	978.224	740.357
114.191	16.148	977.411	739.654
115.206	16.140	976.573	738.919
116.220	16.025	975.755	737.730
117.235	16.003	974.966	736.975
118.249	16.028	973.807	736.141
119.264	16.006	973.340	735.627
120.279	15.915	972.180	734.287
121.293	15.962	970.905	733.467
122.308	15.850	970.478	732.592
123.322	15.863	969.333	731.720
124.337	15.935	968.156	731.076
125.352	15.829	967.320	729.923
126.366	15.825	966.165	728.969
127.381	15.787	965.224	728.031
128.395	15.791	964.961	727.784
129.410	15.832	963.997	727.168
130.424	15.951	962.852	726.754
131.439	16.035	962.436	726.739
132.454	15.980	961.540	725.763
133.468	16.052	960.627	725.316
134.483	16.131	960.128	725.214
135.497	16.107	959.065	724.248
136.512	16.077	958.089	723.317
137.527	16.141	957.687	723.225
138.541	16.111	956.704	722.290
139.556	16.246	955.909	722.200
140.570	16.155	955.831	721.690
141.585	16.382	954.745	721.777
142.600	16.425	953.873	721.236
143.614	16.440	953.432	720.904
144.629	16.460	952.757	720.417
145.643	16.610	951.665	720.164
146.658	16.415	950.139	718.116
147.673	16.266	949.357	716.830
148.687	16.347	948.166	716.211
149.702	16.159	947.967	715.200
150.716	16.135	946.817	714.167
151.731	16.175	946.086	713.723
152.746	16.265	945.550	713.637
153.760	16.306	944.701	713.104
154.775	16.404	944.213	713.088
155.789	16.396	943.771	712.656
156.804	16.369	942.896	711.817
157.819	16.464	942.686	711.997
158.833	16.556	941.510	711.433
159.848	16.635	940.809	711.173
160.862	16.509	939.892	709.887
161.877	16.259	938.769	707.926
162.892	16.166	937.468	706.495
163.906	16.113	936.864	705.757
164.921	16.206	936.236	705.608
165.935	16.378	935.230	705.505
166.950	16.405	934.359	704.900
167.964	16.478	933.501	704.494
168.979	16.225	933.044	703.032
169.994	16.320	932.136	702.683
171.008	16.472	931.200	702.545
172.023	16.544	930.806	702.486
173.037	16.777	929.477	702.385
174.052	16.550	929.214	701.182
175.067	16.319	928.446	699.585
176.081	16.344	927.618	699.004
177.096	16.285	927.261	698.427
178.110	16.330	926.573	698.034
179.125	16.383	926.478	698.121
180.140	16.244	926.163	697.246
181.154	16.552	925.167	697.706
182.169	16.456	925.270	697.328
183.183	16.710	924.503	697.732
184.198	16.766	923.506	697.148
185.213	16.697	922.913	696.356
186.227	16.718	922.166	695.819
187.242	16.750	922.009	695.768
188.256	16.832	921.245	695.467
189.271	16.688	920.652	694.366
190.286	16.543	919.261	692.663
191.300	16.148	918.879	690.696
192.315	16.278	917.783	690.342
193.329	16.224	917.578	689.908
194.344	16.410	917.319	690.412
195.359	16.362	916.616	689.623
196.373	16.601	916.266	690.278
197.388	16.881	915.548	690.817
198.402	16.988	914.718	690.566
199.417	16.818	914.752	689.837
200.432	17.075	913.933	690.204
201.446	17.097	913.666	690.027
202.461	17.288	912.730	690.037
203.475	17.078	912.454	688.913
204.490	16.829	911.672	687.255
205.504	16.906	910.248	686.430
206.519	16.920	909.415	685.798
207.534	16.699	909.138	684.635
208.548	16.788	908.508	684.459
209.563	16.860	908.059	684.352
210.577	17.014	907.511	684.500
211.592	17.039	906.802	684.004
212.607	17.031	906.240	683.488
213.621	17.219	905.071	683.301
214.636	17.065	904.509	682.200
215.650	16.942	904.077	681.319
216.665	17.056	903.644	681.388
217.680	17.276	902.624	681.444
218.694	17.154	901.935	680.374
219.709	17.227	901.311	680.135
220.723	17.139	900.487	679.101
221.738	17.174	899.800	678.664
222.753	17.153	899.271	678.120
223.767	17.154	898.926	677.805
224.782	17.385	898.305	678.196
225.796	17.366	898.142	677.936
226.811	17.292	897.361	676.993
227.826	17.266	896.484	676.168
228.840	17.136	895.504	674.853
229.855	17.142	894.801	674.286
230.869	17.144	894.028	673.651
231.884	17.091	893.519	672.998
232.899	17.060	892.920	672.366
233.913	16.927	892.243	671.271
234.928	16.898	891.157	670.278
235.942	16.962	890.980	670.342
236.957	17.081	890.553	670.431
237.972	16.947	889.761	669.245
238.986	17.108	889.096	669.322
240.001	17.145	888.556	669.000
241.015	17.227	887.925	668.791
242.030	17.273	887.558	668.636
243.045	17.292	886.505	667.855
244.059	17.270	886.111	667.414
245.074	17.295	885.644	667.103
246.088	17.311	885.130	666.719
247.103	17.529	884.209	666.819
248.117	17.729	883.809	667.243
249.132	17.725	883.825	667.177
250.147	17.794	883.037	666.796
251.161	17.952	882.175	666.703
252.176	18.018	881.559	666.436
253.190	17.966	881.116	665.838
254.205	18.016	880.779	665.719
255.220	17.958	880.071	664.901
256.234	17.997	879.578	664.621
257.249	18.020	878.580	663.894
258.263	17.922	877.710	662.799
259.278	17.963	877.027	662.385
260.293	17.911	876.903	662.031
261.307	18.103	876.243	662.217
262.322	18.062	875.816	661.676
263.336	18.229	874.524	661.289
264.351	18.249	874.079	660.969
265.366	18.028	873.847	659.884
266.380	17.946	872.861	658.765
267.395	18.095	871.923	658.573
268.409	17.973	871.195	657.492
269.424	18.177	870.167	657.443
270.439	17.961	869.624	656.145
271.453	17.924	869.006	655.480
272.468	17.721	869.158	654.759
273.482	17.940	868.327	654.912
274.497	17.828	867.867	654.078
275.512	17.910	867.408	653.989
276.526	18.008	866.627	653.716
277.541	18.050	865.946	653.305
278.555	18.182	865.790	653.637
279.570	18.336	865.141	653.676
280.585	18.280	864.110	652.624
281.599	18.173	863.449	651.659
282.614	18.049	863.146	650.903
283.628	18.118	862.207	650.399
284.643	18.188	861.825	650.319
285.657	18.163	860.918	649.484
286.672	18.056	860.438	648.657
287.687	18.145	859.652	648.343
288.701	18.360	859.054	648.649
289.716	18.183	858.819	647.744
290.730	18.178	858.141	647.156
291.745	18.330	857.744	647.377
292.760	18.406	856.769	646.870
293.774	18.612	856.200	647.159
294.789	18.489	855.512	646.119
295.803	18.246	854.670	644.510
296.818	18.207	854.122	643.892
297.833	18.102	854.210	643.508
298.847	18.315	853.184	643.480
299.862	18.340	852.826	643.246
300.876	18.295	852.276	642.604
301.891	18.562	851.289	642.805
302.906	18.593	851.137	642.751
303.920	18.618	850.485	642.295
304.935	18.771	849.573	642.119
305.949	18.652	849.138	641.289
306.964	18.412	848.706	640.011
307.979	18.652	847.998	640.315
308.993	18.632	847.448	639.770
310.008	18.609	847.045	639.321
311.022	18.761	846.214	639.205
312.037	18.547	845.566	637.860
313.052	18.308	844.866	636.388
314.066	18.297	844.636	636.119
315.081	18.316	844.121	635.746
316.095	18.494	843.188	635.645
317.110	18.458	842.796	635.162
318.125	18.443	842.404	634.756
319.139	18.372	841.738	633.936
320.154	18.466	841.283	633.883
321.168	18.494	840.755	633.532
322.183	18.663	840.120	633.622
323.197	18.509	839.916	632.842
324.212	18.490	839.007	632.034
325.227	18.495	838.476	631.595
326.241	18.370	838.413	631.032
327.256	18.377	837.674	630.443
328.270	18.525	836.910	630.359
329.285	18.491	836.437	629.820
330.300	18.640	835.520	629.621
331.314	18.545	835.391	629.121
332.329	18.717	835.218	629.566
333.343	18.780	834.242	629.003
334.358	18.750	834.218	628.820
335.373	18.742	833.606	628.275
336.387	18.791	833.352	628.207
337.402	18.823	833.140	628.108
338.416	19.092	832.770	628.757
339.431	18.919	832.796	628.090
340.446	19.007	832.057	627.798
341.460	18.918	831.880	627.283
342.475	19.001	831.524	627.263
343.489	19.182	831.191	627.616
344.504	19.387	830.075	627.462
345.519	19.330	829.999	627.142
346.533	19.179	829.567	626.213
347.548	18.981	828.758	624.825
348.562	18.904	828.022	623.937
349.577	18.640	827.890	622.824
350.592	18.756	827.104	622.598
351.606	18.893	825.987	622.197
352.621	18.857	825.138	621.372
353.635	18.955	824.646	621.304
354.650	18.922	824.281	620.854
355.665	19.102	823.578	620.916
356.679	19.133	822.949	620.500
357.694	19.060	822.766	620.044
358.708	19.240	821.804	619.914
359.723	19.013	821.207	618.589
360.738	19.094	820.826	618.540
361.752	19.251	819.766	618.251
362.767	19.344	819.667	618.455
363.781	19.418	819.134	618.262
364.796	19.412	818.955	618.050
365.810	19.559	818.523	618.195
366.825	19.625	818.036	618.012
367.840	19.549	817.806	617.509
368.854	19.465	817.036	616.575
369.869	19.390	816.669	615.973
370.883	19.457	816.322	615.897
371.898	19.560	815.713	615.751
372.913	19.604	815.564	615.739
373.927	19.522	814.822	614.834
374.942	19.607	814.342	614.718
375.956	19.735	813.865	614.760
376.971	19.708	813.769	614.539
377.986	19.768	813.008	614.121
379.000	19.796	812.716	613.945
380.015	19.761	812.334	613.480
381.029	19.701	811.824	612.827
382.044	19.796	811.010	612.494
383.059	19.811	810.569	612.160
384.073	19.702	810.051	611.329
385.088	19.657	808.917	610.262
386.102	19.644	808.505	609.850
387.117	19.551	808.088	609.155
388.132	19.614	807.252	608.694
389.146	19.668	806.629	608.358
390.161	19.866	806.437	608.857
391.175	19.861	805.943	608.413
392.190	19.720	805.712	607.687
393.205	19.679	804.760	606.772
394.219	19.653	804.391	606.351
395.234	19.475	804.593	605.824
396.248	19.420	803.889	605.047
397.263	19.455	803.244	604.630
398.278	19.404	803.103	604.292
399.292	19.321	802.965	603.843
400.307	19.523	802.200	603.922
401.321	19.456	801.777	603.316
402.336	19.550	801.218	603.170
403.350	19.826	800.506	603.543
404.365	19.616	800.581	602.815
405.380	19.742	799.938	602.715
406.394	19.828	799.513	602.642
407.409	19.853	799.213	602.450
408.423	19.988	798.816	602.565
409.438	20.056	798.525	602.531
410.453	20.002	798.296	602.118
411.467	20.102	797.681	601.947
412.482	20.350	797.308	602.473
413.496	20.395	796.732	602.141
414.511	20.217	796.863	601.567
415.526	20.104	796.028	600.494
416.540	20.318	795.580	600.844
417.555	20.236	794.926	600.013
418.569	20.235	794.237	599.436
419.584	20.160	794.013	598.956
420.599	20.328	793.695	599.242
421.613	162.301	1372.291	1797.918
422.628	140.700	1456.580	1797.992
