DTS Sentinel unit serial number:	SN413079Multiplexer serial number:	ORYXHardware model number:	OX4-SRSoftware version number:	ORYX F/W v4.00 Oryx Data Collector v3.7.2.0data status	okinstallation	princeton_trtdifferential loss correction	single-endedforward channel	channel 1reverse channel	N/Adate	2019/09/14time	13:30:35forward acquisition time	60.00reverse acquisition time	0.00gamma	496.2192k internal	0.2294k external	0.2294temperature offset calibration	1.0088default loss term (dB/km)	0.3790temperature slope calibration	1.0000multiplexer offset coefficient	1.0000multiplexer slope coefficient	1.0000fibre end	0.00T internal ref (°C)	37.94T ext. ref 1 (°C)	4.93T ext. ref 2 (°C)	33.30length (m)	temperature (°C)	Stokes	anti-Stokes-747.200	272.682	0.168	-0.303
-746.185	130.138	-0.164	0.215
-745.171	800.000	0.006	0.023
-744.156	-104.808	-0.097	0.023
-743.142	-200.000	-0.120	-0.546
-742.127	-68.258	-0.305	0.121
-741.112	-60.759	0.198	0.086
-740.098	800.000	-0.157	0.516
-739.083	176.591	0.261	0.388
-738.069	253.191	0.119	-0.208
-737.054	-73.645	-0.160	-0.060
-736.039	148.471	-0.143	-0.197
-735.025	559.688	0.113	0.280
-734.010	757.937	0.064	0.177
-732.996	325.762	-0.180	-0.352
-731.981	-10.320	-0.360	-0.244
-730.966	143.441	-0.147	-0.200
-729.952	-30.263	0.092	-0.054
-728.937	482.081	-0.086	-0.199
-727.923	583.987	-0.028	-0.070
-726.908	-135.881	-0.276	0.033
-725.894	220.409	0.177	0.290
-724.879	-200.000	-0.023	-0.196
-723.864	-119.316	-0.211	-0.038
-722.850	800.000	-0.019	-0.058
-721.835	-110.021	-0.293	-0.063
-720.821	-59.461	0.268	-0.118
-719.806	187.264	-0.073	0.111
-718.791	-200.000	0.000	-0.122
-717.777	94.514	-0.139	-0.161
-716.762	197.526	0.155	-0.242
-715.748	3.824	-0.147	0.110
-714.733	-200.000	-0.001	0.061
-713.718	156.614	-0.065	-0.091
-712.704	-10.069	-0.154	0.104
-711.689	87.900	-0.193	0.219
-710.675	-25.283	-0.404	-0.244
-709.660	-200.000	0.007	0.050
-708.645	399.405	-0.082	0.175
-707.631	-12.337	0.334	0.223
-706.616	800.000	-0.026	-0.090
-705.602	19.077	-0.233	-0.190
-704.587	-200.000	0.048	-0.284
-703.572	54.310	-0.171	-0.168
-702.558	800.000	-0.076	0.249
-701.543	800.000	0.048	-0.170
-700.529	487.643	0.086	-0.199
-699.514	-200.000	-0.035	-0.165
-698.499	283.587	-0.174	0.319
-697.485	184.361	-0.151	0.228
-696.470	361.681	0.090	0.185
-695.456	6.354	-0.316	0.239
-694.441	800.000	-0.125	-0.462
-693.426	-200.000	-0.038	-0.427
-692.412	-37.654	0.246	-0.134
-691.397	-98.507	-0.076	0.020
-690.383	-200.000	-0.023	-0.225
-689.368	780.405	-0.094	0.262
-688.354	-87.197	0.301	0.093
-687.339	272.167	-0.168	-0.302
-686.324	-50.623	0.310	-0.149
-685.310	428.094	-0.191	0.421
-684.295	-27.140	-0.094	-0.056
-683.281	57.105	-0.307	-0.306
-682.266	237.240	-0.071	-0.121
-681.251	-3.694	0.164	-0.116
-680.237	-172.711	-0.143	-0.005
-679.222	752.499	-0.135	-0.371
-678.208	-200.000	-0.011	0.222
-677.193	48.679	-0.051	0.049
-676.178	361.708	-0.013	0.026
-675.164	-200.000	-0.001	0.059
-674.149	122.869	-0.056	0.072
-673.135	-85.092	0.184	0.059
-672.120	800.000	-0.034	0.102
-671.105	-122.939	-0.245	-0.040
-670.091	-47.155	-0.094	-0.047
-669.076	319.808	-0.111	0.215
-668.062	-200.000	0.030	-0.136
-667.047	780.693	-0.027	-0.075
-666.032	89.019	-0.050	-0.057
-665.018	-128.869	0.331	-0.047
-664.003	-99.214	0.374	0.096
-662.989	-121.541	0.404	0.068
-661.974	322.971	-0.019	-0.038
-660.959	192.825	-0.086	-0.133
-659.945	210.727	0.130	0.208
-658.930	800.000	-0.119	-0.339
-657.916	-8.483	-0.163	-0.112
-656.901	-200.000	0.074	0.333
-655.886	71.785	-0.095	0.101
-654.872	-167.648	-0.335	-0.014
-653.857	282.869	0.076	-0.138
-652.843	31.233	0.036	0.032
-651.828	-200.000	-0.008	0.082
-650.814	177.032	-0.020	-0.030
-649.799	800.000	0.071	-0.304
-648.784	-77.182	0.128	-0.045
-647.770	800.000	0.036	-0.105
-646.755	126.036	0.138	-0.178
-645.741	233.742	-0.046	-0.077
-644.726	236.688	0.196	-0.331
-643.711	800.000	-0.132	0.382
-642.697	769.334	0.072	-0.200
-641.682	110.203	0.102	-0.125
-640.668	645.427	-0.087	-0.227
-639.653	-29.836	-0.139	-0.080
-638.638	-155.892	0.168	-0.011
-637.624	-200.000	-0.001	-0.178
-636.609	-200.000	-0.073	0.490
-635.595	-200.000	-0.072	0.498
-634.580	127.528	-0.138	0.178
-633.565	-132.870	0.236	0.031
-632.551	344.245	-0.066	-0.131
-631.536	800.000	-0.095	0.309
-630.522	-79.063	0.074	0.026
-629.507	-200.000	-0.010	-0.166
-628.492	-169.049	-0.146	-0.006
-627.478	-200.000	-0.010	0.449
-626.463	-31.105	0.156	-0.089
-625.449	-1.269	-0.090	-0.065
-624.434	-200.000	-0.013	-0.123
-623.419	-74.907	-0.254	0.093
-622.405	69.832	-0.057	0.060
-621.390	58.838	0.157	0.157
-620.376	63.946	-0.179	0.183
-619.361	204.106	0.192	-0.303
-618.346	-200.000	-0.009	-0.271
-617.332	800.000	-0.072	-0.305
-616.317	158.015	-0.191	0.269
-615.303	-42.017	-0.296	-0.154
-614.288	-200.000	0.006	0.176
-613.273	-200.000	0.065	-0.333
-612.259	800.000	0.089	-0.271
-611.244	-141.443	-0.251	-0.026
-610.230	800.000	-0.064	-0.195
-609.215	-150.518	-0.080	-0.006
-608.201	800.000	-0.049	0.143
-607.186	-49.835	0.076	-0.037
-606.171	-26.432	-0.461	-0.275
-605.157	-97.309	-0.397	0.105
-604.142	-200.000	0.044	0.327
-603.128	133.902	-0.070	-0.092
-602.113	415.363	-0.054	-0.117
-601.098	406.454	-0.146	-0.313
-600.084	96.623	-0.119	-0.138
-599.069	-200.000	-0.037	-0.282
-598.055	-200.000	0.017	-0.314
-597.040	424.219	0.081	-0.177
-596.025	-115.606	-0.270	0.051
-595.011	251.087	-0.112	0.194
-593.996	-37.342	0.241	0.131
-592.982	92.056	-0.197	0.226
-591.967	689.453	-0.127	0.339
-590.952	262.412	0.074	0.130
-589.938	539.682	-0.079	-0.191
-588.923	-173.845	-0.117	-0.004
-587.909	19.749	0.375	0.307
-586.894	800.000	-0.046	0.133
-585.879	151.218	0.097	-0.135
-584.865	-120.851	-0.251	-0.043
-583.850	97.677	-0.170	0.199
-582.836	-103.213	0.294	0.071
-581.821	673.215	-0.115	-0.304
-580.806	-200.000	0.015	0.147
-579.792	-35.245	0.251	-0.139
-578.777	-24.178	-0.242	0.147
-577.763	75.900	0.267	0.287
-576.748	38.946	0.044	-0.040
-575.733	746.914	-0.026	0.072
-574.719	113.659	0.158	0.194
-573.704	-114.023	0.066	-0.013
-572.690	-154.265	0.323	-0.022
-571.675	800.000	-0.060	-0.231
-570.661	-105.809	0.115	0.026
-569.646	522.779	0.110	-0.263
-568.631	-200.000	0.005	-0.103
-567.617	116.964	0.137	-0.171
-566.602	28.259	0.047	0.040
-565.588	273.564	0.054	0.097
-564.573	132.033	-0.127	-0.166
-563.558	-44.325	0.231	0.118
-562.544	-200.000	0.033	0.153
-561.529	703.324	-0.092	0.245
-560.515	197.389	-0.112	-0.174
-559.500	116.225	0.062	0.077
-558.485	-87.312	-0.131	-0.040
-557.471	-120.329	0.377	0.065
-556.456	800.000	-0.070	-0.251
-555.442	800.000	0.047	-0.198
-554.427	-180.876	0.197	0.004
-553.412	-84.487	-0.189	-0.061
-552.398	-103.857	-0.314	-0.074
-551.383	-200.000	-0.012	0.301
-550.369	294.871	-0.124	0.231
-549.354	331.902	0.229	-0.448
-548.339	-200.000	0.071	-0.392
-547.325	-200.000	0.054	-0.309
-546.310	-10.804	0.035	0.024
-545.296	-200.000	-0.007	0.040
-544.281	-100.703	-0.192	-0.048
-543.266	-47.288	-0.041	-0.020
-542.252	-15.317	-0.052	0.033
-541.237	-102.963	-0.257	-0.062
-540.223	376.397	-0.104	-0.215
-539.208	89.306	-0.086	0.098
-538.193	800.000	0.074	-0.307
-537.179	526.785	-0.053	0.127
-536.164	800.000	0.115	0.350
-535.150	-114.466	-0.052	0.010
-534.135	-200.000	-0.014	0.156
-533.121	15.966	0.061	-0.049
-532.106	-7.388	-0.116	0.080
-531.091	-200.000	-0.058	0.267
-530.077	4.736	-0.163	0.122
-529.062	-63.237	0.201	-0.084
-528.048	-200.000	0.017	-0.288
-527.033	-133.810	-0.113	-0.014
-526.018	116.809	0.234	-0.292
-525.004	800.000	-0.014	-0.058
-523.989	115.791	-0.129	-0.160
-522.975	186.234	-0.074	-0.111
-521.960	-200.000	0.003	-0.109
-520.945	-135.396	-0.260	-0.032
-519.931	104.067	-0.268	0.319
-518.916	-146.433	-0.209	0.019
-517.902	-200.000	0.067	0.334
-516.887	-157.265	-0.151	-0.009
-515.872	324.227	0.063	0.122
-514.858	-97.308	-0.100	-0.026
-513.843	-52.747	0.244	-0.114
-512.829	-2.105	-0.355	-0.253
-511.814	-125.588	-0.138	0.021
-510.799	-200.000	0.004	-0.051
-509.785	-200.000	-0.055	-0.313
-508.770	322.731	0.071	-0.137
-507.756	203.341	0.125	0.196
-506.741	-200.000	0.035	0.261
-505.726	410.111	-0.063	0.136
-504.712	181.259	-0.105	0.156
-503.697	-96.315	-0.160	-0.043
-502.683	-200.000	-0.027	-0.236
-501.668	-120.667	-0.395	0.068
-500.653	-62.620	-0.371	0.156
-499.639	33.982	-0.113	-0.099
-498.624	399.459	0.068	0.145
-497.610	294.826	0.035	-0.065
-496.595	-200.000	0.024	-0.108
-495.581	-127.768	-0.434	0.063
-494.566	-200.000	0.040	0.193
-493.551	-200.000	0.027	0.183
-492.537	142.233	0.158	-0.212
-491.522	60.931	0.126	-0.127
-490.508	-200.000	-0.010	-0.067
-489.493	14.897	0.240	0.190
-488.478	-52.223	-0.035	-0.016
-487.464	461.902	0.144	0.326
-486.449	-91.098	-0.374	-0.109
-485.435	-93.827	0.220	0.061
-484.420	-170.651	0.152	0.005
-483.405	205.351	-0.134	-0.210
-482.391	-26.078	0.046	-0.028
-481.376	285.435	0.052	-0.094
-480.362	9.544	-0.199	-0.152
-479.347	145.632	0.164	0.223
-478.332	-29.395	-0.204	-0.118
-477.318	16.486	0.275	0.220
-476.303	-200.000	0.009	-0.150
-475.289	-69.240	-0.192	-0.075
-474.274	-1.497	-0.147	0.105
-473.259	-135.326	-0.299	-0.036
-472.245	-200.000	-0.106	-0.000
-471.230	-32.111	-0.181	0.102
-470.216	150.495	0.156	-0.215
-469.201	22.079	0.132	-0.109
-468.186	-17.057	0.272	-0.174
-467.172	-200.000	-0.024	-0.196
-466.157	-170.712	0.222	-0.008
-465.143	-90.782	-0.352	0.103
-464.128	-161.905	-0.302	-0.015
-463.113	-83.712	-0.461	-0.149
-462.099	-200.000	0.004	0.073
-461.084	-135.987	-0.183	0.022
-460.070	305.730	0.220	-0.414
-459.055	-200.000	-0.025	0.234
-458.040	639.731	-0.147	0.379
-457.026	88.487	0.093	-0.104
-456.011	266.028	0.126	-0.222
-454.997	-30.391	0.275	0.158
-453.982	25.582	0.241	0.203
-452.968	40.083	-0.265	0.241
-451.953	281.285	0.075	0.136
-450.938	-4.071	-0.053	0.037
-449.924	135.063	-0.083	-0.109
-448.909	474.862	-0.014	0.031
-447.895	215.616	0.142	0.227
-446.880	-19.366	-0.173	0.109
-445.865	393.500	0.104	-0.219
-444.851	31.294	-0.199	0.172
-443.836	-35.626	-0.147	-0.081
-442.822	-32.690	0.302	-0.170
-441.807	-28.872	-0.369	-0.214
-440.792	-25.157	0.153	-0.092
-439.778	-95.038	0.431	0.118
-438.763	41.414	-0.167	-0.153
-437.749	31.289	-0.130	0.113
-436.734	-200.000	0.093	0.485
-435.719	-86.471	-0.118	-0.037
-434.705	-72.782	0.111	0.041
-433.690	-6.626	-0.267	-0.183
-432.676	-58.207	-0.173	-0.076
-431.661	-200.000	-0.013	0.236
-430.646	-200.000	0.026	-0.143
-429.632	122.898	0.064	-0.081
-428.617	-3.813	0.192	0.134
-427.603	285.103	0.054	0.098
-426.588	55.616	-0.171	0.167
-425.573	-54.076	-0.154	-0.071
-424.559	800.000	-0.085	-0.301
-423.544	-46.229	-0.172	0.085
-422.530	-113.195	0.262	0.052
-421.515	37.030	-0.070	0.062
-420.500	-68.296	-0.136	0.053
-419.486	303.102	0.041	0.076
-418.471	-149.783	0.449	-0.036
-417.457	-102.955	-0.121	0.029
-416.442	-200.000	-0.002	-0.061
-415.428	-200.000	-0.007	0.219
-414.413	476.620	-0.062	-0.142
-413.398	49.178	-0.233	-0.221
-412.384	-67.619	0.044	0.018
-411.369	114.050	-0.065	-0.080
-410.355	476.705	0.219	0.500
-409.340	-35.262	0.201	-0.110
-408.325	-173.199	-0.355	-0.011
-407.311	35.615	0.189	0.168
-406.296	800.000	-0.032	0.127
-405.282	-105.989	-0.175	-0.040
-404.267	-46.900	0.137	0.068
-403.252	67.829	0.075	-0.077
-402.238	459.313	0.073	-0.164
-401.223	-200.000	0.016	0.144
-400.209	80.949	0.184	-0.200
-399.194	4.194	-0.165	-0.122
-398.179	466.575	0.143	-0.323
-397.165	800.000	0.074	0.293
-396.150	-91.511	-0.055	0.016
-395.136	800.000	0.091	-0.391
-394.121	800.000	0.038	0.150
-393.106	524.547	0.189	-0.448
-392.092	86.034	0.209	0.232
-391.077	-200.000	0.020	0.097
-390.063	29.923	0.038	0.032
-389.048	106.441	-0.156	0.186
-388.033	-200.000	0.010	-0.392
-387.019	113.967	0.176	-0.216
-386.004	-200.000	-0.058	-0.502
-384.990	-93.916	0.079	0.022
-383.975	8.854	-0.155	0.118
-382.960	418.618	0.251	0.542
-381.946	-140.626	0.199	-0.021
-380.931	-200.000	0.025	-0.150
-379.917	-103.430	0.325	-0.077
-378.902	-23.287	-0.158	0.096
-377.888	435.642	-0.069	-0.151
-376.873	-47.016	-0.344	-0.169
-375.858	800.000	0.055	-0.167
-374.844	74.863	-0.133	0.141
-373.829	800.000	-0.007	-0.029
-372.815	80.954	-0.198	0.216
-371.800	4.042	0.358	-0.264
-370.785	-102.637	0.103	-0.025
-369.771	-4.432	0.166	-0.116
-368.756	-140.638	0.247	0.026
-367.742	-200.000	-0.046	-0.227
-366.727	-200.000	0.029	0.263
-365.712	27.533	-0.202	0.171
-364.698	-71.337	0.306	-0.115
-363.683	-130.169	-0.270	0.037
-362.669	-16.046	-0.132	0.085
-361.654	224.427	-0.242	0.394
-360.639	122.341	-0.226	-0.284
-359.625	16.925	-0.183	0.146
-358.610	721.288	0.084	0.225
-357.596	-120.357	0.441	-0.076
-356.581	-92.082	0.136	-0.039
-355.566	-200.000	-0.016	-0.094
-354.552	-128.707	-0.320	0.046
-353.537	40.810	0.179	-0.162
-352.523	172.890	0.103	0.149
-351.508	117.298	0.425	0.526
-350.493	-200.000	-0.046	0.485
-349.479	-200.000	0.021	-0.208
-348.464	-200.000	-0.071	0.477
-347.450	800.000	0.016	0.062
-346.435	325.354	0.112	-0.216
-345.420	-172.423	-0.154	0.005
-344.406	-200.000	0.001	-0.066
-343.391	-200.000	0.010	-0.235
-342.377	-72.484	0.111	-0.041
-341.362	-70.442	0.040	-0.015
-340.348	155.511	-0.116	0.161
-339.333	-106.316	-0.293	0.066
-338.318	-169.030	-0.193	0.007
-337.304	800.000	-0.056	-0.177
-336.289	239.600	0.031	-0.052
-335.275	800.000	0.081	-0.258
-334.260	-106.311	0.266	0.060
-333.245	-200.000	0.002	0.069
-332.231	201.612	-0.071	-0.110
-331.216	800.000	0.058	0.239
-330.202	116.339	0.040	-0.049
-329.187	-171.745	-0.149	0.005
-328.172	-12.639	0.314	0.206
-327.158	392.454	-0.071	0.149
-326.143	7.287	0.210	0.158
-325.129	-22.245	-0.085	-0.052
-324.114	369.893	-0.005	0.010
-323.099	352.679	-0.041	-0.082
-322.085	-15.387	-0.207	0.133
-321.070	146.637	0.263	0.355
-320.056	800.000	0.011	-0.036
-319.041	334.403	0.107	-0.208
-318.026	564.317	-0.051	0.124
-317.012	800.000	0.060	-0.235
-315.997	59.117	-0.281	-0.278
-314.983	-200.000	-0.036	-0.234
-313.968	48.908	0.136	0.129
-312.953	-35.338	0.114	-0.062
-311.939	-200.000	-0.039	0.333
-310.924	-135.504	0.052	-0.006
-309.910	-200.000	0.059	-0.373
-308.895	-181.188	0.150	0.003
-307.880	-69.677	0.052	-0.020
-306.866	213.628	0.103	-0.164
-305.851	-139.281	0.295	0.032
-304.837	-29.446	0.110	0.063
-303.822	-89.730	-0.257	-0.076
-302.807	-64.112	0.168	0.069
-301.793	-198.258	0.159	-0.001
-300.778	319.802	0.094	-0.180
-299.764	-200.000	-0.012	-0.231
-298.749	223.139	-0.100	0.162
-297.735	241.910	-0.069	-0.116
-296.720	180.202	0.108	0.159
-295.705	-200.000	-0.027	0.302
-294.691	-157.686	0.161	-0.010
-293.676	-200.000	-0.017	-0.239
-292.662	-200.000	0.029	-0.331
-291.647	33.753	-0.091	-0.080
-290.632	785.988	0.087	-0.239
-289.618	800.000	-0.021	-0.090
-288.603	42.101	0.303	0.277
-287.589	-200.000	-0.019	-0.106
-286.574	-37.300	0.193	0.103
-285.559	800.000	-0.054	-0.161
-284.545	138.960	-0.120	0.158
-283.530	-120.538	-0.079	-0.013
-282.516	-49.173	0.221	-0.106
-281.501	90.500	-0.372	0.418
-280.486	-149.519	0.146	0.012
-279.472	4.605	0.188	0.139
-278.457	-200.000	0.078	0.427
-277.443	3.111	0.174	-0.127
-276.428	-33.823	-0.244	-0.135
-275.413	-200.000	-0.005	0.331
-274.399	503.888	0.065	-0.152
-273.384	-104.256	0.071	0.016
-272.370	120.095	0.053	0.066
-271.355	-110.854	0.268	-0.055
-270.340	-200.000	-0.055	0.260
-269.326	-128.579	-0.170	-0.024
-268.311	-54.708	0.342	-0.155
-267.297	-67.962	0.166	-0.065
-266.282	-21.188	-0.369	0.226
-265.267	333.034	-0.087	-0.168
-264.253	-67.126	-0.361	0.143
-263.238	-111.726	0.251	-0.051
-262.224	-89.065	-0.272	0.081
-261.209	-105.793	-0.298	-0.067
-260.195	16.212	-0.078	-0.062
-259.180	79.253	0.115	0.124
-258.165	-158.616	0.301	0.017
-257.151	-200.000	0.085	0.000
-256.136	268.713	0.055	0.096
-255.122	-111.161	-0.123	-0.025
-254.107	-58.103	0.079	0.034
-253.092	-200.000	-0.030	0.167
-252.078	-21.351	-0.295	0.181
-251.063	800.000	0.186	0.620
-250.049	800.000	0.081	0.313
-249.034	-103.934	0.120	0.028
-248.019	93.600	0.026	0.029
-247.005	102.014	0.076	0.089
-245.990	800.000	-0.083	-0.274
-244.976	205.230	0.090	-0.141
-243.961	688.741	0.154	0.404
-242.946	-140.098	-0.246	0.026
-241.932	-17.570	-0.300	-0.189
-240.917	348.039	-0.159	-0.315
-239.903	-200.000	0.005	0.233
-238.888	-49.525	0.119	0.057
-237.873	171.823	-0.094	0.136
-236.859	18.554	-0.234	0.188
-235.844	420.990	0.073	-0.156
-234.830	-132.233	0.029	0.004
-233.815	-182.799	0.203	-0.004
-232.800	-200.000	0.027	0.204
-231.786	-121.358	-0.034	-0.006
-230.771	18.475	-0.348	-0.279
-229.757	-200.000	-0.004	-0.028
-228.742	-98.801	0.213	0.054
-227.727	-107.671	0.168	-0.037
-226.713	25.262	0.329	0.274
-225.698	-76.173	0.361	0.128
-224.684	800.000	0.096	0.412
-223.669	-200.000	-0.004	0.175
-222.655	69.738	-0.188	-0.194
-221.640	800.000	0.013	0.036
-220.625	25.569	0.427	0.356
-219.611	-101.671	0.207	-0.050
-218.596	138.450	-0.061	0.080
-217.582	18.904	-0.162	-0.130
-216.567	143.239	0.125	0.166
-215.552	-61.204	0.142	-0.060
-214.538	-84.646	-0.414	0.131
-213.523	-200.000	0.007	0.099
-212.509	-142.387	0.166	-0.016
-211.494	-137.945	-0.145	-0.016
-210.479	-23.969	-0.199	0.119
-209.465	-12.105	-0.179	0.118
-208.450	395.679	-0.022	0.046
-207.436	692.394	-0.116	0.303
-206.421	-200.000	0.014	-0.110
-205.406	-181.958	-0.025	0.000
-204.392	-34.794	0.212	0.116
-203.377	-43.115	0.247	0.125
-202.363	800.000	0.034	0.137
-201.348	-41.810	-0.133	0.068
-200.333	-4.368	0.214	-0.148
-199.319	182.515	0.084	-0.125
-198.304	-142.235	-0.150	0.015
-197.290	800.000	0.134	-0.383
-196.275	-140.426	-0.185	0.019
-195.260	800.000	-0.029	0.100
-194.246	-38.641	-0.130	-0.069
-193.231	-149.333	-0.477	-0.038
-192.217	-200.000	0.008	-0.116
-191.202	67.811	-0.013	0.014
-190.187	193.843	-0.108	0.164
-189.173	-200.000	0.024	-0.250
-188.158	244.834	0.091	-0.153
-187.144	-44.263	0.033	-0.016
-186.129	-99.519	0.088	-0.022
-185.114	-21.020	0.179	-0.109
-184.100	-46.050	-0.099	0.049
-183.085	-34.076	-0.333	0.183
-182.071	-200.000	0.014	-0.122
-181.056	-87.482	-0.020	0.006
-180.042	249.234	-0.008	0.013
-179.027	-200.000	0.038	-0.206
-178.012	-118.739	0.446	-0.079
-176.998	63.008	0.136	0.136
-175.983	-88.358	0.215	-0.064
-174.969	291.151	-0.082	-0.148
-173.954	-200.000	0.036	-0.233
-172.939	-200.000	-0.017	0.212
-171.925	49.045	0.169	-0.158
-170.910	800.000	-0.080	0.226
-169.896	800.000	-0.046	-0.152
-168.881	108.367	0.234	-0.279
-167.866	-88.388	0.268	-0.080
-166.852	153.031	-0.063	0.086
-165.837	3.239	0.258	-0.188
-164.823	-85.689	-0.151	-0.047
-163.808	-200.000	0.021	-0.125
-162.793	-200.000	0.016	-0.078
-161.779	393.405	0.038	-0.080
-160.764	72.929	0.156	0.163
-159.750	-101.795	0.246	-0.060
-158.735	800.000	0.035	-0.135
-157.720	-15.011	-0.208	-0.133
-156.706	-73.105	0.234	0.086
-155.691	-184.243	-0.079	0.001
-154.677	800.000	-0.088	-0.329
-153.662	-34.715	-0.315	0.172
-152.647	161.143	0.250	-0.349
-151.633	470.727	0.075	0.169
-150.618	-116.972	0.107	-0.020
-149.604	21.202	-0.197	-0.160
-148.589	-94.790	0.316	0.086
-147.574	310.676	0.094	0.176
-146.560	-200.000	-0.044	-0.210
-145.545	800.000	0.056	0.193
-144.531	415.600	0.115	0.245
-143.516	260.157	-0.117	0.202
-142.502	162.757	0.162	0.227
-141.487	69.467	0.129	0.132
-140.472	-200.000	-0.047	-0.284
-139.458	117.207	-0.204	-0.250
-138.443	-200.000	0.054	-0.607
-137.429	-108.333	-0.162	0.035
-136.414	682.879	-0.094	-0.244
-135.399	-58.056	-0.188	-0.082
-134.385	-108.345	0.275	0.059
-133.370	-148.879	0.189	0.015
-132.356	184.424	0.153	0.227
-131.341	-200.000	0.021	0.106
-130.326	84.732	0.231	0.253
-129.312	-133.235	-0.177	-0.022
-128.297	371.790	-0.173	0.351
-127.283	800.000	-0.094	0.268
-126.268	118.123	-0.171	-0.210
-125.253	-200.000	-0.017	-0.272
-124.239	281.466	0.157	0.281
-123.224	45.908	-0.013	-0.012
-122.210	-69.869	-0.210	0.080
-121.195	-19.363	0.217	0.134
-120.180	-16.862	-0.125	0.079
-119.166	18.073	-0.280	-0.223
-118.151	-12.625	0.186	0.121
-117.137	-15.843	-0.127	-0.081
-116.122	-19.702	0.250	0.154
-115.107	379.484	0.036	-0.074
-114.093	-61.057	-0.238	-0.100
-113.078	-52.575	-0.132	-0.061
-112.064	496.662	0.043	-0.098
-111.049	-200.000	-0.011	0.232
-110.034	36.126	0.216	0.190
-109.020	800.000	0.107	-0.377
-108.005	309.105	-0.096	0.179
-106.991	-139.314	-0.268	0.029
-105.976	-151.450	0.236	-0.017
-104.962	-86.454	-0.087	0.027
-103.947	19.939	0.265	0.213
-102.932	-0.582	-0.105	-0.075
-101.918	800.000	0.060	0.178
-100.903	-200.000	-0.018	0.124
-99.889	1.368	-0.075	-0.054
-98.874	50.617	-0.234	0.221
-97.859	222.615	-0.082	0.132
-96.845	-98.084	0.394	0.101
-95.830	6.531	0.151	0.112
-94.816	-200.000	-0.012	-0.111
-93.801	800.000	-0.100	-0.286
-92.786	-75.791	-0.218	0.077
-91.772	-139.577	-0.192	-0.020
-90.757	-200.000	-0.014	0.289
-89.743	-200.000	0.047	0.254
-88.728	133.248	-0.099	-0.127
-87.713	164.591	0.172	0.242
-86.699	-76.508	-0.182	-0.064
-85.684	-200.000	-0.017	0.331
-84.670	23.374	0.294	0.241
-83.655	800.000	0.054	0.176
-82.640	-42.745	-0.295	-0.149
-81.626	21.876	0.267	-0.217
-80.611	-200.000	0.026	0.199
-79.597	-200.000	0.025	-0.179
-78.582	-200.000	-0.013	-0.084
-77.567	-136.583	0.351	-0.041
-76.553	9.851	0.144	0.109
-75.538	-200.000	0.018	-0.291
-74.524	-125.188	-0.125	0.019
-73.509	25.095	0.098	0.081
-72.494	-200.000	-0.019	0.327
-71.480	-9.979	0.159	0.106
-70.465	355.146	0.088	-0.175
-69.451	800.000	0.081	0.230
-68.436	-200.000	-0.017	-0.111
-67.422	28.524	-0.276	0.232
-66.407	-107.221	-0.239	-0.052
-65.392	19.340	0.154	-0.124
-64.378	53.444	-0.173	-0.165
-63.363	135.444	0.148	0.192
-62.349	224.755	0.069	-0.111
-61.334	27.486	-0.811	-0.679
-60.319	-31.042	0.234	0.132
-59.305	-200.000	0.050	-0.714
-58.290	150.732	0.554	0.750
-57.276	571.029	0.656	1.590
-56.261	-200.000	86.387	500.042
-55.246	520.194	1396.447	3258.655
-54.232	180.699	2616.304	3823.735
-53.217	118.475	2238.226	2749.411
-52.203	48.701	1681.696	1569.531
-51.188	41.301	1411.597	1270.452
-50.173	38.075	1367.260	1210.536
-49.159	56.453	1409.888	1364.283
-48.144	61.133	1428.438	1411.621
-47.130	41.841	1386.418	1250.972
-46.115	38.096	1369.207	1212.201
-45.100	37.785	1364.312	1205.892
-44.086	37.772	1361.881	1203.620
-43.071	37.733	1359.476	1201.202
-42.057	37.794	1356.940	1199.292
-41.042	37.813	1355.601	1198.176
-40.027	37.812	1354.300	1196.970
-39.013	37.869	1351.826	1195.088
-37.998	37.763	1350.324	1193.061
-36.984	37.831	1348.553	1191.868
-35.969	37.948	1346.195	1190.451
-34.954	37.927	1345.054	1189.268
-33.940	37.953	1343.449	1187.958
-32.925	38.081	1342.185	1187.573
-31.911	38.072	1340.228	1185.739
-30.896	38.010	1339.082	1184.298
-29.881	38.017	1337.657	1183.035
-28.867	38.096	1336.180	1182.161
-27.852	38.113	1334.490	1180.721
-26.838	38.175	1332.907	1179.651
-25.823	38.008	1332.512	1178.245
-24.809	38.116	1330.759	1177.299
-23.794	38.024	1329.301	1175.410
-22.779	38.045	1327.530	1173.921
-21.765	38.016	1326.457	1172.750
-20.750	37.985	1325.012	1171.243
-19.736	37.867	1324.193	1169.765
-18.721	37.937	1322.454	1168.599
-17.706	37.845	1321.534	1167.191
-16.692	37.899	1320.402	1166.468
-15.677	37.898	1318.821	1165.018
-14.663	37.811	1317.925	1163.663
-13.648	37.936	1316.426	1163.036
-12.633	37.842	1315.578	1161.684
-11.619	37.841	1314.859	1160.994
-10.604	37.933	1313.573	1160.363
-9.590	37.865	1313.119	1159.509
-8.575	37.806	1311.990	1158.115
-7.560	37.797	1311.139	1157.262
-6.546	37.855	1310.178	1156.712
-5.531	37.926	1309.128	1156.163
-4.517	37.860	1308.232	1154.937
-3.502	37.915	1307.348	1154.431
-2.487	37.924	1306.153	1153.384
-1.473	38.016	1302.186	1150.381
-0.458	36.524	1287.304	1128.485
0.556	33.318	1266.158	1083.569
1.571	28.881	1269.306	1060.635
2.586	27.400	1283.310	1063.595
3.600	25.851	1270.879	1044.227
4.615	19.330	1194.733	945.920
5.629	9.650	1114.071	832.217
6.644	5.052	1091.986	792.336
7.659	4.724	1089.166	788.555
8.673	4.947	1088.004	788.772
9.688	4.978	1086.535	787.795
10.702	5.134	1085.436	787.714
11.717	10.473	1092.798	820.061
12.731	18.883	1104.640	871.706
13.746	21.372	1106.857	886.007
14.761	19.966	1104.627	877.028
15.775	18.897	1102.543	869.886
16.790	17.921	1100.244	863.067
17.804	17.129	1098.843	857.893
18.819	16.724	1097.822	854.977
19.834	16.626	1096.234	853.167
20.848	16.237	1095.944	850.907
21.863	16.037	1094.909	849.018
22.877	15.919	1094.560	848.079
23.892	16.127	1093.334	848.103
24.907	15.898	1092.831	846.486
25.921	16.067	1091.509	846.232
26.936	16.054	1090.214	845.090
27.950	16.006	1089.412	844.155
28.965	16.115	1087.381	843.049
29.980	16.258	1085.546	842.265
30.994	16.261	1084.900	841.704
32.009	16.319	1083.724	841.007
33.023	16.356	1082.356	840.055
34.038	16.356	1081.418	839.256
35.053	16.205	1080.659	837.842
36.067	16.146	1080.170	837.094
37.082	16.139	1079.095	836.152
38.096	16.176	1078.590	835.872
39.111	16.160	1077.809	835.112
40.126	16.056	1076.274	833.333
41.140	15.916	1074.718	831.362
42.155	15.857	1073.689	830.204
43.169	15.795	1072.390	828.821
44.184	15.867	1071.313	828.272
45.199	15.874	1070.249	827.408
46.213	15.926	1069.137	826.729
47.228	15.993	1068.324	826.357
48.242	16.088	1067.193	825.874
49.257	16.044	1066.443	825.008
50.271	16.095	1065.269	824.273
51.286	16.136	1064.419	823.743
52.301	16.131	1063.325	822.801
53.315	16.085	1062.087	821.547
54.330	15.902	1061.249	819.935
55.344	15.881	1060.593	819.250
56.359	15.945	1059.662	818.770
57.374	15.939	1058.671	817.902
58.388	15.801	1057.466	816.232
59.403	15.856	1057.125	816.163
60.417	15.883	1055.887	815.267
61.432	15.837	1055.473	814.653
62.447	15.648	1054.766	813.121
63.461	15.640	1053.861	812.311
64.476	15.616	1052.849	811.344
65.490	15.624	1052.336	810.912
66.505	15.763	1051.215	810.648
67.520	15.588	1051.068	809.620
68.534	15.800	1049.721	809.530
69.549	15.797	1048.785	808.723
70.563	15.690	1047.997	807.530
71.578	15.595	1047.807	806.857
72.593	15.549	1046.706	805.719
73.607	15.575	1045.943	805.182
74.622	15.660	1045.113	804.881
75.636	15.690	1044.663	804.603
76.651	15.638	1043.831	803.644
77.666	15.655	1043.052	803.054
78.680	15.675	1042.599	802.728
79.695	15.677	1041.699	801.977
80.709	15.815	1041.108	802.110
81.724	15.748	1040.935	801.585
82.739	15.920	1039.852	801.500
83.753	16.043	1038.675	801.104
84.768	16.110	1038.385	801.128
85.782	16.253	1037.291	800.891
86.797	16.071	1036.527	799.368
87.812	16.068	1035.433	798.441
88.826	16.098	1034.435	797.742
89.841	16.184	1033.150	797.086
90.855	16.091	1032.903	796.387
91.870	16.265	1032.118	796.532
92.884	16.165	1031.221	795.298
93.899	16.221	1030.205	794.707
94.914	16.361	1029.333	794.623
95.928	16.338	1028.472	793.780
96.943	16.145	1027.695	792.206
97.957	16.159	1026.688	791.423
98.972	16.184	1025.829	790.806
99.987	16.330	1024.702	790.553
101.001	16.123	1023.973	788.952
102.016	16.273	1022.960	788.803
103.030	16.230	1022.573	788.234
104.045	16.248	1021.589	787.489
105.060	16.132	1020.583	786.103
106.074	15.953	1019.575	784.422
107.089	15.805	1018.466	782.812
108.103	15.666	1017.319	781.217
109.118	15.897	1016.223	781.379
110.133	15.865	1015.460	780.572
111.147	15.740	1014.504	779.191
112.162	15.943	1013.488	779.278
113.176	15.955	1013.276	779.106
114.191	15.792	1012.689	777.830
115.206	15.871	1011.941	777.549
116.220	15.971	1010.661	776.962
117.235	15.946	1009.684	776.024
118.249	15.951	1008.813	775.313
119.264	15.855	1008.627	774.658
120.279	15.830	1007.441	773.563
121.293	15.841	1006.393	772.739
122.308	15.796	1005.571	771.834
123.322	15.892	1004.373	771.287
124.337	15.790	1003.801	770.313
125.352	15.747	1002.318	768.910
126.366	15.767	1001.175	768.054
127.381	15.818	1000.051	767.359
128.395	15.802	999.792	767.019
129.410	15.856	998.833	766.461
130.424	15.846	998.089	765.779
131.439	16.051	996.997	765.803
132.454	16.050	996.320	765.212
133.468	16.053	995.657	764.646
134.483	16.069	994.802	763.995
135.497	16.062	993.936	763.230
136.512	16.038	992.693	762.102
137.527	16.025	992.315	761.686
138.541	16.076	991.707	761.382
139.556	16.071	991.063	760.797
140.570	16.316	990.038	761.048
141.585	16.269	989.890	760.654
142.600	16.361	988.876	760.221
143.614	16.386	988.047	759.630
144.629	16.320	987.224	758.630
145.643	16.414	985.742	757.846
146.658	16.171	984.739	755.920
147.673	16.054	984.038	754.790
148.687	16.001	983.587	754.140
149.702	15.925	982.773	753.110
150.716	16.084	981.808	753.014
151.731	16.028	981.228	752.253
152.746	16.062	980.234	751.578
153.760	16.102	979.498	751.126
154.775	16.217	978.972	751.165
155.789	16.107	978.560	750.297
156.804	16.268	976.956	749.715
157.819	16.233	976.887	749.438
158.833	16.337	976.283	749.371
159.848	16.469	974.800	748.750
160.862	16.343	974.024	747.529
161.877	16.265	973.541	746.749
162.892	16.176	972.041	745.137
163.906	16.101	971.262	744.143
164.921	16.092	970.312	743.311
165.935	16.117	969.858	743.007
166.950	16.136	969.313	742.611
167.964	16.146	967.951	741.544
168.979	16.273	966.770	741.131
169.994	16.281	965.953	740.475
171.008	16.229	965.489	739.825
172.023	16.335	965.156	739.968
173.037	16.499	964.043	739.766
174.052	16.363	963.256	738.505
175.067	16.238	962.569	737.366
176.081	16.152	962.345	736.751
177.096	16.199	961.474	736.224
178.110	16.284	960.505	735.790
179.125	16.147	960.282	734.957
180.140	16.270	959.716	734.993
181.154	16.363	959.543	735.203
182.169	16.440	959.153	735.172
183.183	16.562	958.062	734.802
184.198	16.542	957.305	734.067
185.213	16.482	956.842	733.387
186.227	16.579	955.710	732.877
187.242	16.494	955.571	732.335
188.256	16.590	954.829	732.117
189.271	16.668	953.725	731.545
190.286	16.356	953.107	729.658
191.300	16.295	951.845	728.363
192.315	16.152	951.391	727.338
193.329	16.295	950.742	727.391
194.344	16.303	950.294	727.018
195.359	16.379	950.108	727.141
196.373	16.520	949.033	726.860
197.388	16.662	948.951	727.342
198.402	16.757	948.446	727.298
199.417	16.837	947.642	726.960
200.432	16.955	946.883	726.821
201.446	16.904	946.515	726.253
202.461	16.962	946.074	726.099
203.475	16.762	945.492	724.733
204.490	16.727	944.578	723.818
205.504	16.730	943.712	723.104
206.519	16.626	942.952	722.013
207.534	16.718	941.887	721.525
208.548	16.691	941.483	721.038
209.563	16.617	940.899	720.211
210.577	16.869	939.615	720.237
211.592	16.872	939.555	720.139
212.607	16.894	938.806	719.596
213.621	16.906	937.621	718.673
214.636	16.904	937.198	718.278
215.650	16.915	936.374	717.631
216.665	17.028	935.848	717.639
217.680	17.001	935.361	717.091
218.694	17.187	934.275	716.979
219.709	16.986	933.942	715.811
220.723	16.985	933.327	715.272
221.738	16.920	932.401	714.225
222.753	16.929	931.672	713.641
223.767	17.097	930.957	713.739
224.782	17.185	930.519	713.707
225.796	17.137	930.291	713.269
226.811	17.036	929.659	712.296
227.826	17.118	928.535	711.718
228.840	17.055	927.727	710.770
229.855	17.074	926.720	710.017
230.869	16.954	926.458	709.249
231.884	17.069	925.555	708.975
232.899	17.029	924.563	707.987
233.913	16.982	923.795	707.139
234.928	16.959	923.266	706.577
235.942	16.972	922.793	706.207
236.957	17.058	922.160	706.020
237.972	16.996	921.571	705.246
238.986	16.961	921.244	704.787
240.001	16.899	920.596	703.974
241.015	17.102	919.699	704.066
242.030	17.094	919.045	703.472
243.045	17.228	918.073	703.219
244.059	17.158	917.890	702.727
245.074	17.043	917.698	702.042
246.088	17.390	916.577	702.554
247.103	17.319	916.175	701.892
248.117	17.221	915.979	701.276
249.132	17.559	915.269	702.066
250.147	17.696	914.251	701.787
251.161	17.722	913.613	701.342
252.176	17.731	913.075	700.902
253.190	17.712	912.667	700.448
254.205	17.733	912.280	700.176
255.220	17.698	911.515	699.382
256.234	17.710	910.607	698.673
257.249	17.834	910.147	698.767
258.263	17.707	909.130	697.405
259.278	17.688	908.421	696.722
260.293	17.804	907.606	696.506
261.307	17.817	907.305	696.270
262.322	17.981	906.427	696.203
263.336	17.968	905.859	695.652
264.351	17.871	905.322	694.781
265.366	18.032	904.437	694.696
266.380	17.979	903.901	694.007
267.395	17.866	903.246	692.984
268.409	17.840	902.739	692.430
269.424	17.881	901.680	691.721
270.439	17.849	900.769	690.830
271.453	17.809	900.202	690.174
272.468	17.730	899.846	689.519
273.482	17.784	899.404	689.341
274.497	17.783	898.723	688.751
275.512	17.723	898.285	688.114
276.526	17.750	897.707	687.720
277.541	17.873	897.344	687.876
278.555	17.997	896.208	687.444
279.570	18.111	896.058	687.727
280.585	18.123	894.908	686.829
281.599	18.112	894.133	686.132
282.614	18.047	893.150	685.055
283.628	18.048	893.044	684.918
284.643	18.078	891.964	684.147
285.657	18.010	891.873	683.746
286.672	18.124	890.829	683.341
287.687	18.063	890.448	682.744
288.701	17.965	890.289	682.172
289.716	18.218	889.055	682.175
290.730	18.011	888.966	681.220
291.745	18.028	888.058	680.533
292.760	18.180	887.410	680.579
293.774	18.282	887.092	680.680
294.789	18.171	886.127	679.439
295.803	18.093	885.493	678.582
296.818	18.179	884.886	678.401
297.833	18.168	884.176	677.753
298.847	18.247	883.490	677.477
299.862	18.234	882.654	676.726
300.876	18.277	882.607	676.799
301.891	18.280	882.053	676.329
302.906	18.336	881.492	676.058
303.920	18.391	881.108	675.922
304.935	18.642	880.053	676.042
305.949	18.459	879.413	674.771
306.964	18.383	878.827	673.962
307.979	18.434	878.210	673.628
308.993	18.501	877.805	673.521
310.008	18.584	877.098	673.244
311.022	18.512	876.336	672.318
312.037	18.328	876.250	671.472
313.052	18.344	875.295	670.744
314.066	18.298	874.667	670.020
315.081	18.303	873.950	669.434
316.095	18.361	873.353	669.143
317.110	18.321	873.129	668.757
318.125	18.280	872.706	668.212
319.139	18.201	872.003	667.309
320.154	18.342	871.289	667.253
321.168	18.500	870.735	667.382
322.183	18.474	870.215	666.824
323.197	18.365	870.051	666.217
324.212	18.349	869.509	665.678
325.227	18.660	868.319	665.918
326.241	18.430	867.949	664.684
327.256	18.322	867.479	663.844
328.270	18.405	866.960	663.712
329.285	18.402	866.245	663.092
330.300	18.424	866.218	663.098
331.314	18.353	865.430	662.163
332.329	18.535	864.948	662.439
333.343	18.536	864.614	662.126
334.358	18.519	864.420	661.854
335.373	18.626	863.734	661.683
336.387	18.701	863.295	661.576
337.402	18.680	863.142	661.320
338.416	18.772	862.911	661.438
339.431	18.810	862.558	661.256
340.446	18.845	861.848	660.788
341.460	18.797	861.691	660.425
342.475	19.030	861.196	660.881
343.489	18.847	860.674	659.722
344.504	19.053	860.040	659.969
345.519	19.068	859.700	659.706
346.533	19.162	858.692	659.233
347.548	18.935	858.328	658.027
348.562	18.883	857.989	657.509
349.577	18.816	857.227	656.612
350.592	18.731	856.536	655.702
351.606	18.776	855.677	655.156
352.621	18.789	855.199	654.780
353.635	18.880	854.496	654.532
354.650	18.999	853.625	654.258
355.665	18.774	853.427	653.193
356.679	19.101	852.755	653.864
357.694	18.988	851.941	652.754
358.708	19.041	851.117	652.265
359.723	19.048	850.752	651.953
360.738	18.967	850.156	651.134
361.752	18.981	849.594	650.697
362.767	19.061	849.031	650.512
363.781	19.175	848.604	650.558
364.796	19.207	848.020	650.172
365.810	19.288	848.103	650.485
366.825	19.478	847.555	650.723
367.840	19.345	847.110	649.823
368.854	19.337	846.174	649.018
369.869	19.304	845.803	648.550
370.883	19.301	845.185	648.008
371.898	19.409	844.708	647.992
372.913	19.318	844.590	647.501
373.927	19.341	844.089	647.147
374.942	19.380	843.805	647.018
375.956	19.601	843.078	647.231
376.971	19.567	842.892	646.903
377.986	19.680	842.161	646.709
379.000	19.576	842.090	646.208
380.015	19.573	841.617	645.777
381.029	19.538	841.120	645.208
382.044	19.707	839.656	644.658
383.059	19.573	839.177	643.733
384.073	19.541	838.731	643.216
385.088	19.606	838.023	642.857
386.102	19.546	837.520	642.189
387.117	19.566	837.204	641.964
388.132	19.488	836.448	641.040
389.146	19.551	835.924	640.814
390.161	19.686	835.465	640.908
391.175	19.709	835.032	640.603
392.190	19.510	834.501	639.402
393.205	19.549	833.939	639.059
394.219	19.506	833.589	638.577
395.234	19.555	833.296	638.475
396.248	19.375	832.717	637.310
397.263	19.302	832.274	636.644
398.278	19.494	831.642	636.815
399.292	19.343	831.419	636.031
400.307	19.496	830.791	636.059
401.321	19.483	830.526	635.752
402.336	19.539	830.179	635.635
403.350	19.615	829.247	635.144
404.365	19.756	829.103	635.495
405.380	19.801	828.420	635.082
406.394	19.921	827.964	635.117
407.409	19.920	827.731	634.877
408.423	20.040	827.356	634.973
409.438	19.986	827.261	634.648
410.453	19.987	826.923	634.336
411.467	20.035	826.346	634.011
412.482	20.048	826.024	633.756
413.496	20.097	825.648	633.591
414.511	20.139	825.244	633.377
415.526	20.120	824.591	632.753
416.540	20.097	823.899	632.081
417.555	20.061	823.436	631.540
418.569	20.180	823.063	631.629
419.584	20.151	822.703	631.193
420.599	20.060	822.445	630.608
421.613	152.594	1368.111	1776.380
422.628	132.967	1447.606	1776.493
