DTS Sentinel unit serial number:	SN413079Multiplexer serial number:	ORYXHardware model number:	OX4-SRSoftware version number:	ORYX F/W v4.00 Oryx Data Collector v3.7.2.0data status	okinstallation	princeton_trtdifferential loss correction	single-endedforward channel	channel 1reverse channel	N/Adate	2019/09/11time	15:00:11forward acquisition time	60.00reverse acquisition time	0.00gamma	496.2192k internal	0.2291k external	0.2291temperature offset calibration	0.9988default loss term (dB/km)	0.3790temperature slope calibration	1.0000multiplexer offset coefficient	1.0000multiplexer slope coefficient	1.0000fibre end	0.00T internal ref (°C)	42.81T ext. ref 1 (°C)	0.94T ext. ref 2 (°C)	37.77length (m)	temperature (°C)	Stokes	anti-Stokes-747.200	60.466	-0.102	0.103
-746.185	634.983	-0.081	0.211
-745.171	33.490	-0.100	0.089
-744.156	159.673	-0.302	0.431
-743.142	-11.936	-0.121	0.081
-742.127	237.494	0.212	0.359
-741.112	800.000	0.014	0.064
-740.098	234.989	-0.105	0.177
-739.083	-116.165	0.121	0.023
-738.069	593.892	0.054	0.136
-737.054	29.668	-0.133	0.116
-736.039	-200.000	-0.015	-0.125
-735.025	-200.000	0.010	-0.054
-734.010	800.000	0.105	0.351
-732.996	-121.328	-0.152	0.026
-731.981	533.919	-0.090	-0.219
-730.966	22.198	-0.324	-0.270
-729.952	-200.000	-0.013	-0.157
-728.937	-200.000	0.011	0.105
-727.923	157.558	-0.146	-0.207
-726.908	-53.764	-0.376	0.176
-725.894	-155.536	0.164	-0.011
-724.879	-117.381	-0.334	0.062
-723.864	627.712	0.185	0.479
-722.850	38.537	0.211	0.192
-721.835	62.477	0.086	0.088
-720.821	52.982	-0.011	-0.011
-719.806	245.218	-0.175	0.301
-718.791	-99.598	-0.103	-0.027
-717.777	-156.348	-0.461	0.030
-716.762	-45.054	-0.078	-0.040
-715.748	75.449	0.085	0.092
-714.733	559.478	-0.086	0.211
-713.718	-125.691	-0.187	0.029
-712.704	146.654	-0.190	-0.261
-711.689	84.994	-0.127	0.143
-710.675	-49.773	0.177	0.086
-709.660	-200.000	-0.034	0.450
-708.645	-14.145	0.276	-0.182
-707.631	-93.283	0.418	0.119
-706.616	-37.443	-0.251	0.137
-705.602	-200.000	0.006	-0.067
-704.587	-98.051	-0.472	0.124
-703.572	-200.000	-0.002	0.086
-702.558	-31.901	-0.076	-0.043
-701.543	-113.691	-0.138	-0.027
-700.529	-200.000	0.030	-0.314
-699.514	-101.789	0.137	0.034
-698.499	-100.269	0.269	-0.068
-697.485	24.844	0.161	0.137
-696.470	-200.000	0.015	-0.164
-695.456	-200.000	0.003	0.201
-694.441	163.803	-0.045	0.065
-693.426	141.144	0.092	0.125
-692.412	161.274	0.131	0.187
-691.397	185.142	0.116	0.175
-690.383	230.301	0.137	-0.228
-689.368	-65.489	-0.189	-0.077
-688.354	141.910	-0.128	-0.174
-687.339	-122.773	0.152	0.025
-686.324	-200.000	-0.009	-0.178
-685.310	-182.264	0.335	0.006
-684.295	-200.000	0.026	-0.216
-683.281	372.393	0.072	0.150
-682.266	532.926	0.202	-0.488
-681.251	786.046	0.082	-0.229
-680.237	-200.000	-0.065	-0.320
-679.222	-12.491	0.170	-0.113
-678.208	800.000	0.064	-0.211
-677.193	-74.533	-0.047	0.017
-676.178	71.821	0.262	-0.278
-675.164	19.993	-0.430	-0.354
-674.149	800.000	0.103	-0.333
-673.135	800.000	-0.032	0.122
-672.120	-49.884	0.280	-0.136
-671.105	158.839	0.116	-0.164
-670.091	20.965	-0.144	0.119
-669.076	326.175	0.142	0.277
-668.062	-200.000	0.060	0.391
-667.047	-200.000	-0.007	0.376
-666.032	-88.833	-0.101	0.031
-665.018	371.650	0.179	-0.371
-664.003	687.071	-0.093	-0.248
-662.989	-13.336	0.188	0.125
-661.974	800.000	-0.040	0.148
-660.959	-200.000	-0.027	0.131
-659.945	31.963	0.024	0.021
-658.930	800.000	0.062	0.229
-657.916	137.078	0.150	0.200
-656.901	350.255	-0.096	0.193
-655.886	124.394	0.141	-0.181
-654.872	99.817	0.210	-0.248
-653.857	-118.570	-0.469	-0.085
-652.843	-200.000	0.051	-0.368
-651.828	-3.197	0.311	-0.221
-650.814	-42.705	0.124	0.064
-649.799	-181.576	0.164	-0.003
-648.784	-200.000	0.002	0.137
-647.770	-200.000	0.050	-0.266
-646.755	-141.441	-0.223	-0.023
-645.741	171.521	-0.185	0.272
-644.726	-200.000	0.018	-0.121
-643.711	-200.000	0.024	-0.121
-642.697	800.000	0.089	-0.356
-641.682	-22.257	-0.184	-0.114
-640.668	359.216	0.056	0.115
-639.653	-92.452	-0.032	-0.009
-638.638	800.000	0.057	0.228
-637.624	-84.427	-0.294	-0.095
-636.609	-66.343	-0.045	-0.018
-635.595	-200.000	0.020	0.193
-634.580	-80.685	-0.112	-0.038
-633.565	-123.327	0.065	0.011
-632.551	92.121	-0.155	-0.178
-631.536	183.598	-0.177	-0.266
-630.522	-70.855	-0.422	-0.162
-629.507	142.047	-0.146	-0.197
-628.492	-95.987	-0.311	-0.084
-627.478	-165.110	-0.305	0.014
-626.463	28.972	-0.132	0.114
-625.449	59.026	-0.081	-0.082
-624.434	-98.013	-0.322	-0.085
-623.419	85.915	-0.118	-0.132
-622.405	30.317	-0.518	0.451
-621.390	-25.256	-0.201	-0.121
-620.376	800.000	-0.048	0.139
-619.361	-68.090	0.405	0.161
-618.346	-51.420	0.222	-0.106
-617.332	800.000	-0.141	-0.444
-616.317	-35.130	-0.369	-0.205
-615.303	-10.203	0.090	-0.061
-614.288	132.707	-0.078	0.102
-613.273	-200.000	0.019	0.120
-612.259	-104.503	0.135	-0.032
-611.244	-200.000	0.038	-0.239
-610.230	-200.000	-0.011	0.200
-609.215	151.281	0.168	0.232
-608.201	113.421	-0.146	0.181
-607.186	585.592	-0.099	-0.247
-606.171	125.377	0.116	-0.148
-605.157	-200.000	0.035	-0.281
-604.142	262.608	0.184	-0.326
-603.128	369.944	0.111	0.229
-602.113	-200.000	0.018	-0.167
-601.098	99.474	-0.085	-0.101
-600.084	261.556	-0.034	-0.061
-599.069	-21.865	-0.222	-0.138
-598.055	439.617	0.226	-0.502
-597.040	-200.000	0.021	-0.201
-596.025	-194.471	-0.236	0.002
-595.011	160.673	0.029	0.041
-593.996	-77.914	0.350	0.123
-592.982	-200.000	0.037	-0.219
-591.967	633.943	-0.143	0.370
-590.952	-130.250	-0.091	-0.013
-589.938	41.348	-0.368	-0.339
-588.923	176.341	-0.207	-0.306
-587.909	-200.000	-0.014	-0.094
-586.894	800.000	0.071	-0.276
-585.879	-130.594	-0.156	0.021
-584.865	-30.184	0.085	-0.049
-583.850	170.834	-0.103	0.150
-582.836	-200.000	0.009	0.350
-581.821	20.362	0.296	0.243
-580.806	706.205	-0.022	0.059
-579.792	-24.495	0.083	-0.050
-578.777	75.348	0.280	-0.300
-577.763	-74.540	-0.212	-0.078
-576.748	-44.321	0.088	0.045
-575.733	-72.393	0.100	0.038
-574.719	360.540	0.200	0.408
-573.704	800.000	0.127	0.426
-572.690	-38.137	0.126	-0.068
-571.675	38.806	-0.179	0.163
-570.661	216.643	-0.219	0.354
-569.646	296.953	0.185	-0.346
-568.631	-13.798	0.173	-0.114
-567.617	-82.542	-0.199	0.066
-566.602	-200.000	-0.025	0.131
-565.588	144.249	0.128	-0.174
-564.573	-61.643	0.289	-0.123
-563.558	370.806	-0.034	-0.071
-562.544	-93.840	-0.180	-0.050
-561.529	370.792	-0.138	-0.285
-560.515	69.990	-0.231	-0.243
-559.500	48.741	-0.143	0.137
-558.485	-15.525	0.053	0.034
-557.471	25.587	0.274	-0.231
-556.456	-66.932	-0.182	0.073
-555.442	9.914	-0.102	-0.079
-554.427	-200.000	-0.034	-0.288
-553.412	-200.000	-0.003	-0.338
-552.398	-90.698	-0.325	0.095
-551.383	-89.727	0.315	-0.094
-550.369	-161.670	-0.202	-0.011
-549.354	313.168	-0.090	-0.173
-548.339	-73.809	-0.073	-0.027
-547.325	43.974	-0.269	-0.251
-546.310	-200.000	-0.019	-0.190
-545.296	199.526	0.255	0.398
-544.281	177.537	-0.145	0.214
-543.266	-68.013	0.335	-0.133
-542.252	-123.787	0.232	0.037
-541.237	6.197	-0.240	0.181
-540.223	-60.079	0.160	-0.070
-539.208	-72.640	0.157	0.059
-538.193	-54.911	0.424	-0.194
-537.179	-90.983	0.180	0.052
-536.164	-155.865	-0.220	-0.014
-535.150	-120.898	-0.059	-0.010
-534.135	800.000	0.024	-0.094
-533.121	800.000	0.075	0.285
-532.106	-58.164	0.102	-0.045
-531.091	-151.323	-0.384	-0.029
-530.077	-82.646	0.160	0.053
-529.062	-111.496	0.268	0.055
-528.048	-41.255	-0.119	0.062
-527.033	116.655	0.089	-0.111
-526.018	701.001	0.049	-0.131
-525.004	-179.752	-0.136	-0.003
-523.989	-95.956	-0.249	-0.067
-522.975	-200.000	0.020	0.097
-521.960	-90.921	-0.319	0.093
-520.945	-200.000	-0.067	-0.373
-519.931	-84.696	0.257	0.082
-518.916	-200.000	0.022	-0.318
-517.902	725.857	-0.072	-0.196
-516.887	-44.995	-0.085	0.043
-515.872	-200.000	-0.037	0.417
-514.858	6.849	0.044	-0.033
-513.843	-71.956	-0.270	0.102
-512.829	197.846	-0.178	0.276
-511.814	-52.684	0.284	0.133
-510.799	-18.849	-0.417	-0.264
-509.785	800.000	0.066	-0.195
-508.770	219.600	0.119	-0.193
-507.756	145.693	-0.235	-0.320
-506.741	-200.000	0.020	-0.163
-505.726	-200.000	-0.001	0.164
-504.712	800.000	0.085	-0.319
-503.697	-186.970	-0.096	0.001
-502.683	800.000	-0.064	-0.196
-501.668	7.511	0.078	-0.059
-500.653	-156.752	-0.216	0.013
-499.639	349.135	-0.083	0.167
-498.624	800.000	0.035	0.121
-497.610	-200.000	-0.044	0.212
-496.595	471.062	0.134	-0.307
-495.581	-200.000	0.024	0.130
-494.566	-90.377	0.369	0.109
-493.551	47.141	0.031	-0.029
-492.537	-75.214	-0.177	-0.064
-491.522	20.616	-0.146	0.120
-490.508	37.593	-0.143	0.129
-489.493	234.769	-0.147	0.246
-488.478	-36.669	0.007	-0.004
-487.464	-115.668	-0.260	0.049
-486.449	-101.452	0.129	-0.032
-485.435	8.096	0.116	-0.089
-484.420	-141.189	0.020	0.002
-483.405	645.488	-0.098	-0.253
-482.391	-94.171	0.274	-0.076
-481.376	-162.587	-0.199	0.010
-480.362	800.000	-0.110	0.405
-479.347	-200.000	0.004	0.019
-478.332	-200.000	0.015	-0.437
-477.318	-200.000	0.028	0.141
-476.303	389.298	-0.203	0.427
-475.289	800.000	-0.057	0.219
-474.274	4.635	-0.208	0.155
-473.259	331.002	-0.166	-0.324
-472.245	-75.111	0.124	0.045
-471.230	273.461	-0.161	0.288
-470.216	90.705	0.027	0.031
-469.201	178.006	-0.151	0.223
-468.186	-66.354	0.453	0.183
-467.172	-108.209	0.286	-0.063
-466.157	-200.000	0.000	0.020
-465.143	163.581	-0.096	0.137
-464.128	323.268	-0.131	-0.253
-463.113	585.988	-0.060	-0.148
-462.099	-79.404	0.333	0.114
-461.084	14.210	0.194	-0.153
-460.070	800.000	-0.092	-0.264
-459.055	-172.152	0.173	0.006
-458.040	107.129	-0.150	-0.180
-457.026	-200.000	-0.006	0.329
-456.011	45.031	-0.145	-0.135
-454.997	-12.164	-0.219	0.145
-453.982	35.720	-0.128	-0.114
-452.968	-8.917	0.213	0.145
-451.953	728.704	0.050	0.136
-450.938	-200.000	-0.019	-0.237
-449.924	-7.522	-0.250	-0.171
-448.909	130.049	-0.182	0.236
-447.895	71.259	0.175	0.183
-446.880	-200.000	-0.013	-0.247
-445.865	92.723	-0.214	0.245
-444.851	160.077	0.114	-0.160
-443.836	-200.000	0.028	-0.172
-442.822	-35.681	0.211	0.116
-441.807	96.794	0.097	0.112
-440.792	12.878	0.172	0.135
-439.778	800.000	0.098	0.350
-438.763	-6.872	0.328	0.226
-437.749	33.573	0.149	-0.131
-436.734	3.064	0.087	0.064
-435.719	-200.000	0.014	-0.081
-434.705	-200.000	-0.011	-0.360
-433.690	-200.000	0.001	0.170
-432.676	800.000	-0.027	0.083
-431.661	466.504	0.037	0.083
-430.646	-39.505	-0.164	-0.087
-429.632	-200.000	-0.062	-0.339
-428.617	52.164	0.230	-0.222
-427.603	-200.000	0.011	0.155
-426.588	-200.000	-0.007	-0.050
-425.573	350.209	-0.126	0.252
-424.559	-57.687	0.286	0.127
-423.544	-94.421	0.236	0.065
-422.530	-200.000	0.016	0.527
-421.515	-200.000	0.073	0.396
-420.500	-119.529	0.274	-0.048
-419.486	513.835	0.149	0.351
-418.471	-79.757	-0.172	0.058
-417.457	-46.463	0.200	-0.099
-416.442	147.164	0.153	-0.208
-415.428	-125.662	-0.310	0.047
-414.413	105.852	0.176	-0.210
-413.398	679.645	-0.095	-0.249
-412.384	0.968	-0.133	0.097
-411.369	42.626	0.149	-0.137
-410.355	255.960	0.122	0.211
-409.340	43.169	0.157	-0.145
-408.325	800.000	0.039	0.121
-407.311	-38.872	0.129	0.069
-406.296	-108.152	-0.132	0.029
-405.282	800.000	-0.043	-0.143
-404.267	58.104	0.156	-0.155
-403.252	-82.401	0.200	-0.066
-402.238	-200.000	-0.023	-0.218
-401.223	19.301	-0.351	-0.284
-400.209	-200.000	0.031	0.174
-399.194	800.000	-0.033	0.111
-398.179	141.728	0.067	0.089
-397.165	-134.485	0.140	-0.017
-396.150	321.865	-0.057	-0.110
-395.136	-34.685	0.113	-0.062
-394.121	-54.866	0.139	-0.063
-393.106	800.000	-0.033	0.145
-392.092	-150.878	-0.235	-0.018
-391.077	-73.191	-0.105	-0.039
-390.063	-84.524	0.336	0.107
-389.048	-187.095	0.214	0.003
-388.033	259.859	-0.113	0.197
-387.019	77.836	-0.290	-0.312
-386.004	126.170	0.113	-0.144
-384.990	800.000	0.050	0.172
-383.975	-200.000	-0.028	-0.138
-382.960	-115.599	0.164	0.031
-381.946	32.852	-0.111	-0.097
-380.931	800.000	-0.070	-0.201
-379.917	13.096	0.201	-0.157
-378.902	115.012	-0.079	0.097
-377.888	103.517	-0.116	-0.137
-376.873	65.711	0.156	-0.160
-375.858	178.133	-0.093	0.137
-374.844	-62.535	-0.256	0.107
-373.829	37.862	0.189	-0.170
-372.815	800.000	-0.074	-0.244
-371.800	-189.962	-0.550	0.006
-370.785	-115.921	-0.315	-0.059
-369.771	800.000	0.114	-0.349
-368.756	800.000	-0.088	-0.246
-367.742	-45.951	-0.153	-0.076
-366.727	147.461	-0.102	-0.138
-365.712	-200.000	-0.032	0.160
-364.698	-145.827	-0.074	-0.007
-363.683	27.374	0.087	-0.074
-362.669	-98.169	0.409	-0.106
-361.654	800.000	0.042	-0.119
-360.639	-52.705	0.152	-0.071
-359.625	-200.000	-0.025	0.472
-358.610	-58.864	-0.100	0.044
-357.596	329.694	0.028	-0.054
-356.581	1.049	-0.317	0.229
-355.566	97.585	0.154	0.179
-354.552	781.929	0.056	0.155
-353.537	256.399	-0.096	0.167
-352.523	50.103	0.047	0.044
-351.508	-162.168	0.199	-0.010
-350.493	800.000	0.078	0.276
-349.479	369.836	-0.106	0.217
-348.464	-200.000	-0.010	0.253
-347.450	2.005	0.092	0.067
-346.435	-118.467	0.422	0.075
-345.420	521.885	-0.127	0.300
-344.406	-36.945	-0.277	0.149
-343.391	229.387	-0.122	0.200
-342.377	142.884	0.239	0.320
-341.362	58.878	0.106	0.105
-340.348	84.275	-0.022	0.024
-339.333	-98.774	-0.255	-0.066
-338.318	-32.432	0.053	-0.030
-337.304	800.000	0.057	-0.197
-336.289	-200.000	-0.031	0.398
-335.275	-157.865	-0.243	-0.015
-334.260	-200.000	-0.045	0.310
-333.245	536.284	0.124	0.296
-332.231	800.000	-0.105	-0.300
-331.216	-41.304	-0.202	0.105
-330.202	59.079	0.139	-0.138
-329.187	85.171	0.192	-0.212
-328.172	86.340	0.124	-0.137
-327.158	800.000	-0.042	-0.142
-326.143	5.361	-0.149	-0.111
-325.129	138.208	0.158	0.208
-324.114	0.579	0.219	0.158
-323.099	-38.374	-0.113	-0.060
-322.085	59.796	-0.178	-0.177
-321.070	-200.000	-0.040	-0.242
-320.056	30.925	0.224	0.194
-319.041	-67.278	-0.208	0.082
-318.026	130.573	0.066	-0.085
-317.012	-88.069	0.219	-0.066
-315.997	-200.000	-0.022	0.301
-314.983	-200.000	-0.010	-0.246
-313.968	307.548	0.096	-0.180
-312.953	-46.522	-0.151	0.075
-311.939	-200.000	0.002	-0.143
-310.924	-0.861	0.352	0.251
-309.910	-200.000	0.044	-0.227
-308.895	-45.140	-0.213	-0.106
-307.880	-145.798	-0.147	0.013
-306.866	-200.000	-0.018	-0.238
-305.851	268.900	0.120	0.213
-304.837	29.334	0.450	0.385
-303.822	-200.000	-0.024	-0.358
-302.807	-200.000	-0.092	-0.441
-301.793	165.457	-0.220	-0.313
-300.778	-37.322	0.209	-0.112
-299.764	-79.691	-0.101	0.034
-298.749	412.033	-0.190	0.407
-297.735	800.000	0.090	0.316
-296.720	45.830	0.208	-0.194
-295.705	-61.504	0.470	-0.199
-294.691	56.712	-0.235	-0.230
-293.676	-117.792	-0.520	0.094
-292.662	141.308	-0.143	0.190
-291.647	-200.000	-0.011	-0.202
-290.632	45.220	0.220	-0.204
-289.618	-200.000	-0.008	-0.242
-288.603	800.000	0.014	-0.053
-287.589	-16.675	0.147	-0.094
-286.574	141.209	0.075	0.099
-285.559	-200.000	0.006	0.275
-284.545	76.049	0.186	0.198
-283.530	800.000	0.035	-0.127
-282.516	-94.325	-0.286	0.078
-281.501	-200.000	-0.002	0.320
-280.486	572.743	0.111	0.272
-279.472	-104.129	0.263	0.062
-278.457	596.154	-0.103	-0.256
-277.443	-50.434	-0.202	-0.096
-276.428	-66.249	0.206	0.083
-275.413	800.000	-0.078	0.273
-274.399	-117.045	0.208	0.038
-273.384	427.480	-0.097	0.211
-272.370	522.686	0.031	0.073
-271.355	125.125	-0.077	0.097
-270.340	48.391	0.128	-0.120
-269.326	-55.581	0.298	0.134
-268.311	-86.637	0.199	0.061
-267.297	-77.661	0.305	0.106
-266.282	72.276	0.245	0.256
-265.267	28.173	0.147	-0.125
-264.253	-30.298	-0.152	0.087
-263.238	-93.279	-0.384	0.107
-262.224	171.831	-0.153	-0.221
-261.209	-200.000	0.004	0.270
-260.195	-76.520	0.179	-0.063
-259.180	-200.000	-0.075	0.354
-258.165	800.000	-0.115	-0.364
-257.151	1.692	0.244	-0.177
-256.136	121.105	-0.198	0.248
-255.122	-121.566	-0.186	-0.031
-254.107	273.324	0.053	0.095
-253.092	178.507	-0.087	0.128
-252.078	-200.000	-0.045	-0.239
-251.063	-96.129	0.247	-0.066
-250.049	-54.536	-0.260	-0.118
-249.034	28.620	0.196	-0.166
-248.019	-200.000	-0.114	0.662
-247.005	-65.902	-0.242	0.097
-245.990	-32.652	-0.183	-0.102
-244.976	364.214	0.176	0.356
-243.961	-4.370	-0.010	-0.007
-242.946	-53.544	0.124	-0.057
-241.932	-200.000	-0.104	0.499
-240.917	-200.000	-0.080	0.479
-239.903	-140.481	-0.084	0.009
-238.888	-88.503	0.187	0.056
-237.873	800.000	0.058	0.214
-236.859	-128.652	-0.046	0.007
-235.844	-200.000	0.024	-0.260
-234.830	-11.484	0.062	-0.041
-233.815	-46.347	0.159	0.078
-232.800	-135.311	0.270	0.032
-231.786	-142.733	0.261	0.026
-230.771	17.372	-0.164	0.130
-229.757	-120.709	-0.126	-0.021
-228.742	538.083	-0.029	-0.070
-227.727	-34.677	-0.177	0.097
-226.713	-134.749	-0.163	0.020
-225.698	-19.595	-0.192	-0.120
-224.684	-156.302	-0.167	-0.011
-223.669	-9.854	-0.269	-0.180
-222.655	800.000	-0.077	-0.222
-221.640	-82.008	-0.390	-0.128
-220.625	-175.257	0.247	-0.007
-219.611	63.671	0.028	-0.028
-218.596	-33.299	0.141	-0.078
-217.582	800.000	-0.027	0.104
-216.567	-129.095	0.361	-0.051
-215.552	25.528	0.142	-0.119
-214.538	150.385	0.091	-0.124
-213.523	-199.282	0.054	-0.000
-212.509	-200.000	0.020	0.138
-211.494	-200.000	-0.045	0.299
-210.479	-9.927	0.215	0.143
-209.465	800.000	0.043	-0.122
-208.450	-152.649	-0.297	-0.021
-207.436	218.641	0.116	-0.186
-206.421	18.275	0.167	0.133
-205.406	-128.924	-0.051	0.007
-204.392	206.653	-0.089	-0.139
-203.377	-200.000	0.010	0.213
-202.363	-99.483	0.313	-0.079
-201.348	65.517	0.134	-0.136
-200.333	-152.987	-0.483	0.034
-199.319	2.240	-0.139	0.101
-198.304	428.125	0.154	-0.333
-197.290	-200.000	0.298	0.001
-196.275	-200.000	-0.001	-0.100
-195.260	201.997	-0.209	-0.324
-194.246	-25.752	0.099	0.059
-193.231	-200.000	0.123	0.762
-192.217	36.399	-0.234	0.206
-191.202	33.606	0.280	0.244
-190.187	800.000	-0.066	0.202
-189.173	800.000	-0.065	-0.231
-188.158	208.194	-0.086	0.134
-187.144	-141.401	-0.267	0.027
-186.129	-95.246	-0.193	-0.052
-185.114	-111.843	0.210	0.043
-184.100	-30.561	-0.181	-0.103
-183.085	92.396	-0.089	-0.100
-182.071	714.525	0.067	-0.179
-181.056	-98.528	0.155	-0.040
-180.042	-81.548	-0.219	-0.072
-179.027	-107.800	0.091	-0.020
-178.012	-22.341	0.253	0.154
-176.998	76.143	-0.144	-0.153
-175.983	800.000	0.037	-0.104
-174.969	-131.804	-0.058	-0.008
-173.954	-45.713	0.170	0.084
-172.939	16.764	0.146	0.116
-171.925	338.293	-0.089	-0.174
-170.910	-200.000	0.025	-0.342
-169.896	-47.905	0.266	0.129
-168.881	368.883	-0.013	0.026
-167.866	62.402	0.055	-0.055
-166.852	-65.532	0.224	-0.090
-165.837	-95.748	0.071	0.019
-164.823	-91.540	0.041	0.012
-163.808	-18.720	-0.316	0.197
-162.793	2.158	0.297	0.215
-161.779	-200.000	0.042	0.236
-160.764	-200.000	-0.043	-0.216
-159.750	332.106	0.081	-0.156
-158.735	-200.000	-0.006	0.213
-157.720	705.175	0.077	-0.204
-156.706	-200.000	0.010	-0.358
-155.691	-200.000	0.007	-0.180
-154.677	800.000	0.095	0.321
-153.662	29.703	0.276	0.235
-152.647	-193.796	0.195	0.002
-151.633	-200.000	-0.021	0.128
-150.618	-200.000	0.047	0.287
-149.604	-138.700	-0.232	0.025
-148.589	-200.000	-0.060	-0.331
-147.574	-101.912	-0.164	-0.040
-146.560	-88.652	-0.354	0.105
-145.545	800.000	-0.048	0.133
-144.531	393.380	0.054	0.113
-143.516	125.625	0.123	0.155
-142.502	-200.000	-0.015	-0.088
-141.487	-200.000	0.014	-0.165
-140.472	197.124	0.183	-0.280
-139.458	-30.406	0.137	-0.078
-138.443	630.580	-0.197	0.499
-137.429	-139.691	0.226	-0.024
-136.414	304.802	0.127	0.236
-135.399	136.964	-0.036	0.047
-134.385	-36.472	-0.352	0.189
-133.370	-200.000	-0.043	-0.294
-132.356	800.000	0.048	-0.208
-131.341	55.684	0.327	-0.317
-130.326	-200.000	0.020	0.163
-129.312	516.010	-0.118	0.275
-128.297	-200.000	0.038	0.351
-127.283	-80.032	0.265	-0.089
-126.268	800.000	-0.049	0.188
-125.253	38.387	0.105	0.093
-124.239	-22.582	-0.122	-0.074
-123.224	-96.080	0.355	-0.094
-122.210	90.225	-0.072	-0.081
-121.195	181.182	0.190	0.279
-120.180	-100.996	0.079	0.019
-119.166	69.073	-0.198	0.203
-118.151	800.000	0.104	-0.451
-117.137	-200.000	-0.005	-0.283
-116.122	115.690	0.138	0.169
-115.107	800.000	0.068	0.219
-114.093	-99.732	-0.089	0.022
-113.078	-28.468	0.148	0.085
-112.064	440.338	-0.086	0.187
-111.049	-166.571	0.093	0.004
-110.034	800.000	0.063	-0.193
-109.020	19.868	0.147	-0.118
-108.005	503.068	0.044	-0.101
-106.991	-59.086	-0.050	-0.022
-105.976	183.555	-0.127	0.187
-104.962	-200.000	0.043	-0.194
-103.947	800.000	0.071	-0.262
-102.932	82.452	0.062	0.067
-101.918	-200.000	0.005	0.324
-100.903	143.857	-0.146	-0.195
-99.889	90.224	0.088	-0.098
-98.874	26.646	-0.279	-0.233
-97.859	611.956	-0.173	0.433
-96.845	163.560	-0.054	-0.076
-95.830	56.396	-0.168	-0.163
-94.816	118.800	0.030	-0.037
-93.801	-80.875	0.054	0.018
-92.786	-109.142	0.162	-0.034
-91.772	-162.072	-0.110	0.005
-90.757	-147.075	0.210	-0.018
-89.743	-122.246	-0.163	-0.027
-88.728	141.359	-0.190	-0.252
-87.713	-200.000	-0.008	-0.198
-86.699	252.897	-0.289	-0.491
-85.684	-112.139	-0.260	-0.052
-84.670	-65.289	-0.136	0.055
-83.655	181.437	0.071	-0.104
-82.640	192.786	-0.106	-0.160
-81.626	-200.000	-0.011	-0.284
-80.611	331.300	0.014	-0.027
-79.597	121.077	0.171	0.212
-78.582	93.487	-0.087	0.098
-77.567	16.154	0.314	-0.247
-76.553	172.031	0.118	0.169
-75.538	116.939	-0.032	-0.039
-74.524	-160.194	-0.154	-0.008
-73.509	-64.445	-0.105	0.043
-72.494	97.292	0.070	0.081
-71.480	-64.882	0.236	0.095
-70.465	192.190	-0.089	-0.134
-69.451	12.713	0.087	0.067
-68.436	197.146	-0.136	0.207
-67.422	-122.199	0.252	-0.041
-66.407	559.345	-0.053	-0.128
-65.392	800.000	-0.040	0.136
-64.378	607.387	0.116	0.289
-63.363	-91.383	0.072	-0.021
-62.349	800.000	0.056	0.172
-61.334	227.672	-0.552	-0.896
-60.319	174.017	0.143	0.206
-59.305	-200.000	-0.096	-0.595
-58.290	800.000	0.179	0.562
-57.276	333.613	0.933	1.798
-56.261	-200.000	73.914	530.163
-55.246	574.730	1298.409	3158.514
-54.232	146.270	2524.595	3377.523
-53.217	122.807	2228.123	2778.956
-52.203	55.904	1666.805	1611.205
-51.188	47.033	1384.491	1283.490
-50.173	43.128	1336.537	1215.504
-49.159	61.399	1369.393	1356.749
-48.144	69.659	1387.616	1424.768
-47.130	47.269	1351.227	1253.885
-46.115	42.966	1334.530	1212.512
-45.100	42.784	1329.742	1207.018
-44.086	42.630	1327.463	1203.980
-43.071	42.598	1325.149	1201.641
-42.057	42.619	1322.638	1199.447
-41.042	42.581	1320.763	1197.466
-40.027	42.733	1319.482	1197.166
-39.013	42.611	1317.672	1194.749
-37.998	42.762	1315.499	1193.631
-36.984	42.776	1314.040	1192.342
-35.969	42.821	1312.075	1190.774
-34.954	42.899	1310.170	1189.464
-33.940	42.741	1309.632	1187.993
-32.925	42.888	1307.835	1187.182
-31.911	42.909	1306.440	1185.993
-30.896	42.787	1304.662	1183.616
-29.881	42.963	1303.399	1183.455
-28.867	43.036	1301.296	1181.926
-27.852	42.884	1300.090	1179.893
-26.838	42.953	1298.664	1178.959
-25.823	42.952	1297.401	1177.758
-24.809	42.985	1296.229	1176.839
-23.794	42.956	1294.255	1174.831
-22.779	42.903	1293.365	1173.670
-21.765	42.937	1291.865	1172.461
-20.750	42.945	1290.317	1171.054
-19.736	42.837	1289.112	1169.284
-18.721	42.817	1287.483	1167.648
-17.706	42.761	1286.635	1166.509
-16.692	42.726	1285.808	1165.508
-15.677	42.750	1284.426	1164.344
-14.663	42.694	1283.238	1162.899
-13.648	42.659	1282.264	1161.771
-12.633	42.744	1281.030	1161.096
-11.619	42.819	1280.481	1160.982
-10.604	42.736	1279.454	1159.530
-9.590	42.756	1278.555	1158.784
-8.575	42.730	1277.556	1157.682
-7.560	42.697	1276.787	1156.749
-6.546	42.697	1275.588	1155.616
-5.531	42.734	1274.523	1154.817
-4.517	42.709	1274.174	1154.315
-3.502	42.777	1273.349	1153.910
-2.487	42.739	1271.987	1152.410
-1.473	42.872	1268.687	1150.137
-0.458	41.974	1254.099	1131.792
0.556	37.486	1234.152	1091.645
1.571	33.522	1236.930	1071.644
2.586	32.320	1252.042	1077.759
3.600	30.728	1241.355	1059.411
4.615	21.881	1163.458	945.396
5.629	7.959	1077.223	805.295
6.644	1.431	1051.742	753.865
7.659	0.821	1048.930	748.764
8.673	0.782	1047.523	747.501
9.688	0.709	1045.953	745.954
10.702	1.161	1045.953	748.117
11.717	9.461	1057.548	797.614
12.731	20.980	1073.543	867.235
13.746	24.216	1076.982	886.054
14.761	23.441	1075.197	880.663
15.775	23.206	1075.235	879.446
16.790	22.946	1074.182	877.218
17.804	22.928	1073.377	876.391
18.819	23.052	1072.605	876.299
19.834	23.165	1072.359	876.582
20.848	23.115	1072.021	875.981
21.863	23.198	1071.235	875.671
22.877	23.120	1070.858	874.900
23.892	22.959	1070.293	873.566
24.907	23.133	1069.199	873.454
25.921	23.187	1068.070	872.718
26.936	23.016	1066.720	870.696
27.950	23.130	1065.034	869.804
28.965	22.980	1062.972	867.308
29.980	22.986	1061.688	866.211
30.994	23.123	1061.002	866.245
32.009	23.206	1059.556	865.394
33.023	22.955	1058.823	863.495
34.038	22.973	1057.891	862.743
35.053	23.051	1057.366	862.620
36.067	23.054	1056.356	861.738
37.082	23.126	1056.045	861.757
38.096	23.315	1055.096	861.827
39.111	23.531	1053.848	861.779
40.126	23.255	1052.837	859.537
41.140	22.873	1051.306	856.361
42.155	22.615	1049.928	853.913
43.169	22.717	1048.809	853.420
44.184	22.798	1047.987	853.066
45.199	22.597	1047.163	851.351
46.213	22.720	1045.901	850.843
47.228	22.927	1045.174	851.173
48.242	22.907	1044.348	850.327
49.257	23.008	1043.927	850.396
50.271	23.193	1042.830	850.314
51.286	23.118	1042.262	849.418
52.301	23.110	1041.306	848.524
53.315	23.136	1040.075	847.572
54.330	22.992	1039.209	846.102
55.344	23.027	1038.666	845.749
56.359	23.023	1037.510	844.717
57.374	22.899	1036.856	843.516
58.388	22.878	1035.653	842.361
59.403	22.806	1035.123	841.515
60.417	22.708	1034.076	840.124
61.432	22.738	1033.531	839.747
62.447	22.771	1032.827	839.260
63.461	22.945	1031.878	839.240
64.476	22.845	1030.590	837.643
65.490	22.831	1029.779	836.844
66.505	22.736	1029.563	836.142
67.520	22.894	1028.567	836.008
68.534	22.697	1027.234	833.922
69.549	22.299	1026.662	831.502
70.563	22.382	1026.253	831.491
71.578	22.389	1024.663	830.161
72.593	22.237	1023.993	828.830
73.607	22.397	1023.428	829.050
74.622	22.731	1023.004	830.206
75.636	22.787	1022.420	829.924
76.651	22.621	1021.161	828.047
77.666	22.488	1020.960	827.184
78.680	22.584	1020.081	826.852
79.695	22.601	1019.560	826.435
80.709	22.770	1018.723	826.475
81.724	22.667	1017.898	825.252
82.739	22.792	1017.028	825.057
83.753	22.995	1017.010	825.917
84.768	23.311	1015.976	826.480
85.782	23.558	1014.837	826.630
86.797	23.411	1013.741	824.980
87.812	23.146	1013.003	823.076
88.826	23.293	1011.882	822.776
89.841	23.437	1010.800	822.489
90.855	23.426	1010.277	821.942
91.870	23.308	1009.240	820.477
92.884	23.194	1008.033	818.898
93.899	23.232	1006.984	818.150
94.914	23.297	1006.688	818.136
95.928	23.227	1005.166	816.505
96.943	22.884	1004.071	813.960
97.957	22.712	1003.050	812.270
98.972	22.620	1001.980	810.909
99.987	22.897	1001.053	811.360
101.001	23.016	1000.552	811.429
102.016	23.174	999.719	811.404
103.030	22.863	999.098	809.403
104.045	22.873	997.563	808.133
105.060	22.656	996.559	806.257
106.074	22.890	995.978	806.787
107.089	23.151	995.568	807.572
108.103	23.164	993.941	806.242
109.118	22.886	992.720	803.915
110.133	22.800	992.222	803.049
111.147	22.743	990.753	801.528
112.162	22.640	989.311	799.824
113.176	22.865	988.941	800.477
114.191	22.698	988.153	799.007
115.206	22.453	987.032	796.923
116.220	22.418	986.281	796.088
117.235	22.633	985.305	796.200
118.249	22.463	984.868	795.011
119.264	22.527	984.059	794.575
120.279	22.467	983.094	793.454
121.293	22.533	982.347	793.079
122.308	22.574	981.704	792.675
123.322	22.575	980.341	791.509
124.337	22.470	979.009	789.891
125.352	21.980	977.238	786.201
126.366	22.005	975.934	785.194
127.381	22.667	976.077	788.200
128.395	22.908	976.452	789.506
129.410	23.317	974.673	789.824
130.424	23.143	974.016	788.448
131.439	22.930	973.878	787.316
132.454	22.987	972.566	786.439
133.468	22.909	971.746	785.361
134.483	23.222	970.870	785.973
135.497	23.374	970.389	786.190
136.512	23.315	969.126	784.835
137.527	23.499	967.994	784.663
138.541	23.475	967.470	784.062
139.556	23.446	966.652	783.200
140.570	23.546	966.084	783.112
141.585	23.487	965.042	781.938
142.600	23.346	963.998	780.404
143.614	23.711	963.309	781.382
144.629	23.722	962.619	780.803
145.643	23.540	961.654	779.150
146.658	23.390	960.006	777.088
147.673	23.330	959.110	776.031
148.687	23.151	958.393	774.601
149.702	23.105	957.265	773.420
150.716	23.051	956.711	772.666
151.731	23.318	955.214	772.552
152.746	23.335	955.235	772.577
153.760	23.511	954.373	772.579
154.775	23.571	953.915	772.399
155.789	23.434	953.166	771.128
156.804	23.390	952.272	770.148
157.819	23.614	950.950	769.982
158.833	23.679	950.348	769.707
159.848	23.548	949.307	768.231
160.862	23.567	947.928	767.126
161.877	23.400	947.529	766.013
162.892	23.592	946.395	765.861
163.906	23.430	945.147	764.083
164.921	23.579	943.803	763.571
165.935	23.472	943.057	762.439
166.950	23.497	942.572	762.089
167.964	23.505	941.815	761.441
168.979	23.412	940.773	760.131
169.994	23.376	939.399	758.800
171.008	23.505	939.257	759.171
172.023	23.545	938.628	758.769
173.037	23.398	937.371	757.057
174.052	23.140	936.167	754.918
175.067	23.056	936.082	754.423
176.081	23.261	935.430	754.705
177.096	23.266	934.619	754.006
178.110	22.886	933.962	751.792
179.125	22.746	932.962	750.323
180.140	22.845	932.572	750.366
181.154	23.069	932.083	750.855
182.169	23.291	932.035	751.693
183.183	23.469	931.503	751.951
184.198	23.375	930.882	750.985
185.213	23.416	929.940	750.334
186.227	23.419	929.433	749.870
187.242	23.466	928.758	749.459
188.256	23.523	927.802	748.863
189.271	23.721	927.099	749.063
190.286	23.444	926.063	746.992
191.300	22.689	924.980	742.873
192.315	21.974	923.331	738.478
193.329	21.966	922.917	738.046
194.344	22.779	923.382	741.774
195.359	23.358	923.311	744.081
196.373	23.508	922.888	744.307
197.388	23.330	922.175	742.918
198.402	23.327	921.599	742.374
199.417	23.409	920.956	742.134
200.432	23.071	919.951	739.845
201.446	22.880	919.296	738.455
202.461	23.030	918.515	738.391
203.475	22.224	916.671	733.479
204.490	21.599	914.989	729.466
205.504	22.416	915.263	733.021
206.519	22.899	915.502	735.163
207.534	23.013	915.295	735.406
208.548	23.474	915.021	737.037
209.563	23.208	914.125	735.142
210.577	23.251	913.536	734.784
211.592	23.605	912.841	735.626
212.607	23.668	912.183	735.294
213.621	23.525	911.924	734.427
214.636	23.570	910.751	733.605
215.650	23.553	910.139	732.976
216.665	23.581	909.769	732.729
217.680	23.543	908.622	731.583
218.694	23.177	907.641	729.220
219.709	22.906	906.987	727.514
220.723	23.257	907.046	728.942
221.738	23.428	906.119	728.836
222.753	23.221	905.204	727.185
223.767	23.474	904.881	727.899
224.782	23.659	904.521	728.305
225.796	23.611	904.181	727.769
226.811	23.071	902.297	723.981
227.826	22.414	901.422	720.523
228.840	22.536	901.037	720.654
229.855	22.674	900.133	720.429
230.869	22.313	898.685	717.736
231.884	22.730	898.794	719.461
232.899	23.373	898.966	722.154
233.913	23.249	898.244	721.004
234.928	23.386	897.332	720.767
235.942	23.288	897.254	720.244
236.957	22.894	896.406	717.896
237.972	22.968	895.833	717.673
238.986	23.036	895.073	717.278
240.001	23.051	894.734	717.003
241.015	23.126	894.188	716.805
242.030	23.253	893.490	716.697
243.045	23.479	893.264	717.369
244.059	23.605	892.677	717.342
245.074	23.384	891.651	715.564
246.088	23.107	890.547	713.494
247.103	23.282	890.411	714.028
248.117	23.822	890.857	716.500
249.132	23.980	890.237	716.575
250.147	24.023	889.678	716.234
251.161	24.222	889.170	716.561
252.176	24.228	888.356	715.869
253.190	24.355	887.618	715.720
254.205	24.410	887.624	715.881
255.220	24.417	886.830	715.206
256.234	24.246	885.736	713.574
257.249	24.132	885.183	712.610
258.263	24.282	884.460	712.568
259.278	24.335	883.755	712.146
260.293	24.336	883.358	711.767
261.307	24.244	882.452	710.608
262.322	24.031	881.678	709.074
263.336	23.264	879.905	704.535
264.351	22.341	878.123	699.378
265.366	22.309	877.679	698.837
266.380	23.456	878.250	703.786
267.395	23.897	877.826	705.132
268.409	23.800	877.415	704.355
269.424	23.950	876.699	704.309
270.439	24.032	876.166	704.146
271.453	24.021	875.938	703.856
272.468	24.179	875.416	703.998
273.482	24.296	875.041	704.098
274.497	23.879	873.564	701.202
275.512	23.544	872.427	698.908
276.526	23.924	872.726	700.584
277.541	24.031	872.553	700.803
278.555	23.936	871.529	699.545
279.570	23.836	870.277	698.084
280.585	24.061	869.926	698.625
281.599	23.996	868.973	697.545
282.614	23.364	867.895	694.141
283.628	23.283	867.616	693.538
284.643	23.712	867.502	695.065
285.657	23.355	866.321	692.663
286.672	23.034	864.892	690.208
287.687	23.495	865.306	692.275
288.701	23.767	864.903	692.954
289.716	23.336	863.553	690.130
290.730	23.352	863.265	689.904
291.745	23.144	862.183	688.169
292.760	23.205	862.275	688.417
293.774	24.282	862.232	692.507
294.789	24.618	862.174	693.707
295.803	24.723	861.356	693.393
296.818	24.700	860.623	692.652
297.833	24.317	859.621	690.303
298.847	24.131	859.232	689.207
299.862	24.394	858.823	689.838
300.876	24.650	858.218	690.277
301.891	24.537	857.911	689.534
302.906	24.107	856.735	686.870
303.920	24.225	856.540	687.110
304.935	24.539	856.739	688.418
305.949	24.440	855.548	687.019
306.964	24.316	854.816	685.893
307.979	24.397	854.521	685.905
308.993	24.869	854.486	687.632
310.008	24.632	853.888	686.179
311.022	24.580	852.609	684.893
312.037	24.294	852.508	683.655
313.052	24.148	851.097	681.904
314.066	23.403	849.869	678.010
315.081	22.975	849.001	675.620
316.095	23.778	849.375	678.928
317.110	24.249	849.517	680.783
318.125	23.546	847.626	676.528
319.139	22.477	846.031	671.124
320.154	22.378	846.070	670.718
321.168	23.365	846.074	674.420
322.183	24.003	846.522	677.146
323.197	24.227	846.147	677.640
324.212	24.406	845.610	677.827
325.227	24.440	845.005	677.410
326.241	24.246	844.514	676.223
327.256	24.118	843.751	675.067
328.270	24.017	843.034	674.051
329.285	23.988	842.015	673.065
330.300	23.686	841.702	671.616
331.314	23.849	841.442	671.966
332.329	24.326	840.910	673.280
333.343	24.478	840.697	673.625
334.358	24.386	840.579	673.122
335.373	24.382	840.351	672.867
336.387	24.594	840.349	673.602
337.402	24.851	840.005	674.237
338.416	24.767	839.429	673.397
339.431	24.875	838.999	673.401
340.446	25.052	838.735	673.794
341.460	24.871	838.306	672.710
342.475	24.712	837.706	671.572
343.489	24.969	837.257	672.116
344.504	25.289	837.042	673.087
345.519	25.258	837.065	672.926
346.533	25.415	836.344	672.878
347.548	25.204	835.748	671.548
348.562	25.218	835.143	671.056
349.577	25.131	834.748	670.354
350.592	25.131	833.895	669.608
351.606	25.331	832.886	669.486
352.621	25.098	832.317	668.100
353.635	24.941	831.428	666.743
354.650	24.444	829.966	663.665
355.665	23.576	828.386	659.120
356.679	23.979	828.484	660.634
357.694	24.312	828.107	661.514
358.708	24.189	827.203	660.277
359.723	24.539	827.282	661.578
360.738	24.920	826.929	662.646
361.752	24.899	826.611	662.254
362.767	25.344	826.128	663.455
363.781	25.478	825.770	663.602
364.796	25.638	825.405	663.842
365.810	25.567	825.209	663.363
366.825	25.631	824.587	663.041
367.840	25.480	823.815	661.804
368.854	24.997	822.901	659.235
369.869	24.974	822.653	658.894
370.883	25.095	822.383	659.063
371.898	24.969	821.489	657.826
372.913	24.893	821.449	657.457
373.927	25.236	820.755	658.103
374.942	25.093	820.614	657.408
375.956	25.351	820.448	658.161
376.971	25.420	819.908	657.923
377.986	25.587	819.543	658.182
379.000	25.588	818.945	657.648
380.015	25.417	818.321	656.462
381.029	25.455	818.035	656.316
382.044	25.566	817.411	656.161
383.059	25.695	816.610	655.930
384.073	25.616	816.046	655.131
385.088	25.650	815.284	654.585
386.102	25.294	814.900	652.926
387.117	25.384	814.232	652.658
388.132	25.026	813.435	650.663
389.146	24.479	812.432	647.818
390.161	24.910	811.852	648.862
391.175	25.315	811.815	650.242
392.190	25.130	810.908	648.786
393.205	23.776	808.777	642.135
394.219	22.255	807.140	635.287
395.234	22.129	806.850	634.551
396.248	23.694	808.304	641.293
397.263	25.362	808.919	647.747
398.278	25.149	808.810	646.834
399.292	24.847	807.773	644.858
400.307	24.963	807.570	645.059
401.321	24.923	807.074	644.460
402.336	25.402	807.290	646.300
403.350	25.783	807.094	647.454
404.365	26.077	806.777	648.200
405.380	26.208	806.659	648.520
406.394	26.481	805.790	648.740
407.409	26.272	805.406	647.625
408.423	26.208	805.286	647.242
409.438	26.220	804.778	646.820
410.453	26.325	804.277	646.735
411.467	26.290	803.602	646.012
412.482	26.267	803.278	645.613
413.496	26.369	802.938	645.644
414.511	26.374	802.801	645.497
415.526	26.202	802.531	644.608
416.540	26.159	801.617	643.663
417.555	25.906	800.953	642.173
418.569	26.055	800.234	642.069
419.584	26.020	799.783	641.526
420.599	25.791	799.243	640.223
421.613	87.839	1247.766	1329.403
422.628	74.952	1313.174	1329.555
