DTS Sentinel unit serial number:	SN413079Multiplexer serial number:	ORYXHardware model number:	OX4-SRSoftware version number:	ORYX F/W v4.00 Oryx Data Collector v3.7.2.0data status	okinstallation	princeton_trtdifferential loss correction	single-endedforward channel	channel 1reverse channel	N/Adate	2019/09/18time	04:26:35forward acquisition time	60.00reverse acquisition time	0.00gamma	496.2192k internal	0.2339k external	0.2339temperature offset calibration	0.9977default loss term (dB/km)	0.3790temperature slope calibration	1.0000multiplexer offset coefficient	1.0000multiplexer slope coefficient	1.0000fibre end	0.00T internal ref (°C)	23.37T ext. ref 1 (°C)	0.18T ext. ref 2 (°C)	17.52length (m)	temperature (°C)	Stokes	anti-Stokes-747.200	38.903	0.254	0.228
-746.185	-69.723	-0.366	0.140
-745.171	-200.000	0.007	0.379
-744.156	-166.373	-0.172	-0.007
-743.142	95.620	-0.241	-0.276
-742.127	16.971	-0.159	0.126
-741.112	-200.000	0.012	0.072
-740.098	398.684	0.038	0.080
-739.083	-9.340	0.240	-0.161
-738.069	800.000	-0.052	0.156
-737.054	-200.000	-0.002	0.080
-736.039	-56.916	-0.156	0.069
-735.025	-200.000	-0.047	0.209
-734.010	-116.947	-0.157	0.029
-732.996	46.161	-0.264	-0.245
-731.981	-200.000	0.004	0.234
-730.966	72.854	-0.191	-0.200
-729.952	-200.000	0.047	-0.217
-728.937	-200.000	0.007	0.032
-727.923	-200.000	-0.020	-0.146
-726.908	232.664	-0.156	-0.257
-725.894	-47.918	-0.264	0.128
-724.879	57.677	-0.187	0.184
-723.864	-200.000	-0.002	-0.190
-722.850	-74.908	-0.439	-0.158
-721.835	-17.179	0.019	0.012
-720.821	-31.664	0.066	0.037
-719.806	-90.280	-0.174	0.051
-718.791	-146.266	-0.424	-0.037
-717.777	128.293	-0.220	-0.280
-716.762	-113.514	-0.294	0.058
-715.748	-6.359	0.161	-0.110
-714.733	73.244	-0.041	-0.043
-713.718	-100.881	0.093	0.023
-712.704	57.397	-0.125	0.122
-711.689	-200.000	-0.008	-0.294
-710.675	-138.002	-0.020	-0.002
-709.660	36.756	-0.277	-0.245
-708.645	-116.686	0.117	0.021
-707.631	80.877	0.256	-0.277
-706.616	-47.221	-0.265	0.129
-705.602	800.000	0.043	0.169
-704.587	-200.000	-0.003	0.247
-703.572	130.492	0.225	0.289
-702.558	130.200	0.112	0.143
-701.543	327.246	-0.017	0.033
-700.529	-200.000	0.021	-0.265
-699.514	41.678	0.210	-0.190
-698.499	-200.000	0.002	-0.304
-697.485	66.230	-0.237	-0.241
-696.470	126.232	-0.107	0.135
-695.456	-2.071	0.025	0.018
-694.441	-200.000	0.042	-0.255
-693.426	76.686	-0.115	0.122
-692.412	-141.215	0.094	-0.010
-691.397	-32.240	-0.084	0.047
-690.383	-129.976	-0.054	-0.007
-689.368	-200.000	0.015	-0.410
-688.354	-200.000	0.076	-0.442
-687.339	-200.000	0.005	-0.234
-686.324	-85.408	-0.179	-0.056
-685.310	-200.000	0.062	-0.334
-684.295	-200.000	0.041	-0.380
-683.281	611.090	0.025	-0.062
-682.266	-83.979	-0.308	-0.098
-681.251	67.274	-0.136	0.139
-680.237	504.768	-0.177	-0.411
-679.222	67.926	-0.152	0.156
-678.208	-128.646	0.268	-0.038
-677.193	135.787	0.058	-0.075
-676.178	-200.000	-0.012	-0.109
-675.164	-200.000	-0.015	-0.129
-674.149	294.389	-0.171	0.312
-673.135	-119.811	0.175	0.030
-672.120	-1.544	-0.144	-0.101
-671.105	11.887	-0.208	0.160
-670.091	120.839	-0.194	-0.241
-669.076	-101.942	0.216	0.052
-668.062	501.721	-0.129	0.298
-667.047	800.000	0.101	-0.335
-666.032	-32.524	-0.357	-0.199
-665.018	-200.000	0.002	-0.025
-664.003	38.112	-0.235	-0.209
-662.989	90.285	0.028	-0.031
-661.974	518.528	0.178	-0.416
-660.959	276.630	-0.045	-0.080
-659.945	-11.029	-0.158	-0.104
-658.930	194.557	0.056	-0.085
-657.916	36.063	-0.184	0.162
-656.901	-200.000	0.040	-0.258
-655.886	800.000	-0.058	0.168
-654.872	566.476	-0.035	-0.085
-653.857	446.016	-0.078	0.172
-652.843	397.721	-0.081	-0.170
-651.828	-131.570	-0.092	0.012
-650.814	-200.000	-0.051	0.359
-649.799	-108.030	-0.079	0.017
-648.784	-200.000	-0.031	-0.238
-647.770	-22.140	-0.307	-0.186
-646.755	-200.000	0.055	0.323
-645.741	687.057	-0.087	-0.228
-644.726	14.343	-0.110	0.086
-643.711	-50.342	-0.158	0.075
-642.697	-35.249	0.132	-0.072
-641.682	-51.061	0.129	-0.061
-640.668	-99.677	0.166	-0.042
-639.653	-40.394	-0.323	0.168
-638.638	-57.121	0.193	0.085
-637.624	800.000	-0.118	-0.371
-636.609	8.413	0.184	0.138
-635.595	-80.246	-0.172	-0.057
-634.580	91.403	-0.027	0.030
-633.565	79.778	0.304	-0.327
-632.551	11.688	-0.324	-0.248
-631.536	-170.014	-0.297	-0.011
-630.522	-112.814	0.089	-0.018
-629.507	-200.000	-0.038	-0.182
-628.492	-78.655	-0.304	-0.104
-627.478	-80.479	0.500	0.166
-626.463	607.275	-0.061	-0.153
-625.449	800.000	-0.110	-0.357
-624.434	-30.929	-0.221	0.124
-623.419	-200.000	-0.008	0.059
-622.405	-2.560	-0.210	-0.147
-621.390	-116.586	0.425	0.078
-620.376	210.005	0.135	-0.211
-619.361	548.398	-0.001	-0.003
-618.346	-32.896	0.251	0.139
-617.332	-123.672	0.037	0.006
-616.317	-200.000	-0.004	0.063
-615.303	-98.221	-0.136	-0.035
-614.288	-200.000	-0.043	-0.220
-613.273	-53.496	0.188	0.086
-612.259	-57.096	0.261	0.115
-611.244	-123.090	-0.208	0.033
-610.230	-200.000	-0.078	0.458
-609.215	800.000	0.168	-0.705
-608.201	-200.000	0.038	-0.170
-607.186	-200.000	0.019	-0.375
-606.171	19.593	-0.127	0.102
-605.157	800.000	-0.079	-0.281
-604.142	55.561	0.127	-0.122
-603.128	-103.908	0.190	0.044
-602.113	245.441	0.042	0.070
-601.098	-47.814	-0.237	-0.114
-600.084	31.467	0.040	0.034
-599.069	610.194	-0.076	0.189
-598.055	175.027	0.171	0.247
-597.040	200.336	-0.043	-0.066
-596.025	94.084	0.195	0.220
-595.011	107.110	-0.040	-0.047
-593.996	554.630	0.079	-0.190
-592.982	-74.050	-0.182	0.066
-591.967	-115.050	0.502	-0.095
-590.952	-200.000	-0.005	-0.045
-589.938	-200.000	-0.022	0.326
-588.923	376.047	-0.164	0.335
-587.909	22.905	-0.229	0.187
-586.894	50.878	-0.176	-0.166
-585.879	6.170	-0.293	-0.216
-584.865	48.282	0.127	0.118
-583.850	134.517	0.076	-0.098
-582.836	800.000	0.056	0.193
-581.821	-41.256	0.218	-0.112
-580.806	417.774	0.026	-0.056
-579.792	-37.084	-0.144	-0.077
-578.777	800.000	0.033	0.094
-577.763	800.000	0.021	0.073
-576.748	386.496	-0.116	-0.239
-575.733	-200.000	0.018	0.298
-574.719	205.209	-0.156	0.242
-573.704	163.588	-0.203	0.284
-572.690	-1.042	0.062	-0.044
-571.675	800.000	0.064	0.232
-570.661	-18.593	-0.361	0.225
-569.646	338.037	-0.093	-0.180
-568.631	789.358	-0.120	-0.327
-567.617	800.000	-0.103	-0.410
-566.602	66.378	0.149	-0.150
-565.588	-162.031	0.210	0.011
-564.573	-80.894	-0.419	-0.139
-563.558	149.747	0.197	0.265
-562.544	97.580	-0.023	0.027
-561.529	-52.936	-0.110	0.051
-560.515	-6.631	0.052	0.035
-559.500	137.550	-0.039	0.050
-558.485	-200.000	0.021	-0.177
-557.471	800.000	0.076	0.220
-556.456	-200.000	0.044	0.271
-555.442	122.097	-0.166	-0.207
-554.427	-109.069	0.095	-0.020
-553.412	455.407	-0.083	0.184
-552.398	-159.141	0.118	0.007
-551.383	-72.683	-0.225	-0.083
-550.369	431.909	-0.072	0.156
-549.354	800.000	0.053	0.169
-548.339	-200.000	-0.032	0.296
-547.325	217.597	-0.172	0.273
-546.310	-178.912	-0.041	-0.001
-545.296	-200.000	0.011	-0.495
-544.281	800.000	-0.029	0.084
-543.266	-103.504	0.314	0.074
-542.252	440.046	0.134	-0.292
-541.237	-121.932	-0.324	-0.053
-540.223	-200.000	-0.028	-0.219
-539.208	223.621	-0.099	0.159
-538.193	800.000	-0.044	0.128
-537.179	218.142	-0.086	-0.137
-536.164	-200.000	-0.003	-0.228
-535.150	472.390	0.191	-0.429
-534.135	-90.482	-0.053	0.015
-533.121	182.819	0.083	-0.122
-532.106	-3.223	-0.326	0.226
-531.091	6.716	0.113	0.084
-530.077	-98.949	-0.208	0.053
-529.062	-93.454	-0.243	0.067
-528.048	338.055	0.047	0.091
-527.033	800.000	0.032	0.106
-526.018	-200.000	-0.312	0.001
-525.004	-143.217	-0.077	-0.007
-523.989	-200.000	0.020	-0.173
-522.975	-200.000	0.069	0.337
-521.960	34.897	0.114	-0.099
-520.945	141.617	0.265	0.349
-519.931	-83.939	-0.081	0.026
-518.916	-41.261	0.052	-0.027
-517.902	-200.000	0.003	-0.036
-516.887	272.689	0.163	-0.286
-515.872	-63.512	-0.179	0.073
-514.858	-200.000	-0.064	0.580
-513.843	31.885	0.197	0.168
-512.829	800.000	-0.123	0.421
-511.814	-200.000	-0.033	0.264
-510.799	-49.331	-0.048	-0.023
-509.785	192.032	0.113	0.170
-508.770	-164.678	0.343	-0.015
-507.756	372.366	0.090	0.182
-506.741	-200.000	0.006	0.087
-505.726	342.358	-0.129	0.250
-504.712	-25.847	0.293	-0.171
-503.697	411.250	-0.039	-0.082
-502.683	286.376	0.143	0.256
-501.668	-12.859	0.117	-0.076
-500.653	-49.093	0.232	-0.110
-499.639	-149.412	0.243	-0.019
-498.624	800.000	0.041	-0.147
-497.610	279.114	-0.105	-0.187
-496.595	1.868	-0.227	-0.163
-495.581	-200.000	-0.004	0.114
-494.566	216.651	-0.187	0.296
-493.551	800.000	0.027	0.113
-492.537	-80.003	-0.303	-0.101
-491.522	238.801	0.251	0.414
-490.508	-138.652	-0.298	0.032
-489.493	158.768	-0.082	0.113
-488.478	272.680	-0.028	0.049
-487.464	124.066	0.194	-0.242
-486.449	100.809	-0.288	0.332
-485.435	439.037	0.035	-0.075
-484.420	-105.252	0.134	0.030
-483.405	249.916	0.157	0.265
-482.391	54.099	0.161	0.153
-481.376	-25.800	0.067	0.039
-480.362	-16.629	-0.316	-0.199
-479.347	-101.835	-0.144	0.035
-478.332	-84.389	0.108	0.034
-477.318	160.789	-0.129	0.178
-476.303	73.282	-0.393	-0.408
-475.289	-55.867	0.330	-0.146
-474.274	54.467	-0.082	0.078
-473.259	600.432	0.054	0.134
-472.245	-200.000	0.009	0.082
-471.230	-95.994	-0.186	0.049
-470.216	-23.175	-0.132	0.079
-469.201	0.435	0.117	0.083
-468.186	800.000	-0.038	0.113
-467.172	-78.842	0.294	0.100
-466.157	-24.236	-0.280	-0.166
-465.143	-36.231	0.078	0.042
-464.128	-35.806	0.039	0.021
-463.113	-132.708	-0.083	0.010
-462.099	422.083	-0.076	0.161
-461.084	-165.578	0.142	-0.006
-460.070	-37.526	0.234	-0.124
-459.055	184.822	0.152	-0.224
-458.040	11.366	-0.159	-0.121
-457.026	-91.304	0.235	0.067
-456.011	32.206	-0.106	0.091
-454.997	-200.000	-0.045	-0.401
-453.982	-200.000	-0.020	-0.282
-452.968	-200.000	0.021	0.451
-451.953	-200.000	-0.003	0.137
-450.938	-75.897	-0.287	0.101
-449.924	-68.760	0.092	-0.035
-448.909	-200.000	0.208	0.000
-447.895	392.647	0.060	-0.125
-446.880	217.128	0.227	-0.358
-445.865	38.146	-0.156	-0.137
-444.851	-200.000	-0.024	-0.139
-443.836	174.709	0.081	-0.117
-442.822	227.985	-0.044	-0.070
-441.807	-24.748	-0.111	-0.065
-440.792	-84.115	-0.170	-0.053
-439.778	800.000	0.045	-0.182
-438.763	-175.039	0.421	-0.012
-437.749	13.685	-0.242	0.186
-436.734	-200.000	0.002	-0.134
-435.719	-102.802	0.140	-0.033
-434.705	87.237	0.183	-0.201
-433.690	228.167	0.177	0.286
-432.676	-81.202	0.090	0.029
-431.661	92.473	-0.069	-0.077
-430.646	800.000	-0.077	0.219
-429.632	-137.079	-0.114	-0.013
-428.617	-200.000	-0.008	0.127
-427.603	28.892	-0.300	0.252
-426.588	-43.434	0.195	-0.098
-425.573	212.437	-0.053	0.083
-424.559	800.000	-0.103	0.348
-423.544	-200.000	0.087	-0.450
-422.530	362.781	0.012	-0.025
-421.515	-124.318	-0.377	-0.058
-420.500	-200.000	0.026	0.216
-419.486	-115.037	0.547	-0.103
-418.471	-34.414	-0.251	0.137
-417.457	-200.000	-0.008	-0.252
-416.442	498.687	-0.047	0.107
-415.428	155.089	0.176	0.240
-414.413	160.228	0.141	0.194
-413.398	-18.694	-0.122	-0.075
-412.384	-109.084	0.315	0.066
-411.369	-65.283	0.173	0.069
-410.355	-200.000	-0.022	-0.249
-409.340	-106.750	-0.317	0.070
-408.325	121.353	-0.126	-0.156
-407.311	-200.000	-0.031	-0.177
-406.296	107.635	-0.098	-0.115
-405.282	-200.000	-0.045	0.242
-404.267	1.832	0.123	0.088
-403.252	56.637	-0.050	-0.048
-402.238	-200.000	0.024	-0.443
-401.223	39.153	-0.259	-0.230
-400.209	30.010	0.150	0.126
-399.194	-200.000	0.002	0.136
-398.179	-6.899	0.016	0.011
-397.165	-72.887	0.425	0.155
-396.150	61.893	0.104	-0.102
-395.136	-160.937	-0.391	0.020
-394.121	-200.000	-0.015	-0.417
-393.106	-91.845	-0.243	0.068
-392.092	3.724	0.052	-0.038
-391.077	800.000	0.040	0.163
-390.063	-161.727	-0.155	0.008
-389.048	-200.000	0.001	0.048
-388.033	-198.734	-0.115	-0.001
-387.019	241.349	0.098	0.162
-386.004	80.597	0.107	0.114
-384.990	709.316	-0.101	0.265
-383.975	-98.238	0.213	0.054
-382.960	-200.000	-0.045	-0.380
-381.946	-92.057	0.154	0.043
-380.931	-130.740	-0.060	-0.008
-379.917	123.523	-0.106	0.131
-378.902	686.498	0.035	-0.091
-377.888	-133.863	-0.205	0.025
-376.873	115.843	0.238	-0.288
-375.858	-26.810	-0.163	-0.094
-374.844	63.639	0.075	0.075
-373.829	-35.483	-0.248	-0.133
-372.815	228.871	0.149	0.241
-371.800	-200.000	0.028	0.280
-370.785	-93.760	-0.100	0.027
-369.771	256.104	0.073	0.125
-368.756	8.563	-0.283	0.210
-367.742	800.000	-0.037	-0.154
-366.727	59.884	0.062	-0.060
-365.712	42.837	-0.179	-0.161
-364.698	202.170	-0.051	0.077
-363.683	-39.273	-0.128	0.066
-362.669	-200.000	0.290	0.000
-361.654	701.542	0.097	-0.253
-360.639	123.224	0.152	0.189
-359.625	300.866	0.079	0.144
-358.610	75.030	-0.302	-0.315
-357.596	-97.995	0.197	-0.050
-356.581	-117.713	0.118	0.021
-355.566	238.666	0.146	0.240
-354.552	157.375	0.128	-0.175
-353.537	-200.000	0.004	-0.085
-352.523	-67.540	-0.114	-0.044
-351.508	608.838	-0.074	0.183
-350.493	-125.794	-0.043	0.006
-349.479	248.046	-0.049	0.082
-348.464	-77.294	-0.254	0.087
-347.450	78.130	0.155	-0.163
-346.435	183.794	0.180	0.264
-345.420	319.286	-0.195	0.365
-344.406	-31.812	0.163	0.090
-343.391	-200.000	-0.014	0.233
-342.377	379.256	-0.163	-0.330
-341.362	21.260	-0.317	0.254
-340.348	800.000	0.203	-0.571
-339.333	-18.827	-0.130	-0.080
-338.318	-24.266	-0.135	-0.079
-337.304	519.327	0.151	0.349
-336.289	-185.477	0.130	0.002
-335.275	-200.000	0.016	-0.219
-334.260	-81.386	-0.304	-0.099
-333.245	-99.057	0.257	0.064
-332.231	-24.034	-0.146	0.086
-331.216	28.768	0.121	0.101
-330.202	371.126	-0.037	-0.074
-329.187	213.225	0.067	0.104
-328.172	194.203	-0.181	-0.270
-327.158	217.714	0.182	-0.286
-326.143	371.259	-0.134	0.268
-325.129	-66.330	-0.113	-0.044
-324.114	-60.032	0.272	-0.115
-323.099	-71.796	-0.043	0.016
-322.085	-200.000	-0.024	0.126
-321.070	800.000	-0.086	-0.249
-320.056	-200.000	0.005	-0.190
-319.041	0.417	0.054	-0.038
-318.026	29.689	0.190	-0.159
-317.012	500.447	-0.116	0.263
-315.997	481.354	-0.189	0.422
-314.983	-48.010	0.073	0.035
-313.968	316.616	0.108	-0.202
-312.953	285.597	-0.044	0.079
-311.939	225.188	-0.154	0.246
-310.924	-185.197	0.138	-0.002
-309.910	205.394	0.231	0.354
-308.895	347.649	-0.057	0.112
-307.880	-200.000	0.052	0.280
-306.866	-122.227	0.113	-0.018
-305.851	50.048	-0.205	0.191
-304.837	800.000	0.079	-0.325
-303.822	182.117	0.143	0.207
-302.807	-200.000	-0.004	0.037
-301.793	9.573	-0.166	-0.124
-300.778	-133.498	-0.149	-0.018
-299.764	-89.978	0.209	0.060
-298.749	-200.000	-0.041	0.202
-297.735	800.000	-0.039	0.140
-296.720	-56.157	-0.248	0.109
-295.705	800.000	0.028	-0.079
-294.691	-42.805	0.345	0.173
-293.676	303.994	-0.108	0.197
-292.662	-200.000	0.012	0.091
-291.647	-118.759	-0.060	0.010
-290.632	90.971	-0.421	-0.465
-289.618	15.739	-0.315	-0.244
-288.603	424.200	0.132	0.281
-287.589	337.932	0.026	-0.051
-286.574	19.147	0.109	0.087
-285.559	-86.627	0.159	0.048
-284.545	-59.720	0.143	0.060
-283.530	647.442	-0.049	-0.122
-282.516	486.598	0.163	-0.367
-281.501	52.856	-0.115	0.109
-280.486	-200.000	-0.035	-0.259
-279.472	-172.396	-0.246	-0.008
-278.457	-200.000	-0.038	-0.351
-277.443	-77.639	0.198	-0.067
-276.428	-100.063	0.173	0.043
-275.413	-200.000	0.001	-0.046
-274.399	69.198	-0.144	-0.146
-273.384	-102.202	0.225	0.053
-272.370	-60.904	-0.145	0.061
-271.355	-131.928	-0.188	-0.024
-270.340	-139.861	0.139	-0.014
-269.326	-80.028	0.172	-0.057
-268.311	-95.554	0.400	0.106
-267.297	-200.000	-0.048	0.410
-266.282	800.000	0.071	-0.263
-265.267	-200.000	0.007	0.104
-264.253	-200.000	-0.080	0.377
-263.238	-100.703	0.196	-0.048
-262.224	-182.446	0.325	0.006
-261.209	-8.909	-0.116	-0.077
-260.195	-154.593	0.438	0.029
-259.180	224.835	0.115	-0.184
-258.165	-78.070	-0.312	-0.106
-257.151	-149.402	0.243	-0.019
-256.136	106.143	-0.065	0.076
-255.122	-62.068	0.112	0.046
-254.107	-200.000	0.018	-0.403
-253.092	240.896	0.177	0.291
-252.078	207.782	-0.256	-0.393
-251.063	-200.000	0.021	0.105
-250.049	-200.000	-0.001	0.309
-249.034	-200.000	0.031	-0.158
-248.019	800.000	-0.023	-0.081
-247.005	800.000	-0.047	-0.145
-245.990	532.331	0.146	-0.339
-244.976	-167.237	0.242	-0.010
-243.961	-100.741	0.187	0.045
-242.946	-3.562	-0.211	0.144
-241.932	800.000	-0.051	-0.204
-240.917	-200.000	0.040	-0.670
-239.903	9.812	-0.265	-0.197
-238.888	-9.760	-0.084	-0.055
-237.873	800.000	-0.081	-0.257
-236.859	-200.000	-0.053	-0.251
-235.844	-200.000	-0.043	0.449
-234.830	-200.000	0.009	-0.252
-233.815	60.560	-0.292	0.284
-232.800	197.349	0.102	0.153
-231.786	800.000	-0.111	-0.316
-230.771	-189.445	0.399	-0.005
-229.757	-32.219	-0.267	0.147
-228.742	-20.005	0.084	-0.051
-227.727	227.793	-0.049	0.078
-226.713	-115.524	0.046	-0.009
-225.698	-183.494	0.177	-0.003
-224.684	-43.931	0.554	0.274
-223.669	-5.110	-0.140	0.095
-222.655	103.080	0.263	-0.303
-221.640	465.225	0.116	0.255
-220.625	-2.475	-0.104	0.072
-219.611	37.842	-0.104	-0.091
-218.596	-200.000	0.005	0.081
-217.582	75.610	-0.143	-0.148
-216.567	-200.000	-0.022	-0.221
-215.552	52.835	-0.164	-0.154
-214.538	800.000	0.038	-0.137
-213.523	-35.773	-0.268	0.143
-212.509	-36.576	-0.387	-0.205
-211.494	31.109	-0.090	0.076
-210.479	-77.487	-0.366	0.125
-209.465	-113.224	0.173	-0.033
-208.450	-56.279	0.176	-0.077
-207.436	68.212	0.066	0.066
-206.421	-38.550	0.023	-0.012
-205.406	-164.693	0.294	0.013
-204.392	-122.123	0.258	0.042
-203.377	133.483	0.099	0.125
-202.363	-20.094	-0.230	0.139
-201.348	-114.462	-0.100	0.019
-200.333	-200.000	-0.034	-0.341
-199.319	100.194	-0.137	0.156
-198.304	-200.000	-0.031	-0.171
-197.290	-200.000	-0.029	0.269
-196.275	38.494	0.196	0.172
-195.260	-175.217	0.215	-0.006
-194.246	380.661	0.045	-0.091
-193.231	-77.439	-0.201	0.068
-192.217	1.396	-0.196	-0.139
-191.202	557.106	0.219	-0.519
-190.187	258.489	0.091	0.154
-189.173	304.611	0.157	0.286
-188.158	-117.610	-0.081	0.014
-187.144	35.240	0.274	0.236
-186.129	-197.905	0.274	-0.002
-185.114	124.472	0.152	-0.188
-184.100	-144.446	0.076	-0.007
-183.085	31.126	-0.117	0.098
-182.071	94.548	0.167	0.186
-181.056	-154.319	0.134	0.009
-180.042	-182.850	0.136	0.002
-179.027	-76.303	-0.263	0.091
-178.012	41.207	0.094	-0.084
-176.998	-115.420	-0.161	-0.030
-175.983	800.000	0.081	-0.329
-174.969	110.799	0.202	-0.238
-173.954	136.805	-0.148	0.190
-172.939	-131.076	-0.387	0.051
-171.925	-200.000	0.000	-0.063
-170.910	109.337	-0.227	0.267
-169.896	29.475	0.176	-0.147
-168.881	594.092	-0.008	0.019
-167.866	800.000	-0.046	-0.127
-166.852	52.020	0.319	0.298
-165.837	-200.000	-0.001	-0.118
-164.823	-71.013	-0.142	0.052
-163.808	-151.371	-0.296	-0.022
-162.793	-200.000	-0.016	0.127
-161.779	-71.310	-0.244	0.090
-160.764	-103.670	0.149	-0.034
-159.750	66.899	-0.124	-0.124
-158.735	38.227	0.155	0.135
-157.720	75.409	-0.201	-0.208
-156.706	395.413	-0.079	0.162
-155.691	53.334	0.317	-0.297
-154.677	-200.000	-0.013	-0.334
-153.662	-118.533	0.202	-0.035
-152.647	166.583	-0.090	-0.125
-151.633	-200.000	-0.029	0.246
-150.618	-107.572	0.155	0.033
-149.604	-98.096	0.129	0.033
-148.589	800.000	0.073	0.211
-147.574	164.659	0.220	0.304
-146.560	24.184	0.033	0.027
-145.545	-7.024	0.224	-0.149
-144.531	-200.000	0.015	0.229
-143.516	82.425	-0.186	-0.198
-142.502	-200.000	0.012	0.110
-141.487	-74.361	0.130	0.046
-140.472	-20.797	-0.278	-0.167
-139.458	-200.000	-0.010	-0.320
-138.443	800.000	-0.029	-0.079
-137.429	-200.000	-0.006	-0.249
-136.414	-29.518	-0.088	-0.049
-135.399	-200.000	0.008	-0.112
-134.385	-9.865	0.098	-0.064
-133.370	308.115	0.141	0.257
-132.356	41.707	-0.350	0.310
-131.341	156.583	-0.112	-0.151
-130.326	800.000	-0.005	0.015
-129.312	-87.004	0.336	0.100
-128.297	263.751	-0.142	0.242
-127.283	-57.661	0.131	-0.056
-126.268	800.000	0.075	0.249
-125.253	259.422	0.067	-0.114
-124.239	720.423	-0.016	0.041
-123.224	-200.000	0.038	0.179
-122.210	-15.719	-0.168	0.105
-121.195	-67.581	0.176	-0.068
-120.180	-200.000	0.060	0.288
-119.166	137.317	-0.078	0.100
-118.151	-28.084	0.270	-0.153
-117.137	562.762	0.037	0.088
-116.122	-18.384	0.253	-0.154
-115.107	197.795	0.166	-0.249
-114.093	52.939	0.287	0.269
-113.078	800.000	0.074	-0.214
-112.064	740.020	0.024	-0.063
-111.049	-200.000	-0.007	0.108
-110.034	-188.384	0.045	0.001
-109.020	-171.121	0.143	-0.005
-108.005	-110.650	-0.267	0.054
-106.991	-73.794	0.222	0.079
-105.976	-66.180	0.140	-0.055
-104.962	-200.000	0.045	0.203
-103.947	-122.474	-0.416	-0.066
-102.932	5.415	0.083	-0.060
-101.918	-131.147	-0.073	-0.010
-100.903	-200.000	0.035	0.285
-99.889	382.250	0.075	-0.150
-98.874	800.000	-0.042	-0.175
-97.859	94.158	0.254	-0.282
-96.845	-200.000	-0.023	-0.196
-95.830	39.350	-0.398	-0.349
-94.816	-115.692	0.088	0.016
-93.801	-200.000	-0.034	-0.160
-92.786	214.710	-0.119	-0.184
-91.772	-156.944	-0.211	-0.013
-90.757	48.412	0.056	-0.051
-89.743	800.000	0.077	-0.265
-88.728	-135.173	-0.203	-0.024
-87.713	356.972	0.169	-0.329
-86.699	-12.631	-0.053	-0.034
-85.684	202.512	0.099	-0.150
-84.670	186.593	-0.318	0.462
-83.655	6.589	-0.028	-0.020
-82.640	-200.000	0.034	-0.168
-81.626	5.384	0.237	-0.171
-80.611	-37.364	0.129	0.068
-79.597	-11.698	0.156	-0.100
-78.582	57.570	0.131	0.125
-77.567	-84.567	0.109	-0.034
-76.553	800.000	-0.033	0.093
-75.538	-27.770	0.236	-0.134
-74.524	-55.510	-0.008	-0.003
-73.509	51.056	-0.067	0.062
-72.494	-162.372	0.086	0.004
-71.480	-200.000	0.076	-0.421
-70.465	53.813	0.077	-0.072
-69.451	622.500	0.057	-0.141
-68.436	-40.230	-0.281	0.143
-67.422	-97.772	0.271	-0.068
-66.407	402.055	0.055	0.113
-65.392	-61.897	-0.391	-0.160
-64.378	-176.565	0.320	0.008
-63.363	-122.700	0.110	0.017
-62.349	531.928	-0.110	-0.255
-61.334	116.931	-0.996	-1.195
-60.319	41.771	0.609	0.539
-59.305	777.417	-0.569	-1.519
-58.290	534.085	0.618	1.430
-57.276	342.628	0.723	1.381
-56.261	-200.000	124.163	642.756
-55.246	411.660	1562.900	3239.808
-54.232	143.068	2721.419	3534.183
-53.217	95.785	2161.768	2409.506
-52.203	34.983	1594.123	1362.580
-51.188	26.534	1338.870	1093.561
-50.173	24.118	1301.573	1048.841
-49.159	51.069	1370.163	1268.414
-48.144	48.626	1381.638	1264.209
-47.130	26.693	1329.958	1087.062
-46.115	23.557	1310.701	1052.702
-45.100	23.282	1306.102	1047.341
-44.086	23.244	1303.262	1044.799
-43.071	23.357	1300.747	1043.410
-42.057	23.265	1298.679	1041.167
-41.042	23.291	1297.303	1040.178
-40.027	23.337	1295.589	1039.028
-39.013	23.300	1293.885	1037.403
-37.998	23.253	1292.153	1035.701
-36.984	23.286	1290.326	1034.388
-35.969	23.455	1288.684	1034.013
-34.954	23.351	1287.584	1032.485
-33.940	23.352	1285.889	1031.092
-32.925	23.442	1284.492	1030.456
-31.911	23.463	1283.233	1029.527
-30.896	23.471	1281.804	1028.382
-29.881	23.482	1280.770	1027.579
-28.867	23.483	1278.950	1026.083
-27.852	23.530	1277.694	1025.305
-26.838	23.543	1276.036	1024.008
-25.823	23.484	1274.862	1022.688
-24.809	23.483	1273.639	1021.661
-23.794	23.471	1272.444	1020.592
-22.779	23.432	1270.998	1019.167
-21.765	23.344	1270.315	1018.070
-20.750	23.394	1268.629	1016.965
-19.736	23.436	1267.273	1016.080
-18.721	23.370	1266.264	1014.853
-17.706	23.356	1264.979	1013.702
-16.692	23.290	1263.764	1012.314
-15.677	23.465	1262.377	1012.157
-14.663	23.137	1261.843	1009.820
-13.648	23.339	1260.376	1009.755
-12.633	23.368	1259.302	1009.024
-11.619	23.250	1258.952	1008.029
-10.604	23.394	1258.018	1008.059
-9.590	23.302	1257.063	1006.735
-8.575	23.340	1255.961	1006.028
-7.560	23.348	1254.885	1005.171
-6.546	23.290	1254.508	1004.499
-5.531	23.271	1253.614	1003.636
-4.517	23.325	1252.645	1003.123
-3.502	23.312	1252.056	1002.542
-2.487	23.399	1250.991	1002.138
-1.473	23.309	1246.811	998.245
-0.458	21.727	1232.354	977.810
0.556	16.950	1216.789	942.607
1.571	13.472	1224.899	929.311
2.586	12.779	1239.822	936.615
3.600	12.932	1227.674	928.214
4.615	9.469	1155.511	855.207
5.629	3.242	1084.589	771.516
6.644	0.401	1067.578	745.317
7.659	0.130	1065.991	742.806
8.673	0.164	1064.890	742.141
9.688	0.037	1063.656	740.589
10.702	0.255	1061.382	740.012
11.717	4.142	1065.701	762.105
12.731	11.172	1074.910	803.396
13.746	15.707	1080.678	830.071
14.761	16.784	1081.384	835.854
15.775	16.103	1079.910	831.284
16.790	15.088	1077.764	824.564
17.804	14.367	1076.401	819.899
18.819	14.136	1075.242	817.807
19.834	13.734	1074.611	815.283
20.848	13.528	1073.797	813.580
21.863	13.305	1072.585	811.497
22.877	13.107	1072.171	810.137
23.892	13.165	1071.289	809.683
24.907	13.044	1070.693	808.569
25.921	13.162	1069.692	808.321
26.936	13.151	1068.867	807.571
27.950	13.113	1067.939	806.615
28.965	13.301	1066.264	806.193
29.980	13.262	1065.426	805.299
30.994	13.350	1064.132	804.679
32.009	13.474	1063.130	804.450
33.023	13.413	1062.089	803.294
34.038	13.342	1061.278	802.266
35.053	13.300	1060.374	801.308
36.067	13.297	1059.511	800.570
37.082	13.341	1058.502	799.953
38.096	13.285	1058.264	799.431
39.111	13.223	1057.757	798.674
40.126	13.308	1055.668	797.437
41.140	13.206	1055.018	796.387
42.155	13.068	1054.093	794.955
43.169	13.199	1052.788	794.526
44.184	13.179	1051.685	793.528
45.199	13.113	1050.732	792.421
46.213	13.157	1049.613	791.722
47.228	13.108	1048.680	790.713
48.242	13.251	1047.408	790.364
49.257	13.280	1046.678	789.882
50.271	13.300	1045.640	789.126
51.286	13.285	1044.687	788.265
52.301	13.224	1043.794	787.231
53.315	13.302	1042.632	786.659
54.330	13.186	1041.756	785.374
55.344	13.322	1040.510	785.010
56.359	13.169	1040.190	783.973
57.374	13.148	1039.272	783.113
58.388	13.063	1038.158	781.802
59.403	13.159	1037.313	781.553
60.417	13.193	1036.747	781.217
61.432	13.127	1035.856	780.163
62.447	13.134	1034.650	779.219
63.461	13.084	1034.466	778.776
64.476	13.116	1033.341	778.012
65.490	13.077	1032.422	777.069
66.505	13.134	1031.577	776.630
67.520	13.071	1031.140	775.938
68.534	13.158	1030.328	775.667
69.549	13.257	1029.408	775.369
70.563	13.048	1029.089	774.079
71.578	13.045	1028.101	773.254
72.593	13.224	1026.857	773.087
73.607	13.072	1026.469	772.015
74.622	13.050	1026.152	771.606
75.636	12.983	1025.598	770.807
76.651	13.031	1024.626	770.232
77.666	12.981	1024.070	769.515
78.680	13.040	1022.976	768.900
79.695	13.066	1022.534	768.621
80.709	13.062	1021.893	768.053
81.724	13.166	1021.301	768.024
82.739	13.189	1020.274	767.290
83.753	13.282	1019.395	766.993
84.768	13.386	1018.612	766.815
85.782	13.254	1018.081	765.737
86.797	13.213	1016.982	764.654
87.812	13.200	1015.964	763.759
88.826	13.332	1014.914	763.512
89.841	13.347	1014.404	763.131
90.855	13.267	1013.501	762.014
91.870	13.457	1012.183	761.831
92.884	13.253	1012.224	760.858
93.899	13.362	1011.090	760.440
94.914	13.378	1010.320	759.864
95.928	13.348	1009.661	759.162
96.943	13.364	1008.873	758.578
97.957	13.281	1007.932	757.421
98.972	13.413	1006.922	757.199
99.987	13.385	1005.661	756.057
101.001	13.199	1005.281	754.854
102.016	13.333	1004.023	754.456
103.030	13.330	1003.816	754.220
104.045	13.314	1002.935	753.416
105.060	13.369	1001.930	752.846
106.074	13.174	1001.211	751.354
107.089	13.257	999.863	750.650
108.103	13.180	999.181	749.723
109.118	13.286	998.148	749.363
110.133	13.159	997.627	748.330
111.147	13.177	996.456	747.467
112.162	13.312	995.590	747.364
113.176	13.280	994.943	746.666
114.191	13.339	994.350	746.420
115.206	13.247	993.715	745.464
116.220	13.243	992.722	744.636
117.235	13.202	991.813	743.702
118.249	13.352	991.020	743.717
119.264	13.395	990.227	743.247
120.279	13.452	989.073	742.570
121.293	13.322	988.173	741.249
122.308	13.279	987.541	740.514
123.322	13.315	986.413	739.767
124.337	13.251	985.713	738.889
125.352	13.322	984.650	738.344
126.366	13.186	983.876	737.091
127.381	13.325	982.158	736.356
128.395	13.408	981.485	736.156
129.410	13.238	980.689	734.738
130.424	13.257	979.820	734.108
131.439	13.216	979.625	733.716
132.454	13.329	978.315	733.169
133.468	13.303	977.658	732.497
134.483	13.205	976.707	731.286
135.497	13.246	976.070	730.927
136.512	13.300	975.082	730.360
137.527	13.419	973.935	729.961
138.541	13.346	973.575	729.305
139.556	13.230	973.141	728.404
140.570	13.417	972.339	728.562
141.585	13.424	971.512	727.911
142.600	13.538	970.152	727.325
143.614	13.553	969.390	726.758
144.629	13.511	968.817	726.081
145.643	13.513	967.640	725.142
146.658	13.446	966.790	724.145
147.673	13.539	965.264	723.345
148.687	13.449	965.228	722.861
149.702	13.485	964.018	722.050
150.716	13.330	963.171	720.674
151.731	13.563	961.895	720.668
152.746	13.396	961.687	719.722
153.760	13.451	961.740	719.941
154.775	13.637	960.441	719.712
155.789	13.604	959.883	719.087
156.804	13.570	959.530	718.612
157.819	13.576	958.907	718.105
158.833	13.668	958.504	718.140
159.848	13.583	957.633	717.057
160.862	13.584	956.231	715.948
161.877	13.528	955.773	715.297
162.892	13.513	954.589	714.284
163.906	13.555	953.593	713.658
164.921	13.590	952.810	713.159
165.935	13.678	951.682	712.631
166.950	13.608	951.050	711.792
167.964	13.632	950.332	711.294
168.979	13.627	949.287	710.429
169.994	13.560	948.895	709.786
171.008	13.577	947.913	709.060
172.023	13.723	946.970	708.917
173.037	13.727	946.477	708.504
174.052	13.768	946.069	708.307
175.067	13.689	945.285	707.321
176.081	13.666	944.842	706.832
177.096	13.706	944.479	706.666
178.110	13.563	944.071	705.688
179.125	13.598	942.723	704.767
180.140	13.747	942.441	705.128
181.154	13.833	941.839	704.982
182.169	13.756	941.499	704.338
183.183	13.720	941.054	703.791
184.198	13.778	939.994	703.183
185.213	13.880	939.217	702.968
186.227	13.775	938.694	702.069
187.242	13.913	938.273	702.278
188.256	14.020	937.061	701.760
189.271	13.927	936.234	700.685
190.286	13.820	935.527	699.646
191.300	13.752	934.647	698.636
192.315	13.665	934.447	698.061
193.329	13.715	934.149	697.987
194.344	13.873	933.288	697.945
195.359	13.808	932.745	697.205
196.373	13.888	931.945	696.881
197.388	13.864	931.721	696.551
198.402	14.141	930.903	697.038
199.417	14.083	930.619	696.523
200.432	13.999	930.082	695.708
201.446	14.148	929.240	695.637
202.461	14.069	929.153	695.182
203.475	14.251	928.286	695.230
204.490	14.093	927.561	693.966
205.504	14.118	926.427	693.162
206.519	14.078	925.611	692.325
207.534	14.201	924.886	692.231
208.548	14.356	924.167	692.275
209.563	14.072	924.144	691.019
210.577	14.162	923.424	690.793
211.592	14.176	923.120	690.561
212.607	14.229	921.773	689.713
213.621	14.204	921.404	689.271
214.636	14.302	920.421	688.881
215.650	14.338	919.822	688.519
216.665	14.388	918.988	688.040
217.680	14.427	918.511	687.785
218.694	14.290	917.771	686.604
219.709	14.346	917.082	686.258
220.723	14.469	916.517	686.281
221.738	14.366	915.811	685.268
222.753	14.334	915.140	684.574
223.767	14.416	914.617	684.461
224.782	14.532	913.824	684.281
225.796	14.442	913.529	683.633
226.811	14.558	912.844	683.532
227.826	14.485	911.770	682.369
228.840	14.422	911.519	681.865
229.855	14.490	910.598	681.391
230.869	14.540	909.773	680.918
231.884	14.372	909.410	679.900
232.899	14.534	908.109	679.530
233.913	14.388	907.778	678.628
234.928	14.380	907.065	678.002
235.942	14.457	906.366	677.732
236.957	14.425	906.207	677.421
237.972	14.490	905.595	677.169
238.986	14.456	904.552	676.193
240.001	14.523	903.865	675.890
241.015	14.526	903.495	675.566
242.030	14.515	902.952	675.056
243.045	14.540	902.218	674.546
244.059	14.575	901.735	674.266
245.074	14.605	900.866	673.679
246.088	14.544	900.528	673.121
247.103	14.647	899.387	672.622
248.117	14.772	899.068	672.830
249.132	14.800	898.435	672.406
250.147	14.905	897.413	672.007
251.161	14.845	896.823	671.263
252.176	14.996	896.333	671.442
253.190	15.096	895.388	671.079
254.205	15.046	894.955	670.492
255.220	14.962	894.454	669.722
256.234	14.952	893.633	669.009
257.249	15.060	893.232	669.081
258.263	15.060	892.435	668.423
259.278	15.009	891.298	667.309
260.293	15.100	890.981	667.375
261.307	15.153	890.391	667.087
262.322	15.160	889.870	666.663
263.336	15.147	889.014	665.914
264.351	15.245	888.107	665.563
265.366	15.387	887.522	665.629
266.380	15.049	887.454	664.179
267.395	15.103	887.272	664.197
268.409	15.044	886.078	663.012
269.424	15.176	885.488	663.036
270.439	15.198	884.341	662.204
271.453	15.142	883.793	661.514
272.468	15.075	883.283	660.809
273.482	15.368	882.617	661.410
274.497	15.253	882.072	660.486
275.512	15.094	881.709	659.530
276.526	15.289	880.834	659.587
277.541	15.273	880.305	659.068
278.555	15.313	880.094	659.009
279.570	15.349	879.200	658.423
280.585	15.378	878.494	657.952
281.599	15.352	877.652	657.159
282.614	15.374	877.061	656.744
283.628	15.342	876.634	656.240
284.643	15.421	875.879	655.926
285.657	15.297	875.321	654.968
286.672	15.456	874.542	654.948
287.687	15.404	873.727	654.076
288.701	15.419	873.321	653.774
289.716	15.482	872.601	653.421
290.730	15.554	872.367	653.466
291.745	15.448	872.011	652.732
292.760	15.636	871.005	652.650
293.774	15.612	870.073	651.801
294.789	15.576	870.000	651.550
295.803	15.540	868.799	650.454
296.818	15.530	868.724	650.298
297.833	15.614	867.535	649.678
298.847	15.588	867.224	649.285
299.862	15.656	866.522	648.965
300.876	15.699	865.995	648.681
301.891	15.728	865.368	648.263
302.906	15.822	864.537	647.948
303.920	15.791	864.603	647.819
304.935	15.713	863.834	646.887
305.949	15.657	863.667	646.487
306.964	15.876	862.562	646.446
307.979	15.823	861.911	645.697
308.993	15.794	861.597	645.294
310.008	15.803	860.944	644.780
311.022	15.792	860.487	644.341
312.037	15.740	859.963	643.692
313.052	15.849	859.016	643.341
314.066	15.700	858.728	642.502
315.081	15.755	858.211	642.267
316.095	15.750	857.341	641.540
317.110	15.876	856.786	641.549
318.125	15.795	856.502	640.968
319.139	15.963	855.723	640.967
320.154	15.909	855.719	640.703
321.168	15.885	855.106	640.099
322.183	15.939	854.301	639.642
323.197	15.933	853.821	639.206
324.212	15.934	853.506	638.914
325.227	15.867	852.667	637.979
326.241	15.891	852.143	637.620
327.256	15.990	851.247	637.267
328.270	15.948	850.875	636.773
329.285	15.981	850.544	636.593
330.300	15.804	850.024	635.479
331.314	16.012	849.093	635.512
332.329	15.994	848.837	635.196
333.343	16.051	848.441	635.060
334.358	16.025	848.002	634.577
335.373	16.033	847.608	634.255
336.387	16.081	847.275	634.131
337.402	16.048	846.761	633.566
338.416	16.178	846.711	633.963
339.431	16.249	845.952	633.603
340.446	16.344	845.851	633.826
341.460	16.322	845.555	633.468
342.475	16.296	845.019	632.912
343.489	16.334	844.373	632.515
344.504	16.408	844.051	632.496
345.519	16.363	843.365	631.755
346.533	16.456	842.635	631.501
347.548	16.491	842.196	631.247
348.562	16.313	841.951	630.344
349.577	16.417	841.295	630.184
350.592	16.298	840.832	629.338
351.606	16.378	840.093	629.025
352.621	16.399	838.838	628.110
353.635	16.305	838.713	627.611
354.650	16.425	837.828	627.340
355.665	16.468	837.352	627.084
356.679	16.394	836.872	626.398
357.694	16.507	835.782	625.943
358.708	16.588	835.367	625.876
359.723	16.542	834.781	625.213
360.738	16.504	834.524	624.824
361.752	16.363	834.007	623.860
362.767	16.529	833.223	623.833
363.781	16.609	832.873	623.811
364.796	16.613	832.306	623.346
365.810	16.672	831.866	623.178
366.825	16.636	831.510	622.724
367.840	16.638	831.298	622.518
368.854	16.676	830.527	622.026
369.869	16.743	830.224	621.988
370.883	16.772	829.775	621.704
371.898	16.782	829.539	621.506
372.913	16.792	829.007	621.089
373.927	16.874	828.347	620.841
374.942	16.579	827.980	619.431
375.956	16.898	827.493	620.179
376.971	16.862	827.226	619.792
377.986	17.090	826.163	619.774
379.000	17.023	825.865	619.253
380.015	17.060	825.619	619.149
381.029	16.870	824.939	617.891
382.044	17.071	824.202	618.017
383.059	16.991	823.806	617.372
384.073	16.964	823.374	616.897
385.088	17.035	822.791	616.663
386.102	17.064	822.131	616.217
387.117	16.950	821.657	615.396
388.132	17.114	820.844	615.326
389.146	17.109	820.417	614.933
390.161	17.044	820.075	614.387
391.175	17.096	819.335	613.966
392.190	17.148	818.974	613.829
393.205	17.168	818.286	613.331
394.219	17.121	818.474	613.248
395.234	17.091	817.984	612.718
396.248	17.175	817.349	612.493
397.263	17.031	817.297	611.880
398.278	17.072	816.593	611.446
399.292	17.239	815.662	611.298
400.307	17.093	815.560	610.639
401.321	17.186	815.185	610.641
402.336	17.162	814.826	610.232
403.350	17.146	814.404	609.803
404.365	17.334	813.927	610.068
405.380	17.311	813.288	609.451
406.394	17.330	812.750	609.063
407.409	17.326	812.620	608.898
408.423	17.261	812.367	608.422
409.438	17.317	811.558	607.959
410.453	17.379	811.408	608.016
411.467	17.403	810.822	607.609
412.482	17.575	810.139	607.658
413.496	17.470	809.912	607.057
414.511	17.495	809.892	607.080
415.526	17.582	808.894	606.586
416.540	17.595	808.722	606.452
417.555	17.451	808.187	605.482
418.569	17.497	807.937	605.406
419.584	17.532	807.347	605.034
420.599	17.662	806.720	604.972
421.613	113.590	1298.826	1487.088
422.628	98.094	1370.489	1487.179
