DTS Sentinel unit serial number:	SN413079Multiplexer serial number:	ORYXHardware model number:	OX4-SRSoftware version number:	ORYX F/W v4.00 Oryx Data Collector v3.7.2.0data status	okinstallation	princeton_trtdifferential loss correction	single-endedforward channel	channel 1reverse channel	N/Adate	2019/09/12time	10:28:11forward acquisition time	60.00reverse acquisition time	0.00gamma	496.2192k internal	0.2298k external	0.2298temperature offset calibration	1.0049default loss term (dB/km)	0.3790temperature slope calibration	1.0000multiplexer offset coefficient	1.0000multiplexer slope coefficient	1.0000fibre end	0.00T internal ref (°C)	37.00T ext. ref 1 (°C)	1.89T ext. ref 2 (°C)	34.67length (m)	temperature (°C)	Stokes	anti-Stokes-747.200	-200.000	0.015	0.095
-746.185	-114.347	0.421	0.083
-745.171	230.650	-0.110	0.184
-744.156	-200.000	-0.000	0.354
-743.142	-200.000	0.016	0.265
-742.127	800.000	-0.089	0.281
-741.112	455.112	-0.056	-0.127
-740.098	-42.185	-0.152	0.079
-739.083	-200.000	0.048	-0.256
-738.069	-200.000	0.009	0.317
-737.054	800.000	-0.111	0.407
-736.039	-3.215	-0.183	-0.130
-735.025	-200.000	0.044	0.256
-734.010	231.376	0.077	0.129
-732.996	-200.000	-0.027	-0.256
-731.981	-6.566	0.260	0.181
-730.966	168.799	0.046	0.068
-729.952	14.579	0.161	0.128
-728.937	-72.784	-0.273	-0.102
-727.923	124.811	-0.251	-0.323
-726.908	-89.640	-0.120	0.036
-725.894	-25.786	0.090	-0.054
-724.879	-36.232	-0.230	-0.126
-723.864	14.502	0.185	0.147
-722.850	113.181	-0.085	0.105
-721.835	11.607	0.213	0.166
-720.821	324.611	-0.097	-0.189
-719.806	-98.272	-0.031	0.008
-718.791	800.000	0.066	0.221
-717.777	-200.000	-0.048	0.265
-716.762	12.830	-0.079	-0.063
-715.748	-200.000	-0.002	-0.056
-714.733	704.613	-0.070	-0.188
-713.718	7.391	-0.078	-0.059
-712.704	-9.240	0.156	-0.106
-711.689	-72.549	-0.225	-0.085
-710.675	800.000	-0.031	0.111
-709.660	800.000	0.098	0.401
-708.645	273.003	-0.097	0.174
-707.631	-42.803	0.127	0.066
-706.616	484.424	0.103	0.238
-705.602	456.131	-0.063	-0.143
-704.587	-200.000	-0.015	0.328
-703.572	181.454	-0.072	-0.108
-702.558	-200.000	0.011	0.132
-701.543	19.637	0.281	0.231
-700.529	800.000	0.041	-0.183
-699.514	-85.118	0.194	-0.062
-698.499	800.000	0.153	-0.518
-697.485	-135.757	-0.295	-0.036
-696.470	-147.910	-0.319	-0.027
-695.456	-101.718	-0.251	0.062
-694.441	112.466	-0.159	0.196
-693.426	-97.972	0.393	-0.103
-692.412	-80.788	-0.303	-0.102
-691.397	-131.857	0.281	0.037
-690.383	-88.567	-0.121	0.037
-689.368	800.000	0.083	-0.273
-688.354	-200.000	0.008	-0.074
-687.339	800.000	-0.042	0.134
-686.324	-41.919	-0.226	-0.118
-685.310	-126.920	-0.383	-0.057
-684.295	-113.648	-0.197	-0.039
-683.281	-151.742	0.453	0.034
-682.266	-49.280	-0.112	0.055
-681.251	220.963	-0.110	0.179
-680.237	392.771	0.041	-0.087
-679.222	-130.821	-0.244	0.033
-678.208	-119.202	-0.102	-0.018
-677.193	51.413	0.184	0.178
-676.178	29.090	0.242	0.209
-675.164	-13.445	0.133	-0.088
-674.149	121.302	0.265	-0.336
-673.135	-81.284	-0.197	-0.066
-672.120	-36.772	-0.208	0.113
-671.105	37.975	0.090	0.082
-670.091	40.927	-0.200	0.184
-669.076	69.238	0.260	-0.272
-668.062	-200.000	0.049	0.261
-667.047	-40.499	0.235	0.124
-666.032	22.093	-0.067	0.056
-665.018	-98.508	0.168	-0.044
-664.003	-148.579	0.265	0.022
-662.989	-200.000	0.015	-0.253
-661.974	-200.000	0.019	0.319
-660.959	800.000	0.081	0.249
-659.945	9.641	-0.115	-0.089
-658.930	-35.751	0.103	0.057
-657.916	-5.353	-0.211	-0.148
-656.901	-56.146	0.250	-0.113
-655.886	-196.928	0.221	0.001
-654.872	-2.817	0.239	-0.170
-653.857	400.230	0.187	-0.399
-652.843	-112.256	-0.458	-0.093
-651.828	207.342	0.214	0.340
-650.814	-49.696	0.108	-0.052
-649.799	243.854	-0.169	0.288
-648.784	-117.256	0.116	-0.021
-647.770	68.899	0.061	0.063
-646.755	-60.721	-0.227	0.098
-645.741	-200.000	0.020	-0.146
-644.726	-73.738	-0.122	-0.045
-643.711	800.000	-0.080	0.283
-642.697	-34.323	0.068	0.038
-641.682	206.571	-0.082	-0.130
-640.668	800.000	0.043	-0.122
-639.653	49.443	-0.108	0.104
-638.638	-88.205	-0.254	0.077
-637.624	800.000	-0.029	-0.104
-636.609	-177.193	0.061	-0.002
-635.595	-152.635	-0.252	-0.018
-634.580	-197.868	-0.495	-0.003
-633.565	181.649	-0.352	0.527
-632.551	126.525	0.133	-0.171
-631.536	149.029	-0.094	-0.130
-630.522	638.807	0.087	-0.226
-629.507	40.185	-0.327	-0.298
-628.492	800.000	0.049	0.139
-627.478	-200.000	-0.014	0.090
-626.463	484.440	-0.065	0.149
-625.449	660.938	-0.139	-0.363
-624.434	-128.900	0.428	-0.061
-623.419	-35.500	-0.436	-0.241
-622.405	-200.000	-0.006	0.179
-621.390	-120.176	0.375	0.065
-620.376	110.450	-0.111	0.135
-619.361	-88.176	0.127	0.039
-618.346	800.000	0.039	-0.159
-617.332	288.956	0.061	-0.112
-616.317	800.000	-0.119	0.376
-615.303	382.312	0.161	-0.335
-614.288	117.732	-0.365	-0.456
-613.273	-50.299	0.353	-0.170
-612.259	-59.252	-0.185	-0.081
-611.244	-56.190	-0.120	0.054
-610.230	221.923	0.070	0.114
-609.215	-87.430	0.158	0.049
-608.201	-200.000	-0.037	-0.381
-607.186	254.223	0.111	-0.192
-606.171	-150.672	-0.326	0.025
-605.157	331.919	-0.090	-0.176
-604.142	295.455	0.055	-0.102
-603.128	-43.080	-0.048	0.024
-602.113	-46.726	0.193	-0.096
-601.098	399.507	-0.108	0.229
-600.084	-71.909	0.415	0.157
-599.069	86.792	-0.055	0.061
-598.055	-200.000	-0.008	-0.162
-597.040	-200.000	-0.002	0.349
-596.025	87.826	-0.165	0.186
-595.011	662.911	-0.064	-0.167
-593.996	-200.000	-0.026	-0.122
-592.982	379.301	0.129	0.269
-591.967	20.422	-0.190	-0.156
-590.952	-158.232	-0.090	0.005
-589.938	-91.915	-0.300	0.086
-588.923	-65.143	0.110	0.045
-587.909	-31.471	0.058	-0.033
-586.894	281.804	0.082	0.149
-585.879	-80.391	0.142	0.048
-584.865	429.277	-0.082	-0.179
-583.850	-87.283	-0.298	0.092
-582.836	318.262	0.189	0.363
-581.821	-200.000	-0.006	-0.087
-580.806	800.000	0.052	0.194
-579.792	153.515	0.222	-0.308
-578.777	-200.000	-0.009	-0.326
-577.763	-22.242	0.149	0.092
-576.748	800.000	0.019	-0.084
-575.733	800.000	-0.117	-0.349
-574.719	-118.071	0.104	-0.019
-573.704	-91.833	0.227	-0.065
-572.690	103.069	-0.194	0.230
-571.675	125.406	-0.072	0.092
-570.661	-78.087	0.150	-0.052
-569.646	-60.478	-0.084	-0.036
-568.631	606.633	-0.042	-0.106
-567.617	-185.696	0.451	-0.007
-566.602	800.000	-0.029	0.109
-565.588	-200.000	0.008	0.038
-564.573	-117.325	-0.413	0.076
-563.558	-21.801	0.224	-0.138
-562.544	-154.017	0.131	0.009
-561.529	-54.202	-0.354	-0.163
-560.515	-200.000	-0.007	-0.139
-559.500	-33.876	-0.304	0.170
-558.485	642.485	0.018	0.047
-557.471	-139.134	-0.201	-0.022
-556.456	165.397	0.109	0.156
-555.442	-200.000	-0.026	0.474
-554.427	69.819	-0.042	-0.044
-553.412	-162.549	0.207	0.010
-552.398	-62.850	0.232	-0.097
-551.383	256.253	-0.047	0.081
-550.369	-34.725	-0.215	0.119
-549.354	-53.393	-0.372	0.173
-548.339	-200.000	0.006	0.078
-547.325	-180.899	0.133	-0.003
-546.310	101.154	0.060	-0.071
-545.296	-173.774	0.155	-0.005
-544.281	-200.000	-0.044	-0.202
-543.266	468.448	0.047	0.108
-542.252	39.915	0.103	-0.093
-541.237	216.568	0.205	-0.331
-540.223	0.933	0.141	-0.103
-539.208	-49.793	-0.251	0.121
-538.193	-169.715	0.224	-0.008
-537.179	-19.060	0.117	0.073
-536.164	50.584	-0.040	-0.038
-535.150	-176.892	-0.014	-0.000
-534.135	-10.123	0.186	0.125
-533.121	-46.411	0.326	0.162
-532.106	-115.044	0.386	-0.074
-531.091	-200.000	-0.043	-0.236
-530.077	-200.000	-0.024	-0.206
-529.062	699.234	0.103	-0.274
-528.048	-116.977	-0.357	-0.066
-527.033	176.466	0.023	-0.034
-526.018	162.583	0.119	0.168
-525.004	9.469	-0.171	-0.131
-523.989	322.508	-0.166	-0.320
-522.975	-19.158	-0.330	-0.208
-521.960	222.696	-0.124	0.202
-520.945	424.149	0.075	-0.163
-519.931	-118.379	-0.112	0.020
-518.916	144.533	0.195	0.263
-517.902	-200.000	-0.046	-0.268
-516.887	486.434	0.156	-0.359
-515.872	-120.507	0.423	-0.073
-514.858	-200.000	-0.012	-0.186
-513.843	163.748	-0.164	-0.233
-512.829	-130.631	0.279	0.038
-511.814	152.709	-0.228	0.316
-510.799	-87.066	0.268	0.083
-509.785	-112.844	-0.301	0.060
-508.770	800.000	-0.022	-0.073
-507.756	229.586	-0.201	-0.332
-506.741	-150.165	-0.122	-0.010
-505.726	800.000	0.049	-0.170
-504.712	-82.092	0.246	-0.081
-503.697	-200.000	-0.026	0.168
-502.683	119.892	-0.191	0.240
-501.668	162.660	-0.170	-0.241
-500.653	-200.000	-0.012	0.066
-499.639	31.414	-0.060	-0.052
-498.624	-153.721	0.178	-0.012
-497.610	382.744	0.110	-0.229
-496.595	-140.140	0.187	0.020
-495.581	-79.206	-0.145	0.050
-494.566	-101.779	0.170	0.042
-493.551	800.000	0.057	-0.188
-492.537	-116.360	0.275	0.051
-491.522	-139.891	0.233	0.025
-490.508	-200.000	-0.021	0.139
-489.493	543.250	-0.153	-0.368
-488.478	246.531	-0.181	-0.308
-487.464	239.361	0.130	-0.219
-486.449	38.726	-0.291	-0.262
-485.435	-75.447	-0.082	0.030
-484.420	26.101	0.129	0.109
-483.405	-82.292	-0.187	0.061
-482.391	-200.000	0.055	0.429
-481.376	46.912	-0.084	-0.079
-480.362	-16.092	0.230	0.147
-479.347	-200.000	0.007	-0.193
-478.332	10.327	-0.306	-0.235
-477.318	-145.636	0.079	0.007
-476.303	800.000	-0.073	-0.263
-475.289	-144.761	-0.445	0.041
-474.274	-200.000	-0.030	-0.177
-473.259	146.875	0.155	0.211
-472.245	245.238	-0.068	0.116
-471.230	137.357	0.043	-0.056
-470.216	-197.151	0.337	0.002
-469.201	187.818	-0.138	-0.208
-468.186	-200.000	-0.005	0.112
-467.172	-102.066	0.079	-0.019
-466.157	-200.000	-0.011	0.232
-465.143	-110.406	-0.159	0.033
-464.128	800.000	0.034	-0.119
-463.113	306.882	0.074	0.139
-462.099	188.296	-0.089	-0.134
-461.084	578.373	0.017	0.041
-460.070	-200.000	0.005	-0.226
-459.055	157.222	0.052	-0.073
-458.040	-94.739	0.206	0.056
-457.026	-200.000	-0.008	0.303
-456.011	-36.333	-0.142	0.077
-454.997	74.188	0.241	0.255
-453.982	-34.922	-0.188	-0.104
-452.968	4.619	-0.035	-0.026
-451.953	-200.000	0.015	0.246
-450.938	-200.000	0.036	-0.439
-449.924	-83.062	-0.106	0.035
-448.909	491.261	-0.097	0.224
-447.895	-39.491	-0.043	0.023
-446.880	-125.624	-0.231	0.035
-445.865	-44.431	-0.066	0.034
-444.851	435.157	-0.141	-0.309
-443.836	96.601	-0.186	-0.215
-442.822	-83.345	-0.399	0.129
-441.807	73.288	-0.187	0.198
-440.792	126.367	0.138	0.176
-439.778	-150.961	0.176	-0.013
-438.763	225.759	0.081	0.132
-437.749	800.000	-0.089	0.352
-436.734	28.687	0.120	0.102
-435.719	-72.650	-0.150	0.056
-434.705	498.587	-0.074	0.171
-433.690	800.000	-0.062	0.177
-432.676	-97.140	-0.295	0.078
-431.661	800.000	0.178	0.545
-430.646	-200.000	-0.070	0.388
-429.632	39.083	0.317	0.286
-428.617	172.271	0.052	-0.075
-427.603	25.031	-0.258	-0.216
-426.588	800.000	-0.088	0.306
-425.573	-6.133	0.295	0.203
-424.559	800.000	-0.018	0.076
-423.544	71.087	0.334	0.349
-422.530	75.281	0.161	-0.171
-421.515	297.398	-0.066	-0.122
-420.500	-111.660	0.185	-0.038
-419.486	-39.286	-0.256	0.135
-418.471	-120.897	-0.118	-0.020
-417.457	-200.000	0.025	0.132
-416.442	49.248	-0.285	0.270
-415.428	-68.229	-0.097	-0.038
-414.413	-98.851	0.249	0.064
-413.398	-123.256	0.055	-0.009
-412.384	-10.820	0.137	0.091
-411.369	-12.285	0.144	-0.095
-410.355	800.000	-0.014	0.048
-409.340	-200.000	-0.030	0.345
-408.325	13.821	0.269	0.210
-407.311	-200.000	0.015	-0.157
-406.296	800.000	-0.070	-0.302
-405.282	-50.688	0.071	-0.034
-404.267	49.028	-0.034	0.033
-403.252	551.125	-0.101	0.243
-402.238	667.802	0.075	0.196
-401.223	-66.889	-0.412	0.164
-400.209	114.917	0.236	0.290
-399.194	287.644	0.044	0.080
-398.179	-117.569	-0.069	0.012
-397.165	-120.099	-0.254	-0.044
-396.150	8.696	-0.180	0.137
-395.136	125.651	0.135	0.172
-394.121	160.787	-0.100	0.141
-393.106	441.350	0.072	0.158
-392.092	83.803	-0.261	0.287
-391.077	-85.055	-0.273	0.086
-390.063	191.908	0.059	-0.090
-389.048	16.060	-0.229	-0.182
-388.033	-84.259	0.300	-0.096
-387.019	-170.293	0.149	0.005
-386.004	148.437	-0.063	0.086
-384.990	36.592	-0.127	-0.113
-383.975	-157.033	0.524	0.032
-382.960	110.861	-0.132	-0.160
-381.946	477.660	0.141	0.321
-380.931	-200.000	0.046	-0.219
-379.917	490.027	-0.080	-0.184
-378.902	10.035	0.147	-0.112
-377.888	42.573	0.252	0.231
-376.873	-178.660	-0.178	0.004
-375.858	-120.832	-0.066	0.011
-374.844	800.000	0.073	0.304
-373.829	800.000	0.080	0.286
-372.815	11.257	-0.272	-0.210
-371.800	279.170	-0.123	0.221
-370.785	451.938	-0.080	0.177
-369.771	-120.990	-0.151	-0.026
-368.756	-49.972	-0.089	0.043
-367.742	800.000	-0.049	0.198
-366.727	-89.071	0.067	0.020
-365.712	-38.642	-0.177	0.094
-364.698	-13.918	-0.250	-0.163
-363.683	77.057	0.172	0.183
-362.669	-200.000	0.009	-0.148
-361.654	-85.770	0.023	0.007
-360.639	112.941	0.198	-0.241
-359.625	-200.000	-0.030	-0.133
-358.610	101.259	-0.122	-0.143
-357.596	-200.000	-0.051	-0.372
-356.581	45.916	-0.084	-0.078
-355.566	7.615	-0.069	-0.052
-354.552	800.000	-0.038	-0.108
-353.537	-200.000	0.012	-0.287
-352.523	661.521	0.068	-0.175
-351.508	-15.543	-0.122	-0.078
-350.493	131.616	0.118	0.153
-349.479	224.533	0.178	-0.289
-348.464	-50.913	-0.148	-0.070
-347.450	-98.744	0.296	-0.076
-346.435	718.075	-0.013	-0.036
-345.420	-200.000	0.044	-0.000
-344.406	-200.000	0.003	0.026
-343.391	800.000	-0.076	-0.231
-342.377	800.000	-0.068	-0.295
-341.362	143.234	0.233	-0.311
-340.348	-0.460	-0.111	0.079
-339.333	397.517	0.132	-0.277
-338.318	-107.284	-0.163	0.036
-337.304	461.479	-0.073	-0.164
-336.289	-140.548	-0.248	-0.026
-335.275	800.000	-0.125	0.351
-334.260	800.000	-0.045	-0.182
-333.245	-159.364	0.021	-0.001
-332.231	-57.943	-0.050	0.022
-331.216	-137.616	-0.176	0.020
-330.202	77.892	0.191	-0.205
-329.187	102.555	0.148	-0.174
-328.172	-188.791	0.174	-0.002
-327.158	-61.260	0.157	-0.066
-326.143	275.661	-0.080	0.142
-325.129	-23.806	-0.073	-0.044
-324.114	163.026	-0.149	-0.210
-323.099	167.247	-0.035	0.050
-322.085	781.954	0.044	0.121
-321.070	-33.939	-0.385	0.213
-320.056	242.272	-0.175	-0.293
-319.041	-66.729	0.179	-0.071
-318.026	309.741	0.018	0.034
-317.012	27.196	0.161	-0.136
-315.997	2.149	-0.145	-0.105
-314.983	-200.000	-0.034	0.211
-313.968	-104.885	0.220	-0.051
-312.953	-133.201	-0.144	0.018
-311.939	60.310	0.187	0.185
-310.924	-200.000	-0.003	-0.052
-309.910	-200.000	-0.017	-0.231
-308.895	373.995	0.058	-0.119
-307.880	-137.599	-0.196	-0.022
-306.866	-200.000	-0.013	0.138
-305.851	800.000	0.047	0.142
-304.837	3.558	0.227	-0.166
-303.822	-200.000	-0.039	-0.175
-302.807	-136.353	0.336	-0.039
-301.793	448.264	0.090	-0.198
-300.778	616.529	-0.112	-0.282
-299.764	-200.000	0.050	-0.447
-298.749	-74.114	0.196	0.071
-297.735	-16.603	0.160	-0.102
-296.720	-200.000	-0.061	-0.306
-295.705	37.637	0.161	0.143
-294.691	87.937	-0.193	0.214
-293.676	-66.943	0.196	0.078
-292.662	-121.008	-0.172	-0.029
-291.647	31.123	0.165	-0.142
-290.632	799.634	0.110	0.304
-289.618	213.463	-0.157	0.249
-288.603	586.147	-0.036	-0.090
-287.589	-51.289	0.050	-0.023
-286.574	-200.000	0.035	-0.191
-285.559	-179.413	-0.314	0.007
-284.545	800.000	-0.117	-0.421
-283.530	800.000	-0.018	-0.074
-282.516	-155.731	-0.461	-0.030
-281.501	479.408	0.151	-0.342
-280.486	-200.000	-0.003	0.177
-279.472	88.228	-0.114	-0.127
-278.457	12.384	-0.285	0.220
-277.443	-92.998	0.145	-0.040
-276.428	449.375	0.105	0.232
-275.413	-200.000	-0.001	-0.072
-274.399	154.788	0.028	-0.038
-273.384	357.263	0.149	-0.298
-272.370	-42.369	-0.097	-0.049
-271.355	69.264	-0.287	0.296
-270.340	-45.906	-0.083	-0.041
-269.326	47.339	0.089	-0.083
-268.311	-67.749	-0.069	0.027
-267.297	-102.391	-0.099	0.024
-266.282	-24.434	0.448	0.267
-265.267	-38.819	0.158	0.083
-264.253	-40.032	-0.056	-0.029
-263.238	-200.000	-0.033	0.170
-262.224	-36.385	-0.020	-0.011
-261.209	-9.648	0.311	0.208
-260.195	-76.796	-0.047	0.016
-259.180	264.242	-0.049	0.086
-258.165	800.000	0.119	-0.380
-257.151	115.754	-0.056	0.069
-256.136	175.911	-0.040	-0.058
-255.122	479.638	0.124	-0.282
-254.107	-123.553	-0.302	0.048
-253.092	800.000	0.022	0.089
-252.078	800.000	-0.016	-0.056
-251.063	800.000	-0.081	0.235
-250.049	-96.661	-0.200	0.053
-249.034	51.339	-0.151	0.144
-248.019	-200.000	-0.026	-0.231
-247.005	-121.183	-0.067	-0.011
-245.990	702.431	-0.099	-0.261
-244.976	-109.773	0.337	0.071
-243.961	604.243	-0.108	0.270
-242.946	-2.317	-0.288	0.202
-241.932	-200.000	-0.011	-0.083
-240.917	-106.014	-0.213	0.048
-239.903	800.000	0.039	-0.154
-238.888	358.141	-0.084	0.167
-237.873	-62.505	0.234	0.097
-236.859	800.000	0.085	0.351
-235.844	717.767	0.083	0.219
-234.830	495.443	0.098	0.226
-233.815	-42.905	0.270	-0.137
-232.800	-68.735	0.301	-0.116
-231.786	117.496	-0.223	0.275
-230.771	19.800	0.272	-0.219
-229.757	111.996	-0.268	0.324
-228.742	-149.659	-0.153	-0.012
-227.727	102.749	0.111	0.130
-226.713	742.979	0.068	0.183
-225.698	96.689	0.260	0.298
-224.684	-132.067	0.291	0.038
-223.669	-117.822	-0.131	-0.023
-222.655	-200.000	0.082	0.372
-221.640	-31.872	-0.162	-0.091
-220.625	-49.408	0.162	0.077
-219.611	-73.894	0.405	-0.147
-218.596	84.063	0.199	-0.218
-217.582	800.000	-0.055	-0.225
-216.567	34.531	0.274	0.240
-215.552	-4.831	0.196	-0.135
-214.538	-200.000	0.001	-0.109
-213.523	85.815	0.151	-0.166
-212.509	-144.712	-0.177	-0.016
-211.494	124.649	0.031	0.039
-210.479	26.108	0.041	-0.034
-209.465	-90.129	0.235	0.068
-208.450	-87.094	0.048	0.015
-207.436	-200.000	-0.036	0.263
-206.421	800.000	-0.035	-0.138
-205.406	-114.234	-0.185	0.036
-204.392	1.447	-0.210	-0.151
-203.377	-165.926	0.191	-0.008
-202.363	164.357	0.159	-0.224
-201.348	-102.367	0.388	-0.093
-200.333	-119.225	0.371	0.065
-199.319	720.518	0.022	-0.059
-198.304	800.000	0.020	-0.058
-197.290	23.451	-0.148	-0.121
-196.275	-101.337	-0.362	-0.088
-195.260	-200.000	-0.003	-0.060
-194.246	50.626	0.128	-0.121
-193.231	-145.280	0.439	0.040
-192.217	24.020	-0.287	0.236
-191.202	117.557	0.127	-0.156
-190.187	-197.200	-0.132	0.001
-189.173	29.858	0.307	-0.261
-188.158	-193.321	0.278	-0.002
-187.144	-50.012	0.166	0.078
-186.129	-164.366	-0.251	-0.011
-185.114	-200.000	0.035	0.173
-184.100	35.365	0.244	0.214
-183.085	240.264	-0.137	-0.228
-182.071	-139.103	0.106	-0.011
-181.056	158.073	-0.167	0.232
-180.042	-200.000	-0.031	0.179
-179.027	106.750	-0.103	0.122
-178.012	-66.460	0.107	0.042
-176.998	-1.026	-0.387	0.274
-175.983	173.483	0.011	-0.016
-174.969	800.000	-0.116	-0.391
-173.954	-152.188	0.291	0.021
-172.939	1.093	0.192	-0.138
-171.925	800.000	0.016	0.061
-170.910	-200.000	0.034	0.216
-169.896	33.029	0.200	0.173
-168.881	-72.395	0.209	-0.077
-167.866	-123.894	-0.135	-0.021
-166.852	422.599	0.236	0.506
-165.837	258.942	-0.169	-0.292
-164.823	-200.000	-0.049	-0.391
-163.808	-29.235	0.427	0.244
-162.793	800.000	-0.104	0.354
-161.779	-187.128	-0.406	-0.006
-160.764	143.329	0.118	0.156
-159.750	169.943	0.146	0.209
-158.735	30.803	-0.134	-0.114
-157.720	-138.449	-0.064	0.007
-156.706	800.000	-0.032	0.114
-155.691	36.120	0.140	0.123
-154.677	31.424	0.086	0.074
-153.662	-124.114	-0.374	0.058
-152.647	56.089	0.101	-0.098
-151.633	-200.000	-0.005	-0.219
-150.618	245.681	-0.162	0.272
-149.604	-10.573	0.248	-0.164
-148.589	74.587	-0.175	-0.184
-147.574	132.558	-0.019	-0.024
-146.560	174.321	-0.260	-0.374
-145.545	-200.000	0.050	-0.222
-144.531	529.659	0.049	-0.116
-143.516	800.000	0.020	0.080
-142.502	-112.401	0.363	-0.072
-141.487	537.662	0.101	-0.240
-140.472	324.762	0.171	-0.326
-139.458	257.105	0.087	-0.150
-138.443	339.032	0.112	0.217
-137.429	463.610	-0.067	-0.150
-136.414	275.467	-0.099	0.175
-135.399	-83.948	0.151	-0.048
-134.385	-103.317	0.466	-0.110
-133.370	-200.000	-0.017	-0.077
-132.356	-16.683	0.144	0.091
-131.341	-7.205	-0.115	0.077
-130.326	-109.276	0.208	-0.044
-129.312	800.000	0.077	0.273
-128.297	-121.986	0.132	-0.022
-127.283	206.289	0.152	0.236
-126.268	-200.000	-0.048	0.268
-125.253	-22.804	0.039	-0.024
-124.239	-200.000	0.000	-0.132
-123.224	-62.235	-0.204	0.085
-122.210	392.310	-0.082	-0.171
-121.195	-163.362	0.252	0.012
-120.180	96.318	0.146	-0.167
-119.166	-63.528	-0.259	-0.106
-118.151	-156.600	-0.295	0.018
-117.137	-132.742	-0.213	0.027
-116.122	800.000	0.062	0.229
-115.107	321.735	0.047	-0.089
-114.093	220.869	0.098	0.156
-113.078	115.883	0.137	0.167
-112.064	-200.000	0.086	0.424
-111.049	297.125	-0.011	-0.021
-110.034	-60.849	0.057	-0.024
-109.020	103.864	-0.133	-0.156
-108.005	-200.000	-0.005	-0.059
-106.991	10.119	0.210	0.159
-105.976	-34.603	0.221	-0.120
-104.962	193.755	-0.206	-0.310
-103.947	-75.200	-0.233	-0.083
-102.932	117.146	-0.103	-0.126
-101.918	156.583	0.043	0.059
-100.903	-47.148	0.235	0.114
-99.889	213.806	-0.044	-0.070
-98.874	243.766	0.096	0.160
-97.859	-88.132	0.176	0.053
-96.845	-93.953	-0.241	-0.066
-95.830	800.000	0.239	-0.672
-94.816	302.504	-0.110	-0.203
-93.801	3.777	-0.232	0.169
-92.786	-24.163	0.097	0.058
-91.772	800.000	-0.075	-0.317
-90.757	-200.000	0.023	-0.121
-89.743	-2.910	0.216	0.150
-88.728	-157.272	0.174	0.010
-87.713	-43.434	-0.255	0.128
-86.699	213.430	0.173	0.272
-85.684	-200.000	0.007	-0.091
-84.670	-200.000	0.015	0.189
-83.655	-73.004	0.303	0.111
-82.640	-200.000	-0.015	-0.301
-81.626	-42.089	-0.099	-0.050
-80.611	-83.291	-0.102	0.033
-79.597	800.000	0.020	-0.066
-78.582	-28.301	-0.112	0.065
-77.567	800.000	0.054	-0.174
-76.553	-200.000	-0.024	0.316
-75.538	-105.022	0.393	-0.089
-74.524	153.788	0.190	0.260
-73.509	10.953	0.218	-0.166
-72.494	-200.000	0.020	0.120
-71.480	-75.861	0.186	0.065
-70.465	800.000	-0.080	0.268
-69.451	-77.762	-0.258	-0.089
-68.436	56.175	0.349	-0.337
-67.422	117.985	-0.128	0.157
-66.407	197.378	-0.172	-0.261
-65.392	-55.058	0.108	0.048
-64.378	-49.633	0.197	-0.093
-63.363	67.669	-0.119	0.121
-62.349	83.338	0.130	0.141
-61.334	126.739	-0.632	-0.796
-60.319	29.323	0.562	0.474
-59.305	-200.000	-0.121	-0.841
-58.290	323.746	0.509	0.965
-57.276	800.000	0.555	1.804
-56.261	-200.000	87.195	498.073
-55.246	448.347	1399.686	3063.874
-54.232	144.447	2614.908	3469.851
-53.217	109.781	2226.038	2652.480
-52.203	47.682	1668.249	1546.801
-51.188	40.255	1398.158	1249.664
-50.173	37.072	1354.331	1190.938
-49.159	56.380	1397.716	1349.802
-48.144	60.646	1416.933	1394.896
-47.130	40.884	1373.994	1231.770
-46.115	37.130	1356.695	1193.189
-45.100	36.933	1351.635	1187.479
-44.086	36.886	1348.984	1184.819
-43.071	36.776	1347.105	1182.448
-42.057	36.710	1344.528	1179.740
-41.042	36.835	1343.043	1179.146
-40.027	36.834	1341.641	1177.862
-39.013	36.923	1339.212	1176.228
-37.998	36.949	1337.490	1174.826
-36.984	37.044	1335.657	1173.742
-35.969	37.030	1333.910	1172.074
-34.954	37.126	1331.706	1170.675
-33.940	36.955	1330.571	1168.596
-32.925	37.025	1329.126	1167.704
-31.911	37.116	1327.513	1166.790
-30.896	37.071	1326.319	1165.425
-29.881	37.189	1324.839	1164.781
-28.867	37.079	1323.496	1162.895
-27.852	37.072	1322.128	1161.606
-26.838	37.194	1320.377	1160.754
-25.823	37.069	1319.496	1159.186
-24.809	37.059	1317.679	1157.482
-23.794	37.004	1316.657	1156.209
-22.779	37.198	1314.372	1155.312
-21.765	37.163	1313.371	1154.178
-20.750	37.071	1311.867	1152.266
-19.736	37.008	1310.848	1150.952
-18.721	36.975	1309.910	1149.883
-17.706	36.990	1308.416	1148.616
-16.692	36.961	1307.353	1147.468
-15.677	36.932	1306.344	1146.363
-14.663	37.008	1305.085	1145.661
-13.648	37.006	1303.962	1144.617
-12.633	36.846	1303.086	1142.860
-11.619	36.900	1301.991	1142.176
-10.604	36.883	1301.133	1141.278
-9.590	36.963	1299.816	1140.545
-8.575	36.878	1298.827	1139.135
-7.560	36.896	1298.205	1138.651
-6.546	36.831	1297.745	1137.820
-5.531	36.828	1296.576	1136.727
-4.517	36.772	1295.993	1135.848
-3.502	36.841	1294.936	1135.277
-2.487	36.848	1293.650	1134.147
-1.473	37.026	1290.030	1131.968
-0.458	36.141	1274.977	1113.605
0.556	32.985	1256.962	1076.205
1.571	29.269	1260.288	1057.678
2.586	28.170	1274.749	1063.339
3.600	26.744	1262.534	1044.843
4.615	18.966	1183.739	937.329
5.629	7.370	1101.278	812.827
6.644	2.340	1079.100	771.076
7.659	1.857	1076.301	766.580
8.673	1.697	1074.522	764.441
9.688	1.657	1073.200	763.232
10.702	1.957	1071.610	763.535
11.717	8.502	1082.270	804.067
12.731	19.391	1098.027	870.988
13.746	24.564	1104.183	901.990
14.761	25.285	1104.252	905.605
15.775	25.145	1103.731	904.392
16.790	24.968	1102.912	902.751
17.804	24.893	1102.251	901.752
18.819	25.005	1102.386	902.347
19.834	25.208	1101.329	902.423
20.848	25.159	1101.236	902.020
21.863	25.133	1100.744	901.405
22.877	25.102	1099.949	900.521
23.892	25.013	1099.506	899.631
24.907	25.131	1098.700	899.481
25.921	25.145	1097.308	898.334
26.936	25.229	1095.661	897.326
27.950	24.952	1094.713	895.084
28.965	24.873	1092.784	893.035
29.980	24.918	1091.134	891.833
30.994	25.276	1090.549	893.057
32.009	25.316	1089.222	892.088
33.023	25.039	1088.033	889.662
34.038	25.062	1087.513	889.274
35.053	25.112	1087.132	889.129
36.067	25.199	1086.016	888.570
37.082	25.268	1085.060	888.049
38.096	25.338	1084.220	887.631
39.111	25.543	1083.565	888.027
40.126	25.295	1082.067	885.501
41.140	24.989	1080.438	882.579
42.155	24.734	1079.249	880.279
43.169	24.727	1078.120	879.244
44.184	24.759	1077.291	878.644
45.199	24.604	1076.775	877.388
46.213	24.730	1075.604	876.970
47.228	25.003	1074.464	877.304
48.242	24.890	1074.450	876.659
49.257	25.206	1072.795	876.778
50.271	25.247	1072.164	876.384
51.286	25.310	1071.490	876.063
52.301	25.308	1070.393	875.078
53.315	25.104	1069.787	873.510
54.330	25.156	1068.812	872.890
55.344	25.103	1068.108	871.984
56.359	24.914	1067.728	870.678
57.374	24.824	1066.202	868.918
58.388	25.016	1065.086	868.861
59.403	24.802	1064.561	867.319
60.417	24.628	1064.175	866.083
61.432	24.715	1063.352	865.762
62.447	24.909	1062.732	866.119
63.461	24.833	1061.830	864.937
64.476	24.906	1060.670	864.269
65.490	24.799	1059.350	862.601
66.505	24.829	1059.060	862.435
67.520	24.820	1058.540	861.892
68.534	24.635	1057.130	859.776
69.549	24.429	1055.999	857.791
70.563	24.346	1055.540	856.942
71.578	24.471	1054.197	856.374
72.593	24.094	1054.093	854.409
73.607	24.308	1053.226	854.656
74.622	24.596	1053.133	855.882
75.636	24.650	1051.771	854.958
76.651	24.478	1051.368	853.734
77.666	24.589	1050.137	853.186
78.680	24.554	1049.559	852.478
79.695	24.639	1049.117	852.448
80.709	24.799	1048.201	852.388
81.724	24.605	1047.776	851.046
82.739	24.684	1047.148	850.837
83.753	25.053	1046.782	852.218
84.768	25.358	1045.828	852.812
85.782	25.442	1044.659	852.187
86.797	25.428	1043.577	851.161
87.812	25.231	1042.695	849.433
88.826	25.264	1041.468	848.514
89.841	25.455	1041.071	849.019
90.855	25.423	1040.420	848.263
91.870	25.390	1039.166	847.007
92.884	25.240	1037.696	845.027
93.899	25.192	1036.651	843.878
94.914	25.438	1036.077	844.491
95.928	25.228	1034.981	842.536
96.943	24.910	1034.075	840.235
97.957	24.811	1032.579	838.482
98.972	24.713	1031.542	837.103
99.987	24.881	1031.375	837.679
101.001	25.153	1030.181	837.906
102.016	25.024	1029.333	836.545
103.030	24.989	1028.626	835.730
104.045	24.915	1027.428	834.340
105.060	24.737	1026.759	832.890
106.074	24.815	1026.037	832.597
107.089	25.039	1025.566	833.180
108.103	24.979	1024.464	831.935
109.118	24.787	1023.068	829.836
110.133	24.831	1021.749	828.896
111.147	24.700	1020.712	827.378
112.162	24.485	1019.846	825.609
113.176	24.729	1019.966	826.758
114.191	24.689	1018.888	825.628
115.206	24.546	1017.310	823.618
116.220	24.373	1016.799	822.334
117.235	24.599	1015.959	822.622
118.249	24.570	1015.211	821.811
119.264	24.442	1013.834	820.035
120.279	24.484	1013.453	819.848
121.293	24.471	1012.948	819.307
122.308	24.574	1011.636	818.643
123.322	24.440	1010.573	817.098
124.337	24.264	1009.268	815.163
125.352	23.756	1007.507	811.351
126.366	23.723	1006.955	810.686
127.381	24.572	1006.708	814.284
128.395	24.980	1006.315	815.756
129.410	25.135	1005.299	815.563
130.424	25.042	1004.814	814.677
131.439	25.074	1003.858	813.975
132.454	25.081	1002.817	813.091
133.468	24.903	1002.234	811.737
134.483	25.059	1001.413	811.708
135.497	25.305	1000.670	812.145
136.512	25.278	999.979	811.392
137.527	25.395	998.643	810.766
138.541	25.194	998.342	809.541
139.556	25.276	997.365	809.046
140.570	25.487	996.905	809.553
141.585	25.569	995.351	808.586
142.600	25.347	994.394	806.742
143.614	25.513	994.374	807.398
144.629	25.597	993.420	806.930
145.643	25.499	991.786	805.093
146.658	25.385	990.544	803.502
147.673	25.296	989.409	802.113
148.687	25.154	988.529	800.694
149.702	24.964	987.639	799.057
150.716	24.948	986.914	798.328
151.731	25.261	986.209	799.079
152.746	25.400	985.680	799.198
153.760	25.390	985.135	798.642
154.775	25.614	983.918	798.579
155.789	25.367	983.613	797.164
156.804	25.485	982.513	796.729
157.819	25.557	981.295	795.987
158.833	25.520	981.047	795.554
159.848	25.595	979.722	794.739
160.862	25.463	978.504	793.096
161.877	25.423	977.568	792.092
162.892	25.591	976.655	792.021
163.906	25.486	975.576	790.617
164.921	25.343	974.690	789.200
165.935	25.512	973.928	789.253
166.950	25.498	972.931	788.316
167.964	25.562	971.645	787.484
168.979	25.150	971.310	785.337
169.994	25.234	970.012	784.586
171.008	25.412	969.688	785.035
172.023	25.550	969.082	785.078
173.037	25.386	967.672	783.150
174.052	25.132	966.629	781.128
175.067	25.327	965.751	781.199
176.081	25.293	965.394	780.695
177.096	25.210	964.802	779.784
178.110	25.104	963.524	778.224
179.125	24.654	963.355	776.066
180.140	24.833	962.997	776.485
181.154	24.988	962.605	776.774
182.169	25.243	962.634	777.834
183.183	25.507	961.869	778.287
184.198	25.342	961.057	776.847
185.213	25.364	960.391	776.338
186.227	25.516	959.371	776.097
187.242	25.486	958.764	775.409
188.256	25.538	957.933	774.895
189.271	25.707	957.177	774.943
190.286	25.254	955.679	771.713
191.300	24.491	954.860	767.704
192.315	23.814	952.787	763.062
193.329	23.888	952.391	762.994
194.344	24.786	953.296	767.509
195.359	25.308	952.939	769.393
196.373	25.311	952.631	769.086
197.388	25.366	951.886	768.655
198.402	25.365	951.329	768.133
199.417	25.399	950.361	767.425
200.432	25.051	949.423	765.117
201.446	24.851	948.857	763.738
202.461	24.996	948.430	763.947
203.475	24.200	946.229	758.719
204.490	23.374	945.038	754.180
205.504	24.259	945.388	758.159
206.519	24.853	945.709	760.878
207.534	25.132	945.020	761.441
208.548	25.536	944.572	762.727
209.563	25.177	943.655	760.397
210.577	25.140	943.093	759.720
211.592	25.421	943.111	760.857
212.607	25.497	942.241	760.410
213.621	25.524	941.507	759.865
214.636	25.513	940.604	759.023
215.650	25.445	939.686	757.924
216.665	25.523	939.195	757.791
217.680	25.502	938.460	757.045
218.694	25.199	937.041	754.557
219.709	25.029	936.531	753.367
220.723	25.332	936.323	754.407
221.738	25.274	935.725	753.615
222.753	25.304	934.933	753.036
223.767	25.419	934.850	753.381
224.782	25.663	934.377	753.958
225.796	25.648	933.916	753.454
226.811	24.949	932.135	749.029
227.826	24.317	931.075	745.471
228.840	24.437	930.417	745.379
229.855	24.591	929.576	745.281
230.869	24.219	928.424	742.742
231.884	24.593	928.798	744.536
232.899	25.280	928.937	747.442
233.913	25.224	928.117	746.482
234.928	25.164	927.818	745.927
235.942	25.113	927.243	745.188
236.957	24.882	925.990	743.154
237.972	24.924	925.295	742.706
238.986	24.981	925.128	742.741
240.001	24.900	924.422	741.775
241.015	25.121	923.606	741.967
242.030	25.395	923.027	742.570
243.045	25.417	922.879	742.477
244.059	25.399	922.514	742.045
245.074	25.343	921.068	740.583
246.088	24.989	920.192	738.357
247.103	25.248	920.170	739.338
248.117	25.847	920.261	741.815
249.132	26.024	919.899	742.186
250.147	26.066	919.612	742.060
251.161	26.400	918.611	742.557
252.176	26.183	918.319	741.369
253.190	26.428	917.374	741.543
254.205	26.391	917.075	741.086
255.220	26.322	916.764	740.485
256.234	26.295	915.935	739.638
257.249	26.278	914.728	738.529
258.263	26.252	914.073	737.828
259.278	26.379	913.354	737.701
260.293	26.404	912.900	737.373
261.307	26.144	912.902	736.246
262.322	25.973	911.894	734.674
263.336	25.410	909.712	730.561
264.351	24.125	908.152	724.023
265.366	24.427	907.085	724.336
266.380	25.457	908.413	729.513
267.395	25.855	908.059	730.780
268.409	25.777	907.368	729.843
269.424	26.053	906.953	730.564
270.439	25.998	906.167	729.641
271.453	26.044	905.632	729.334
272.468	26.360	905.154	730.161
273.482	26.295	905.016	729.723
274.497	25.927	903.502	726.951
275.512	25.470	903.023	724.661
276.526	25.901	902.778	726.137
277.541	26.103	902.492	726.657
278.555	25.858	901.761	725.018
279.570	25.697	900.836	723.561
280.585	26.007	900.029	724.095
281.599	25.819	899.294	722.686
282.614	25.265	897.994	719.356
283.628	25.319	897.362	719.005
284.643	25.730	897.388	720.607
285.657	25.341	896.304	718.117
286.672	25.063	895.173	716.037
287.687	25.677	894.938	718.235
288.701	25.670	894.793	718.028
289.716	25.291	893.826	715.679
290.730	25.315	893.237	715.238
291.745	24.989	892.045	712.926
292.760	25.309	892.066	714.150
293.774	26.306	892.543	718.435
294.789	26.601	892.461	719.479
295.803	26.585	891.573	718.635
296.818	26.786	891.111	718.998
297.833	26.210	889.648	715.471
298.847	26.080	889.009	714.381
299.862	26.352	889.066	715.437
300.876	26.633	888.572	716.088
301.891	26.627	887.417	715.073
302.906	26.049	886.806	712.234
303.920	26.197	886.589	712.582
304.935	26.612	886.372	713.981
305.949	26.559	885.636	713.115
306.964	26.083	885.289	710.896
307.979	26.359	884.540	711.321
308.993	26.611	884.536	712.243
310.008	26.680	883.433	711.564
311.022	26.570	882.785	710.549
312.037	26.341	882.041	708.988
313.052	25.921	881.022	706.460
314.066	25.356	879.254	702.771
315.081	24.784	878.969	700.241
316.095	25.680	879.170	703.845
317.110	26.125	879.035	705.414
318.125	25.397	877.388	701.192
319.139	24.295	875.614	695.416
320.154	24.451	875.312	695.721
321.168	25.153	876.121	699.041
322.183	25.798	875.924	701.336
323.197	25.996	875.847	701.982
324.212	26.319	875.312	702.746
325.227	26.441	874.626	702.610
326.241	26.199	873.819	700.958
327.256	26.089	873.254	700.018
328.270	26.097	872.212	699.148
329.285	25.785	871.979	697.693
330.300	25.704	870.482	696.121
331.314	25.900	870.700	696.993
332.329	26.344	870.881	698.792
333.343	26.408	870.282	698.494
334.358	26.396	869.966	698.133
335.373	26.225	869.957	697.405
336.387	26.685	869.858	699.040
337.402	26.733	869.610	698.964
338.416	26.741	869.232	698.626
339.431	27.027	868.566	699.132
340.446	27.051	868.496	699.106
341.460	26.904	867.780	697.902
342.475	26.792	866.939	696.736
343.489	26.920	866.596	696.889
344.504	27.102	866.568	697.505
345.519	27.289	866.405	698.027
346.533	27.307	865.476	697.286
347.548	27.267	865.170	696.826
348.562	27.302	864.362	696.247
349.577	27.216	863.718	695.338
350.592	27.205	862.727	694.435
351.606	27.178	862.287	693.917
352.621	26.973	861.477	692.424
353.635	26.943	860.851	691.744
354.650	26.230	859.156	687.609
355.665	25.354	857.597	682.969
356.679	25.742	857.483	684.294
357.694	26.146	857.332	685.647
358.708	25.967	856.840	684.514
359.723	26.503	856.454	686.176
360.738	26.959	855.844	687.355
361.752	27.007	855.467	687.174
362.767	27.358	855.089	688.137
363.781	27.453	855.042	688.394
364.796	27.499	854.777	688.296
365.810	27.552	854.172	687.948
366.825	27.578	853.433	687.389
367.840	27.343	852.773	685.913
368.854	26.945	852.141	683.843
369.869	26.874	851.315	682.853
370.883	27.111	850.828	683.292
371.898	26.912	850.541	682.254
372.913	26.882	850.378	681.949
373.927	27.160	849.865	682.521
374.942	27.149	849.444	682.085
375.956	27.239	849.347	682.282
376.971	27.569	848.595	682.853
377.986	27.566	848.286	682.534
379.000	27.594	847.654	682.072
380.015	27.443	846.925	680.858
381.029	27.485	846.341	680.488
382.044	27.612	845.838	680.496
383.059	27.515	845.218	679.575
384.073	27.573	844.650	679.275
385.088	27.564	844.006	678.664
386.102	27.326	843.470	677.286
387.117	27.213	842.861	676.318
388.132	26.673	841.815	673.410
389.146	26.449	840.246	671.265
390.161	26.743	840.802	672.742
391.175	27.271	840.617	674.490
392.190	26.894	839.373	672.039
393.205	25.556	837.015	665.144
394.219	24.028	835.690	658.385
395.234	24.062	834.904	657.833
396.248	25.623	836.311	664.657
397.263	27.154	837.491	671.196
398.278	27.059	837.037	670.422
399.292	26.857	836.428	669.127
400.307	26.778	835.919	668.372
401.321	26.880	835.351	668.233
402.336	27.382	835.399	670.062
403.350	27.695	835.945	671.591
404.365	27.997	835.252	672.089
405.380	28.205	835.202	672.752
406.394	28.310	834.206	672.277
407.409	28.214	833.735	671.485
408.423	28.070	833.617	670.802
409.438	28.289	833.241	671.245
410.453	28.350	832.489	670.803
411.467	28.293	832.059	670.185
412.482	28.142	831.855	669.411
413.496	28.468	831.136	669.963
414.511	28.274	831.343	669.362
415.526	28.361	830.214	668.713
416.540	28.123	829.289	667.042
417.555	27.982	828.642	665.947
418.569	27.959	828.602	665.774
419.584	27.932	827.897	665.049
420.599	27.725	827.451	663.879
421.613	101.834	1279.364	1421.863
422.628	88.173	1345.226	1421.978
