DTS Sentinel unit serial number:	SN413079Multiplexer serial number:	ORYXHardware model number:	OX4-SRSoftware version number:	ORYX F/W v4.00 Oryx Data Collector v3.7.2.0data status	okinstallation	princeton_trtdifferential loss correction	single-endedforward channel	channel 1reverse channel	N/Adate	2019/09/19time	13:14:35forward acquisition time	60.00reverse acquisition time	0.00gamma	496.2192k internal	0.2327k external	0.2327temperature offset calibration	1.0012default loss term (dB/km)	0.3790temperature slope calibration	1.0000multiplexer offset coefficient	1.0000multiplexer slope coefficient	1.0000fibre end	0.00T internal ref (°C)	29.34T ext. ref 1 (°C)	0.95T ext. ref 2 (°C)	27.12length (m)	temperature (°C)	Stokes	anti-Stokes-747.200	-108.654	0.278	-0.060
-746.185	-179.708	0.026	0.001
-745.171	800.000	-0.017	0.058
-744.156	800.000	-0.021	-0.077
-743.142	305.396	-0.054	0.101
-742.127	491.397	-0.020	0.046
-741.112	337.138	-0.072	0.142
-740.098	800.000	0.036	0.129
-739.083	-124.315	0.306	0.048
-738.069	-51.927	-0.185	0.087
-737.054	78.674	-0.237	0.255
-736.039	800.000	0.087	0.315
-735.025	190.656	-0.016	0.025
-734.010	120.048	0.209	-0.261
-732.996	162.183	0.127	-0.179
-731.981	-53.820	-0.362	0.167
-730.966	-200.000	-0.014	0.120
-729.952	133.186	0.075	-0.097
-728.937	0.229	0.061	-0.044
-727.923	800.000	0.057	-0.202
-726.908	-90.628	-0.316	-0.092
-725.894	-200.000	0.011	0.129
-724.879	67.884	-0.129	0.133
-723.864	398.956	0.141	0.298
-722.850	-200.000	-0.013	0.327
-721.835	-200.000	-0.042	-0.236
-720.821	-147.503	-0.240	0.020
-719.806	-69.462	-0.228	0.088
-718.791	9.007	-0.225	-0.171
-717.777	-200.000	0.033	-0.338
-716.762	260.775	0.092	-0.160
-715.748	800.000	-0.163	-0.457
-714.733	-200.000	-0.003	-0.169
-713.718	5.889	0.162	0.121
-712.704	800.000	0.107	-0.317
-711.689	800.000	-0.063	-0.221
-710.675	-67.951	0.066	-0.026
-709.660	740.362	-0.035	-0.094
-708.645	-200.000	-0.014	-0.408
-707.631	800.000	-0.012	0.054
-706.616	30.962	-0.154	0.133
-705.602	288.766	-0.066	0.120
-704.587	-68.167	-0.413	0.162
-703.572	249.478	-0.302	0.515
-702.558	-15.662	0.199	-0.128
-701.543	614.237	0.196	-0.494
-700.529	397.439	-0.131	0.275
-699.514	-25.910	0.337	0.200
-698.499	-124.469	-0.356	-0.056
-697.485	-200.000	0.067	-0.428
-696.470	-200.000	-0.042	-0.276
-695.456	86.215	-0.058	-0.064
-694.441	800.000	0.071	-0.288
-693.426	176.951	-0.188	-0.275
-692.412	-200.000	0.056	-0.328
-691.397	-200.000	-0.064	-0.429
-690.383	-43.523	-0.229	-0.116
-689.368	583.389	-0.013	0.032
-688.354	-83.223	-0.391	0.126
-687.339	-157.554	-0.059	0.004
-686.324	-200.000	-0.023	-0.513
-685.310	-200.000	0.014	-0.296
-684.295	-35.745	0.262	-0.143
-683.281	-200.000	0.029	-0.151
-682.266	-151.056	-0.265	-0.020
-681.251	-200.000	0.070	-0.308
-680.237	737.610	0.013	-0.034
-679.222	-200.000	-0.010	0.294
-678.208	380.963	0.043	0.088
-677.193	-75.251	-0.360	-0.129
-676.178	179.213	-0.040	0.059
-675.164	-200.000	-0.022	0.172
-674.149	186.384	-0.108	-0.162
-673.135	450.445	0.112	0.249
-672.120	-89.357	0.176	-0.052
-671.105	237.676	0.133	-0.222
-670.091	-35.816	-0.167	0.091
-669.076	-6.186	-0.221	0.152
-668.062	-131.204	-0.081	-0.011
-667.047	-200.000	-0.004	0.044
-666.032	166.601	0.025	0.036
-665.018	-182.106	0.156	0.003
-664.003	-200.000	0.044	-0.219
-662.989	-18.666	-0.084	-0.053
-661.974	231.706	0.049	0.080
-660.959	-178.904	0.268	-0.006
-659.945	135.876	-0.150	0.197
-658.930	-160.920	0.329	-0.017
-657.916	-88.742	-0.153	-0.046
-656.901	115.985	-0.027	-0.033
-655.886	505.835	-0.042	-0.098
-654.872	196.785	0.096	-0.147
-653.857	317.138	-0.059	0.112
-652.843	-65.275	-0.106	-0.043
-651.828	-152.726	-0.151	0.011
-650.814	-200.000	0.020	0.107
-649.799	-200.000	0.007	-0.403
-648.784	76.498	-0.360	0.383
-647.770	-35.624	0.135	0.074
-646.755	800.000	-0.063	-0.259
-645.741	755.244	-0.152	-0.413
-644.726	67.722	0.144	0.148
-643.711	-76.405	0.202	-0.071
-642.697	-200.000	0.062	0.467
-641.682	271.515	0.096	-0.169
-640.668	4.228	0.340	-0.250
-639.653	190.224	0.097	0.147
-638.638	295.764	0.102	0.188
-637.624	24.413	0.253	0.210
-636.609	-143.371	-0.173	-0.017
-635.595	-177.438	-0.195	-0.005
-634.580	-140.599	-0.139	0.015
-633.565	800.000	-0.056	-0.158
-632.551	331.238	-0.232	-0.450
-631.536	315.280	0.058	-0.110
-630.522	-63.013	0.239	-0.099
-629.507	75.028	-0.235	0.249
-628.492	-54.825	-0.269	0.122
-627.478	800.000	0.009	0.037
-626.463	-70.153	-0.184	0.070
-625.449	800.000	0.086	0.350
-624.434	24.532	0.089	0.074
-623.419	326.173	0.060	-0.116
-622.405	-137.206	0.180	0.021
-621.390	110.471	-0.134	0.162
-620.376	-147.133	0.056	-0.005
-619.361	-91.652	-0.476	0.136
-618.346	201.386	0.121	0.186
-617.332	-200.000	-0.002	-0.309
-616.317	-42.766	0.269	0.137
-615.303	-83.910	-0.051	0.016
-614.288	-20.782	-0.136	0.084
-613.273	-200.000	0.037	-0.353
-612.259	-0.025	-0.259	-0.185
-611.244	800.000	-0.048	-0.133
-610.230	-29.000	-0.282	-0.163
-609.215	421.928	-0.082	-0.176
-608.201	-3.149	0.246	-0.172
-607.186	438.951	-0.122	0.268
-606.171	43.263	-0.313	0.287
-605.157	-34.580	0.263	0.144
-604.142	424.568	-0.015	-0.032
-603.128	29.128	0.178	0.152
-602.113	-84.360	-0.166	-0.053
-601.098	800.000	0.134	0.547
-600.084	23.635	-0.065	0.053
-599.069	348.256	-0.097	-0.192
-598.055	800.000	-0.066	-0.275
-597.040	-200.000	0.033	-0.310
-596.025	178.569	-0.084	0.124
-595.011	-72.484	-0.215	0.080
-593.996	-9.891	0.031	0.021
-592.982	287.014	0.040	-0.072
-591.967	-110.199	-0.228	-0.048
-590.952	800.000	-0.050	-0.166
-589.938	39.775	0.155	0.140
-588.923	800.000	0.071	0.265
-587.909	-200.000	-0.012	-0.085
-586.894	93.190	0.075	-0.086
-585.879	149.413	-0.197	0.267
-584.865	407.976	0.004	0.009
-583.850	-200.000	0.019	-0.092
-582.836	-200.000	0.003	-0.017
-581.821	800.000	-0.032	0.102
-580.806	800.000	-0.068	-0.215
-579.792	-184.268	0.190	-0.003
-578.777	274.656	0.256	0.454
-577.763	-200.000	0.052	0.230
-576.748	92.770	-0.202	-0.228
-575.733	-30.434	-0.206	-0.117
-574.719	-123.817	0.282	-0.045
-573.704	130.982	-0.019	0.025
-572.690	-11.908	-0.222	0.146
-571.675	-118.030	0.127	0.023
-570.661	489.733	0.063	0.145
-569.646	26.555	0.163	-0.137
-568.631	215.262	0.076	-0.121
-567.617	165.463	-0.042	0.059
-566.602	339.897	0.075	-0.147
-565.588	-6.990	-0.111	-0.076
-564.573	-72.643	0.159	-0.059
-563.558	-137.522	0.132	0.015
-562.544	-57.859	-0.113	0.049
-561.529	149.469	0.110	-0.149
-560.515	8.655	-0.192	-0.145
-559.500	-78.790	-0.268	0.092
-558.485	215.538	-0.089	-0.142
-557.471	-200.000	-0.039	-0.549
-556.456	-85.474	0.120	-0.037
-555.442	-39.379	-0.162	-0.085
-554.427	-200.000	-0.015	0.211
-553.412	-17.008	0.018	0.012
-552.398	800.000	-0.033	0.113
-551.383	-200.000	0.024	-0.445
-550.369	111.089	0.305	0.368
-549.354	-49.309	-0.068	-0.033
-548.339	-200.000	0.041	0.313
-547.325	364.757	-0.121	0.243
-546.310	-4.606	0.408	-0.281
-545.296	800.000	-0.082	-0.254
-544.281	-200.000	0.040	-0.292
-543.266	-86.108	-0.363	0.112
-542.252	228.150	0.122	-0.199
-541.237	-80.859	0.337	0.112
-540.223	-200.000	0.020	-0.152
-539.208	-20.674	-0.181	-0.111
-538.193	61.103	-0.106	-0.105
-537.179	-161.569	-0.225	0.012
-536.164	-70.688	0.120	-0.045
-535.150	13.701	0.168	0.130
-534.135	51.222	0.068	-0.064
-533.121	-200.000	0.007	-0.141
-532.106	234.691	-0.125	-0.207
-531.091	-100.986	-0.202	-0.050
-530.077	61.761	-0.329	0.327
-529.062	-100.913	-0.147	-0.036
-528.048	-14.873	0.196	-0.126
-527.033	319.406	0.140	-0.266
-526.018	-200.000	0.048	0.407
-525.004	-92.992	-0.262	0.073
-523.989	-171.123	0.085	-0.003
-522.975	-63.407	-0.301	0.124
-521.960	252.619	-0.056	-0.095
-520.945	58.682	0.294	0.289
-519.931	4.466	-0.233	0.171
-518.916	-112.626	0.341	-0.068
-517.902	-6.094	-0.132	-0.090
-516.887	-114.553	0.341	0.065
-515.872	800.000	0.049	0.141
-514.858	93.246	0.018	0.020
-513.843	60.604	0.019	-0.019
-512.829	800.000	0.009	0.025
-511.814	-200.000	0.044	0.324
-510.799	-72.538	0.134	-0.049
-509.785	286.725	-0.187	-0.337
-508.770	94.075	-0.194	-0.220
-507.756	-200.000	-0.021	-0.167
-506.741	20.441	-0.075	0.061
-505.726	-74.987	-0.345	0.123
-504.712	-128.270	0.267	-0.038
-503.697	-200.000	0.016	0.084
-502.683	-20.650	0.214	-0.131
-501.668	-200.000	-0.071	-0.373
-500.653	-200.000	-0.016	-0.082
-499.639	-129.273	-0.267	0.037
-498.624	-200.000	-0.030	-0.198
-497.610	-200.000	0.061	-0.349
-496.595	22.527	0.194	-0.158
-495.581	357.025	0.155	0.308
-494.566	-200.000	-0.000	-0.059
-493.551	-74.361	-0.238	-0.086
-492.537	-125.272	-0.163	-0.025
-491.522	389.436	-0.097	0.201
-490.508	728.742	-0.038	0.102
-489.493	-143.280	-0.320	0.031
-488.478	313.014	-0.081	0.152
-487.464	173.837	-0.125	-0.180
-486.449	-44.446	-0.220	-0.110
-485.435	-16.126	0.201	0.128
-484.420	-200.000	0.010	-0.395
-483.405	-200.000	0.025	0.172
-482.391	800.000	0.063	0.226
-481.376	316.263	-0.090	0.169
-480.362	800.000	-0.025	0.074
-479.347	-106.391	-0.235	-0.052
-478.332	-123.757	-0.139	-0.022
-477.318	-39.843	-0.105	0.055
-476.303	-35.340	0.158	0.086
-475.289	-13.876	-0.246	0.159
-474.274	800.000	-0.011	0.038
-473.259	-143.899	-0.297	-0.028
-472.245	-99.528	-0.220	-0.055
-471.230	12.684	-0.227	-0.175
-470.216	800.000	-0.013	-0.051
-469.201	-9.787	-0.127	-0.084
-468.186	376.696	-0.115	0.234
-467.172	-188.114	-0.248	-0.003
-466.157	-11.776	-0.373	-0.244
-465.143	44.672	-0.193	0.177
-464.128	-86.562	0.321	-0.098
-463.113	110.242	0.174	0.209
-462.099	-19.561	-0.344	0.212
-461.084	370.863	-0.100	-0.201
-460.070	120.345	-0.223	-0.276
-459.055	252.112	0.265	0.449
-458.040	-162.247	-0.379	-0.019
-457.026	383.195	-0.104	0.214
-456.011	732.384	-0.077	0.205
-454.997	-200.000	-0.042	-0.287
-453.982	133.933	0.129	-0.166
-452.968	142.522	-0.033	0.044
-451.953	3.415	-0.079	-0.057
-450.938	-200.000	0.028	-0.240
-449.924	-27.839	-0.029	0.017
-448.909	-72.918	-0.331	-0.121
-447.895	-19.556	0.359	-0.222
-446.880	638.252	-0.022	-0.057
-445.865	-81.880	-0.285	-0.093
-444.851	94.955	-0.083	0.094
-443.836	-161.611	0.006	-0.000
-442.822	36.514	0.250	-0.220
-441.807	84.870	0.242	-0.265
-440.792	187.824	-0.141	-0.210
-439.778	20.391	-0.315	-0.254
-438.763	800.000	-0.084	-0.368
-437.749	394.417	0.005	0.010
-436.734	-200.000	-0.052	-0.350
-435.719	-111.920	-0.180	0.036
-434.705	-200.000	0.017	0.340
-433.690	262.252	0.117	-0.201
-432.676	-127.672	-0.163	-0.023
-431.661	-99.496	0.148	0.037
-430.646	-63.726	0.381	0.155
-429.632	-141.725	0.239	-0.024
-428.617	-200.000	-0.019	-0.335
-427.603	800.000	-0.078	-0.280
-426.588	324.086	0.063	-0.119
-425.573	-153.865	0.141	0.010
-424.559	8.445	0.201	-0.150
-423.544	124.060	-0.105	0.131
-422.530	219.949	-0.099	0.158
-421.515	-68.505	0.404	-0.156
-420.500	-133.390	0.264	0.033
-419.486	-14.999	0.119	-0.076
-418.471	187.391	-0.107	0.160
-417.457	43.487	-0.049	0.045
-416.442	756.630	-0.068	0.183
-415.428	55.738	0.324	0.313
-414.413	-200.000	0.003	0.317
-413.398	116.609	-0.146	0.178
-412.384	-18.653	0.101	0.063
-411.369	-73.529	0.165	-0.060
-410.355	-23.726	0.492	-0.293
-409.340	-134.918	-0.012	0.001
-408.325	23.425	0.322	0.264
-407.311	-23.770	-0.172	-0.102
-406.296	57.461	-0.142	-0.138
-405.282	231.492	-0.213	0.347
-404.267	-200.000	-0.018	0.104
-403.252	-200.000	-0.001	0.078
-402.238	-32.531	-0.044	-0.025
-401.223	674.125	0.055	0.143
-400.209	473.869	0.107	-0.240
-399.194	-77.648	0.306	0.105
-398.179	30.319	0.096	-0.082
-397.165	63.764	-0.180	0.180
-396.150	-1.432	0.232	-0.163
-395.136	-137.590	0.258	-0.029
-394.121	-38.155	0.247	0.131
-393.106	-200.000	-0.005	-0.295
-392.092	90.253	0.170	-0.189
-391.077	-0.027	-0.139	-0.099
-390.063	-200.000	-0.005	-0.056
-389.048	105.084	0.253	0.297
-388.033	293.987	0.056	-0.103
-387.019	221.338	0.145	0.231
-386.004	783.802	-0.143	-0.391
-384.990	-57.572	-0.252	-0.110
-383.975	185.383	0.064	0.095
-382.960	10.682	0.062	0.047
-381.946	608.298	0.062	0.153
-380.931	-116.817	-0.316	0.058
-379.917	16.602	0.114	-0.089
-378.902	567.389	0.123	0.296
-377.888	-18.008	-0.122	-0.076
-376.873	800.000	-0.013	0.048
-375.858	44.358	0.315	0.288
-374.844	-87.409	0.288	-0.087
-373.829	152.414	0.161	-0.219
-372.815	61.186	-0.064	-0.064
-371.800	-135.978	0.171	0.020
-370.785	532.710	-0.032	0.075
-369.771	-160.827	0.103	-0.005
-368.756	-81.932	-0.102	0.033
-367.742	-47.747	0.190	-0.091
-366.727	782.203	-0.040	-0.108
-365.712	245.078	-0.171	0.286
-364.698	-56.199	0.116	0.051
-363.683	-71.602	0.199	0.074
-362.669	104.290	-0.209	-0.245
-361.654	77.408	-0.183	-0.194
-360.639	-200.000	0.042	-0.246
-359.625	-27.310	-0.258	-0.149
-358.610	12.974	-0.194	-0.149
-357.596	-200.000	-0.075	0.358
-356.581	60.184	-0.321	0.315
-355.566	39.558	0.108	-0.096
-354.552	-200.000	-0.033	-0.180
-353.537	-126.128	0.307	0.046
-352.523	68.413	-0.053	-0.054
-351.508	800.000	0.032	-0.100
-350.493	-92.850	-0.138	0.038
-349.479	573.031	-0.126	0.306
-348.464	-28.269	0.285	0.163
-347.450	-200.000	-0.004	-0.290
-346.435	82.377	-0.267	0.288
-345.420	800.000	0.045	0.184
-344.406	226.282	-0.085	-0.136
-343.391	800.000	-0.056	-0.177
-342.377	-11.912	0.280	-0.182
-341.362	389.148	0.088	-0.181
-340.348	262.522	-0.175	-0.301
-339.333	800.000	-0.061	-0.188
-338.318	23.228	-0.118	-0.096
-337.304	58.524	-0.057	-0.055
-336.289	-106.535	-0.053	-0.012
-335.275	-200.000	0.041	0.256
-334.260	253.640	-0.081	-0.138
-333.245	-129.609	0.555	-0.076
-332.231	58.921	0.255	-0.248
-331.216	42.342	-0.246	-0.222
-330.202	-200.000	-0.020	0.253
-329.187	-200.000	0.001	-0.166
-328.172	800.000	0.040	0.144
-327.158	80.794	-0.067	0.071
-326.143	433.104	-0.066	-0.141
-325.129	-79.246	-0.249	-0.084
-324.114	-8.943	0.148	-0.098
-323.099	-141.625	-0.225	-0.022
-322.085	179.763	0.100	0.146
-321.070	800.000	0.089	0.287
-320.056	-131.213	-0.156	-0.020
-319.041	375.007	-0.072	0.145
-318.026	-200.000	0.485	-0.000
-317.012	275.736	0.164	0.289
-315.997	-91.587	-0.200	-0.056
-314.983	-65.359	0.012	-0.005
-313.968	190.284	0.140	0.209
-312.953	-200.000	0.029	0.133
-311.939	22.016	0.110	-0.089
-310.924	-70.822	-0.195	0.073
-309.910	-200.000	-0.007	-0.383
-308.895	145.126	-0.111	-0.147
-307.880	-200.000	0.012	-0.200
-306.866	-12.339	-0.110	0.071
-305.851	-20.245	-0.252	-0.154
-304.837	-65.262	-0.228	-0.091
-303.822	-112.275	-0.482	0.096
-302.807	255.965	-0.117	0.198
-301.793	214.280	-0.261	0.410
-300.778	403.280	-0.093	0.193
-299.764	163.979	-0.133	0.185
-298.749	-200.000	0.031	0.143
-297.735	281.506	0.120	-0.213
-296.720	262.861	-0.113	-0.194
-295.705	779.008	0.045	-0.121
-294.691	114.363	-0.237	-0.286
-293.676	38.858	0.303	-0.268
-292.662	-200.000	0.016	-0.072
-291.647	800.000	-0.085	0.247
-290.632	-111.594	0.182	-0.037
-289.618	601.279	0.061	0.149
-288.603	-200.000	0.008	0.197
-287.589	395.714	-0.085	0.176
-286.574	50.008	-0.257	0.240
-285.559	800.000	0.138	0.476
-284.545	-41.907	0.282	0.143
-283.530	274.470	-0.321	-0.562
-282.516	261.226	0.216	-0.370
-281.501	800.000	0.092	0.363
-280.486	-117.002	-0.181	0.033
-279.472	123.408	0.082	-0.102
-278.457	66.342	-0.027	-0.027
-277.443	-109.592	0.266	-0.056
-276.428	-85.816	0.188	0.058
-275.413	416.273	0.163	-0.344
-274.399	95.163	-0.144	0.162
-273.384	-153.744	-0.395	-0.027
-272.370	-57.146	-0.138	0.060
-271.355	-28.333	0.172	-0.098
-270.340	467.937	-0.036	0.081
-269.326	554.448	-0.151	0.359
-268.311	-200.000	0.081	0.407
-267.297	293.552	0.275	0.496
-266.282	-200.000	-0.073	-0.334
-265.267	-200.000	0.022	-0.378
-264.253	-200.000	-0.011	-0.096
-263.238	49.843	-0.093	0.086
-262.224	-200.000	-0.007	0.175
-261.209	382.676	0.203	-0.413
-260.195	7.902	-0.100	0.074
-259.180	193.235	-0.030	0.045
-258.165	92.946	-0.253	0.282
-257.151	-200.000	0.163	-0.000
-256.136	-200.000	0.026	0.142
-255.122	-200.000	-0.027	0.285
-254.107	-1.619	-0.125	-0.087
-253.092	-100.405	-0.258	-0.063
-252.078	166.201	-0.025	-0.035
-251.063	63.859	0.327	0.325
-250.049	-95.070	0.354	0.094
-249.034	169.793	0.204	0.288
-248.019	-200.000	-0.009	-0.075
-247.005	-130.094	-0.275	0.037
-245.990	800.000	0.102	-0.348
-244.976	-174.311	0.217	0.006
-243.961	107.450	0.095	-0.112
-242.946	78.555	-0.223	0.235
-241.932	-45.723	0.128	0.063
-240.917	-200.000	-0.013	-0.173
-239.903	384.375	0.087	0.176
-238.888	-69.144	0.374	0.142
-237.873	37.924	0.022	0.019
-236.859	117.424	-0.041	0.049
-235.844	-200.000	-0.007	-0.313
-234.830	650.751	-0.097	-0.244
-233.815	277.513	-0.143	-0.251
-232.800	46.961	0.054	0.049
-231.786	-200.000	-0.009	0.130
-230.771	-46.233	0.117	-0.057
-229.757	-200.000	0.037	-0.226
-228.742	-200.000	0.001	-0.046
-227.727	-57.839	0.339	0.146
-226.713	752.194	-0.096	-0.256
-225.698	18.165	0.235	0.185
-224.684	-63.369	-0.078	-0.032
-223.669	-37.767	0.344	0.181
-222.655	-200.000	-0.052	0.331
-221.640	737.757	-0.093	-0.246
-220.625	-17.702	-0.325	-0.202
-219.611	-177.934	0.122	-0.003
-218.596	-85.025	-0.325	0.101
-217.582	-104.669	-0.200	0.045
-216.567	22.387	0.309	-0.249
-215.552	469.075	0.067	-0.148
-214.538	-62.320	0.394	-0.162
-213.523	-135.395	0.160	-0.019
-212.509	321.723	0.092	-0.173
-211.494	800.000	0.040	-0.148
-210.479	-173.222	0.301	-0.009
-209.465	123.473	-0.172	0.213
-208.450	-28.813	0.236	0.134
-207.436	-1.410	0.024	0.017
-206.421	800.000	-0.051	-0.211
-205.406	-200.000	0.027	-0.195
-204.392	-35.181	-0.272	0.146
-203.377	-72.969	-0.030	-0.011
-202.363	32.123	0.076	-0.065
-201.348	-51.413	0.350	-0.161
-200.333	-200.000	-0.068	0.328
-199.319	-136.039	0.279	-0.032
-198.304	-132.818	-0.076	0.010
-197.290	-200.000	-0.005	0.214
-196.275	-200.000	0.041	0.257
-195.260	-0.532	-0.068	0.047
-194.246	-200.000	0.076	-0.479
-193.231	34.838	-0.177	-0.153
-192.217	800.000	-0.128	0.386
-191.202	3.700	-0.262	0.189
-190.187	-54.460	0.208	0.093
-189.173	404.318	-0.101	0.209
-188.158	93.070	-0.137	0.152
-187.144	543.512	0.121	0.285
-186.129	-200.000	0.416	0.000
-185.114	63.065	0.271	0.268
-184.100	-200.000	0.023	0.375
-183.085	-87.297	-0.251	0.075
-182.071	237.304	0.150	0.245
-181.056	-62.375	0.271	0.111
-180.042	103.622	-0.127	0.147
-179.027	-169.567	-0.258	-0.009
-178.012	29.108	0.333	-0.278
-176.998	-143.424	0.199	-0.019
-175.983	-114.003	0.050	0.010
-174.969	-139.658	-0.307	-0.032
-173.954	102.015	-0.137	-0.158
-172.939	-76.860	0.105	-0.036
-171.925	800.000	0.098	0.369
-170.910	-200.000	-0.011	0.260
-169.896	800.000	0.149	0.487
-168.881	161.246	-0.082	-0.114
-167.866	800.000	-0.055	-0.184
-166.852	522.541	0.034	-0.079
-165.837	-200.000	0.023	-0.177
-164.823	-139.084	0.191	0.020
-163.808	-171.241	0.227	0.008
-162.793	271.018	0.139	0.241
-161.779	-82.900	0.236	-0.075
-160.764	-44.493	-0.406	-0.200
-159.750	104.772	0.396	0.460
-158.735	-39.889	-0.151	-0.077
-157.720	800.000	0.034	0.109
-156.706	-148.490	-0.310	-0.025
-155.691	800.000	-0.038	-0.138
-154.677	-112.039	0.109	-0.022
-153.662	54.397	-0.144	-0.137
-152.647	-29.120	0.175	0.099
-151.633	-20.834	0.072	0.043
-150.618	132.950	0.068	-0.087
-149.604	800.000	-0.048	0.201
-148.589	-200.000	-0.058	-0.377
-147.574	-200.000	-0.357	-0.001
-146.560	-61.059	-0.139	0.058
-145.545	291.500	0.284	0.510
-144.531	150.930	-0.074	-0.100
-143.516	-34.667	-0.070	-0.038
-142.502	-65.775	-0.095	0.038
-141.487	293.203	0.026	-0.047
-140.472	-50.982	0.359	0.166
-139.458	-83.875	0.064	-0.020
-138.443	238.156	0.016	-0.026
-137.429	-200.000	0.043	0.378
-136.414	-141.588	0.060	-0.006
-135.399	-44.463	-0.276	-0.136
-134.385	74.138	0.149	-0.154
-133.370	119.982	0.068	-0.083
-132.356	-22.201	-0.185	-0.111
-131.341	-87.386	-0.255	-0.076
-130.326	-9.156	0.127	0.084
-129.312	-85.647	0.041	0.012
-128.297	221.554	-0.145	-0.230
-127.283	168.275	0.282	0.396
-126.268	-38.525	0.160	0.083
-125.253	-38.225	0.145	-0.075
-124.239	-200.000	-0.009	0.139
-123.224	324.350	0.185	0.347
-122.210	66.647	-0.203	0.203
-121.195	-134.188	0.214	-0.026
-120.180	-67.441	-0.142	0.055
-119.166	100.188	0.145	0.165
-118.151	15.799	0.158	-0.123
-117.137	-138.034	0.080	0.009
-116.122	-182.077	0.245	0.005
-115.107	742.614	-0.047	0.123
-114.093	800.000	0.078	0.244
-113.078	644.472	0.155	-0.389
-112.064	-200.000	0.057	0.311
-111.049	-18.441	-0.228	0.140
-110.034	-118.119	0.151	0.027
-109.020	570.556	0.073	-0.174
-108.005	-37.115	-0.361	0.190
-106.991	-129.264	-0.259	0.035
-105.976	800.000	0.043	-0.169
-104.962	800.000	0.133	0.478
-103.947	-41.087	0.111	0.056
-102.932	71.104	-0.147	0.149
-101.918	126.963	-0.273	0.340
-100.903	-91.445	-0.053	-0.015
-99.889	320.851	-0.116	0.217
-98.874	-200.000	0.025	-0.110
-97.859	160.201	-0.062	-0.085
-96.845	27.179	-0.248	-0.204
-95.830	290.587	-0.199	-0.355
-94.816	28.062	0.092	-0.076
-93.801	551.263	0.173	0.409
-92.786	9.064	0.091	0.068
-91.772	-108.410	-0.185	0.039
-90.757	445.961	-0.034	-0.073
-89.743	-200.000	0.079	-0.424
-88.728	319.310	-0.110	-0.205
-87.713	162.829	-0.063	0.086
-86.699	-200.000	0.029	0.256
-85.684	800.000	-0.053	0.159
-84.670	509.902	0.056	0.127
-83.655	-20.620	-0.256	0.155
-82.640	-109.108	-0.302	-0.063
-81.626	-200.000	-0.031	-0.143
-80.611	-15.202	-0.210	-0.132
-79.597	114.447	0.237	-0.283
-78.582	800.000	-0.083	0.286
-77.567	-178.354	-0.145	-0.003
-76.553	-84.707	-0.120	-0.037
-75.538	-200.000	-0.000	-0.110
-74.524	229.378	-0.144	-0.232
-73.509	152.096	-0.174	0.233
-72.494	-78.788	0.220	-0.074
-71.480	-23.530	-0.061	0.036
-70.465	717.660	-0.081	0.212
-69.451	-35.043	0.301	0.161
-68.436	53.437	-0.250	-0.236
-67.422	-200.000	0.011	0.109
-66.407	800.000	-0.042	0.145
-65.392	-108.295	0.141	-0.030
-64.378	210.681	0.238	-0.368
-63.363	-200.000	0.051	-0.334
-62.349	555.917	0.079	0.186
-61.334	144.079	-0.886	-1.160
-60.319	99.781	0.438	0.497
-59.305	-200.000	-0.177	-1.242
-58.290	800.000	0.374	1.347
-57.276	326.801	0.789	1.485
-56.261	-200.000	104.295	582.207
-55.246	434.730	1490.489	3179.678
-54.232	141.003	2711.371	3518.134
-53.217	105.284	2206.261	2556.512
-52.203	41.147	1637.864	1452.256
-51.188	32.711	1370.721	1163.556
-50.173	29.629	1328.317	1109.048
-49.159	53.696	1381.071	1300.935
-48.144	54.156	1397.416	1319.092
-47.130	32.984	1352.788	1149.812
-46.115	29.613	1334.721	1114.117
-45.100	29.330	1329.739	1108.216
-44.086	29.303	1327.004	1105.731
-43.071	29.257	1324.985	1103.732
-42.057	29.149	1322.764	1101.190
-41.042	29.270	1321.227	1100.591
-40.027	29.353	1319.017	1099.200
-39.013	29.227	1317.081	1096.794
-37.998	29.203	1315.584	1095.359
-36.984	29.286	1313.473	1094.052
-35.969	29.375	1311.462	1092.862
-34.954	29.371	1310.479	1091.972
-33.940	29.424	1308.467	1090.568
-32.925	29.373	1307.621	1089.519
-31.911	29.382	1305.853	1088.054
-30.896	29.389	1304.510	1086.934
-29.881	29.485	1303.408	1086.536
-28.867	29.516	1301.696	1085.249
-27.852	29.413	1300.366	1083.493
-26.838	29.510	1298.734	1082.659
-25.823	29.464	1297.385	1081.225
-24.809	29.468	1296.287	1080.286
-23.794	29.397	1295.287	1078.993
-22.779	29.369	1294.038	1077.751
-21.765	29.453	1292.315	1076.763
-20.750	29.444	1291.028	1075.592
-19.736	29.374	1289.460	1073.838
-18.721	29.191	1288.805	1072.185
-17.706	29.340	1287.341	1071.793
-16.692	29.255	1286.588	1070.626
-15.677	29.341	1285.055	1069.806
-14.663	29.199	1284.370	1068.370
-13.648	29.255	1283.116	1067.609
-12.633	29.336	1281.894	1067.021
-11.619	29.234	1281.011	1065.655
-10.604	29.299	1280.061	1065.198
-9.590	29.306	1279.085	1064.380
-8.575	29.327	1278.050	1063.597
-7.560	29.270	1277.297	1062.600
-6.546	29.291	1276.428	1061.955
-5.531	29.351	1274.804	1060.910
-4.517	29.342	1274.122	1060.250
-3.502	29.211	1273.947	1059.308
-2.487	29.286	1272.914	1058.836
-1.473	29.363	1268.655	1055.694
-0.458	28.534	1254.784	1039.412
0.556	24.690	1237.954	1004.196
1.571	20.969	1244.551	988.403
2.586	19.502	1258.675	991.112
3.600	18.170	1246.026	973.488
4.615	13.351	1170.607	888.658
5.629	5.044	1094.772	789.127
6.644	1.139	1075.118	755.463
7.659	0.835	1072.985	752.385
8.673	0.939	1071.659	751.902
9.688	0.877	1070.737	750.882
10.702	0.967	1069.091	750.108
11.717	5.691	1074.279	777.152
12.731	13.173	1084.453	821.783
13.746	16.847	1088.782	843.307
14.761	17.385	1088.812	845.933
15.775	16.737	1087.162	841.356
16.790	15.610	1084.920	833.955
17.804	14.947	1083.480	829.486
18.819	14.509	1082.784	826.710
19.834	14.323	1081.430	824.684
20.848	14.016	1080.689	822.525
21.863	13.869	1079.534	820.846
22.877	13.630	1078.595	818.878
23.892	13.673	1077.773	818.395
24.907	13.554	1077.521	817.544
25.921	13.678	1076.364	817.207
26.936	13.703	1075.682	816.739
27.950	13.764	1074.516	816.080
28.965	13.798	1073.678	815.538
29.980	13.879	1071.946	814.548
30.994	13.913	1071.011	813.935
32.009	13.921	1070.146	813.243
33.023	13.918	1068.764	812.106
34.038	13.866	1067.989	811.191
35.053	13.918	1067.232	810.801
36.067	13.801	1066.517	809.614
37.082	13.838	1065.567	809.003
38.096	13.752	1065.058	808.124
39.111	13.847	1063.888	807.628
40.126	13.737	1063.065	806.395
41.140	13.718	1061.445	805.001
42.155	13.716	1060.197	803.976
43.169	13.595	1059.843	803.050
44.184	13.624	1058.580	802.162
45.199	13.730	1057.164	801.528
46.213	13.680	1056.269	800.538
47.228	13.727	1055.201	799.888
48.242	13.758	1053.788	798.893
49.257	13.737	1053.004	798.128
50.271	13.711	1052.406	797.478
51.286	13.866	1051.104	797.167
52.301	13.777	1050.156	795.951
53.315	13.781	1048.905	794.952
54.330	13.697	1048.200	793.944
55.344	13.738	1047.382	793.448
56.359	13.734	1046.779	792.906
57.374	13.828	1045.685	792.455
58.388	13.595	1044.768	790.575
59.403	13.636	1044.565	790.551
60.417	13.642	1043.076	789.382
61.432	13.705	1042.037	788.826
62.447	13.605	1041.795	788.094
63.461	13.671	1041.156	787.854
64.476	13.533	1040.299	786.484
65.490	13.766	1038.806	786.390
66.505	13.702	1038.210	785.563
67.520	13.727	1037.694	785.223
68.534	13.767	1036.926	784.761
69.549	13.765	1035.757	783.796
70.563	13.663	1035.227	782.849
71.578	13.646	1034.580	782.208
72.593	13.646	1033.426	781.264
73.607	13.632	1033.014	780.821
74.622	13.611	1032.477	780.245
75.636	13.582	1031.690	779.445
76.651	13.549	1031.377	778.987
77.666	13.599	1030.631	778.586
78.680	13.429	1030.262	777.440
79.695	13.569	1029.336	777.330
80.709	13.695	1028.334	777.097
81.724	13.643	1027.797	776.378
82.739	13.794	1026.766	776.235
83.753	13.779	1025.916	775.453
84.768	13.711	1025.035	774.402
85.782	13.887	1023.994	774.368
86.797	13.790	1023.101	773.175
87.812	13.793	1022.373	772.567
88.826	13.656	1021.491	771.199
89.841	13.713	1020.453	770.611
90.855	13.743	1019.756	770.156
91.870	13.894	1018.382	769.748
92.884	13.910	1018.056	769.510
93.899	13.807	1017.165	768.290
94.914	13.937	1016.082	768.006
95.928	13.869	1015.999	767.561
96.943	13.902	1014.792	766.731
97.957	13.845	1013.605	765.507
98.972	13.793	1013.136	764.842
99.987	13.873	1011.849	764.172
101.001	13.775	1011.079	763.073
102.016	13.882	1010.005	762.687
103.030	13.910	1009.418	762.304
104.045	13.846	1008.649	761.363
105.060	13.728	1008.225	760.435
106.074	13.834	1006.843	759.809
107.089	13.741	1005.785	758.518
108.103	13.732	1004.678	757.574
109.118	13.704	1004.123	756.963
110.133	13.633	1003.153	755.839
111.147	13.626	1002.770	755.453
112.162	13.822	1001.425	755.264
113.176	13.868	1000.972	755.063
114.191	13.775	1000.375	754.126
115.206	13.819	999.621	753.690
116.220	13.614	998.822	752.093
117.235	13.732	997.890	751.859
118.249	13.807	996.937	751.414
119.264	13.821	996.103	750.780
120.279	13.699	995.549	749.746
121.293	13.729	994.299	748.872
122.308	13.715	993.686	748.281
123.322	13.764	992.556	747.585
124.337	13.787	991.123	746.545
125.352	13.856	990.109	746.025
126.366	13.744	989.505	745.001
127.381	13.871	987.946	744.332
128.395	13.798	987.733	743.777
129.410	13.899	986.189	743.000
130.424	13.910	985.984	742.827
131.439	13.893	984.806	741.801
132.454	13.881	984.407	741.381
133.468	13.851	983.397	740.420
134.483	13.831	982.362	739.486
135.497	13.843	981.560	738.869
136.512	13.844	981.064	738.434
137.527	13.843	980.061	737.613
138.541	13.966	979.431	737.617
139.556	13.856	978.600	736.439
140.570	13.993	977.989	736.520
141.585	14.009	976.536	735.431
142.600	13.951	975.708	734.486
143.614	14.031	974.895	734.165
144.629	14.044	974.036	733.510
145.643	14.023	973.191	732.714
146.658	14.059	972.162	732.034
147.673	13.921	971.205	730.642
148.687	13.932	970.443	730.053
149.702	13.962	969.866	729.684
150.716	13.896	969.222	728.847
151.731	13.937	967.978	728.026
152.746	14.000	967.471	727.855
153.760	14.126	966.438	727.567
154.775	14.127	965.933	727.129
155.789	14.064	965.734	726.639
156.804	14.059	965.117	726.086
157.819	14.000	964.534	725.328
158.833	14.127	963.356	724.932
159.848	14.104	962.813	724.357
160.862	14.183	961.842	723.907
161.877	14.152	960.688	722.840
162.892	14.108	959.981	722.051
163.906	14.095	958.649	720.929
164.921	13.919	958.434	719.941
165.935	14.051	957.359	719.640
166.950	14.065	956.225	718.786
167.964	14.185	955.234	718.497
168.979	14.083	954.850	717.704
169.994	14.174	953.744	717.200
171.008	14.049	953.578	716.474
172.023	14.160	952.610	716.161
173.037	14.179	951.833	715.598
174.052	14.284	950.807	715.211
175.067	14.141	950.532	714.326
176.081	13.975	949.963	713.122
177.096	13.982	949.705	712.897
178.110	14.206	948.440	712.846
179.125	14.289	947.911	712.739
180.140	14.121	947.697	711.798
181.154	14.282	947.064	711.945
182.169	14.300	945.993	711.157
183.183	14.198	945.818	710.524
184.198	14.385	944.728	710.440
185.213	14.446	943.642	709.820
186.227	14.499	943.151	709.614
187.242	14.415	942.919	709.020
188.256	14.478	942.181	708.670
189.271	14.302	941.632	707.446
190.286	14.235	940.921	706.566
191.300	14.260	940.146	706.026
192.315	14.275	939.641	705.649
193.329	14.327	939.186	705.465
194.344	14.352	938.502	704.993
195.359	14.472	937.366	704.588
196.373	14.434	937.041	704.118
197.388	14.495	936.462	703.878
198.402	14.521	936.013	703.590
199.417	14.537	935.245	703.019
200.432	14.628	934.504	702.779
201.446	14.621	934.105	702.388
202.461	14.795	933.318	702.465
203.475	14.764	932.966	702.011
204.490	14.539	932.441	700.607
205.504	14.607	931.884	700.413
206.519	14.752	930.523	699.936
207.534	14.722	930.007	699.361
208.548	14.676	929.467	698.699
209.563	14.654	928.738	697.998
210.577	14.771	928.227	698.041
211.592	14.951	927.408	698.114
212.607	14.911	926.394	697.120
213.621	14.807	925.864	696.229
214.636	14.679	925.570	695.414
215.650	14.819	924.622	695.219
216.665	14.668	924.242	694.246
217.680	14.942	923.111	694.474
218.694	14.830	922.472	693.468
219.709	14.832	921.885	692.970
220.723	14.910	921.227	692.738
221.738	14.955	920.940	692.648
222.753	14.813	920.223	691.462
223.767	14.989	919.396	691.505
224.782	15.039	918.613	691.063
225.796	14.960	918.069	690.266
226.811	15.002	917.533	689.973
227.826	15.002	916.912	689.445
228.840	14.979	916.125	688.698
229.855	15.036	914.772	687.854
230.869	15.019	914.380	687.431
231.884	15.070	913.844	687.173
232.899	14.988	913.421	686.458
233.913	14.860	912.841	685.437
234.928	14.980	911.752	685.052
235.942	14.992	911.146	684.585
236.957	14.900	910.803	683.891
237.972	14.990	910.167	683.719
238.986	14.991	909.267	682.988
240.001	14.985	909.088	682.766
241.015	14.943	908.293	681.938
242.030	15.162	907.325	682.043
243.045	15.168	906.899	681.687
244.059	15.159	906.014	680.927
245.074	15.192	905.449	680.575
246.088	15.127	904.783	679.750
247.103	15.241	904.065	679.613
248.117	15.236	903.792	679.327
249.132	15.222	903.093	678.685
250.147	15.288	902.148	678.179
251.161	15.287	901.782	677.841
252.176	15.406	901.020	677.690
253.190	15.459	900.059	677.120
254.205	15.308	899.958	676.376
255.220	15.412	898.904	675.944
256.234	15.467	898.263	675.623
257.249	15.391	898.235	675.235
258.263	15.463	897.116	674.625
259.278	15.573	896.082	674.230
260.293	15.479	895.929	673.675
261.307	15.696	894.623	673.503
262.322	15.659	894.447	673.164
263.336	15.681	893.814	672.716
264.351	15.625	893.070	671.874
265.366	15.648	892.711	671.634
266.380	15.485	892.330	670.638
267.395	15.619	891.187	670.255
268.409	15.676	890.720	670.072
269.424	15.552	889.791	668.820
270.439	15.729	889.171	668.999
271.453	15.642	888.882	668.375
272.468	15.863	887.947	668.491
273.482	15.726	887.136	667.278
274.497	15.657	886.751	666.655
275.512	15.689	886.434	666.484
276.526	15.778	885.586	666.140
277.541	15.798	884.913	665.655
278.555	15.793	884.589	665.332
279.570	15.906	883.701	665.053
280.585	15.843	883.167	664.343
281.599	15.895	882.037	663.638
282.614	15.857	881.588	663.092
283.628	15.965	880.792	662.859
284.643	15.923	880.301	662.266
285.657	15.852	879.633	661.426
286.672	15.901	879.146	661.196
287.687	15.987	878.372	660.891
288.701	16.013	877.966	660.628
289.716	16.037	877.326	660.183
290.730	16.062	876.909	659.908
291.745	15.927	876.320	658.880
292.760	16.027	875.672	658.727
293.774	16.043	874.739	658.028
294.789	16.109	874.006	657.676
295.803	15.930	873.571	656.591
296.818	16.057	873.054	656.638
297.833	16.007	872.119	655.684
298.847	16.037	871.439	655.232
299.862	16.036	871.332	655.088
300.876	16.213	870.260	654.913
301.891	16.226	869.552	654.370
302.906	16.311	869.346	654.488
303.920	16.232	868.803	653.717
304.935	16.326	867.863	653.314
305.949	16.379	867.574	653.243
306.964	16.342	866.831	652.482
307.979	16.308	866.333	651.920
308.993	16.417	865.810	651.890
310.008	16.368	865.212	651.190
311.022	16.415	864.344	650.661
312.037	16.416	863.566	650.023
313.052	16.501	862.898	649.789
314.066	16.412	862.365	648.990
315.081	16.357	862.260	648.641
316.095	16.350	861.580	648.045
317.110	16.313	861.514	647.797
318.125	16.509	860.439	647.679
319.139	16.294	860.213	646.629
320.154	16.482	859.577	646.814
321.168	16.472	858.816	646.148
322.183	16.558	858.205	645.958
323.197	16.377	858.168	645.183
324.212	16.565	857.004	644.966
325.227	16.454	856.504	644.108
326.241	16.516	856.110	643.994
327.256	16.373	856.086	643.375
328.270	16.459	855.030	642.851
329.285	16.443	854.538	642.363
330.300	16.468	853.797	641.844
331.314	16.523	853.603	641.851
332.329	16.504	853.018	641.281
333.343	16.550	852.575	641.065
334.358	16.552	852.065	640.631
335.373	16.627	851.434	640.387
336.387	16.483	851.519	639.847
337.402	16.550	851.651	640.145
338.416	16.577	851.058	639.744
339.431	16.742	850.201	639.667
340.446	16.840	849.713	639.612
341.460	16.697	849.151	638.591
342.475	16.846	848.996	638.980
343.489	16.919	848.494	638.824
344.504	16.930	847.772	638.264
345.519	16.881	847.491	637.809
346.533	16.881	846.986	637.374
347.548	16.935	846.371	637.058
348.562	16.870	845.694	636.248
349.577	16.915	845.169	635.968
350.592	16.898	844.900	635.643
351.606	16.895	844.040	634.930
352.621	16.834	843.543	634.272
353.635	16.892	842.504	633.649
354.650	16.924	842.083	633.399
355.665	17.047	841.209	633.144
356.679	16.972	840.762	632.469
357.694	16.996	840.143	632.039
358.708	16.912	839.579	631.245
359.723	16.867	839.493	630.956
360.738	17.100	838.043	630.677
361.752	17.172	837.440	630.434
362.767	17.107	837.166	629.931
363.781	17.116	836.664	629.533
364.796	17.113	836.357	629.233
365.810	17.154	835.727	628.857
366.825	17.069	835.704	628.470
367.840	17.127	835.287	628.314
368.854	17.126	834.823	627.905
369.869	17.208	834.042	627.566
370.883	17.189	833.632	627.131
371.898	17.341	833.268	627.363
372.913	17.227	832.997	626.681
373.927	17.405	832.198	626.681
374.942	17.361	831.764	626.137
375.956	17.337	831.646	625.906
376.971	17.476	830.741	625.680
377.986	17.397	830.583	625.214
379.000	17.386	829.812	624.539
380.015	17.479	829.607	624.671
381.029	17.632	828.718	624.505
382.044	17.575	828.068	623.755
383.059	17.617	827.885	623.712
384.073	17.518	827.395	622.925
385.088	17.516	826.760	622.386
386.102	17.514	825.977	621.736
387.117	17.520	825.495	621.341
388.132	17.555	824.735	620.840
389.146	17.455	824.650	620.356
390.161	17.576	824.005	620.256
391.175	17.629	823.225	619.808
392.190	17.595	822.862	619.357
393.205	17.520	822.398	618.679
394.219	17.622	821.926	618.640
395.234	17.661	821.785	618.619
396.248	17.671	821.448	618.349
397.263	17.452	821.073	617.219
398.278	17.584	820.401	617.135
399.292	17.589	819.916	616.734
400.307	17.526	819.387	616.054
401.321	17.536	819.159	615.866
402.336	17.701	818.563	615.956
403.350	17.639	818.074	615.310
404.365	17.719	817.482	615.100
405.380	17.852	817.082	615.224
406.394	17.770	816.743	614.620
407.409	17.866	815.923	614.291
408.423	17.753	816.241	614.070
409.438	17.823	815.779	613.922
410.453	18.026	814.793	613.854
411.467	17.944	814.493	613.279
412.482	18.080	814.015	613.353
413.496	18.038	813.574	612.815
414.511	17.942	813.706	612.517
415.526	17.999	813.202	612.286
416.540	18.083	812.829	612.252
417.555	18.002	812.335	611.536
418.569	18.077	811.741	611.305
419.584	18.200	810.859	611.023
420.599	18.081	810.575	610.331
421.613	110.915	1293.580	1470.254
422.628	95.837	1363.923	1470.349
