DTS Sentinel unit serial number:	SN413079Multiplexer serial number:	ORYXHardware model number:	OX4-SRSoftware version number:	ORYX F/W v4.00 Oryx Data Collector v3.7.2.0data status	okinstallation	princeton_trtdifferential loss correction	single-endedforward channel	channel 1reverse channel	N/Adate	2019/09/19time	05:10:35forward acquisition time	60.00reverse acquisition time	0.00gamma	496.2192k internal	0.2342k external	0.2342temperature offset calibration	1.0023default loss term (dB/km)	0.3790temperature slope calibration	1.0000multiplexer offset coefficient	1.0000multiplexer slope coefficient	1.0000fibre end	0.00T internal ref (°C)	19.56T ext. ref 1 (°C)	0.60T ext. ref 2 (°C)	12.76length (m)	temperature (°C)	Stokes	anti-Stokes-747.200	800.000	0.110	0.378
-746.185	336.962	-0.079	-0.154
-745.171	78.388	0.262	-0.280
-744.156	-65.338	0.036	0.015
-743.142	-114.888	0.134	0.026
-742.127	-200.000	0.007	-0.058
-741.112	-200.000	-0.056	-0.284
-740.098	1.342	-0.144	-0.104
-739.083	-5.170	-0.038	0.026
-738.069	-34.459	0.071	0.039
-737.054	11.664	-0.187	0.143
-736.039	-102.849	-0.327	0.078
-735.025	-90.960	0.433	0.125
-734.010	56.079	-0.348	-0.338
-732.996	18.796	-0.211	-0.169
-731.981	164.833	-0.227	-0.321
-730.966	-2.024	-0.314	0.221
-729.952	43.673	-0.368	-0.337
-728.937	9.759	0.097	0.074
-727.923	288.043	0.077	0.139
-726.908	800.000	0.039	0.121
-725.894	78.444	-0.270	-0.289
-724.879	-90.835	-0.169	-0.049
-723.864	129.195	0.241	-0.307
-722.850	-114.200	0.130	0.025
-721.835	800.000	-0.041	0.134
-720.821	-88.947	0.043	-0.013
-719.806	121.708	-0.179	-0.223
-718.791	19.588	-0.062	-0.050
-717.777	552.510	-0.092	-0.221
-716.762	120.734	0.206	0.256
-715.748	800.000	0.049	-0.185
-714.733	-148.269	-0.062	0.005
-713.718	596.921	0.052	-0.130
-712.704	51.677	0.103	0.098
-711.689	23.618	-0.189	0.156
-710.675	-200.000	0.041	-0.335
-709.660	-99.511	-0.375	-0.094
-708.645	63.605	-0.108	-0.108
-707.631	800.000	0.036	-0.100
-706.616	-200.000	0.052	0.309
-705.602	-111.921	-0.237	0.048
-704.587	345.687	-0.100	0.196
-703.572	800.000	-0.080	0.254
-702.558	383.500	0.133	0.273
-701.543	390.165	0.081	-0.167
-700.529	800.000	0.014	-0.049
-699.514	-59.732	0.144	0.062
-698.499	-166.758	0.229	0.009
-697.485	-104.994	0.120	0.027
-696.470	85.101	-0.051	0.056
-695.456	-200.000	0.002	0.114
-694.441	-125.831	-0.121	0.018
-693.426	136.013	-0.031	0.040
-692.412	68.159	0.050	-0.052
-691.397	219.405	-0.217	-0.348
-690.383	-13.841	-0.363	-0.235
-689.368	-106.291	0.394	-0.088
-688.354	-124.643	-0.419	0.065
-687.339	-129.296	-0.272	0.038
-686.324	-42.629	-0.354	-0.180
-685.310	-200.000	0.035	-0.309
-684.295	33.117	0.260	0.225
-683.281	800.000	-0.116	-0.334
-682.266	-101.473	0.383	0.093
-681.251	800.000	0.122	-0.347
-680.237	-193.718	0.343	0.003
-679.222	596.007	-0.111	-0.275
-678.208	-77.697	0.185	-0.064
-677.193	-200.000	-0.013	-0.189
-676.178	800.000	-0.018	0.056
-675.164	26.729	-0.177	-0.148
-674.149	204.804	0.075	-0.117
-673.135	-200.000	-0.006	-0.082
-672.120	-54.186	-0.324	-0.147
-671.105	-133.014	0.227	0.029
-670.091	-114.581	-0.119	-0.023
-669.076	-88.915	-0.418	-0.124
-668.062	-153.270	-0.438	-0.031
-667.047	48.361	-0.180	-0.168
-666.032	-200.000	0.084	-0.370
-665.018	14.339	-0.252	-0.196
-664.003	-54.208	-0.175	-0.080
-662.989	483.098	0.006	-0.014
-661.974	-42.689	-0.175	0.089
-660.959	-119.893	-0.067	-0.012
-659.945	798.427	-0.087	-0.238
-658.930	-100.298	-0.109	-0.027
-657.916	-200.000	0.002	0.139
-656.901	800.000	0.026	0.083
-655.886	-111.887	0.083	0.017
-654.872	-84.110	-0.169	0.053
-653.857	-27.569	0.432	-0.250
-652.843	-20.536	-0.206	-0.126
-651.828	-200.000	-0.009	-0.048
-650.814	-134.702	0.106	0.013
-649.799	224.758	-0.272	0.439
-648.784	-200.000	-0.012	-0.269
-647.770	142.850	0.072	0.095
-646.755	23.149	-0.093	0.076
-645.741	-105.903	-0.120	-0.027
-644.726	12.783	0.125	0.096
-643.711	-52.186	0.114	0.053
-642.697	-71.186	0.071	-0.027
-641.682	5.377	-0.284	-0.209
-640.668	-200.000	-0.005	0.101
-639.653	-137.420	-0.066	-0.007
-638.638	-93.057	0.157	-0.044
-637.624	-200.000	-0.025	-0.113
-636.609	190.322	0.110	0.165
-635.595	-200.000	0.016	0.211
-634.580	-200.000	0.035	-0.258
-633.565	-26.034	-0.329	-0.193
-632.551	645.385	0.111	0.283
-631.536	-11.542	0.182	-0.119
-630.522	-100.486	-0.177	-0.044
-629.507	491.784	0.131	-0.298
-628.492	297.325	-0.105	-0.192
-627.478	-200.000	0.033	-0.165
-626.463	-200.000	0.018	-0.257
-625.449	84.814	-0.357	0.390
-624.434	392.142	0.099	-0.205
-623.419	-133.050	0.199	-0.025
-622.405	99.511	0.061	-0.071
-621.390	-12.832	-0.206	-0.134
-620.376	6.898	-0.383	-0.284
-619.361	-200.000	-0.060	-0.341
-618.346	241.295	0.114	0.189
-617.332	-200.000	0.005	0.212
-616.317	-21.192	0.182	-0.111
-615.303	-200.000	-0.013	0.174
-614.288	74.028	-0.260	-0.272
-613.273	-91.419	0.282	0.080
-612.259	23.123	-0.237	-0.194
-611.244	68.012	-0.276	0.281
-610.230	800.000	-0.080	-0.251
-609.215	800.000	0.076	-0.215
-608.201	-23.338	-0.147	0.088
-607.186	69.845	-0.180	-0.185
-606.171	18.826	0.250	0.199
-605.157	245.141	0.069	0.115
-604.142	314.808	0.075	0.141
-603.128	800.000	-0.062	-0.233
-602.113	-59.096	0.283	0.122
-601.098	800.000	-0.162	-0.518
-600.084	-200.000	0.007	0.293
-599.069	800.000	-0.045	-0.169
-598.055	315.199	0.126	-0.237
-597.040	-200.000	0.033	0.194
-596.025	340.740	-0.045	-0.087
-595.011	800.000	0.121	-0.339
-593.996	-200.000	-0.032	0.230
-592.982	-200.000	0.113	0.001
-591.967	-150.047	0.267	0.021
-590.952	-70.412	0.358	-0.135
-589.938	-109.723	0.127	-0.027
-588.923	234.549	-0.024	-0.039
-587.909	-35.147	-0.220	0.120
-586.894	752.149	-0.069	0.186
-585.879	136.363	0.245	-0.318
-584.865	-62.350	-0.110	0.046
-583.850	120.526	0.079	0.097
-582.836	-164.422	-0.214	-0.010
-581.821	-24.453	-0.112	0.066
-580.806	755.294	0.113	-0.303
-579.792	748.064	-0.113	-0.304
-578.777	-174.719	0.276	-0.008
-577.763	-200.000	-0.001	-0.405
-576.748	82.901	-0.107	-0.116
-575.733	14.887	-0.123	-0.096
-574.719	-161.767	-0.286	0.014
-573.704	-200.000	0.037	-0.241
-572.690	-63.322	-0.245	0.100
-571.675	102.081	0.303	0.352
-570.661	77.020	0.171	0.180
-569.646	-200.000	-0.049	-0.315
-568.631	-130.960	-0.411	-0.055
-567.617	-85.243	0.263	0.082
-566.602	298.229	-0.072	-0.132
-565.588	-27.997	-0.065	-0.038
-564.573	227.492	0.053	-0.086
-563.558	-96.364	-0.092	-0.024
-562.544	134.195	-0.039	-0.050
-561.529	-125.619	-0.065	0.010
-560.515	177.713	0.091	-0.131
-559.500	7.185	-0.195	-0.144
-558.485	-31.293	-0.074	-0.041
-557.471	227.762	-0.064	-0.104
-556.456	-76.254	-0.121	-0.042
-555.442	90.469	0.063	-0.071
-554.427	800.000	0.072	-0.236
-553.412	-35.571	0.167	0.090
-552.398	50.024	-0.227	0.213
-551.383	32.281	-0.188	-0.162
-550.369	800.000	-0.010	-0.028
-549.354	73.334	-0.081	0.084
-548.339	246.364	0.113	0.190
-547.325	37.934	-0.217	0.192
-546.310	-21.437	0.210	0.127
-545.296	-74.329	-0.157	-0.056
-544.281	384.627	0.036	0.074
-543.266	153.771	0.134	0.183
-542.252	163.858	0.124	-0.174
-541.237	-29.680	-0.276	0.156
-540.223	166.868	0.151	0.213
-539.208	249.096	-0.129	-0.217
-538.193	-200.000	-0.016	-0.268
-537.179	800.000	-0.115	-0.348
-536.164	210.877	0.152	0.237
-535.150	300.075	0.025	0.046
-534.135	800.000	0.049	0.173
-533.121	-71.796	-0.225	0.083
-532.106	-22.111	0.179	0.108
-531.091	22.528	-0.152	-0.124
-530.077	29.929	0.149	-0.126
-529.062	91.661	0.181	-0.202
-528.048	-181.479	-0.318	0.006
-527.033	89.729	0.165	0.182
-526.018	-154.255	0.360	-0.024
-525.004	-200.000	-0.080	0.380
-523.989	45.806	0.192	0.176
-522.975	15.379	0.261	0.203
-521.960	-58.770	0.027	0.012
-520.945	39.136	0.126	-0.112
-519.931	800.000	-0.080	-0.277
-518.916	91.972	-0.149	0.166
-517.902	800.000	0.043	0.141
-516.887	123.355	-0.263	0.328
-515.872	-131.083	-0.266	0.035
-514.858	229.105	-0.149	0.242
-513.843	-82.990	-0.219	-0.070
-512.829	-112.817	0.467	-0.092
-511.814	48.426	-0.101	0.094
-510.799	83.396	-0.047	-0.051
-509.785	19.920	0.156	0.125
-508.770	531.059	-0.051	-0.119
-507.756	-63.414	0.180	-0.073
-506.741	-200.000	0.006	0.221
-505.726	-200.000	0.019	0.154
-504.712	-96.738	-0.190	0.050
-503.697	-114.026	-0.067	-0.013
-502.683	-200.000	-0.058	-0.312
-501.668	-118.086	-0.295	-0.052
-500.653	34.117	-0.084	0.072
-499.639	-200.000	-0.020	-0.156
-498.624	760.551	-0.020	-0.055
-497.610	-200.000	-0.055	0.339
-496.595	-17.236	0.443	-0.277
-495.581	-55.850	-0.187	-0.083
-494.566	-181.477	0.387	0.007
-493.551	-200.000	0.011	0.195
-492.537	-46.991	-0.334	-0.162
-491.522	210.189	-0.145	-0.226
-490.508	-28.652	-0.117	-0.067
-489.493	257.905	0.087	0.148
-488.478	620.806	-0.103	0.256
-487.464	-200.000	0.004	-0.398
-486.449	800.000	-0.053	0.181
-485.435	91.944	0.128	0.143
-484.420	800.000	0.007	-0.031
-483.405	66.201	0.090	-0.090
-482.391	-110.206	0.322	-0.067
-481.376	-200.000	-0.032	0.176
-480.362	-30.088	0.139	-0.079
-479.347	-200.000	-0.020	0.105
-478.332	268.209	0.111	-0.193
-477.318	-167.754	0.180	0.007
-476.303	-64.025	0.072	0.029
-475.289	-169.395	0.100	-0.004
-474.274	-200.000	-0.046	0.361
-473.259	17.880	0.237	-0.187
-472.245	-200.000	-0.016	0.114
-471.230	800.000	-0.044	0.148
-470.216	-127.012	-0.194	0.028
-469.201	-131.266	0.300	0.039
-468.186	-93.271	-0.353	0.097
-467.172	-94.196	-0.044	-0.012
-466.157	-200.000	0.029	-0.232
-465.143	-92.846	0.263	-0.073
-464.128	800.000	0.068	-0.193
-463.113	92.669	-0.208	-0.232
-462.099	86.059	-0.115	0.125
-461.084	800.000	-0.103	-0.408
-460.070	800.000	0.038	0.161
-459.055	234.491	-0.122	-0.199
-458.040	-87.670	0.214	-0.064
-457.026	9.369	0.057	0.043
-456.011	-79.151	0.128	-0.043
-454.997	-200.000	-0.026	0.380
-453.982	-31.626	-0.242	0.134
-452.968	-74.721	-0.044	0.016
-451.953	39.749	-0.257	0.228
-450.938	-66.315	0.191	0.075
-449.924	-200.000	0.033	0.294
-448.909	-148.405	-0.109	-0.009
-447.895	-74.710	0.174	0.062
-446.880	-191.134	-0.255	0.003
-445.865	800.000	-0.082	-0.354
-444.851	249.832	-0.093	-0.156
-443.836	800.000	-0.053	0.168
-442.822	-200.000	0.055	0.448
-441.807	-37.852	-0.362	-0.191
-440.792	176.917	-0.179	0.258
-439.778	9.096	0.411	0.307
-438.763	-22.478	0.217	0.130
-437.749	800.000	-0.058	-0.205
-436.734	244.818	0.127	-0.212
-435.719	-54.568	-0.206	0.092
-434.705	162.596	-0.181	0.251
-433.690	222.414	-0.064	-0.102
-432.676	0.798	0.244	0.173
-431.661	-76.833	0.229	-0.079
-430.646	93.783	-0.248	0.278
-429.632	124.666	0.058	-0.072
-428.617	-85.125	-0.058	0.018
-427.603	-200.000	-0.065	0.369
-426.588	-112.483	-0.352	0.070
-425.573	87.952	0.059	0.064
-424.559	-30.435	-0.163	0.091
-423.544	800.000	-0.067	0.273
-422.530	-200.000	0.014	0.126
-421.515	-200.000	-0.020	-0.231
-420.500	237.474	-0.032	-0.052
-419.486	-40.699	0.296	-0.152
-418.471	10.792	-0.046	0.035
-417.457	76.924	-0.121	0.128
-416.442	8.388	-0.092	0.068
-415.428	-27.287	0.087	-0.050
-414.413	256.270	-0.052	-0.089
-413.398	-200.000	-0.065	0.428
-412.384	-200.000	-0.050	0.372
-411.369	800.000	0.085	0.277
-410.355	-12.665	0.220	-0.142
-409.340	421.646	-0.164	-0.348
-408.325	-140.747	0.152	0.016
-407.311	-30.933	-0.106	-0.059
-406.296	-125.665	0.288	0.043
-405.282	-20.900	0.139	0.084
-404.267	77.926	0.072	0.076
-403.252	800.000	-0.096	-0.317
-402.238	-41.368	-0.127	-0.065
-401.223	44.882	0.098	-0.089
-400.209	232.525	0.096	-0.156
-399.194	-89.080	-0.064	-0.019
-398.179	-200.000	0.004	-0.095
-397.165	423.704	0.052	0.111
-396.150	800.000	-0.023	-0.079
-395.136	32.370	-0.260	0.222
-394.121	-200.000	-0.005	0.350
-393.106	194.751	-0.121	-0.181
-392.092	144.775	-0.148	0.196
-391.077	-200.000	-0.050	0.310
-390.063	46.728	0.090	0.082
-389.048	-65.538	-0.243	-0.096
-388.033	-54.751	-0.287	-0.128
-387.019	-122.571	-0.084	-0.013
-386.004	6.266	0.110	0.081
-384.990	171.722	-0.016	-0.023
-383.975	-18.436	0.038	0.023
-382.960	-120.617	0.260	-0.043
-381.946	-64.744	0.237	-0.095
-380.931	800.000	-0.055	-0.196
-379.917	-200.000	-0.134	0.000
-378.902	-200.000	-0.026	-0.209
-377.888	-89.276	0.299	-0.087
-376.873	8.154	0.241	-0.179
-375.858	463.006	0.151	0.333
-374.844	-200.000	0.038	-0.180
-373.829	12.969	0.126	0.096
-372.815	-150.019	-0.161	0.012
-371.800	800.000	0.071	0.210
-370.785	57.593	0.205	-0.198
-369.771	800.000	0.008	-0.025
-368.756	104.852	-0.148	-0.172
-367.742	597.686	0.079	-0.194
-366.727	414.082	0.137	-0.289
-365.712	152.781	-0.125	0.169
-364.698	36.143	0.059	0.051
-363.683	-135.275	-0.203	0.024
-362.669	-115.430	-0.262	-0.049
-361.654	800.000	0.036	0.114
-360.639	169.743	0.079	-0.112
-359.625	305.204	0.060	-0.110
-358.610	-123.825	-0.274	-0.043
-357.596	-183.977	-0.192	-0.003
-356.581	-51.182	0.052	0.024
-355.566	-200.000	-0.034	0.197
-354.552	771.352	0.025	0.068
-353.537	-140.635	-0.084	0.009
-352.523	-46.145	-0.056	0.027
-351.508	185.172	0.123	0.180
-350.493	-24.050	0.299	0.176
-349.479	-37.875	-0.210	0.110
-348.464	-67.443	-0.127	-0.049
-347.450	-200.000	0.015	-0.076
-346.435	293.463	-0.158	0.284
-345.420	-200.000	-0.007	-0.155
-344.406	170.989	-0.203	-0.287
-343.391	800.000	-0.050	-0.216
-342.377	76.367	0.017	0.018
-341.362	-99.513	0.087	-0.021
-340.348	-154.941	0.097	-0.006
-339.333	21.787	0.138	-0.111
-338.318	-174.685	-0.018	0.001
-337.304	800.000	-0.030	-0.128
-336.289	230.331	-0.215	0.347
-335.275	-200.000	-0.021	0.090
-334.260	-20.585	0.067	0.041
-333.245	173.483	-0.172	0.244
-332.231	57.806	-0.038	0.037
-331.216	-200.000	0.033	0.396
-330.202	-74.318	0.092	0.033
-329.187	-89.235	-0.187	0.054
-328.172	800.000	-0.061	-0.218
-327.158	-200.000	-0.033	-0.357
-326.143	-200.000	-0.032	-0.148
-325.129	58.742	-0.125	0.121
-324.114	-155.279	0.170	-0.011
-323.099	47.461	0.213	0.195
-322.085	162.216	-0.238	-0.329
-321.070	-200.000	-0.007	-0.112
-320.056	800.000	-0.106	0.393
-319.041	-58.337	0.054	0.023
-318.026	45.393	-0.331	0.301
-317.012	87.934	-0.160	0.175
-315.997	-58.308	-0.414	0.177
-314.983	-200.000	-0.018	-0.208
-313.968	-11.783	0.130	0.084
-312.953	-119.207	0.255	0.044
-311.939	86.333	-0.162	0.176
-310.924	114.535	0.179	0.215
-309.910	800.000	-0.053	-0.228
-308.895	-46.051	-0.129	-0.063
-307.880	393.866	0.091	-0.187
-306.866	-112.012	0.211	0.042
-305.851	192.585	-0.180	0.268
-304.837	24.695	0.207	0.168
-303.822	204.597	0.017	-0.026
-302.807	19.791	-0.159	-0.126
-301.793	-174.306	0.195	0.006
-300.778	-200.000	-0.001	0.085
-299.764	-200.000	-0.159	-0.000
-298.749	-43.289	-0.348	-0.173
-297.735	-83.649	-0.134	-0.042
-296.720	-78.924	0.150	0.050
-295.705	800.000	-0.050	0.148
-294.691	-7.451	0.165	-0.110
-293.676	111.427	-0.180	0.213
-292.662	-200.000	0.016	-0.140
-291.647	-67.367	-0.313	0.121
-290.632	-55.204	0.125	0.056
-289.618	-108.707	-0.174	0.037
-288.603	260.449	-0.105	0.178
-287.589	-123.353	0.353	-0.055
-286.574	-93.406	-0.138	0.038
-285.559	80.516	0.117	0.124
-284.545	-89.594	-0.300	0.087
-283.530	-200.000	-0.007	0.337
-282.516	-93.549	-0.323	-0.088
-281.501	-36.706	0.159	-0.084
-280.486	-88.093	0.205	-0.060
-279.472	418.013	-0.126	-0.264
-278.457	203.044	0.128	-0.195
-277.443	-0.437	-0.242	-0.169
-276.428	202.313	0.078	-0.119
-275.413	-53.235	0.136	0.061
-274.399	9.138	-0.170	-0.126
-273.384	-200.000	0.021	0.287
-272.370	-21.203	0.123	0.074
-271.355	581.801	-0.034	-0.083
-270.340	800.000	0.104	-0.302
-269.326	-83.188	0.337	-0.107
-268.311	525.509	0.136	0.314
-267.297	140.689	0.097	0.125
-266.282	-200.000	0.015	0.085
-265.267	357.037	0.052	-0.102
-264.253	-200.000	-0.012	-0.059
-263.238	-200.000	0.006	-0.159
-262.224	-200.000	-0.014	-0.192
-261.209	-5.720	-0.126	0.085
-260.195	29.946	0.161	0.135
-259.180	285.376	0.075	0.133
-258.165	-117.204	0.226	-0.040
-257.151	110.712	-0.213	-0.252
-256.136	345.983	0.206	-0.397
-255.122	-79.424	0.378	-0.125
-254.107	-162.476	-0.408	-0.020
-253.092	-119.242	0.484	0.083
-252.078	83.197	-0.079	-0.084
-251.063	-93.289	0.189	0.051
-250.049	158.513	-0.078	-0.106
-249.034	-154.424	-0.107	-0.007
-248.019	-72.948	0.287	-0.103
-247.005	-68.170	0.208	0.080
-245.990	31.687	0.123	0.104
-244.976	-70.446	-0.098	0.036
-243.961	-117.842	0.108	-0.019
-242.946	-2.868	0.134	-0.092
-241.932	283.606	-0.212	-0.374
-240.917	-27.899	-0.112	0.064
-239.903	144.280	0.047	-0.062
-238.888	-200.000	0.073	-0.411
-237.873	-112.039	-0.178	0.035
-236.859	120.541	0.017	0.021
-235.844	-144.578	0.301	0.027
-234.830	299.926	-0.221	-0.401
-233.815	87.653	-0.113	0.122
-232.800	800.000	0.067	-0.281
-231.786	-200.000	0.011	-0.147
-230.771	521.133	0.151	0.347
-229.757	127.342	-0.078	-0.097
-228.742	475.132	0.195	0.431
-227.727	269.895	0.139	0.239
-226.713	-200.000	-0.014	-0.366
-225.698	-166.733	0.284	0.012
-224.684	-79.622	-0.153	-0.051
-223.669	275.884	-0.210	-0.365
-222.655	800.000	0.075	0.320
-221.640	249.518	-0.116	0.192
-220.625	66.417	-0.213	-0.212
-219.611	800.000	-0.058	-0.242
-218.596	-200.000	0.042	0.243
-217.582	-76.182	0.260	0.090
-216.567	58.828	0.294	0.284
-215.552	-181.852	-0.075	-0.001
-214.538	-200.000	-0.010	-0.054
-213.523	133.325	-0.168	0.212
-212.509	-157.734	-0.164	0.010
-211.494	70.819	-0.220	0.224
-210.479	-200.000	0.043	-0.207
-209.465	-71.512	-0.225	-0.082
-208.450	-173.796	0.365	0.011
-207.436	-200.000	-0.017	-0.227
-206.421	800.000	-0.024	0.085
-205.406	-97.058	-0.124	-0.032
-204.392	800.000	0.033	-0.138
-203.377	43.524	0.079	-0.071
-202.363	-91.506	0.280	0.078
-201.348	-173.184	0.304	-0.009
-200.333	130.886	-0.214	-0.269
-199.319	35.660	0.217	0.187
-198.304	247.328	0.085	-0.142
-197.290	486.970	0.045	-0.100
-196.275	800.000	0.021	0.080
-195.260	-106.461	0.121	0.026
-194.246	-200.000	-0.056	0.398
-193.231	-67.551	-0.090	0.034
-192.217	-18.368	-0.052	-0.032
-191.202	443.996	0.066	0.142
-190.187	-115.964	0.107	0.020
-189.173	-118.472	-0.142	-0.025
-188.158	-200.000	-0.001	0.221
-187.144	-157.956	-0.161	0.009
-186.129	339.457	0.032	0.061
-185.114	609.773	-0.110	-0.269
-184.100	78.152	0.183	0.192
-183.085	-200.000	-0.028	-0.210
-182.071	-35.199	-0.205	-0.110
-181.056	-58.129	0.256	0.109
-180.042	-200.000	-0.013	-0.157
-179.027	524.761	0.178	-0.411
-178.012	-118.212	0.331	0.058
-176.998	-200.000	-0.030	0.217
-175.983	168.748	0.139	-0.194
-174.969	129.539	-0.067	0.084
-173.954	-157.771	0.430	0.025
-172.939	14.971	0.209	0.160
-171.925	256.035	0.125	-0.211
-170.910	-51.081	0.111	-0.051
-169.896	148.399	-0.107	-0.142
-168.881	375.957	-0.223	-0.446
-167.866	-148.221	-0.359	-0.029
-166.852	214.603	0.059	0.092
-165.837	-122.698	-0.285	0.045
-164.823	475.616	0.154	0.342
-163.808	-124.099	0.298	0.046
-162.793	-200.000	-0.009	-0.150
-161.779	396.524	0.099	0.203
-160.764	-77.626	0.225	-0.076
-159.750	11.687	0.066	-0.049
-158.735	-200.000	0.044	0.193
-157.720	800.000	0.142	0.447
-156.706	-110.634	-0.302	-0.061
-155.691	-200.000	-0.017	0.332
-154.677	29.781	0.226	0.189
-153.662	-132.869	-0.288	0.036
-152.647	-200.000	0.017	-0.248
-151.633	-71.003	0.163	0.060
-150.618	456.845	0.008	-0.018
-149.604	277.925	-0.144	0.251
-148.589	34.559	0.175	-0.150
-147.574	45.606	0.095	-0.086
-146.560	800.000	0.135	0.452
-145.545	800.000	-0.059	-0.237
-144.531	-75.003	0.360	-0.126
-143.516	217.549	-0.102	-0.159
-142.502	119.255	0.159	0.192
-141.487	155.477	0.108	0.145
-140.472	60.927	0.161	-0.156
-139.458	-38.316	-0.386	-0.200
-138.443	15.201	-0.020	-0.016
-137.429	41.031	0.071	0.063
-136.414	-58.816	-0.268	0.113
-135.399	205.471	-0.084	0.127
-134.385	717.889	0.056	0.146
-133.370	-200.000	0.007	0.032
-132.356	48.140	-0.173	0.159
-131.341	-99.917	-0.251	0.061
-130.326	116.552	-0.036	0.043
-129.312	44.859	-0.061	-0.055
-128.297	15.272	-0.103	-0.079
-127.283	-53.103	-0.077	-0.035
-126.268	-4.267	0.076	-0.052
-125.253	-200.000	-0.024	0.440
-124.239	-76.324	0.181	-0.062
-123.224	201.677	0.013	-0.020
-122.210	58.775	-0.120	0.115
-121.195	137.652	-0.096	-0.123
-120.180	-138.655	0.171	-0.018
-119.166	-44.663	-0.078	-0.038
-118.151	721.243	0.081	0.210
-117.137	-133.650	0.181	-0.022
-116.122	-95.479	-0.373	0.098
-115.107	-161.988	-0.354	-0.017
-114.093	-66.198	-0.277	0.108
-113.078	-78.305	0.515	-0.173
-112.064	-200.000	0.005	-0.146
-111.049	-179.705	-0.102	0.002
-110.034	-83.425	-0.086	-0.027
-109.020	-33.693	0.192	-0.104
-108.005	41.504	-0.121	0.107
-106.991	-94.526	0.037	-0.010
-105.976	-200.000	-0.009	-0.238
-104.962	80.648	0.200	0.211
-103.947	2.155	0.301	-0.212
-102.932	303.909	0.152	-0.275
-101.918	604.668	0.126	0.307
-100.903	-139.382	-0.579	-0.061
-99.889	-41.986	-0.380	0.190
-98.874	42.133	0.127	0.113
-97.859	-144.523	0.287	0.026
-96.845	285.481	-0.041	0.073
-95.830	604.724	-0.143	-0.347
-94.816	-152.273	-0.264	0.019
-93.801	-200.000	-0.016	-0.111
-92.786	176.894	0.196	-0.278
-91.772	800.000	-0.019	-0.063
-90.757	419.159	0.154	0.321
-89.743	800.000	0.157	0.495
-88.728	-61.411	-0.042	0.017
-87.713	189.309	-0.136	0.199
-86.699	-54.667	-0.114	0.050
-85.684	160.237	-0.303	0.412
-84.670	111.016	0.207	0.243
-83.655	-108.684	-0.252	-0.053
-82.640	-200.000	0.087	0.487
-81.626	-200.000	-0.031	0.149
-80.611	800.000	0.026	0.085
-79.597	-92.310	0.299	0.082
-78.582	-94.922	-0.112	-0.029
-77.567	800.000	0.066	-0.228
-76.553	-200.000	0.012	0.053
-75.538	-17.183	-0.197	-0.121
-74.524	-200.000	0.117	-0.000
-73.509	-115.267	-0.221	0.041
-72.494	124.660	0.139	0.171
-71.480	233.923	0.115	0.185
-70.465	-170.653	-0.231	-0.008
-69.451	-95.801	-0.336	-0.087
-68.436	800.000	-0.014	-0.046
-67.422	182.601	-0.378	0.543
-66.407	125.887	0.043	-0.053
-65.392	-14.388	-0.541	-0.340
-64.378	-114.407	0.428	0.080
-63.363	-29.578	0.150	-0.084
-62.349	-56.349	-0.277	0.120
-61.334	23.546	-1.408	-1.130
-60.319	80.909	0.769	0.809
-59.305	208.180	-0.722	-1.101
-58.290	137.474	1.416	1.807
-57.276	460.390	0.734	1.595
-56.261	-200.000	136.921	624.816
-55.246	339.232	1645.363	3125.599
-54.232	136.749	2776.101	3533.872
-53.217	82.063	2155.668	2277.393
-52.203	30.191	1591.499	1324.036
-51.188	22.513	1344.629	1072.084
-50.173	20.643	1310.282	1033.560
-49.159	46.553	1385.427	1253.096
-48.144	42.299	1394.115	1234.790
-47.130	22.507	1342.163	1069.914
-46.115	19.731	1323.402	1038.267
-45.100	19.517	1317.810	1032.562
-44.086	19.534	1315.400	1030.732
-43.071	19.464	1313.186	1028.541
-42.057	19.390	1311.288	1026.573
-41.042	19.456	1309.488	1025.515
-40.027	19.440	1308.126	1024.312
-39.013	19.509	1305.717	1022.794
-37.998	19.449	1304.417	1021.378
-36.984	19.574	1302.650	1020.694
-35.969	19.564	1300.690	1019.056
-34.954	19.608	1299.377	1018.250
-33.940	19.593	1298.196	1017.196
-32.925	19.541	1296.938	1015.862
-31.911	19.601	1295.125	1014.756
-30.896	19.619	1293.553	1013.587
-29.881	19.728	1291.782	1012.799
-28.867	19.627	1290.992	1011.551
-27.852	19.729	1288.990	1010.537
-26.838	19.738	1287.740	1009.569
-25.823	19.651	1286.568	1008.100
-24.809	19.632	1285.081	1006.786
-23.794	19.645	1284.135	1006.083
-22.779	19.610	1282.716	1004.725
-21.765	19.633	1281.659	1003.992
-20.750	19.652	1280.039	1002.791
-19.736	19.581	1279.016	1001.540
-18.721	19.472	1278.366	1000.359
-17.706	19.480	1276.954	999.258
-16.692	19.508	1275.646	998.362
-15.677	19.552	1274.473	997.656
-14.663	19.444	1273.211	996.007
-13.648	19.573	1271.877	995.664
-12.633	19.513	1271.346	994.863
-11.619	19.506	1270.675	994.259
-10.604	19.559	1269.658	993.732
-9.590	19.574	1268.565	992.918
-8.575	19.465	1267.645	991.534
-7.560	19.492	1266.593	990.825
-6.546	19.526	1265.657	990.251
-5.531	19.382	1265.170	989.003
-4.517	19.486	1264.555	989.081
-3.502	19.470	1263.410	988.058
-2.487	19.629	1262.232	988.005
-1.473	19.512	1258.092	984.055
-0.458	17.697	1242.471	961.575
0.556	13.133	1226.781	923.255
1.571	9.479	1235.552	909.171
2.586	8.977	1250.496	917.215
3.600	9.113	1238.195	908.880
4.615	6.989	1167.683	845.702
5.629	2.801	1099.594	775.191
6.644	0.679	1084.852	754.150
7.659	0.520	1082.654	751.766
8.673	0.517	1082.247	751.400
9.688	0.684	1080.408	750.885
10.702	0.763	1077.686	749.321
11.717	3.461	1080.651	764.709
12.731	9.317	1088.499	799.376
13.746	15.163	1095.878	833.908
14.761	17.207	1098.541	846.046
15.775	16.548	1096.569	841.180
16.790	15.539	1094.861	834.778
17.804	14.937	1093.241	830.485
18.819	14.523	1092.467	827.766
19.834	14.406	1091.159	826.122
20.848	14.165	1090.422	824.298
21.863	13.820	1089.664	821.944
22.877	13.684	1088.997	820.695
23.892	13.791	1088.231	820.573
24.907	13.679	1087.377	819.306
25.921	13.694	1086.692	818.789
26.936	13.780	1085.661	818.362
27.950	13.826	1084.547	817.680
28.965	13.947	1083.056	817.080
29.980	13.918	1081.681	815.824
30.994	13.887	1081.068	815.137
32.009	13.894	1079.981	814.280
33.023	13.847	1078.872	813.144
34.038	13.878	1077.948	812.527
35.053	13.732	1077.168	811.153
36.067	13.712	1076.406	810.410
37.082	13.822	1075.528	810.215
38.096	13.872	1074.897	809.912
39.111	13.876	1074.006	809.187
40.126	13.814	1072.767	807.879
41.140	13.720	1071.502	806.397
42.155	13.755	1070.240	805.549
43.169	13.616	1069.524	804.262
44.184	13.701	1068.084	803.519
45.199	13.692	1067.174	802.722
46.213	13.703	1066.122	801.915
47.228	13.807	1064.864	801.397
48.242	13.740	1064.061	800.402
49.257	13.741	1063.354	799.803
50.271	13.773	1062.242	799.049
51.286	13.855	1061.023	798.453
52.301	13.804	1059.931	797.320
53.315	13.651	1059.469	796.165
54.330	13.674	1058.632	795.574
55.344	13.749	1057.274	794.845
56.359	13.726	1056.233	793.880
57.374	13.832	1055.187	793.530
58.388	13.689	1054.481	792.246
59.403	13.623	1054.105	791.581
60.417	13.623	1053.067	790.731
61.432	13.670	1052.143	790.189
62.447	13.542	1051.952	789.369
63.461	13.754	1050.140	788.947
64.476	13.567	1049.581	787.569
65.490	13.706	1048.360	787.239
66.505	13.659	1047.985	786.667
67.520	13.642	1047.718	786.314
68.534	13.664	1046.355	785.330
69.549	13.654	1046.267	785.144
70.563	13.715	1044.849	784.300
71.578	13.537	1044.248	782.939
72.593	13.699	1043.328	782.947
73.607	13.599	1042.696	781.931
74.622	13.599	1042.162	781.457
75.636	13.536	1041.351	780.484
76.651	13.637	1040.512	780.263
77.666	13.522	1040.064	779.316
78.680	13.601	1039.075	778.876
79.695	13.598	1038.330	778.235
80.709	13.464	1038.191	777.432
81.724	13.509	1037.742	777.243
82.739	13.779	1036.545	777.540
83.753	13.760	1035.436	776.551
84.768	13.698	1034.873	775.770
85.782	13.851	1033.704	775.541
86.797	13.797	1032.662	774.437
87.812	13.746	1032.005	773.638
88.826	13.761	1031.052	772.925
89.841	13.818	1029.894	772.255
90.855	13.852	1028.899	771.599
91.870	13.792	1028.348	770.840
92.884	13.793	1027.539	770.166
93.899	13.913	1026.527	769.898
94.914	13.966	1025.814	769.540
95.928	13.857	1025.390	768.648
96.943	13.878	1024.259	767.829
97.957	13.912	1023.077	767.032
98.972	13.831	1022.320	766.025
99.987	13.847	1021.875	765.696
101.001	13.882	1020.586	764.824
102.016	13.785	1019.887	763.785
103.030	13.978	1018.918	763.880
104.045	13.854	1018.368	762.830
105.060	13.878	1016.950	761.812
106.074	13.759	1016.111	760.568
107.089	13.747	1015.512	759.998
108.103	13.808	1014.266	759.280
109.118	13.817	1013.395	758.601
110.133	13.744	1012.573	757.587
111.147	13.756	1011.713	756.929
112.162	13.708	1010.970	756.086
113.176	13.713	1009.968	755.296
114.191	13.802	1009.295	755.128
115.206	13.904	1008.764	755.130
116.220	13.995	1007.134	754.255
117.235	13.837	1006.270	752.826
118.249	13.843	1005.635	752.309
119.264	13.795	1004.677	751.311
120.279	13.833	1003.782	750.747
121.293	13.887	1003.294	750.557
122.308	13.727	1002.231	748.975
123.322	13.702	1001.461	748.221
124.337	13.679	1000.275	747.163
125.352	13.882	999.202	747.210
126.366	13.874	998.227	746.378
127.381	13.749	997.144	744.943
128.395	13.799	996.222	744.409
129.410	13.775	995.848	743.956
130.424	13.753	994.820	743.026
131.439	13.766	993.889	742.324
132.454	13.805	993.466	742.115
133.468	13.760	992.540	741.156
134.483	13.870	991.456	740.775
135.497	13.885	989.941	739.644
136.512	13.676	990.032	738.712
137.527	13.679	989.161	738.011
138.541	13.752	988.467	737.753
139.556	13.760	987.334	736.879
140.570	13.869	986.985	737.035
141.585	14.002	986.090	736.894
142.600	14.021	984.862	735.995
143.614	14.066	984.001	735.483
144.629	13.991	983.641	734.821
145.643	14.033	982.500	734.086
146.658	13.968	981.339	732.866
147.673	14.001	980.344	732.205
148.687	13.917	979.453	731.107
149.702	13.889	978.540	730.238
150.716	14.045	977.891	730.373
151.731	14.020	976.720	729.324
152.746	13.955	976.526	728.831
153.760	13.969	975.948	728.396
154.775	14.118	975.372	728.554
155.789	14.089	974.469	727.688
156.804	14.137	973.450	727.072
157.819	14.180	972.597	726.559
158.833	14.108	972.562	726.152
159.848	14.071	971.298	724.984
160.862	14.282	970.122	724.963
161.877	14.079	969.420	723.487
162.892	14.103	968.699	722.993
163.906	14.077	967.641	722.024
164.921	14.018	967.145	721.336
165.935	14.251	965.817	721.291
166.950	14.130	965.417	720.404
167.964	14.121	964.308	719.475
168.979	14.127	963.311	718.692
169.994	14.308	961.924	718.376
171.008	14.215	961.920	717.907
172.023	14.227	961.051	717.246
173.037	14.231	960.527	716.809
174.052	14.240	959.121	715.737
175.067	14.109	958.940	714.973
176.081	14.223	958.392	714.993
177.096	14.157	958.060	714.395
178.110	14.211	957.009	713.780
179.125	14.383	956.451	714.040
180.140	14.356	956.116	713.610
181.154	14.318	955.659	713.043
182.169	14.394	955.069	712.863
183.183	14.408	954.613	712.522
184.198	14.263	953.864	711.280
185.213	14.429	952.675	711.041
186.227	14.380	952.614	710.720
187.242	14.531	951.958	710.811
188.256	14.389	951.362	709.701
189.271	14.490	950.092	709.121
190.286	14.360	949.663	708.184
191.300	14.321	949.046	707.497
192.315	14.395	948.206	707.121
193.329	14.435	947.843	706.957
194.344	14.336	947.546	706.252
195.359	14.485	946.094	705.740
196.373	14.491	945.745	705.444
197.388	14.623	945.119	705.471
198.402	14.611	944.743	705.077
199.417	14.706	943.856	704.754
200.432	14.685	943.212	704.121
201.446	14.529	943.210	703.399
202.461	14.638	942.512	703.275
203.475	14.764	941.549	703.025
204.490	14.655	941.054	702.136
205.504	14.621	940.631	701.613
206.519	14.712	939.561	701.136
207.534	14.748	939.107	700.885
208.548	14.667	938.349	699.922
209.563	14.738	937.951	699.860
210.577	14.632	937.113	698.727
211.592	14.922	935.673	698.802
212.607	14.766	935.099	697.663
213.621	14.856	934.462	697.499
214.636	14.810	933.592	696.597
215.650	14.939	932.880	696.542
216.665	14.837	932.716	695.931
217.680	14.907	931.770	695.458
218.694	14.946	931.111	695.065
219.709	14.869	930.725	694.397
220.723	14.930	929.445	693.632
221.738	14.960	928.759	693.183
222.753	14.961	928.310	692.793
223.767	14.981	927.579	692.269
224.782	15.120	927.142	692.455
225.796	15.072	926.802	691.944
226.811	14.963	925.876	690.741
227.826	15.049	925.425	690.694
228.840	15.004	924.403	689.688
229.855	14.991	923.563	688.944
230.869	14.933	923.127	688.321
231.884	15.030	922.259	688.011
232.899	14.911	921.824	687.137
233.913	14.910	920.768	686.286
234.928	14.940	920.494	686.142
235.942	15.024	919.707	685.840
236.957	15.049	919.512	685.737
237.972	15.027	918.688	684.972
238.986	15.043	917.720	684.254
240.001	15.103	916.801	683.755
241.015	15.157	916.221	683.481
242.030	15.073	915.708	682.696
243.045	15.107	915.371	682.520
244.059	15.116	914.762	682.044
245.074	15.138	914.160	681.625
246.088	15.295	912.915	681.274
247.103	15.159	913.038	680.752
248.117	15.112	912.430	680.050
249.132	15.346	911.418	680.183
250.147	15.256	911.035	679.474
251.161	15.348	910.083	679.075
252.176	15.474	909.103	678.793
253.190	15.492	908.632	678.452
254.205	15.503	907.936	677.920
255.220	15.525	907.416	677.560
256.234	15.459	906.785	676.763
257.249	15.432	906.010	676.013
258.263	15.601	904.738	675.686
259.278	15.610	904.744	675.665
260.293	15.535	903.923	674.691
261.307	15.596	903.517	674.575
262.322	15.573	902.461	673.633
263.336	15.782	901.523	673.711
264.351	15.763	900.912	673.119
265.366	15.760	900.861	673.008
266.380	15.750	899.770	672.093
267.395	15.675	899.571	671.585
268.409	15.700	898.487	670.819
269.424	15.821	897.675	670.635
270.439	15.827	897.137	670.197
271.453	15.734	896.630	669.390
272.468	15.719	895.907	668.729
273.482	15.701	895.249	668.109
274.497	15.780	894.649	667.916
275.512	15.858	894.107	667.760
276.526	15.785	893.694	667.104
277.541	15.912	892.940	666.984
278.555	15.877	892.632	666.556
279.570	15.968	891.803	666.240
280.585	15.935	890.908	665.382
281.599	15.951	889.916	664.644
282.614	15.869	889.655	664.070
283.628	15.919	889.049	663.752
284.643	15.926	888.253	663.130
285.657	15.992	887.703	662.921
286.672	15.994	887.053	662.381
287.687	15.917	886.485	661.596
288.701	16.069	885.869	661.676
289.716	16.064	885.267	661.148
290.730	16.057	884.751	660.675
291.745	16.006	884.418	660.169
292.760	16.102	883.728	659.971
293.774	16.070	883.251	659.432
294.789	16.151	882.098	658.831
295.803	16.072	881.566	658.064
296.818	15.981	880.768	657.058
297.833	16.182	880.083	657.272
298.847	16.116	879.431	656.470
299.862	16.333	878.819	656.797
300.876	16.206	878.450	655.970
301.891	16.105	877.983	655.170
302.906	16.351	877.429	655.655
303.920	16.388	876.913	655.357
304.935	16.164	876.518	654.132
305.949	16.367	875.467	654.079
306.964	16.461	874.910	653.966
307.979	16.446	874.174	653.302
308.993	16.379	873.501	652.481
310.008	16.530	873.068	652.681
311.022	16.334	872.692	651.588
312.037	16.408	871.897	651.223
313.052	16.435	871.455	650.936
314.066	16.397	870.547	650.054
315.081	16.272	870.064	649.158
316.095	16.415	869.528	649.248
317.110	16.407	868.646	648.504
318.125	16.360	868.245	647.964
319.139	16.462	868.119	648.203
320.154	16.262	867.949	647.255
321.168	16.427	867.085	647.185
322.183	16.549	866.313	647.017
323.197	16.452	865.705	646.137
324.212	16.512	865.504	646.157
325.227	16.411	864.863	645.237
326.241	16.482	863.946	644.767
327.256	16.449	863.570	644.304
328.270	16.621	862.964	644.447
329.285	16.525	862.316	643.544
330.300	16.456	861.800	642.839
331.314	16.557	861.032	642.593
332.329	16.765	860.684	643.066
333.343	16.601	860.198	642.023
334.358	16.861	859.316	642.294
335.373	16.682	859.237	641.499
336.387	16.528	859.056	640.724
337.402	16.656	858.637	640.839
338.416	16.787	858.375	641.083
339.431	16.796	857.547	640.440
340.446	16.810	857.539	640.431
341.460	16.856	857.346	640.403
342.475	16.843	856.740	639.847
343.489	16.726	856.119	638.886
344.504	16.968	855.415	639.213
345.519	16.893	855.171	638.692
346.533	17.053	854.521	638.753
347.548	16.990	854.092	638.140
348.562	16.956	853.396	637.436
349.577	16.937	852.989	637.003
350.592	16.913	852.257	636.311
351.606	16.857	851.526	635.498
352.621	16.739	850.958	634.577
353.635	17.051	850.063	635.020
354.650	17.001	849.753	634.543
355.665	16.923	849.291	633.851
356.679	17.203	848.161	634.000
357.694	17.031	847.736	632.982
358.708	17.126	847.032	632.755
359.723	16.903	846.817	631.709
360.738	17.077	846.284	631.902
361.752	17.209	845.076	631.435
362.767	17.237	844.405	630.981
363.781	17.200	844.133	630.584
364.796	17.218	843.737	630.300
365.810	17.197	843.572	630.044
366.825	17.293	842.993	629.910
367.840	17.299	842.625	629.601
368.854	17.229	842.126	628.914
369.869	17.259	841.625	628.594
370.883	17.373	840.790	628.339
371.898	17.284	840.890	628.028
372.913	17.471	840.134	628.096
373.927	17.515	839.674	627.860
374.942	17.341	839.508	627.040
375.956	17.452	838.950	626.977
376.971	17.471	838.293	626.498
377.986	17.446	838.167	626.259
379.000	17.495	837.728	626.054
380.015	17.498	836.890	625.385
381.029	17.553	836.439	625.194
382.044	17.549	835.912	624.728
383.059	17.526	835.172	624.037
384.073	17.510	834.620	623.512
385.088	17.477	834.149	622.983
386.102	17.517	833.413	622.524
387.117	17.527	832.698	621.973
388.132	17.550	832.667	621.976
389.146	17.495	831.846	621.111
390.161	17.576	831.512	621.099
391.175	17.618	830.948	620.776
392.190	17.565	830.281	620.031
393.205	17.637	829.806	619.883
394.219	17.563	829.756	619.520
395.234	17.647	829.120	619.297
396.248	17.679	828.380	618.806
397.263	17.633	828.143	618.407
398.278	17.513	828.358	618.077
399.292	17.723	827.333	618.021
400.307	17.736	826.921	617.704
401.321	17.736	826.461	617.306
402.336	17.783	825.916	617.014
403.350	17.674	825.662	616.375
404.365	17.910	824.956	616.646
405.380	17.785	824.455	615.766
406.394	17.894	824.091	615.834
407.409	17.893	823.740	615.514
408.423	17.849	823.518	615.134
409.438	17.800	823.049	614.551
410.453	18.004	822.466	614.796
411.467	18.018	821.855	614.337
412.482	18.005	821.718	614.133
413.496	18.100	821.289	614.099
414.511	18.118	820.784	613.732
415.526	18.155	820.267	613.422
416.540	18.103	820.150	613.095
417.555	18.040	819.685	612.469
418.569	18.137	819.055	612.288
419.584	18.107	818.565	611.760
420.599	18.162	818.090	611.549
421.613	115.600	1301.543	1490.978
422.628	100.231	1371.933	1491.039
