DTS Sentinel unit serial number:	SN413079Multiplexer serial number:	ORYXHardware model number:	OX4-SRSoftware version number:	ORYX F/W v4.00 Oryx Data Collector v3.7.2.0data status	okinstallation	princeton_trtdifferential loss correction	single-endedforward channel	channel 1reverse channel	N/Adate	2019/09/17time	07:26:35forward acquisition time	60.00reverse acquisition time	0.00gamma	496.2192k internal	0.2331k external	0.2331temperature offset calibration	0.9967default loss term (dB/km)	0.3790temperature slope calibration	1.0000multiplexer offset coefficient	1.0000multiplexer slope coefficient	1.0000fibre end	0.00T internal ref (°C)	27.19T ext. ref 1 (°C)	0.12T ext. ref 2 (°C)	21.60length (m)	temperature (°C)	Stokes	anti-Stokes-747.200	-200.000	-0.006	0.086
-746.185	-25.118	-0.202	0.120
-745.171	194.425	-0.187	0.286
-744.156	15.422	-0.100	-0.079
-743.142	632.750	0.135	0.345
-742.127	-108.120	0.241	0.053
-741.112	-23.777	0.091	0.055
-740.098	314.181	-0.224	0.425
-739.083	396.639	0.111	0.233
-738.069	125.098	0.084	0.106
-737.054	49.395	-0.241	-0.228
-736.039	-49.331	-0.137	-0.066
-735.025	5.415	0.117	0.087
-734.010	-73.457	-0.223	-0.082
-732.996	128.504	-0.145	-0.185
-731.981	-107.481	0.329	-0.073
-730.966	168.476	-0.272	0.390
-729.952	22.425	-0.198	-0.163
-728.937	7.984	-0.138	-0.104
-727.923	-144.648	-0.107	-0.010
-726.908	386.154	0.061	-0.128
-725.894	334.698	0.076	-0.149
-724.879	-21.039	-0.673	-0.415
-723.864	-127.722	0.101	-0.015
-722.850	-200.000	-0.047	0.291
-721.835	-44.404	0.213	0.107
-720.821	-66.000	-0.012	-0.005
-719.806	800.000	-0.005	-0.015
-718.791	-12.992	-0.208	0.136
-717.777	20.846	0.173	0.141
-716.762	63.443	-0.250	-0.252
-715.748	66.668	0.150	-0.154
-714.733	-125.368	-0.236	-0.036
-713.718	-65.759	0.354	0.142
-712.704	116.509	-0.095	-0.117
-711.689	800.000	0.067	-0.292
-710.675	316.942	0.077	0.146
-709.660	-111.964	-0.411	0.083
-708.645	-60.205	-0.066	-0.028
-707.631	-1.532	0.106	-0.075
-706.616	-100.635	-0.065	0.016
-705.602	246.927	-0.047	-0.079
-704.587	800.000	0.038	0.141
-703.572	-94.596	-0.066	0.018
-702.558	-94.032	-0.414	0.114
-701.543	800.000	0.097	-0.315
-700.529	82.499	-0.112	-0.122
-699.514	-22.912	-0.196	-0.119
-698.499	-103.073	-0.116	-0.028
-697.485	-51.638	-0.287	-0.134
-696.470	621.457	0.092	-0.232
-695.456	489.596	0.057	0.132
-694.441	53.976	-0.157	0.151
-693.426	-12.282	0.210	0.138
-692.412	-75.716	-0.208	0.074
-691.397	-38.788	-0.121	0.064
-690.383	544.910	-0.092	-0.220
-689.368	800.000	0.070	-0.251
-688.354	-200.000	0.044	0.420
-687.339	-200.000	0.080	0.445
-686.324	23.325	0.119	-0.098
-685.310	-90.083	-0.211	-0.062
-684.295	449.210	-0.155	-0.342
-683.281	-200.000	0.046	0.267
-682.266	-188.534	0.139	0.002
-681.251	-200.000	0.006	0.340
-680.237	-200.000	0.018	0.200
-679.222	382.432	-0.184	-0.379
-678.208	-160.437	-0.034	-0.002
-677.193	-65.198	0.287	0.116
-676.178	287.060	0.011	0.019
-675.164	-200.000	-0.018	-0.303
-674.149	286.452	0.259	-0.469
-673.135	-200.000	-0.033	-0.222
-672.120	-7.645	-0.135	-0.091
-671.105	67.023	0.192	-0.196
-670.091	396.939	-0.096	-0.200
-669.076	-25.966	-0.076	0.045
-668.062	147.807	-0.175	0.236
-667.047	458.404	0.127	-0.284
-666.032	-105.489	0.178	0.041
-665.018	115.788	0.224	0.275
-664.003	-15.479	-0.056	0.036
-662.989	-200.000	0.004	-0.105
-661.974	-48.899	-0.107	0.052
-660.959	261.249	-0.073	0.126
-659.945	395.350	0.109	0.228
-658.930	800.000	0.081	0.268
-657.916	-30.065	-0.299	-0.171
-656.901	-113.047	0.134	0.026
-655.886	-139.948	0.480	0.051
-654.872	-134.303	-0.413	-0.051
-653.857	-144.473	-0.332	0.031
-652.843	-151.692	0.141	0.010
-651.828	-200.000	0.024	-0.279
-650.814	-99.807	-0.152	-0.038
-649.799	436.079	-0.076	0.166
-648.784	-65.405	-0.114	0.046
-647.770	-39.790	-0.387	-0.203
-646.755	-200.000	-0.069	-0.495
-645.741	-7.464	-0.445	-0.302
-644.726	-78.270	-0.161	0.056
-643.711	284.797	0.094	-0.170
-642.697	144.555	0.224	-0.300
-641.682	-200.000	-0.037	-0.392
-640.668	-30.346	-0.042	0.024
-639.653	37.905	-0.210	-0.187
-638.638	355.507	-0.119	-0.238
-637.624	-200.000	-0.042	-0.448
-636.609	-150.003	0.275	-0.021
-635.595	81.034	-0.232	0.251
-634.580	185.815	0.194	0.288
-633.565	390.050	0.016	-0.034
-632.551	-186.598	0.358	0.005
-631.536	76.125	0.103	0.109
-630.522	-200.000	0.017	-0.076
-629.507	-200.000	-0.113	0.553
-628.492	113.465	-0.147	0.179
-627.478	-189.581	-0.209	-0.002
-626.463	-9.428	-0.244	-0.163
-625.449	23.421	0.317	0.261
-624.434	603.814	0.025	-0.063
-623.419	-124.760	0.204	0.032
-622.405	-82.871	-0.074	-0.024
-621.390	120.186	-0.067	-0.083
-620.376	-6.465	0.339	-0.232
-619.361	-200.000	0.023	-0.145
-618.346	-53.593	-0.353	0.162
-617.332	18.652	0.024	-0.019
-616.317	-21.964	-0.361	-0.219
-615.303	110.871	0.033	0.040
-614.288	800.000	0.072	0.209
-613.273	-58.183	0.141	-0.061
-612.259	-200.000	0.017	-0.241
-611.244	81.566	-0.132	0.143
-610.230	96.116	-0.109	-0.124
-609.215	30.252	0.120	0.102
-608.201	54.269	-0.201	-0.194
-607.186	-159.545	0.201	-0.011
-606.171	123.553	-0.103	0.129
-605.157	143.799	0.162	0.217
-604.142	-116.522	-0.106	0.019
-603.128	348.063	-0.151	-0.299
-602.113	-88.677	-0.064	0.019
-601.098	-190.792	0.089	-0.001
-600.084	-2.469	0.173	-0.121
-599.069	71.580	-0.172	0.179
-598.055	-200.000	-0.030	0.187
-597.040	-19.998	0.134	0.082
-596.025	800.000	0.078	0.222
-595.011	20.776	0.241	-0.196
-593.996	-107.484	-0.176	-0.039
-592.982	48.552	-0.198	0.185
-591.967	-72.056	0.263	-0.098
-590.952	-200.000	0.012	-0.087
-589.938	252.358	0.178	-0.303
-588.923	46.905	-0.293	-0.273
-587.909	-72.670	-0.339	-0.125
-586.894	145.972	-0.209	0.281
-585.879	-40.220	0.193	0.101
-584.865	-69.314	-0.143	0.055
-583.850	36.146	0.372	-0.328
-582.836	-117.116	0.053	0.010
-581.821	-34.861	0.143	-0.078
-580.806	-7.311	-0.118	0.080
-579.792	-38.858	0.123	-0.065
-578.777	-134.817	0.249	-0.030
-577.763	-49.103	0.121	-0.058
-576.748	-200.000	0.015	0.195
-575.733	-200.000	-0.016	-0.124
-574.719	800.000	0.082	-0.259
-573.704	534.734	-0.020	0.046
-572.690	27.506	-0.145	-0.122
-571.675	296.298	-0.134	-0.246
-570.661	-90.520	-0.340	-0.098
-569.646	-200.000	0.005	0.244
-568.631	65.407	-0.202	-0.204
-567.617	800.000	-0.118	-0.351
-566.602	-153.934	0.131	-0.009
-565.588	375.683	0.080	0.164
-564.573	800.000	-0.049	0.162
-563.558	-200.000	0.005	0.101
-562.544	-200.000	-0.021	0.159
-561.529	228.136	0.174	-0.283
-560.515	81.044	-0.171	0.185
-559.500	-200.000	-0.008	0.293
-558.485	-19.544	0.194	-0.120
-557.471	-102.669	-0.045	0.011
-556.456	-8.502	0.131	0.088
-555.442	800.000	-0.088	0.294
-554.427	-88.197	-0.258	-0.077
-553.412	-170.924	0.395	-0.013
-552.398	-51.856	-0.226	-0.105
-551.383	-148.906	-0.134	-0.011
-550.369	141.697	-0.127	-0.168
-549.354	-11.827	-0.280	0.183
-548.339	-22.065	0.097	-0.059
-547.325	-103.711	0.069	-0.016
-546.310	149.589	0.097	0.131
-545.296	-35.661	-0.128	-0.069
-544.281	-86.704	-0.080	-0.025
-543.266	307.463	0.065	-0.121
-542.252	-98.228	-0.177	0.045
-541.237	-67.631	0.127	-0.050
-540.223	800.000	-0.056	-0.186
-539.208	800.000	-0.118	-0.416
-538.193	4.666	-0.116	-0.085
-537.179	14.830	-0.102	-0.080
-536.164	20.429	0.124	0.100
-535.150	401.283	-0.057	0.120
-534.135	120.539	-0.054	0.067
-533.121	-153.380	-0.256	-0.018
-532.106	107.042	-0.190	0.225
-531.091	-200.000	-0.059	-0.357
-530.077	-105.249	0.205	-0.047
-529.062	-200.000	0.002	0.175
-528.048	159.596	-0.194	-0.270
-527.033	-200.000	-0.004	-0.033
-526.018	800.000	-0.025	-0.091
-525.004	-38.593	-0.168	-0.089
-523.989	-73.805	0.347	0.126
-522.975	-200.000	0.032	0.196
-521.960	-19.753	0.233	-0.144
-520.945	-18.484	-0.160	-0.100
-519.931	8.827	0.169	0.127
-518.916	392.398	-0.135	0.279
-517.902	249.766	-0.122	0.207
-516.887	-22.011	0.134	0.081
-515.872	-200.000	-0.012	0.067
-514.858	-28.265	-0.195	-0.113
-513.843	-59.391	0.297	0.127
-512.829	176.185	0.102	0.147
-511.814	-123.155	-0.290	-0.046
-510.799	-159.463	-0.156	0.009
-509.785	522.080	-0.010	0.024
-508.770	800.000	-0.061	0.173
-507.756	132.407	0.217	0.279
-506.741	-147.556	-0.154	0.013
-505.726	117.872	0.168	-0.206
-504.712	-200.000	0.025	0.148
-503.697	20.289	0.086	-0.069
-502.683	20.529	0.145	-0.117
-501.668	-200.000	-0.025	-0.266
-500.653	-200.000	0.031	0.208
-499.639	194.572	-0.064	0.097
-498.624	-28.593	0.189	-0.108
-497.610	-200.000	-0.009	-0.189
-496.595	-200.000	-0.008	0.456
-495.581	-1.026	-0.020	-0.014
-494.566	-49.353	-0.214	0.102
-493.551	188.532	0.048	-0.072
-492.537	800.000	-0.040	0.156
-491.522	-200.000	-0.019	-0.110
-490.508	-163.068	0.070	-0.003
-489.493	56.465	0.244	0.236
-488.478	167.976	-0.130	-0.185
-487.464	-199.736	-0.166	0.001
-486.449	25.777	-0.225	0.187
-485.435	800.000	-0.010	0.029
-484.420	-70.030	0.226	0.086
-483.405	-200.000	0.018	-0.096
-482.391	280.811	-0.048	0.086
-481.376	528.784	0.087	-0.204
-480.362	-93.644	0.190	0.052
-479.347	-200.000	-0.018	-0.136
-478.332	549.343	0.117	-0.278
-477.318	609.257	-0.098	-0.244
-476.303	800.000	0.073	0.226
-475.289	-39.056	0.207	-0.109
-474.274	-4.026	0.173	-0.119
-473.259	800.000	0.077	-0.262
-472.245	800.000	0.122	-0.457
-471.230	-18.543	0.551	-0.342
-470.216	-164.654	-0.232	0.010
-469.201	-8.245	0.100	0.067
-468.186	-200.000	-0.052	-0.354
-467.172	-200.000	-0.029	-0.168
-466.157	206.279	-0.132	-0.205
-465.143	-32.889	0.043	0.024
-464.128	182.579	0.060	0.089
-463.113	-26.144	0.206	0.121
-462.099	-200.000	-0.063	0.484
-461.084	187.791	0.290	0.431
-460.070	308.803	-0.088	-0.163
-459.055	-60.995	-0.313	0.132
-458.040	128.421	0.167	0.212
-457.026	-153.128	0.192	-0.013
-456.011	97.364	0.128	-0.146
-454.997	-35.513	-0.122	0.066
-453.982	-97.431	-0.087	0.023
-452.968	9.844	0.104	0.078
-451.953	-200.000	-0.028	0.227
-450.938	63.679	-0.062	0.062
-449.924	-15.810	0.107	-0.068
-448.909	-52.574	0.123	-0.057
-447.895	-200.000	-0.014	0.082
-446.880	800.000	-0.080	-0.281
-445.865	49.081	0.045	-0.042
-444.851	-71.526	0.172	0.064
-443.836	800.000	-0.095	-0.344
-442.822	209.976	-0.053	0.083
-441.807	-50.345	-0.206	0.097
-440.792	-102.363	-0.316	0.075
-439.778	382.576	-0.125	-0.256
-438.763	-200.000	-0.034	0.167
-437.749	-27.955	0.195	-0.112
-436.734	0.509	-0.191	0.136
-435.719	-78.746	-0.199	-0.068
-434.705	-101.099	-0.371	-0.090
-433.690	-39.521	-0.165	-0.086
-432.676	-200.000	-0.007	0.278
-431.661	800.000	-0.119	0.358
-430.646	-31.169	0.155	0.087
-429.632	-109.605	0.040	-0.008
-428.617	130.403	-0.085	-0.109
-427.603	-14.098	-0.170	-0.109
-426.588	-116.093	0.212	-0.039
-425.573	305.997	0.086	-0.159
-424.559	-45.502	-0.046	0.023
-423.544	81.512	-0.154	-0.166
-422.530	-136.681	-0.144	0.017
-421.515	-52.804	0.297	-0.136
-420.500	430.405	-0.065	0.139
-419.486	-121.236	-0.311	-0.052
-418.471	-30.348	0.100	0.056
-417.457	384.605	-0.070	-0.144
-416.442	12.906	-0.203	-0.156
-415.428	84.340	-0.040	0.043
-414.413	158.596	-0.177	-0.244
-413.398	-2.338	-0.087	0.060
-412.384	154.236	0.174	0.237
-411.369	-200.000	0.013	-0.411
-410.355	-200.000	0.046	0.224
-409.340	-200.000	-0.016	0.154
-408.325	-25.203	-0.335	-0.197
-407.311	24.555	0.068	0.056
-406.296	-107.197	0.144	0.032
-405.282	-200.000	0.004	0.073
-404.267	800.000	0.044	0.127
-403.252	800.000	0.050	-0.172
-402.238	-200.000	0.011	-0.139
-401.223	-28.857	0.086	-0.049
-400.209	155.851	-0.206	-0.282
-399.194	-116.517	0.245	0.045
-398.179	800.000	0.067	-0.205
-397.165	23.594	-0.075	-0.061
-396.150	-39.210	-0.042	0.022
-395.136	-200.000	-0.033	-0.297
-394.121	135.466	0.212	-0.273
-393.106	127.452	-0.069	0.087
-392.092	800.000	0.051	-0.198
-391.077	-200.000	-0.002	0.418
-390.063	-200.000	-0.019	-0.134
-389.048	800.000	0.018	-0.068
-388.033	24.753	0.149	-0.122
-387.019	800.000	-0.152	-0.417
-386.004	-143.089	-0.444	-0.042
-384.990	0.485	-0.246	0.175
-383.975	-39.160	-0.164	-0.086
-382.960	-3.582	-0.204	-0.141
-381.946	133.023	-0.264	0.338
-380.931	800.000	0.029	-0.108
-379.917	-171.018	0.328	0.011
-378.902	800.000	0.047	0.182
-377.888	-200.000	-0.111	0.509
-376.873	-45.300	0.315	-0.155
-375.858	-84.912	0.139	0.043
-374.844	-25.649	-0.192	0.113
-373.829	-200.000	-0.032	-0.291
-372.815	-119.582	-0.312	-0.054
-371.800	800.000	0.149	-0.440
-370.785	303.391	-0.108	0.198
-369.771	14.512	0.276	0.213
-368.756	-55.821	0.443	0.196
-367.742	-93.309	0.260	-0.071
-366.727	-126.765	-0.284	0.042
-365.712	-200.000	0.046	0.335
-364.698	39.958	0.215	0.191
-363.683	582.255	0.128	-0.311
-362.669	-200.000	0.029	-0.131
-361.654	-6.459	-0.037	-0.025
-360.639	800.000	0.016	0.048
-359.625	164.717	-0.083	0.116
-358.610	-47.245	-0.294	0.142
-357.596	-200.000	-0.008	-0.197
-356.581	-200.000	0.039	0.351
-355.566	-148.476	0.118	-0.010
-354.552	800.000	-0.080	0.313
-353.537	501.358	-0.151	0.345
-352.523	-118.684	-0.165	0.029
-351.508	722.312	-0.042	-0.110
-350.493	-135.952	0.344	-0.040
-349.479	67.446	-0.176	0.178
-348.464	382.514	-0.010	-0.020
-347.450	-120.933	0.136	0.023
-346.435	52.584	0.177	-0.168
-345.420	-200.000	-0.013	-0.380
-344.406	443.368	-0.126	0.274
-343.391	-176.221	-0.118	0.003
-342.377	76.424	0.167	-0.175
-341.362	-115.074	0.188	0.035
-340.348	800.000	0.093	0.285
-339.333	800.000	-0.079	0.282
-338.318	291.598	-0.065	0.118
-337.304	112.357	0.152	0.182
-336.289	-179.561	-0.338	0.007
-335.275	-95.687	0.477	-0.126
-334.260	-81.650	0.154	-0.050
-333.245	-133.347	0.041	0.005
-332.231	-49.350	0.117	-0.055
-331.216	38.271	-0.054	0.048
-330.202	800.000	-0.106	-0.332
-329.187	-76.879	-0.142	-0.049
-328.172	-200.000	0.037	-0.191
-327.158	-120.405	-0.266	0.045
-326.143	-200.000	0.044	0.206
-325.129	-200.000	-0.037	-0.183
-324.114	81.191	0.209	0.223
-323.099	43.100	-0.245	-0.221
-322.085	204.941	0.084	-0.129
-321.070	375.185	0.081	-0.163
-320.056	339.432	-0.080	0.154
-319.041	4.279	-0.241	-0.174
-318.026	11.055	-0.149	0.113
-317.012	-83.184	-0.213	0.068
-315.997	-82.317	-0.435	-0.140
-314.983	10.634	0.113	0.085
-313.968	163.674	-0.073	0.102
-312.953	800.000	0.062	-0.265
-311.939	-87.216	0.271	-0.082
-310.924	-84.208	0.374	0.117
-309.910	118.858	0.062	0.076
-308.895	-144.432	-0.368	-0.034
-307.880	61.509	-0.362	0.356
-306.866	33.327	0.261	-0.224
-305.851	-77.175	0.086	-0.029
-304.837	-46.934	0.135	-0.065
-303.822	-200.000	0.012	0.217
-302.807	800.000	0.038	0.123
-301.793	800.000	0.024	-0.092
-300.778	99.903	0.103	0.119
-299.764	-149.278	-0.240	-0.019
-298.749	145.363	0.078	-0.103
-297.735	-156.670	0.259	-0.016
-296.720	94.984	0.247	0.278
-295.705	-200.000	0.046	-0.364
-294.691	-15.853	-0.142	-0.090
-293.676	61.280	-0.144	0.141
-292.662	-86.384	-0.147	-0.045
-291.647	13.931	-0.288	-0.221
-290.632	157.042	0.115	-0.158
-289.618	-200.000	-0.178	0.000
-288.603	-200.000	0.011	-0.167
-287.589	-121.448	0.172	0.028
-286.574	-16.192	0.151	-0.095
-285.559	724.482	-0.069	0.181
-284.545	300.608	-0.095	0.173
-283.530	-200.000	-0.037	0.225
-282.516	-200.000	0.037	-0.285
-281.501	-113.858	0.131	0.025
-280.486	-200.000	-0.009	-0.077
-279.472	-149.737	0.091	-0.007
-278.457	292.851	-0.067	-0.121
-277.443	494.827	0.103	-0.233
-276.428	269.548	0.057	0.099
-275.413	305.295	0.118	0.217
-274.399	-22.548	-0.221	-0.132
-273.384	-132.405	0.233	-0.030
-272.370	-200.000	-0.019	-0.131
-271.355	4.446	-0.097	-0.070
-270.340	-80.058	0.097	0.032
-269.326	800.000	-0.098	-0.323
-268.311	-130.431	0.238	0.032
-267.297	-200.000	0.062	0.320
-266.282	155.026	0.108	0.147
-265.267	332.236	-0.027	0.052
-264.253	-151.031	-0.362	0.027
-263.238	-200.000	0.041	-0.356
-262.224	394.458	0.038	0.078
-261.209	-200.000	-0.002	0.029
-260.195	-111.190	-0.108	-0.022
-259.180	-186.504	0.161	0.002
-258.165	9.511	0.384	0.287
-257.151	-152.223	-0.119	0.008
-256.136	-173.197	0.180	0.005
-255.122	165.591	-0.163	0.227
-254.107	135.995	0.082	0.105
-253.092	800.000	0.059	0.162
-252.078	-50.944	0.550	0.255
-251.063	-92.805	0.357	-0.099
-250.049	134.419	0.146	-0.187
-249.034	-200.000	0.001	-0.285
-248.019	66.565	0.111	0.111
-247.005	-200.000	0.018	-0.157
-245.990	-132.781	0.461	-0.058
-244.976	140.289	-0.086	0.111
-243.961	-200.000	0.025	0.312
-242.946	25.243	-0.106	-0.087
-241.932	-137.162	0.073	-0.008
-240.917	-118.622	0.272	-0.047
-239.903	-42.473	-0.154	0.078
-238.888	460.930	0.113	0.249
-237.873	-200.000	0.002	0.064
-236.859	800.000	0.066	0.279
-235.844	99.641	-0.099	-0.113
-234.830	-105.129	0.033	0.007
-233.815	-65.908	-0.197	0.078
-232.800	383.934	0.077	-0.156
-231.786	234.310	-0.121	0.196
-230.771	-200.000	-0.021	0.176
-229.757	-34.675	0.124	-0.067
-228.742	-105.508	-0.265	-0.059
-227.727	616.899	0.106	0.261
-226.713	-144.533	0.294	-0.027
-225.698	-20.022	0.069	0.042
-224.684	-74.704	0.300	-0.107
-223.669	-117.477	0.314	0.056
-222.655	-200.000	-0.021	0.283
-221.640	-75.549	-0.260	-0.091
-220.625	-200.000	-0.042	-0.399
-219.611	-129.138	-0.357	0.049
-218.596	44.972	-0.088	0.080
-217.582	-113.366	0.254	0.049
-216.567	135.456	-0.133	-0.171
-215.552	-200.000	0.028	0.126
-214.538	-200.000	-0.036	-0.217
-213.523	-200.000	-0.008	0.086
-212.509	-200.000	0.087	-0.406
-211.494	101.931	-0.092	-0.106
-210.479	-199.076	0.161	-0.001
-209.465	800.000	-0.065	-0.204
-208.450	-125.727	0.134	-0.020
-207.436	-136.496	-0.376	0.043
-206.421	-120.908	0.131	0.022
-205.406	708.030	-0.021	0.054
-204.392	29.403	-0.089	0.075
-203.377	800.000	-0.012	0.044
-202.363	-98.199	-0.245	0.062
-201.348	341.801	0.115	0.222
-200.333	-82.179	-0.145	-0.047
-199.319	191.638	-0.086	-0.128
-198.304	-92.876	0.218	0.060
-197.290	503.595	-0.153	0.348
-196.275	-85.265	0.142	-0.044
-195.260	800.000	0.038	-0.108
-194.246	-23.476	0.035	0.021
-193.231	-67.849	-0.183	-0.071
-192.217	-200.000	-0.102	0.486
-191.202	-200.000	-0.015	-0.158
-190.187	800.000	-0.067	-0.189
-189.173	-200.000	-0.079	0.349
-188.158	-78.151	0.347	-0.118
-187.144	-101.456	-0.183	-0.044
-186.129	303.797	0.062	0.112
-185.114	-200.000	-0.037	0.169
-184.100	-118.414	0.341	-0.059
-183.085	86.524	-0.223	0.242
-182.071	-52.502	0.220	0.100
-181.056	800.000	0.087	0.275
-180.042	689.264	0.143	0.368
-179.027	90.206	0.082	-0.090
-178.012	-158.039	0.271	-0.016
-176.998	-200.000	-0.010	0.237
-175.983	-200.000	-0.029	-0.124
-174.969	800.000	0.062	0.245
-173.954	-74.085	0.292	0.104
-172.939	142.544	0.200	0.261
-171.925	800.000	-0.122	0.406
-170.910	800.000	-0.050	0.189
-169.896	-200.000	0.013	-0.061
-168.881	-54.949	-0.061	0.027
-167.866	61.496	-0.093	-0.091
-166.852	87.476	-0.150	0.163
-165.837	44.131	-0.223	0.201
-164.823	-200.000	-0.042	-0.363
-163.808	100.423	-0.072	-0.082
-162.793	800.000	0.072	-0.228
-161.779	-110.994	-0.245	0.050
-160.764	-102.848	0.472	-0.110
-159.750	48.799	0.261	-0.241
-158.735	-128.131	-0.445	-0.063
-157.720	-200.000	-0.032	0.385
-156.706	-6.009	-0.271	-0.182
-155.691	-41.342	0.130	0.066
-154.677	-78.457	0.182	0.061
-153.662	-200.000	0.054	0.364
-152.647	93.282	0.008	0.008
-151.633	241.450	-0.183	0.301
-150.618	-27.644	0.211	0.120
-149.604	-72.161	0.097	0.036
-148.589	-30.315	0.039	0.022
-147.574	800.000	-0.087	0.354
-146.560	-54.670	0.137	0.061
-145.545	-200.000	0.009	-0.054
-144.531	-101.799	-0.172	-0.041
-143.516	-200.000	0.067	0.313
-142.502	-9.577	-0.203	0.133
-141.487	-87.084	0.126	0.038
-140.472	800.000	0.037	-0.159
-139.458	-200.000	0.017	-0.090
-138.443	-200.000	0.011	0.191
-137.429	204.591	0.105	-0.161
-136.414	-200.000	-0.005	0.118
-135.399	78.951	0.197	-0.207
-134.385	-200.000	-0.038	0.288
-133.370	185.417	0.087	0.127
-132.356	4.999	0.213	-0.154
-131.341	-79.896	0.193	0.064
-130.326	15.151	0.543	-0.418
-129.312	86.887	-0.137	-0.149
-128.297	-49.557	0.105	0.049
-127.283	534.194	-0.136	-0.318
-126.268	-56.720	-0.071	0.031
-125.253	-114.724	0.241	0.045
-124.239	172.871	0.058	0.082
-123.224	800.000	-0.109	0.308
-122.210	113.687	-0.219	0.261
-121.195	395.815	-0.078	0.159
-120.180	608.707	0.068	0.166
-119.166	-200.000	0.014	0.155
-118.151	138.700	0.038	0.049
-117.137	-200.000	-0.045	0.335
-116.122	800.000	-0.093	-0.267
-115.107	-13.390	0.206	0.131
-114.093	-92.827	-0.321	-0.088
-113.078	-200.000	0.027	0.183
-112.064	-88.984	-0.218	0.063
-111.049	-200.000	-0.015	0.298
-110.034	-13.836	0.198	-0.125
-109.020	800.000	-0.030	-0.117
-108.005	-85.806	0.413	0.126
-106.991	577.113	0.078	0.187
-105.976	-21.708	0.320	-0.191
-104.962	-176.994	0.266	0.007
-103.947	109.147	0.137	0.161
-102.932	-180.763	-0.328	0.007
-101.918	0.949	-0.113	0.079
-100.903	-45.528	-0.057	-0.028
-99.889	770.732	0.011	0.031
-98.874	-47.469	0.095	-0.045
-97.859	-65.798	-0.187	0.073
-96.845	-131.114	-0.439	-0.057
-95.830	800.000	0.015	-0.055
-94.816	371.343	0.202	-0.402
-93.801	-186.145	-0.366	-0.005
-92.786	-101.366	0.099	-0.024
-91.772	-7.875	-0.239	0.158
-90.757	-2.828	0.140	-0.096
-89.743	100.392	-0.287	0.326
-88.728	-44.636	0.387	0.190
-87.713	-152.823	-0.358	0.025
-86.699	144.841	-0.050	-0.065
-85.684	352.718	0.170	0.330
-84.670	-88.640	-0.120	-0.035
-83.655	82.662	-0.191	-0.204
-82.640	366.643	-0.049	0.096
-81.626	-149.515	-0.122	0.009
-80.611	462.490	0.178	0.390
-79.597	-41.884	0.219	-0.110
-78.582	-67.559	-0.215	-0.083
-77.567	-124.002	0.199	-0.031
-76.553	-87.299	0.100	-0.030
-75.538	-115.916	0.079	-0.014
-74.524	84.849	0.234	-0.252
-73.509	56.600	-0.101	0.096
-72.494	-133.262	-0.492	-0.061
-71.480	-130.540	0.175	0.023
-70.465	317.197	-0.158	0.292
-69.451	250.431	0.139	0.231
-68.436	17.046	0.105	0.081
-67.422	229.016	0.182	-0.291
-66.407	-74.748	-0.187	-0.066
-65.392	-200.000	0.043	0.223
-64.378	110.131	0.243	0.285
-63.363	124.060	-0.033	0.040
-62.349	-25.464	-0.203	0.118
-61.334	-10.317	-1.154	-0.750
-60.319	350.711	0.297	0.576
-59.305	800.000	-0.429	-1.211
-58.290	535.843	0.608	1.413
-57.276	351.878	0.647	1.255
-56.261	-200.000	115.187	647.954
-55.246	469.886	1509.321	3322.164
-54.232	147.769	2670.302	3525.560
-53.217	103.033	2146.698	2463.406
-52.203	38.536	1592.948	1391.249
-51.188	30.465	1339.008	1120.956
-50.173	27.554	1300.971	1071.977
-49.159	55.032	1356.756	1283.532
-48.144	53.330	1370.799	1286.585
-47.130	30.688	1327.190	1112.223
-46.115	27.362	1309.102	1077.366
-45.100	27.114	1303.859	1071.548
-44.086	27.042	1301.767	1069.362
-43.071	27.026	1299.353	1067.242
-42.057	26.930	1297.449	1065.070
-41.042	27.000	1295.709	1064.015
-40.027	27.069	1294.124	1063.075
-39.013	27.084	1292.225	1061.558
-37.998	27.028	1290.620	1059.873
-36.984	27.191	1288.474	1059.015
-35.969	27.140	1286.890	1057.375
-34.954	27.272	1284.615	1056.229
-33.940	27.195	1283.781	1055.054
-32.925	27.261	1282.376	1054.242
-31.911	27.341	1280.625	1053.222
-30.896	27.257	1279.733	1051.960
-29.881	27.330	1278.476	1051.309
-28.867	27.382	1276.709	1050.114
-27.852	27.249	1275.347	1048.187
-26.838	27.308	1273.923	1047.314
-25.823	27.240	1272.831	1045.984
-24.809	27.306	1271.048	1044.857
-23.794	27.264	1270.062	1043.765
-22.779	27.260	1268.543	1042.450
-21.765	27.226	1267.891	1041.677
-20.750	27.280	1265.909	1040.316
-19.736	27.219	1265.454	1039.552
-18.721	27.085	1264.193	1037.714
-17.706	27.062	1263.421	1036.903
-16.692	27.135	1261.469	1035.679
-15.677	27.192	1260.574	1035.230
-14.663	27.156	1259.562	1034.150
-13.648	27.132	1258.695	1033.263
-12.633	27.077	1257.435	1031.873
-11.619	27.158	1256.331	1031.385
-10.604	27.156	1255.464	1030.618
-9.590	27.233	1254.522	1030.245
-8.575	27.139	1253.604	1028.915
-7.560	27.142	1252.478	1027.970
-6.546	27.001	1251.975	1026.719
-5.531	27.091	1250.951	1026.345
-4.517	27.135	1250.014	1025.787
-3.502	27.180	1248.993	1025.161
-2.487	27.245	1248.117	1024.766
-1.473	27.121	1243.679	1020.386
-0.458	25.428	1229.294	999.138
0.556	20.236	1212.843	961.773
1.571	16.468	1218.925	945.474
2.586	15.566	1233.238	951.384
3.600	15.354	1221.863	941.339
4.615	11.343	1150.038	864.697
5.629	3.791	1076.627	771.835
6.644	0.433	1057.769	741.751
7.659	0.031	1056.177	738.594
8.673	0.040	1054.802	737.612
9.688	-0.022	1053.882	736.601
10.702	0.225	1051.449	736.043
11.717	4.864	1057.492	762.970
12.731	12.572	1067.515	808.122
13.746	16.577	1072.625	831.649
14.761	16.939	1072.030	832.893
15.775	16.080	1070.080	827.090
16.790	14.961	1068.284	820.146
17.804	14.360	1066.559	815.808
18.819	13.868	1065.710	812.675
19.834	13.825	1064.705	811.626
20.848	13.517	1063.829	809.383
21.863	13.393	1062.853	807.963
22.877	13.193	1061.915	806.205
23.892	13.011	1061.446	804.889
24.907	13.083	1060.981	804.814
25.921	13.166	1059.845	804.287
26.936	13.184	1059.065	803.712
27.950	13.141	1058.478	802.985
28.965	13.212	1057.512	802.525
29.980	13.231	1055.795	801.245
30.994	13.482	1054.711	801.566
32.009	13.340	1054.319	800.510
33.023	13.277	1052.754	798.948
34.038	13.256	1051.749	798.013
35.053	13.216	1051.039	797.211
36.067	13.197	1050.083	796.324
37.082	13.303	1048.981	795.927
38.096	13.316	1048.365	795.450
39.111	13.285	1047.669	794.705
40.126	13.317	1046.620	793.989
41.140	13.272	1045.134	792.580
42.155	13.079	1044.352	790.991
43.169	13.230	1042.826	790.486
44.184	13.092	1042.179	789.268
45.199	13.185	1041.124	788.840
46.213	13.108	1040.059	787.598
47.228	13.094	1039.386	786.951
48.242	13.071	1038.285	785.941
49.257	13.124	1037.372	785.431
50.271	13.189	1036.281	784.842
51.286	13.230	1035.505	784.382
52.301	13.219	1034.393	783.418
53.315	13.169	1033.550	782.474
54.330	13.168	1032.489	781.595
55.344	13.166	1031.956	781.116
56.359	13.249	1030.732	780.510
57.374	13.115	1030.026	779.277
58.388	13.122	1028.906	778.389
59.403	13.018	1028.229	777.323
60.417	13.109	1027.399	777.052
61.432	13.044	1026.692	776.142
62.447	12.952	1026.185	775.261
63.461	12.919	1025.243	774.324
64.476	12.992	1024.448	773.997
65.490	13.077	1023.415	773.548
66.505	13.149	1022.536	773.151
67.520	13.155	1021.872	772.608
68.534	13.003	1021.479	771.534
69.549	13.131	1020.467	771.298
70.563	13.082	1019.822	770.512
71.578	13.046	1018.611	769.363
72.593	13.001	1018.158	768.741
73.607	12.988	1017.670	768.245
74.622	12.988	1016.868	767.571
75.636	12.952	1016.388	766.973
76.651	13.023	1015.660	766.686
77.666	12.979	1015.265	766.115
78.680	12.905	1014.495	765.126
79.695	13.048	1013.439	764.925
80.709	13.055	1012.665	764.302
81.724	13.064	1012.423	764.095
82.739	13.032	1011.375	763.087
83.753	13.151	1010.677	763.042
84.768	13.277	1009.674	762.799
85.782	13.289	1009.099	762.354
86.797	13.255	1007.702	761.073
87.812	13.235	1006.944	760.341
88.826	13.234	1005.973	759.536
89.841	13.190	1005.378	758.818
90.855	13.188	1004.450	758.043
91.870	13.328	1003.138	757.629
92.884	13.326	1002.280	756.902
93.899	13.308	1001.672	756.293
94.914	13.282	1001.156	755.721
95.928	13.477	999.900	755.595
96.943	13.215	999.538	754.059
97.957	13.313	998.263	753.478
98.972	13.376	997.519	753.133
99.987	13.348	996.737	752.349
101.001	13.388	995.330	751.403
102.016	13.311	994.671	750.489
103.030	13.366	993.950	750.128
104.045	13.401	992.985	749.492
105.060	13.300	992.654	748.719
106.074	13.262	991.247	747.422
107.089	13.094	990.287	745.874
108.103	13.064	989.615	745.164
109.118	13.234	988.224	744.818
110.133	13.113	987.422	743.600
111.147	13.231	986.757	743.565
112.162	13.203	986.093	742.875
113.176	13.259	985.227	742.408
114.191	13.230	984.414	741.601
115.206	13.222	983.651	740.922
116.220	13.151	983.116	740.138
117.235	13.145	982.416	739.517
118.249	13.161	981.309	738.691
119.264	13.127	980.781	738.074
120.279	13.177	979.784	737.481
121.293	13.221	978.609	736.728
122.308	13.081	978.084	735.646
123.322	13.229	976.918	735.363
124.337	13.152	975.697	734.033
125.352	13.224	974.810	733.621
126.366	13.197	973.638	732.554
127.381	13.146	972.914	731.718
128.395	13.089	972.222	730.881
129.410	13.250	970.975	730.591
130.424	13.161	970.462	729.750
131.439	13.242	969.322	729.184
132.454	13.199	968.746	728.495
133.468	13.328	967.988	728.429
134.483	13.310	967.062	727.591
135.497	13.207	966.484	726.636
136.512	13.140	965.971	725.893
137.527	13.242	964.733	725.346
138.541	13.227	963.852	724.553
139.556	13.179	963.631	724.114
140.570	13.367	962.697	724.173
141.585	13.434	961.811	723.731
142.600	13.407	960.653	722.681
143.614	13.605	959.912	722.922
144.629	13.364	959.684	721.637
145.643	13.251	958.763	720.386
146.658	13.340	957.489	719.755
147.673	13.355	956.223	718.802
148.687	13.311	955.666	718.131
149.702	13.347	954.475	717.327
150.716	13.330	953.755	716.647
151.731	13.441	953.619	716.964
152.746	13.490	952.343	716.155
153.760	13.366	952.391	715.589
154.775	13.366	951.611	714.941
155.789	13.531	951.223	715.300
156.804	13.438	950.203	714.066
157.819	13.474	949.742	713.811
158.833	13.481	949.134	713.320
159.848	13.420	948.620	712.611
160.862	13.543	947.125	711.955
161.877	13.465	946.219	710.875
162.892	13.477	944.995	709.941
163.906	13.505	944.027	709.274
164.921	13.451	943.448	708.545
165.935	13.419	942.560	707.680
166.950	13.591	941.287	707.392
167.964	13.612	940.405	706.759
168.979	13.552	939.431	705.708
169.994	13.477	939.074	705.059
171.008	13.590	938.202	704.821
172.023	13.556	937.783	704.301
173.037	13.663	937.083	704.164
174.052	13.582	936.414	703.259
175.067	13.565	935.669	702.564
176.081	13.482	935.412	701.955
177.096	13.617	934.716	701.942
178.110	13.716	933.583	701.451
179.125	13.595	933.171	700.566
180.140	13.570	933.209	700.428
181.154	13.546	932.665	699.854
182.169	13.739	931.785	699.948
183.183	13.875	931.175	700.002
184.198	13.736	930.187	698.612
185.213	13.867	929.266	698.408
186.227	13.819	928.945	697.905
187.242	13.860	928.413	697.615
188.256	13.930	927.416	697.096
189.271	13.869	926.738	696.270
190.286	13.664	925.996	694.792
191.300	13.719	925.232	694.388
192.315	13.597	924.605	693.347
193.329	13.610	924.242	693.067
194.344	13.755	923.514	693.063
195.359	13.811	922.649	692.590
196.373	13.804	922.365	692.283
197.388	14.069	921.764	692.878
198.402	13.921	921.369	691.904
199.417	13.942	920.850	691.537
200.432	14.036	920.263	691.429
201.446	13.980	919.880	690.845
202.461	14.086	918.890	690.479
203.475	14.153	918.589	690.473
204.490	13.990	917.681	689.053
205.504	14.107	916.847	688.852
206.519	14.095	916.166	688.226
207.534	14.105	915.332	687.582
208.548	13.993	915.094	686.878
209.563	14.068	914.049	686.344
210.577	14.137	913.472	686.136
211.592	14.197	912.719	685.756
212.607	14.260	911.894	685.336
213.621	14.276	911.034	684.695
214.636	14.185	910.739	684.037
215.650	14.222	909.871	683.477
216.665	14.172	909.294	682.777
217.680	14.143	908.990	682.369
218.694	14.179	908.338	681.965
219.709	14.209	907.386	681.314
220.723	14.321	906.706	681.203
221.738	14.311	906.117	680.659
222.753	14.251	905.332	679.763
223.767	14.420	904.425	679.711
224.782	14.434	904.031	679.412
225.796	14.486	903.871	679.443
226.811	14.390	902.944	678.296
227.826	14.470	901.798	677.701
228.840	14.401	901.560	677.183
229.855	14.306	900.616	676.028
230.869	14.325	900.365	675.857
231.884	14.419	899.290	675.372
232.899	14.344	898.248	674.223
233.913	14.275	897.730	673.495
234.928	14.330	897.579	673.545
235.942	14.420	896.739	673.221
236.957	14.403	896.020	672.551
237.972	14.360	895.568	671.980
238.986	14.294	894.986	671.218
240.001	14.267	894.334	670.560
241.015	14.368	893.529	670.303
242.030	14.626	893.034	670.909
243.045	14.564	892.310	670.057
244.059	14.385	891.823	668.913
245.074	14.544	891.081	668.935
246.088	14.587	890.529	668.635
247.103	14.498	889.963	667.795
248.117	14.718	889.411	668.201
249.132	14.681	888.836	667.561
250.147	14.694	888.131	667.028
251.161	14.701	887.588	666.586
252.176	14.843	886.740	666.458
253.190	14.923	885.869	666.064
254.205	14.908	885.541	665.697
255.220	14.986	884.926	665.486
256.234	14.879	884.129	664.405
257.249	14.804	883.869	663.851
258.263	14.912	882.893	663.487
259.278	14.957	881.951	662.900
260.293	15.074	881.431	662.915
261.307	14.998	881.266	662.430
262.322	14.990	880.463	661.737
263.336	15.147	879.543	661.605
264.351	15.152	878.765	660.984
265.366	15.109	878.416	660.490
266.380	14.949	877.996	659.485
267.395	15.268	876.812	659.793
268.409	15.027	876.208	658.335
269.424	15.114	875.371	657.990
270.439	15.157	875.065	657.869
271.453	15.145	874.630	657.436
272.468	15.084	873.949	656.628
273.482	15.119	873.032	656.016
274.497	15.086	872.696	655.577
275.512	15.001	872.350	654.928
276.526	15.094	871.653	654.708
277.541	15.273	870.947	654.820
278.555	15.212	870.796	654.413
279.570	15.262	870.272	654.154
280.585	15.436	868.892	653.739
281.599	15.310	868.295	652.738
282.614	15.291	867.754	652.201
283.628	15.255	867.190	651.578
284.643	15.330	866.678	651.428
285.657	15.229	866.031	650.492
286.672	15.361	865.361	650.445
287.687	15.262	864.763	649.554
288.701	15.213	864.089	648.800
289.716	15.395	863.611	649.087
290.730	15.444	863.048	648.797
291.745	15.380	862.651	648.195
292.760	15.480	861.708	647.812
293.774	15.600	861.260	647.882
294.789	15.536	860.424	646.950
295.803	15.578	859.763	646.554
296.818	15.548	859.296	646.032
297.833	15.473	858.728	645.259
298.847	15.477	858.015	644.682
299.862	15.437	857.499	644.083
300.876	15.602	856.868	644.187
301.891	15.548	856.466	643.621
302.906	15.766	855.492	643.664
303.920	15.714	855.266	643.240
304.935	15.792	854.739	643.084
305.949	15.804	853.779	642.352
306.964	15.818	853.104	641.842
307.979	15.581	853.254	640.993
308.993	15.643	852.280	640.440
310.008	15.759	851.817	640.478
311.022	15.884	851.302	640.509
312.037	15.793	850.125	639.219
313.052	15.752	849.614	638.624
314.066	15.817	849.196	638.502
315.081	15.649	849.064	637.706
316.095	15.675	848.326	637.195
317.110	15.779	847.519	636.925
318.125	15.766	847.016	636.441
319.139	15.830	846.362	636.136
320.154	15.712	846.107	635.443
321.168	15.620	846.159	635.079
322.183	15.850	844.834	634.893
323.197	15.971	844.280	634.880
324.212	15.833	844.091	634.159
325.227	15.950	843.308	633.956
326.241	15.853	842.689	633.068
327.256	15.718	842.390	632.283
328.270	15.816	841.574	631.982
329.285	15.873	841.115	631.795
330.300	15.930	840.448	631.450
331.314	15.900	839.862	630.843
332.329	15.961	839.279	630.577
333.343	16.048	839.084	630.701
334.358	15.859	839.082	629.937
335.373	15.984	838.357	629.804
336.387	16.053	837.913	629.673
337.402	16.111	837.952	629.861
338.416	16.153	837.503	629.625
339.431	16.279	837.078	629.722
340.446	16.098	836.618	628.643
341.460	16.058	836.494	628.348
342.475	16.325	835.583	628.601
343.489	16.224	835.197	627.879
344.504	16.304	834.543	627.630
345.519	16.307	834.353	627.441
346.533	16.301	833.715	626.883
347.548	16.314	832.808	626.194
348.562	16.295	832.475	625.817
349.577	16.246	831.893	625.143
350.592	16.167	831.858	624.769
351.606	16.248	830.832	624.243
352.621	16.236	830.529	623.918
353.635	16.333	829.567	623.497
354.650	16.369	828.734	622.949
355.665	16.375	828.461	622.710
356.679	16.323	827.482	621.728
357.694	16.275	826.837	621.010
358.708	16.428	826.433	621.216
359.723	16.372	825.709	620.409
360.738	16.305	825.678	620.087
361.752	16.438	824.498	619.634
362.767	16.523	823.843	619.399
363.781	16.584	823.309	619.165
364.796	16.544	823.207	618.887
365.810	16.524	822.809	618.461
366.825	16.687	822.543	618.802
367.840	16.661	821.811	618.101
368.854	16.604	821.406	617.532
369.869	16.522	821.263	617.071
370.883	16.563	820.526	616.614
371.898	16.776	820.178	617.074
372.913	16.660	819.641	616.191
373.927	16.758	819.208	616.168
374.942	16.736	818.728	615.673
375.956	16.693	818.441	615.246
376.971	16.756	817.650	614.827
377.986	16.936	817.334	615.188
379.000	16.911	817.264	614.989
380.015	16.911	816.578	614.417
381.029	16.910	815.980	613.912
382.044	17.006	815.353	613.731
383.059	16.974	814.618	613.008
384.073	17.093	813.929	612.866
385.088	16.958	813.576	612.059
386.102	16.801	813.278	611.213
387.117	16.768	812.766	610.655
388.132	16.906	812.281	610.735
389.146	16.918	811.510	610.142
390.161	16.858	811.029	609.512
391.175	17.082	810.504	609.870
392.190	17.008	809.664	608.916
393.205	16.908	809.737	608.559
394.219	16.884	809.596	608.312
395.234	16.919	808.950	607.900
396.248	16.933	808.643	607.665
397.263	17.064	807.930	607.543
398.278	16.928	807.656	606.799
399.292	16.960	806.912	606.299
400.307	16.965	806.693	606.099
401.321	17.062	805.947	605.832
402.336	17.030	805.618	605.416
403.350	17.025	805.325	605.125
404.365	16.948	805.094	604.624
405.380	17.198	804.284	604.852
406.394	17.227	803.843	604.568
407.409	17.276	803.512	604.440
408.423	17.182	803.453	604.011
409.438	17.406	802.735	604.212
410.453	17.392	802.146	603.663
411.467	17.301	801.976	603.162
412.482	17.355	801.390	602.859
413.496	17.463	801.160	603.015
414.511	17.500	800.601	602.670
415.526	17.394	800.105	601.870
416.540	17.347	799.906	601.502
417.555	17.515	799.165	601.485
418.569	17.446	798.926	601.008
419.584	17.369	798.684	600.499
420.599	17.315	798.372	600.023
421.613	111.426	1294.715	1477.942
422.628	95.927	1367.001	1478.028
