DTS Sentinel unit serial number:	SN413079Multiplexer serial number:	ORYXHardware model number:	OX4-SRSoftware version number:	ORYX F/W v4.00 Oryx Data Collector v3.7.2.0data status	okinstallation	princeton_trtdifferential loss correction	single-endedforward channel	channel 1reverse channel	N/Adate	2019/09/19time	14:02:35forward acquisition time	60.00reverse acquisition time	0.00gamma	496.2192k internal	0.2323k external	0.2323temperature offset calibration	1.0019default loss term (dB/km)	0.3790temperature slope calibration	1.0000multiplexer offset coefficient	1.0000multiplexer slope coefficient	1.0000fibre end	0.00T internal ref (°C)	31.19T ext. ref 1 (°C)	1.02T ext. ref 2 (°C)	28.48length (m)	temperature (°C)	Stokes	anti-Stokes-747.200	349.630	-0.086	-0.172
-746.185	96.213	-0.132	0.153
-745.171	800.000	-0.104	0.367
-744.156	43.957	-0.114	0.105
-743.142	-66.867	-0.242	-0.097
-742.127	158.085	-0.058	0.082
-741.112	12.479	0.088	0.069
-740.098	-200.000	0.002	-0.131
-739.083	-80.097	0.269	0.091
-738.069	102.763	0.226	0.268
-737.054	800.000	0.076	0.252
-736.039	-46.133	-0.108	-0.054
-735.025	-0.450	0.150	0.108
-734.010	800.000	0.079	-0.221
-732.996	720.463	-0.108	0.290
-731.981	43.315	-0.181	0.167
-730.966	590.126	-0.039	-0.097
-729.952	800.000	-0.050	0.198
-728.937	59.696	-0.054	0.054
-727.923	-200.000	-0.012	0.085
-726.908	-82.201	-0.247	-0.081
-725.894	501.718	-0.077	-0.179
-724.879	-112.815	-0.417	0.083
-723.864	14.652	-0.270	0.213
-722.850	-200.000	0.004	0.081
-721.835	-2.214	-0.181	-0.128
-720.821	-200.000	-0.090	0.402
-719.806	-49.921	-0.061	0.029
-718.791	-141.758	0.044	-0.004
-717.777	-53.862	0.072	0.033
-716.762	800.000	0.053	-0.187
-715.748	-3.632	-0.092	-0.065
-714.733	73.992	-0.226	-0.239
-713.718	44.996	0.126	0.117
-712.704	-200.000	-0.013	-0.124
-711.689	50.098	-0.079	-0.075
-710.675	-200.000	-0.028	-0.261
-709.660	-200.000	0.006	-0.256
-708.645	-188.714	-0.156	-0.002
-707.631	-104.832	0.327	0.076
-706.616	-200.000	0.026	0.273
-705.602	31.008	-0.187	0.162
-704.587	-11.494	-0.261	0.173
-703.572	5.925	0.200	-0.149
-702.558	800.000	0.018	0.057
-701.543	-200.000	-0.025	0.151
-700.529	62.799	-0.150	0.151
-699.514	-112.753	-0.097	-0.019
-698.499	17.143	-0.092	0.074
-697.485	-200.000	-0.025	0.419
-696.470	653.046	-0.050	-0.130
-695.456	597.449	0.103	0.258
-694.441	296.259	-0.110	-0.203
-693.426	373.170	-0.065	-0.133
-692.412	-200.000	0.002	0.182
-691.397	57.552	-0.112	-0.111
-690.383	41.174	-0.179	-0.163
-689.368	-10.651	-0.148	0.098
-688.354	175.825	0.096	0.140
-687.339	-200.000	-0.031	-0.340
-686.324	258.499	-0.068	-0.118
-685.310	85.803	-0.207	-0.230
-684.295	800.000	0.058	-0.251
-683.281	365.631	-0.092	-0.187
-682.266	237.682	0.243	0.406
-681.251	-143.384	0.122	-0.012
-680.237	-200.000	-0.365	0.001
-679.222	-47.872	-0.160	0.078
-678.208	-43.422	0.164	0.083
-677.193	-16.577	-0.022	0.014
-676.178	20.986	0.395	-0.322
-675.164	30.858	-0.203	-0.175
-674.149	78.039	0.112	-0.120
-673.135	10.234	0.078	-0.060
-672.120	-200.000	-0.031	0.301
-671.105	366.416	-0.026	-0.053
-670.091	298.976	-0.191	0.354
-669.076	34.151	-0.048	0.042
-668.062	-115.002	-0.181	0.035
-667.047	-200.000	-0.034	-0.202
-666.032	-45.521	-0.353	0.176
-665.018	800.000	-0.085	0.245
-664.003	-200.000	-0.018	-0.087
-662.989	20.558	0.140	-0.114
-661.974	176.789	-0.217	0.317
-660.959	-19.983	0.258	0.160
-659.945	-118.166	-0.142	-0.026
-658.930	-99.422	0.229	-0.058
-657.916	-86.335	0.189	-0.058
-656.901	-200.000	0.011	-0.218
-655.886	-129.258	-0.249	-0.035
-654.872	-200.000	0.010	-0.069
-653.857	212.575	-0.110	0.175
-652.843	30.527	0.400	0.344
-651.828	-154.177	0.225	-0.015
-650.814	-159.197	-0.345	0.020
-649.799	9.540	-0.101	-0.077
-648.784	-200.000	0.010	-0.199
-647.770	335.967	0.171	-0.334
-646.755	-4.740	0.076	0.053
-645.741	-45.208	-0.402	-0.201
-644.726	-200.000	0.042	-0.220
-643.711	166.647	0.140	0.199
-642.697	-98.272	0.281	-0.073
-641.682	800.000	-0.122	0.434
-640.668	-200.000	-0.042	-0.213
-639.653	27.371	0.332	-0.281
-638.638	-16.431	-0.338	-0.215
-637.624	-18.067	-0.176	-0.111
-636.609	72.731	-0.086	0.091
-635.595	14.900	0.098	-0.077
-634.580	-119.171	0.262	0.046
-633.565	230.778	0.126	-0.208
-632.551	-200.000	-0.038	-0.286
-631.536	-79.845	0.213	0.072
-630.522	144.891	0.079	-0.106
-629.507	-66.128	-0.070	0.028
-628.492	800.000	-0.012	-0.051
-627.478	800.000	-0.057	-0.190
-626.463	-95.622	0.204	0.055
-625.449	-99.311	0.234	-0.059
-624.434	278.380	0.170	-0.305
-623.419	-169.759	0.123	-0.004
-622.405	-200.000	-0.024	0.140
-621.390	64.570	0.109	-0.111
-620.376	101.129	-0.207	-0.241
-619.361	-52.079	-0.081	-0.038
-618.346	-37.813	0.476	0.255
-617.332	18.480	-0.226	0.181
-616.317	-39.512	-0.230	-0.121
-615.303	-29.022	0.132	-0.076
-614.288	-40.741	-0.250	-0.130
-613.273	16.217	-0.258	0.204
-612.259	-200.000	0.013	0.341
-611.244	-109.449	-0.572	0.122
-610.230	800.000	-0.023	0.084
-609.215	-121.465	-0.165	-0.028
-608.201	800.000	0.052	0.157
-607.186	-119.976	0.119	0.021
-606.171	-113.355	-0.049	0.010
-605.157	800.000	0.138	-0.553
-604.142	179.090	-0.098	-0.144
-603.128	-113.767	-0.091	0.018
-602.113	367.641	-0.130	0.265
-601.098	800.000	-0.080	0.249
-600.084	61.004	-0.347	0.346
-599.069	6.826	-0.207	-0.155
-598.055	-156.074	-0.127	-0.008
-597.040	-88.872	-0.297	-0.089
-596.025	-162.120	0.316	-0.016
-595.011	-8.924	0.308	-0.207
-593.996	705.210	-0.059	-0.157
-592.982	463.231	-0.033	-0.074
-591.967	-156.983	-0.282	-0.017
-590.952	193.453	0.113	-0.171
-589.938	111.929	-0.236	-0.286
-588.923	-158.456	-0.263	0.015
-587.909	149.494	0.126	-0.172
-586.894	252.913	0.092	0.157
-585.879	-61.749	-0.281	-0.118
-584.865	45.293	-0.250	0.232
-583.850	31.821	0.237	0.205
-582.836	-58.522	-0.019	-0.008
-581.821	239.298	-0.174	0.290
-580.806	-41.607	0.069	0.036
-579.792	-200.000	-0.029	0.126
-578.777	76.687	0.203	-0.216
-577.763	-200.000	-0.018	-0.168
-576.748	-63.611	0.322	0.133
-575.733	114.279	0.113	0.138
-574.719	-73.161	-0.180	0.066
-573.704	-200.000	0.066	0.313
-572.690	-200.000	-0.048	0.307
-571.675	-200.000	0.002	-0.042
-570.661	-70.764	-0.246	0.093
-569.646	174.589	0.316	-0.459
-568.631	-139.876	-0.287	-0.030
-567.617	9.705	0.257	0.195
-566.602	-200.000	0.024	-0.183
-565.588	800.000	0.072	0.280
-564.573	798.897	-0.033	0.091
-563.558	-200.000	-0.004	-0.057
-562.544	800.000	-0.020	-0.058
-561.529	800.000	-0.021	-0.072
-560.515	-125.711	0.128	0.019
-559.500	-200.000	0.071	-0.384
-558.485	-42.322	0.174	0.089
-557.471	416.720	-0.085	-0.181
-556.456	114.841	0.053	-0.064
-555.442	800.000	0.086	0.247
-554.427	420.203	-0.104	-0.223
-553.412	423.961	0.045	-0.098
-552.398	332.874	0.081	0.157
-551.383	482.568	0.089	-0.203
-550.369	-164.381	-0.272	-0.012
-549.354	564.663	0.054	0.130
-548.339	-68.834	-0.129	0.050
-547.325	55.296	0.090	-0.087
-546.310	-78.710	0.218	0.075
-545.296	241.054	0.145	0.243
-544.281	800.000	0.075	-0.252
-543.266	800.000	-0.078	-0.238
-542.252	645.043	0.157	-0.401
-541.237	-103.593	-0.089	-0.021
-540.223	-44.762	-0.189	0.095
-539.208	-70.545	-0.128	-0.048
-538.193	-63.996	-0.238	0.097
-537.179	-94.574	0.274	0.075
-536.164	-200.000	0.056	-0.395
-535.150	-23.004	0.200	0.120
-534.135	45.279	0.133	-0.123
-533.121	174.554	-0.073	0.105
-532.106	56.444	-0.403	-0.392
-531.091	28.087	-0.109	0.093
-530.077	-30.044	0.243	0.139
-529.062	-130.196	-0.122	0.017
-528.048	-42.238	-0.260	-0.133
-527.033	41.161	-0.119	-0.108
-526.018	198.540	0.153	-0.234
-525.004	-185.329	0.331	-0.005
-523.989	-151.664	-0.068	-0.005
-522.975	-39.361	-0.305	0.160
-521.960	-58.908	0.092	-0.040
-520.945	-52.248	-0.061	0.028
-519.931	-135.009	-0.262	-0.032
-518.916	-200.000	0.002	0.028
-517.902	-200.000	0.040	0.231
-516.887	220.515	0.052	-0.084
-515.872	-129.410	-0.121	-0.017
-514.858	-122.123	0.323	0.053
-513.843	800.000	0.117	-0.408
-512.829	201.230	-0.105	-0.161
-511.814	-157.479	-0.210	-0.013
-510.799	-200.000	-0.049	0.315
-509.785	-49.091	-0.075	-0.036
-508.770	185.956	0.114	-0.170
-507.756	-200.000	-0.004	0.191
-506.741	-200.000	-0.027	-0.309
-505.726	-200.000	-0.046	-0.320
-504.712	7.904	-0.159	-0.119
-503.697	-50.820	0.209	0.098
-502.683	-86.407	0.174	0.053
-501.668	52.171	0.097	0.092
-500.653	-200.000	0.067	-0.341
-499.639	140.362	-0.108	-0.142
-498.624	-114.143	0.106	0.020
-497.610	-200.000	0.016	0.205
-496.595	-122.522	0.388	0.063
-495.581	-64.140	-0.113	0.046
-494.566	-82.220	0.072	0.023
-493.551	-6.007	-0.421	-0.288
-492.537	-135.493	0.119	0.014
-491.522	-200.000	0.032	0.279
-490.508	432.391	-0.096	0.208
-489.493	-138.308	0.405	0.045
-488.478	-15.427	-0.299	0.191
-487.464	-147.960	0.198	0.016
-486.449	-54.158	-0.157	0.071
-485.435	-24.831	0.100	-0.060
-484.420	-54.618	0.245	0.111
-483.405	365.026	0.050	-0.101
-482.391	-200.000	0.014	0.070
-481.376	-42.249	0.138	-0.070
-480.362	151.059	0.173	0.235
-479.347	800.000	-0.061	0.168
-478.332	-28.040	-0.246	0.142
-477.318	-55.846	-0.208	0.093
-476.303	597.456	-0.156	0.386
-475.289	-136.957	0.148	0.017
-474.274	240.109	0.057	-0.095
-473.259	-198.521	0.236	-0.001
-472.245	-9.255	-0.293	0.196
-471.230	130.198	-0.270	0.345
-470.216	-52.815	0.143	-0.066
-469.201	7.383	-0.079	-0.059
-468.186	-54.798	0.055	-0.025
-467.172	-95.658	0.218	0.058
-466.157	-42.829	-0.185	-0.094
-465.143	246.677	0.115	0.194
-464.128	-163.963	-0.087	-0.004
-463.113	-81.506	-0.139	-0.046
-462.099	70.371	0.170	0.175
-461.084	-126.350	-0.354	0.053
-460.070	115.985	0.094	-0.115
-459.055	-16.755	-0.160	-0.101
-458.040	88.939	-0.053	-0.058
-457.026	-200.000	0.018	0.187
-456.011	134.735	-0.165	-0.214
-454.997	510.271	0.120	-0.279
-453.982	-186.243	-0.178	-0.003
-452.968	800.000	0.104	0.383
-451.953	45.472	-0.152	0.140
-450.938	-99.413	-0.424	-0.107
-449.924	110.745	0.096	-0.115
-448.909	-75.033	0.191	0.068
-447.895	192.581	-0.287	0.432
-446.880	99.443	-0.317	0.366
-445.865	233.596	0.153	0.252
-444.851	51.592	0.146	0.138
-443.836	532.318	0.093	0.220
-442.822	-200.000	-0.004	-0.537
-441.807	578.126	-0.015	-0.037
-440.792	-180.207	-0.347	0.007
-439.778	155.595	-0.289	0.398
-438.763	-57.633	-0.099	0.043
-437.749	800.000	-0.050	0.146
-436.734	800.000	0.085	0.294
-435.719	68.981	0.097	-0.100
-434.705	-200.000	0.031	-0.317
-433.690	-99.004	0.309	0.078
-432.676	65.965	-0.082	-0.083
-431.661	-153.302	0.123	0.009
-430.646	256.200	-0.077	-0.132
-429.632	-178.014	-0.259	-0.006
-428.617	288.123	0.094	-0.170
-427.603	10.834	0.184	-0.140
-426.588	567.369	0.043	0.105
-425.573	15.180	-0.243	-0.190
-424.559	-156.570	0.343	-0.021
-423.544	-200.000	0.006	-0.180
-422.530	49.999	-0.247	-0.233
-421.515	-200.000	0.007	-0.262
-420.500	274.099	-0.023	-0.041
-419.486	-184.340	0.160	0.003
-418.471	160.738	0.106	-0.148
-417.457	587.970	-0.025	-0.061
-416.442	-47.590	-0.091	0.044
-415.428	91.655	-0.037	0.041
-414.413	-200.000	-0.049	-0.220
-413.398	-200.000	-0.025	-0.233
-412.384	-13.818	0.410	0.264
-411.369	-160.421	-0.255	0.014
-410.355	49.236	-0.161	-0.151
-409.340	290.434	0.116	-0.211
-408.325	60.872	-0.110	-0.109
-407.311	800.000	0.112	-0.344
-406.296	-41.230	-0.152	-0.078
-405.282	11.328	-0.224	-0.171
-404.267	108.415	-0.065	-0.077
-403.252	-22.972	0.026	-0.016
-402.238	482.934	0.100	-0.227
-401.223	-200.000	-0.012	-0.159
-400.209	-98.440	0.169	-0.043
-399.194	-200.000	0.011	-0.057
-398.179	-57.924	0.373	-0.162
-397.165	418.204	0.196	-0.417
-396.150	-39.888	-0.061	0.032
-395.136	470.478	0.068	-0.153
-394.121	272.690	-0.045	-0.079
-393.106	-70.311	-0.053	0.020
-392.092	51.997	0.166	-0.157
-391.077	436.886	-0.213	0.462
-390.063	-66.584	0.111	-0.044
-389.048	-129.821	0.192	0.026
-388.033	187.794	0.131	0.194
-387.019	-10.140	0.184	0.122
-386.004	-20.434	-0.242	0.148
-384.990	49.564	-0.098	0.092
-383.975	-200.000	0.001	0.202
-382.960	-180.776	-0.196	0.004
-381.946	-200.000	-0.007	-0.112
-380.931	800.000	-0.077	0.246
-379.917	664.801	-0.066	0.170
-378.902	-200.000	0.031	0.241
-377.888	-121.331	-0.283	-0.047
-376.873	-200.000	-0.061	0.271
-375.858	94.780	0.030	-0.034
-374.844	69.958	-0.191	-0.196
-373.829	-200.000	0.000	0.240
-372.815	-27.195	0.104	-0.060
-371.800	-7.649	0.125	-0.084
-370.785	-200.000	-0.010	-0.074
-369.771	-200.000	0.033	0.182
-368.756	-69.165	-0.292	-0.112
-367.742	86.693	0.142	-0.156
-366.727	-174.236	-0.238	-0.007
-365.712	-69.909	0.259	0.098
-364.698	7.098	0.090	0.067
-363.683	496.074	-0.082	-0.187
-362.669	800.000	0.031	0.098
-361.654	105.791	-0.102	0.120
-360.639	226.190	-0.055	0.088
-359.625	782.753	-0.079	-0.215
-358.610	200.414	0.078	-0.119
-357.596	-200.000	-0.010	0.106
-356.581	357.039	0.067	-0.132
-355.566	296.310	-0.262	0.478
-354.552	342.708	-0.160	-0.312
-353.537	64.117	0.177	0.177
-352.523	-42.131	0.032	-0.016
-351.508	800.000	-0.028	0.111
-350.493	800.000	0.047	0.185
-349.479	800.000	0.088	-0.355
-348.464	326.832	0.257	0.490
-347.450	-200.000	-0.020	-0.118
-346.435	-96.106	0.012	0.003
-345.420	244.854	0.109	0.183
-344.406	69.385	-0.138	-0.141
-343.391	-200.000	0.016	0.117
-342.377	-200.000	-0.008	0.136
-341.362	-21.673	-0.129	0.078
-340.348	205.368	-0.085	0.132
-339.333	-200.000	0.002	0.149
-338.318	39.206	-0.122	-0.108
-337.304	113.788	0.218	0.263
-336.289	452.679	0.107	0.235
-335.275	373.281	0.159	0.322
-334.260	-64.116	-0.030	0.012
-333.245	-164.187	0.324	0.015
-332.231	-3.856	-0.134	-0.093
-331.216	263.760	-0.146	0.252
-330.202	-200.000	0.033	0.305
-329.187	-60.581	-0.211	-0.089
-328.172	-166.980	0.313	0.013
-327.158	-63.001	-0.159	-0.065
-326.143	-186.781	-0.217	-0.003
-325.129	51.833	0.265	-0.250
-324.114	258.172	-0.056	-0.095
-323.099	-200.000	0.001	0.110
-322.085	-126.026	0.197	-0.029
-321.070	78.044	-0.151	0.160
-320.056	-77.581	-0.129	0.044
-319.041	16.842	0.193	0.152
-318.026	-37.786	0.263	-0.139
-317.012	31.918	0.244	0.209
-315.997	5.771	-0.214	0.157
-314.983	131.991	-0.066	0.084
-313.968	160.145	0.144	-0.200
-312.953	56.204	0.147	-0.142
-311.939	-94.015	-0.350	0.095
-310.924	-144.407	0.039	-0.004
-309.910	-59.525	0.176	0.075
-308.895	9.798	0.221	-0.166
-307.880	-17.070	-0.059	0.037
-306.866	-2.789	-0.207	-0.144
-305.851	800.000	-0.044	-0.121
-304.837	800.000	-0.088	0.319
-303.822	87.786	0.047	-0.051
-302.807	-114.672	-0.052	-0.010
-301.793	88.510	-0.130	0.143
-300.778	800.000	0.061	-0.221
-299.764	66.591	-0.103	-0.104
-298.749	-51.195	0.212	0.099
-297.735	-75.739	-0.236	0.083
-296.720	-200.000	-0.048	-0.237
-295.705	800.000	-0.044	-0.140
-294.691	-200.000	0.039	-0.384
-293.676	800.000	-0.137	-0.462
-292.662	-45.037	-0.182	-0.090
-291.647	123.924	0.247	-0.308
-290.632	-200.000	0.020	-0.255
-289.618	-128.503	-0.454	-0.064
-288.603	-90.778	0.080	-0.023
-287.589	800.000	-0.066	-0.279
-286.574	87.387	-0.193	-0.212
-285.559	-91.001	0.138	0.039
-284.545	734.504	0.157	0.416
-283.530	-27.963	0.427	0.245
-282.516	-22.102	-0.156	-0.094
-281.501	77.821	0.003	-0.004
-280.486	800.000	-0.013	-0.049
-279.472	-7.004	-0.075	0.051
-278.457	39.481	0.316	0.281
-277.443	-141.921	-0.446	-0.044
-276.428	-84.186	-0.336	0.105
-275.413	-132.614	-0.285	0.036
-274.399	-127.799	0.133	0.019
-273.384	-200.000	0.035	0.231
-272.370	596.187	-0.073	0.179
-271.355	800.000	0.088	0.273
-270.340	461.584	0.113	-0.250
-269.326	-200.000	-0.020	-0.264
-268.311	592.177	0.199	0.487
-267.297	84.300	-0.029	-0.032
-266.282	22.141	-0.182	0.148
-265.267	622.489	0.057	0.141
-264.253	-200.000	-0.060	0.309
-263.238	800.000	0.029	-0.084
-262.224	543.330	0.050	-0.118
-261.209	800.000	-0.121	0.416
-260.195	42.585	-0.122	-0.110
-259.180	800.000	0.102	0.325
-258.165	91.450	0.139	-0.155
-257.151	0.603	0.111	0.079
-256.136	61.666	0.047	0.046
-255.122	280.768	0.115	-0.204
-254.107	325.409	0.057	-0.109
-253.092	344.641	0.012	-0.024
-252.078	143.976	0.361	0.476
-251.063	-105.349	0.221	-0.050
-250.049	-67.032	0.179	0.070
-249.034	-144.675	-0.249	0.023
-248.019	-200.000	-0.045	-0.222
-247.005	-119.850	-0.144	-0.025
-245.990	-167.537	-0.293	-0.012
-244.976	-176.494	0.376	0.010
-243.961	-32.217	-0.048	0.027
-242.946	130.859	-0.236	0.300
-241.932	131.881	0.135	0.172
-240.917	-57.620	-0.073	-0.032
-239.903	800.000	-0.100	-0.368
-238.888	142.855	-0.059	0.078
-237.873	-114.314	0.143	-0.027
-236.859	418.736	0.082	0.174
-235.844	24.842	-0.129	0.106
-234.830	-89.339	0.530	-0.155
-233.815	286.749	-0.096	0.171
-232.800	-100.587	-0.133	-0.032
-231.786	-200.000	0.040	-0.270
-230.771	90.871	0.167	0.185
-229.757	-200.000	-0.025	0.153
-228.742	-9.724	-0.414	-0.273
-227.727	82.461	-0.061	0.066
-226.713	-77.996	0.233	0.079
-225.698	207.673	0.095	0.146
-224.684	29.188	0.170	-0.143
-223.669	-35.136	-0.068	-0.036
-222.655	-89.984	0.098	0.028
-221.640	10.179	-0.225	0.169
-220.625	370.507	-0.130	-0.262
-219.611	-200.000	0.006	-0.231
-218.596	-44.083	-0.059	0.030
-217.582	-35.965	-0.197	-0.105
-216.567	-200.000	-0.023	-0.182
-215.552	-102.711	0.144	-0.034
-214.538	-29.635	0.217	0.123
-213.523	191.695	0.129	-0.192
-212.509	30.608	-0.112	-0.095
-211.494	59.736	0.163	-0.159
-210.479	-197.366	-0.247	-0.002
-209.465	-50.847	-0.284	0.132
-208.450	800.000	-0.015	-0.064
-207.436	-173.857	-0.310	0.009
-206.421	52.994	0.186	-0.176
-205.406	587.750	0.091	-0.223
-204.392	-200.000	-0.046	-0.316
-203.377	9.963	0.158	-0.119
-202.363	-59.794	0.144	0.061
-201.348	-110.660	0.388	0.079
-200.333	-89.708	-0.215	-0.062
-199.319	444.031	0.063	0.136
-198.304	200.215	-0.139	-0.211
-197.290	-27.584	0.344	-0.197
-196.275	-170.894	-0.146	-0.005
-195.260	511.841	0.171	0.394
-194.246	800.000	0.069	0.259
-193.231	-200.000	0.003	0.385
-192.217	44.748	-0.194	-0.176
-191.202	-125.391	0.242	0.036
-190.187	-200.000	-0.023	0.162
-189.173	632.169	-0.097	-0.242
-188.158	-200.000	-0.004	-0.045
-187.144	-66.233	-0.195	-0.077
-186.129	629.411	-0.053	0.133
-185.114	115.516	-0.139	-0.167
-184.100	92.153	0.301	0.335
-183.085	800.000	0.044	0.163
-182.071	800.000	0.032	0.115
-181.056	290.228	-0.015	0.027
-180.042	-200.000	0.003	-0.127
-179.027	-43.456	-0.237	-0.118
-178.012	25.733	0.136	0.112
-176.998	510.741	-0.150	0.344
-175.983	30.161	0.328	-0.277
-174.969	-191.670	-0.318	-0.003
-173.954	512.677	0.051	0.117
-172.939	-42.747	0.057	-0.028
-171.925	150.029	0.058	0.078
-170.910	-200.000	-0.004	0.028
-169.896	-200.000	0.018	-0.081
-168.881	-200.000	-0.007	0.364
-167.866	-73.461	0.349	0.126
-166.852	-96.875	0.198	0.051
-165.837	800.000	0.078	-0.311
-164.823	-108.075	0.302	-0.065
-163.808	25.376	-0.109	0.090
-162.793	-200.000	0.013	0.098
-161.779	-178.445	0.261	-0.006
-160.764	2.020	0.195	-0.139
-159.750	-182.817	-0.053	-0.001
-158.735	-105.693	0.182	-0.041
-157.720	15.085	-0.027	0.021
-156.706	800.000	-0.046	0.184
-155.691	63.210	-0.048	-0.048
-154.677	15.474	0.037	-0.029
-153.662	45.500	0.074	0.067
-152.647	-200.000	-0.010	0.355
-151.633	-125.848	0.101	0.015
-150.618	286.755	0.110	0.196
-149.604	-200.000	-0.023	0.544
-148.589	1.060	-0.178	0.126
-147.574	-44.704	-0.251	0.124
-146.560	-153.932	0.181	0.012
-145.545	-78.116	0.237	0.080
-144.531	106.686	0.237	0.277
-143.516	-41.566	0.270	-0.137
-142.502	-156.544	-0.252	-0.015
-141.487	-145.619	0.410	-0.036
-140.472	-65.020	-0.154	-0.061
-139.458	-200.000	-0.031	0.151
-138.443	-200.000	0.038	0.227
-137.429	24.820	-0.203	0.165
-136.414	13.693	0.174	0.133
-135.399	800.000	-0.106	-0.375
-134.385	-115.531	-0.152	-0.028
-133.370	-109.801	0.353	0.073
-132.356	176.502	-0.253	-0.362
-131.341	-200.000	-0.050	-0.304
-130.326	135.577	0.154	-0.198
-129.312	85.668	-0.118	-0.128
-128.297	269.900	-0.097	-0.167
-127.283	164.074	0.172	-0.239
-126.268	330.558	0.076	-0.144
-125.253	-98.694	0.144	0.036
-124.239	-98.804	-0.376	-0.094
-123.224	37.007	-0.060	-0.052
-122.210	351.205	0.113	-0.220
-121.195	-200.000	0.004	0.024
-120.180	64.774	0.139	-0.139
-119.166	-73.154	-0.114	-0.041
-118.151	448.964	-0.111	0.241
-117.137	-139.919	0.303	0.032
-116.122	-0.642	0.227	0.159
-115.107	800.000	0.037	0.103
-114.093	-72.423	0.143	0.052
-113.078	105.303	-0.070	-0.082
-112.064	85.522	0.023	0.025
-111.049	800.000	0.066	0.182
-110.034	-152.188	-0.244	0.017
-109.020	-50.292	-0.251	-0.117
-108.005	63.221	0.165	-0.163
-106.991	-132.170	0.449	-0.057
-105.976	800.000	-0.033	0.129
-104.962	-114.969	-0.176	-0.033
-103.947	785.859	0.023	-0.062
-102.932	-86.235	0.250	0.076
-101.918	-76.031	-0.069	-0.024
-100.903	40.628	-0.241	-0.214
-99.889	689.512	0.084	0.215
-98.874	800.000	-0.026	-0.088
-97.859	800.000	-0.024	0.104
-96.845	-147.263	-0.183	-0.015
-95.830	800.000	0.105	-0.348
-94.816	-45.629	0.021	0.010
-93.801	-144.076	0.182	0.017
-92.786	34.282	0.317	-0.272
-91.772	162.747	-0.027	0.038
-90.757	-111.225	0.283	0.057
-89.743	17.174	-0.195	0.152
-88.728	-50.595	0.270	-0.125
-87.713	115.303	0.265	-0.319
-86.699	93.392	-0.049	0.055
-85.684	-168.933	0.294	0.011
-84.670	-151.544	-0.541	-0.039
-83.655	327.836	0.119	-0.225
-82.640	-34.235	0.036	0.019
-81.626	-17.016	-0.154	0.095
-80.611	127.926	-0.153	0.192
-79.597	259.527	-0.085	0.145
-78.582	186.028	0.155	0.227
-77.567	800.000	0.052	0.192
-76.553	42.612	0.314	0.281
-75.538	-74.546	-0.398	-0.141
-74.524	-119.065	-0.300	-0.052
-73.509	54.504	0.106	0.101
-72.494	-99.315	-0.192	-0.048
-71.480	122.623	0.035	-0.043
-70.465	5.077	-0.197	-0.143
-69.451	-200.000	0.035	-0.278
-68.436	-200.000	-0.007	0.058
-67.422	-48.957	0.273	0.129
-66.407	-200.000	0.007	-0.223
-65.392	44.440	-0.076	0.069
-64.378	-90.355	-0.086	-0.024
-63.363	132.912	-0.108	-0.138
-62.349	-71.782	0.155	-0.057
-61.334	153.577	-0.948	-1.276
-60.319	-71.760	0.495	0.182
-59.305	800.000	-0.230	-0.877
-58.290	394.625	0.718	1.471
-57.276	-200.000	0.279	1.440
-56.261	-200.000	95.555	568.116
-55.246	498.453	1409.084	3189.763
-54.232	152.017	2620.832	3512.902
-53.217	110.466	2195.101	2592.769
-52.203	43.620	1636.534	1471.188
-51.188	34.792	1366.527	1174.471
-50.173	31.508	1323.769	1118.086
-49.159	54.156	1371.333	1296.390
-48.144	55.575	1388.014	1320.720
-47.130	35.005	1346.545	1158.402
-46.115	31.322	1329.685	1121.786
-45.100	31.214	1324.082	1116.373
-44.086	31.117	1321.984	1113.980
-43.071	31.189	1319.104	1111.934
-42.057	31.111	1317.442	1110.029
-41.042	31.127	1315.552	1108.485
-40.027	31.055	1314.643	1107.245
-39.013	31.223	1311.812	1105.812
-37.998	31.099	1310.769	1104.156
-36.984	31.083	1309.219	1102.715
-35.969	31.158	1307.001	1101.247
-34.954	31.290	1305.305	1100.549
-33.940	31.360	1303.680	1099.547
-32.925	31.321	1302.400	1098.195
-31.911	31.217	1301.383	1096.685
-30.896	31.416	1299.578	1096.283
-29.881	31.422	1298.196	1095.110
-28.867	31.410	1296.292	1093.391
-27.852	31.281	1295.118	1091.602
-26.838	31.281	1294.052	1090.662
-25.823	31.217	1292.817	1089.205
-24.809	31.261	1291.070	1087.947
-23.794	31.177	1290.065	1086.565
-22.779	31.303	1288.563	1085.990
-21.765	31.193	1287.411	1084.341
-20.750	31.325	1285.365	1083.335
-19.736	31.125	1284.675	1081.555
-18.721	31.127	1283.531	1080.559
-17.706	31.185	1282.218	1079.749
-16.692	31.125	1281.447	1078.708
-15.677	31.148	1279.983	1077.568
-14.663	31.051	1278.615	1075.813
-13.648	31.156	1277.452	1075.394
-12.633	31.164	1276.553	1074.639
-11.619	31.049	1275.814	1073.316
-10.604	31.180	1274.779	1073.155
-9.590	31.054	1274.232	1071.930
-8.575	31.026	1273.384	1071.011
-7.560	31.045	1272.426	1070.272
-6.546	31.079	1271.877	1069.962
-5.531	31.039	1270.512	1068.544
-4.517	31.196	1269.605	1068.638
-3.502	31.147	1268.986	1067.795
-2.487	31.177	1267.852	1066.966
-1.473	31.073	1264.318	1063.358
-0.458	30.119	1249.671	1045.621
0.556	26.248	1232.444	1009.222
1.571	22.044	1238.494	990.434
2.586	20.555	1251.839	992.523
3.600	19.114	1239.113	974.198
4.615	13.858	1164.495	887.422
5.629	5.321	1087.709	786.046
6.644	1.290	1067.764	751.630
7.659	1.026	1065.169	748.434
8.673	0.856	1064.669	747.178
9.688	0.930	1063.235	746.469
10.702	1.156	1061.444	746.259
11.717	5.751	1067.647	773.262
12.731	13.274	1076.947	817.238
13.746	16.936	1080.817	838.235
14.761	17.501	1080.631	840.809
15.775	16.842	1079.131	836.319
16.790	15.727	1077.934	829.819
17.804	15.165	1075.676	825.239
18.819	14.765	1074.715	822.456
19.834	14.348	1073.872	819.687
20.848	14.170	1073.029	818.097
21.863	13.850	1072.590	816.117
22.877	13.663	1071.033	813.945
23.892	13.684	1070.329	813.437
24.907	13.784	1069.504	813.228
25.921	13.739	1068.951	812.519
26.936	13.775	1068.066	811.948
27.950	13.851	1067.300	811.664
28.965	13.746	1066.276	810.303
29.980	13.908	1064.616	809.757
30.994	13.913	1063.509	808.870
32.009	13.917	1062.321	807.914
33.023	13.937	1061.278	807.145
34.038	13.917	1060.627	806.481
35.053	13.891	1059.632	805.529
36.067	13.854	1059.258	804.996
37.082	13.919	1058.177	804.417
38.096	13.944	1057.427	803.896
39.111	13.911	1056.883	803.250
40.126	13.819	1055.224	801.476
41.140	13.761	1054.280	800.408
42.155	13.730	1053.436	799.547
43.169	13.518	1052.425	797.689
44.184	13.598	1051.269	797.128
45.199	13.657	1050.013	796.385
46.213	13.732	1048.827	795.777
47.228	13.786	1047.671	795.086
48.242	13.681	1046.792	793.849
49.257	13.667	1046.260	793.309
50.271	13.854	1044.978	793.157
51.286	13.862	1044.092	792.453
52.301	13.870	1042.668	791.340
53.315	13.796	1041.990	790.401
54.330	13.679	1040.971	789.004
55.344	13.687	1040.373	788.521
56.359	13.776	1039.178	787.964
57.374	13.739	1038.096	786.901
58.388	13.791	1037.307	786.481
59.403	13.547	1037.107	785.104
60.417	13.641	1036.018	784.655
61.432	13.643	1035.097	783.894
62.447	13.682	1034.336	783.434
63.461	13.579	1033.819	782.487
64.476	13.741	1032.679	782.320
65.490	13.649	1031.792	781.143
66.505	13.680	1031.358	780.891
67.520	13.683	1030.510	780.194
68.534	13.799	1029.424	779.848
69.549	13.579	1028.991	778.419
70.563	13.730	1028.013	778.318
71.578	13.773	1027.055	777.725
72.593	13.697	1026.357	776.774
73.607	13.654	1026.335	776.484
74.622	13.689	1025.131	775.668
75.636	13.628	1024.696	774.985
76.651	13.713	1023.512	774.418
77.666	13.583	1023.330	773.606
78.680	13.635	1022.224	772.947
79.695	13.645	1021.836	772.632
80.709	13.724	1021.319	772.537
81.724	13.706	1020.700	771.918
82.739	13.736	1019.512	771.093
83.753	13.670	1019.076	770.385
84.768	13.953	1017.534	770.466
85.782	13.894	1016.948	769.682
86.797	13.915	1016.112	769.076
87.812	13.645	1015.404	767.222
88.826	13.851	1013.863	766.942
89.841	13.789	1013.256	766.131
90.855	13.953	1012.021	765.883
91.870	13.911	1011.226	765.021
92.884	13.968	1010.284	764.505
93.899	13.979	1009.596	763.965
94.914	13.974	1009.032	763.446
95.928	13.890	1008.305	762.446
96.943	13.876	1007.630	761.803
97.957	13.888	1006.536	760.964
98.972	13.864	1005.723	760.171
99.987	13.887	1004.703	759.440
101.001	13.831	1003.707	758.362
102.016	13.904	1002.210	757.498
103.030	14.050	1002.021	757.954
104.045	13.970	1000.839	756.629
105.060	13.992	1000.079	756.085
106.074	13.911	999.323	755.078
107.089	13.812	998.455	753.909
108.103	13.843	997.662	753.381
109.118	13.789	996.942	752.527
110.133	13.722	996.045	751.479
111.147	13.815	994.878	750.954
112.162	13.927	993.548	750.389
113.176	14.008	993.133	750.374
114.191	13.901	992.559	749.394
115.206	13.813	992.163	748.629
116.220	13.880	991.061	748.035
117.235	13.869	989.969	747.095
118.249	13.848	989.017	746.216
119.264	13.785	988.862	745.750
120.279	13.891	988.120	745.602
121.293	14.015	986.797	745.091
122.308	13.894	985.969	743.857
123.322	13.930	984.953	743.187
124.337	13.924	984.218	742.538
125.352	13.920	982.872	741.442
126.366	13.882	981.850	740.435
127.381	13.863	980.899	739.569
128.395	13.916	980.223	739.229
129.410	13.998	979.175	738.738
130.424	13.956	978.221	737.764
131.439	14.116	976.917	737.425
132.454	13.855	977.137	736.368
133.468	13.879	976.263	735.755
134.483	13.894	975.292	735.021
135.497	13.918	974.538	734.495
136.512	13.990	973.466	733.940
137.527	13.894	972.792	732.943
138.541	13.844	972.164	732.185
139.556	13.918	971.101	731.646
140.570	13.867	970.955	731.245
141.585	14.153	969.544	731.377
142.600	14.015	968.785	730.134
143.614	14.166	967.565	729.810
144.629	14.115	966.811	728.955
145.643	14.080	965.906	728.055
146.658	14.072	965.001	727.274
147.673	13.956	964.088	726.012
148.687	13.915	963.669	725.455
149.702	13.985	962.858	725.087
150.716	14.032	961.795	724.425
151.731	14.012	960.867	723.575
152.746	13.962	960.278	722.848
153.760	14.167	959.564	723.141
154.775	14.169	958.976	722.642
155.789	14.160	958.678	722.314
156.804	14.186	957.434	721.423
157.819	14.094	957.353	720.903
158.833	14.110	956.760	720.462
159.848	14.114	955.871	719.747
160.862	14.277	954.313	719.213
161.877	14.196	953.581	718.246
162.892	14.159	952.806	717.440
163.906	14.065	952.189	716.506
164.921	14.120	951.024	715.805
165.935	14.141	950.177	715.194
166.950	14.091	949.586	714.469
167.964	14.147	948.442	713.785
168.979	14.174	947.667	713.255
169.994	14.231	946.476	712.541
171.008	14.108	946.471	711.947
172.023	14.268	945.315	711.699
173.037	14.320	944.750	711.434
174.052	14.350	943.974	710.911
175.067	14.235	943.465	709.978
176.081	14.236	943.305	709.798
177.096	14.156	942.539	708.816
178.110	14.341	941.791	708.979
179.125	14.353	940.857	708.264
180.140	14.317	940.711	707.940
181.154	14.357	940.302	707.739
182.169	14.413	939.504	707.315
183.183	14.379	939.231	706.901
184.198	14.423	938.165	706.221
185.213	14.428	937.498	705.678
186.227	14.450	936.505	704.964
187.242	14.355	936.140	704.224
188.256	14.492	935.384	704.172
189.271	14.563	934.247	703.551
190.286	14.370	933.795	702.335
191.300	14.306	932.989	701.398
192.315	14.405	932.541	701.418
193.329	14.488	931.891	701.217
194.344	14.324	931.521	700.185
195.359	14.621	930.303	700.454
196.373	14.593	929.880	699.957
197.388	14.521	929.531	699.327
198.402	14.564	928.877	698.957
199.417	14.686	928.358	699.014
200.432	14.588	928.125	698.365
201.446	14.654	927.402	698.038
202.461	14.704	927.032	697.906
203.475	14.688	926.679	697.511
204.490	14.671	925.700	696.642
205.504	14.707	924.694	695.971
206.519	14.716	924.087	695.493
207.534	14.691	923.444	694.843
208.548	14.735	922.582	694.317
209.563	14.668	922.035	693.564
210.577	14.765	921.648	693.614
211.592	14.746	920.986	692.977
212.607	14.825	920.320	692.741
213.621	14.868	919.242	692.048
214.636	14.792	918.490	691.106
215.650	14.859	917.664	690.698
216.665	14.825	917.129	690.093
217.680	14.914	916.230	689.725
218.694	14.905	915.496	689.074
219.709	14.954	915.116	688.930
220.723	14.863	914.617	688.116
221.738	15.015	913.659	687.959
222.753	14.892	912.756	686.716
223.767	14.888	912.397	686.369
224.782	14.900	912.183	686.197
225.796	15.063	911.256	686.106
226.811	15.043	910.564	685.441
227.826	15.104	909.934	685.157
228.840	15.062	908.929	684.168
229.855	14.942	908.614	683.380
230.869	15.095	907.811	683.340
231.884	15.116	906.826	682.624
232.899	15.070	906.050	681.789
233.913	15.008	905.783	681.278
234.928	14.979	905.239	680.689
235.942	15.144	904.141	680.474
236.957	15.085	903.903	679.996
237.972	15.069	903.118	679.278
238.986	15.097	902.360	678.763
240.001	15.136	901.674	678.343
241.015	15.211	901.233	678.258
242.030	15.122	900.712	677.443
243.045	15.103	900.261	676.967
244.059	15.331	899.276	677.087
245.074	15.379	898.573	676.693
246.088	15.165	898.237	675.517
247.103	15.265	897.600	675.380
248.117	15.241	897.225	674.943
249.132	15.309	896.488	674.602
250.147	15.448	895.656	674.474
251.161	15.492	894.868	674.000
252.176	15.443	894.392	673.384
253.190	15.390	893.769	672.644
254.205	15.475	893.242	672.526
255.220	15.458	892.799	672.067
256.234	15.474	892.014	671.478
257.249	15.537	891.090	670.978
258.263	15.562	890.468	670.548
259.278	15.581	889.493	669.832
260.293	15.520	888.828	669.027
261.307	15.555	888.627	668.955
262.322	15.741	887.792	669.007
263.336	15.750	886.983	668.374
264.351	15.743	886.149	667.660
265.366	15.876	885.433	667.590
266.380	15.751	885.388	667.001
267.395	15.719	884.509	666.152
268.409	15.784	883.893	665.886
269.424	15.829	883.205	665.490
270.439	15.760	882.322	664.492
271.453	15.977	881.317	664.531
272.468	15.679	881.094	663.127
273.482	15.688	880.860	662.930
274.497	15.875	879.765	662.782
275.512	15.737	879.702	662.136
276.526	15.951	878.954	662.353
277.541	15.834	878.521	661.510
278.555	15.792	878.284	661.107
279.570	15.940	877.257	660.857
280.585	15.976	876.517	660.380
281.599	16.098	875.363	659.933
282.614	15.970	874.782	658.935
283.628	16.102	873.932	658.752
284.643	16.027	873.494	658.070
285.657	16.017	872.958	657.568
286.672	16.009	872.548	657.170
287.687	15.984	871.944	656.560
288.701	15.998	871.290	656.064
289.716	16.025	870.711	655.675
290.730	16.079	870.391	655.585
291.745	16.090	869.397	654.824
292.760	16.145	868.983	654.665
293.774	16.182	868.451	654.352
294.789	16.182	868.061	653.998
295.803	16.146	866.820	652.866
296.818	16.240	865.911	652.489
297.833	16.174	865.348	651.750
298.847	16.219	864.798	651.453
299.862	16.248	864.241	651.086
300.876	16.268	864.002	650.927
301.891	16.327	863.483	650.706
302.906	16.218	862.891	649.782
303.920	16.344	862.585	649.981
304.935	16.410	861.481	649.342
305.949	16.419	860.830	648.831
306.964	16.426	860.226	648.346
307.979	16.260	859.980	647.467
308.993	16.365	859.417	647.385
310.008	16.444	858.761	647.139
311.022	16.370	858.005	646.228
312.037	16.449	857.561	646.139
313.052	16.299	857.046	645.119
314.066	16.438	856.500	645.182
315.081	16.361	856.108	644.538
316.095	16.305	855.293	643.653
317.110	16.438	854.730	643.679
318.125	16.394	854.391	643.200
319.139	16.452	853.882	642.978
320.154	16.395	853.215	642.202
321.168	16.519	853.135	642.557
322.183	16.592	852.075	641.980
323.197	16.595	851.579	641.558
324.212	16.508	851.078	640.797
325.227	16.530	850.157	640.130
326.241	16.632	849.899	640.265
327.256	16.503	849.579	639.478
328.270	16.638	849.041	639.528
329.285	16.447	848.759	638.538
330.300	16.617	847.600	638.248
331.314	16.486	847.203	637.399
332.329	16.677	846.730	637.708
333.343	16.730	846.348	637.562
334.358	16.739	845.568	636.951
335.373	16.779	845.313	636.856
336.387	16.578	845.236	635.986
337.402	16.762	844.710	636.223
338.416	16.754	844.595	636.050
339.431	16.765	843.837	635.466
340.446	16.942	843.345	635.700
341.460	16.771	843.632	635.219
342.475	16.913	842.570	634.898
343.489	16.749	842.627	634.268
344.504	16.847	841.849	633.994
345.519	16.923	841.427	633.902
346.533	16.912	840.780	633.319
347.548	16.982	840.121	633.030
348.562	17.013	839.872	632.901
349.577	16.832	839.356	631.780
350.592	16.908	838.352	631.252
351.606	16.897	837.920	630.829
352.621	17.045	837.007	630.639
353.635	17.023	836.313	629.976
354.650	17.076	835.518	629.518
355.665	17.064	835.520	629.418
356.679	16.982	834.939	628.624
357.694	17.139	833.987	628.432
358.708	17.173	833.319	627.998
359.723	17.054	832.897	627.186
360.738	16.947	832.471	626.415
361.752	17.064	831.759	626.254
362.767	17.089	830.935	625.669
363.781	17.088	830.563	625.331
364.796	17.336	830.048	625.801
365.810	17.278	829.864	625.392
366.825	17.369	829.354	625.289
367.840	17.338	829.252	625.040
368.854	17.313	828.414	624.261
369.869	17.352	827.746	623.846
370.883	17.454	827.371	623.885
371.898	17.509	827.170	623.878
372.913	17.537	826.618	623.510
373.927	17.499	826.005	622.855
374.942	17.399	825.859	622.323
375.956	17.497	825.481	622.340
376.971	17.547	824.667	621.853
377.986	17.568	824.059	621.417
379.000	17.606	823.660	621.200
380.015	17.603	823.417	620.950
381.029	17.601	822.952	620.537
382.044	17.619	822.371	620.110
383.059	17.492	821.882	619.225
384.073	17.563	821.765	619.341
385.088	17.549	820.597	618.354
386.102	17.541	820.450	618.159
387.117	17.506	819.865	617.539
388.132	17.581	819.039	617.131
389.146	17.576	818.618	616.742
390.161	17.772	817.880	616.840
391.175	17.737	817.412	616.305
392.190	17.684	817.017	615.763
393.205	17.798	816.346	615.614
394.219	17.679	816.096	614.941
395.234	17.640	815.754	614.488
396.248	17.751	815.344	614.525
397.263	17.584	815.217	613.773
398.278	17.767	814.466	613.813
399.292	17.708	813.893	613.113
400.307	17.650	813.570	612.609
401.321	17.731	813.029	612.440
402.336	17.583	812.839	611.707
403.350	17.794	812.260	611.976
404.365	17.939	811.673	612.000
405.380	17.908	811.013	611.336
406.394	17.847	810.637	610.780
407.409	17.916	810.431	610.818
408.423	17.908	810.199	610.560
409.438	18.116	809.544	610.758
410.453	18.110	809.155	610.387
411.467	18.042	808.739	609.778
412.482	18.119	808.213	609.601
413.496	17.949	808.092	608.850
414.511	18.019	807.159	608.344
415.526	18.023	806.999	608.181
416.540	18.060	806.552	607.922
417.555	18.156	806.479	608.154
418.569	18.098	805.406	607.087
419.584	18.102	805.378	607.026
420.599	18.208	804.860	606.958
421.613	110.332	1290.450	1464.971
422.628	95.175	1361.211	1465.038
