DTS Sentinel unit serial number:	SN413079Multiplexer serial number:	ORYXHardware model number:	OX4-SRSoftware version number:	ORYX F/W v4.00 Oryx Data Collector v3.7.2.0data status	okinstallation	princeton_trtdifferential loss correction	single-endedforward channel	channel 1reverse channel	N/Adate	2019/09/13time	15:38:35forward acquisition time	60.00reverse acquisition time	0.00gamma	496.2192k internal	0.2307k external	0.2307temperature offset calibration	1.0162default loss term (dB/km)	0.3790temperature slope calibration	1.0000multiplexer offset coefficient	1.0000multiplexer slope coefficient	1.0000fibre end	0.00T internal ref (°C)	34.92T ext. ref 1 (°C)	4.76T ext. ref 2 (°C)	29.28length (m)	temperature (°C)	Stokes	anti-Stokes-747.200	-10.453	0.104	-0.070
-746.185	-182.500	-0.192	-0.004
-745.171	-95.980	0.339	-0.092
-744.156	0.804	0.098	-0.072
-743.142	-146.480	-0.342	-0.030
-742.127	145.841	0.013	0.017
-741.112	-200.000	0.003	-0.038
-740.098	681.384	0.095	0.251
-739.083	357.041	-0.079	0.160
-738.069	59.804	-0.181	0.181
-737.054	-48.202	0.461	-0.226
-736.039	12.910	0.039	0.031
-735.025	-3.510	-0.247	0.174
-734.010	800.000	-0.010	0.031
-732.996	-82.947	0.016	0.005
-731.981	-73.760	-0.294	0.109
-730.966	638.093	-0.078	0.201
-729.952	-200.000	-0.029	0.162
-728.937	346.682	-0.020	-0.039
-727.923	-200.000	0.003	-0.129
-726.908	-120.535	-0.190	0.033
-725.894	285.399	0.085	0.155
-724.879	-64.908	0.093	-0.038
-723.864	542.971	-0.049	-0.119
-722.850	-33.636	-0.126	-0.071
-721.835	800.000	-0.073	-0.230
-720.821	-33.586	-0.111	0.062
-719.806	-200.000	0.013	0.095
-718.791	202.628	0.077	0.120
-717.777	-200.000	0.000	-0.359
-716.762	88.594	-0.088	-0.099
-715.748	71.960	0.011	0.012
-714.733	-200.000	0.023	-0.274
-713.718	-131.440	0.133	-0.018
-712.704	175.537	0.087	0.128
-711.689	37.161	0.243	-0.219
-710.675	-31.889	-0.099	-0.057
-709.660	-59.106	-0.189	-0.083
-708.645	-200.000	-0.109	-0.489
-707.631	216.541	0.112	-0.181
-706.616	-71.929	-0.382	-0.144
-705.602	800.000	-0.162	0.464
-704.587	-200.000	-0.069	-0.441
-703.572	-33.982	0.005	-0.003
-702.558	264.062	0.154	0.271
-701.543	-74.069	-0.087	0.032
-700.529	-76.922	-0.231	0.082
-699.514	164.340	0.124	0.177
-698.499	-142.669	0.107	-0.011
-697.485	-49.335	-0.139	-0.068
-696.470	-14.626	0.088	0.058
-695.456	-55.808	0.206	-0.093
-694.441	-187.425	-0.291	0.004
-693.426	-38.712	-0.151	0.081
-692.412	-116.553	0.099	0.019
-691.397	12.294	-0.125	-0.098
-690.383	-169.228	0.084	-0.003
-689.368	800.000	-0.104	-0.296
-688.354	-200.000	0.026	-0.151
-687.339	290.552	-0.028	0.051
-686.324	-93.162	0.179	-0.051
-685.310	49.705	-0.197	0.189
-684.295	-127.208	-0.212	0.031
-683.281	-150.289	0.212	0.017
-682.266	-200.000	0.004	-0.407
-681.251	164.611	-0.289	-0.414
-680.237	-0.460	-0.120	0.086
-679.222	270.094	0.042	-0.075
-678.208	-114.291	-0.137	-0.027
-677.193	148.650	0.189	-0.259
-676.178	43.218	-0.166	-0.154
-675.164	81.591	-0.073	-0.080
-674.149	800.000	0.020	0.082
-673.135	83.935	-0.213	-0.236
-672.120	-17.799	-0.306	0.195
-671.105	-52.842	-0.352	0.164
-670.091	-200.000	0.012	-0.309
-669.076	5.650	-0.211	-0.158
-668.062	800.000	0.029	-0.112
-667.047	-200.000	0.019	-0.130
-666.032	-200.000	-0.059	-0.332
-665.018	-146.605	0.200	0.018
-664.003	512.920	-0.061	0.143
-662.989	185.852	-0.046	0.069
-661.974	800.000	-0.011	-0.033
-660.959	-200.000	-0.001	0.120
-659.945	-26.598	0.190	-0.113
-658.930	-200.000	0.020	0.178
-657.916	156.112	0.067	0.093
-656.901	92.174	0.064	-0.073
-655.886	800.000	0.096	0.304
-654.872	-60.705	0.260	-0.112
-653.857	-81.150	-0.179	-0.060
-652.843	-173.746	-0.335	-0.010
-651.828	131.687	-0.078	-0.102
-650.814	-200.000	-0.269	-0.001
-649.799	93.104	0.137	0.157
-648.784	-200.000	0.065	-0.421
-647.770	-3.251	0.202	-0.142
-646.755	145.244	0.028	0.038
-645.741	629.019	0.125	-0.321
-644.726	800.000	0.116	-0.449
-643.711	-144.718	-0.163	-0.015
-642.697	148.659	0.130	-0.178
-641.682	-160.948	0.135	-0.007
-640.668	-200.000	0.002	0.275
-639.653	-101.253	-0.279	0.069
-638.638	-79.503	-0.213	0.073
-637.624	-200.000	-0.017	0.134
-636.609	-11.108	-0.108	0.072
-635.595	521.466	-0.079	0.187
-634.580	-59.821	-0.090	-0.039
-633.565	-45.000	0.103	0.052
-632.551	-200.000	0.020	0.118
-631.536	-6.735	0.153	0.105
-630.522	188.439	-0.159	-0.240
-629.507	633.860	0.060	-0.153
-628.492	-200.000	-0.021	0.177
-627.478	-168.182	-0.332	0.013
-626.463	-113.667	-0.130	-0.026
-625.449	10.974	0.049	-0.038
-624.434	286.001	-0.074	0.136
-623.419	-200.000	0.020	0.140
-622.405	-200.000	-0.048	0.341
-621.390	-46.161	-0.115	0.057
-620.376	-200.000	-0.028	-0.159
-619.361	800.000	0.065	0.195
-618.346	49.476	0.063	-0.060
-617.332	-200.000	-0.023	0.166
-616.317	559.901	0.128	0.314
-615.303	-145.345	-0.074	-0.007
-614.288	72.968	-0.132	-0.139
-613.273	-24.347	0.227	0.137
-612.259	-76.205	0.164	-0.059
-611.244	228.265	0.086	-0.142
-610.230	-131.749	0.135	0.018
-609.215	81.092	0.079	0.086
-608.201	-200.000	0.050	-0.242
-607.186	25.107	0.249	0.209
-606.171	-84.291	0.276	-0.088
-605.157	768.008	-0.023	0.064
-604.142	-200.000	-0.060	-0.370
-603.128	214.954	-0.196	-0.315
-602.113	402.144	0.063	0.134
-601.098	164.721	0.058	0.082
-600.084	-82.837	-0.371	-0.121
-599.069	-126.526	0.255	-0.038
-598.055	-200.000	0.010	0.147
-597.040	144.436	-0.140	-0.190
-596.025	-35.105	0.163	-0.090
-595.011	-17.408	0.136	0.087
-593.996	357.300	0.174	0.351
-592.982	65.449	-0.220	-0.225
-591.967	-83.714	-0.148	0.048
-590.952	0.252	0.172	-0.124
-589.938	46.829	-0.182	-0.171
-588.923	-92.634	-0.214	-0.061
-587.909	800.000	-0.067	0.258
-586.894	-2.601	-0.160	-0.113
-585.879	274.015	-0.104	-0.185
-584.865	800.000	-0.015	0.065
-583.850	-114.378	-0.049	0.010
-582.836	11.753	-0.037	-0.029
-581.821	-153.800	-0.086	-0.006
-580.806	67.603	-0.040	0.041
-579.792	104.357	-0.045	-0.054
-578.777	25.476	0.066	-0.056
-577.763	-69.111	0.240	0.093
-576.748	800.000	0.057	-0.216
-575.733	64.561	0.240	-0.244
-574.719	-20.170	-0.182	0.113
-573.704	-93.077	0.320	-0.090
-572.690	460.810	-0.105	-0.236
-571.675	800.000	0.028	-0.117
-570.661	-112.028	0.239	0.049
-569.646	770.757	-0.059	0.162
-568.631	-108.185	-0.207	0.045
-567.617	-84.083	0.043	0.014
-566.602	21.376	-0.054	0.044
-565.588	-158.271	0.152	-0.009
-564.573	-73.682	-0.174	0.064
-563.558	-37.747	0.070	0.038
-562.544	-13.649	-0.028	0.018
-561.529	-44.340	-0.273	0.138
-560.515	216.377	-0.052	-0.083
-559.500	-13.889	-0.082	-0.054
-558.485	134.605	-0.069	0.090
-557.471	800.000	0.192	-0.673
-556.456	255.850	-0.084	-0.146
-555.442	-139.789	0.234	-0.025
-554.427	120.987	-0.093	-0.117
-553.412	800.000	-0.092	-0.272
-552.398	-38.580	0.375	-0.200
-551.383	-62.831	-0.522	0.218
-550.369	61.637	-0.119	0.120
-549.354	76.333	-0.191	-0.204
-548.339	-68.616	0.226	-0.088
-547.325	-200.000	0.009	-0.178
-546.310	-152.630	-0.347	-0.025
-545.296	-93.781	-0.102	-0.028
-544.281	800.000	-0.025	0.080
-543.266	-54.309	0.070	0.032
-542.252	-24.255	-0.029	0.017
-541.237	-69.622	-0.290	0.112
-540.223	297.420	-0.042	0.078
-539.208	-106.208	-0.412	0.093
-538.193	43.278	-0.145	-0.133
-537.179	-200.000	-0.012	0.151
-536.164	-54.473	-0.199	-0.091
-535.150	27.438	0.025	0.021
-534.135	15.643	0.247	-0.195
-533.121	-107.350	0.285	0.063
-532.106	-87.062	-0.279	0.086
-531.091	-67.980	0.166	0.065
-530.077	55.688	-0.229	0.224
-529.062	-92.648	0.154	-0.044
-528.048	-200.000	0.006	-0.347
-527.033	558.237	0.083	0.201
-526.018	-136.298	-0.577	-0.068
-525.004	800.000	0.085	0.238
-523.989	-88.146	-0.064	0.019
-522.975	-90.366	0.257	0.075
-521.960	-7.652	0.132	-0.090
-520.945	489.959	-0.248	-0.572
-519.931	623.316	0.092	-0.233
-518.916	606.158	0.132	-0.331
-517.902	-120.744	0.412	0.070
-516.887	644.593	-0.040	0.104
-515.872	-10.079	-0.180	0.120
-514.858	30.229	-0.307	-0.264
-513.843	-15.472	-0.250	-0.161
-512.829	32.455	-0.373	-0.325
-511.814	-200.000	-0.004	-0.233
-510.799	-117.321	0.338	0.062
-509.785	148.065	-0.110	0.149
-508.770	-152.764	0.114	0.008
-507.756	800.000	0.110	-0.331
-506.741	-54.669	-0.225	-0.103
-505.726	800.000	0.058	0.215
-504.712	310.512	-0.096	0.180
-503.697	-179.906	-0.305	-0.007
-502.683	-34.571	0.287	0.158
-501.668	-66.677	-0.339	-0.135
-500.653	-145.549	-0.284	0.026
-499.639	0.894	0.097	0.070
-498.624	168.152	-0.038	0.054
-497.610	-91.747	0.226	-0.065
-496.595	784.649	-0.031	-0.086
-495.581	-88.019	0.163	0.049
-494.566	-24.761	-0.258	0.154
-493.551	-199.475	0.150	-0.001
-492.537	-128.984	-0.096	-0.014
-491.522	670.862	-0.086	-0.223
-490.508	-29.117	-0.368	-0.212
-489.493	-20.314	0.218	-0.135
-488.478	-200.000	0.023	0.219
-487.464	38.399	-0.264	-0.236
-486.449	36.508	-0.219	0.194
-485.435	108.093	0.115	0.138
-484.420	-100.136	0.141	-0.035
-483.405	-79.408	0.111	-0.038
-482.391	-200.000	-0.064	-0.347
-481.376	605.004	0.077	-0.193
-480.362	763.273	0.075	-0.206
-479.347	336.259	0.060	0.118
-478.332	-200.000	0.016	-0.200
-477.318	800.000	-0.062	-0.206
-476.303	-128.660	0.297	0.042
-475.289	-34.754	0.068	0.037
-474.274	-149.665	-0.298	-0.024
-473.259	-33.794	0.121	-0.067
-472.245	63.262	-0.163	0.164
-471.230	-200.000	-0.003	0.060
-470.216	-117.165	-0.227	0.042
-469.201	464.298	-0.051	-0.115
-468.186	37.396	-0.046	-0.041
-467.172	800.000	-0.007	-0.020
-466.157	-29.982	0.251	0.144
-465.143	-166.913	-0.179	0.007
-464.128	191.538	0.047	0.070
-463.113	-2.697	-0.037	-0.026
-462.099	-60.024	0.342	0.147
-461.084	116.288	0.225	0.277
-460.070	93.193	0.117	0.133
-459.055	-90.981	0.122	-0.035
-458.040	-108.305	0.208	0.045
-457.026	-106.739	-0.310	-0.069
-456.011	-31.179	0.071	0.040
-454.997	-67.992	-0.301	-0.118
-453.982	-200.000	0.062	0.312
-452.968	83.778	-0.201	0.221
-451.953	-134.729	0.374	0.046
-450.938	313.456	-0.083	0.158
-449.924	-200.000	0.004	-0.149
-448.909	-88.602	-0.271	-0.081
-447.895	-106.928	0.182	-0.041
-446.880	244.250	0.128	-0.216
-445.865	-52.822	0.181	0.084
-444.851	128.834	0.053	0.067
-443.836	1.502	-0.246	-0.178
-442.822	-75.951	0.060	-0.021
-441.807	173.120	-0.270	0.390
-440.792	-24.968	-0.032	0.019
-439.778	-79.060	-0.230	-0.078
-438.763	-101.480	0.232	0.057
-437.749	723.784	0.160	0.428
-436.734	-14.243	-0.258	0.167
-435.719	-114.294	-0.257	-0.050
-434.705	-129.212	-0.062	-0.009
-433.690	-137.298	-0.233	0.027
-432.676	603.166	-0.124	0.310
-431.661	382.747	0.012	-0.024
-430.646	180.258	0.158	-0.232
-429.632	147.654	-0.156	-0.211
-428.617	527.931	-0.058	0.139
-427.603	800.000	0.021	0.069
-426.588	-134.744	-0.372	0.045
-425.573	-129.996	0.131	-0.018
-424.559	546.039	-0.101	-0.242
-423.544	-111.498	-0.249	-0.051
-422.530	800.000	0.030	0.099
-421.515	-200.000	-0.063	-0.311
-420.500	-132.834	0.142	0.018
-419.486	118.637	-0.105	-0.130
-418.471	47.402	0.044	0.041
-417.457	-200.000	-0.055	0.360
-416.442	-33.504	-0.216	-0.120
-415.428	160.471	0.212	-0.297
-414.413	-91.134	0.307	0.088
-413.398	129.797	0.303	-0.389
-412.384	-140.668	0.054	0.006
-411.369	591.809	-0.070	0.174
-410.355	-5.467	-0.242	0.167
-409.340	-200.000	-0.029	-0.166
-408.325	-32.841	0.039	0.022
-407.311	-112.344	-0.297	-0.060
-406.296	25.568	-0.118	0.099
-405.282	-100.692	-0.236	0.058
-404.267	800.000	-0.191	0.555
-403.252	-21.651	-0.037	-0.023
-402.238	279.740	0.116	-0.209
-401.223	-200.000	-0.007	-0.041
-400.209	-200.000	-0.010	0.168
-399.194	-51.800	-0.007	-0.003
-398.179	-43.635	-0.103	0.052
-397.165	-126.528	0.105	0.016
-396.150	800.000	-0.096	-0.390
-395.136	-115.191	0.067	-0.013
-394.121	-49.999	-0.115	0.055
-393.106	-112.032	-0.292	0.059
-392.092	800.000	-0.010	0.035
-391.077	-121.901	0.045	-0.007
-390.063	-77.715	-0.331	-0.115
-389.048	800.000	-0.053	0.149
-388.033	83.751	0.042	0.046
-387.019	-200.000	-0.021	-0.250
-386.004	-58.518	-0.017	0.007
-384.990	800.000	-0.056	-0.169
-383.975	133.590	-0.149	-0.194
-382.960	-200.000	-0.032	0.142
-381.946	800.000	0.072	0.222
-380.931	-129.057	-0.122	-0.017
-379.917	133.983	-0.188	-0.244
-378.902	-101.937	0.197	0.048
-377.888	-78.054	-0.057	-0.020
-376.873	-54.195	0.219	0.100
-375.858	315.791	0.098	0.185
-374.844	800.000	-0.073	-0.311
-373.829	132.676	-0.137	-0.177
-372.815	800.000	-0.091	-0.256
-371.800	-110.707	0.122	-0.025
-370.785	75.796	0.109	0.115
-369.771	680.379	0.047	-0.123
-368.756	395.141	0.089	0.187
-367.742	-200.000	0.005	0.069
-366.727	78.476	0.155	-0.166
-365.712	-92.936	-0.191	0.053
-364.698	800.000	0.079	0.307
-363.683	-65.854	-0.091	-0.036
-362.669	86.816	-0.164	0.182
-361.654	-188.207	-0.085	-0.001
-360.639	346.635	0.070	-0.139
-359.625	-181.921	0.262	0.005
-358.610	235.821	-0.161	-0.266
-357.596	-200.000	0.032	-0.182
-356.581	97.706	-0.132	0.152
-355.566	75.962	-0.014	0.015
-354.552	800.000	0.068	0.205
-353.537	-200.000	0.013	0.309
-352.523	-90.275	-0.146	0.042
-351.508	298.411	0.169	0.312
-350.493	-95.935	-0.168	0.045
-349.479	-82.449	-0.268	-0.087
-348.464	-200.000	-0.030	0.226
-347.450	800.000	-0.057	0.196
-346.435	16.300	-0.300	-0.237
-345.420	125.239	0.179	0.226
-344.406	313.026	0.126	0.238
-343.391	46.956	-0.055	0.051
-342.377	-94.942	0.226	-0.061
-341.362	325.059	-0.025	0.048
-340.348	-111.016	0.204	0.042
-339.333	-200.000	0.007	-0.112
-338.318	307.830	0.022	-0.041
-337.304	-137.965	0.121	-0.014
-336.289	-20.649	-0.182	0.112
-335.275	693.345	0.037	-0.097
-334.260	-140.724	-0.225	-0.023
-333.245	-139.592	0.317	-0.034
-332.231	176.970	-0.223	0.325
-331.216	-20.151	-0.162	0.100
-330.202	334.552	-0.161	-0.312
-329.187	800.000	-0.024	-0.091
-328.172	-52.332	0.134	-0.062
-327.158	-200.000	0.081	-0.378
-326.143	635.986	0.020	0.050
-325.129	800.000	-0.026	0.078
-324.114	-200.000	0.027	0.300
-323.099	-175.513	0.304	0.008
-322.085	-200.000	-0.041	0.325
-321.070	449.649	0.064	0.142
-320.056	-200.000	-0.013	0.177
-319.041	37.142	0.286	0.254
-318.026	70.773	0.073	0.076
-317.012	-126.994	0.171	0.025
-315.997	87.146	-0.066	-0.073
-314.983	-90.229	-0.071	-0.021
-313.968	-43.474	0.116	-0.059
-312.953	79.378	0.116	-0.125
-311.939	-23.126	0.087	0.052
-310.924	42.879	0.198	-0.180
-309.910	93.614	0.089	0.101
-308.895	-6.876	0.172	0.117
-307.880	-51.328	0.134	-0.062
-306.866	-29.582	0.309	0.176
-305.851	-58.314	0.232	0.101
-304.837	124.233	-0.145	0.182
-303.822	176.387	0.176	0.256
-302.807	59.554	0.323	-0.318
-301.793	800.000	-0.051	-0.187
-300.778	-148.741	0.131	0.011
-299.764	-45.948	-0.273	0.134
-298.749	199.006	0.104	-0.159
-297.735	800.000	-0.058	-0.207
-296.720	-198.614	-0.388	0.002
-295.705	130.761	0.122	0.157
-294.691	54.467	0.294	0.283
-293.676	476.534	0.055	-0.125
-292.662	136.617	0.136	0.177
-291.647	572.627	-0.083	0.201
-290.632	72.016	0.223	-0.232
-289.618	-123.638	0.091	0.014
-288.603	86.038	0.081	-0.089
-287.589	66.796	-0.272	-0.276
-286.574	-111.611	0.230	0.047
-285.559	424.034	-0.034	-0.073
-284.545	-70.122	-0.091	-0.035
-283.530	231.165	-0.055	-0.090
-282.516	0.293	-0.151	0.108
-281.501	186.742	0.087	0.129
-280.486	-200.000	0.063	-0.329
-279.472	-118.954	-0.230	0.040
-278.457	543.262	-0.018	-0.042
-277.443	26.092	0.087	0.072
-276.428	344.946	-0.118	0.231
-275.413	-200.000	0.006	0.064
-274.399	-130.529	0.193	0.026
-273.384	-162.757	0.161	0.008
-272.370	800.000	0.054	-0.210
-271.355	800.000	0.139	0.437
-270.340	-44.642	0.181	0.090
-269.326	179.645	0.185	-0.270
-268.311	-82.576	-0.056	0.018
-267.297	416.477	-0.129	-0.276
-266.282	83.509	-0.200	0.218
-265.267	-75.043	0.491	-0.175
-264.253	-200.000	-0.061	-0.328
-263.238	325.170	0.153	-0.291
-262.224	-106.792	0.435	0.096
-261.209	-55.068	0.253	0.114
-260.195	-200.000	-0.004	0.262
-259.180	-35.697	-0.078	0.042
-258.165	-79.581	0.334	-0.113
-257.151	295.364	0.212	0.387
-256.136	-98.056	0.366	-0.094
-255.122	555.640	-0.029	0.071
-254.107	-41.280	0.207	0.106
-253.092	-200.000	-0.033	-0.177
-252.078	-42.719	0.107	0.054
-251.063	-85.701	-0.063	-0.019
-250.049	-200.000	0.022	0.164
-249.034	140.466	0.122	0.161
-248.019	-49.375	-0.308	-0.147
-247.005	-112.205	-0.180	-0.036
-245.990	112.888	-0.134	0.161
-244.976	266.931	0.172	0.300
-243.961	-75.621	-0.177	0.063
-242.946	800.000	0.108	-0.426
-241.932	800.000	0.029	-0.122
-240.917	493.796	-0.054	-0.124
-239.903	-69.670	0.222	-0.085
-238.888	331.708	0.013	-0.025
-237.873	-159.743	0.169	0.009
-236.859	378.383	0.200	-0.408
-235.844	725.041	-0.077	0.204
-234.830	-16.377	-0.317	-0.200
-233.815	64.917	0.160	0.161
-232.800	-105.102	0.129	0.030
-231.786	-129.999	0.360	0.049
-230.771	658.545	0.031	-0.080
-229.757	83.121	-0.110	0.119
-228.742	318.301	0.141	0.265
-227.727	-200.000	-0.058	0.312
-226.713	-167.091	0.147	-0.006
-225.698	615.222	0.080	0.200
-224.684	-200.000	-0.025	0.167
-223.669	-47.188	0.194	0.094
-222.655	-130.360	-0.191	0.026
-221.640	31.870	-0.317	0.272
-220.625	-27.942	0.189	-0.109
-219.611	-4.318	0.211	-0.146
-218.596	-1.717	0.024	0.017
-217.582	21.365	-0.178	-0.144
-216.567	-155.942	0.253	0.016
-215.552	800.000	0.069	0.243
-214.538	41.474	0.180	0.162
-213.523	-200.000	-0.036	-0.179
-212.509	319.663	0.131	-0.248
-211.494	424.103	-0.104	-0.222
-210.479	-76.860	-0.400	0.139
-209.465	772.918	0.005	0.012
-208.450	513.808	-0.038	-0.088
-207.436	718.855	-0.081	0.214
-206.421	142.290	-0.119	-0.157
-205.406	-200.000	-0.012	-0.155
-204.392	-135.223	-0.260	-0.031
-203.377	-174.786	0.202	-0.006
-202.363	22.992	0.162	0.133
-201.348	366.579	0.103	-0.206
-200.333	-186.441	-0.227	0.003
-199.319	28.426	-0.229	0.193
-198.304	-200.000	-0.017	0.234
-197.290	104.680	0.054	0.063
-196.275	-183.069	0.158	0.003
-195.260	800.000	0.094	0.287
-194.246	-102.786	0.062	-0.015
-193.231	-200.000	-0.001	0.125
-192.217	-84.907	0.210	0.066
-191.202	-145.538	0.310	-0.028
-190.187	800.000	-0.107	0.405
-189.173	398.533	0.148	-0.309
-188.158	1.284	0.112	-0.080
-187.144	-60.421	-0.136	-0.057
-186.129	800.000	-0.029	0.126
-185.114	-144.835	-0.123	0.011
-184.100	-179.961	-0.237	0.005
-183.085	-119.206	-0.479	-0.083
-182.071	235.474	0.089	0.147
-181.056	537.185	-0.023	0.055
-180.042	-49.336	-0.164	0.078
-179.027	-200.000	-0.003	-0.052
-178.012	-27.236	0.105	0.061
-176.998	163.428	-0.125	-0.175
-175.983	91.774	0.077	0.086
-174.969	-24.268	0.067	0.040
-173.954	-71.813	-0.194	0.072
-172.939	48.684	-0.405	-0.378
-171.925	-46.808	-0.073	-0.035
-170.910	-200.000	0.001	0.155
-169.896	-153.011	-0.057	0.004
-168.881	37.564	-0.157	0.138
-167.866	-97.552	0.151	0.039
-166.852	-200.000	-0.029	0.251
-165.837	277.250	-0.097	0.172
-164.823	-200.000	-0.008	0.048
-163.808	-17.643	-0.124	0.077
-162.793	279.656	0.141	-0.250
-161.779	183.021	0.249	-0.366
-160.764	-135.058	0.164	0.020
-159.750	-74.938	0.223	-0.079
-158.735	-58.408	0.245	-0.106
-157.720	-163.403	0.241	0.011
-156.706	-25.188	-0.239	-0.141
-155.691	71.293	-0.059	0.061
-154.677	-200.000	0.100	0.441
-153.662	-139.775	0.180	0.019
-152.647	206.075	-0.182	-0.281
-151.633	-87.138	0.075	-0.023
-150.618	-96.976	0.222	0.058
-149.604	-200.000	-0.004	-0.066
-148.589	-200.000	-0.072	0.391
-147.574	-120.777	-0.306	-0.051
-146.560	-105.957	0.124	0.028
-145.545	479.000	0.120	-0.270
-144.531	800.000	-0.077	0.279
-143.516	-119.689	0.363	0.062
-142.502	24.405	0.065	0.053
-141.487	-132.613	-0.289	-0.037
-140.472	-43.908	-0.123	0.061
-139.458	-176.082	-0.454	-0.012
-138.443	-62.710	0.308	0.127
-137.429	-20.876	0.305	-0.185
-136.414	65.266	-0.114	-0.115
-135.399	-144.825	-0.111	-0.010
-134.385	-200.000	0.013	-0.326
-133.370	-86.870	-0.232	0.070
-132.356	-196.005	0.121	0.001
-131.341	800.000	-0.068	0.200
-130.326	-133.867	-0.075	0.009
-129.312	132.935	0.171	0.220
-128.297	-50.215	-0.175	-0.082
-127.283	-108.486	0.249	-0.053
-126.268	-73.170	-0.286	-0.104
-125.253	68.187	0.188	-0.191
-124.239	-23.205	-0.065	0.039
-123.224	213.699	0.070	-0.109
-122.210	-82.942	0.180	-0.057
-121.195	-101.512	-0.086	-0.021
-120.180	550.355	-0.062	-0.148
-119.166	-143.599	-0.203	-0.019
-118.151	-200.000	-0.027	-0.301
-117.137	-191.194	-0.071	0.001
-116.122	-200.000	0.025	0.469
-115.107	-200.000	-0.019	0.111
-114.093	-148.520	0.047	0.004
-113.078	-200.000	-0.025	0.253
-112.064	669.199	0.101	0.259
-111.049	140.748	0.027	-0.035
-110.034	34.170	0.118	-0.102
-109.020	-28.941	0.193	0.110
-108.005	9.796	0.161	0.121
-106.991	25.954	0.229	-0.189
-105.976	-25.697	-0.293	-0.171
-104.962	34.230	0.108	0.094
-103.947	-78.743	-0.367	0.124
-102.932	166.867	-0.131	-0.184
-101.918	3.158	0.064	0.046
-100.903	196.856	-0.119	-0.180
-99.889	285.434	0.202	-0.360
-98.874	-4.306	0.211	-0.145
-97.859	61.552	0.187	0.184
-96.845	523.447	-0.125	-0.290
-95.830	-35.071	0.211	0.114
-94.816	800.000	0.055	0.225
-93.801	210.120	0.128	0.199
-92.786	129.176	-0.099	0.126
-91.772	800.000	-0.019	-0.076
-90.757	800.000	-0.059	0.179
-89.743	645.705	0.122	-0.309
-88.728	-65.736	-0.043	-0.017
-87.713	-1.755	0.122	0.085
-86.699	109.263	0.196	0.232
-85.684	-133.900	-0.301	0.037
-84.670	-200.000	0.001	-0.278
-83.655	-150.325	-0.092	-0.007
-82.640	-200.000	-0.028	0.260
-81.626	64.622	0.255	-0.255
-80.611	126.506	0.018	0.023
-79.597	-200.000	0.047	0.660
-78.582	23.521	-0.224	0.182
-77.567	-200.000	-0.010	-0.131
-76.553	147.960	0.239	0.319
-75.538	-34.443	0.157	-0.085
-74.524	-184.786	0.058	-0.001
-73.509	92.822	0.123	0.137
-72.494	-47.998	0.130	0.062
-71.480	8.212	-0.203	-0.151
-70.465	130.814	-0.096	-0.122
-69.451	299.533	0.183	0.333
-68.436	-73.487	-0.352	0.127
-67.422	153.643	0.146	-0.198
-66.407	47.691	0.138	0.127
-65.392	28.773	0.092	-0.077
-64.378	-164.242	-0.557	0.025
-63.363	75.574	0.244	0.255
-62.349	800.000	-0.083	0.232
-61.334	194.530	-0.590	-0.886
-60.319	-82.629	0.612	0.196
-59.305	-200.000	-0.138	-0.941
-58.290	36.335	0.996	0.869
-57.276	800.000	0.391	1.468
-56.261	-200.000	97.661	581.122
-55.246	643.752	1394.607	3520.488
-54.232	186.074	2607.411	3837.941
-53.217	123.655	2183.050	2710.907
-52.203	46.837	1634.019	1502.832
-51.188	38.449	1368.534	1207.152
-50.173	35.070	1325.923	1149.278
-49.159	56.888	1374.872	1325.484
-48.144	61.442	1393.119	1370.788
-47.130	38.849	1346.601	1190.049
-46.115	35.079	1328.941	1151.765
-45.100	34.879	1324.243	1146.450
-44.086	34.820	1321.953	1144.070
-43.071	34.799	1319.180	1141.501
-42.057	34.730	1317.382	1139.488
-41.042	34.819	1315.797	1138.599
-40.027	34.871	1314.389	1137.648
-39.013	34.886	1312.043	1135.660
-37.998	34.908	1310.076	1134.046
-36.984	34.901	1308.780	1132.838
-35.969	34.914	1307.134	1131.439
-34.954	35.039	1304.912	1130.215
-33.940	34.963	1303.984	1128.916
-32.925	35.007	1302.385	1127.744
-31.911	34.961	1301.276	1126.469
-30.896	35.031	1299.369	1125.185
-29.881	35.098	1297.980	1124.334
-28.867	34.949	1297.060	1122.618
-27.852	35.047	1295.408	1121.716
-26.838	35.141	1293.969	1120.974
-25.823	35.095	1292.557	1119.437
-24.809	35.140	1291.000	1118.307
-23.794	35.037	1289.686	1116.522
-22.779	35.066	1288.282	1115.434
-21.765	34.953	1287.325	1113.904
-20.750	34.944	1286.148	1112.786
-19.736	34.885	1284.971	1111.385
-18.721	34.922	1283.585	1110.356
-17.706	34.844	1282.562	1108.972
-16.692	34.835	1280.923	1107.462
-15.677	34.804	1280.142	1106.564
-14.663	34.816	1278.614	1105.264
-13.648	34.733	1278.320	1104.488
-12.633	34.855	1276.995	1104.001
-11.619	34.873	1276.306	1103.466
-10.604	34.842	1275.324	1102.398
-9.590	34.793	1274.150	1101.059
-8.575	34.894	1273.182	1100.757
-7.560	34.820	1272.349	1099.567
-6.546	34.837	1271.253	1098.673
-5.531	34.737	1270.801	1097.668
-4.517	34.924	1269.459	1097.537
-3.502	34.904	1268.810	1096.818
-2.487	34.838	1268.324	1095.978
-1.473	34.806	1264.268	1092.244
-0.458	33.229	1248.138	1069.357
0.556	30.870	1228.305	1024.145
1.571	26.195	1231.352	1000.757
2.586	24.585	1245.289	1002.958
3.600	23.273	1232.963	985.647
4.615	17.597	1160.968	898.175
5.629	9.184	1085.004	797.711
6.644	5.175	1064.288	762.855
7.659	4.693	1061.610	758.519
8.673	4.579	1060.578	757.157
9.688	4.574	1059.158	756.053
10.702	5.175	1058.436	758.390
11.717	10.604	1065.968	790.221
12.731	18.781	1077.095	838.478
13.746	22.077	1080.688	857.319
14.761	21.763	1080.032	855.191
15.775	20.939	1077.663	849.225
16.790	19.959	1075.804	842.916
17.804	19.161	1074.576	837.999
18.819	18.774	1073.481	835.187
19.834	18.865	1072.584	834.859
20.848	18.537	1072.198	832.890
21.863	18.513	1070.739	831.568
22.877	18.252	1070.389	829.958
23.892	18.305	1069.252	829.260
24.907	18.285	1068.826	828.759
25.921	18.305	1067.519	827.769
26.936	18.423	1066.130	827.187
27.950	18.297	1065.157	825.752
28.965	18.452	1063.675	825.279
29.980	18.548	1061.779	824.193
30.994	18.637	1060.949	823.903
32.009	18.603	1060.528	823.339
33.023	18.571	1059.171	822.064
34.038	18.436	1058.168	820.562
35.053	18.300	1057.240	819.119
36.067	18.434	1055.984	818.715
37.082	18.390	1055.610	818.144
38.096	18.495	1055.097	818.174
39.111	18.573	1054.095	817.696
40.126	18.301	1053.002	815.481
41.140	18.012	1051.058	812.531
42.155	17.845	1050.435	811.181
43.169	17.915	1049.181	810.473
44.184	18.026	1047.914	809.949
45.199	17.975	1046.987	808.918
46.213	18.127	1046.259	809.008
47.228	18.345	1045.204	809.149
48.242	18.375	1044.034	808.311
49.257	18.260	1043.694	807.437
50.271	18.365	1042.632	807.038
51.286	18.379	1041.441	806.109
52.301	18.381	1040.613	805.408
53.315	18.301	1039.320	803.957
54.330	18.130	1038.605	802.533
55.344	18.272	1037.593	802.346
56.359	18.258	1036.784	801.585
57.374	18.251	1035.531	800.512
58.388	18.044	1034.832	798.930
59.403	17.898	1034.258	797.735
60.417	17.893	1033.269	796.878
61.432	17.794	1032.827	796.006
62.447	17.878	1031.529	795.325
63.461	17.701	1030.997	794.021
64.476	17.713	1030.336	793.498
65.490	17.803	1028.833	792.689
66.505	17.873	1028.055	792.343
67.520	17.865	1027.482	791.797
68.534	17.943	1026.669	791.462
69.549	17.872	1026.085	790.613
70.563	17.875	1025.171	789.852
71.578	17.579	1024.940	788.233
72.593	17.670	1023.385	787.387
73.607	17.602	1023.024	786.725
74.622	17.636	1022.701	786.567
75.636	17.652	1021.781	785.864
76.651	17.799	1021.014	785.881
77.666	17.643	1020.870	784.981
78.680	17.607	1020.040	784.108
79.695	17.825	1019.153	784.358
80.709	17.915	1018.617	784.292
81.724	17.974	1018.172	784.148
82.739	18.065	1017.355	783.869
83.753	18.320	1016.534	784.334
84.768	18.551	1016.090	784.983
85.782	18.602	1015.594	784.762
86.797	18.517	1014.264	783.273
87.812	18.423	1013.080	781.862
88.826	18.364	1012.360	780.967
89.841	18.537	1011.408	780.955
90.855	18.632	1010.748	780.806
91.870	18.673	1009.785	780.180
92.884	18.565	1009.019	779.028
93.899	18.594	1007.969	778.281
94.914	18.702	1007.857	778.617
95.928	18.536	1006.721	776.918
96.943	18.545	1005.091	775.632
97.957	18.417	1004.728	774.705
98.972	18.479	1003.733	774.149
99.987	18.542	1002.911	773.729
101.001	18.377	1002.032	772.239
102.016	18.501	1001.010	771.941
103.030	18.577	1000.331	771.694
104.045	18.565	999.605	771.010
105.060	18.419	998.420	769.372
106.074	18.166	997.201	767.231
107.089	17.949	996.602	765.727
108.103	17.916	995.561	764.714
109.118	17.952	994.237	763.787
110.133	17.798	993.588	762.536
111.147	17.966	992.662	762.507
112.162	17.883	992.476	761.928
113.176	18.063	991.545	761.947
114.191	18.127	990.835	761.620
115.206	18.107	989.921	760.760
116.220	17.919	989.372	759.432
117.235	18.029	988.294	759.029
118.249	17.946	987.351	757.867
119.264	17.904	986.789	757.183
120.279	17.926	985.814	756.465
121.293	17.871	984.648	755.261
122.308	17.811	983.626	754.147
123.322	17.709	982.949	753.109
124.337	17.737	981.831	752.311
125.352	17.692	980.270	750.848
126.366	17.666	979.795	750.302
127.381	17.848	978.608	750.130
128.395	17.858	978.015	749.650
129.410	17.875	976.849	748.765
130.424	17.879	976.679	748.589
131.439	18.130	975.675	748.849
132.454	18.074	974.882	747.932
133.468	17.976	974.160	746.882
134.483	18.084	973.369	746.679
135.497	18.201	972.270	746.284
136.512	18.077	971.582	745.148
137.527	18.066	970.805	744.440
138.541	18.261	969.943	744.561
139.556	18.268	969.643	744.294
140.570	18.295	968.851	743.738
141.585	18.532	968.138	744.155
142.600	18.623	967.232	743.786
143.614	18.660	966.539	743.347
144.629	18.788	965.751	743.228
145.643	18.529	965.038	741.492
146.658	18.382	963.553	739.652
147.673	18.296	962.555	738.453
148.687	18.052	962.168	737.035
149.702	18.047	960.948	736.015
150.716	18.066	960.432	735.636
151.731	18.220	959.644	735.632
152.746	18.131	959.063	734.738
153.760	18.328	958.187	734.845
154.775	18.386	957.696	734.655
155.789	18.395	957.216	734.260
156.804	18.358	956.241	733.287
157.819	18.502	955.890	733.572
158.833	18.647	955.339	733.704
159.848	18.661	954.815	733.293
160.862	18.459	953.320	731.220
161.877	18.361	951.945	729.683
162.892	18.254	951.025	728.456
163.906	18.037	950.169	726.816
164.921	18.143	949.225	726.478
165.935	18.392	948.363	726.809
166.950	18.379	947.290	725.870
167.964	18.372	946.547	725.208
168.979	18.146	946.002	723.770
169.994	18.304	944.620	723.316
171.008	18.447	943.827	723.248
172.023	18.541	943.796	723.558
173.037	18.654	942.855	723.248
174.052	18.569	941.879	722.075
175.067	18.339	941.160	720.492
176.081	18.240	941.031	719.916
177.096	18.157	940.370	718.995
178.110	18.204	939.617	718.554
179.125	18.303	939.028	718.456
180.140	18.322	938.718	718.234
181.154	18.346	938.219	717.890
182.169	18.584	937.556	718.318
183.183	18.681	937.055	718.275
184.198	18.640	936.320	717.476
185.213	18.618	935.953	717.040
186.227	18.656	934.979	716.391
187.242	18.851	934.551	716.813
188.256	18.953	934.139	716.859
189.271	18.834	933.339	715.685
190.286	18.524	932.455	713.653
191.300	18.124	931.142	710.922
192.315	18.098	930.470	710.240
193.329	18.245	929.749	710.234
194.344	18.384	929.569	710.612
195.359	18.458	928.898	710.342
196.373	18.496	928.874	710.419
197.388	18.611	928.365	710.443
198.402	18.881	927.723	711.005
199.417	19.024	927.248	711.169
200.432	19.017	926.991	710.882
201.446	19.234	926.158	711.076
202.461	19.278	925.815	710.930
203.475	19.079	925.102	709.500
204.490	18.916	924.224	708.090
205.504	18.910	922.863	706.963
206.519	18.709	922.657	705.914
207.534	18.817	921.555	705.453
208.548	18.746	921.217	704.839
209.563	18.876	920.413	704.698
210.577	18.837	919.803	704.008
211.592	19.219	919.264	705.094
212.607	19.098	918.477	703.935
213.621	18.991	917.594	702.759
214.636	18.855	917.450	702.030
215.650	18.974	916.645	701.839
216.665	19.227	915.600	702.008
217.680	19.256	915.331	701.857
218.694	19.324	914.478	701.416
219.709	19.253	914.088	700.769
220.723	19.183	913.216	699.751
221.738	19.048	912.746	698.784
222.753	19.200	911.834	698.639
223.767	19.151	911.310	697.976
224.782	19.482	910.994	699.014
225.796	19.483	910.393	698.494
226.811	19.492	909.118	697.490
227.826	19.149	908.766	695.773
228.840	18.988	908.112	694.563
229.855	19.257	906.965	694.709
230.869	19.156	906.321	693.746
231.884	19.087	906.033	693.187
232.899	18.987	905.061	691.979
233.913	18.937	904.472	691.264
234.928	18.855	903.619	690.224
235.942	18.894	903.313	690.085
236.957	18.851	902.896	689.535
237.972	18.821	902.301	688.899
238.986	18.834	901.505	688.281
240.001	19.045	900.643	688.407
241.015	19.194	899.806	688.301
242.030	19.158	899.456	687.828
243.045	19.108	899.023	687.238
244.059	19.246	898.895	687.629
245.074	19.298	897.790	686.929
246.088	19.320	897.740	686.920
247.103	19.362	896.711	686.236
248.117	19.461	896.568	686.464
249.132	19.798	895.806	687.157
250.147	19.981	895.134	687.307
251.161	20.072	894.639	687.228
252.176	19.954	894.136	686.313
253.190	20.074	893.623	686.333
254.205	20.104	893.001	685.914
255.220	20.026	892.331	685.030
256.234	20.040	891.675	684.522
257.249	20.101	890.989	684.173
258.263	20.032	890.237	683.264
259.278	19.937	889.873	682.548
260.293	20.079	888.944	682.335
261.307	20.173	888.643	682.417
262.322	20.132	888.164	681.826
263.336	20.176	887.199	681.199
264.351	20.125	886.396	680.321
265.366	20.148	886.151	680.161
266.380	19.999	885.612	679.102
267.395	19.952	884.772	678.216
268.409	20.005	883.554	677.430
269.424	20.074	882.896	677.133
270.439	20.040	882.147	676.366
271.453	19.877	881.684	675.315
272.468	19.873	880.918	674.653
273.482	20.001	880.288	674.612
274.497	19.865	879.692	673.564
275.512	19.975	879.054	673.446
276.526	19.836	878.920	672.744
277.541	20.034	878.445	673.088
278.555	20.237	878.124	673.573
279.570	20.207	877.467	672.890
280.585	20.192	876.405	671.961
281.599	20.083	875.772	670.993
282.614	20.007	875.126	670.144
283.628	19.914	874.545	669.281
284.643	20.099	873.514	669.146
285.657	20.151	872.766	668.716
286.672	20.236	872.243	668.584
287.687	20.075	871.885	667.629
288.701	20.241	871.215	667.694
289.716	20.167	870.715	666.967
290.730	20.285	869.911	666.749
291.745	20.144	869.834	666.088
292.760	20.092	869.319	665.435
293.774	20.464	868.392	666.091
294.789	20.405	867.723	665.296
295.803	20.138	867.407	663.972
296.818	20.117	866.470	663.116
297.833	20.187	865.624	662.676
298.847	20.204	865.234	662.383
299.862	20.277	864.618	662.132
300.876	20.357	863.952	661.867
301.891	20.512	863.714	662.217
302.906	20.402	863.265	661.395
303.920	20.731	862.589	662.071
304.935	20.805	861.901	661.766
305.949	20.675	861.090	660.592
306.964	20.530	860.511	659.540
307.979	20.599	860.231	659.526
308.993	20.461	859.685	658.528
310.008	20.674	859.135	658.854
311.022	20.596	858.839	658.275
312.037	20.403	857.886	656.756
313.052	20.249	857.042	655.469
314.066	20.245	856.561	655.028
315.081	20.248	855.856	654.441
316.095	20.353	854.968	654.100
317.110	20.324	854.802	653.806
318.125	20.201	854.118	652.762
319.139	20.315	853.552	652.703
320.154	20.373	853.034	652.465
321.168	20.318	852.649	651.908
322.183	20.386	852.131	651.709
323.197	20.392	851.541	651.223
324.212	20.233	851.721	650.706
325.227	20.472	850.252	650.421
326.241	20.392	849.853	649.759
327.256	20.191	849.425	648.623
328.270	20.374	848.645	648.653
329.285	20.265	847.774	647.523
330.300	20.235	847.627	647.241
331.314	20.362	847.033	647.205
332.329	20.638	846.425	647.709
333.343	20.667	846.159	647.557
334.358	20.569	846.081	647.075
335.373	20.667	845.617	647.029
336.387	20.688	845.371	646.862
337.402	20.651	844.955	646.348
338.416	20.844	844.676	646.792
339.431	20.961	844.651	647.150
340.446	21.075	843.842	646.897
341.460	20.981	843.619	646.319
342.475	21.227	843.149	646.816
343.489	21.136	842.833	646.180
344.504	21.243	842.363	646.158
345.519	21.325	841.815	645.984
346.533	21.179	841.023	644.777
347.548	21.145	840.455	644.160
348.562	20.984	839.635	642.880
349.577	20.924	839.103	642.195
350.592	20.814	838.295	641.117
351.606	20.698	837.720	640.193
352.621	20.752	836.967	639.758
353.635	20.861	836.717	639.912
354.650	20.860	835.938	639.255
355.665	20.921	835.468	639.063
356.679	21.098	834.745	639.103
357.694	21.127	834.157	638.700
358.708	21.138	833.089	637.868
359.723	21.079	832.854	637.414
360.738	20.987	832.689	636.898
361.752	21.014	832.042	636.442
362.767	21.282	831.413	636.885
363.781	21.323	830.958	636.629
364.796	21.401	830.588	636.572
365.810	21.421	830.157	636.257
366.825	21.579	830.041	636.688
367.840	21.614	829.169	636.088
368.854	21.389	828.756	634.898
369.869	21.324	828.221	634.198
370.883	21.339	827.791	633.866
371.898	21.537	827.490	634.297
372.913	21.704	826.921	634.409
373.927	21.491	826.334	633.132
374.942	21.449	826.092	632.740
375.956	21.665	825.721	633.181
376.971	21.628	825.372	632.722
377.986	21.704	824.879	632.563
379.000	21.719	824.657	632.393
380.015	21.584	824.108	631.426
381.029	21.646	823.148	630.861
382.044	21.742	822.712	630.815
383.059	21.771	822.019	630.332
384.073	21.581	821.338	629.073
385.088	21.471	820.681	628.119
386.102	21.556	819.933	627.795
387.117	21.508	819.104	626.933
388.132	21.438	818.751	626.355
389.146	21.427	818.647	626.183
390.161	21.584	818.188	626.338
391.175	21.615	817.671	625.995
392.190	21.664	816.919	625.540
393.205	21.425	816.326	624.179
394.219	21.431	816.430	624.223
395.234	21.383	815.946	623.626
396.248	21.299	815.229	622.725
397.263	21.350	814.628	622.393
398.278	21.310	814.161	621.836
399.292	21.404	813.610	621.696
400.307	21.457	813.258	621.561
401.321	21.496	812.838	621.323
402.336	21.549	812.580	621.260
403.350	21.623	812.103	621.100
404.365	21.720	811.884	621.222
405.380	21.836	811.069	620.957
406.394	21.791	810.490	620.299
407.409	22.019	810.418	620.994
408.423	22.116	810.401	621.270
409.438	22.102	809.974	620.836
410.453	22.037	809.862	620.466
411.467	22.100	809.112	620.059
412.482	22.318	808.933	620.639
413.496	22.227	808.359	619.819
414.511	22.184	807.794	619.180
415.526	22.110	807.609	618.726
416.540	22.240	806.847	618.543
417.555	22.232	806.252	618.005
418.569	22.200	806.047	617.681
419.584	22.212	805.756	617.446
420.599	22.102	805.479	616.791
421.613	159.802	1370.026	1790.273
422.628	138.892	1452.298	1790.389
