DTS Sentinel unit serial number:	SN413079Multiplexer serial number:	ORYXHardware model number:	OX4-SRSoftware version number:	ORYX F/W v4.00 Oryx Data Collector v3.7.2.0data status	okinstallation	princeton_trtdifferential loss correction	single-endedforward channel	channel 1reverse channel	N/Adate	2019/09/12time	22:30:35forward acquisition time	60.00reverse acquisition time	0.00gamma	496.2192k internal	0.2327k external	0.2327temperature offset calibration	1.0152default loss term (dB/km)	0.3790temperature slope calibration	1.0000multiplexer offset coefficient	1.0000multiplexer slope coefficient	1.0000fibre end	0.00T internal ref (°C)	29.69T ext. ref 1 (°C)	3.72T ext. ref 2 (°C)	24.24length (m)	temperature (°C)	Stokes	anti-Stokes-747.200	800.000	-0.033	0.095
-746.185	-36.346	-0.232	0.126
-745.171	-200.000	-0.042	-0.238
-744.156	219.513	-0.158	0.255
-743.142	-77.185	0.070	-0.024
-742.127	10.458	-0.095	-0.073
-741.112	655.125	0.177	-0.458
-740.098	717.571	-0.121	0.323
-739.083	-200.000	-0.015	0.246
-738.069	-22.334	0.129	0.079
-737.054	24.179	-0.222	0.185
-736.039	232.928	-0.177	-0.293
-735.025	-153.703	0.108	0.007
-734.010	282.860	-0.161	-0.291
-732.996	-51.499	-0.171	-0.081
-731.981	509.514	0.059	-0.138
-730.966	-75.610	-0.271	-0.097
-729.952	-101.509	-0.353	-0.086
-728.937	33.798	-0.121	-0.106
-727.923	-200.000	0.026	0.320
-726.908	87.986	-0.129	0.145
-725.894	-200.000	-0.008	0.107
-724.879	-21.842	-0.128	-0.078
-723.864	300.759	-0.123	0.228
-722.850	800.000	-0.020	0.085
-721.835	-22.899	-0.374	0.227
-720.821	81.171	-0.162	-0.176
-719.806	113.902	0.156	0.191
-718.791	198.564	-0.160	0.247
-717.777	-49.542	-0.157	-0.075
-716.762	-93.890	0.289	-0.080
-715.748	61.868	-0.123	-0.124
-714.733	-151.688	0.281	0.021
-713.718	800.000	0.021	0.077
-712.704	-17.286	-0.040	0.025
-711.689	-41.099	-0.241	0.125
-710.675	-19.683	-0.156	-0.097
-709.660	-200.000	0.008	-0.078
-708.645	-161.227	-0.148	0.008
-707.631	-145.387	-0.096	0.009
-706.616	1.523	-0.130	0.094
-705.602	-200.000	-0.008	-0.282
-704.587	-200.000	0.013	-0.070
-703.572	800.000	-0.019	-0.061
-702.558	679.532	0.065	0.172
-701.543	3.399	0.077	0.056
-700.529	800.000	0.057	-0.181
-699.514	-95.129	0.117	0.032
-698.499	-13.133	0.078	-0.051
-697.485	162.356	-0.061	-0.086
-696.470	-140.176	-0.090	0.010
-695.456	146.025	-0.096	-0.129
-694.441	-166.541	0.292	-0.012
-693.426	-56.103	-0.229	0.103
-692.412	-19.566	-0.079	0.049
-691.397	-66.229	0.449	-0.180
-690.383	645.037	-0.145	-0.374
-689.368	-200.000	0.014	-0.161
-688.354	100.782	0.132	-0.154
-687.339	-13.956	0.250	0.162
-686.324	-200.000	-0.001	-0.113
-685.310	94.397	0.237	-0.271
-684.295	-168.472	-0.067	0.003
-683.281	800.000	0.090	0.296
-682.266	800.000	0.038	-0.106
-681.251	314.805	-0.065	-0.123
-680.237	-190.319	0.301	0.003
-679.222	118.118	-0.189	-0.234
-678.208	-200.000	0.012	-0.242
-677.193	9.273	0.356	0.271
-676.178	-158.534	0.175	0.010
-675.164	-93.782	-0.121	0.034
-674.149	800.000	-0.145	0.450
-673.135	800.000	-0.048	-0.191
-672.120	35.825	-0.145	-0.128
-671.105	26.397	-0.178	0.149
-670.091	47.005	-0.383	0.358
-669.076	-200.000	-0.024	-0.265
-668.062	-58.977	-0.076	0.033
-667.047	-44.318	0.207	-0.104
-666.032	800.000	-0.031	-0.131
-665.018	63.696	-0.342	-0.345
-664.003	-64.278	0.091	0.037
-662.989	75.706	-0.173	0.184
-661.974	-64.471	0.069	-0.028
-660.959	143.646	-0.017	-0.022
-659.945	352.771	0.089	-0.177
-658.930	800.000	0.096	0.327
-657.916	218.727	-0.135	-0.217
-656.901	-40.656	0.329	0.171
-655.886	2.996	0.328	-0.240
-654.872	17.801	-0.263	-0.211
-653.857	-152.420	0.073	-0.005
-652.843	800.000	0.016	-0.059
-651.828	-56.340	-0.453	0.202
-650.814	-200.000	0.007	-0.205
-649.799	-142.887	-0.241	0.024
-648.784	6.621	-0.280	0.209
-647.770	-200.000	-0.016	-0.137
-646.755	-200.000	0.017	-0.464
-645.741	108.156	-0.151	0.181
-644.726	-44.264	0.260	-0.131
-643.711	-182.992	0.130	-0.002
-642.697	-15.836	0.147	0.094
-641.682	800.000	0.090	-0.375
-640.668	-46.298	-0.120	0.059
-639.653	-200.000	-0.052	-0.261
-638.638	509.471	-0.153	-0.357
-637.624	76.001	-0.151	0.161
-636.609	431.961	-0.122	0.265
-635.595	-94.273	0.117	0.032
-634.580	11.512	0.029	0.022
-633.565	-200.000	-0.006	-0.181
-632.551	800.000	-0.044	0.157
-631.536	9.707	-0.152	0.116
-630.522	360.461	-0.039	0.079
-629.507	-169.943	-0.300	-0.011
-628.492	-200.000	-0.014	0.085
-627.478	-42.753	0.261	-0.133
-626.463	-146.405	-0.192	-0.017
-625.449	-35.024	-0.175	-0.096
-624.434	-95.425	0.101	0.027
-623.419	70.246	-0.188	0.195
-622.405	35.357	-0.027	0.024
-621.390	-200.000	0.071	-0.481
-620.376	-133.921	-0.163	0.020
-619.361	-116.084	-0.097	0.018
-618.346	-111.948	-0.162	-0.033
-617.332	129.240	0.158	0.203
-616.317	800.000	0.020	-0.064
-615.303	-80.987	-0.100	0.033
-614.288	46.659	-0.148	-0.138
-613.273	-5.373	-0.124	-0.086
-612.259	-200.000	-0.011	0.082
-611.244	-200.000	-0.023	-0.105
-610.230	-36.180	0.045	0.024
-609.215	121.172	0.204	-0.255
-608.201	167.053	-0.170	-0.241
-607.186	118.742	-0.222	-0.275
-606.171	800.000	-0.022	0.096
-605.157	15.557	-0.239	0.188
-604.142	281.006	0.138	-0.247
-603.128	-78.879	-0.120	-0.041
-602.113	-65.936	-0.102	0.041
-601.098	109.471	-0.125	-0.150
-600.084	45.680	0.272	0.252
-599.069	69.127	-0.277	0.286
-598.055	13.820	0.171	0.133
-597.040	-200.000	0.055	0.241
-596.025	-165.936	-0.082	0.004
-595.011	13.347	-0.145	-0.112
-593.996	737.851	0.082	-0.222
-592.982	47.682	-0.235	-0.220
-591.967	800.000	0.066	0.209
-590.952	99.290	-0.072	0.084
-589.938	9.464	0.160	0.121
-588.923	446.715	0.020	-0.044
-587.909	-20.129	-0.319	0.197
-586.894	314.246	-0.107	0.202
-585.879	-146.888	0.355	-0.031
-584.865	-200.000	-0.012	-0.068
-583.850	521.034	0.057	-0.135
-582.836	800.000	0.062	0.180
-581.821	-77.556	-0.133	-0.046
-580.806	458.139	0.110	-0.246
-579.792	-33.753	0.115	-0.064
-578.777	800.000	0.074	-0.213
-577.763	-83.466	0.314	0.101
-576.748	371.871	0.021	-0.043
-575.733	271.535	-0.057	-0.100
-574.719	400.303	-0.074	0.156
-573.704	-49.348	0.078	0.037
-572.690	-11.462	-0.398	0.263
-571.675	800.000	-0.084	0.233
-570.661	-100.718	0.387	0.096
-569.646	98.837	-0.183	-0.211
-568.631	86.030	-0.052	-0.057
-567.617	84.147	0.097	0.106
-566.602	-37.143	-0.253	-0.136
-565.588	486.233	0.064	-0.147
-564.573	-20.423	0.305	-0.188
-563.558	-180.629	0.118	-0.002
-562.544	-71.284	0.477	0.179
-561.529	-48.586	0.144	0.069
-560.515	-35.905	0.359	0.195
-559.500	705.554	-0.036	-0.096
-558.485	-65.606	0.211	0.085
-557.471	101.823	-0.258	0.301
-556.456	800.000	-0.020	-0.063
-555.442	147.048	-0.126	0.169
-554.427	-200.000	-0.016	-0.431
-553.412	197.728	0.128	-0.195
-552.398	-52.820	-0.250	-0.115
-551.383	-5.062	-0.098	-0.068
-550.369	-99.863	0.322	-0.081
-549.354	402.631	-0.077	0.161
-548.339	-55.086	-0.201	0.091
-547.325	800.000	-0.075	-0.299
-546.310	-96.930	0.373	0.098
-545.296	-200.000	0.008	-0.073
-544.281	160.984	-0.280	-0.391
-543.266	481.381	-0.138	-0.314
-542.252	-147.553	-0.224	0.019
-541.237	94.324	0.211	0.240
-540.223	-200.000	-0.028	0.255
-539.208	-70.593	0.086	-0.033
-538.193	-39.522	-0.303	0.159
-537.179	-74.087	-0.151	0.055
-536.164	207.387	-0.096	-0.150
-535.150	60.317	-0.341	-0.337
-534.135	-155.888	0.227	0.014
-533.121	-200.000	-0.000	-0.135
-532.106	-104.056	0.153	0.036
-531.091	59.697	-0.186	0.184
-530.077	-200.000	0.024	0.180
-529.062	167.250	-0.100	0.142
-528.048	-59.368	-0.224	0.096
-527.033	26.497	-0.012	0.010
-526.018	106.491	-0.145	-0.172
-525.004	31.603	-0.414	0.356
-523.989	-118.104	-0.134	0.024
-522.975	-88.798	0.177	-0.052
-521.960	-84.087	0.248	0.079
-520.945	-52.137	-0.217	-0.101
-519.931	59.043	0.082	-0.081
-518.916	-144.966	-0.127	-0.012
-517.902	380.814	0.079	-0.162
-516.887	482.521	-0.100	0.227
-515.872	9.905	-0.120	-0.091
-514.858	-24.141	0.010	0.006
-513.843	30.286	-0.182	-0.156
-512.829	-200.000	0.084	-0.424
-511.814	152.686	-0.204	-0.278
-510.799	200.778	-0.059	-0.091
-509.785	56.693	0.147	-0.143
-508.770	657.019	-0.161	-0.415
-507.756	77.973	0.133	0.142
-506.741	-100.625	0.196	0.048
-505.726	-91.815	-0.280	0.079
-504.712	50.747	0.192	-0.182
-503.697	150.851	0.162	-0.220
-502.683	-200.000	0.004	-0.063
-501.668	25.637	0.115	0.096
-500.653	-200.000	-0.062	0.276
-499.639	-57.924	-0.053	0.023
-498.624	60.443	-0.311	0.307
-497.610	85.362	-0.135	0.148
-496.595	-104.661	-0.297	0.068
-495.581	-200.000	0.004	-0.108
-494.566	10.284	-0.081	0.061
-493.551	-86.394	-0.129	0.040
-492.537	-77.897	0.117	-0.040
-491.522	-4.164	0.306	-0.212
-490.508	115.674	0.095	0.116
-489.493	-184.595	0.246	-0.004
-488.478	266.101	-0.028	-0.048
-487.464	44.299	-0.183	-0.168
-486.449	69.436	-0.026	-0.027
-485.435	180.959	0.178	-0.261
-484.420	-152.990	0.503	-0.035
-483.405	800.000	0.066	-0.206
-482.391	32.722	0.043	-0.037
-481.376	-200.000	0.019	-0.130
-480.362	608.482	-0.078	-0.195
-479.347	-57.051	0.256	-0.112
-478.332	800.000	-0.041	-0.153
-477.318	792.689	0.027	-0.075
-476.303	-131.077	0.056	-0.007
-475.289	-63.113	0.064	-0.027
-474.274	-128.397	0.292	0.041
-473.259	71.594	-0.173	0.179
-472.245	29.051	0.182	0.154
-471.230	800.000	-0.097	0.351
-470.216	30.182	0.121	0.103
-469.201	167.434	0.131	-0.186
-468.186	372.456	-0.048	0.098
-467.172	-133.895	0.467	-0.058
-466.157	-5.372	-0.121	-0.083
-465.143	-30.132	0.040	-0.023
-464.128	800.000	-0.053	0.206
-463.113	321.249	0.051	0.097
-462.099	-200.000	0.028	0.149
-461.084	73.407	-0.152	-0.159
-460.070	432.537	-0.093	-0.202
-459.055	-167.734	-0.368	-0.015
-458.040	-200.000	0.000	0.539
-457.026	-85.493	-0.097	0.030
-456.011	58.408	0.176	-0.172
-454.997	800.000	0.054	-0.220
-453.982	-200.000	-0.016	0.191
-452.968	-46.781	-0.083	-0.041
-451.953	-97.555	-0.164	-0.042
-450.938	-100.435	-0.234	0.058
-449.924	-200.000	0.008	0.123
-448.909	-200.000	-0.008	-0.096
-447.895	-129.692	-0.120	0.016
-446.880	301.779	-0.095	0.174
-445.865	800.000	-0.057	-0.184
-444.851	800.000	0.091	-0.279
-443.836	-29.487	-0.259	-0.147
-442.822	190.861	-0.118	0.177
-441.807	550.850	-0.102	-0.244
-440.792	-200.000	0.027	-0.199
-439.778	197.924	-0.033	-0.051
-438.763	-112.369	-0.300	0.060
-437.749	-60.999	0.384	0.162
-436.734	-119.649	-0.388	0.067
-435.719	-142.027	0.232	0.023
-434.705	125.735	-0.086	-0.108
-433.690	800.000	-0.046	-0.135
-432.676	800.000	-0.020	-0.078
-431.661	-50.861	0.103	0.048
-430.646	233.359	-0.081	-0.132
-429.632	-200.000	0.049	0.319
-428.617	-72.178	0.132	-0.049
-427.603	-70.592	-0.100	0.038
-426.588	800.000	0.040	-0.171
-425.573	-158.567	-0.304	0.017
-424.559	-200.000	0.035	0.276
-423.544	418.795	-0.081	0.172
-422.530	-180.627	-0.092	-0.002
-421.515	-108.171	0.201	-0.043
-420.500	-46.974	0.263	-0.128
-419.486	30.520	0.237	-0.201
-418.471	168.876	0.178	-0.252
-417.457	-123.500	0.287	0.045
-416.442	-200.000	0.004	-0.088
-415.428	-78.731	-0.235	-0.080
-414.413	-98.937	0.452	-0.114
-413.398	345.106	0.152	-0.297
-412.384	535.280	0.135	-0.320
-411.369	721.794	0.042	-0.112
-410.355	-63.749	0.124	-0.051
-409.340	-136.801	0.156	0.018
-408.325	-153.404	0.235	-0.016
-407.311	-132.228	0.142	0.018
-406.296	651.601	0.165	0.421
-405.282	-137.684	0.126	0.014
-404.267	277.344	0.178	0.315
-403.252	-81.601	-0.279	0.091
-402.238	8.961	-0.209	0.157
-401.223	-87.884	0.127	0.038
-400.209	-78.067	-0.145	-0.050
-399.194	-2.975	0.098	-0.068
-398.179	-43.025	0.386	-0.195
-397.165	800.000	-0.083	-0.230
-396.150	440.523	0.014	-0.031
-395.136	201.525	-0.079	-0.121
-394.121	399.695	-0.017	-0.035
-393.106	-15.215	-0.175	0.111
-392.092	-1.809	-0.137	-0.096
-391.077	-172.815	0.332	-0.010
-390.063	-200.000	-0.014	0.146
-389.048	128.654	-0.080	0.101
-388.033	15.011	0.260	-0.202
-387.019	800.000	0.033	-0.133
-386.004	107.732	-0.324	-0.384
-384.990	168.502	0.029	0.042
-383.975	-151.506	0.026	-0.002
-382.960	107.955	-0.325	0.385
-381.946	443.958	0.073	0.159
-380.931	-73.714	0.288	-0.104
-379.917	-51.373	-0.153	0.071
-378.902	800.000	0.065	-0.203
-377.888	800.000	-0.048	0.146
-376.873	-113.791	0.118	-0.023
-375.858	-200.000	0.043	0.222
-374.844	358.915	0.123	-0.244
-373.829	-88.777	0.324	0.096
-372.815	155.015	0.036	0.049
-371.800	-58.201	-0.296	0.128
-370.785	-61.264	0.378	-0.158
-369.771	-17.324	-0.122	0.077
-368.756	-200.000	-0.051	-0.443
-367.742	-85.238	-0.194	-0.060
-366.727	307.866	0.017	0.032
-365.712	-200.000	0.030	-0.190
-364.698	177.423	0.096	-0.139
-363.683	-200.000	-0.023	0.246
-362.669	-130.346	-0.157	0.021
-361.654	-60.689	0.078	0.033
-360.639	-200.000	0.017	0.306
-359.625	198.377	-0.124	-0.189
-358.610	185.537	0.140	0.207
-357.596	-200.000	-0.006	0.239
-356.581	186.127	0.103	-0.152
-355.566	-200.000	-0.052	-0.225
-354.552	505.922	0.076	-0.175
-353.537	36.261	0.093	-0.081
-352.523	42.890	-0.075	-0.068
-351.508	80.967	-0.141	-0.151
-350.493	319.540	0.061	0.116
-349.479	322.011	-0.047	0.088
-348.464	-49.592	-0.160	0.076
-347.450	-61.417	0.198	-0.082
-346.435	800.000	0.053	0.160
-345.420	46.161	-0.176	0.162
-344.406	-2.542	-0.125	-0.087
-343.391	-62.294	0.286	0.118
-342.377	44.053	-0.085	0.078
-341.362	-200.000	0.053	-0.258
-340.348	-65.298	-0.326	-0.130
-339.333	-84.857	-0.190	-0.059
-338.318	-186.790	0.367	-0.005
-337.304	239.471	0.078	0.129
-336.289	147.196	0.102	0.137
-335.275	299.913	0.196	0.358
-334.260	266.021	-0.205	-0.355
-333.245	34.322	0.131	0.113
-332.231	800.000	-0.132	-0.396
-331.216	487.806	-0.075	-0.170
-330.202	-82.219	0.188	0.061
-329.187	-98.524	0.275	0.070
-328.172	185.206	0.150	0.220
-327.158	800.000	-0.059	0.205
-326.143	-26.588	-0.287	0.167
-325.129	-89.379	-0.065	0.019
-324.114	407.911	0.113	0.236
-323.099	-140.688	-0.190	0.019
-322.085	-154.515	-0.283	-0.019
-321.070	-159.029	0.055	-0.003
-320.056	-141.884	0.497	0.049
-319.041	66.937	0.154	0.156
-318.026	-103.362	-0.232	0.054
-317.012	800.000	-0.059	0.162
-315.997	-98.752	-0.377	0.095
-314.983	355.628	0.079	-0.156
-313.968	-200.000	-0.036	-0.165
-312.953	24.515	-0.227	-0.186
-311.939	223.994	-0.223	0.358
-310.924	-200.000	-0.006	0.128
-309.910	-104.813	0.094	-0.021
-308.895	-8.368	0.211	0.141
-307.880	-51.439	0.244	0.113
-306.866	449.162	0.090	0.197
-305.851	-200.000	-0.007	0.182
-304.837	-104.659	-0.195	-0.044
-303.822	-15.994	-0.242	-0.153
-302.807	42.481	-0.031	0.028
-301.793	-200.000	-0.023	-0.168
-300.778	23.528	-0.182	-0.148
-299.764	-28.853	0.095	-0.054
-298.749	177.288	-0.053	-0.076
-297.735	-154.521	0.297	0.020
-296.720	5.906	-0.241	0.177
-295.705	-7.125	-0.429	-0.289
-294.691	-101.610	0.111	-0.027
-293.676	-127.364	-0.046	0.007
-292.662	-81.980	0.222	-0.072
-291.647	114.271	0.121	0.146
-290.632	107.862	-0.133	0.157
-289.618	-80.430	0.187	-0.062
-288.603	7.642	0.066	0.049
-287.589	-103.698	0.089	0.021
-286.574	9.767	-0.054	-0.040
-285.559	-127.543	-0.056	0.008
-284.545	-200.000	-0.003	0.172
-283.530	-152.310	0.086	-0.006
-282.516	185.032	-0.109	-0.161
-281.501	-200.000	-0.021	0.183
-280.486	-50.341	-0.331	0.155
-279.472	23.883	-0.162	-0.133
-278.457	-63.041	0.269	-0.110
-277.443	25.295	-0.091	-0.075
-276.428	-200.000	-0.021	-0.116
-275.413	800.000	0.072	0.215
-274.399	-105.008	-0.204	0.046
-273.384	-200.000	-0.028	0.144
-272.370	143.027	0.206	-0.272
-271.355	-48.378	0.369	0.176
-270.340	-155.704	0.244	0.015
-269.326	-200.000	-0.009	0.217
-268.311	-116.434	0.310	0.057
-267.297	-61.874	0.160	-0.066
-266.282	-200.000	-0.091	0.471
-265.267	315.538	0.035	-0.066
-264.253	800.000	-0.022	-0.066
-263.238	-200.000	-0.345	-0.001
-262.224	83.383	0.074	-0.080
-261.209	24.459	-0.153	0.126
-260.195	-42.520	0.078	-0.039
-259.180	-124.735	0.263	-0.040
-258.165	-200.000	-0.011	-0.107
-257.151	55.530	-0.335	-0.321
-256.136	-111.789	-0.309	0.062
-255.122	-51.044	0.124	0.058
-254.107	-200.000	0.011	0.409
-253.092	84.672	0.088	0.095
-252.078	-200.000	-0.014	-0.099
-251.063	-127.525	-0.273	-0.039
-250.049	-200.000	0.061	0.287
-249.034	-200.000	0.007	0.073
-248.019	240.261	0.104	-0.172
-247.005	-83.543	0.229	-0.072
-245.990	4.486	0.139	0.101
-244.976	350.614	-0.059	-0.115
-243.961	34.655	0.204	-0.176
-242.946	466.249	0.048	0.107
-241.932	4.136	-0.330	-0.239
-240.917	-200.000	-0.029	-0.518
-239.903	-200.000	-0.014	0.219
-238.888	24.176	-0.099	0.081
-237.873	-13.297	-0.024	-0.015
-236.859	153.521	-0.078	0.105
-235.844	-82.357	0.112	0.036
-234.830	443.259	0.101	-0.219
-233.815	-200.000	-0.034	0.231
-232.800	-48.674	0.221	0.105
-231.786	445.140	0.220	0.478
-230.771	800.000	0.025	0.087
-229.757	-15.067	-0.280	0.177
-228.742	-60.197	-0.031	0.013
-227.727	-139.127	0.258	-0.028
-226.713	359.228	-0.050	0.100
-225.698	-200.000	-0.080	0.387
-224.684	-64.331	-0.274	-0.110
-223.669	800.000	0.074	0.233
-222.655	-122.774	0.203	0.032
-221.640	-76.766	0.260	0.090
-220.625	776.110	-0.055	-0.147
-219.611	800.000	0.030	0.121
-218.596	800.000	-0.086	-0.328
-217.582	209.380	-0.116	-0.179
-216.567	800.000	-0.076	0.214
-215.552	-200.000	-0.049	0.371
-214.538	-200.000	0.038	0.263
-213.523	36.249	0.099	0.086
-212.509	-119.848	-0.123	0.021
-211.494	-200.000	-0.008	-0.199
-210.479	84.772	-0.198	-0.214
-209.465	-143.504	0.302	0.028
-208.450	-37.760	-0.151	0.079
-207.436	-200.000	-0.025	-0.150
-206.421	-127.547	-0.225	-0.032
-205.406	-42.003	0.167	-0.084
-204.392	-59.175	0.115	0.049
-203.377	93.836	0.155	0.174
-202.363	-41.881	0.225	-0.114
-201.348	800.000	-0.210	-0.592
-200.333	123.070	0.122	0.151
-199.319	107.442	-0.119	0.139
-198.304	-200.000	0.032	0.290
-197.290	172.519	-0.151	-0.215
-196.275	16.069	0.032	-0.025
-195.260	47.335	0.148	0.136
-194.246	28.094	0.127	-0.106
-193.231	23.717	0.253	0.205
-192.217	-44.599	-0.127	-0.063
-191.202	66.346	-0.019	0.019
-190.187	177.277	0.139	0.200
-189.173	-49.435	0.204	0.096
-188.158	53.727	0.129	0.122
-187.144	-33.583	0.082	-0.045
-186.129	160.542	-0.089	-0.123
-185.114	593.663	0.050	0.121
-184.100	-27.915	0.215	-0.123
-183.085	43.957	-0.160	0.145
-182.071	800.000	-0.127	-0.429
-181.056	-36.570	-0.157	0.083
-180.042	182.786	0.105	0.152
-179.027	134.527	-0.096	0.123
-178.012	-72.431	0.138	-0.050
-176.998	185.430	0.202	0.296
-175.983	18.690	-0.110	-0.087
-174.969	-9.430	-0.088	-0.058
-173.954	46.426	-0.010	0.009
-172.939	410.312	0.052	0.108
-171.925	280.692	-0.069	0.121
-170.910	135.788	0.145	0.186
-169.896	-200.000	0.031	-0.153
-168.881	11.131	-0.043	-0.032
-167.866	29.231	-0.016	-0.013
-166.852	120.766	0.168	-0.206
-165.837	1.367	0.070	-0.049
-164.823	86.956	-0.128	-0.140
-163.808	-200.000	-0.003	-0.211
-162.793	800.000	-0.058	-0.184
-161.779	117.238	-0.178	0.215
-160.764	-168.647	-0.534	-0.020
-159.750	-200.000	-0.041	0.459
-158.735	-61.782	-0.269	0.111
-157.720	26.065	0.316	0.259
-156.706	-96.841	0.219	-0.057
-155.691	-77.048	0.107	0.037
-154.677	-83.205	0.205	0.065
-153.662	-150.305	0.065	-0.005
-152.647	-200.000	0.015	0.255
-151.633	57.136	-0.090	0.087
-150.618	-200.000	0.019	-0.161
-149.604	-21.818	-0.397	0.238
-148.589	-200.000	0.015	0.286
-147.574	-64.563	0.118	0.047
-146.560	-200.000	0.006	0.201
-145.545	-118.817	-0.355	0.062
-144.531	-174.291	-0.434	0.012
-143.516	-200.000	-0.033	-0.192
-142.502	-125.090	0.290	-0.044
-141.487	-161.522	-0.058	0.003
-140.472	336.691	0.021	-0.040
-139.458	800.000	0.131	-0.410
-138.443	800.000	-0.160	-0.529
-137.429	-94.341	0.278	-0.075
-136.414	-90.479	0.333	-0.095
-135.399	-121.106	0.081	-0.013
-134.385	217.313	0.028	-0.043
-133.370	-200.000	0.006	-0.173
-132.356	93.016	0.132	-0.146
-131.341	360.747	0.116	0.230
-130.326	-200.000	-0.022	0.254
-129.312	-87.014	-0.128	0.038
-128.297	-150.037	0.317	0.024
-127.283	-27.774	-0.218	-0.125
-126.268	-129.567	-0.284	0.039
-125.253	-106.330	-0.247	0.054
-124.239	-172.052	0.183	0.006
-123.224	213.593	-0.140	0.217
-122.210	-200.000	0.064	-0.286
-121.195	-136.420	0.317	-0.036
-120.180	47.180	0.025	-0.023
-119.166	186.028	0.113	0.165
-118.151	346.336	0.156	-0.302
-117.137	311.034	0.024	0.044
-116.122	72.232	0.330	-0.338
-115.107	-128.032	-0.046	0.006
-114.093	-94.447	-0.234	0.063
-113.078	-62.500	0.212	0.087
-112.064	502.913	0.070	-0.159
-111.049	-200.000	-0.021	-0.098
-110.034	800.000	0.008	-0.032
-109.020	-200.000	0.003	0.071
-108.005	-94.785	-0.306	0.082
-106.991	46.623	-0.448	0.409
-105.976	440.898	-0.056	-0.120
-104.962	-3.931	-0.218	0.148
-103.947	-200.000	0.007	0.109
-102.932	539.305	0.032	0.074
-101.918	19.624	0.356	0.282
-100.903	-53.047	0.268	0.121
-99.889	-20.058	0.062	-0.038
-98.874	27.034	0.333	-0.275
-97.859	-146.212	-0.387	0.033
-96.845	-25.220	0.182	-0.106
-95.830	-33.751	-0.595	0.322
-94.816	-200.000	-0.018	0.226
-93.801	-114.839	0.119	0.022
-92.786	-71.327	-0.161	0.059
-91.772	475.188	0.067	0.150
-90.757	800.000	-0.015	0.049
-89.743	63.889	-0.167	0.165
-88.728	201.673	0.088	0.133
-87.713	-200.000	-0.009	0.124
-86.699	-107.879	-0.142	-0.030
-85.684	-55.557	0.127	0.056
-84.670	39.671	0.137	0.121
-83.655	201.436	0.173	0.262
-82.640	-47.268	-0.141	-0.068
-81.626	-200.000	0.045	0.247
-80.611	-14.936	-0.059	-0.037
-79.597	-112.610	-0.106	0.021
-78.582	351.796	-0.087	-0.169
-77.567	-200.000	-0.017	-0.161
-76.553	800.000	-0.082	-0.231
-75.538	69.613	0.067	0.068
-74.524	-200.000	-0.007	-0.048
-73.509	-163.249	0.090	-0.004
-72.494	57.598	0.240	0.230
-71.480	-200.000	-0.021	0.456
-70.465	-111.010	0.176	0.036
-69.451	11.567	-0.160	0.121
-68.436	70.758	0.128	0.130
-67.422	-11.084	0.162	0.105
-66.407	-200.000	-0.042	0.187
-65.392	-152.096	0.226	-0.016
-64.378	68.569	-0.260	0.262
-63.363	146.823	0.149	0.197
-62.349	17.297	0.219	-0.170
-61.334	142.092	-0.918	-1.195
-60.319	-200.000	0.135	0.589
-59.305	192.020	-0.741	-1.096
-58.290	219.060	0.656	1.030
-57.276	188.893	0.992	1.458
-56.261	-200.000	106.578	590.063
-55.246	513.417	1478.480	3383.234
-54.232	181.270	2663.457	3843.125
-53.217	111.427	2147.315	2540.915
-52.203	41.035	1597.038	1415.286
-51.188	33.260	1336.640	1137.941
-50.173	30.117	1296.209	1085.112
-49.159	53.235	1350.232	1269.185
-48.144	53.939	1365.109	1287.324
-47.130	33.164	1320.071	1123.089
-46.115	29.846	1302.608	1088.705
-45.100	29.729	1297.456	1083.669
-44.086	29.560	1295.490	1080.996
-43.071	29.516	1292.928	1078.557
-42.057	29.539	1291.123	1077.143
-41.042	29.488	1289.326	1075.305
-40.027	29.661	1287.474	1074.723
-39.013	29.609	1285.498	1072.726
-37.998	29.578	1284.281	1071.490
-36.984	29.671	1282.212	1070.258
-35.969	29.729	1280.554	1069.170
-34.954	29.654	1278.829	1067.252
-33.940	29.611	1277.988	1066.262
-32.925	29.705	1276.671	1065.662
-31.911	29.801	1274.929	1064.717
-30.896	29.819	1273.667	1063.722
-29.881	29.844	1272.160	1062.566
-28.867	29.825	1270.688	1061.187
-27.852	29.820	1269.011	1059.714
-26.838	29.800	1267.987	1058.705
-25.823	29.742	1267.068	1057.562
-24.809	29.779	1265.216	1056.186
-23.794	29.722	1264.549	1055.262
-22.779	29.877	1262.540	1054.426
-21.765	29.837	1261.499	1053.290
-20.750	29.710	1260.663	1051.823
-19.736	29.694	1258.992	1050.296
-18.721	29.723	1257.755	1049.391
-17.706	29.698	1256.767	1048.380
-16.692	29.598	1255.960	1047.101
-15.677	29.720	1254.224	1046.303
-14.663	29.606	1253.744	1045.217
-13.648	29.579	1252.300	1043.817
-12.633	29.566	1251.298	1042.866
-11.619	29.640	1250.836	1042.861
-10.604	29.644	1249.837	1042.005
-9.590	29.593	1248.971	1040.956
-8.575	29.610	1247.625	1039.891
-7.560	29.622	1246.795	1039.224
-6.546	29.607	1246.005	1038.440
-5.531	29.561	1245.609	1037.807
-4.517	29.612	1244.304	1036.966
-3.502	29.590	1243.502	1036.134
-2.487	29.617	1242.736	1035.605
-1.473	29.645	1237.809	1031.614
-0.458	28.043	1223.052	1010.430
0.556	25.907	1205.627	971.105
1.571	22.048	1210.004	953.631
2.586	21.145	1223.802	959.463
3.600	20.757	1212.209	948.176
4.615	15.947	1141.732	868.234
5.629	7.794	1069.301	773.572
6.644	4.157	1050.223	742.310
7.659	3.742	1047.632	738.427
8.673	3.473	1045.867	735.835
9.688	3.520	1044.714	735.182
10.702	3.996	1043.155	736.284
11.717	9.133	1049.874	765.502
12.731	17.669	1061.909	815.205
13.746	22.682	1068.014	843.869
14.761	23.572	1069.027	848.853
15.775	22.984	1067.706	844.921
16.790	22.185	1066.332	839.942
17.804	21.732	1064.576	836.321
18.819	21.474	1063.906	834.493
19.834	21.602	1063.527	834.729
20.848	21.663	1063.115	834.626
21.863	21.431	1062.733	833.144
22.877	21.441	1061.332	832.020
23.892	21.349	1060.751	831.055
24.907	21.213	1060.088	829.815
25.921	21.259	1058.301	828.558
26.936	21.116	1057.508	827.188
27.950	21.063	1055.888	825.597
28.965	21.315	1054.586	825.697
29.980	21.309	1053.545	824.780
30.994	21.541	1052.611	825.073
32.009	21.658	1051.049	824.322
33.023	21.422	1050.572	822.766
34.038	21.431	1049.701	822.052
35.053	21.292	1048.373	820.289
36.067	21.174	1047.449	818.941
37.082	21.259	1046.923	818.856
38.096	21.409	1046.341	819.032
39.111	21.440	1045.521	818.459
40.126	21.224	1044.035	816.215
41.140	20.920	1042.602	813.606
42.155	20.644	1041.395	811.302
43.169	20.580	1040.488	810.227
44.184	20.578	1039.286	809.209
45.199	20.663	1038.911	809.244
46.213	20.918	1037.736	809.438
47.228	21.197	1037.559	810.524
48.242	21.285	1036.555	810.078
49.257	21.298	1035.484	809.231
50.271	21.320	1034.984	808.869
51.286	21.511	1034.285	809.131
52.301	21.461	1032.996	807.821
53.315	21.285	1032.035	806.187
54.330	21.051	1030.865	804.126
55.344	20.861	1030.263	802.707
56.359	20.959	1029.401	802.414
57.374	20.784	1028.760	801.040
58.388	20.757	1027.564	799.916
59.403	20.605	1027.279	798.922
60.417	20.692	1025.539	797.896
61.432	20.763	1024.873	797.633
62.447	20.495	1024.660	796.171
63.461	20.385	1023.987	795.075
64.476	20.434	1022.671	794.206
65.490	20.383	1022.135	793.488
66.505	20.452	1021.200	793.003
67.520	20.679	1020.548	793.464
68.534	20.430	1019.497	791.444
69.549	20.397	1018.604	790.530
70.563	20.216	1018.100	789.242
71.578	20.057	1017.278	787.812
72.593	19.959	1016.005	786.311
73.607	20.098	1015.343	786.364
74.622	20.105	1015.168	786.189
75.636	20.139	1014.521	785.774
76.651	20.241	1013.982	785.745
77.666	20.230	1013.236	785.050
78.680	20.289	1012.303	784.526
79.695	20.132	1012.110	783.594
80.709	20.378	1011.640	784.273
81.724	20.600	1011.174	784.848
82.739	20.856	1010.098	785.093
83.753	21.134	1009.965	786.173
84.768	21.654	1009.732	788.262
85.782	21.765	1009.208	788.283
86.797	21.695	1008.134	787.060
87.812	21.490	1006.873	785.087
88.826	21.511	1006.044	784.464
89.841	21.625	1005.575	784.543
90.855	21.759	1004.107	783.928
91.870	21.827	1003.308	783.538
92.884	21.675	1002.555	782.199
93.899	21.603	1001.652	781.106
94.914	21.748	1000.617	780.876
95.928	21.588	999.722	779.394
96.943	21.564	998.362	778.160
97.957	21.345	997.583	776.512
98.972	21.504	996.879	776.600
99.987	21.505	996.188	775.999
101.001	21.391	995.194	774.648
102.016	21.442	994.281	774.095
103.030	21.566	993.518	773.985
104.045	21.446	993.328	773.238
105.060	21.398	991.776	771.748
106.074	20.970	990.806	769.034
107.089	20.711	989.880	767.107
108.103	20.643	988.617	765.760
109.118	20.415	987.408	763.755
110.133	20.384	986.039	762.492
111.147	20.354	985.239	761.675
112.162	20.332	984.866	761.221
113.176	20.766	984.194	762.538
114.191	20.797	983.783	762.287
115.206	20.561	983.159	760.705
116.220	20.622	982.187	760.151
117.235	20.511	981.285	758.901
118.249	20.514	980.290	758.079
119.264	20.278	979.372	756.271
120.279	20.300	978.618	755.718
121.293	20.235	977.427	754.449
122.308	20.154	976.864	753.598
123.322	19.988	975.711	751.920
124.337	19.902	975.057	750.976
125.352	20.019	974.033	750.626
126.366	19.851	973.242	749.224
127.381	20.162	972.281	749.764
128.395	20.061	971.973	749.022
129.410	20.392	970.607	749.331
130.424	20.387	970.120	748.870
131.439	20.629	969.513	749.375
132.454	20.623	968.637	748.607
133.468	20.604	968.001	747.965
134.483	20.767	966.844	747.708
135.497	20.691	966.336	746.923
136.512	20.729	965.172	746.120
137.527	20.776	964.552	745.774
138.541	20.713	964.137	745.118
139.556	20.831	963.427	745.010
140.570	21.133	962.860	745.795
141.585	21.211	962.293	745.625
142.600	21.360	961.252	745.388
143.614	21.563	960.540	745.635
144.629	21.720	959.512	745.438
145.643	21.454	959.184	743.986
146.658	21.190	957.552	741.532
147.673	21.061	956.195	739.870
148.687	20.748	955.428	737.883
149.702	20.729	954.302	736.867
150.716	20.702	953.448	736.030
151.731	20.752	953.180	735.966
152.746	20.900	952.017	735.629
153.760	20.922	951.747	735.448
154.775	21.109	951.118	735.688
155.789	21.047	950.438	734.834
156.804	21.224	949.506	734.795
157.819	21.239	948.958	734.366
158.833	21.422	948.692	734.864
159.848	21.651	947.603	734.919
160.862	21.404	946.389	732.875
161.877	20.954	945.381	730.147
162.892	20.744	943.742	727.939
163.906	20.676	942.540	726.664
164.921	20.651	942.205	726.236
165.935	20.840	941.142	726.142
166.950	20.992	940.568	726.265
167.964	20.891	939.700	725.113
168.979	20.826	938.435	723.802
169.994	20.835	937.665	723.179
171.008	21.038	937.328	723.699
172.023	21.274	937.129	724.459
173.037	21.594	936.743	725.423
174.052	21.291	935.620	723.237
175.067	20.924	933.917	720.341
176.081	20.415	933.811	718.087
177.096	20.374	933.114	717.321
178.110	20.723	932.387	718.138
179.125	20.549	932.206	717.220
180.140	20.825	931.874	718.036
181.154	21.014	931.592	718.534
182.169	21.258	931.215	719.184
183.183	21.256	930.711	718.726
184.198	21.203	930.080	717.957
185.213	21.204	929.229	717.240
186.227	21.247	928.610	716.875
187.242	21.510	927.873	717.320
188.256	21.692	927.285	717.549
189.271	21.495	926.763	716.275
190.286	21.218	925.388	714.017
191.300	20.626	924.467	710.823
192.315	20.344	923.838	709.126
193.329	20.619	923.133	709.642
194.344	20.771	922.375	709.618
195.359	20.810	922.577	709.868
196.373	20.935	921.795	709.714
197.388	21.264	921.383	710.672
198.402	21.644	920.858	711.747
199.417	21.789	921.070	712.438
200.432	21.931	920.564	712.560
201.446	21.923	920.255	712.228
202.461	22.046	919.577	712.137
203.475	21.725	918.785	710.160
204.490	21.464	917.603	708.127
205.504	21.336	916.426	706.640
206.519	21.348	915.854	706.186
207.534	21.348	915.514	705.862
208.548	21.305	914.724	705.013
209.563	21.336	914.222	704.692
210.577	21.445	913.645	704.624
211.592	21.604	913.662	705.215
212.607	21.902	912.802	705.688
213.621	21.797	911.828	704.447
214.636	21.646	911.018	703.153
215.650	21.582	910.603	702.517
216.665	21.822	909.692	702.711
217.680	21.895	909.205	702.567
218.694	21.872	908.675	702.002
219.709	21.853	907.629	701.057
220.723	21.638	907.411	699.967
221.738	21.639	906.245	699.008
222.753	21.693	905.567	698.639
223.767	21.616	905.724	698.393
224.782	21.889	905.205	699.020
225.796	21.876	904.963	698.717
226.811	21.757	903.671	697.185
227.826	21.526	902.981	695.671
228.840	21.450	902.052	694.594
229.855	21.340	901.336	693.545
230.869	21.404	900.537	693.124
231.884	21.262	900.080	692.145
232.899	21.210	899.499	691.434
233.913	21.054	898.586	690.052
234.928	21.012	897.619	689.083
235.942	20.913	897.089	688.222
236.957	20.977	896.530	687.988
237.972	21.088	896.227	688.130
238.986	21.162	895.097	687.493
240.001	21.057	894.485	686.548
241.015	21.173	894.245	686.763
242.030	21.387	893.802	687.199
243.045	21.312	893.611	686.698
244.059	21.271	893.116	686.098
245.074	21.573	892.254	686.558
246.088	21.610	892.105	686.529
247.103	21.676	891.835	686.520
248.117	21.962	892.005	687.710
249.132	22.559	891.301	689.444
250.147	22.897	890.808	690.321
251.161	22.856	890.320	689.722
252.176	22.767	890.016	689.076
253.190	22.803	889.517	688.769
254.205	22.944	888.791	688.698
255.220	22.666	887.836	686.815
256.234	22.578	887.649	686.268
257.249	22.675	886.681	685.835
258.263	22.705	885.696	685.126
259.278	22.673	885.021	684.421
260.293	22.636	884.757	684.012
261.307	22.728	884.736	684.294
262.322	22.901	883.448	683.905
263.336	22.805	882.749	682.931
264.351	22.805	881.993	682.287
265.366	22.858	881.649	682.167
266.380	22.756	881.130	681.311
267.395	22.667	880.366	680.317
268.409	22.493	879.514	678.928
269.424	22.516	878.689	678.319
270.439	22.437	877.710	677.198
271.453	22.444	876.983	676.604
272.468	22.247	876.674	675.552
273.482	22.377	876.179	675.610
274.497	22.287	875.344	674.559
275.512	22.312	874.678	674.082
276.526	22.541	874.603	674.841
277.541	22.587	874.130	674.594
278.555	22.732	873.841	674.866
279.570	23.081	873.051	675.529
280.585	22.854	872.348	674.059
281.599	22.645	870.999	672.161
282.614	22.321	870.495	670.478
283.628	22.296	869.895	669.859
284.643	22.348	869.104	669.389
285.657	22.307	868.910	669.024
286.672	22.322	868.299	668.555
287.687	22.398	867.675	668.303
288.701	22.517	866.867	668.073
289.716	22.478	866.449	667.543
290.730	22.598	866.099	667.667
291.745	22.485	865.661	666.843
292.760	22.737	865.369	667.513
293.774	23.047	864.676	668.093
294.789	22.973	863.543	666.877
295.803	22.644	862.477	664.755
296.818	22.426	862.053	663.547
297.833	22.562	861.202	663.347
298.847	22.493	860.866	662.768
299.862	22.627	860.714	663.098
300.876	22.695	860.451	663.093
301.891	23.028	859.967	663.911
302.906	23.152	859.597	664.031
303.920	23.348	859.325	664.498
304.935	23.403	858.915	664.329
305.949	23.201	857.781	662.638
306.964	22.884	857.020	660.804
307.979	22.947	856.402	660.506
308.993	23.024	856.410	660.739
310.008	23.053	855.850	660.356
311.022	22.874	854.947	658.936
312.037	22.762	854.135	657.832
313.052	22.489	853.367	656.167
314.066	22.235	852.575	654.553
315.081	22.209	852.120	654.051
316.095	22.316	851.315	653.771
317.110	22.339	850.816	653.416
318.125	22.299	850.105	652.666
319.139	22.182	849.797	651.935
320.154	22.344	848.887	651.782
321.168	22.264	848.756	651.327
322.183	22.327	848.754	651.499
323.197	22.385	848.226	651.252
324.212	22.561	847.112	650.988
325.227	22.443	846.659	650.149
326.241	22.342	846.012	649.222
327.256	22.289	845.517	648.589
328.270	22.327	844.854	648.163
329.285	22.092	844.922	647.290
330.300	22.198	843.386	646.447
331.314	22.336	843.529	647.008
332.329	22.669	843.310	648.006
333.343	22.926	842.641	648.377
334.358	22.681	842.692	647.461
335.373	22.693	842.332	647.169
336.387	22.973	841.789	647.722
337.402	23.092	841.708	648.040
338.416	23.219	841.715	648.451
339.431	23.428	841.501	648.996
340.446	23.439	841.298	648.822
341.460	23.674	840.694	649.155
342.475	23.717	840.552	649.146
343.489	23.852	839.810	649.009
344.504	23.716	839.796	648.446
345.519	23.921	839.129	648.620
346.533	23.742	838.412	647.355
347.548	23.520	837.265	645.604
348.562	23.131	836.759	643.744
349.577	23.084	835.814	642.790
350.592	22.914	835.241	641.674
351.606	22.672	834.436	640.120
352.621	22.783	833.998	640.128
353.635	23.059	833.089	640.376
354.650	22.933	832.406	639.339
355.665	23.082	832.040	639.537
356.679	23.243	831.271	639.472
357.694	23.175	830.827	638.829
358.708	23.173	830.072	638.186
359.723	22.995	829.731	637.225
360.738	23.136	829.057	637.160
361.752	23.320	828.560	637.382
362.767	23.654	828.491	638.475
363.781	23.684	828.086	638.213
364.796	23.823	827.845	638.471
365.810	23.944	827.814	638.825
366.825	23.933	827.004	638.104
367.840	23.931	826.479	637.636
368.854	23.691	825.719	636.131
369.869	23.579	824.996	635.118
370.883	23.524	824.909	634.797
371.898	23.575	824.713	634.772
372.913	23.940	824.467	635.832
373.927	23.600	823.596	633.892
374.942	23.695	822.893	633.634
375.956	23.841	822.668	633.923
376.971	23.945	822.606	634.192
377.986	23.947	822.581	634.123
379.000	24.183	821.871	634.360
380.015	24.059	820.859	633.083
381.029	23.947	820.675	632.485
382.044	23.977	820.058	632.062
383.059	24.137	819.055	631.799
384.073	23.828	818.531	630.245
385.088	23.561	817.628	628.546
386.102	23.509	816.756	627.635
387.117	23.363	816.482	626.856
388.132	23.393	815.398	626.072
389.146	23.628	815.179	626.678
390.161	23.834	815.315	627.454
391.175	24.084	814.794	627.879
392.190	23.869	813.895	626.374
393.205	23.621	813.153	624.874
394.219	23.392	812.999	623.894
395.234	23.172	812.499	622.682
396.248	23.281	811.662	622.370
397.263	23.405	810.882	622.152
398.278	23.198	810.705	621.234
399.292	23.261	810.048	620.896
400.307	23.081	809.823	620.039
401.321	23.131	809.350	619.796
402.336	23.285	809.036	620.041
403.350	23.426	808.987	620.441
404.365	24.120	808.731	622.617
405.380	24.184	808.566	622.659
406.394	24.402	807.885	622.839
407.409	24.318	808.122	622.676
408.423	24.336	807.722	622.375
409.438	24.375	807.330	622.153
410.453	24.424	806.892	621.931
411.467	24.298	806.377	621.041
412.482	24.550	805.912	621.506
413.496	24.738	805.500	621.784
414.511	24.723	804.795	621.133
415.526	24.445	804.518	619.901
416.540	24.336	804.001	619.068
417.555	24.307	803.551	618.568
418.569	24.383	803.193	618.500
419.584	24.419	802.477	618.017
420.599	24.481	801.957	617.779
421.613	163.532	1372.006	1797.057
422.628	142.110	1455.054	1797.161
