DTS Sentinel unit serial number:	SN413079Multiplexer serial number:	ORYXHardware model number:	OX4-SRSoftware version number:	ORYX F/W v4.00 Oryx Data Collector v3.7.2.0data status	okinstallation	princeton_trtdifferential loss correction	single-endedforward channel	channel 1reverse channel	N/Adate	2019/09/15time	12:30:35forward acquisition time	60.00reverse acquisition time	0.00gamma	496.2192k internal	0.2300k external	0.2300temperature offset calibration	0.9984default loss term (dB/km)	0.3790temperature slope calibration	1.0000multiplexer offset coefficient	1.0000multiplexer slope coefficient	1.0000fibre end	0.00T internal ref (°C)	35.16T ext. ref 1 (°C)	5.05T ext. ref 2 (°C)	32.88length (m)	temperature (°C)	Stokes	anti-Stokes-747.200	800.000	0.043	-0.133
-746.185	-126.092	0.245	0.037
-745.171	800.000	0.074	0.239
-744.156	800.000	0.056	0.195
-743.142	-200.000	0.019	-0.257
-742.127	800.000	0.029	-0.094
-741.112	213.898	0.130	0.210
-740.098	-42.978	-0.161	0.083
-739.083	-152.801	-0.173	0.013
-738.069	-200.000	-0.011	0.276
-737.054	-200.000	0.001	0.143
-736.039	-93.055	-0.088	-0.025
-735.025	-200.000	-0.045	0.318
-734.010	-67.979	-0.583	0.232
-732.996	800.000	0.065	0.241
-731.981	61.165	-0.174	0.177
-730.966	4.140	0.069	0.052
-729.952	47.182	-0.175	0.166
-728.937	-6.904	-0.154	-0.107
-727.923	586.306	0.067	-0.167
-726.908	-62.325	-0.388	0.165
-725.894	102.085	-0.103	0.122
-724.879	295.041	0.073	-0.137
-723.864	162.066	-0.254	-0.362
-722.850	39.028	0.144	0.131
-721.835	-54.950	-0.255	-0.117
-720.821	-81.751	-0.204	0.068
-719.806	-12.683	-0.285	-0.189
-718.791	35.651	-0.153	-0.137
-717.777	355.700	-0.016	0.033
-716.762	-200.000	0.006	-0.136
-715.748	195.909	-0.132	-0.204
-714.733	140.082	-0.075	0.101
-713.718	417.942	-0.081	-0.177
-712.704	308.075	0.140	-0.266
-711.689	-179.077	-0.155	-0.004
-710.675	-54.237	0.208	-0.096
-709.660	65.518	0.194	0.200
-708.645	24.339	-0.170	-0.143
-707.631	705.699	0.027	0.072
-706.616	-76.604	-0.359	0.128
-705.602	-33.393	-0.091	0.051
-704.587	90.754	0.053	0.061
-703.572	800.000	-0.027	-0.107
-702.558	530.484	0.069	-0.166
-701.543	-146.910	-0.300	0.026
-700.529	372.854	0.174	-0.359
-699.514	212.939	0.118	0.189
-698.499	-46.064	0.053	0.027
-697.485	-200.000	0.033	-0.183
-696.470	-200.000	0.012	-0.211
-695.456	-200.000	-0.032	-0.144
-694.441	375.956	-0.031	0.064
-693.426	74.226	0.083	0.089
-692.412	0.620	-0.143	-0.104
-691.397	93.950	0.148	-0.171
-690.383	-101.182	-0.369	0.092
-689.368	-95.039	-0.055	-0.015
-688.354	-102.228	0.068	0.017
-687.339	45.102	-0.152	-0.142
-686.324	2.159	0.109	0.080
-685.310	57.485	0.084	0.083
-684.295	-139.639	-0.117	0.013
-683.281	-79.538	-0.116	-0.040
-682.266	53.894	-0.318	0.311
-681.251	-143.754	-0.307	0.030
-680.237	800.000	-0.037	-0.165
-679.222	-200.000	-0.018	-0.236
-678.208	800.000	-0.012	-0.052
-677.193	149.003	-0.146	-0.201
-676.178	-200.000	0.045	0.279
-675.164	54.399	0.266	0.260
-674.149	171.973	-0.110	0.161
-673.135	-61.002	-0.353	-0.152
-672.120	800.000	-0.037	-0.125
-671.105	-56.796	0.200	-0.090
-670.091	800.000	-0.118	-0.337
-669.076	-134.091	-0.073	-0.009
-668.062	-103.510	0.029	-0.007
-667.047	-200.000	0.017	0.102
-666.032	-151.338	0.322	-0.024
-665.018	800.000	0.053	-0.168
-664.003	-12.754	0.262	-0.173
-662.989	421.082	-0.159	-0.347
-661.974	-109.243	-0.099	-0.021
-660.959	129.827	-0.044	0.058
-659.945	57.775	0.164	0.163
-658.930	194.620	0.119	0.183
-657.916	-200.000	-0.016	0.308
-656.901	-200.000	-0.013	0.311
-655.886	20.968	0.196	-0.161
-654.872	800.000	0.099	-0.410
-653.857	-47.061	-0.100	0.049
-652.843	48.468	-0.184	-0.175
-651.828	-42.240	0.210	-0.109
-650.814	800.000	-0.006	-0.017
-649.799	44.121	-0.200	0.186
-648.784	-63.418	0.051	0.021
-647.770	-128.331	0.221	-0.032
-646.755	-13.803	0.249	0.164
-645.741	-80.099	-0.486	0.166
-644.726	800.000	-0.127	-0.386
-643.711	56.428	0.266	-0.263
-642.697	54.890	-0.180	0.176
-641.682	185.842	-0.055	-0.082
-640.668	-29.139	-0.156	0.091
-639.653	-200.000	-0.032	-0.246
-638.638	-76.187	-0.226	-0.081
-637.624	800.000	0.052	0.157
-636.609	49.955	0.189	0.181
-635.595	-200.000	0.004	0.230
-634.580	329.789	-0.090	0.176
-633.565	-135.960	0.210	0.025
-632.551	460.528	0.172	-0.389
-631.536	-200.000	0.023	-0.244
-630.522	800.000	-0.030	-0.132
-629.507	110.056	-0.033	0.040
-628.492	-200.000	0.036	-0.272
-627.478	259.648	-0.077	0.135
-626.463	-106.724	0.059	-0.013
-625.449	-200.000	0.031	-0.526
-624.434	82.637	-0.102	-0.112
-623.419	28.071	-0.138	0.119
-622.405	-120.489	0.478	0.082
-621.390	-126.102	-0.284	0.043
-620.376	677.128	-0.058	-0.153
-619.361	-88.043	-0.338	-0.103
-618.346	170.580	0.099	0.144
-617.332	-200.000	-0.052	0.498
-616.317	800.000	0.024	-0.090
-615.303	619.304	-0.069	-0.177
-614.288	203.409	0.225	-0.352
-613.273	286.375	-0.255	-0.466
-612.259	-179.351	0.451	0.010
-611.244	1.739	-0.205	-0.150
-610.230	456.152	0.034	0.076
-609.215	15.466	0.104	-0.083
-608.201	-96.247	-0.435	-0.117
-607.186	800.000	0.006	-0.019
-606.171	-100.274	-0.253	-0.064
-605.157	-69.592	-0.321	-0.125
-604.142	-107.340	0.148	-0.033
-603.128	76.811	0.168	0.181
-602.113	127.104	-0.178	0.229
-601.098	530.779	0.075	0.179
-600.084	-30.759	-0.140	0.080
-599.069	-68.663	0.228	-0.090
-598.055	-200.000	0.011	-0.133
-597.040	130.965	-0.156	0.203
-596.025	201.938	0.358	-0.559
-595.011	6.075	-0.279	-0.210
-593.996	800.000	-0.040	0.141
-592.982	-200.000	0.030	0.294
-591.967	800.000	-0.087	-0.245
-590.952	-146.646	-0.217	-0.019
-589.938	-116.292	0.044	0.008
-588.923	-200.000	0.048	0.278
-587.909	-200.000	0.026	0.293
-586.894	-200.000	0.242	0.000
-585.879	91.603	0.306	0.349
-584.865	757.871	-0.061	-0.166
-583.850	330.486	-0.080	0.156
-582.836	165.672	-0.108	0.155
-581.821	69.642	-0.032	0.034
-580.806	-109.018	0.091	-0.020
-579.792	112.072	0.192	-0.235
-578.777	-200.000	-0.016	0.329
-577.763	800.000	-0.046	0.182
-576.748	-20.605	-0.116	0.072
-575.733	546.361	-0.057	0.139
-574.719	-200.000	-0.015	-0.084
-573.704	-200.000	0.007	0.097
-572.690	-74.740	-0.065	0.024
-571.675	239.105	-0.046	0.077
-570.661	205.292	-0.098	-0.155
-569.646	-124.401	0.114	-0.018
-568.631	-40.502	0.190	0.100
-567.617	-200.000	-0.027	0.131
-566.602	800.000	0.034	0.122
-565.588	-200.000	0.078	-0.367
-564.573	-22.394	-0.110	0.067
-563.558	212.190	-0.013	-0.021
-562.544	-118.327	0.299	-0.054
-561.529	53.196	-0.096	0.093
-560.515	20.135	0.227	0.185
-559.500	2.887	-0.085	0.062
-558.485	43.428	0.088	0.081
-557.471	-104.624	-0.168	-0.039
-556.456	-68.427	0.348	-0.137
-555.442	-48.189	-0.214	-0.105
-554.427	9.921	0.253	-0.194
-553.412	-200.000	0.003	-0.059
-552.398	-67.615	-0.141	-0.056
-551.383	800.000	0.047	-0.152
-550.369	-115.015	-0.336	-0.065
-549.354	85.177	-0.131	0.146
-548.339	57.982	0.068	-0.067
-547.325	-92.836	0.379	-0.107
-546.310	71.692	-0.176	0.185
-545.296	312.124	0.136	-0.258
-544.281	522.809	0.134	-0.319
-543.266	800.000	0.068	0.257
-542.252	-121.496	0.043	-0.007
-541.237	-113.433	0.414	0.082
-540.223	-103.490	-0.365	0.087
-539.208	78.742	-0.136	-0.147
-538.193	-77.696	0.322	0.113
-537.179	800.000	0.074	-0.238
-536.164	-77.311	-0.237	-0.084
-535.150	-105.924	0.272	0.062
-534.135	800.000	-0.049	-0.196
-533.121	-200.000	0.001	-0.122
-532.106	-48.602	-0.272	0.132
-531.091	366.046	0.080	-0.162
-530.077	-26.303	-0.203	0.121
-529.062	-90.632	0.130	-0.038
-528.048	-117.916	-0.131	0.024
-527.033	-200.000	0.002	0.154
-526.018	103.301	0.152	-0.180
-525.004	119.176	0.053	0.066
-523.989	200.477	-0.277	0.430
-522.975	800.000	0.051	-0.224
-521.960	-90.000	0.061	-0.018
-520.945	-53.413	-0.397	0.184
-519.931	165.374	-0.144	-0.206
-518.916	-138.272	-0.147	-0.016
-517.902	-15.654	0.167	-0.108
-516.887	652.368	-0.050	0.130
-515.872	-181.334	-0.197	0.004
-514.858	-178.642	-0.077	0.002
-513.843	-42.130	0.225	-0.116
-512.829	-200.000	-0.002	-0.065
-511.814	518.198	-0.130	0.307
-510.799	800.000	0.082	0.294
-509.785	-200.000	-0.066	0.321
-508.770	638.457	0.073	0.187
-507.756	-200.000	0.018	-0.375
-506.741	-143.431	-0.094	-0.009
-505.726	-200.000	0.014	-0.170
-504.712	109.595	-0.070	0.085
-503.697	-200.000	0.023	0.140
-502.683	-135.850	0.157	0.019
-501.668	-200.000	0.002	-0.014
-500.653	-86.776	-0.251	0.078
-499.639	-200.000	0.026	-0.393
-498.624	-200.000	-0.236	0.001
-497.610	663.503	0.121	0.316
-496.595	-138.070	-0.352	0.040
-495.581	20.915	-0.228	-0.187
-494.566	413.838	-0.079	0.169
-493.551	104.908	0.159	-0.190
-492.537	-44.464	0.046	-0.023
-491.522	-102.202	-0.057	-0.014
-490.508	-11.011	0.313	-0.209
-489.493	222.003	0.124	0.201
-488.478	578.579	0.046	0.114
-487.464	-200.000	0.007	-0.164
-486.449	-2.784	-0.061	-0.043
-485.435	134.454	-0.105	0.138
-484.420	110.207	0.009	0.011
-483.405	-167.386	-0.283	0.011
-482.391	-6.157	-0.302	-0.208
-481.376	155.989	0.167	0.232
-480.362	-68.575	-0.185	-0.072
-479.347	-65.703	-0.085	0.034
-478.332	748.626	0.077	-0.209
-477.318	697.710	-0.066	-0.175
-476.303	-48.169	0.287	0.140
-475.289	8.302	-0.045	-0.034
-474.274	83.904	-0.129	-0.142
-473.259	-200.000	-0.020	0.162
-472.245	-116.358	0.252	-0.047
-471.230	19.968	0.221	-0.179
-470.216	-84.224	0.284	-0.091
-469.201	-70.694	-0.133	0.051
-468.186	22.149	0.043	-0.036
-467.172	800.000	-0.077	-0.251
-466.157	-125.417	-0.304	-0.047
-465.143	800.000	0.033	0.145
-464.128	-129.289	-0.406	0.057
-463.113	-40.168	-0.184	0.096
-462.099	32.083	-0.243	0.211
-461.084	183.498	0.034	0.051
-460.070	-200.000	-0.001	0.256
-459.055	-78.586	-0.356	-0.123
-458.040	151.262	-0.044	-0.060
-457.026	108.444	-0.125	-0.150
-456.011	30.177	-0.120	0.103
-454.997	470.006	0.053	-0.119
-453.982	-71.844	0.239	-0.090
-452.968	-138.312	-0.139	-0.016
-451.953	12.574	0.121	-0.094
-450.938	76.350	0.010	0.011
-449.924	-200.000	-0.041	0.231
-448.909	-21.149	-0.205	0.126
-447.895	99.486	-0.175	-0.204
-446.880	-63.943	-0.201	-0.083
-445.865	359.204	0.050	0.101
-444.851	-172.219	0.264	-0.009
-443.836	-6.229	-0.217	0.149
-442.822	-119.588	-0.109	0.019
-441.807	32.303	-0.122	0.106
-440.792	-138.471	0.196	0.022
-439.778	-185.517	-0.047	-0.001
-438.763	13.677	0.151	0.118
-437.749	-64.832	0.154	0.063
-436.734	-88.377	0.175	-0.053
-435.719	115.726	0.215	-0.266
-434.705	29.491	-0.150	-0.129
-433.690	-200.000	-0.039	0.267
-432.676	-5.604	0.108	0.075
-431.661	222.739	-0.103	-0.167
-430.646	800.000	-0.092	-0.273
-429.632	140.444	-0.230	-0.306
-428.617	-14.688	0.208	0.135
-427.603	-13.565	0.142	0.093
-426.588	383.311	0.086	-0.179
-425.573	-140.185	-0.126	-0.013
-424.559	800.000	-0.019	0.060
-423.544	81.053	0.132	-0.143
-422.530	264.515	-0.140	-0.245
-421.515	-134.869	-0.180	-0.022
-420.500	-28.504	0.089	-0.052
-419.486	-16.975	-0.111	0.070
-418.471	-87.391	-0.270	-0.082
-417.457	800.000	-0.040	0.164
-416.442	-149.926	-0.050	0.004
-415.428	-50.896	-0.162	-0.077
-414.413	-114.793	-0.205	0.039
-413.398	128.596	0.094	-0.121
-412.384	-161.116	0.032	0.002
-411.369	800.000	-0.180	-0.704
-410.355	16.942	-0.060	-0.048
-409.340	116.338	-0.116	-0.143
-408.325	-121.834	-0.147	0.024
-407.311	800.000	-0.069	-0.233
-406.296	-64.399	0.200	0.082
-405.282	-85.217	0.192	-0.060
-404.267	-138.083	-0.220	-0.025
-403.252	-80.528	0.217	-0.073
-402.238	121.091	0.236	0.296
-401.223	156.234	-0.152	-0.211
-400.209	800.000	0.077	-0.274
-399.194	-48.940	-0.370	0.179
-398.179	-39.470	-0.173	-0.091
-397.165	-200.000	-0.025	-0.149
-396.150	-184.901	0.238	-0.004
-395.136	-200.000	0.014	0.370
-394.121	-200.000	0.005	-0.375
-393.106	-116.783	0.069	-0.013
-392.092	233.075	0.081	-0.133
-391.077	-200.000	-0.072	-0.319
-390.063	-33.447	-0.312	-0.174
-389.048	124.907	-0.228	-0.288
-388.033	-200.000	-0.022	-0.144
-387.019	-114.148	-0.314	0.061
-386.004	153.881	0.081	0.112
-384.990	-46.867	0.253	0.124
-383.975	-30.707	0.271	-0.154
-382.960	-124.667	0.255	0.040
-381.946	471.868	-0.111	0.251
-380.931	-200.000	-0.011	-0.149
-379.917	-46.279	0.144	0.071
-378.902	-188.040	0.150	0.002
-377.888	52.718	-0.249	-0.239
-376.873	800.000	0.108	0.307
-375.858	56.600	0.273	0.267
-374.844	56.960	-0.105	0.103
-373.829	-200.000	0.025	-0.126
-372.815	-200.000	0.011	0.056
-371.800	-165.405	-0.086	-0.004
-370.785	83.638	-0.190	0.208
-369.771	800.000	0.088	0.267
-368.756	-124.329	0.135	-0.021
-367.742	758.816	0.118	-0.321
-366.727	116.594	0.115	0.142
-365.712	-72.419	-0.170	-0.063
-364.698	170.538	0.128	-0.185
-363.683	-200.000	0.057	0.258
-362.669	800.000	0.023	0.066
-361.654	-91.624	-0.355	-0.101
-360.639	117.452	-0.058	-0.071
-359.625	-2.315	-0.218	0.153
-358.610	-33.971	0.180	-0.100
-357.596	800.000	0.092	0.266
-356.581	245.679	-0.258	0.437
-355.566	-112.634	-0.081	0.016
-354.552	631.086	0.043	-0.109
-353.537	-79.647	0.428	0.145
-352.523	-33.487	0.240	0.133
-351.508	-41.537	0.262	0.135
-350.493	608.805	0.169	0.423
-349.479	218.462	0.086	0.138
-348.464	-140.027	0.314	-0.033
-347.450	-200.000	0.007	-0.050
-346.435	-200.000	-0.016	-0.195
-345.420	283.551	0.017	-0.030
-344.406	105.754	0.034	-0.041
-343.391	-8.608	-0.199	-0.134
-342.377	68.223	-0.049	-0.051
-341.362	-200.000	0.001	0.036
-340.348	-24.468	0.198	-0.118
-339.333	73.249	0.198	0.208
-338.318	-200.000	0.032	-0.273
-337.304	-107.119	-0.143	-0.032
-336.289	9.685	-0.154	-0.117
-335.275	208.422	-0.168	0.264
-334.260	-16.311	0.172	-0.110
-333.245	-178.830	0.511	-0.012
-332.231	-108.645	0.130	0.028
-331.216	-94.173	-0.231	-0.064
-330.202	52.673	-0.031	-0.030
-329.187	-197.293	0.268	0.002
-328.172	385.777	0.154	0.319
-327.158	89.658	0.147	-0.165
-326.143	386.296	0.085	0.177
-325.129	375.436	0.062	-0.128
-324.114	-107.613	0.214	-0.047
-323.099	-32.483	-0.223	-0.125
-322.085	-130.713	-0.111	0.015
-321.070	-75.334	-0.092	-0.033
-320.056	29.784	-0.120	0.102
-319.041	-96.776	-0.264	0.070
-318.026	-200.000	0.019	0.374
-317.012	-122.161	-0.303	-0.050
-315.997	800.000	0.023	-0.083
-314.983	-17.064	-0.224	-0.142
-313.968	321.397	0.098	-0.186
-312.953	309.848	0.079	-0.148
-311.939	215.943	-0.117	0.186
-310.924	280.809	0.035	0.062
-309.910	45.196	0.285	0.264
-308.895	-87.273	-0.261	-0.079
-307.880	-200.000	0.005	-0.055
-306.866	-17.075	0.022	0.014
-305.851	-40.279	-0.209	0.109
-304.837	71.674	0.159	0.166
-303.822	-105.824	0.384	-0.087
-302.807	19.172	0.118	0.095
-301.793	-44.461	0.300	-0.151
-300.778	-200.000	-0.022	0.121
-299.764	250.258	-0.163	0.278
-298.749	-13.126	-0.392	0.255
-297.735	34.388	-0.104	0.091
-296.720	388.866	0.119	0.246
-295.705	-200.000	0.000	-0.086
-294.691	-141.985	0.170	-0.017
-293.676	-200.000	-0.005	0.094
-292.662	-172.096	0.315	-0.010
-291.647	-154.354	-0.245	0.016
-290.632	232.271	-0.182	-0.300
-289.618	57.407	-0.168	0.164
-288.603	-166.801	0.408	-0.017
-287.589	190.540	0.065	0.098
-286.574	-133.768	-0.265	0.033
-285.559	526.091	0.109	0.258
-284.545	15.041	-0.103	0.081
-283.530	-82.925	-0.128	0.041
-282.516	-200.000	0.013	-0.272
-281.501	-90.493	0.089	-0.026
-280.486	232.014	0.222	0.365
-279.472	49.714	0.146	0.138
-278.457	-200.000	0.029	0.152
-277.443	-70.115	-0.164	0.063
-276.428	19.619	0.242	-0.195
-275.413	800.000	0.023	0.085
-274.399	-122.515	0.180	-0.029
-273.384	66.338	-0.247	0.252
-272.370	566.825	0.101	-0.246
-271.355	-200.000	-0.037	-0.205
-270.340	800.000	0.024	0.090
-269.326	151.470	-0.120	-0.163
-268.311	257.535	-0.032	-0.054
-267.297	-51.762	0.410	0.191
-266.282	-200.000	-0.094	0.000
-265.267	-196.230	-0.148	-0.001
-264.253	-136.460	0.193	0.022
-263.238	502.938	0.020	0.047
-262.224	77.140	0.095	0.101
-261.209	700.388	-0.155	-0.409
-260.195	800.000	-0.094	-0.379
-259.180	-154.748	0.380	-0.025
-258.165	330.620	0.106	0.205
-257.151	40.145	0.293	0.264
-256.136	-17.017	-0.188	-0.119
-255.122	-92.982	-0.494	0.138
-254.107	57.765	0.189	-0.185
-253.092	110.201	0.249	-0.299
-252.078	-200.000	-0.010	-0.181
-251.063	83.227	-0.069	0.075
-250.049	138.353	0.146	0.191
-249.034	129.657	-0.093	0.119
-248.019	561.502	0.084	0.204
-247.005	21.915	0.124	-0.101
-245.990	77.789	0.417	0.445
-244.976	-200.000	0.034	0.438
-243.961	-127.777	0.267	-0.039
-242.946	137.500	0.146	-0.191
-241.932	-200.000	-0.002	0.142
-240.917	-200.000	-0.024	0.246
-239.903	-185.225	0.292	-0.005
-238.888	-97.454	0.263	0.068
-237.873	-200.000	-0.041	0.441
-236.859	-120.563	0.042	-0.007
-235.844	115.626	0.169	0.207
-234.830	800.000	0.069	0.202
-233.815	-49.140	-0.146	-0.070
-232.800	-200.000	0.016	-0.219
-231.786	-148.048	0.271	0.022
-230.771	-69.156	0.221	-0.085
-229.757	800.000	-0.032	0.121
-228.742	-71.020	-0.290	-0.109
-227.727	-198.391	0.299	-0.002
-226.713	-78.334	0.273	0.094
-225.698	176.366	0.363	-0.527
-224.684	-200.000	0.006	-0.115
-223.669	557.869	-0.109	0.263
-222.655	61.252	-0.153	0.152
-221.640	87.875	-0.149	0.165
-220.625	-200.000	-0.023	-0.294
-219.611	653.303	-0.055	-0.142
-218.596	-49.441	-0.186	0.089
-217.582	94.366	-0.055	-0.063
-216.567	351.969	0.056	0.111
-215.552	154.845	0.173	-0.238
-214.538	476.931	0.077	-0.174
-213.523	-36.713	0.195	-0.105
-212.509	279.796	0.056	-0.099
-211.494	800.000	0.044	0.131
-210.479	515.050	0.035	0.082
-209.465	377.298	-0.113	0.230
-208.450	-34.434	-0.153	0.084
-207.436	198.679	0.013	-0.020
-206.421	-69.298	0.213	-0.082
-205.406	4.507	-0.047	0.035
-204.392	-161.655	0.488	-0.025
-203.377	-200.000	0.018	-0.105
-202.363	190.522	0.064	-0.096
-201.348	-200.000	-0.003	-0.082
-200.333	-200.000	-0.043	-0.361
-199.319	800.000	-0.057	-0.239
-198.304	800.000	0.061	-0.215
-197.290	-46.110	0.220	-0.108
-196.275	800.000	0.096	-0.293
-195.260	-64.023	0.203	0.083
-194.246	-66.450	-0.319	-0.126
-193.231	-200.000	-0.013	0.289
-192.217	502.978	-0.163	0.377
-191.202	-118.562	-0.293	0.052
-190.187	-200.000	0.024	-0.193
-189.173	-63.259	0.290	0.119
-188.158	-200.000	0.032	-0.227
-187.144	-127.986	-0.354	0.051
-186.129	247.371	-0.037	-0.063
-185.114	132.820	0.182	0.234
-184.100	-174.054	-0.067	0.002
-183.085	-48.163	-0.079	0.038
-182.071	191.390	-0.125	0.188
-181.056	-123.457	0.218	0.035
-180.042	432.463	-0.065	0.142
-179.027	417.469	-0.085	-0.181
-178.012	615.698	0.027	-0.067
-176.998	46.289	0.235	0.217
-175.983	-115.897	-0.235	0.044
-174.969	800.000	0.032	0.101
-173.954	-40.181	-0.172	0.089
-172.939	-58.678	0.204	-0.088
-171.925	-94.026	-0.312	0.086
-170.910	3.816	-0.242	0.176
-169.896	40.841	-0.113	0.102
-168.881	800.000	-0.041	-0.126
-167.866	15.732	-0.211	-0.165
-166.852	112.639	-0.091	-0.110
-165.837	68.908	-0.200	-0.204
-164.823	800.000	-0.018	0.070
-163.808	-200.000	0.010	0.110
-162.793	261.694	0.152	-0.262
-161.779	361.156	0.071	-0.142
-160.764	-64.139	-0.314	-0.128
-159.750	369.313	-0.085	0.172
-158.735	800.000	0.078	-0.266
-157.720	349.442	-0.224	0.441
-156.706	800.000	-0.082	0.237
-155.691	-109.432	-0.292	0.061
-154.677	-183.614	0.030	0.001
-153.662	66.645	0.115	0.116
-152.647	-71.903	-0.148	-0.055
-151.633	-39.981	0.130	0.068
-150.618	-37.335	-0.105	-0.056
-149.604	-132.961	0.059	0.007
-148.589	572.950	-0.081	0.196
-147.574	-140.853	-0.231	-0.024
-146.560	168.513	0.085	0.120
-145.545	409.935	-0.058	0.121
-144.531	-42.022	-0.219	0.112
-143.516	-122.232	0.041	-0.007
-142.502	-96.339	-0.444	-0.117
-141.487	588.442	0.060	0.146
-140.472	7.854	-0.396	-0.296
-139.458	-138.572	0.149	-0.016
-138.443	-200.000	-0.024	-0.327
-137.429	-115.723	0.164	0.031
-136.414	9.969	0.253	0.191
-135.399	246.635	0.065	-0.110
-134.385	-59.146	-0.301	-0.129
-133.370	-95.429	-0.343	-0.092
-132.356	-115.890	-0.112	0.021
-131.341	-200.000	-0.010	0.257
-130.326	800.000	-0.067	0.213
-129.312	-182.603	0.301	-0.005
-128.297	-99.369	0.119	0.030
-127.283	-200.000	0.023	-0.224
-126.268	33.107	-0.186	0.161
-125.253	-96.569	0.464	0.122
-124.239	209.299	-0.051	0.080
-123.224	28.590	0.310	0.261
-122.210	163.885	-0.029	0.041
-121.195	-50.418	0.105	-0.050
-120.180	-200.000	-0.021	0.176
-119.166	800.000	-0.066	0.218
-118.151	174.407	0.125	0.180
-117.137	-35.569	0.143	-0.077
-116.122	-110.390	0.319	0.066
-115.107	800.000	-0.132	-0.420
-114.093	534.739	-0.109	-0.258
-113.078	-2.776	-0.160	-0.111
-112.064	590.221	-0.015	-0.037
-111.049	-200.000	-0.022	0.358
-110.034	-154.381	-0.250	-0.017
-109.020	357.879	0.073	-0.144
-108.005	-112.795	0.337	-0.066
-106.991	-54.518	0.272	0.122
-105.976	-147.146	0.193	-0.016
-104.962	251.987	-0.007	-0.012
-103.947	153.213	0.064	-0.087
-102.932	-75.039	-0.221	-0.079
-101.918	-200.000	-0.007	-0.164
-100.903	-200.000	-0.001	-0.014
-99.889	237.244	0.192	-0.317
-98.874	-151.836	0.436	-0.032
-97.859	114.153	-0.089	-0.108
-96.845	-37.411	-0.242	0.128
-95.830	-43.838	0.220	-0.110
-94.816	48.689	-0.214	-0.200
-93.801	-71.690	0.307	0.114
-92.786	800.000	-0.098	0.294
-91.772	52.493	-0.245	0.232
-90.757	270.962	-0.058	0.101
-89.743	-39.388	-0.201	-0.105
-88.728	2.774	0.154	-0.111
-87.713	-200.000	-0.003	-0.349
-86.699	-178.860	-0.073	0.002
-85.684	800.000	-0.024	-0.090
-84.670	-200.000	0.006	-0.091
-83.655	153.541	-0.131	-0.178
-82.640	-70.116	-0.125	0.047
-81.626	800.000	0.093	-0.275
-80.611	-139.631	0.052	0.006
-79.597	607.296	-0.049	-0.121
-78.582	139.497	0.203	0.265
-77.567	-200.000	0.057	0.368
-76.553	89.601	0.179	0.198
-75.538	-200.000	0.068	0.323
-74.524	120.870	0.123	0.152
-73.509	665.480	-0.038	-0.098
-72.494	-45.646	-0.334	0.164
-71.480	-80.198	0.150	0.050
-70.465	-200.000	0.025	-0.200
-69.451	183.844	0.015	0.022
-68.436	106.172	-0.068	-0.080
-67.422	800.000	-0.106	0.312
-66.407	20.635	-0.289	0.233
-65.392	139.414	-0.033	-0.043
-64.378	-50.800	0.165	0.077
-63.363	-200.000	-0.045	0.466
-62.349	-20.600	0.219	0.133
-61.334	147.382	-0.905	-1.209
-60.319	119.176	0.486	0.597
-59.305	-200.000	-0.167	-1.286
-58.290	54.536	0.763	0.730
-57.276	800.000	0.365	1.492
-56.261	-200.000	92.825	544.612
-55.246	594.453	1383.848	3397.611
-54.232	186.819	2592.895	3834.629
-53.217	121.305	2196.615	2715.560
-52.203	46.650	1645.812	1516.810
-51.188	38.655	1379.378	1221.625
-50.173	35.353	1336.077	1163.241
-49.159	55.908	1383.095	1331.400
-48.144	59.902	1401.397	1373.586
-47.130	39.078	1357.212	1204.395
-46.115	35.327	1339.366	1165.761
-45.100	35.193	1334.498	1160.665
-44.086	35.008	1332.130	1157.443
-43.071	35.003	1330.083	1155.591
-42.057	34.923	1328.050	1153.293
-41.042	34.958	1325.994	1151.673
-40.027	34.998	1324.799	1150.829
-39.013	35.125	1322.412	1149.477
-37.998	35.102	1320.586	1147.703
-36.984	35.166	1318.874	1146.551
-35.969	35.219	1316.981	1145.179
-34.954	35.271	1314.974	1143.696
-33.940	35.202	1314.055	1142.440
-32.925	35.267	1312.135	1141.113
-31.911	35.301	1311.019	1140.303
-30.896	35.327	1309.926	1139.462
-29.881	35.348	1308.242	1138.073
-28.867	35.340	1306.634	1136.583
-27.852	35.247	1305.421	1134.934
-26.838	35.299	1303.323	1133.369
-25.823	35.274	1302.391	1132.366
-24.809	35.225	1301.054	1130.874
-23.794	35.309	1299.624	1130.080
-22.779	35.176	1298.567	1128.334
-21.765	35.254	1296.911	1127.304
-20.750	35.080	1296.439	1125.828
-19.736	35.119	1294.591	1124.411
-18.721	35.074	1293.581	1123.224
-17.706	35.182	1291.889	1122.342
-16.692	35.081	1290.651	1120.628
-15.677	35.134	1289.502	1119.895
-14.663	35.079	1288.658	1118.801
-13.648	34.990	1287.253	1117.012
-12.633	35.059	1286.590	1116.796
-11.619	35.111	1285.735	1116.318
-10.604	35.003	1284.921	1114.937
-9.590	35.106	1283.582	1114.325
-8.575	35.013	1283.117	1113.338
-7.560	35.000	1282.300	1112.510
-6.546	35.003	1281.487	1111.779
-5.531	35.054	1280.236	1110.945
-4.517	35.086	1279.099	1110.098
-3.502	35.051	1278.522	1109.350
-2.487	34.977	1278.121	1108.529
-1.473	35.183	1273.480	1105.650
-0.458	34.482	1259.218	1089.220
0.556	30.320	1241.994	1054.097
1.571	26.770	1247.030	1037.990
2.586	25.411	1261.623	1042.167
3.600	24.084	1250.299	1025.085
4.615	18.310	1175.966	932.695
5.629	9.374	1098.841	825.763
6.644	5.376	1077.484	789.484
7.659	4.964	1074.776	785.355
8.673	4.989	1072.844	783.999
9.688	4.862	1071.773	782.506
10.702	5.184	1070.223	782.925
11.717	10.423	1078.172	815.079
12.731	17.752	1088.109	859.588
13.746	19.405	1089.479	868.929
14.761	18.113	1087.225	860.557
15.775	16.924	1085.027	852.763
16.790	15.761	1082.881	845.165
17.804	15.101	1080.968	840.284
18.819	14.749	1079.730	837.481
19.834	14.527	1078.675	835.478
20.848	14.343	1077.516	833.584
21.863	14.062	1076.977	831.692
22.877	13.845	1076.284	829.997
23.892	13.798	1075.737	829.266
24.907	13.796	1075.204	828.774
25.921	14.016	1073.564	828.530
26.936	14.023	1072.167	827.417
27.950	13.947	1071.229	826.238
28.965	14.082	1069.359	825.392
29.980	14.194	1067.971	824.803
30.994	14.176	1066.765	823.714
32.009	14.168	1065.988	822.998
33.023	14.133	1064.893	821.911
34.038	14.038	1063.854	820.566
35.053	14.053	1063.065	819.955
36.067	14.068	1061.745	818.938
37.082	14.145	1061.117	818.763
38.096	14.047	1060.250	817.540
39.111	14.062	1060.067	817.401
40.126	13.972	1058.383	815.585
41.140	13.842	1057.249	814.005
42.155	13.781	1055.579	812.346
43.169	13.820	1054.619	811.729
44.184	13.815	1053.885	811.069
45.199	13.861	1052.147	809.881
46.213	13.805	1051.788	809.259
47.228	13.921	1050.675	808.898
48.242	13.940	1049.468	807.991
49.257	13.957	1048.611	807.339
50.271	13.989	1047.838	806.827
51.286	14.023	1047.119	806.371
52.301	13.946	1045.825	804.927
53.315	13.906	1044.733	803.824
54.330	13.881	1043.727	802.855
55.344	13.840	1042.714	801.807
56.359	13.897	1041.830	801.334
57.374	13.797	1041.035	800.167
58.388	13.849	1039.781	799.386
59.403	13.840	1039.210	798.833
60.417	13.782	1038.382	797.844
61.432	13.833	1037.433	797.289
62.447	13.612	1037.037	795.854
63.461	13.704	1036.062	795.478
64.476	13.686	1035.302	794.738
65.490	13.707	1034.141	793.876
66.505	13.623	1033.846	793.178
67.520	13.678	1033.120	792.815
68.534	13.882	1032.259	793.055
69.549	13.796	1031.233	791.789
70.563	13.860	1030.338	791.338
71.578	13.761	1029.468	790.127
72.593	13.725	1028.648	789.254
73.607	13.594	1028.399	788.372
74.622	13.599	1027.877	787.925
75.636	13.673	1027.482	787.902
76.651	13.723	1026.483	787.306
77.666	13.694	1025.509	786.351
78.680	13.741	1024.992	786.106
79.695	13.730	1024.320	785.472
80.709	13.767	1023.696	785.100
81.724	13.810	1023.089	784.767
82.739	13.864	1022.398	784.420
83.753	13.877	1021.962	784.078
84.768	14.135	1020.645	784.219
85.782	14.059	1019.890	783.209
86.797	14.057	1019.141	782.556
87.812	13.988	1018.081	781.348
88.826	14.081	1016.800	780.733
89.841	14.059	1015.826	779.811
90.855	13.997	1015.180	778.957
91.870	13.997	1014.756	778.565
92.884	14.164	1013.576	778.371
93.899	14.089	1012.747	777.314
94.914	14.197	1011.943	777.134
95.928	14.178	1011.171	776.381
96.943	14.167	1010.197	775.514
97.957	14.061	1009.606	774.498
98.972	14.072	1008.550	773.673
99.987	14.129	1007.408	772.993
101.001	14.018	1006.843	771.972
102.016	14.090	1005.592	771.279
103.030	14.079	1005.260	770.908
104.045	13.967	1004.510	769.745
105.060	14.218	1002.912	769.611
106.074	13.871	1002.438	767.575
107.089	13.904	1001.139	766.667
108.103	13.819	1000.465	765.689
109.118	13.735	999.805	764.730
110.133	13.816	998.583	764.098
111.147	13.856	997.486	763.376
112.162	13.873	997.068	763.068
113.176	13.853	996.330	762.345
114.191	13.775	995.539	761.312
115.206	14.023	994.379	761.497
116.220	13.972	993.491	760.513
117.235	13.951	992.400	759.518
118.249	13.809	992.036	758.523
119.264	13.929	991.310	758.447
120.279	13.887	990.158	757.306
121.293	13.832	989.148	756.216
122.308	13.845	988.448	755.675
123.322	13.842	987.178	754.621
124.337	13.791	986.449	753.767
125.352	13.794	985.273	752.818
126.366	13.722	984.065	751.501
127.381	13.759	983.495	751.166
128.395	13.786	982.625	750.558
129.410	13.824	981.765	750.004
130.424	13.981	980.703	749.835
131.439	13.954	979.931	749.057
132.454	13.958	979.553	748.718
133.468	13.981	978.359	747.844
134.483	13.929	977.261	746.704
135.497	13.932	976.944	746.411
136.512	13.978	976.079	745.889
137.527	14.043	974.863	745.189
138.541	14.022	974.353	744.637
139.556	14.056	973.565	744.123
140.570	14.147	973.071	744.084
141.585	14.175	972.026	743.343
142.600	14.207	971.373	742.925
143.614	14.222	970.352	742.142
144.629	14.277	969.468	741.645
145.643	14.221	968.442	740.546
146.658	14.178	967.066	739.238
147.673	14.082	966.362	738.208
148.687	14.023	965.441	737.176
149.702	13.914	964.916	736.230
150.716	14.061	963.759	735.930
151.731	14.075	962.889	735.261
152.746	14.105	962.184	734.792
153.760	13.951	962.257	734.104
154.775	14.144	961.519	734.328
155.789	14.346	960.612	734.462
156.804	14.219	959.975	733.351
157.819	14.125	959.794	732.733
158.833	14.231	958.854	732.418
159.848	14.418	957.733	732.317
160.862	14.259	956.979	730.975
161.877	14.057	955.963	729.248
162.892	14.162	954.840	728.788
163.906	14.184	953.718	727.965
164.921	14.195	952.951	727.362
165.935	14.022	952.522	726.213
166.950	14.173	951.483	726.018
167.964	14.293	950.271	725.551
168.979	14.143	949.738	724.426
169.994	14.121	948.923	723.646
171.008	14.232	948.174	723.493
172.023	14.310	947.546	723.286
173.037	14.425	946.632	723.026
174.052	14.324	945.721	721.830
175.067	14.240	945.217	721.016
176.081	14.180	944.866	720.423
177.096	14.300	943.859	720.110
178.110	14.222	943.471	719.414
179.125	14.297	942.918	719.256
180.140	14.290	942.365	718.738
181.154	14.339	942.041	718.638
182.169	14.478	941.352	718.649
183.183	14.257	941.325	717.610
184.198	14.494	940.074	717.615
185.213	14.431	939.330	716.714
186.227	14.462	938.615	716.236
187.242	14.453	938.315	715.907
188.256	14.526	937.817	715.774
189.271	14.475	936.854	714.759
190.286	14.371	935.880	713.509
191.300	14.262	935.220	712.476
192.315	14.150	934.569	711.437
193.329	14.227	934.058	711.314
194.344	14.311	933.060	710.850
195.359	14.465	932.623	711.112
196.373	14.471	932.050	710.634
197.388	14.594	931.620	710.768
198.402	14.605	931.278	710.491
199.417	14.717	930.689	710.456
200.432	14.703	929.866	709.707
201.446	14.767	929.480	709.620
202.461	14.716	929.155	709.093
203.475	14.808	928.669	709.050
204.490	14.711	927.148	707.415
205.504	14.634	926.482	706.519
206.519	14.664	925.779	706.045
207.534	14.739	924.887	705.619
208.548	14.838	924.290	705.522
209.563	14.788	923.827	704.893
210.577	14.857	923.005	704.497
211.592	14.811	922.872	704.136
212.607	14.900	921.804	703.633
213.621	14.960	921.028	703.233
214.636	14.964	920.534	702.808
215.650	14.867	919.889	701.850
216.665	15.008	919.209	701.858
217.680	15.047	917.979	701.021
218.694	14.955	917.906	700.516
219.709	14.923	917.169	699.758
220.723	15.082	916.217	699.636
221.738	15.049	915.577	698.946
222.753	15.107	914.637	698.410
223.767	15.150	914.193	698.188
224.782	15.089	913.950	697.686
225.796	15.074	913.374	697.122
226.811	15.066	913.044	696.777
227.826	15.103	911.996	696.068
228.840	15.078	910.993	695.138
229.855	15.061	910.167	694.375
230.869	14.960	909.455	693.351
231.884	14.957	908.846	692.813
232.899	15.005	908.163	692.432
233.913	14.998	907.448	691.797
234.928	15.005	906.688	691.182
235.942	14.963	906.079	690.485
236.957	15.130	905.229	690.462
237.972	15.135	904.711	690.028
238.986	14.929	904.472	688.936
240.001	14.970	903.673	688.437
241.015	15.075	902.980	688.280
242.030	14.996	902.805	687.761
243.045	15.146	901.889	687.618
244.059	15.186	901.506	687.427
245.074	15.155	900.824	686.722
246.088	15.300	900.197	686.774
247.103	15.289	899.423	686.078
248.117	15.250	899.251	685.729
249.132	15.507	898.221	685.930
250.147	15.346	898.046	685.080
251.161	15.545	897.148	685.145
252.176	15.623	896.640	685.014
253.190	15.670	895.682	684.413
254.205	15.576	895.469	683.810
255.220	15.587	894.611	683.135
256.234	15.646	893.764	682.670
257.249	15.815	892.749	682.521
258.263	15.720	892.030	681.523
259.278	15.539	892.130	680.805
260.293	15.732	891.374	680.949
261.307	15.793	890.732	680.646
262.322	15.764	890.186	680.051
263.336	15.770	889.178	679.248
264.351	15.750	888.630	678.688
265.366	15.832	888.236	678.658
266.380	15.864	887.363	678.058
267.395	15.770	886.910	677.274
268.409	15.804	885.766	676.478
269.424	15.805	884.910	675.768
270.439	15.809	884.367	675.311
271.453	15.665	883.953	674.354
272.468	15.738	883.311	674.099
273.482	15.680	883.011	673.577
274.497	15.785	882.070	673.220
275.512	15.761	881.488	672.619
276.526	15.831	881.071	672.523
277.541	15.742	880.792	671.893
278.555	15.845	880.205	671.801
279.570	15.977	879.202	671.501
280.585	15.898	878.444	670.546
281.599	15.951	877.468	669.954
282.614	15.917	876.947	669.361
283.628	15.959	876.263	668.947
284.643	15.969	875.806	668.580
285.657	15.975	874.828	667.797
286.672	15.871	874.873	667.359
287.687	16.047	873.607	667.031
288.701	15.999	873.360	666.593
289.716	15.992	872.899	666.157
290.730	16.129	871.902	665.877
291.745	15.984	872.029	665.344
292.760	16.097	870.864	664.839
293.774	16.218	870.517	664.994
294.789	16.122	869.729	663.956
295.803	16.084	868.625	662.903
296.818	16.178	868.030	662.760
297.833	16.116	867.347	661.936
298.847	16.081	867.013	661.485
299.862	16.176	866.554	661.450
300.876	16.231	865.524	660.821
301.891	16.296	865.495	660.996
302.906	16.287	865.109	660.604
303.920	16.353	864.374	660.244
304.935	16.509	863.576	660.186
305.949	16.398	862.859	659.147
306.964	16.316	862.589	658.561
307.979	16.403	861.908	658.323
308.993	16.350	861.675	657.878
310.008	16.463	860.905	657.673
311.022	16.552	859.990	657.262
312.037	16.394	859.526	656.237
313.052	16.308	858.918	655.380
314.066	16.354	858.521	655.198
315.081	16.175	858.180	654.183
316.095	16.258	857.481	653.915
317.110	16.252	856.792	653.309
318.125	16.297	856.053	652.862
319.139	16.448	855.686	653.108
320.154	16.246	855.479	652.111
321.168	16.380	854.853	652.093
322.183	16.455	854.022	651.693
323.197	16.458	853.505	651.251
324.212	16.463	853.179	650.963
325.227	16.462	852.567	650.434
326.241	16.382	851.838	649.512
327.256	16.412	851.189	649.077
328.270	16.310	851.025	648.504
329.285	16.305	850.225	647.816
330.300	16.583	848.996	647.887
331.314	16.466	848.885	647.299
332.329	16.674	848.573	647.797
333.343	16.560	848.142	646.977
334.358	16.498	847.549	646.230
335.373	16.613	846.862	646.089
336.387	16.531	847.105	645.901
337.402	16.665	846.753	646.087
338.416	16.801	846.473	646.337
339.431	16.732	846.031	645.678
340.446	16.703	845.524	645.122
341.460	16.823	845.001	645.125
342.475	16.715	845.041	644.687
343.489	16.969	844.239	644.984
344.504	16.859	843.886	644.239
345.519	17.028	843.320	644.394
346.533	16.920	842.741	643.484
347.548	16.961	842.053	643.055
348.562	16.838	841.587	642.179
349.577	16.735	840.925	641.226
350.592	16.743	839.989	640.485
351.606	16.896	839.339	640.510
352.621	16.845	838.815	639.861
353.635	16.860	838.469	639.597
354.650	17.075	837.444	639.569
355.665	16.947	837.157	638.811
356.679	16.944	836.754	638.435
357.694	17.027	835.569	637.788
358.708	17.009	834.903	637.155
359.723	17.033	834.379	636.788
360.738	16.938	834.290	636.309
361.752	17.082	833.181	635.948
362.767	17.217	832.720	636.043
363.781	17.128	832.412	635.420
364.796	17.086	832.232	635.066
365.810	17.263	831.896	635.418
366.825	17.393	831.284	635.380
367.840	17.365	830.453	634.582
368.854	17.249	830.423	634.072
369.869	17.365	829.606	633.822
370.883	17.373	829.406	633.644
371.898	17.354	829.021	633.225
372.913	17.552	828.308	633.360
373.927	17.375	828.125	632.505
374.942	17.405	827.701	632.237
375.956	17.430	827.080	631.801
376.971	17.426	827.109	631.752
377.986	17.557	826.581	631.776
379.000	17.471	826.145	631.069
380.015	17.556	825.271	630.662
381.029	17.568	824.557	630.102
382.044	17.585	824.121	629.778
383.059	17.592	823.997	629.655
384.073	17.494	822.891	628.389
385.088	17.603	821.907	627.985
386.102	17.477	821.790	627.374
387.117	17.369	821.604	626.781
388.132	17.455	820.703	626.353
389.146	17.718	820.112	626.814
390.161	17.626	819.820	626.199
391.175	17.575	819.243	625.513
392.190	17.562	818.596	624.916
393.205	17.550	818.187	624.505
394.219	17.630	817.950	624.565
395.234	17.515	817.243	623.548
396.248	17.570	816.929	623.453
397.263	17.407	816.600	622.550
398.278	17.281	816.369	621.857
399.292	17.391	815.745	621.730
400.307	17.525	815.387	621.891
401.321	17.652	814.647	621.736
402.336	17.547	814.357	621.078
403.350	17.505	813.945	620.554
404.365	17.575	813.554	620.454
405.380	17.742	813.105	620.667
406.394	17.887	812.521	620.693
407.409	17.841	812.227	620.246
408.423	18.100	811.728	620.752
409.438	17.836	811.865	619.842
410.453	17.806	811.312	619.258
411.467	18.098	810.559	619.686
412.482	18.078	810.360	619.406
413.496	18.049	810.043	619.003
414.511	17.964	809.349	618.109
415.526	18.092	808.880	618.160
416.540	18.028	808.417	617.521
417.555	18.117	807.981	617.454
418.569	18.215	807.296	617.230
419.584	18.020	807.224	616.419
420.599	18.045	806.754	616.094
421.613	151.487	1369.968	1787.084
422.628	131.400	1452.026	1787.195
