DTS Sentinel unit serial number:	SN413079Multiplexer serial number:	ORYXHardware model number:	OX4-SRSoftware version number:	ORYX F/W v4.00 Oryx Data Collector v3.7.2.0data status	okinstallation	princeton_trtdifferential loss correction	single-endedforward channel	channel 1reverse channel	N/Adate	2019/09/17time	05:54:35forward acquisition time	60.00reverse acquisition time	0.00gamma	496.2192k internal	0.2326k external	0.2326temperature offset calibration	0.9966default loss term (dB/km)	0.3790temperature slope calibration	1.0000multiplexer offset coefficient	1.0000multiplexer slope coefficient	1.0000fibre end	0.00T internal ref (°C)	28.87T ext. ref 1 (°C)	0.14T ext. ref 2 (°C)	22.61length (m)	temperature (°C)	Stokes	anti-Stokes-747.200	-178.542	0.318	-0.007
-746.185	37.581	0.158	0.141
-745.171	800.000	-0.067	-0.250
-744.156	-13.544	-0.300	0.196
-743.142	-144.633	0.035	-0.003
-742.127	-27.311	0.156	0.092
-741.112	509.302	-0.130	0.306
-740.098	122.521	-0.067	0.084
-739.083	-158.872	-0.494	-0.028
-738.069	-41.953	0.172	-0.089
-737.054	-200.000	0.008	0.093
-736.039	795.367	-0.046	-0.128
-735.025	51.568	0.137	0.131
-734.010	-106.899	0.086	-0.019
-732.996	82.204	-0.127	-0.139
-731.981	800.000	-0.007	0.027
-730.966	69.042	0.196	-0.203
-729.952	-200.000	-0.006	-0.163
-728.937	-151.372	-0.180	-0.014
-727.923	12.132	0.069	-0.054
-726.908	800.000	0.078	0.264
-725.894	-200.000	0.028	0.206
-724.879	-177.967	0.124	0.003
-723.864	-200.000	0.015	-0.152
-722.850	-190.179	-0.358	-0.004
-721.835	375.488	-0.117	-0.239
-720.821	15.625	-0.180	-0.143
-719.806	-200.000	-0.044	-0.262
-718.791	-25.369	0.083	0.049
-717.777	205.784	0.126	-0.198
-716.762	-65.507	-0.124	-0.050
-715.748	178.270	-0.194	-0.286
-714.733	800.000	0.010	0.036
-713.718	443.859	0.080	-0.176
-712.704	64.975	-0.119	0.121
-711.689	11.570	0.316	-0.244
-710.675	800.000	-0.056	-0.167
-709.660	46.488	-0.229	-0.214
-708.645	-149.727	-0.266	-0.021
-707.631	38.824	-0.137	-0.124
-706.616	-200.000	-0.029	-0.165
-705.602	-159.565	-0.165	0.009
-704.587	800.000	0.036	0.131
-703.572	-155.154	0.273	0.018
-702.558	24.781	-0.119	-0.100
-701.543	121.100	0.151	-0.189
-700.529	-129.297	-0.130	-0.018
-699.514	151.626	-0.050	0.068
-698.499	-200.000	0.005	-0.354
-697.485	28.824	-0.011	0.010
-696.470	-106.407	-0.270	0.061
-695.456	-200.000	0.018	-0.416
-694.441	134.407	0.067	-0.087
-693.426	-57.788	-0.171	-0.075
-692.412	-182.496	-0.136	-0.003
-691.397	30.805	0.323	-0.279
-690.383	27.728	-0.214	-0.181
-689.368	-102.505	0.043	0.010
-688.354	-30.535	-0.052	-0.030
-687.339	800.000	0.055	0.195
-686.324	130.721	0.089	0.115
-685.310	699.747	0.039	0.103
-684.295	9.391	-0.042	-0.032
-683.281	81.204	-0.271	-0.294
-682.266	800.000	-0.033	0.106
-681.251	-200.000	-0.022	-0.205
-680.237	-134.937	-0.449	-0.055
-679.222	-119.420	-0.147	-0.026
-678.208	53.262	0.154	0.148
-677.193	-75.897	-0.063	-0.022
-676.178	-23.108	0.191	-0.115
-675.164	-68.667	-0.272	0.106
-674.149	-133.428	-0.326	0.041
-673.135	-200.000	-0.485	-0.001
-672.120	-110.970	-0.224	-0.046
-671.105	332.057	-0.076	0.148
-670.091	41.774	-0.138	0.126
-669.076	-14.108	0.383	0.249
-668.062	358.465	-0.078	-0.157
-667.047	141.169	0.177	-0.235
-666.032	-19.798	0.177	0.110
-665.018	81.294	0.257	0.279
-664.003	-200.000	-0.036	-0.250
-662.989	61.027	-0.080	-0.079
-661.974	-200.000	0.009	-0.366
-660.959	194.409	0.232	-0.354
-659.945	-31.731	-0.273	-0.154
-658.930	4.439	-0.125	-0.092
-657.916	-5.522	-0.108	-0.075
-656.901	-200.000	-0.006	-0.310
-655.886	-160.291	-0.124	0.007
-654.872	50.456	-0.278	0.264
-653.857	14.225	0.226	-0.177
-652.843	-115.015	-0.093	-0.018
-651.828	-58.160	0.291	-0.128
-650.814	255.984	-0.054	-0.093
-649.799	-96.453	0.177	-0.047
-648.784	800.000	-0.021	-0.060
-647.770	-200.000	0.024	0.293
-646.755	-0.054	-0.381	0.273
-645.741	9.580	0.173	0.132
-644.726	-20.949	-0.270	-0.166
-643.711	-27.227	0.165	-0.097
-642.697	-29.522	0.229	-0.131
-641.682	-56.659	0.261	-0.116
-640.668	-50.757	0.203	-0.096
-639.653	-41.045	0.499	0.259
-638.638	-89.796	0.173	0.051
-637.624	433.296	0.076	-0.167
-636.609	-200.000	-0.038	-0.371
-635.595	-125.683	-0.302	-0.046
-634.580	331.068	0.066	-0.127
-633.565	-102.415	0.099	0.024
-632.551	323.320	0.093	0.179
-631.536	780.773	-0.069	0.189
-630.522	162.511	-0.163	-0.230
-629.507	389.322	0.096	0.200
-628.492	-105.313	-0.479	0.109
-627.478	36.585	-0.152	0.134
-626.463	-200.000	0.008	0.254
-625.449	417.473	0.118	0.254
-624.434	128.502	0.245	0.313
-623.419	-200.000	-0.017	0.146
-622.405	617.500	0.093	-0.235
-621.390	-200.000	-0.048	-0.308
-620.376	61.882	-0.234	-0.234
-619.361	-17.128	-0.041	-0.026
-618.346	-76.326	0.206	0.073
-617.332	-111.353	0.174	0.036
-616.317	247.782	0.086	-0.146
-615.303	-19.939	-0.125	-0.077
-614.288	53.254	-0.150	0.145
-613.273	-66.407	0.256	0.102
-612.259	164.242	-0.064	0.091
-611.244	-200.000	0.029	-0.427
-610.230	-200.000	0.012	0.067
-609.215	166.425	-0.131	-0.186
-608.201	-200.000	0.004	0.128
-607.186	370.888	-0.119	-0.243
-606.171	-96.964	0.286	-0.075
-605.157	-182.702	-0.203	-0.004
-604.142	-12.300	-0.138	0.091
-603.128	-157.908	0.308	-0.018
-602.113	75.120	-0.125	-0.132
-601.098	360.396	-0.160	-0.321
-600.084	107.594	0.054	0.064
-599.069	-16.241	-0.125	0.079
-598.055	-8.852	0.160	-0.107
-597.040	-19.880	-0.147	-0.091
-596.025	368.182	-0.026	-0.052
-595.011	-75.152	-0.288	-0.103
-593.996	-142.032	0.277	-0.028
-592.982	-89.276	-0.041	0.012
-591.967	-200.000	0.040	-0.362
-590.952	388.842	0.056	-0.116
-589.938	3.926	0.234	0.171
-588.923	800.000	0.061	0.190
-587.909	-182.178	-0.380	-0.007
-586.894	46.365	0.113	0.105
-585.879	800.000	0.076	0.251
-584.865	512.786	-0.035	-0.082
-583.850	800.000	-0.062	-0.258
-582.836	-116.207	0.280	0.052
-581.821	-200.000	0.011	0.299
-580.806	-200.000	-0.009	0.100
-579.792	532.476	-0.036	0.085
-578.777	142.416	-0.124	0.164
-577.763	704.994	-0.111	0.295
-576.748	-3.288	-0.175	0.122
-575.733	167.378	-0.024	0.034
-574.719	-151.851	0.188	-0.014
-573.704	-145.269	0.177	0.016
-572.690	-111.082	-0.395	0.081
-571.675	800.000	0.058	0.251
-570.661	-45.212	0.119	-0.059
-569.646	-50.074	-0.068	-0.032
-568.631	-55.949	-0.151	0.067
-567.617	-15.134	-0.282	0.181
-566.602	17.321	0.320	-0.254
-565.588	800.000	0.113	0.318
-564.573	800.000	-0.132	0.375
-563.558	155.766	-0.082	-0.114
-562.544	-61.568	-0.323	-0.136
-561.529	3.772	-0.296	-0.216
-560.515	-16.583	0.098	0.062
-559.500	-118.592	-0.103	-0.018
-558.485	800.000	-0.084	-0.302
-557.471	-90.726	0.307	0.089
-556.456	-200.000	0.006	-0.055
-555.442	-200.000	0.001	-0.138
-554.427	-135.413	-0.312	-0.037
-553.412	-88.300	-0.204	0.061
-552.398	-5.522	0.182	0.125
-551.383	130.258	-0.058	0.075
-550.369	-132.195	-0.244	0.032
-549.354	1.421	0.203	0.146
-548.339	13.004	0.081	-0.063
-547.325	65.019	-0.011	0.011
-546.310	7.366	0.193	-0.144
-545.296	-186.957	-0.225	-0.003
-544.281	-198.923	-0.084	0.000
-543.266	644.616	0.060	0.154
-542.252	194.836	0.239	-0.362
-541.237	-114.681	-0.225	0.043
-540.223	-32.054	-0.088	0.049
-539.208	-31.499	0.173	-0.097
-538.193	-200.000	0.010	-0.202
-537.179	-8.432	-0.193	-0.130
-536.164	-173.304	-0.459	0.014
-535.150	365.890	0.208	0.418
-534.135	800.000	0.077	-0.265
-533.121	0.159	-0.076	-0.054
-532.106	-76.302	-0.060	0.021
-531.091	6.382	-0.088	0.065
-530.077	-152.148	0.137	0.010
-529.062	-200.000	-0.046	-0.321
-528.048	800.000	0.020	-0.073
-527.033	19.488	-0.048	-0.038
-526.018	23.161	0.119	-0.098
-525.004	-32.466	-0.098	-0.055
-523.989	282.792	0.025	0.044
-522.975	-35.770	0.041	0.022
-521.960	799.950	0.017	0.046
-520.945	-18.990	0.168	-0.104
-519.931	-14.697	0.112	-0.072
-518.916	301.161	0.146	-0.270
-517.902	-200.000	-0.008	-0.264
-516.887	-187.015	0.312	0.004
-515.872	-200.000	-0.015	-0.152
-514.858	-131.616	0.165	-0.022
-513.843	-11.234	0.207	0.137
-512.829	172.118	0.084	0.120
-511.814	354.048	0.152	-0.302
-510.799	-200.000	0.025	-0.426
-509.785	800.000	-0.087	-0.269
-508.770	-184.176	-0.090	0.001
-507.756	59.836	-0.092	-0.091
-506.741	-127.771	-0.125	0.018
-505.726	118.257	-0.033	-0.041
-504.712	40.863	-0.055	-0.049
-503.697	279.030	0.113	-0.202
-502.683	136.866	0.060	0.078
-501.668	13.414	-0.225	-0.174
-500.653	-33.840	0.126	-0.069
-499.639	-34.762	0.025	0.014
-498.624	-200.000	-0.045	0.271
-497.610	370.586	0.185	-0.375
-496.595	-16.707	-0.268	0.169
-495.581	-34.648	-0.166	-0.091
-494.566	-157.033	-0.122	-0.007
-493.551	7.867	-0.298	0.223
-492.537	-137.731	-0.296	0.033
-491.522	800.000	-0.047	-0.198
-490.508	98.796	-0.068	-0.078
-489.493	-200.000	-0.041	0.191
-488.478	211.174	-0.119	0.186
-487.464	66.656	-0.293	0.298
-486.449	-103.053	-0.227	0.054
-485.435	-80.820	0.129	-0.043
-484.420	-36.539	0.183	-0.098
-483.405	297.015	-0.114	0.210
-482.391	51.987	-0.202	0.192
-481.376	53.263	0.213	0.204
-480.362	800.000	-0.039	-0.128
-479.347	-200.000	0.011	-0.118
-478.332	38.269	0.034	0.031
-477.318	-97.852	-0.208	0.054
-476.303	-36.491	-0.201	0.108
-475.289	-200.000	0.032	0.256
-474.274	-113.445	-0.021	-0.004
-473.259	800.000	-0.037	-0.159
-472.245	-200.000	0.033	-0.217
-471.230	28.260	0.218	0.183
-470.216	-21.202	0.275	-0.167
-469.201	651.105	-0.004	-0.011
-468.186	-102.625	0.234	-0.056
-467.172	84.837	-0.163	0.178
-466.157	8.640	-0.128	0.096
-465.143	6.697	-0.280	0.208
-464.128	-200.000	0.045	0.253
-463.113	-133.097	0.220	-0.028
-462.099	-136.477	0.026	-0.003
-461.084	236.360	0.059	-0.097
-460.070	-22.905	-0.179	-0.108
-459.055	800.000	0.013	0.057
-458.040	329.667	0.081	-0.156
-457.026	-117.864	-0.110	0.020
-456.011	90.325	0.142	0.158
-454.997	-122.746	0.280	0.045
-453.982	-98.275	-0.150	0.038
-452.968	24.807	0.307	-0.253
-451.953	-132.517	0.239	-0.031
-450.938	58.175	-0.054	-0.053
-449.924	-142.259	-0.151	0.015
-448.909	-165.373	-0.309	-0.014
-447.895	-84.519	-0.083	0.026
-446.880	-141.625	-0.031	-0.003
-445.865	-75.955	-0.161	-0.057
-444.851	-137.301	0.210	-0.024
-443.836	800.000	0.047	-0.152
-442.822	-50.235	-0.243	-0.115
-441.807	-38.789	0.451	0.237
-440.792	-29.472	0.108	0.062
-439.778	-128.087	-0.360	-0.051
-438.763	-200.000	0.015	-0.093
-437.749	-200.000	0.004	-0.245
-436.734	-74.344	-0.082	0.030
-435.719	-9.205	-0.230	0.153
-434.705	800.000	0.072	-0.230
-433.690	-200.000	0.003	-0.031
-432.676	743.657	0.133	-0.355
-431.661	-62.117	0.218	0.091
-430.646	-200.000	0.093	0.409
-429.632	-72.827	0.142	0.052
-428.617	666.975	0.044	0.112
-427.603	239.415	-0.266	-0.440
-426.588	142.503	-0.064	0.085
-425.573	-79.961	-0.164	0.055
-424.559	-85.243	0.160	0.050
-423.544	-200.000	-0.032	0.197
-422.530	-95.993	-0.233	-0.062
-421.515	143.197	0.024	-0.032
-420.500	-8.901	-0.059	0.040
-419.486	254.234	0.164	-0.279
-418.471	-110.445	-0.340	0.070
-417.457	39.414	0.192	0.171
-416.442	138.368	0.052	0.068
-415.428	-94.584	0.130	0.035
-414.413	175.696	0.249	-0.360
-413.398	-55.630	0.229	0.102
-412.384	800.000	0.099	0.428
-411.369	395.836	0.160	-0.333
-410.355	800.000	-0.064	0.221
-409.340	-102.538	-0.145	0.035
-408.325	153.319	-0.045	-0.062
-407.311	74.536	-0.118	0.123
-406.296	-174.882	0.192	0.005
-405.282	-200.000	-0.010	0.048
-404.267	182.010	-0.381	-0.559
-403.252	158.556	-0.114	-0.157
-402.238	-200.000	0.006	0.283
-401.223	800.000	-0.054	0.170
-400.209	-123.251	-0.111	0.018
-399.194	-96.249	0.252	-0.066
-398.179	-200.000	0.039	0.381
-397.165	556.516	-0.118	0.283
-396.150	-114.118	-0.031	0.006
-395.136	-75.203	0.095	0.034
-394.121	-200.000	-0.045	0.231
-393.106	-63.556	0.125	0.051
-392.092	-75.483	-0.210	0.074
-391.077	-200.000	0.037	-0.185
-390.063	-200.000	0.009	-0.300
-389.048	-58.301	-0.130	-0.056
-388.033	800.000	0.065	0.239
-387.019	-119.552	0.484	0.083
-386.004	157.898	-0.070	0.096
-384.990	-157.906	-0.240	0.014
-383.975	49.699	0.295	0.277
-382.960	149.582	0.079	0.107
-381.946	192.222	0.109	-0.163
-380.931	-49.163	-0.268	0.128
-379.917	197.978	-0.215	0.327
-378.902	-59.870	0.169	0.072
-377.888	237.549	-0.047	0.078
-376.873	-200.000	0.004	0.026
-375.858	-143.329	-0.190	0.018
-374.844	-30.883	0.176	-0.099
-373.829	-113.580	0.214	-0.042
-372.815	-38.627	-0.357	0.188
-371.800	-200.000	-0.034	-0.225
-370.785	301.228	0.003	0.006
-369.771	-200.000	0.014	-0.071
-368.756	337.192	-0.018	-0.035
-367.742	-126.716	-0.074	0.011
-366.727	119.549	-0.117	0.143
-365.712	56.424	-0.075	0.073
-364.698	-7.219	0.123	0.083
-363.683	327.986	-0.077	0.148
-362.669	6.246	0.267	0.197
-361.654	5.866	0.253	0.186
-360.639	70.300	0.199	-0.204
-359.625	-66.672	0.244	-0.096
-358.610	-26.246	-0.234	-0.137
-357.596	-79.182	0.248	0.084
-356.581	-200.000	-0.039	0.225
-355.566	114.382	-0.021	-0.025
-354.552	-67.070	0.134	0.053
-353.537	-8.170	-0.114	-0.076
-352.523	-40.935	0.341	-0.175
-351.508	533.311	-0.132	0.310
-350.493	205.952	0.213	-0.329
-349.479	423.514	0.117	0.250
-348.464	-112.505	-0.199	-0.039
-347.450	13.892	-0.105	-0.081
-346.435	-19.247	0.180	0.111
-345.420	-108.792	-0.101	-0.021
-344.406	-110.277	0.129	0.027
-343.391	101.402	0.128	-0.149
-342.377	-130.878	0.250	-0.033
-341.362	-57.405	0.339	0.148
-340.348	-43.326	0.337	0.169
-339.333	-56.910	-0.184	-0.081
-338.318	-200.000	-0.017	-0.205
-337.304	236.783	0.074	-0.122
-336.289	-122.678	-0.256	-0.041
-335.275	-29.568	-0.318	-0.180
-334.260	-96.921	-0.122	-0.032
-333.245	-200.000	0.070	0.448
-332.231	800.000	0.056	-0.153
-331.216	800.000	-0.127	0.356
-330.202	330.595	-0.101	-0.193
-329.187	-161.347	0.194	-0.010
-328.172	299.721	0.096	0.175
-327.158	57.583	-0.182	0.177
-326.143	-200.000	0.009	0.147
-325.129	75.776	-0.229	-0.240
-324.114	206.554	0.133	0.206
-323.099	32.432	0.119	-0.102
-322.085	-33.887	0.119	0.065
-321.070	82.581	0.209	0.225
-320.056	-117.922	-0.226	-0.040
-319.041	-66.697	0.269	-0.106
-318.026	-4.839	-0.101	0.069
-317.012	-200.000	0.077	-0.390
-315.997	577.493	-0.086	-0.208
-314.983	-200.000	-0.009	-0.384
-313.968	-77.877	0.195	-0.067
-312.953	-15.689	-0.097	0.061
-311.939	544.590	-0.083	-0.197
-310.924	-71.938	-0.293	-0.108
-309.910	23.156	-0.041	-0.033
-308.895	-18.157	-0.282	-0.175
-307.880	16.983	0.118	-0.093
-306.866	328.538	-0.088	-0.167
-305.851	-49.178	0.099	-0.047
-304.837	-12.494	0.129	-0.083
-303.822	63.624	-0.160	0.159
-302.807	-128.446	0.285	0.040
-301.793	178.642	0.265	-0.383
-300.778	261.854	-0.142	-0.244
-299.764	800.000	0.095	-0.302
-298.749	-75.167	0.209	-0.074
-297.735	80.542	0.135	0.144
-296.720	-200.000	-0.013	0.092
-295.705	-183.391	-0.138	0.002
-294.691	800.000	0.081	0.267
-293.676	195.337	-0.103	0.155
-292.662	800.000	-0.022	0.082
-291.647	26.397	-0.204	-0.169
-290.632	-27.800	-0.174	0.100
-289.618	-200.000	0.038	0.262
-288.603	-200.000	0.036	0.205
-287.589	33.538	0.134	-0.115
-286.574	231.742	0.033	0.053
-285.559	5.672	0.069	-0.051
-284.545	-51.757	-0.368	0.170
-283.530	679.692	-0.110	-0.285
-282.516	-101.319	-0.085	0.021
-281.501	-200.000	0.024	-0.364
-280.486	800.000	0.148	-0.410
-279.472	180.943	0.025	-0.037
-278.457	284.389	-0.095	0.169
-277.443	450.741	-0.139	0.303
-276.428	41.238	0.087	-0.078
-275.413	-200.000	-0.010	0.119
-274.399	695.872	0.107	0.279
-273.384	-180.823	0.392	0.008
-272.370	-101.715	-0.028	-0.007
-271.355	-117.980	-0.289	-0.051
-270.340	-103.067	-0.077	0.018
-269.326	162.414	0.270	-0.375
-268.311	800.000	-0.016	0.054
-267.297	87.471	0.136	0.149
-266.282	-29.219	-0.043	0.024
-265.267	-125.878	0.088	-0.013
-264.253	-74.422	0.114	0.041
-263.238	800.000	-0.060	-0.168
-262.224	-160.812	0.162	-0.008
-261.209	-35.213	0.204	0.110
-260.195	428.602	0.062	-0.133
-259.180	317.333	0.050	-0.094
-258.165	-32.304	0.183	-0.101
-257.151	75.701	0.066	0.069
-256.136	139.472	0.259	0.338
-255.122	800.000	-0.084	-0.308
-254.107	-200.000	0.007	0.125
-253.092	-146.350	-0.228	0.020
-252.078	-183.157	-0.314	-0.005
-251.063	119.288	-0.046	-0.056
-250.049	-200.000	-0.035	0.334
-249.034	61.679	-0.040	-0.040
-248.019	-19.954	-0.303	-0.185
-247.005	75.440	-0.145	-0.152
-245.990	-105.146	0.122	-0.028
-244.976	-60.567	0.047	0.020
-243.961	-88.271	-0.227	-0.067
-242.946	-200.000	-0.051	-0.350
-241.932	-200.000	-0.008	-0.158
-240.917	-57.064	-0.240	0.105
-239.903	-61.536	0.074	0.031
-238.888	-70.501	-0.186	0.070
-237.873	383.285	0.090	0.183
-236.859	-127.616	-0.322	-0.046
-235.844	-54.882	-0.021	-0.009
-234.830	-200.000	-0.016	-0.266
-233.815	141.047	0.351	-0.459
-232.800	39.652	0.089	-0.079
-231.786	-143.182	-0.212	-0.020
-230.771	-200.000	0.040	0.198
-229.757	-200.000	0.003	0.228
-228.742	-9.192	0.225	0.149
-227.727	429.675	0.146	0.311
-226.713	800.000	-0.064	0.200
-225.698	-185.174	0.366	-0.006
-224.684	-57.732	-0.219	0.095
-223.669	-96.211	0.162	0.042
-222.655	-98.992	0.132	0.033
-221.640	566.804	-0.132	-0.317
-220.625	-200.000	0.009	0.127
-219.611	-200.000	0.034	0.152
-218.596	-94.592	-0.102	0.027
-217.582	-134.842	-0.433	-0.052
-216.567	205.947	0.081	-0.124
-215.552	168.101	-0.141	0.198
-214.538	383.156	-0.263	0.534
-213.523	-200.000	-0.019	0.178
-212.509	-150.589	-0.360	-0.027
-211.494	-145.802	-0.400	-0.035
-210.479	380.564	0.072	-0.146
-209.465	-200.000	-0.002	0.086
-208.450	-200.000	-0.046	0.336
-207.436	789.143	-0.156	-0.424
-206.421	-200.000	-0.014	0.361
-205.406	179.721	-0.164	0.238
-204.392	56.088	-0.258	-0.247
-203.377	628.461	0.053	-0.133
-202.363	-131.583	-0.468	0.061
-201.348	121.446	-0.111	-0.137
-200.333	71.828	0.282	-0.289
-199.319	800.000	-0.054	-0.198
-198.304	6.534	0.048	-0.036
-197.290	800.000	-0.104	-0.313
-196.275	-55.302	0.194	-0.086
-195.260	-72.147	0.277	0.102
-194.246	31.318	0.252	0.214
-193.231	-3.439	0.233	-0.160
-192.217	13.219	0.189	-0.145
-191.202	-200.000	-0.009	-0.081
-190.187	226.482	-0.237	-0.379
-189.173	-200.000	-0.097	0.641
-188.158	72.991	0.116	0.120
-187.144	24.892	0.153	0.125
-186.129	0.516	-0.206	0.145
-185.114	71.182	0.118	0.121
-184.100	126.326	0.231	0.288
-183.085	800.000	-0.037	-0.123
-182.071	-124.911	-0.117	0.018
-181.056	404.645	0.094	-0.195
-180.042	-87.275	-0.143	-0.043
-179.027	156.528	0.093	0.127
-178.012	-92.412	-0.415	-0.115
-176.998	800.000	0.059	-0.192
-175.983	506.014	0.064	0.147
-174.969	31.590	-0.176	0.149
-173.954	232.630	-0.058	0.095
-172.939	-100.962	0.132	-0.032
-171.925	564.449	-0.062	-0.149
-170.910	298.749	-0.033	-0.059
-169.896	-200.000	0.009	0.120
-168.881	242.343	0.073	-0.120
-167.866	115.868	-0.123	-0.148
-166.852	307.075	-0.101	-0.185
-165.837	-127.402	0.038	0.005
-164.823	800.000	-0.043	-0.125
-163.808	-200.000	-0.029	0.216
-162.793	-34.987	-0.077	0.041
-161.779	-89.293	0.128	0.037
-160.764	37.273	0.181	0.158
-159.750	-89.962	0.379	0.109
-158.735	-35.927	-0.200	-0.107
-157.720	-200.000	-0.004	-0.120
-156.706	-165.422	0.259	0.011
-155.691	98.610	0.186	-0.212
-154.677	389.439	0.063	0.129
-153.662	-100.247	0.415	0.102
-152.647	39.300	0.273	0.241
-151.633	222.050	-0.134	0.212
-150.618	-69.676	-0.215	-0.081
-149.604	-45.351	-0.108	-0.053
-148.589	-57.206	-0.019	0.008
-147.574	-20.751	-0.144	0.087
-146.560	-1.412	-0.284	-0.197
-145.545	44.458	0.150	-0.135
-144.531	104.909	0.060	0.070
-143.516	291.818	0.145	0.260
-142.502	110.858	0.107	-0.127
-141.487	-124.680	0.469	-0.072
-140.472	-135.568	0.099	0.012
-139.458	-107.612	-0.210	0.045
-138.443	-200.000	-0.030	-0.157
-137.429	-200.000	-0.023	-0.221
-136.414	164.642	0.187	-0.260
-135.399	-88.549	0.075	-0.022
-134.385	-48.968	0.377	-0.178
-133.370	-4.737	0.143	0.097
-132.356	-74.394	-0.363	0.129
-131.341	-114.494	0.615	-0.116
-130.326	189.211	0.168	0.248
-129.312	800.000	-0.008	0.022
-128.297	-90.810	-0.335	0.095
-127.283	-89.240	-0.337	0.098
-126.268	71.178	0.218	0.222
-125.253	-114.649	-0.177	-0.033
-124.239	-200.000	0.014	-0.080
-123.224	217.733	0.158	-0.248
-122.210	331.771	0.071	0.134
-121.195	-200.000	-0.004	-0.152
-120.180	-99.081	-0.231	-0.057
-119.166	76.705	-0.246	0.257
-118.151	-200.000	0.037	-0.167
-117.137	-172.091	0.206	-0.007
-116.122	-47.253	-0.237	0.114
-115.107	-200.000	-0.029	0.145
-114.093	-200.000	0.012	-0.070
-113.078	800.000	-0.058	0.176
-112.064	800.000	-0.032	0.097
-111.049	-30.101	-0.119	-0.067
-110.034	800.000	0.069	-0.252
-109.020	-200.000	0.014	-0.077
-108.005	-81.006	-0.239	-0.078
-106.991	411.556	-0.134	-0.281
-105.976	75.592	-0.252	-0.262
-104.962	14.432	-0.148	-0.113
-103.947	85.020	-0.334	0.360
-102.932	-142.914	0.237	0.023
-101.918	-124.106	-0.148	-0.023
-100.903	-200.000	0.001	0.206
-99.889	81.453	-0.088	-0.094
-98.874	-72.318	0.217	-0.079
-97.859	-73.194	0.305	0.110
-96.845	-64.778	-0.007	0.003
-95.830	-107.437	-0.431	0.093
-94.816	-200.000	-0.076	0.488
-93.801	51.989	0.419	-0.393
-92.786	45.202	0.160	0.145
-91.772	-191.247	0.146	-0.001
-90.757	-200.000	0.001	-0.146
-89.743	-154.175	0.083	0.006
-88.728	-200.000	0.052	-0.235
-87.713	-20.931	-0.260	-0.157
-86.699	-21.646	0.340	-0.204
-85.684	-200.000	0.021	-0.174
-84.670	-40.507	0.351	-0.179
-83.655	108.611	0.253	0.297
-82.640	151.847	-0.192	-0.257
-81.626	120.666	-0.079	0.097
-80.611	12.947	0.160	0.122
-79.597	527.373	-0.064	0.147
-78.582	800.000	0.039	-0.165
-77.567	39.398	-0.209	0.184
-76.553	-45.910	0.258	0.125
-75.538	575.593	-0.116	0.279
-74.524	-40.951	0.302	-0.153
-73.509	178.955	0.207	-0.298
-72.494	-50.013	0.201	-0.093
-71.480	-14.667	0.154	-0.097
-70.465	55.364	0.211	0.201
-69.451	-35.590	-0.089	-0.048
-68.436	-200.000	-0.046	-0.246
-67.422	-64.084	0.281	0.113
-66.407	-28.374	0.175	-0.099
-65.392	-200.000	-0.009	-0.084
-64.378	-111.905	0.285	-0.056
-63.363	793.017	0.081	0.219
-62.349	-105.607	0.219	0.049
-61.334	176.557	-0.825	-1.177
-60.319	86.516	0.533	0.577
-59.305	417.007	-0.446	-0.935
-58.290	377.988	0.542	1.087
-57.276	800.000	0.567	1.572
-56.261	-200.000	112.386	631.952
-55.246	451.558	1515.579	3286.893
-54.232	144.403	2686.649	3520.903
-53.217	106.406	2158.127	2510.935
-52.203	40.590	1605.608	1419.944
-51.188	32.397	1348.760	1143.222
-50.173	29.373	1308.869	1091.501
-49.159	55.133	1364.013	1293.683
-48.144	55.014	1379.457	1307.561
-47.130	32.407	1334.576	1131.084
-46.115	29.146	1316.332	1096.202
-45.100	28.904	1311.708	1090.870
-44.086	28.782	1309.472	1088.247
-43.071	28.777	1306.752	1085.911
-42.057	28.763	1304.192	1083.659
-41.042	28.604	1303.170	1081.829
-40.027	28.749	1301.328	1081.114
-39.013	28.720	1299.974	1079.773
-37.998	28.771	1297.426	1077.912
-36.984	28.880	1295.939	1077.273
-35.969	28.965	1294.179	1076.265
-34.954	28.929	1292.249	1074.408
-33.940	28.829	1291.389	1073.069
-32.925	29.066	1290.005	1073.254
-31.911	28.973	1288.312	1071.267
-30.896	28.973	1286.913	1070.061
-29.881	28.984	1285.409	1068.827
-28.867	29.035	1284.432	1068.269
-27.852	29.019	1282.899	1066.858
-26.838	28.918	1281.612	1065.162
-25.823	28.932	1280.217	1064.042
-24.809	28.916	1278.877	1062.793
-23.794	28.933	1277.266	1061.508
-22.779	28.907	1276.286	1060.502
-21.765	29.003	1274.539	1059.563
-20.750	28.994	1273.234	1058.384
-19.736	28.912	1272.195	1057.007
-18.721	28.910	1270.556	1055.591
-17.706	28.852	1269.935	1054.701
-16.692	28.800	1268.953	1053.544
-15.677	28.807	1267.783	1052.573
-14.663	28.773	1266.384	1051.177
-13.648	28.760	1265.658	1050.456
-12.633	28.867	1264.784	1050.301
-11.619	28.787	1263.931	1049.094
-10.604	28.835	1263.101	1048.635
-9.590	28.743	1262.628	1047.676
-8.575	28.848	1261.221	1047.066
-7.560	28.821	1259.897	1045.774
-6.546	28.736	1259.780	1045.150
-5.531	28.789	1258.641	1044.467
-4.517	28.777	1258.095	1043.903
-3.502	28.840	1256.611	1042.985
-2.487	28.901	1255.914	1042.712
-1.473	28.828	1251.450	1038.556
-0.458	27.142	1236.423	1016.621
0.556	21.588	1219.031	976.414
1.571	17.659	1224.836	958.917
2.586	16.744	1238.973	964.687
3.600	16.594	1227.724	955.000
4.615	12.267	1155.120	875.418
5.629	4.258	1080.459	778.678
6.644	0.421	1061.054	745.683
7.659	0.159	1058.951	742.843
8.673	-0.028	1058.556	741.578
9.688	-0.011	1056.451	740.123
10.702	0.223	1054.917	740.131
11.717	5.079	1061.122	768.382
12.731	13.218	1071.600	816.246
13.746	17.028	1075.933	838.328
14.761	16.942	1075.362	837.386
15.775	16.111	1073.250	831.569
16.790	14.938	1071.418	824.301
17.804	14.310	1069.782	819.878
18.819	14.089	1068.440	817.691
19.834	13.705	1067.901	815.319
20.848	13.529	1066.643	813.421
21.863	13.130	1066.234	811.079
22.877	13.164	1064.964	810.205
23.892	13.145	1063.959	809.280
24.907	13.164	1063.475	808.930
25.921	13.126	1063.190	808.457
26.936	13.149	1062.342	807.853
27.950	13.234	1061.163	807.301
28.965	13.187	1060.464	806.468
29.980	13.348	1058.568	805.736
30.994	13.366	1057.581	805.003
32.009	13.354	1057.060	804.479
33.023	13.225	1055.848	802.857
34.038	13.252	1054.641	801.999
35.053	13.182	1053.673	800.851
36.067	13.165	1053.048	800.224
37.082	13.171	1052.057	799.432
38.096	13.300	1051.356	799.451
39.111	13.390	1049.931	798.731
40.126	13.268	1049.131	797.462
41.140	13.190	1048.129	796.255
42.155	13.048	1047.014	794.655
43.169	12.962	1046.249	793.587
44.184	13.134	1044.877	793.306
45.199	13.113	1043.968	792.442
46.213	13.119	1042.769	791.491
47.228	13.158	1042.146	791.134
48.242	13.178	1040.597	789.986
49.257	13.150	1039.896	789.251
50.271	13.167	1038.999	788.580
51.286	13.242	1038.043	788.141
52.301	13.229	1037.042	787.250
53.315	13.100	1036.229	785.950
54.330	13.128	1034.935	785.031
55.344	13.109	1034.379	784.452
56.359	13.166	1033.169	783.736
57.374	13.052	1032.644	782.725
58.388	12.979	1031.782	781.658
59.403	13.094	1031.087	781.606
60.417	13.086	1030.104	780.752
61.432	12.986	1029.344	779.635
62.447	12.970	1028.432	778.799
63.461	12.960	1027.700	778.133
64.476	12.968	1027.097	777.643
65.490	12.879	1026.226	776.496
66.505	13.007	1025.269	776.305
67.520	12.923	1024.793	775.479
68.534	13.110	1023.878	775.597
69.549	12.995	1023.579	774.763
70.563	13.032	1022.405	773.978
71.578	13.033	1021.795	773.454
72.593	12.771	1021.354	771.825
73.607	12.938	1020.226	771.686
74.622	12.905	1019.341	770.791
75.636	12.946	1018.924	770.601
76.651	12.934	1018.421	770.095
77.666	12.986	1017.571	769.626
78.680	13.019	1016.529	768.926
79.695	12.908	1016.406	768.247
80.709	12.976	1015.715	767.975
81.724	13.013	1015.113	767.625
82.739	13.145	1013.924	767.267
83.753	13.268	1013.069	767.126
84.768	13.308	1012.230	766.605
85.782	13.282	1011.134	765.589
86.797	13.311	1010.597	765.251
87.812	13.229	1009.738	764.149
88.826	13.145	1008.534	762.786
89.841	13.208	1007.936	762.556
90.855	13.205	1006.585	761.452
91.870	13.410	1005.913	761.822
92.884	13.340	1004.710	760.521
93.899	13.353	1004.139	760.079
94.914	13.355	1003.719	759.703
95.928	13.439	1002.421	759.040
96.943	13.316	1001.971	758.069
97.957	13.402	1000.740	757.463
98.972	13.189	1000.490	756.230
99.987	13.187	999.624	755.503
101.001	13.280	998.186	754.775
102.016	13.169	997.356	753.571
103.030	13.236	997.026	753.560
104.045	13.314	995.889	752.989
105.060	13.242	994.779	751.758
106.074	13.227	994.117	751.121
107.089	13.268	992.986	750.386
108.103	13.162	992.044	749.128
109.118	13.229	991.011	748.587
110.133	13.124	990.156	747.399
111.147	13.166	989.272	746.854
112.162	13.122	989.026	746.405
113.176	13.185	988.142	745.955
114.191	13.184	987.307	745.257
115.206	13.220	986.753	744.931
116.220	13.215	985.616	743.987
117.235	13.232	984.540	743.184
118.249	13.099	984.244	742.299
119.264	13.223	983.333	742.100
120.279	13.198	982.329	741.165
121.293	13.126	981.445	740.110
122.308	12.980	980.905	738.984
123.322	13.208	979.663	739.005
124.337	13.254	978.141	737.996
125.352	13.285	977.181	737.346
126.366	13.085	976.197	735.645
127.381	13.099	975.090	734.809
128.395	13.164	974.242	734.391
129.410	13.104	973.449	733.463
130.424	13.231	972.906	733.554
131.439	13.207	972.183	732.836
132.454	13.274	971.402	732.482
133.468	13.352	970.322	731.947
134.483	13.165	970.202	730.964
135.497	13.239	968.691	730.086
136.512	13.251	968.018	729.571
137.527	13.263	967.440	729.119
138.541	13.354	966.578	728.808
139.556	13.314	965.730	727.929
140.570	13.156	965.772	727.201
141.585	13.334	964.572	727.013
142.600	13.379	963.476	726.322
143.614	13.498	962.086	725.731
144.629	13.408	962.174	725.339
145.643	13.302	961.046	723.960
146.658	13.244	960.404	723.159
147.673	13.138	959.460	721.922
148.687	13.332	958.415	721.920
149.702	13.368	957.179	721.079
150.716	13.338	956.929	720.698
151.731	13.400	956.172	720.332
152.746	13.448	955.286	719.813
153.760	13.297	955.099	718.952
154.775	13.397	954.202	718.646
155.789	13.563	953.089	718.461
156.804	13.444	952.686	717.579
157.819	13.381	952.221	716.894
158.833	13.431	951.853	716.771
159.848	13.704	950.535	716.893
160.862	13.589	949.773	715.760
161.877	13.477	948.551	714.292
162.892	13.402	947.827	713.361
163.906	13.437	947.064	712.874
164.921	13.503	946.174	712.423
165.935	13.548	944.881	711.582
166.950	13.533	943.829	710.664
167.964	13.654	943.426	710.813
168.979	13.490	942.689	709.492
169.994	13.580	941.519	708.933
171.008	13.556	941.054	708.418
172.023	13.640	940.463	708.270
173.037	13.673	939.805	707.854
174.052	13.587	939.146	706.929
175.067	13.501	938.391	705.932
176.081	13.481	938.008	705.495
177.096	13.500	937.300	704.980
178.110	13.593	936.448	704.675
179.125	13.524	935.960	703.950
180.140	13.650	935.405	704.007
181.154	13.700	935.072	703.904
182.169	13.700	934.386	703.326
183.183	13.828	933.811	703.374
184.198	13.793	932.881	702.462
185.213	13.726	932.129	701.550
186.227	13.800	931.558	701.372
187.242	13.737	931.236	700.801
188.256	13.793	930.571	700.477
189.271	13.865	929.453	699.874
190.286	13.783	928.606	698.829
191.300	13.656	927.871	697.680
192.315	13.677	927.556	697.470
193.329	13.622	926.966	696.734
194.344	13.758	926.354	696.785
195.359	13.733	925.654	696.090
196.373	13.767	925.157	695.798
197.388	13.956	924.737	696.214
198.402	13.968	924.384	695.935
199.417	13.886	923.673	694.993
200.432	13.964	923.163	694.878
201.446	13.994	922.676	694.574
202.461	14.154	921.829	694.544
203.475	14.122	921.051	693.762
204.490	14.068	920.353	692.951
205.504	13.987	919.841	692.165
206.519	14.093	918.677	691.668
207.534	14.133	918.030	691.288
208.548	14.063	917.795	690.757
209.563	13.959	917.521	690.060
210.577	14.049	916.644	689.709
211.592	14.183	915.746	689.528
212.607	14.262	914.707	689.015
213.621	14.254	914.455	688.731
214.636	14.066	913.575	687.229
215.650	14.096	912.732	686.659
216.665	14.282	912.031	686.835
217.680	14.325	911.408	686.484
218.694	14.293	910.641	685.713
219.709	14.225	910.566	685.319
220.723	14.302	909.665	684.894
221.738	14.273	908.751	684.026
222.753	14.186	908.362	683.317
223.767	14.378	907.838	683.651
224.782	14.399	907.056	683.087
225.796	14.450	906.336	682.692
226.811	14.488	905.062	681.828
227.826	14.343	905.152	681.243
228.840	14.323	904.480	680.595
229.855	14.370	903.336	679.865
230.869	14.405	902.446	679.276
231.884	14.505	901.522	678.929
232.899	14.306	901.282	677.879
233.913	14.244	900.841	677.233
234.928	14.313	899.984	676.812
235.942	14.284	899.926	676.590
236.957	14.365	899.134	676.265
237.972	14.237	899.079	675.643
238.986	14.437	897.389	675.125
240.001	14.431	897.110	674.830
241.015	14.423	896.205	674.056
242.030	14.518	895.772	674.055
243.045	14.459	895.271	673.382
244.059	14.524	894.785	673.217
245.074	14.538	894.288	672.838
246.088	14.623	893.439	672.485
247.103	14.555	892.700	671.596
248.117	14.710	891.996	671.630
249.132	14.620	891.977	671.193
250.147	14.626	891.495	670.795
251.161	14.795	890.615	670.751
252.176	14.771	889.843	670.016
253.190	14.795	889.077	669.476
254.205	14.944	888.360	669.473
255.220	14.895	887.801	668.796
256.234	14.770	887.268	667.835
257.249	15.022	886.497	668.203
258.263	14.878	885.888	667.112
259.278	14.960	885.176	666.843
260.293	14.864	884.875	666.172
261.307	15.083	883.652	666.066
262.322	14.963	883.208	665.197
263.336	14.934	882.619	664.578
264.351	15.010	881.916	664.293
265.366	15.093	881.188	664.012
266.380	15.193	880.589	663.899
267.395	15.168	879.594	662.993
268.409	14.919	879.272	661.705
269.424	15.244	878.159	662.092
270.439	14.901	877.617	660.271
271.453	15.083	877.140	660.571
272.468	15.101	876.394	660.022
273.482	15.151	876.092	659.933
274.497	15.100	875.560	659.274
275.512	15.116	874.827	658.725
276.526	15.121	874.970	658.795
277.541	15.229	874.117	658.521
278.555	15.295	873.239	658.059
279.570	15.170	873.092	657.399
280.585	15.203	872.210	656.806
281.599	15.192	871.412	656.106
282.614	15.145	870.914	655.489
283.628	15.155	870.412	655.089
284.643	15.318	869.062	654.655
285.657	15.246	868.571	653.945
286.672	15.205	868.404	653.600
287.687	15.391	867.306	653.439
288.701	15.447	866.856	653.264
289.716	15.323	866.582	652.517
290.730	15.433	865.587	652.137
291.745	15.393	865.138	651.584
292.760	15.408	864.589	651.172
293.774	15.319	864.342	650.584
294.789	15.399	863.477	650.182
295.803	15.438	862.500	649.542
296.818	15.536	861.740	649.292
297.833	15.417	861.041	648.247
298.847	15.446	860.670	648.024
299.862	15.382	860.472	647.570
300.876	15.554	859.632	647.544
301.891	15.543	859.285	647.182
302.906	15.570	858.781	646.850
303.920	15.661	858.209	646.710
304.935	15.717	857.796	646.556
305.949	15.570	856.862	645.233
306.964	15.783	856.098	645.418
307.979	15.705	855.608	644.692
308.993	15.793	855.173	644.643
310.008	15.853	854.288	644.147
311.022	15.620	854.224	643.154
312.037	15.696	853.611	642.926
313.052	15.807	852.448	642.413
314.066	15.600	852.676	641.738
315.081	15.667	851.658	641.174
316.095	15.754	850.947	640.911
317.110	15.645	850.509	640.109
318.125	15.746	850.329	640.303
319.139	15.667	849.833	639.572
320.154	15.616	849.499	639.069
321.168	15.801	848.549	639.003
322.183	15.914	847.409	638.513
323.197	15.885	847.537	638.443
324.212	15.783	847.010	637.605
325.227	15.985	846.040	637.583
326.241	15.782	845.653	636.466
327.256	15.838	845.452	636.472
328.270	15.849	844.469	635.715
329.285	15.866	843.605	635.075
330.300	15.842	843.465	634.820
331.314	15.820	843.054	634.372
332.329	16.040	842.297	634.574
333.343	16.014	841.425	633.765
334.358	15.992	841.651	633.797
335.373	15.939	841.088	633.117
336.387	16.092	840.786	633.408
337.402	16.051	840.556	633.023
338.416	15.936	840.442	632.452
339.431	16.166	839.581	632.610
340.446	16.141	839.271	632.228
341.460	16.192	838.876	632.064
342.475	16.139	838.424	631.470
343.489	16.117	838.222	631.180
344.504	16.284	837.732	631.378
345.519	16.228	837.180	630.699
346.533	16.212	836.552	630.110
347.548	16.264	835.891	629.751
348.562	16.144	835.514	628.961
349.577	16.150	834.944	628.499
350.592	16.149	834.474	628.087
351.606	16.134	833.770	627.446
352.621	16.212	833.231	627.276
353.635	16.280	832.350	626.808
354.650	16.243	831.822	626.219
355.665	16.370	831.005	626.017
356.679	16.309	830.550	625.395
357.694	16.343	829.429	624.622
358.708	16.358	828.985	624.286
359.723	16.358	828.670	623.993
360.738	16.365	828.091	623.527
361.752	16.467	827.354	623.294
362.767	16.399	826.931	622.669
363.781	16.558	826.325	622.745
364.796	16.396	826.228	622.019
365.810	16.480	825.511	621.732
366.825	16.683	825.205	622.195
367.840	16.632	824.723	621.589
368.854	16.566	824.252	620.935
369.869	16.587	823.469	620.368
370.883	16.601	823.580	620.448
371.898	16.730	822.930	620.376
372.913	16.873	822.504	620.525
373.927	16.622	821.798	619.018
374.942	16.780	821.364	619.214
375.956	16.698	821.257	618.780
376.971	16.641	820.847	618.206
377.986	16.821	820.396	618.471
379.000	16.869	819.942	618.246
380.015	16.803	819.317	617.483
381.029	16.978	818.505	617.450
382.044	16.878	818.198	616.803
383.059	16.899	817.658	616.416
384.073	16.887	817.139	615.927
385.088	16.931	816.348	615.436
386.102	16.981	815.932	615.249
387.117	16.868	815.283	614.296
388.132	16.997	814.559	614.162
389.146	16.931	814.161	613.569
390.161	16.899	814.043	613.311
391.175	16.949	813.255	612.845
392.190	17.086	812.769	612.917
393.205	16.971	812.354	612.135
394.219	17.043	811.896	611.996
395.234	16.999	811.502	611.486
396.248	16.911	811.321	610.980
397.263	16.848	811.110	610.540
398.278	16.892	810.270	610.011
399.292	17.000	810.019	610.158
400.307	16.894	809.733	609.505
401.321	16.860	808.718	608.568
402.336	17.030	808.530	608.980
403.350	17.025	808.536	608.913
404.365	17.038	808.079	608.561
405.380	17.307	806.826	608.526
406.394	17.141	806.399	607.558
407.409	17.160	806.111	607.357
408.423	17.080	806.119	607.021
409.438	17.334	805.562	607.456
410.453	17.215	805.432	606.878
411.467	17.250	804.751	606.436
412.482	17.293	804.560	606.392
413.496	17.289	804.325	606.147
414.511	17.536	803.563	606.401
415.526	17.382	803.098	605.445
416.540	17.449	802.518	605.194
417.555	17.413	802.124	604.715
418.569	17.336	801.717	604.080
419.584	17.599	800.937	604.375
420.599	17.423	800.771	603.570
421.613	110.027	1293.554	1473.007
422.628	94.729	1365.340	1473.107
