DTS Sentinel unit serial number:	SN413079Multiplexer serial number:	ORYXHardware model number:	OX4-SRSoftware version number:	ORYX F/W v4.00 Oryx Data Collector v3.7.2.0data status	okinstallation	princeton_trtdifferential loss correction	single-endedforward channel	channel 1reverse channel	N/Adate	2019/09/13time	05:34:35forward acquisition time	60.00reverse acquisition time	0.00gamma	496.2192k internal	0.2336k external	0.2336temperature offset calibration	1.0158default loss term (dB/km)	0.3790temperature slope calibration	1.0000multiplexer offset coefficient	1.0000multiplexer slope coefficient	1.0000fibre end	0.00T internal ref (°C)	26.25T ext. ref 1 (°C)	4.04T ext. ref 2 (°C)	20.89length (m)	temperature (°C)	Stokes	anti-Stokes-747.200	-135.692	0.091	0.011
-746.185	-156.790	-0.288	0.018
-745.171	-200.000	0.017	0.242
-744.156	245.381	-0.107	0.181
-743.142	0.265	-0.212	-0.152
-742.127	800.000	-0.060	-0.200
-741.112	168.098	-0.052	-0.075
-740.098	3.942	0.304	0.223
-739.083	-108.384	-0.166	0.036
-738.069	-148.462	-0.179	0.015
-737.054	134.727	-0.098	-0.128
-736.039	-113.671	-0.387	-0.076
-735.025	800.000	-0.056	0.173
-734.010	-20.259	-0.182	-0.113
-732.996	23.670	0.218	0.180
-731.981	-200.000	0.009	0.162
-730.966	25.794	-0.148	0.124
-729.952	-194.576	-0.184	-0.001
-728.937	-144.800	-0.115	-0.011
-727.923	-84.062	0.438	-0.140
-726.908	-12.220	-0.232	-0.152
-725.894	50.014	-0.052	-0.049
-724.879	-200.000	0.027	-0.404
-723.864	378.210	-0.055	0.113
-722.850	-200.000	-0.015	0.117
-721.835	-200.000	-0.074	-0.354
-720.821	246.857	0.044	-0.075
-719.806	-24.268	-0.179	-0.107
-718.791	263.671	0.093	-0.162
-717.777	15.016	0.283	-0.222
-716.762	306.865	-0.134	-0.251
-715.748	800.000	-0.035	0.140
-714.733	-200.000	0.005	-0.030
-713.718	380.125	-0.127	-0.261
-712.704	-89.968	-0.214	-0.063
-711.689	353.259	-0.184	-0.367
-710.675	451.963	0.052	-0.115
-709.660	-102.740	0.092	-0.022
-708.645	582.938	-0.081	-0.199
-707.631	122.410	0.225	-0.282
-706.616	-56.428	-0.179	0.080
-705.602	-87.288	-0.316	0.096
-704.587	166.361	-0.112	-0.159
-703.572	331.956	0.050	-0.096
-702.558	-55.313	0.492	-0.221
-701.543	176.672	0.059	-0.087
-700.529	-200.000	0.033	-0.253
-699.514	286.070	0.090	-0.163
-698.499	-200.000	0.022	0.559
-697.485	707.619	-0.115	-0.303
-696.470	229.207	0.083	0.136
-695.456	237.095	0.038	-0.062
-694.441	136.262	-0.111	-0.145
-693.426	-160.767	0.030	-0.002
-692.412	-200.000	-0.012	-0.083
-691.397	5.166	-0.266	-0.196
-690.383	141.062	-0.168	0.223
-689.368	-200.000	0.001	0.075
-688.354	38.876	0.052	-0.046
-687.339	238.793	-0.173	-0.288
-686.324	-73.980	0.020	0.007
-685.310	-110.708	-0.188	-0.039
-684.295	-84.711	-0.189	-0.060
-683.281	-200.000	-0.044	0.202
-682.266	800.000	-0.024	0.103
-681.251	204.044	-0.249	0.387
-680.237	-91.473	0.179	-0.051
-679.222	-20.229	0.256	-0.158
-678.208	-53.613	-0.245	0.112
-677.193	164.132	0.011	-0.015
-676.178	-75.714	-0.461	-0.164
-675.164	-136.972	0.072	-0.008
-674.149	-200.000	0.008	-0.138
-673.135	-140.894	-0.278	-0.029
-672.120	89.981	-0.082	-0.092
-671.105	-68.515	-0.096	0.037
-670.091	66.368	-0.199	0.203
-669.076	-200.000	0.016	0.101
-668.062	-148.068	-0.218	0.018
-667.047	-62.999	0.373	0.154
-666.032	-85.608	-0.201	0.063
-665.018	-200.000	-0.026	0.256
-664.003	150.201	0.136	0.185
-662.989	-87.960	-0.218	-0.066
-661.974	0.354	0.210	-0.150
-660.959	-91.279	0.133	0.038
-659.945	370.286	0.123	-0.249
-658.930	800.000	-0.055	0.235
-657.916	-200.000	-0.009	0.274
-656.901	57.349	-0.101	-0.098
-655.886	-86.077	-0.205	-0.063
-654.872	-147.319	0.177	0.015
-653.857	-30.721	0.215	-0.122
-652.843	108.756	-0.187	-0.224
-651.828	-163.447	-0.128	-0.006
-650.814	-12.084	-0.171	-0.112
-649.799	-133.945	0.028	-0.003
-648.784	-32.834	-0.081	0.045
-647.770	171.192	-0.193	0.277
-646.755	277.836	0.034	0.061
-645.741	-54.271	-0.112	-0.051
-644.726	-200.000	-0.019	-0.107
-643.711	-106.198	-0.382	-0.086
-642.697	-200.000	0.010	-0.126
-641.682	-0.412	-0.304	-0.216
-640.668	30.046	0.276	-0.236
-639.653	30.652	0.205	-0.175
-638.638	72.131	-0.143	0.149
-637.624	-200.000	-0.021	-0.123
-636.609	-171.700	-0.271	0.009
-635.595	306.297	-0.009	-0.017
-634.580	92.017	-0.103	-0.116
-633.565	-43.745	0.334	0.168
-632.551	34.646	-0.089	-0.078
-631.536	-45.780	-0.310	0.153
-630.522	73.948	-0.260	0.273
-629.507	478.742	0.025	0.057
-628.492	110.721	-0.208	-0.250
-627.478	195.549	-0.134	0.204
-626.463	-90.537	-0.207	-0.060
-625.449	-73.454	-0.066	0.024
-624.434	800.000	-0.064	-0.202
-623.419	170.760	-0.127	-0.182
-622.405	-194.700	0.400	0.003
-621.390	472.905	0.020	-0.046
-620.376	-24.843	0.090	-0.053
-619.361	29.662	0.302	-0.257
-618.346	-133.024	-0.250	-0.032
-617.332	9.287	0.354	-0.267
-616.317	-9.702	-0.129	0.086
-615.303	-129.353	0.306	0.042
-614.288	-47.733	-0.394	0.191
-613.273	122.019	0.278	0.347
-612.259	668.926	-0.126	0.325
-611.244	-68.158	-0.235	-0.092
-610.230	800.000	-0.073	-0.254
-609.215	114.837	-0.047	-0.057
-608.201	-93.290	-0.072	-0.020
-607.186	-200.000	0.005	-0.195
-606.171	-74.359	0.280	0.101
-605.157	161.173	0.171	-0.239
-604.142	-127.051	-0.566	-0.083
-603.128	-89.833	-0.269	-0.079
-602.113	-118.099	-0.252	-0.045
-601.098	-200.000	0.056	-0.305
-600.084	201.871	-0.067	-0.104
-599.069	-107.549	0.356	-0.078
-598.055	731.738	0.102	-0.272
-597.040	-94.342	-0.270	-0.074
-596.025	800.000	0.103	-0.286
-595.011	-200.000	-0.002	0.217
-593.996	-63.482	-0.131	-0.054
-592.982	144.395	-0.076	-0.101
-591.967	-200.000	-0.003	0.264
-590.952	-198.380	0.309	0.002
-589.938	-200.000	-0.001	-0.272
-588.923	-96.337	0.312	0.082
-587.909	291.564	-0.158	0.288
-586.894	429.104	0.054	-0.117
-585.879	-15.058	-0.221	0.142
-584.865	-74.165	-0.258	0.093
-583.850	161.960	-0.115	0.161
-582.836	-29.072	-0.108	0.062
-581.821	102.303	-0.031	-0.036
-580.806	-200.000	0.008	-0.176
-579.792	800.000	0.076	-0.214
-578.777	-200.000	0.079	-0.389
-577.763	-200.000	0.037	0.235
-576.748	-200.000	0.038	0.321
-575.733	-123.877	-0.357	0.056
-574.719	17.662	-0.248	0.197
-573.704	-9.541	-0.134	0.089
-572.690	800.000	-0.091	0.269
-571.675	425.651	0.029	-0.063
-570.661	800.000	-0.036	0.157
-569.646	800.000	0.037	0.103
-568.631	-121.505	0.244	0.040
-567.617	408.573	0.032	0.067
-566.602	-160.485	-0.339	-0.018
-565.588	52.278	-0.068	-0.065
-564.573	-107.002	-0.079	0.017
-563.558	-124.125	-0.126	-0.020
-562.544	-118.731	-0.181	0.032
-561.529	-200.000	-0.005	-0.068
-560.515	-200.000	-0.019	0.280
-559.500	155.154	-0.055	-0.075
-558.485	57.150	-0.056	0.055
-557.471	-200.000	0.018	0.201
-556.456	-38.507	0.176	-0.093
-555.442	-96.345	-0.227	-0.060
-554.427	800.000	-0.076	0.231
-553.412	-16.598	-0.288	-0.182
-552.398	800.000	-0.067	-0.232
-551.383	436.952	-0.090	0.197
-550.369	-20.356	-0.026	0.016
-549.354	-136.772	-0.207	-0.024
-548.339	-168.812	-0.269	-0.010
-547.325	-115.029	-0.175	0.033
-546.310	152.937	0.188	0.257
-545.296	479.759	0.146	0.331
-544.281	-8.047	-0.308	0.207
-543.266	-142.976	0.081	-0.008
-542.252	-200.000	-0.024	-0.138
-541.237	93.297	0.057	-0.065
-540.223	28.508	0.124	0.105
-539.208	-200.000	0.008	-0.181
-538.193	357.215	-0.146	0.290
-537.179	143.356	-0.122	-0.162
-536.164	193.481	0.040	0.060
-535.150	800.000	0.038	0.139
-534.135	14.211	0.291	0.226
-533.121	157.278	-0.182	-0.250
-532.106	-200.000	-0.003	-0.392
-531.091	128.781	-0.081	-0.102
-530.077	-15.008	0.111	-0.071
-529.062	163.116	0.153	-0.214
-528.048	31.535	-0.105	0.090
-527.033	-200.000	-0.046	0.248
-526.018	101.898	-0.275	-0.320
-525.004	77.184	0.130	-0.137
-523.989	368.034	0.104	-0.209
-522.975	151.245	0.084	0.114
-521.960	-88.721	-0.125	-0.037
-520.945	-200.000	-0.007	-0.115
-519.931	-200.000	0.026	-0.190
-518.916	800.000	-0.031	0.100
-517.902	-152.013	-0.422	0.031
-516.887	148.264	0.120	0.161
-515.872	-25.077	-0.152	0.090
-514.858	-200.000	0.019	-0.248
-513.843	-119.716	-0.191	-0.033
-512.829	-65.033	-0.430	-0.173
-511.814	37.965	0.041	0.036
-510.799	800.000	-0.083	0.229
-509.785	-200.000	0.004	-0.089
-508.770	309.211	-0.066	-0.124
-507.756	400.790	-0.064	0.134
-506.741	55.691	-0.221	0.213
-505.726	-78.129	-0.458	0.157
-504.712	-34.244	0.168	-0.092
-503.697	269.198	0.158	-0.275
-502.683	152.477	-0.190	0.258
-501.668	44.917	0.091	-0.084
-500.653	-200.000	-0.023	0.332
-499.639	-17.749	-0.176	-0.110
-498.624	768.539	-0.085	-0.230
-497.610	73.246	-0.193	-0.201
-496.595	266.372	0.146	0.253
-495.581	75.590	-0.081	-0.086
-494.566	-37.611	0.122	0.065
-493.551	-54.181	-0.229	-0.104
-492.537	88.524	0.095	-0.105
-491.522	-66.068	0.292	-0.116
-490.508	-91.783	-0.183	0.052
-489.493	422.958	0.107	0.230
-488.478	-200.000	0.029	-0.186
-487.464	774.851	0.099	-0.268
-486.449	-102.797	0.226	-0.054
-485.435	60.730	0.037	-0.037
-484.420	-200.000	-0.014	0.164
-483.405	108.736	0.143	-0.170
-482.391	37.867	0.275	-0.243
-481.376	-200.000	-0.056	0.379
-480.362	-200.000	-0.022	0.189
-479.347	167.848	0.042	-0.060
-478.332	-135.642	0.272	0.032
-477.318	-19.235	0.312	0.192
-476.303	-159.371	-0.430	-0.024
-475.289	424.163	-0.173	0.369
-474.274	-193.313	0.122	0.001
-473.259	0.668	-0.190	-0.135
-472.245	55.268	0.187	-0.179
-471.230	729.681	-0.057	-0.152
-470.216	-71.327	0.345	0.128
-469.201	505.690	0.120	0.277
-468.186	800.000	-0.103	0.307
-467.172	41.895	-0.212	-0.191
-466.157	-200.000	0.006	0.139
-465.143	423.638	0.042	0.090
-464.128	-200.000	0.037	0.343
-463.113	385.842	-0.043	-0.087
-462.099	-154.706	-0.259	0.017
-461.084	552.087	-0.067	0.161
-460.070	-145.686	0.075	-0.007
-459.055	146.065	0.281	0.374
-458.040	800.000	-0.045	-0.133
-457.026	383.511	-0.092	-0.188
-456.011	89.831	-0.166	0.184
-454.997	-31.150	-0.202	-0.113
-453.982	304.025	0.051	-0.095
-452.968	-200.000	0.052	-0.329
-451.953	142.819	0.058	0.076
-450.938	-200.000	-0.011	-0.233
-449.924	-65.917	0.275	0.109
-448.909	51.195	-0.129	0.122
-447.895	131.527	0.028	0.035
-446.880	262.711	0.088	-0.152
-445.865	-200.000	0.055	-0.255
-444.851	60.774	0.233	0.230
-443.836	76.891	0.097	-0.102
-442.822	-196.598	-0.068	-0.000
-441.807	124.144	-0.138	-0.173
-440.792	-200.000	-0.237	-0.001
-439.778	-119.693	0.161	0.028
-438.763	243.296	-0.084	0.140
-437.749	132.654	0.243	0.312
-436.734	145.990	0.010	-0.014
-435.719	-74.661	0.033	-0.012
-434.705	75.927	0.079	-0.083
-433.690	619.548	-0.085	0.213
-432.676	530.519	-0.091	0.214
-431.661	-71.793	0.155	0.057
-430.646	-26.828	-0.133	0.077
-429.632	703.067	-0.084	-0.219
-428.617	-81.902	0.145	-0.047
-427.603	-195.471	0.368	0.003
-426.588	-33.305	0.194	0.106
-425.573	-72.400	0.251	-0.092
-424.559	152.518	0.086	0.116
-423.544	-200.000	-0.015	-0.126
-422.530	-200.000	0.015	-0.077
-421.515	800.000	0.019	0.076
-420.500	-93.525	0.301	-0.083
-419.486	-163.694	-0.118	0.006
-418.471	-200.000	0.052	0.366
-417.457	120.619	0.180	-0.221
-416.442	-200.000	-0.004	-0.178
-415.428	-200.000	0.030	-0.305
-414.413	-67.438	0.248	0.096
-413.398	800.000	-0.026	0.090
-412.384	-45.556	-0.185	0.091
-411.369	-200.000	-0.047	-0.311
-410.355	178.218	-0.013	-0.018
-409.340	168.227	-0.138	-0.195
-408.325	-200.000	-0.013	-0.193
-407.311	-200.000	0.019	-0.463
-406.296	69.769	0.131	0.134
-405.282	-200.000	0.005	0.419
-404.267	-79.893	0.259	0.086
-403.252	-54.776	0.196	-0.088
-402.238	264.077	0.073	0.127
-401.223	-116.894	-0.184	0.033
-400.209	-16.786	0.210	-0.132
-399.194	-129.945	0.123	0.017
-398.179	4.527	-0.104	-0.075
-397.165	149.830	0.082	-0.110
-396.150	-200.000	0.064	0.000
-395.136	-141.066	-0.201	0.020
-394.121	-151.104	-0.207	0.015
-393.106	-200.000	-0.035	0.325
-392.092	-30.888	-0.093	0.052
-391.077	800.000	0.142	-0.422
-390.063	-24.478	0.064	0.038
-389.048	40.686	-0.116	-0.103
-388.033	48.224	-0.361	-0.335
-387.019	-64.502	-0.136	-0.055
-386.004	-95.276	0.134	0.036
-384.990	-101.515	0.165	0.040
-383.975	-76.102	0.420	-0.147
-382.960	-200.000	0.000	0.083
-381.946	800.000	-0.058	0.188
-380.931	-183.667	0.247	0.004
-379.917	-20.843	-0.055	-0.034
-378.902	-200.000	0.025	0.122
-377.888	-200.000	0.079	0.366
-376.873	800.000	0.071	0.205
-375.858	264.833	-0.115	-0.199
-374.844	-169.008	0.229	0.008
-373.829	-14.779	-0.143	-0.091
-372.815	-83.826	-0.077	0.024
-371.800	30.067	0.169	-0.142
-370.785	130.771	-0.093	0.118
-369.771	34.907	0.104	0.090
-368.756	-200.000	0.054	0.265
-367.742	467.198	0.073	-0.162
-366.727	225.092	0.259	0.414
-365.712	35.164	-0.108	0.094
-364.698	-35.407	-0.250	-0.135
-363.683	-195.530	-0.163	0.001
-362.669	85.852	-0.079	0.086
-361.654	303.935	-0.087	0.160
-360.639	-65.641	0.329	0.131
-359.625	213.571	0.206	-0.323
-358.610	800.000	-0.062	-0.266
-357.596	-35.600	-0.260	-0.139
-356.581	800.000	0.019	0.061
-355.566	-147.413	0.168	0.014
-354.552	160.278	-0.160	0.221
-353.537	-0.210	-0.231	-0.162
-352.523	-162.522	0.112	-0.005
-351.508	-79.327	0.223	-0.075
-350.493	21.723	-0.155	-0.124
-349.479	378.887	0.010	0.020
-348.464	-85.111	0.363	-0.112
-347.450	23.703	0.034	-0.028
-346.435	57.902	-0.150	-0.145
-345.420	-60.957	-0.318	0.133
-344.406	-200.000	-0.046	0.210
-343.391	382.588	0.053	0.107
-342.377	-34.312	-0.209	0.114
-341.362	-90.031	-0.038	-0.011
-340.348	-128.276	-0.307	-0.043
-339.333	-200.000	0.041	0.201
-338.318	800.000	-0.052	0.159
-337.304	274.959	-0.036	-0.064
-336.289	67.201	-0.030	-0.031
-335.275	-82.491	0.511	0.164
-334.260	-26.876	0.097	0.056
-333.245	-79.630	0.125	0.042
-332.231	-110.570	0.157	-0.032
-331.216	-24.707	0.176	0.104
-330.202	177.503	0.174	0.251
-329.187	-200.000	0.013	-0.180
-328.172	28.133	-0.132	-0.110
-327.158	64.034	0.113	-0.112
-326.143	536.953	0.086	-0.202
-325.129	-2.116	-0.349	-0.242
-324.114	-200.000	-0.037	0.276
-323.099	402.044	0.142	0.294
-322.085	800.000	0.081	-0.237
-321.070	-74.685	0.272	-0.097
-320.056	-154.912	0.210	-0.014
-319.041	-106.274	-0.321	-0.071
-318.026	27.805	0.271	-0.225
-317.012	149.743	0.129	0.172
-315.997	-57.670	-0.258	0.112
-314.983	5.049	0.392	-0.285
-313.968	-200.000	-0.010	0.090
-312.953	-200.000	0.006	0.063
-311.939	-12.091	0.236	-0.153
-310.924	-72.638	-0.128	-0.046
-309.910	800.000	0.061	-0.229
-308.895	-54.092	-0.301	-0.135
-307.880	171.852	-0.145	0.205
-306.866	-89.966	-0.153	0.044
-305.851	75.277	0.101	-0.105
-304.837	384.988	0.112	-0.228
-303.822	46.156	-0.193	-0.177
-302.807	-98.935	0.123	0.031
-301.793	-152.038	0.046	0.003
-300.778	-87.216	-0.106	-0.032
-299.764	794.821	-0.090	0.246
-298.749	-200.000	0.035	0.192
-297.735	-104.872	0.054	0.012
-296.720	-99.695	-0.298	-0.074
-295.705	800.000	0.112	0.429
-294.691	-134.929	-0.219	0.026
-293.676	274.365	-0.014	0.025
-292.662	-116.278	-0.216	0.040
-291.647	-44.165	0.108	-0.053
-290.632	454.632	-0.121	-0.263
-289.618	303.758	-0.052	-0.095
-288.603	91.604	-0.033	0.037
-287.589	7.643	0.321	-0.237
-286.574	-200.000	0.025	0.242
-285.559	-200.000	0.030	0.273
-284.545	119.098	-0.120	0.146
-283.530	-37.555	0.238	0.125
-282.516	606.072	-0.030	0.074
-281.501	-127.384	0.030	0.004
-280.486	-200.000	-0.031	-0.143
-279.472	-96.961	0.060	-0.015
-278.457	55.302	0.344	-0.328
-277.443	63.222	-0.082	-0.081
-276.428	-200.000	0.040	0.337
-275.413	98.919	0.163	-0.185
-274.399	-143.499	-0.232	-0.022
-273.384	-144.976	0.224	-0.020
-272.370	166.318	-0.104	0.145
-271.355	-191.039	-0.389	-0.004
-270.340	-200.000	0.077	0.351
-269.326	800.000	-0.112	0.324
-268.311	-155.774	-0.285	0.018
-267.297	-42.619	0.172	0.086
-266.282	-4.130	0.139	-0.095
-265.267	800.000	-0.043	0.137
-264.253	-79.680	0.229	0.076
-263.238	296.860	0.050	-0.091
-262.224	19.075	0.161	-0.128
-261.209	-200.000	-0.049	0.242
-260.195	-103.883	0.163	0.038
-259.180	-157.970	0.156	0.009
-258.165	-55.752	-0.042	0.018
-257.151	281.373	0.185	-0.326
-256.136	191.078	0.073	0.109
-255.122	13.852	-0.077	-0.059
-254.107	-200.000	0.035	-0.362
-253.092	86.955	0.067	-0.073
-252.078	-120.403	0.119	-0.020
-251.063	84.839	0.264	0.285
-250.049	-61.440	0.055	0.023
-249.034	-200.000	0.051	-0.250
-248.019	5.904	-0.155	-0.113
-247.005	42.512	0.148	0.133
-245.990	-68.343	-0.169	-0.065
-244.976	-200.000	-0.018	0.193
-243.961	-103.406	-0.413	-0.096
-242.946	492.086	0.111	-0.251
-241.932	-128.222	-0.177	0.025
-240.917	67.803	0.116	0.117
-239.903	-26.003	0.338	0.196
-238.888	800.000	0.055	0.154
-237.873	-147.634	0.118	-0.010
-236.859	-109.085	0.648	0.136
-235.844	-149.435	0.165	-0.013
-234.830	-25.136	-0.329	-0.192
-233.815	-121.560	0.098	0.016
-232.800	-200.000	0.027	-0.188
-231.786	-200.000	-0.010	-0.425
-230.771	-118.203	0.156	0.027
-229.757	106.367	0.130	-0.152
-228.742	-200.000	-0.007	-0.216
-227.727	800.000	-0.115	0.323
-226.713	-94.708	-0.133	-0.036
-225.698	75.520	0.073	0.076
-224.684	278.096	0.109	0.191
-223.669	27.094	-0.200	-0.165
-222.655	-140.252	-0.249	-0.026
-221.640	7.031	-0.098	-0.072
-220.625	-131.438	0.138	-0.018
-219.611	-200.000	-0.003	0.162
-218.596	238.504	-0.097	-0.159
-217.582	-90.263	-0.278	0.080
-216.567	-49.326	0.177	0.083
-215.552	-22.820	-0.162	0.096
-214.538	-60.789	0.277	0.115
-213.523	-80.208	0.133	0.044
-212.509	-200.000	0.029	0.165
-211.494	3.885	-0.154	0.111
-210.479	-200.000	0.003	-0.328
-209.465	48.228	0.203	0.186
-208.450	176.897	0.147	-0.210
-207.436	-108.709	0.612	0.129
-206.421	169.569	-0.184	-0.259
-205.406	392.173	0.090	-0.184
-204.392	-97.469	-0.145	0.037
-203.377	-127.200	0.310	0.045
-202.363	-158.717	0.150	-0.008
-201.348	332.961	0.158	0.301
-200.333	-156.694	0.383	-0.023
-199.319	-58.961	-0.294	0.125
-198.304	428.308	-0.067	-0.141
-197.290	-37.705	0.180	0.094
-196.275	164.664	-0.023	0.031
-195.260	-70.429	-0.170	0.063
-194.246	-102.912	0.179	-0.042
-193.231	-56.141	0.149	0.065
-192.217	-200.000	0.001	0.135
-191.202	86.390	0.186	-0.201
-190.187	489.885	-0.153	-0.343
-189.173	-200.000	-0.007	0.109
-188.158	800.000	0.082	-0.320
-187.144	-200.000	0.062	-0.343
-186.129	-72.603	-0.338	-0.123
-185.114	-87.361	0.219	0.065
-184.100	-105.783	-0.330	-0.073
-183.085	-200.000	-0.043	0.237
-182.071	570.732	-0.080	0.191
-181.056	-200.000	-0.049	0.297
-180.042	402.067	0.089	0.183
-179.027	-200.000	-0.025	0.194
-178.012	173.818	0.165	0.234
-176.998	800.000	-0.046	-0.127
-175.983	-71.546	-0.275	-0.101
-174.969	176.692	-0.075	0.107
-173.954	-49.532	-0.147	-0.069
-172.939	630.183	-0.033	-0.081
-171.925	36.850	-0.085	-0.074
-170.910	-200.000	-0.198	0.001
-169.896	800.000	-0.020	0.076
-168.881	189.167	0.144	-0.212
-167.866	111.697	-0.092	0.109
-166.852	140.399	-0.011	0.015
-165.837	-124.914	0.279	-0.042
-164.823	-69.234	0.125	0.047
-163.808	-200.000	-0.052	0.390
-162.793	190.584	0.067	0.099
-161.779	498.220	-0.042	0.095
-160.764	-59.692	-0.089	-0.038
-159.750	-17.613	-0.187	0.115
-158.735	-63.799	0.363	0.146
-157.720	-200.000	0.017	-0.317
-156.706	-200.000	0.014	-0.103
-155.691	137.974	0.180	-0.232
-154.677	-200.000	0.036	-0.318
-153.662	-117.471	0.179	-0.032
-152.647	416.677	-0.055	-0.116
-151.633	31.907	-0.274	0.232
-150.618	-19.127	-0.135	-0.082
-149.604	-31.444	0.443	0.244
-148.589	-200.000	-0.025	0.352
-147.574	107.336	0.224	0.261
-146.560	418.002	-0.014	-0.030
-145.545	-20.881	0.094	0.057
-144.531	61.555	-0.033	-0.032
-143.516	-6.130	-0.255	0.171
-142.502	-103.112	0.242	0.056
-141.487	193.674	0.054	0.081
-140.472	-8.263	-0.131	0.086
-139.458	-200.000	-0.085	-0.411
-138.443	-26.383	-0.226	0.130
-137.429	800.000	-0.028	-0.092
-136.414	317.955	0.023	0.043
-135.399	-200.000	0.017	0.237
-134.385	121.126	-0.284	0.347
-133.370	-136.355	-0.311	0.036
-132.356	240.590	-0.191	-0.313
-131.341	-200.000	-0.014	0.202
-130.326	800.000	0.095	-0.270
-129.312	82.388	-0.103	-0.110
-128.297	-8.106	0.104	0.068
-127.283	-169.040	-0.374	0.014
-126.268	-200.000	-0.001	-0.043
-125.253	-5.696	-0.248	-0.167
-124.239	80.957	0.078	-0.082
-123.224	-200.000	0.027	0.399
-122.210	800.000	-0.106	0.314
-121.195	113.993	0.098	0.117
-120.180	-3.236	0.127	0.087
-119.166	-39.110	-0.051	-0.026
-118.151	67.664	0.242	0.242
-117.137	-54.511	0.265	-0.117
-116.122	-152.035	0.262	0.019
-115.107	-58.953	-0.305	0.129
-114.093	-2.133	0.057	0.039
-113.078	-58.786	0.213	-0.090
-112.064	-118.720	-0.132	0.023
-111.049	153.591	-0.042	0.056
-110.034	-200.000	0.064	0.387
-109.020	320.220	0.151	0.282
-108.005	-135.632	-0.267	0.031
-106.991	-200.000	0.017	0.150
-105.976	584.781	0.139	-0.334
-104.962	-61.495	-0.344	-0.142
-103.947	427.265	0.176	0.372
-102.932	800.000	0.007	0.029
-101.918	537.138	0.032	-0.075
-100.903	-200.000	0.015	-0.235
-99.889	-101.755	-0.190	-0.045
-98.874	-11.659	-0.094	0.060
-97.859	-7.794	-0.015	-0.010
-96.845	22.283	0.157	-0.125
-95.830	-200.000	0.034	0.300
-94.816	621.907	-0.018	-0.044
-93.801	-114.698	0.186	0.035
-92.786	-163.297	-0.082	-0.004
-91.772	511.929	0.184	-0.420
-90.757	602.010	0.147	-0.359
-89.743	800.000	-0.047	0.163
-88.728	-195.240	0.427	0.003
-87.713	-50.000	0.271	0.126
-86.699	275.447	0.168	0.292
-85.684	-121.845	-0.079	0.013
-84.670	800.000	0.068	0.248
-83.655	-41.260	0.341	-0.172
-82.640	622.474	-0.100	0.246
-81.626	100.081	0.079	-0.089
-80.611	423.395	-0.069	0.144
-79.597	214.759	-0.115	0.178
-78.582	-112.176	-0.360	0.071
-77.567	-200.000	0.036	0.294
-76.553	128.292	-0.109	-0.135
-75.538	800.000	-0.108	-0.398
-74.524	800.000	-0.083	-0.283
-73.509	-44.933	-0.308	-0.150
-72.494	-200.000	0.113	0.000
-71.480	-70.636	0.048	0.018
-70.465	17.812	-0.200	-0.156
-69.451	130.653	0.081	0.102
-68.436	-162.047	-0.314	0.015
-67.422	-157.757	-0.207	0.012
-66.407	800.000	-0.041	-0.171
-65.392	-47.124	-0.244	0.117
-64.378	453.273	-0.129	0.279
-63.363	84.040	0.208	-0.222
-62.349	-33.818	0.212	-0.114
-61.334	53.247	-1.176	-1.102
-60.319	285.466	0.537	0.946
-59.305	403.909	-0.533	-1.097
-58.290	579.245	0.564	1.349
-57.276	344.744	0.790	1.516
-56.261	-200.000	117.540	645.658
-55.246	487.696	1549.606	3458.171
-54.232	174.365	2717.134	3840.642
-53.217	104.233	2151.608	2474.839
-52.203	37.694	1585.370	1376.127
-51.188	29.682	1328.342	1105.293
-50.173	26.764	1289.889	1056.280
-49.159	52.207	1348.857	1257.089
-48.144	50.663	1362.097	1260.182
-47.130	29.625	1315.735	1094.294
-46.115	26.322	1297.897	1060.074
-45.100	26.127	1292.799	1054.732
-44.086	26.090	1289.653	1051.909
-43.071	26.059	1288.063	1050.390
-42.057	26.151	1285.990	1049.191
-41.042	26.059	1284.766	1047.614
-40.027	26.073	1282.807	1046.059
-39.013	26.228	1280.318	1044.884
-37.998	26.141	1278.961	1043.230
-36.984	26.218	1277.346	1042.316
-35.969	26.145	1275.533	1040.375
-34.954	26.127	1273.800	1038.820
-33.940	26.331	1271.887	1038.387
-32.925	26.266	1270.711	1037.014
-31.911	26.210	1269.762	1035.877
-30.896	26.321	1268.691	1035.601
-29.881	26.258	1267.028	1033.837
-28.867	26.336	1265.666	1033.136
-27.852	26.342	1264.219	1031.946
-26.838	26.353	1262.785	1030.796
-25.823	26.323	1261.443	1029.489
-24.809	26.275	1259.853	1027.879
-23.794	26.243	1259.002	1026.960
-22.779	26.365	1257.332	1026.253
-21.765	26.420	1255.820	1025.288
-20.750	26.375	1254.740	1024.110
-19.736	26.214	1253.794	1022.388
-18.721	26.266	1252.228	1021.364
-17.706	26.288	1251.463	1020.824
-16.692	26.214	1250.520	1019.598
-15.677	26.182	1249.331	1018.406
-14.663	26.144	1248.343	1017.345
-13.648	26.212	1246.805	1016.433
-12.633	26.187	1245.959	1015.562
-11.619	26.303	1244.847	1015.266
-10.604	26.262	1244.476	1014.697
-9.590	26.252	1243.133	1013.503
-8.575	26.231	1242.506	1012.835
-7.560	26.222	1241.667	1012.062
-6.546	26.276	1240.571	1011.429
-5.531	26.207	1239.711	1010.300
-4.517	26.267	1238.671	1009.750
-3.502	26.179	1238.204	1008.838
-2.487	26.222	1237.053	1008.098
-1.473	26.176	1232.689	1004.245
-0.458	24.621	1218.388	984.002
0.556	22.691	1201.982	946.752
1.571	18.952	1207.722	930.984
2.586	18.160	1222.259	937.770
3.600	17.958	1210.534	927.593
4.615	13.945	1140.269	853.103
5.629	7.228	1069.485	767.623
6.644	4.352	1052.111	741.361
7.659	4.154	1049.108	738.234
8.673	3.806	1048.245	735.906
9.688	3.860	1047.597	735.646
10.702	4.180	1045.347	735.517
11.717	8.567	1051.081	760.380
12.731	16.406	1061.580	805.415
13.746	21.201	1068.004	833.155
14.761	22.252	1068.642	838.592
15.775	21.486	1066.958	833.546
16.790	20.761	1064.807	828.343
17.804	19.926	1063.890	823.588
18.819	19.724	1062.782	821.698
19.834	19.694	1062.460	821.232
20.848	19.675	1061.761	820.529
21.863	19.616	1060.691	819.351
22.877	19.315	1060.241	817.504
23.892	19.283	1059.569	816.762
24.907	19.212	1058.643	815.639
25.921	19.201	1057.603	814.711
26.936	19.239	1056.131	813.687
27.950	19.153	1055.367	812.621
28.965	19.269	1053.981	812.029
29.980	19.549	1052.117	811.838
30.994	19.592	1051.443	811.448
32.009	19.755	1050.346	811.294
33.023	19.688	1049.244	810.058
34.038	19.590	1048.140	808.674
35.053	19.354	1047.871	807.291
36.067	19.315	1046.396	805.902
37.082	19.423	1045.679	805.779
38.096	19.445	1045.118	805.379
39.111	19.564	1044.195	805.153
40.126	19.306	1042.874	802.862
41.140	19.069	1041.409	800.561
42.155	18.880	1040.147	798.642
43.169	18.895	1039.226	797.934
44.184	18.756	1038.738	796.844
45.199	18.833	1037.836	796.434
46.213	19.108	1036.320	796.475
47.228	19.344	1035.501	796.868
48.242	19.313	1034.989	796.260
49.257	19.249	1034.244	795.322
50.271	19.527	1033.027	795.597
51.286	19.472	1032.433	794.812
52.301	19.388	1031.509	793.644
53.315	19.289	1030.077	792.016
54.330	19.115	1029.439	790.657
55.344	19.124	1028.374	789.811
56.359	19.139	1027.327	789.008
57.374	19.022	1026.740	787.949
58.388	18.953	1026.078	787.055
59.403	18.910	1025.124	786.058
60.417	18.863	1024.242	785.100
61.432	18.844	1023.502	784.374
62.447	18.726	1022.729	783.173
63.461	18.658	1021.665	781.982
64.476	18.604	1020.823	781.023
65.490	18.523	1020.351	780.222
66.505	18.679	1019.159	779.950
67.520	18.704	1018.929	779.820
68.534	18.649	1017.867	778.690
69.549	18.679	1017.257	778.287
70.563	18.605	1016.280	777.139
71.578	18.471	1015.526	775.885
72.593	18.264	1014.408	774.028
73.607	18.319	1013.959	773.862
74.622	18.449	1013.693	774.181
75.636	18.448	1012.761	773.394
76.651	18.449	1012.073	772.805
77.666	18.538	1011.403	772.628
78.680	18.564	1010.784	772.201
79.695	18.569	1010.740	772.122
80.709	18.826	1009.400	772.185
81.724	18.804	1009.406	772.023
82.739	18.983	1008.455	772.034
83.753	19.277	1007.955	772.898
84.768	19.675	1007.388	774.179
85.782	19.810	1006.744	774.221
86.797	19.807	1005.155	772.918
87.812	19.429	1004.669	770.787
88.826	19.537	1003.526	770.322
89.841	19.515	1002.921	769.693
90.855	19.722	1002.443	770.178
91.870	19.740	1001.340	769.344
92.884	19.734	1000.357	768.492
93.899	19.723	999.530	767.742
94.914	19.737	998.971	767.307
95.928	19.626	998.345	766.264
96.943	19.523	997.473	765.071
97.957	19.594	995.946	764.147
98.972	19.497	995.347	763.194
99.987	19.640	994.077	762.784
101.001	19.493	993.173	761.373
102.016	19.424	992.479	760.468
103.030	19.550	991.951	760.550
104.045	19.601	990.988	759.970
105.060	19.408	990.038	758.326
106.074	19.088	988.642	755.784
107.089	18.921	987.183	753.870
108.103	18.767	986.304	752.457
109.118	18.837	984.635	751.425
110.133	18.742	983.992	750.452
111.147	18.726	983.587	750.009
112.162	18.727	983.117	749.585
113.176	18.909	982.288	749.680
114.191	19.061	981.511	749.684
115.206	18.836	981.429	748.578
116.220	18.833	980.342	747.667
117.235	18.882	978.918	746.727
118.249	18.777	978.347	745.771
119.264	18.654	977.438	744.479
120.279	18.594	976.394	743.359
121.293	18.502	975.726	742.386
122.308	18.614	974.634	741.973
123.322	18.441	973.411	740.228
124.337	18.411	972.709	739.500
125.352	18.389	971.530	738.443
126.366	18.408	970.617	737.767
127.381	18.588	969.535	737.652
128.395	18.550	968.971	736.992
129.410	18.448	968.310	735.989
130.424	18.767	967.401	736.602
131.439	18.835	966.831	736.391
132.454	18.900	966.175	736.105
133.468	18.961	965.043	735.440
134.483	18.831	964.897	734.710
135.497	18.952	963.593	734.166
136.512	18.934	962.823	733.438
137.527	19.135	962.156	733.720
138.541	19.021	961.710	732.832
139.556	19.054	960.906	732.294
140.570	19.324	960.389	732.984
141.585	19.365	959.854	732.684
142.600	19.564	958.879	732.718
143.614	19.686	958.138	732.606
144.629	19.737	957.292	732.110
145.643	19.704	955.872	730.819
146.658	19.309	954.945	728.376
147.673	19.175	953.863	726.924
148.687	19.056	952.744	725.506
149.702	18.953	952.205	724.597
150.716	19.014	951.535	724.279
151.731	19.211	950.661	724.377
152.746	19.096	950.284	723.541
153.760	19.144	949.305	722.935
154.775	19.228	948.786	722.827
155.789	19.439	948.207	723.207
156.804	19.300	947.838	722.277
157.819	19.464	947.136	722.369
158.833	19.673	946.778	722.905
159.848	19.695	945.666	722.083
160.862	19.502	944.627	720.420
161.877	19.225	942.999	717.961
162.892	18.984	941.742	715.936
163.906	18.994	940.812	715.209
164.921	19.067	940.164	714.956
165.935	19.079	939.486	714.427
166.950	19.281	938.337	714.327
167.964	19.156	937.891	713.408
168.979	19.133	936.910	712.503
169.994	19.017	936.297	711.492
171.008	19.177	935.617	711.574
172.023	19.384	935.371	712.180
173.037	19.744	934.091	712.627
174.052	19.358	933.674	710.655
175.067	19.141	932.711	708.965
176.081	19.038	931.698	707.711
177.096	18.975	931.355	707.126
178.110	18.961	930.664	706.481
179.125	18.961	930.549	706.334
180.140	19.191	930.023	706.815
181.154	19.381	929.721	707.301
182.169	19.672	929.344	708.145
183.183	19.531	928.762	707.063
184.198	19.596	927.572	706.359
185.213	19.573	926.724	705.558
186.227	19.475	927.144	705.415
187.242	19.667	925.956	705.231
188.256	19.934	925.456	705.876
189.271	19.818	924.597	704.685
190.286	19.469	923.369	702.267
191.300	19.042	922.361	699.702
192.315	18.812	921.428	697.999
193.329	18.929	921.236	698.266
194.344	19.090	920.725	698.470
195.359	19.348	919.946	698.863
196.373	19.238	919.579	698.078
197.388	19.556	919.535	699.273
198.402	19.861	919.171	700.165
199.417	19.875	918.609	699.733
200.432	19.988	918.315	699.904
201.446	20.324	917.615	700.666
202.461	20.219	917.293	699.934
203.475	20.160	916.049	698.687
204.490	19.989	914.858	697.027
205.504	19.535	914.351	694.751
206.519	19.584	913.541	694.274
207.534	19.559	913.420	694.017
208.548	19.617	912.640	693.597
209.563	19.641	912.000	693.145
210.577	19.696	911.597	693.000
211.592	20.008	910.655	693.470
212.607	20.140	909.877	693.347
213.621	19.975	908.993	691.953
214.636	19.971	908.451	691.462
215.650	19.857	908.055	690.645
216.665	20.056	907.373	690.856
217.680	20.221	906.927	691.112
218.694	20.192	906.108	690.312
219.709	20.213	905.269	689.697
220.723	20.081	904.862	688.800
221.738	19.898	904.292	687.579
222.753	19.953	903.792	687.358
223.767	20.117	903.226	687.516
224.782	20.281	902.928	687.879
225.796	20.336	902.058	687.370
226.811	20.201	901.166	686.096
227.826	19.771	900.672	683.961
228.840	19.790	900.051	683.503
229.855	19.782	899.264	682.814
230.869	19.925	898.424	682.679
231.884	19.774	897.803	681.550
232.899	19.766	896.838	680.727
233.913	19.586	896.184	679.463
234.928	19.540	895.407	678.633
235.942	19.567	894.708	678.147
236.957	19.527	894.478	677.758
237.972	19.690	893.424	677.537
238.986	19.544	893.065	676.633
240.001	19.556	892.181	675.953
241.015	19.827	891.599	676.509
242.030	19.808	891.206	676.080
243.045	19.875	890.793	675.969
244.059	19.988	890.557	676.170
245.074	20.021	889.735	675.615
246.088	20.100	889.311	675.542
247.103	20.161	888.749	675.292
248.117	20.588	888.457	676.673
249.132	20.722	888.379	677.072
250.147	20.907	888.281	677.659
251.161	20.886	887.437	676.873
252.176	20.906	886.560	676.221
253.190	21.048	885.987	676.275
254.205	20.965	886.035	675.929
255.220	20.998	884.628	674.926
256.234	21.055	883.882	674.516
257.249	21.111	883.043	674.032
258.263	20.815	882.851	672.685
259.278	20.872	881.978	672.181
260.293	20.949	881.581	672.113
261.307	21.110	881.336	672.486
262.322	21.112	880.774	672.008
263.336	21.118	880.185	671.522
264.351	21.150	879.258	670.879
265.366	21.231	878.692	670.697
266.380	21.053	877.948	669.387
267.395	20.999	877.019	668.412
268.409	20.918	876.319	667.509
269.424	20.983	875.459	667.046
270.439	20.943	874.719	666.267
271.453	20.907	873.996	665.521
272.468	20.837	873.327	664.687
273.482	20.684	873.378	664.082
274.497	20.664	872.245	663.088
275.512	20.696	872.380	663.253
276.526	20.764	871.703	662.939
277.541	20.933	871.313	663.224
278.555	21.165	870.451	663.392
279.570	21.373	870.223	663.950
280.585	21.278	869.231	662.774
281.599	21.053	868.390	661.221
282.614	20.913	867.464	659.927
283.628	20.916	867.166	659.654
284.643	20.824	866.766	658.941
285.657	20.781	866.425	658.461
286.672	20.930	865.461	658.234
287.687	20.952	864.494	657.526
288.701	21.014	864.038	657.354
289.716	21.027	863.672	657.066
290.730	21.010	863.198	656.581
291.745	20.991	862.637	656.027
292.760	21.100	862.142	656.004
293.774	21.267	861.786	656.300
294.789	21.225	860.809	655.339
295.803	21.016	860.094	653.953
296.818	20.879	859.305	652.784
297.833	20.901	858.802	652.426
298.847	21.031	858.145	652.354
299.862	21.048	858.121	652.344
300.876	21.180	857.279	652.139
301.891	21.394	856.655	652.406
302.906	21.409	856.475	652.264
303.920	21.714	855.933	652.931
304.935	21.740	855.721	652.811
305.949	21.544	854.776	651.301
306.964	21.333	854.232	650.044
307.979	21.482	853.674	650.116
308.993	21.626	853.060	650.124
310.008	21.454	852.745	649.189
311.022	21.384	851.728	648.100
312.037	21.243	851.112	647.050
313.052	21.062	850.663	645.981
314.066	20.927	849.925	644.864
315.081	20.807	849.367	643.941
316.095	21.035	848.561	644.116
317.110	20.916	848.283	643.406
318.125	20.935	848.081	643.267
319.139	20.865	847.231	642.306
320.154	21.000	846.814	642.433
321.168	21.249	846.074	642.729
322.183	21.186	845.500	642.006
323.197	21.249	844.909	641.731
324.212	21.085	845.009	641.147
325.227	21.099	844.134	640.478
326.241	21.071	843.098	639.534
327.256	21.129	842.746	639.420
328.270	20.901	842.580	638.403
329.285	20.984	841.230	637.629
330.300	21.037	841.072	637.647
331.314	20.948	840.735	637.010
332.329	21.254	840.303	637.743
333.343	21.351	839.991	637.803
334.358	21.468	839.321	637.663
335.373	21.442	839.286	637.487
336.387	21.590	838.815	637.610
337.402	21.476	838.671	637.030
338.416	21.830	838.297	637.978
339.431	21.827	838.256	637.880
340.446	22.060	837.662	638.217
341.460	21.970	837.376	637.619
342.475	22.070	837.263	637.839
343.489	22.140	836.696	637.603
344.504	22.253	836.184	637.568
345.519	22.167	835.520	636.694
346.533	22.168	834.759	636.059
347.548	21.800	834.353	634.363
348.562	21.702	833.432	633.254
349.577	21.394	832.732	631.552
350.592	21.391	832.138	631.036
351.606	21.398	831.224	630.310
352.621	21.445	830.642	629.985
353.635	21.644	830.104	630.236
354.650	21.544	829.367	629.262
355.665	21.833	828.894	629.885
356.679	21.918	828.278	629.665
357.694	21.852	827.946	629.120
358.708	21.768	827.368	628.326
359.723	21.728	826.575	627.524
360.738	21.948	826.006	627.825
361.752	21.782	825.711	626.952
362.767	22.010	825.460	627.519
363.781	22.281	824.749	627.890
364.796	22.230	824.572	627.519
365.810	22.459	824.102	627.922
366.825	22.461	824.097	627.869
367.840	22.447	823.337	627.186
368.854	22.133	822.915	625.691
369.869	21.908	822.501	624.519
370.883	22.168	822.104	625.087
371.898	22.453	821.416	625.523
372.913	22.580	820.828	625.471
373.927	22.464	820.267	624.575
374.942	22.425	819.842	624.058
375.956	22.378	819.835	623.831
376.971	22.653	819.174	624.245
377.986	22.596	818.997	623.854
379.000	22.628	818.810	623.769
380.015	22.764	817.958	623.545
381.029	22.689	816.956	622.461
382.044	22.616	816.532	621.826
383.059	22.611	816.068	621.402
384.073	22.540	815.200	620.435
385.088	22.302	814.306	618.863
386.102	22.323	813.579	618.328
387.117	22.186	813.153	617.471
388.132	22.236	812.445	617.053
389.146	22.278	812.506	617.191
390.161	22.417	812.095	617.312
391.175	22.520	811.764	617.368
392.190	22.400	811.063	616.361
393.205	22.217	810.451	615.200
394.219	22.063	810.226	614.437
395.234	22.124	809.440	613.999
396.248	22.044	808.583	613.015
397.263	21.897	808.680	612.520
398.278	21.921	807.777	611.864
399.292	21.907	807.584	611.618
400.307	21.892	806.980	611.052
401.321	22.067	806.366	611.142
402.336	22.018	806.545	611.055
403.350	22.240	805.969	611.334
404.365	22.434	805.655	611.716
405.380	22.547	805.613	612.022
406.394	22.623	805.163	611.893
407.409	22.634	804.574	611.427
408.423	22.871	804.332	612.011
409.438	22.781	804.193	611.541
410.453	22.922	803.521	611.462
411.467	23.060	802.851	611.376
412.482	23.152	802.318	611.235
413.496	23.158	802.161	611.081
414.511	23.075	802.264	610.819
415.526	23.031	801.585	610.094
416.540	22.970	800.883	609.295
417.555	23.009	800.301	608.934
418.569	22.969	800.124	608.607
419.584	22.969	799.758	608.274
420.599	22.861	799.131	607.373
421.613	165.276	1371.168	1796.299
422.628	143.599	1454.505	1796.377
