DTS Sentinel unit serial number:	SN413079Multiplexer serial number:	ORYXHardware model number:	OX4-SRSoftware version number:	ORYX F/W v4.00 Oryx Data Collector v3.7.2.0data status	okinstallation	princeton_trtdifferential loss correction	single-endedforward channel	channel 1reverse channel	N/Adate	2019/09/13time	14:06:35forward acquisition time	60.00reverse acquisition time	0.00gamma	496.2192k internal	0.2302k external	0.2302temperature offset calibration	1.0164default loss term (dB/km)	0.3790temperature slope calibration	1.0000multiplexer offset coefficient	1.0000multiplexer slope coefficient	1.0000fibre end	0.00T internal ref (°C)	35.25T ext. ref 1 (°C)	4.60T ext. ref 2 (°C)	30.93length (m)	temperature (°C)	Stokes	anti-Stokes-747.200	45.558	0.032	0.030
-746.185	279.094	-0.158	-0.287
-745.171	318.068	-0.091	0.176
-744.156	-200.000	-0.016	0.166
-743.142	800.000	0.056	-0.191
-742.127	-196.177	0.532	-0.004
-741.112	626.566	-0.024	-0.062
-740.098	-61.519	0.229	0.098
-739.083	58.452	-0.089	0.089
-738.069	37.153	0.136	0.123
-737.054	-101.742	0.027	0.007
-736.039	-124.649	-0.056	-0.009
-735.025	-45.383	0.125	-0.063
-734.010	-151.983	-0.195	0.015
-732.996	224.975	-0.160	0.264
-731.981	800.000	-0.067	-0.190
-730.966	-18.240	0.215	0.137
-729.952	193.503	-0.084	-0.129
-728.937	800.000	0.098	-0.301
-727.923	-200.000	-0.064	0.316
-726.908	-10.837	-0.327	-0.220
-725.894	-200.000	-0.077	-0.435
-724.879	-200.000	-0.011	0.140
-723.864	189.215	-0.181	-0.276
-722.850	28.631	-0.093	0.080
-721.835	134.910	-0.169	0.224
-720.821	341.911	-0.158	0.315
-719.806	-161.557	0.221	0.012
-718.791	-200.000	-0.024	0.212
-717.777	800.000	-0.082	-0.355
-716.762	60.712	0.099	-0.100
-715.748	189.078	-0.140	-0.213
-714.733	81.099	-0.101	-0.111
-713.718	23.883	0.151	-0.127
-712.704	-200.000	-0.019	-0.091
-711.689	-36.090	-0.148	0.082
-710.675	-85.321	0.223	0.071
-709.660	-120.580	-0.345	-0.059
-708.645	617.492	0.141	0.359
-707.631	68.464	-0.208	-0.217
-706.616	-147.313	-0.292	0.025
-705.602	-43.581	0.243	0.125
-704.587	174.326	-0.210	-0.309
-703.572	-200.000	0.067	-0.312
-702.558	-160.685	-0.170	-0.009
-701.543	61.788	-0.066	0.067
-700.529	66.429	0.240	-0.249
-699.514	800.000	0.121	0.415
-698.499	16.139	0.241	-0.193
-697.485	-72.577	-0.067	0.025
-696.470	3.606	-0.238	0.177
-695.456	800.000	0.030	-0.098
-694.441	160.783	-0.074	0.105
-693.426	-46.835	-0.133	0.066
-692.412	-72.303	0.103	0.039
-691.397	-108.210	0.147	0.032
-690.383	-200.000	-0.028	-0.166
-689.368	-132.828	-0.150	0.019
-688.354	0.248	0.045	-0.033
-687.339	370.869	-0.062	-0.128
-686.324	-88.563	-0.349	-0.106
-685.310	36.589	-0.170	0.153
-684.295	138.100	-0.059	-0.079
-683.281	233.225	0.123	-0.206
-682.266	-49.271	-0.039	-0.019
-681.251	-28.198	0.174	-0.102
-680.237	-200.000	0.022	-0.130
-679.222	-200.000	0.010	0.103
-678.208	-2.145	-0.349	-0.249
-677.193	21.355	0.208	-0.172
-676.178	359.492	-0.047	-0.096
-675.164	9.396	-0.119	0.092
-674.149	-162.651	-0.441	0.022
-673.135	-68.744	0.407	-0.160
-672.120	30.570	-0.140	0.122
-671.105	-200.000	0.023	-0.154
-670.091	-175.862	-0.242	0.007
-669.076	54.326	-0.118	0.115
-668.062	43.631	0.337	0.313
-667.047	-200.000	0.006	-0.199
-666.032	169.100	-0.054	0.078
-665.018	184.433	-0.116	0.174
-664.003	74.425	-0.286	-0.305
-662.989	-23.214	0.279	0.171
-661.974	-74.867	0.367	0.134
-660.959	-102.044	-0.119	-0.029
-659.945	-85.979	-0.103	0.032
-658.930	-65.105	-0.302	0.124
-657.916	71.573	0.160	0.169
-656.901	10.756	-0.002	0.002
-655.886	-59.037	-0.054	0.024
-654.872	46.460	0.099	0.093
-653.857	430.654	0.049	-0.107
-652.843	-56.441	-0.098	-0.044
-651.828	-94.642	0.465	-0.128
-650.814	-120.002	-0.161	-0.028
-649.799	-19.578	0.061	0.039
-648.784	274.186	-0.097	-0.175
-647.770	270.888	-0.063	0.113
-646.755	-200.000	-0.089	-0.452
-645.741	-118.882	-0.258	0.046
-644.726	37.456	-0.185	0.166
-643.711	176.021	-0.082	-0.120
-642.697	-45.898	-0.183	0.092
-641.682	106.325	0.130	0.156
-640.668	260.228	-0.045	-0.080
-639.653	69.928	0.197	0.206
-638.638	800.000	-0.091	-0.309
-637.624	-106.252	0.099	-0.023
-636.609	169.911	0.178	-0.258
-635.595	-37.133	0.180	-0.098
-634.580	-12.889	0.178	-0.118
-633.565	62.924	0.143	-0.145
-632.551	228.527	0.039	0.065
-631.536	-69.455	-0.209	-0.081
-630.522	-138.099	0.075	0.008
-629.507	-200.000	-0.012	0.237
-628.492	47.399	0.274	0.259
-627.478	800.000	-0.001	-0.003
-626.463	-200.000	-0.023	-0.290
-625.449	-60.392	-0.350	0.151
-624.434	90.042	-0.073	-0.083
-623.419	144.881	0.118	-0.160
-622.405	800.000	0.080	0.236
-621.390	560.072	0.101	0.246
-620.376	606.729	0.075	0.191
-619.361	-0.932	0.151	-0.108
-618.346	97.284	-0.156	-0.182
-617.332	-13.550	-0.375	-0.247
-616.317	176.795	0.037	0.055
-615.303	-200.000	0.012	-0.163
-614.288	-118.890	-0.176	0.031
-613.273	800.000	0.092	0.402
-612.259	-127.996	-0.109	-0.016
-611.244	-4.234	-0.243	0.171
-610.230	58.058	0.105	-0.104
-609.215	60.552	0.075	-0.075
-608.201	3.503	-0.309	-0.228
-607.186	-92.227	0.150	0.043
-606.171	-97.617	-0.306	-0.081
-605.157	-86.343	-0.140	0.044
-604.142	-200.000	-0.040	-0.182
-603.128	-164.923	0.345	0.016
-602.113	-6.011	0.140	-0.097
-601.098	-170.864	-0.154	-0.005
-600.084	3.691	-0.070	0.052
-599.069	228.809	-0.144	-0.238
-598.055	-159.907	-0.395	0.022
-597.040	-16.017	0.123	-0.079
-596.025	-48.458	-0.241	0.117
-595.011	-22.232	0.331	0.204
-593.996	490.487	-0.059	0.138
-592.982	-143.862	-0.159	0.015
-591.967	-135.243	0.322	-0.039
-590.952	182.993	0.174	0.261
-589.938	-109.455	-0.126	-0.027
-588.923	99.905	-0.108	0.127
-587.909	750.618	-0.095	-0.259
-586.894	652.905	0.080	0.209
-585.879	671.756	0.070	-0.185
-584.865	-20.416	0.448	0.279
-583.850	44.917	0.103	0.096
-582.836	-8.592	-0.056	-0.038
-581.821	79.124	-0.017	0.019
-580.806	4.250	-0.028	-0.021
-579.792	70.192	0.266	-0.279
-578.777	-94.280	-0.013	-0.004
-577.763	88.299	-0.184	-0.207
-576.748	307.374	-0.172	-0.325
-575.733	72.648	0.143	0.151
-574.719	88.022	-0.212	-0.238
-573.704	-45.169	0.244	-0.123
-572.690	67.720	0.155	-0.160
-571.675	800.000	-0.068	-0.276
-570.661	329.711	-0.049	0.096
-569.646	-200.000	-0.010	-0.242
-568.631	79.256	0.341	-0.370
-567.617	236.495	0.121	0.202
-566.602	-200.000	0.025	0.323
-565.588	-98.219	-0.181	-0.047
-564.573	-141.768	0.263	-0.027
-563.558	353.896	-0.063	0.127
-562.544	480.361	0.123	-0.282
-561.529	-8.314	0.166	-0.113
-560.515	-128.641	0.123	0.018
-559.500	-169.324	0.033	-0.001
-558.485	-145.063	-0.050	-0.005
-557.471	800.000	0.051	-0.152
-556.456	-51.215	-0.162	0.077
-555.442	800.000	0.100	-0.333
-554.427	-54.460	-0.145	-0.067
-553.412	43.019	0.211	-0.195
-552.398	-111.483	-0.390	-0.080
-551.383	800.000	0.049	0.198
-550.369	-200.000	-0.032	0.203
-549.354	627.504	-0.068	0.173
-548.339	800.000	0.086	-0.328
-547.325	-44.604	0.255	-0.129
-546.310	-137.418	0.085	0.010
-545.296	800.000	0.035	-0.120
-544.281	-200.000	-0.007	-0.101
-543.266	-200.000	-0.023	0.196
-542.252	154.762	0.217	-0.302
-541.237	-49.546	0.115	-0.055
-540.223	-200.000	-0.059	-0.581
-539.208	800.000	0.010	-0.033
-538.193	800.000	0.083	0.280
-537.179	42.782	-0.161	-0.148
-536.164	-196.662	0.157	0.001
-535.150	372.212	0.121	0.247
-534.135	-144.403	-0.364	-0.034
-533.121	-39.314	0.342	-0.181
-532.106	-91.612	-0.182	0.052
-531.091	211.707	-0.062	0.098
-530.077	-137.231	0.297	-0.034
-529.062	272.763	-0.106	-0.189
-528.048	-37.876	0.120	0.065
-527.033	-200.000	0.033	0.352
-526.018	-89.512	-0.334	-0.099
-525.004	-108.045	0.208	0.046
-523.989	-131.959	0.099	0.013
-522.975	51.498	-0.067	0.065
-521.960	-73.570	-0.171	0.063
-520.945	-117.020	-0.340	0.063
-519.931	-140.787	-0.283	-0.030
-518.916	-112.498	0.035	0.007
-517.902	390.267	0.027	0.058
-516.887	699.611	-0.082	-0.217
-515.872	-200.000	0.003	-0.124
-514.858	-179.731	-0.304	0.007
-513.843	-76.929	0.270	-0.095
-512.829	-200.000	-0.006	0.026
-511.814	93.860	-0.035	-0.040
-510.799	-138.436	-0.297	0.033
-509.785	-11.648	-0.340	0.226
-508.770	54.543	0.144	-0.140
-507.756	386.472	-0.098	-0.205
-506.741	-200.000	-0.016	0.182
-505.726	-34.195	-0.069	0.038
-504.712	129.411	0.196	-0.253
-503.697	800.000	0.056	0.248
-502.683	800.000	0.058	0.176
-501.668	19.263	0.318	-0.258
-500.653	-200.000	-0.026	-0.117
-499.639	-49.024	-0.120	0.058
-498.624	32.943	0.215	0.188
-497.610	339.057	-0.055	0.108
-496.595	-200.000	0.030	0.320
-495.581	-57.213	0.451	0.201
-494.566	97.492	0.193	0.224
-493.551	114.859	0.172	0.212
-492.537	16.425	-0.175	-0.140
-491.522	-19.365	-0.112	0.070
-490.508	30.199	0.360	0.310
-489.493	52.235	0.286	0.275
-488.478	-94.133	-0.212	-0.059
-487.464	97.207	0.117	0.136
-486.449	206.979	0.180	0.283
-485.435	-61.727	-0.207	-0.087
-484.420	-61.014	0.083	-0.035
-483.405	509.023	0.163	0.382
-482.391	-200.000	-0.020	0.439
-481.376	66.779	-0.116	0.119
-480.362	22.304	0.169	0.139
-479.347	800.000	-0.081	0.227
-478.332	-40.963	0.313	-0.163
-477.318	28.574	0.114	-0.098
-476.303	-85.350	-0.158	0.050
-475.289	-156.053	-0.443	0.028
-474.274	232.074	0.065	0.107
-473.259	520.694	0.074	0.174
-472.245	-200.000	-0.007	-0.267
-471.230	224.625	0.108	0.175
-470.216	-99.104	0.093	0.024
-469.201	-200.000	0.091	0.445
-468.186	800.000	-0.026	-0.097
-467.172	101.538	0.151	-0.178
-466.157	517.669	-0.088	-0.207
-465.143	196.545	-0.187	-0.287
-464.128	-97.040	0.241	0.064
-463.113	120.961	-0.031	0.039
-462.099	-124.839	0.252	0.039
-461.084	800.000	0.057	0.234
-460.070	-96.237	0.155	-0.042
-459.055	6.350	-0.066	0.049
-458.040	232.170	0.060	-0.100
-457.026	-152.560	-0.198	0.014
-456.011	412.808	0.069	-0.147
-454.997	121.608	0.230	-0.289
-453.982	33.867	0.209	0.183
-452.968	-200.000	0.043	-0.287
-451.953	-200.000	0.025	0.135
-450.938	0.487	-0.275	0.198
-449.924	800.000	-0.018	0.052
-448.909	-200.000	-0.008	0.202
-447.895	-23.060	-0.124	0.075
-446.880	-190.774	0.151	-0.002
-445.865	331.693	0.118	-0.230
-444.851	666.734	-0.049	-0.127
-443.836	-10.199	-0.352	0.235
-442.822	-138.133	-0.170	-0.019
-441.807	58.960	-0.268	0.265
-440.792	192.368	-0.025	0.037
-439.778	-200.000	0.025	-0.198
-438.763	171.074	0.135	-0.195
-437.749	-200.000	-0.030	-0.236
-436.734	211.887	-0.171	0.271
-435.719	91.840	-0.211	0.239
-434.705	44.424	-0.151	-0.139
-433.690	800.000	0.045	-0.151
-432.676	30.304	0.175	-0.150
-431.661	705.883	0.114	0.303
-430.646	800.000	-0.100	-0.340
-429.632	52.126	-0.235	0.225
-428.617	-80.578	-0.079	0.026
-427.603	-151.531	0.100	-0.007
-426.588	119.740	-0.065	-0.081
-425.573	800.000	-0.093	0.324
-424.559	-200.000	0.045	0.246
-423.544	-34.909	-0.297	0.163
-422.530	-200.000	-0.017	-0.076
-421.515	-200.000	-0.003	0.025
-420.500	261.516	-0.136	0.237
-419.486	-177.252	0.355	0.009
-418.471	800.000	-0.063	-0.204
-417.457	162.798	0.093	0.131
-416.442	-120.620	-0.352	-0.060
-415.428	4.209	0.447	-0.329
-414.413	-45.138	-0.370	0.185
-413.398	158.344	-0.114	0.159
-412.384	72.920	-0.225	0.236
-411.369	221.067	0.143	-0.231
-410.355	30.270	-0.207	-0.178
-409.340	-73.248	-0.219	-0.081
-408.325	-5.095	0.149	0.103
-407.311	378.488	-0.151	-0.310
-406.296	-50.727	-0.424	-0.201
-405.282	85.844	0.138	0.152
-404.267	-162.178	0.339	-0.017
-403.252	-200.000	0.002	-0.125
-402.238	-156.479	-0.282	-0.018
-401.223	-152.840	0.199	0.014
-400.209	-200.000	-0.052	0.536
-399.194	-132.767	0.190	0.024
-398.179	52.557	-0.151	-0.145
-397.165	27.642	-0.206	0.174
-396.150	513.295	0.069	0.163
-395.136	137.545	-0.148	0.195
-394.121	-170.266	-0.307	0.011
-393.106	-110.134	-0.181	-0.038
-392.092	-93.861	-0.130	0.036
-391.077	800.000	0.020	-0.059
-390.063	102.370	-0.264	-0.310
-389.048	-98.104	0.104	-0.027
-388.033	-200.000	-0.044	0.377
-387.019	-20.354	-0.186	-0.115
-386.004	800.000	-0.019	0.081
-384.990	-87.563	-0.298	0.091
-383.975	108.043	-0.043	-0.052
-382.960	-78.446	0.075	0.026
-381.946	800.000	0.055	0.158
-380.931	244.301	-0.115	0.193
-379.917	-200.000	0.041	-0.243
-378.902	-200.000	-0.020	-0.238
-377.888	283.342	0.071	-0.129
-376.873	-14.161	0.068	0.044
-375.858	-104.197	0.240	0.056
-374.844	74.336	-0.112	0.119
-373.829	467.474	0.041	-0.092
-372.815	-25.448	0.482	-0.286
-371.800	-60.937	-0.320	0.136
-370.785	-50.537	0.172	0.082
-369.771	189.676	-0.007	0.010
-368.756	-23.102	-0.235	-0.142
-367.742	207.546	-0.103	-0.161
-366.727	-70.348	-0.155	-0.059
-365.712	-27.493	-0.219	0.128
-364.698	226.793	-0.073	0.119
-363.683	-61.775	0.083	-0.035
-362.669	166.967	-0.039	-0.056
-361.654	-176.964	-0.412	0.010
-360.639	-62.424	0.282	-0.118
-359.625	-45.716	-0.236	-0.117
-358.610	671.742	-0.102	-0.266
-357.596	303.807	0.020	0.037
-356.581	-45.373	-0.292	-0.145
-355.566	-53.813	0.204	0.093
-354.552	403.236	-0.040	0.085
-353.537	-41.218	0.098	0.051
-352.523	505.811	-0.094	0.220
-351.508	-200.000	-0.007	0.056
-350.493	-99.329	0.237	-0.060
-349.479	800.000	-0.058	-0.233
-348.464	6.537	-0.194	0.144
-347.450	-200.000	0.010	-0.103
-346.435	28.499	0.252	0.214
-345.420	-134.774	0.116	-0.014
-344.406	573.751	0.013	0.031
-343.391	267.459	0.053	0.092
-342.377	23.295	-0.277	-0.228
-341.362	378.255	-0.104	0.214
-340.348	159.728	0.075	0.105
-339.333	107.554	0.179	0.214
-338.318	40.406	-0.121	0.109
-337.304	-49.858	0.053	-0.025
-336.289	237.444	-0.024	0.039
-335.275	-20.418	0.150	0.092
-334.260	229.863	-0.067	-0.109
-333.245	245.979	-0.074	0.125
-332.231	66.853	0.036	-0.037
-331.216	91.733	-0.256	-0.289
-330.202	109.241	0.159	0.191
-329.187	-72.333	-0.158	-0.059
-328.172	-26.189	-0.195	-0.115
-327.158	126.502	0.201	-0.255
-326.143	-200.000	-0.013	-0.124
-325.129	-59.067	-0.037	0.016
-324.114	-92.209	-0.100	0.028
-323.099	218.848	-0.117	0.188
-322.085	-200.000	-0.048	0.419
-321.070	-200.000	0.005	-0.146
-320.056	800.000	-0.010	0.031
-319.041	360.833	-0.195	-0.391
-318.026	306.814	-0.027	0.050
-317.012	-11.891	-0.133	0.087
-315.997	800.000	-0.094	0.346
-314.983	-13.291	0.058	-0.038
-313.968	-200.000	0.007	-0.095
-312.953	334.894	-0.149	-0.289
-311.939	-67.146	0.051	-0.020
-310.924	12.140	-0.108	0.084
-309.910	-75.389	0.106	-0.038
-308.895	-160.635	-0.154	0.008
-307.880	590.859	0.035	0.086
-306.866	-200.000	-0.027	-0.225
-305.851	-117.858	-0.055	0.010
-304.837	-102.702	0.094	0.022
-303.822	646.706	0.078	-0.200
-302.807	-138.291	-0.099	0.011
-301.793	-100.674	-0.285	0.071
-300.778	73.997	0.129	0.136
-299.764	339.797	-0.060	0.117
-298.749	355.397	-0.095	-0.189
-297.735	-79.108	-0.473	-0.161
-296.720	-200.000	-0.035	-0.282
-295.705	-200.000	0.059	0.435
-294.691	-83.325	-0.366	-0.118
-293.676	-37.090	0.288	-0.155
-292.662	-85.606	0.331	0.103
-291.647	246.225	0.084	0.142
-290.632	-58.922	-0.099	-0.043
-289.618	-119.473	-0.204	0.035
-288.603	-200.000	-0.003	0.290
-287.589	-200.000	0.048	0.220
-286.574	16.868	-0.138	-0.110
-285.559	62.182	-0.127	0.126
-284.545	-24.291	0.243	-0.145
-283.530	411.475	-0.098	-0.207
-282.516	47.005	0.137	0.127
-281.501	-113.027	-0.226	-0.045
-280.486	122.083	0.117	-0.146
-279.472	41.136	0.202	-0.182
-278.457	69.159	0.246	-0.253
-277.443	155.156	0.114	-0.158
-276.428	-144.295	0.168	0.016
-275.413	-4.534	0.222	0.154
-274.399	-200.000	0.017	0.092
-273.384	-108.332	-0.151	-0.033
-272.370	-109.061	0.247	-0.053
-271.355	-146.665	0.251	0.022
-270.340	-34.932	0.197	-0.108
-269.326	528.727	-0.120	-0.284
-268.311	800.000	0.065	0.238
-267.297	16.086	-0.242	-0.191
-266.282	800.000	0.027	0.089
-265.267	-91.851	0.171	-0.049
-264.253	257.866	0.141	-0.242
-263.238	-200.000	0.001	0.111
-262.224	-200.000	-0.015	-0.078
-261.209	126.892	0.039	0.049
-260.195	-151.939	0.197	-0.014
-259.180	157.671	-0.136	0.189
-258.165	-60.073	0.320	0.137
-257.151	-120.606	-0.520	0.088
-256.136	-156.042	-0.265	-0.017
-255.122	72.952	-0.086	0.090
-254.107	110.728	-0.075	-0.090
-253.092	-144.449	0.095	-0.009
-252.078	-30.986	0.420	0.237
-251.063	293.698	-0.275	-0.502
-250.049	219.101	-0.165	-0.264
-249.034	-36.938	-0.201	0.108
-248.019	-146.143	-0.177	-0.016
-247.005	-79.100	-0.306	-0.104
-245.990	560.854	-0.051	-0.122
-244.976	762.273	-0.078	-0.211
-243.961	245.224	0.244	0.410
-242.946	51.400	-0.240	0.228
-241.932	-46.800	-0.074	0.036
-240.917	-172.587	-0.366	0.012
-239.903	6.257	0.193	-0.143
-238.888	-200.000	0.002	-0.170
-237.873	405.469	0.116	0.244
-236.859	-65.814	0.052	0.021
-235.844	-200.000	0.003	-0.041
-234.830	481.856	0.044	0.099
-233.815	157.815	0.105	-0.145
-232.800	500.986	-0.121	0.279
-231.786	-200.000	-0.052	-0.313
-230.771	373.674	-0.079	0.160
-229.757	-36.198	-0.335	-0.181
-228.742	800.000	-0.023	-0.102
-227.727	-106.965	0.191	0.042
-226.713	127.298	0.087	-0.111
-225.698	-64.557	-0.306	0.124
-224.684	-133.580	0.395	-0.049
-223.669	276.774	-0.113	-0.201
-222.655	800.000	-0.100	-0.304
-221.640	-82.488	0.431	-0.140
-220.625	35.463	0.217	0.190
-219.611	-66.649	0.228	0.090
-218.596	556.777	-0.049	-0.118
-217.582	800.000	0.063	0.181
-216.567	800.000	0.102	0.286
-215.552	292.919	0.063	-0.114
-214.538	198.676	-0.067	-0.103
-213.523	417.439	0.090	-0.193
-212.509	18.416	-0.312	-0.249
-211.494	-139.604	0.205	-0.022
-210.479	148.716	0.133	-0.180
-209.465	117.825	0.129	-0.159
-208.450	-92.901	-0.292	0.081
-207.436	-87.607	0.217	0.065
-206.421	-10.256	0.420	-0.278
-205.406	119.849	0.010	0.012
-204.392	219.235	0.146	-0.233
-203.377	190.357	0.268	0.402
-202.363	-200.000	-0.033	0.190
-201.348	-3.903	-0.200	-0.138
-200.333	-57.807	0.294	-0.128
-199.319	404.080	0.105	0.221
-198.304	48.056	-0.035	0.033
-197.290	128.343	0.101	0.128
-196.275	-180.529	-0.221	0.005
-195.260	-114.044	0.119	0.023
-194.246	-169.143	0.444	0.016
-193.231	-31.915	0.445	0.248
-192.217	24.963	0.240	-0.198
-191.202	-80.889	0.102	-0.034
-190.187	-8.146	-0.024	0.016
-189.173	-109.298	-0.107	-0.023
-188.158	202.472	-0.094	0.145
-187.144	800.000	-0.057	-0.161
-186.129	-200.000	0.001	0.309
-185.114	229.253	-0.166	-0.271
-184.100	-102.267	-0.138	0.033
-183.085	-200.000	0.032	0.195
-182.071	36.812	0.270	0.238
-181.056	336.011	0.024	-0.047
-180.042	41.884	-0.053	-0.048
-179.027	-44.890	-0.173	-0.086
-178.012	29.686	0.062	-0.052
-176.998	-111.915	-0.272	-0.055
-175.983	-96.248	0.159	-0.042
-174.969	-200.000	0.022	0.111
-173.954	-150.799	0.177	-0.013
-172.939	-200.000	0.025	-0.270
-171.925	626.686	0.089	0.224
-170.910	800.000	0.008	0.030
-169.896	317.143	-0.143	-0.270
-168.881	-12.797	0.276	0.179
-167.866	615.436	0.144	0.361
-166.852	-8.630	0.236	0.158
-165.837	-200.000	-0.017	0.246
-164.823	194.074	-0.111	-0.168
-163.808	19.725	0.103	0.083
-162.793	-166.312	-0.077	-0.003
-161.779	139.060	0.116	-0.151
-160.764	-99.409	-0.165	-0.041
-159.750	38.416	0.291	0.258
-158.735	77.723	-0.131	0.139
-157.720	-8.358	0.245	0.164
-156.706	533.692	-0.168	0.397
-155.691	-200.000	0.024	0.138
-154.677	38.057	0.269	-0.239
-153.662	-200.000	0.041	-0.200
-152.647	1.374	0.232	-0.166
-151.633	-153.890	-0.143	0.010
-150.618	72.430	-0.195	0.202
-149.604	-169.787	-0.268	0.010
-148.589	800.000	-0.131	-0.362
-147.574	0.124	0.132	0.094
-146.560	800.000	-0.118	0.326
-145.545	-200.000	-0.022	-0.111
-144.531	-200.000	0.066	0.309
-143.516	-46.564	0.327	0.160
-142.502	-24.694	-0.097	-0.058
-141.487	-72.558	-0.093	-0.034
-140.472	-200.000	-0.038	0.322
-139.458	403.866	-0.084	0.176
-138.443	-62.856	-0.119	-0.049
-137.429	90.659	-0.104	-0.116
-136.414	-120.559	0.290	-0.049
-135.399	34.846	0.163	-0.142
-134.385	800.000	0.026	0.093
-133.370	-57.314	-0.024	0.011
-132.356	-152.980	-0.076	-0.005
-131.341	98.877	0.052	-0.060
-130.326	-85.874	-0.283	0.087
-129.312	-64.447	-0.192	0.078
-128.297	570.434	0.086	0.208
-127.283	-86.162	0.075	0.023
-126.268	-12.228	-0.141	0.092
-125.253	24.596	0.249	-0.205
-124.239	-1.031	0.315	-0.222
-123.224	66.133	0.202	-0.204
-122.210	-74.832	0.265	-0.095
-121.195	45.152	-0.122	-0.112
-120.180	43.209	0.091	0.083
-119.166	-89.746	0.192	-0.056
-118.151	800.000	-0.124	-0.353
-117.137	766.421	0.092	0.250
-116.122	800.000	0.072	0.253
-115.107	-181.268	-0.254	0.005
-114.093	-27.574	-0.254	0.147
-113.078	-90.268	0.455	0.132
-112.064	-23.599	0.420	-0.250
-111.049	-91.880	-0.103	0.029
-110.034	800.000	0.111	0.354
-109.020	-200.000	0.071	-0.332
-108.005	125.463	-0.279	-0.350
-106.991	-200.000	0.015	-0.198
-105.976	18.356	0.310	0.246
-104.962	71.635	-0.122	0.126
-103.947	-60.817	0.212	0.089
-102.932	800.000	0.022	-0.065
-101.918	48.515	-0.069	0.064
-100.903	-200.000	-0.019	0.136
-99.889	800.000	0.116	0.353
-98.874	-70.344	-0.419	-0.158
-97.859	475.642	0.130	0.293
-96.845	464.503	0.092	-0.203
-95.830	25.437	-0.221	-0.183
-94.816	555.753	0.159	-0.380
-93.801	800.000	0.022	0.083
-92.786	-108.387	0.430	0.092
-91.772	48.955	-0.122	0.114
-90.757	149.263	0.192	0.258
-89.743	-141.962	0.165	-0.016
-88.728	496.616	-0.185	0.422
-87.713	-11.558	-0.152	-0.099
-86.699	-132.021	-0.049	0.006
-85.684	-5.426	0.207	0.141
-84.670	-120.179	0.245	-0.042
-83.655	-86.363	-0.209	0.064
-82.640	82.119	-0.106	0.115
-81.626	434.765	-0.028	-0.059
-80.611	-96.073	0.120	0.032
-79.597	-127.913	-0.061	-0.009
-78.582	-19.899	0.307	-0.188
-77.567	163.172	0.120	-0.167
-76.553	-137.088	0.150	-0.017
-75.538	230.207	-0.087	-0.142
-74.524	-200.000	-0.016	-0.177
-73.509	28.509	-0.137	-0.115
-72.494	199.328	-0.226	-0.344
-71.480	-159.696	0.355	0.019
-70.465	800.000	-0.119	0.328
-69.451	-65.174	0.206	0.082
-68.436	800.000	0.115	0.476
-67.422	-200.000	-0.008	0.217
-66.407	193.910	0.110	0.165
-65.392	-41.802	0.304	0.155
-64.378	358.770	-0.062	-0.123
-63.363	800.000	0.032	-0.100
-62.349	75.839	0.147	0.154
-61.334	44.347	-0.931	-0.848
-60.319	121.097	0.407	0.502
-59.305	800.000	-0.208	-0.752
-58.290	800.000	0.394	1.105
-57.276	-200.000	0.275	1.729
-56.261	-200.000	93.906	553.952
-55.246	622.016	1384.726	3457.895
-54.232	185.255	2604.873	3835.668
-53.217	122.237	2198.831	2724.579
-52.203	47.177	1647.955	1521.664
-51.188	38.805	1381.397	1223.545
-50.173	35.441	1338.514	1165.133
-49.159	55.654	1387.407	1333.121
-48.144	60.011	1405.404	1377.279
-47.130	39.028	1360.230	1205.974
-46.115	35.411	1341.879	1167.693
-45.100	35.205	1336.845	1162.020
-44.086	35.103	1334.926	1159.687
-43.071	35.120	1332.577	1157.706
-42.057	35.062	1330.161	1155.210
-41.042	35.123	1328.472	1154.063
-40.027	35.084	1327.214	1152.686
-39.013	35.166	1324.663	1150.923
-37.998	35.065	1323.212	1149.007
-36.984	35.274	1321.321	1148.575
-35.969	35.279	1319.045	1146.578
-34.954	35.298	1317.407	1145.225
-33.940	35.327	1316.681	1144.719
-32.925	35.341	1314.809	1143.133
-31.911	35.407	1313.706	1142.521
-30.896	35.387	1312.053	1140.919
-29.881	35.335	1310.963	1139.618
-28.867	35.449	1309.333	1138.832
-27.852	35.426	1307.874	1137.380
-26.838	35.352	1306.422	1135.631
-25.823	35.291	1305.103	1134.079
-24.809	35.343	1303.315	1132.789
-23.794	35.343	1302.349	1131.904
-22.779	35.410	1300.416	1130.576
-21.765	35.373	1299.566	1129.574
-20.750	35.230	1298.707	1127.940
-19.736	35.257	1296.990	1126.564
-18.721	35.238	1295.766	1125.346
-17.706	35.165	1294.677	1123.926
-16.692	35.178	1293.241	1122.711
-15.677	35.179	1292.264	1121.823
-14.663	35.324	1290.773	1121.332
-13.648	35.125	1290.002	1119.453
-12.633	35.120	1289.130	1118.624
-11.619	35.098	1288.687	1118.067
-10.604	35.186	1287.469	1117.479
-9.590	35.177	1286.370	1116.429
-8.575	35.175	1285.314	1115.453
-7.560	35.172	1284.317	1114.528
-6.546	35.178	1283.984	1114.233
-5.531	35.070	1282.594	1112.350
-4.517	35.107	1282.054	1112.053
-3.502	35.090	1281.243	1111.206
-2.487	35.151	1279.795	1110.263
-1.473	35.199	1275.569	1106.830
-0.458	33.829	1260.515	1085.897
0.556	31.808	1240.915	1042.072
1.571	27.074	1244.645	1018.633
2.586	25.601	1258.234	1021.310
3.600	23.906	1245.807	1001.594
4.615	17.976	1171.808	910.502
5.629	9.212	1095.247	807.092
6.644	4.977	1074.032	770.494
7.659	4.581	1071.185	766.428
8.673	4.414	1069.936	764.646
9.688	4.429	1068.452	763.594
10.702	5.054	1067.504	765.917
11.717	10.574	1075.822	799.069
12.731	19.040	1087.071	849.319
13.746	22.230	1090.769	867.908
14.761	21.841	1089.944	865.254
15.775	21.004	1088.103	859.591
16.790	19.988	1086.222	853.026
17.804	19.276	1084.640	848.205
18.819	18.887	1083.927	845.663
19.834	18.939	1082.641	844.839
20.848	18.714	1082.221	843.329
21.863	18.569	1081.243	841.783
22.877	18.484	1080.057	840.368
23.892	18.299	1079.796	839.183
24.907	18.229	1079.165	838.274
25.921	18.494	1077.630	838.305
26.936	18.281	1076.939	836.652
27.950	18.389	1075.294	835.828
28.965	18.625	1073.422	835.446
29.980	18.729	1072.449	835.120
30.994	18.788	1071.182	834.351
32.009	18.792	1070.391	833.679
33.023	18.746	1069.240	832.487
34.038	18.581	1068.121	830.743
35.053	18.391	1067.644	829.379
36.067	18.433	1066.362	828.512
37.082	18.466	1066.029	828.337
38.096	18.570	1065.425	828.296
39.111	18.804	1064.069	828.300
40.126	18.495	1063.001	825.908
41.140	18.279	1061.432	823.577
42.155	18.141	1059.983	821.716
43.169	17.998	1058.898	820.113
44.184	18.071	1058.248	819.888
45.199	18.142	1057.467	819.550
46.213	18.280	1056.279	819.219
47.228	18.452	1055.558	819.409
48.242	18.461	1054.562	818.607
49.257	18.524	1053.563	818.058
50.271	18.644	1053.004	818.123
51.286	18.650	1051.805	817.151
52.301	18.490	1051.257	815.892
53.315	18.278	1050.016	813.845
54.330	18.199	1048.821	812.475
55.344	18.195	1048.195	811.898
56.359	18.299	1046.747	811.195
57.374	18.183	1046.504	810.387
58.388	18.062	1044.899	808.500
59.403	18.041	1044.272	807.847
60.417	18.069	1043.516	807.321
61.432	17.887	1042.906	805.918
62.447	18.028	1041.880	805.721
63.461	17.757	1041.519	804.092
64.476	17.829	1040.152	803.304
65.490	17.965	1039.192	803.129
66.505	18.000	1038.391	802.607
67.520	17.947	1037.892	801.898
68.534	18.036	1036.513	801.182
69.549	17.866	1036.328	800.170
70.563	17.794	1035.496	799.118
71.578	17.762	1034.787	798.350
72.593	17.609	1033.969	796.934
73.607	17.697	1032.969	796.503
74.622	17.704	1032.516	796.114
75.636	17.746	1032.213	796.011
76.651	17.790	1031.538	795.621
77.666	17.845	1030.525	795.027
78.680	17.746	1029.809	793.944
79.695	17.929	1029.028	794.122
80.709	17.999	1028.971	794.336
81.724	18.063	1028.394	794.114
82.739	18.232	1027.184	793.893
83.753	18.398	1026.797	794.295
84.768	18.599	1026.089	794.607
85.782	18.722	1024.764	794.082
86.797	18.816	1024.051	793.895
87.812	18.604	1023.173	792.162
88.826	18.565	1022.215	791.170
89.841	18.673	1021.469	791.022
90.855	18.669	1020.617	790.274
91.870	18.613	1020.131	789.570
92.884	18.530	1019.263	788.448
93.899	18.661	1017.931	787.949
94.914	18.728	1017.294	787.693
95.928	18.878	1015.854	787.197
96.943	18.624	1015.290	785.528
97.957	18.632	1014.447	784.839
98.972	18.734	1013.496	784.503
99.987	18.738	1012.550	783.717
101.001	18.660	1011.534	782.507
102.016	18.712	1010.450	781.838
103.030	18.653	1009.842	781.029
104.045	18.683	1009.242	780.632
105.060	18.541	1008.274	779.169
106.074	18.259	1006.904	776.758
107.089	18.077	1006.170	775.298
108.103	17.983	1005.202	774.060
109.118	18.037	1004.461	773.667
110.133	17.914	1003.221	772.084
111.147	17.841	1002.260	770.950
112.162	18.038	1001.282	771.015
113.176	18.199	1000.868	771.356
114.191	18.267	1000.339	771.185
115.206	18.195	999.676	770.280
116.220	18.080	998.761	768.992
117.235	18.068	997.909	768.211
118.249	18.115	996.826	767.521
119.264	17.937	996.044	766.053
120.279	17.960	995.420	765.608
121.293	17.849	994.767	764.545
122.308	17.933	993.352	763.762
123.322	17.846	992.108	762.350
124.337	17.675	991.474	761.033
125.352	17.765	990.417	760.553
126.366	17.783	989.239	759.664
127.381	17.854	987.940	758.915
128.395	17.846	987.566	758.524
129.410	18.060	986.268	758.412
130.424	17.977	985.840	757.644
131.439	18.190	985.155	757.998
132.454	18.173	984.532	757.373
133.468	18.157	983.894	756.745
134.483	18.333	982.537	756.414
135.497	18.305	981.868	755.709
136.512	18.182	981.457	754.780
137.527	18.199	980.014	753.681
138.541	18.327	979.741	753.965
139.556	18.278	978.731	752.906
140.570	18.448	978.533	753.434
141.585	18.604	977.404	753.184
142.600	18.612	976.638	752.564
143.614	18.831	976.125	753.060
144.629	18.815	975.003	752.059
145.643	18.768	973.931	750.959
146.658	18.455	972.794	748.649
147.673	18.352	971.940	747.479
148.687	18.357	971.126	746.805
149.702	18.342	969.760	745.626
150.716	18.280	969.107	744.788
151.731	18.389	968.417	744.666
152.746	18.320	967.786	743.816
153.760	18.531	966.826	743.925
154.775	18.501	966.932	743.812
155.789	18.515	966.278	743.303
156.804	18.528	965.051	742.351
157.819	18.520	964.886	742.124
158.833	18.722	964.031	742.272
159.848	18.907	963.521	742.615
160.862	18.747	962.333	740.943
161.877	18.298	961.251	738.108
162.892	18.230	959.841	736.669
163.906	18.168	959.131	735.789
164.921	18.263	958.304	735.500
165.935	18.432	956.861	735.053
166.950	18.337	956.307	734.153
167.964	18.467	955.420	733.965
168.979	18.190	954.584	732.072
169.994	18.434	953.082	731.896
171.008	18.289	953.312	731.390
172.023	18.692	952.399	732.347
173.037	18.803	951.614	732.148
174.052	18.668	950.793	730.879
175.067	18.336	950.220	728.960
176.081	18.322	949.232	728.077
177.096	18.334	948.673	727.635
178.110	18.358	948.252	727.349
179.125	18.399	947.813	727.125
180.140	18.339	947.481	726.551
181.154	18.530	947.225	727.102
182.169	18.636	946.621	727.020
183.183	18.735	945.854	726.785
184.198	18.764	945.165	726.313
185.213	18.768	944.553	725.799
186.227	18.789	943.906	725.323
187.242	18.800	943.411	724.927
188.256	18.886	942.766	724.728
189.271	18.820	942.266	724.005
190.286	18.609	940.600	721.773
191.300	18.254	939.659	719.494
192.315	18.191	938.948	718.620
193.329	18.186	938.867	718.475
194.344	18.275	938.159	718.242
195.359	18.408	937.792	718.454
196.373	18.547	937.475	718.729
197.388	18.845	937.028	719.571
198.402	18.989	936.427	719.652
199.417	19.139	936.062	719.932
200.432	19.200	935.096	719.382
201.446	19.155	935.372	719.343
202.461	19.296	934.398	719.120
203.475	19.199	933.911	718.274
204.490	19.011	932.734	716.525
205.504	18.842	932.154	715.311
206.519	18.894	930.886	714.489
207.534	18.788	930.716	713.857
208.548	18.765	930.416	713.470
209.563	18.864	929.871	713.397
210.577	18.929	928.682	712.692
211.592	19.347	927.639	713.560
212.607	19.223	927.258	712.691
213.621	19.051	926.524	711.353
214.636	19.006	926.090	710.770
215.650	19.253	925.419	711.211
216.665	19.257	924.427	710.402
217.680	19.301	924.177	710.328
218.694	19.429	922.909	709.817
219.709	19.302	922.289	708.755
220.723	19.310	921.933	708.453
221.738	19.300	920.884	707.542
222.753	19.176	920.985	707.050
223.767	19.409	920.126	707.282
224.782	19.599	919.362	707.411
225.796	19.566	919.055	706.976
226.811	19.453	918.310	705.879
227.826	19.130	917.500	703.872
228.840	19.271	916.416	703.553
229.855	19.227	915.630	702.709
230.869	19.240	914.787	702.055
231.884	19.186	914.400	701.474
232.899	19.023	913.502	700.061
233.913	18.968	912.865	699.285
234.928	18.942	911.905	698.385
235.942	19.043	911.720	698.589
236.957	19.100	910.952	698.171
237.972	18.868	910.882	697.115
238.986	19.077	909.736	697.021
240.001	19.024	908.938	696.135
241.015	19.185	908.463	696.359
242.030	19.229	908.211	696.283
243.045	19.251	907.180	695.522
244.059	19.223	906.628	694.923
245.074	19.236	906.628	694.915
246.088	19.480	905.829	695.225
247.103	19.471	905.404	694.800
248.117	19.514	905.559	695.029
249.132	19.882	904.917	695.956
250.147	19.975	904.132	695.663
251.161	20.069	903.266	695.312
252.176	20.081	902.739	694.895
253.190	20.126	902.188	694.588
254.205	20.178	901.566	694.255
255.220	20.202	900.905	693.784
256.234	20.056	900.145	692.552
257.249	20.125	899.217	692.054
258.263	20.066	898.775	691.415
259.278	19.912	898.148	690.257
260.293	20.090	897.651	690.524
261.307	20.280	897.168	690.850
262.322	20.158	896.361	689.682
263.336	20.260	895.442	689.316
264.351	20.286	894.688	688.781
265.366	20.369	894.384	688.814
266.380	20.244	893.840	687.837
267.395	20.234	892.540	686.739
268.409	20.108	892.141	685.871
269.424	20.043	891.348	684.943
270.439	20.021	890.360	684.038
271.453	19.906	889.950	683.210
272.468	19.984	889.370	683.010
273.482	20.021	888.864	682.709
274.497	19.938	888.222	681.828
275.512	20.158	887.323	681.943
276.526	20.115	886.978	681.445
277.541	20.146	886.470	681.118
278.555	20.317	886.128	681.465
279.570	20.385	885.843	681.455
280.585	20.411	884.655	680.584
281.599	20.340	883.601	679.433
282.614	20.190	883.050	678.363
283.628	20.192	882.381	677.797
284.643	20.176	881.742	677.181
285.657	20.206	881.094	676.741
286.672	20.203	880.736	676.395
287.687	20.386	879.733	676.280
288.701	20.182	879.179	674.999
289.716	20.121	879.372	674.849
290.730	20.172	878.483	674.304
291.745	20.405	877.577	674.455
292.760	20.344	877.246	673.903
293.774	20.415	876.897	673.852
294.789	20.589	875.842	673.656
295.803	20.326	875.397	672.235
296.818	20.099	874.566	670.661
297.833	20.277	874.116	670.944
298.847	20.221	873.495	670.190
299.862	20.369	872.932	670.273
300.876	20.475	872.299	670.137
301.891	20.653	871.929	670.480
302.906	20.732	871.272	670.218
303.920	20.866	871.409	670.781
304.935	20.911	870.092	669.881
305.949	20.812	869.589	669.051
306.964	20.563	869.053	667.625
307.979	20.572	868.785	667.395
308.993	20.748	868.169	667.539
310.008	20.681	867.495	666.702
311.022	20.720	866.827	666.281
312.037	20.515	866.258	664.998
313.052	20.404	865.120	663.645
314.066	20.275	864.948	662.958
315.081	20.257	864.095	662.179
316.095	20.233	863.758	661.770
317.110	20.291	863.080	661.413
318.125	20.329	862.859	661.331
319.139	20.156	862.343	660.219
320.154	20.259	861.665	660.031
321.168	20.439	861.104	660.228
322.183	20.450	860.489	659.739
323.197	20.571	860.292	659.991
324.212	20.488	859.439	658.961
325.227	20.519	858.706	658.458
326.241	20.519	858.162	657.983
327.256	20.367	857.958	657.196
328.270	20.432	856.911	656.580
329.285	20.379	856.833	656.260
330.300	20.472	855.930	655.861
331.314	20.546	855.388	655.667
332.329	20.714	854.793	655.788
333.343	20.820	854.601	655.981
334.358	20.893	853.912	655.668
335.373	20.780	853.680	655.009
336.387	20.784	853.749	655.016
337.402	20.883	853.522	655.160
338.416	21.015	853.052	655.234
339.431	21.052	853.188	655.422
340.446	21.065	852.752	655.077
341.460	21.176	852.136	654.963
342.475	21.218	851.965	654.931
343.489	21.212	851.434	654.441
344.504	21.389	850.534	654.356
345.519	21.390	850.497	654.273
346.533	21.396	849.581	653.532
347.548	21.075	849.069	651.881
348.562	21.088	848.287	651.271
349.577	20.868	847.349	649.672
350.592	20.794	847.038	649.099
351.606	20.844	846.313	648.676
352.621	20.936	845.330	648.204
353.635	20.984	844.884	647.983
354.650	20.928	844.249	647.234
355.665	21.096	843.700	647.376
356.679	21.056	843.478	647.001
357.694	20.957	842.816	646.070
358.708	21.262	841.844	646.398
359.723	21.125	841.409	645.500
360.738	21.190	840.895	645.289
361.752	21.145	840.485	644.750
362.767	21.364	839.706	644.902
363.781	21.461	839.387	644.958
364.796	21.658	838.485	644.932
365.810	21.745	838.453	645.171
366.825	21.770	837.924	644.802
367.840	21.544	837.803	643.820
368.854	21.554	836.832	643.052
369.869	21.363	836.818	642.283
370.883	21.360	836.553	642.011
371.898	21.520	835.940	642.072
372.913	21.584	835.601	641.988
373.927	21.617	835.189	641.738
374.942	21.591	834.266	640.875
375.956	21.695	834.178	641.131
376.971	21.972	833.169	641.312
377.986	21.724	833.538	640.631
379.000	21.884	833.242	640.934
380.015	21.887	832.213	640.095
381.029	21.684	831.750	638.943
382.044	21.810	830.926	638.713
383.059	21.921	830.370	638.634
384.073	21.863	829.417	637.631
385.088	21.648	828.750	636.281
386.102	21.569	828.493	635.742
387.117	21.446	827.843	634.741
388.132	21.508	826.907	634.190
389.146	21.526	826.744	634.076
390.161	21.712	826.691	634.653
391.175	21.724	826.030	634.131
392.190	21.602	825.485	633.216
393.205	21.589	824.630	632.459
394.219	21.604	824.277	632.186
395.234	21.582	823.879	631.744
396.248	21.380	823.511	630.676
397.263	21.420	823.194	630.523
398.278	21.391	822.506	629.836
399.292	21.286	822.471	629.375
400.307	21.331	821.580	628.799
401.321	21.591	820.938	629.187
402.336	21.566	820.793	628.931
403.350	21.646	820.229	628.730
404.365	21.782	820.145	629.096
405.380	21.831	819.765	628.928
406.394	22.121	818.822	629.187
407.409	22.113	818.633	628.955
408.423	22.034	818.672	628.648
409.438	22.131	818.278	628.637
410.453	22.234	817.922	628.675
411.467	22.286	817.068	628.151
412.482	22.446	816.636	628.333
413.496	22.426	816.417	628.037
414.511	22.163	816.316	626.968
415.526	22.307	815.465	626.769
416.540	22.177	814.834	625.769
417.555	22.324	814.343	625.859
418.569	22.264	814.088	625.394
419.584	22.276	813.536	624.957
420.599	22.292	813.191	624.690
421.613	158.560	1369.945	1788.059
422.628	138.024	1451.098	1788.152
