DTS Sentinel unit serial number:	SN413079Multiplexer serial number:	ORYXHardware model number:	OX4-SRSoftware version number:	ORYX F/W v4.00 Oryx Data Collector v3.7.2.0data status	okinstallation	princeton_trtdifferential loss correction	single-endedforward channel	channel 1reverse channel	N/Adate	2019/09/17time	19:30:35forward acquisition time	60.00reverse acquisition time	0.00gamma	496.2192k internal	0.2309k external	0.2309temperature offset calibration	0.9971default loss term (dB/km)	0.3790temperature slope calibration	1.0000multiplexer offset coefficient	1.0000multiplexer slope coefficient	1.0000fibre end	0.00T internal ref (°C)	36.62T ext. ref 1 (°C)	0.25T ext. ref 2 (°C)	25.07length (m)	temperature (°C)	Stokes	anti-Stokes-747.200	344.464	0.105	0.210
-746.185	-200.000	-0.069	0.404
-745.171	676.837	-0.089	0.236
-744.156	57.932	0.072	0.071
-743.142	193.056	0.091	0.140
-742.127	-200.000	0.035	0.168
-741.112	-18.116	0.082	0.052
-740.098	800.000	0.155	0.599
-739.083	-0.324	-0.259	0.187
-738.069	151.390	-0.165	0.228
-737.054	-200.000	0.060	-0.360
-736.039	78.693	-0.235	-0.255
-735.025	-200.000	0.019	0.331
-734.010	288.999	0.037	-0.068
-732.996	-99.372	-0.409	-0.105
-731.981	125.477	0.333	-0.427
-730.966	466.162	-0.077	-0.176
-729.952	160.254	0.103	-0.146
-728.937	-158.205	-0.246	-0.015
-727.923	800.000	0.019	-0.056
-726.908	-85.473	0.082	0.026
-725.894	-55.605	0.142	0.065
-724.879	305.323	-0.147	-0.277
-723.864	800.000	-0.059	-0.212
-722.850	10.278	0.212	-0.164
-721.835	411.366	0.039	0.083
-720.821	0.727	0.180	-0.131
-719.806	-114.601	-0.354	-0.069
-718.791	-200.000	0.036	0.288
-717.777	38.866	-0.023	-0.021
-716.762	-99.928	0.182	0.046
-715.748	-200.000	-0.007	0.617
-714.733	-200.000	0.027	-0.169
-713.718	203.101	0.101	0.159
-712.704	31.942	-0.257	0.225
-711.689	112.606	0.184	-0.226
-710.675	30.255	0.064	0.056
-709.660	-103.081	0.189	-0.045
-708.645	-59.443	-0.263	0.115
-707.631	254.413	0.069	0.120
-706.616	123.294	-0.112	-0.142
-705.602	82.886	0.285	0.315
-704.587	-35.162	-0.141	0.078
-703.572	-116.876	-0.132	0.025
-702.558	596.256	0.124	-0.312
-701.543	-146.254	0.292	-0.026
-700.529	-200.000	0.006	0.126
-699.514	800.000	-0.017	-0.066
-698.499	679.702	-0.064	0.170
-697.485	153.681	0.205	0.284
-696.470	800.000	-0.034	0.105
-695.456	85.979	0.132	-0.148
-694.441	478.672	0.119	0.274
-693.426	283.410	-0.191	0.348
-692.412	419.845	0.053	0.114
-691.397	3.921	0.126	-0.094
-690.383	49.634	-0.173	-0.165
-689.368	-58.747	-0.342	-0.150
-688.354	58.885	-0.038	0.038
-687.339	193.717	0.019	-0.029
-686.324	-200.000	-0.028	0.192
-685.310	-200.000	0.020	0.103
-684.295	199.036	0.074	-0.115
-683.281	3.197	0.181	0.134
-682.266	29.120	-0.281	0.242
-681.251	55.467	-0.177	-0.174
-680.237	43.340	-0.086	0.079
-679.222	-127.649	0.301	0.044
-678.208	-49.565	-0.265	-0.128
-677.193	-53.929	0.054	0.025
-676.178	78.151	0.095	0.103
-675.164	800.000	-0.039	0.140
-674.149	63.599	0.173	0.176
-673.135	-200.000	0.001	0.131
-672.120	-99.133	-0.366	-0.094
-671.105	256.958	0.102	0.178
-670.091	-200.000	-0.024	-0.299
-669.076	316.107	0.103	0.197
-668.062	-200.000	0.011	-0.077
-667.047	15.694	-0.003	-0.002
-666.032	-200.000	0.001	-0.054
-665.018	18.331	0.124	-0.100
-664.003	-200.000	-0.014	-0.214
-662.989	-11.538	0.267	-0.178
-661.974	-29.669	0.304	-0.176
-660.959	-156.314	-0.111	0.007
-659.945	-46.456	0.184	-0.092
-658.930	-200.000	0.029	-0.205
-657.916	754.901	-0.090	-0.248
-656.901	-123.175	0.079	0.013
-655.886	-53.983	-0.136	0.063
-654.872	14.085	0.108	-0.085
-653.857	195.121	0.144	-0.221
-652.843	373.365	-0.176	-0.363
-651.828	151.042	0.170	0.235
-650.814	180.601	-0.151	0.224
-649.799	-200.000	-0.004	-0.074
-648.784	800.000	0.155	-0.476
-647.770	152.401	-0.095	0.132
-646.755	152.553	-0.078	0.108
-645.741	-200.000	-0.035	-0.221
-644.726	66.443	-0.101	0.104
-643.711	79.216	-0.280	-0.303
-642.697	800.000	-0.039	0.143
-641.682	-200.000	0.041	-0.221
-640.668	206.259	-0.033	0.051
-639.653	-31.986	-0.205	-0.116
-638.638	102.395	0.348	-0.412
-637.624	115.842	-0.069	0.085
-636.609	135.041	-0.147	0.194
-635.595	181.499	0.038	-0.056
-634.580	56.414	-0.277	-0.272
-633.565	-168.431	0.131	-0.005
-632.551	36.117	0.085	0.076
-631.536	-16.109	-0.170	0.109
-630.522	107.897	0.255	0.307
-629.507	44.706	-0.126	-0.118
-628.492	-81.168	0.129	-0.043
-627.478	-58.686	-0.193	0.084
-626.463	94.454	0.209	0.241
-625.449	-26.167	0.420	0.250
-624.434	-55.201	-0.107	-0.048
-623.419	-82.269	-0.179	-0.059
-622.405	97.046	-0.083	0.096
-621.390	-96.588	0.103	0.028
-620.376	-101.466	0.127	0.031
-619.361	-125.848	-0.293	0.045
-618.346	64.446	0.208	0.212
-617.332	611.836	-0.074	-0.187
-616.317	800.000	0.070	-0.205
-615.303	-159.116	0.196	-0.011
-614.288	-60.054	-0.137	-0.059
-613.273	-200.000	-0.011	0.193
-612.259	210.689	0.117	-0.186
-611.244	-42.603	-0.140	0.072
-610.230	-164.569	-0.244	-0.011
-609.215	44.179	0.123	-0.114
-608.201	-200.000	-0.031	-0.148
-607.186	187.885	-0.154	0.232
-606.171	800.000	0.112	0.335
-605.157	800.000	-0.080	0.347
-604.142	-87.040	-0.259	-0.080
-603.128	-32.217	-0.247	-0.139
-602.113	-116.940	-0.048	0.009
-601.098	76.580	0.400	-0.429
-600.084	-81.392	0.295	-0.098
-599.069	-84.052	-0.118	0.038
-598.055	-67.025	-0.124	0.049
-597.040	358.663	0.063	0.126
-596.025	-200.000	-0.019	-0.108
-595.011	58.075	-0.246	-0.243
-593.996	280.224	-0.163	-0.294
-592.982	287.053	0.158	0.289
-591.967	57.605	-0.358	-0.353
-590.952	370.991	-0.049	-0.101
-589.938	-200.000	0.015	-0.106
-588.923	120.420	0.272	-0.341
-587.909	-139.360	0.046	-0.005
-586.894	147.705	0.078	-0.107
-585.879	-200.000	0.015	-0.088
-584.865	-200.000	-0.009	-0.044
-583.850	-166.707	0.225	-0.009
-582.836	-15.475	-0.263	-0.169
-581.821	-179.622	-0.267	0.006
-580.806	-32.773	-0.083	-0.047
-579.792	-200.000	-0.034	0.208
-578.777	732.228	-0.175	0.472
-577.763	27.369	0.004	0.004
-576.748	-200.000	0.081	0.000
-575.733	7.320	-0.213	0.160
-574.719	-138.652	-0.225	-0.025
-573.704	-141.140	-0.044	-0.005
-572.690	395.652	-0.068	0.143
-571.675	-200.000	0.017	-0.335
-570.661	-130.798	0.024	-0.003
-569.646	-150.649	-0.286	-0.022
-568.631	-200.000	-0.092	-0.477
-567.617	-200.000	-0.008	-0.251
-566.602	214.827	-0.145	0.231
-565.588	199.559	0.082	0.127
-564.573	-200.000	0.020	0.129
-563.558	47.120	-0.011	-0.010
-562.544	-25.693	-0.118	-0.071
-561.529	263.144	0.156	-0.274
-560.515	76.610	-0.203	-0.217
-559.500	21.715	0.267	0.219
-558.485	-118.416	-0.165	0.029
-557.471	-148.184	-0.097	-0.008
-556.456	-200.000	-0.025	0.166
-555.442	462.953	-0.114	-0.256
-554.427	-135.724	-0.227	0.027
-553.412	-101.047	-0.041	0.010
-552.398	-200.000	0.012	0.084
-551.383	23.826	0.071	0.059
-550.369	29.036	0.192	0.164
-549.354	-103.554	0.102	0.024
-548.339	-184.587	0.316	0.005
-547.325	211.377	0.042	-0.066
-546.310	58.484	0.124	0.123
-545.296	205.234	0.125	-0.196
-544.281	-107.639	-0.184	0.040
-543.266	-22.012	-0.173	-0.106
-542.252	214.647	-0.177	-0.282
-541.237	-159.240	-0.158	-0.009
-540.223	-18.521	0.316	-0.199
-539.208	-200.000	0.006	0.229
-538.193	800.000	0.049	0.142
-537.179	800.000	-0.052	-0.230
-536.164	800.000	-0.068	-0.208
-535.150	-153.850	0.096	0.007
-534.135	3.885	0.108	-0.079
-533.121	-16.759	0.074	-0.047
-532.106	-9.308	0.074	-0.050
-531.091	-117.982	0.025	0.005
-530.077	155.613	-0.104	-0.144
-529.062	-111.566	0.277	-0.057
-528.048	800.000	0.044	-0.130
-527.033	358.056	0.122	-0.246
-526.018	800.000	0.097	-0.331
-525.004	-56.436	-0.094	0.042
-523.989	-100.815	-0.084	0.021
-522.975	-200.000	0.018	-0.170
-521.960	8.344	0.125	0.094
-520.945	-105.345	-0.241	-0.055
-519.931	-21.246	0.139	0.086
-518.916	800.000	-0.033	0.116
-517.902	484.194	0.032	0.074
-516.887	106.416	-0.085	-0.101
-515.872	-2.362	-0.062	0.043
-514.858	352.707	-0.072	0.144
-513.843	5.694	-0.153	0.114
-512.829	-99.021	0.482	-0.123
-511.814	22.540	-0.183	0.151
-510.799	302.038	0.078	0.145
-509.785	262.931	-0.038	-0.066
-508.770	155.814	0.090	0.125
-507.756	-62.846	0.316	-0.132
-506.741	48.744	-0.052	-0.049
-505.726	60.636	0.165	0.164
-504.712	-22.179	0.164	-0.100
-503.697	-139.216	0.298	-0.032
-502.683	-15.371	-0.222	0.143
-501.668	-102.399	-0.264	0.064
-500.653	-98.733	-0.313	0.080
-499.639	-62.489	-0.207	0.087
-498.624	626.555	0.036	-0.092
-497.610	-105.489	0.110	0.025
-496.595	-191.480	0.110	0.001
-495.581	800.000	-0.081	0.240
-494.566	-200.000	-0.072	-0.354
-493.551	800.000	-0.075	-0.277
-492.537	-128.874	0.295	-0.042
-491.522	-72.182	0.224	-0.083
-490.508	222.622	-0.055	0.089
-489.493	403.958	-0.124	-0.263
-488.478	-136.076	-0.336	-0.040
-487.464	-200.000	-0.023	0.160
-486.449	-200.000	-0.020	-0.504
-485.435	-23.375	0.098	-0.059
-484.420	-200.000	0.013	-0.104
-483.405	78.016	0.167	-0.179
-482.391	97.276	0.143	-0.165
-481.376	-200.000	-0.022	-0.196
-480.362	16.188	-0.048	-0.038
-479.347	100.882	-0.072	-0.085
-478.332	-121.002	-0.065	0.011
-477.318	-200.000	-0.030	-0.407
-476.303	165.988	0.139	0.197
-475.289	800.000	-0.080	-0.252
-474.274	-42.734	-0.183	0.093
-473.259	468.160	0.043	0.097
-472.245	48.908	0.062	-0.059
-471.230	56.850	0.044	-0.044
-470.216	318.704	-0.108	-0.206
-469.201	164.730	0.238	0.338
-468.186	-98.929	-0.248	-0.063
-467.172	-143.169	0.264	-0.026
-466.157	204.651	0.033	0.051
-465.143	1.751	0.164	0.119
-464.128	291.808	0.123	0.224
-463.113	-122.958	0.238	-0.038
-462.099	30.222	0.058	0.050
-461.084	51.461	0.255	0.244
-460.070	800.000	0.070	0.223
-459.055	129.364	0.142	-0.182
-458.040	109.510	-0.128	0.154
-457.026	-200.000	-0.002	0.084
-456.011	127.555	0.200	0.255
-454.997	-22.844	0.056	-0.034
-453.982	383.980	-0.113	0.234
-452.968	-46.011	0.080	0.039
-451.953	168.988	-0.038	0.054
-450.938	424.541	0.084	0.182
-449.924	-200.000	-0.052	0.253
-448.909	51.992	-0.140	0.134
-447.895	-94.273	0.168	0.046
-446.880	-129.014	-0.215	0.030
-445.865	7.425	-0.168	-0.126
-444.851	-114.173	0.309	0.060
-443.836	800.000	0.013	0.050
-442.822	254.039	0.105	-0.180
-441.807	-200.000	0.028	0.278
-440.792	-90.368	0.079	0.023
-439.778	-52.718	-0.065	0.030
-438.763	-159.919	0.093	-0.005
-437.749	800.000	0.124	-0.483
-436.734	-135.003	-0.133	-0.016
-435.719	-11.886	-0.286	0.188
-434.705	90.372	0.236	0.265
-433.690	-112.852	-0.074	-0.015
-432.676	-42.856	0.104	0.053
-431.661	206.654	0.079	-0.124
-430.646	-137.007	-0.017	-0.002
-429.632	70.695	0.067	0.069
-428.617	-67.702	0.057	-0.022
-427.603	5.430	-0.107	-0.079
-426.588	152.205	0.051	-0.069
-425.573	76.639	0.213	-0.227
-424.559	-39.820	-0.076	0.040
-423.544	800.000	0.081	0.315
-422.530	-200.000	-0.002	-0.049
-421.515	39.502	-0.217	0.195
-420.500	41.595	-0.255	0.232
-419.486	193.286	0.158	-0.240
-418.471	-90.677	-0.360	0.104
-417.457	-17.450	0.088	-0.055
-416.442	-93.930	0.213	0.059
-415.428	602.325	0.050	-0.125
-414.413	170.460	-0.271	-0.389
-413.398	-200.000	0.033	-0.403
-412.384	-25.289	0.121	-0.072
-411.369	-200.000	-0.058	-0.318
-410.355	-71.124	-0.148	0.056
-409.340	75.680	-0.103	0.110
-408.325	177.312	-0.184	0.269
-407.311	800.000	-0.056	0.173
-406.296	-29.061	0.229	-0.132
-405.282	145.415	0.060	0.080
-404.267	291.709	0.139	-0.254
-403.252	-200.000	0.006	0.148
-402.238	343.901	-0.062	0.123
-401.223	-165.326	-0.305	-0.013
-400.209	800.000	0.012	-0.047
-399.194	214.268	0.159	0.252
-398.179	-200.000	-0.023	-0.142
-397.165	-200.000	-0.008	-0.190
-396.150	-32.607	0.319	-0.178
-395.136	-130.256	-0.154	0.021
-394.121	269.949	0.078	-0.137
-393.106	-97.972	0.222	0.057
-392.092	445.491	0.093	-0.205
-391.077	78.401	-0.123	-0.132
-390.063	-71.190	-0.246	0.093
-389.048	-155.202	0.087	-0.006
-388.033	255.816	-0.077	-0.133
-387.019	134.315	0.114	0.148
-386.004	9.771	0.270	-0.205
-384.990	567.175	0.064	-0.156
-383.975	800.000	0.069	0.276
-382.960	-120.952	-0.342	0.058
-381.946	-200.000	0.019	0.151
-380.931	61.402	0.020	-0.020
-379.917	-44.595	-0.118	-0.059
-378.902	52.481	-0.219	0.209
-377.888	12.860	-0.077	0.059
-376.873	-85.803	0.151	0.047
-375.858	-200.000	0.024	0.108
-374.844	124.983	0.173	-0.218
-373.829	-200.000	-0.054	0.288
-372.815	-161.643	0.303	0.016
-371.800	-200.000	-0.013	-0.070
-370.785	800.000	0.007	0.029
-369.771	-96.008	0.269	-0.072
-368.756	800.000	-0.037	-0.142
-367.742	70.666	-0.021	0.022
-366.727	421.943	-0.190	0.409
-365.712	-200.000	-0.005	0.337
-364.698	-200.000	0.030	-0.131
-363.683	-200.000	-0.028	0.213
-362.669	338.414	0.117	-0.229
-361.654	372.635	0.077	0.157
-360.639	-166.879	-0.189	0.008
-359.625	5.258	-0.365	0.269
-358.610	800.000	-0.020	0.070
-357.596	-92.921	0.278	-0.078
-356.581	-114.619	-0.223	-0.043
-355.566	-123.128	0.277	-0.044
-354.552	-16.887	0.156	0.098
-353.537	-33.138	-0.164	0.091
-352.523	258.713	-0.056	-0.096
-351.508	-107.780	0.229	0.050
-350.493	-117.683	-0.387	0.070
-349.479	221.202	0.173	0.278
-348.464	800.000	0.046	0.196
-347.450	122.555	-0.088	-0.110
-346.435	-119.048	0.058	0.010
-345.420	-169.703	-0.358	-0.013
-344.406	-104.213	0.183	-0.043
-343.391	-200.000	-0.076	0.365
-342.377	11.409	0.061	0.047
-341.362	124.259	0.077	0.097
-340.348	106.076	0.197	0.233
-339.333	800.000	-0.033	0.136
-338.318	-200.000	-0.042	-0.290
-337.304	10.122	-0.311	-0.236
-336.289	-200.000	-0.021	0.206
-335.275	155.059	-0.178	0.245
-334.260	12.989	-0.225	0.174
-333.245	-200.000	0.051	0.352
-332.231	-76.634	0.484	0.170
-331.216	92.653	-0.111	-0.125
-330.202	68.082	-0.442	-0.452
-329.187	-34.177	0.065	-0.036
-328.172	800.000	0.028	0.107
-327.158	-102.485	0.211	-0.050
-326.143	-16.996	-0.220	0.139
-325.129	26.533	-0.074	-0.062
-324.114	-41.849	-0.136	-0.070
-323.099	-97.658	0.287	0.074
-322.085	-123.466	0.196	-0.031
-321.070	-41.016	-0.347	-0.179
-320.056	-200.000	-0.026	-0.282
-319.041	32.845	0.143	0.124
-318.026	226.192	-0.083	0.134
-317.012	-200.000	0.025	0.126
-315.997	-170.309	-0.336	0.012
-314.983	-65.302	0.062	0.025
-313.968	105.117	-0.005	-0.005
-312.953	-181.204	-0.122	-0.002
-311.939	-119.687	-0.468	0.081
-310.924	-74.935	0.063	0.023
-309.910	91.033	0.126	-0.141
-308.895	661.532	0.116	-0.299
-307.880	65.018	0.187	-0.189
-306.866	-97.773	0.161	-0.042
-305.851	-200.000	0.008	-0.229
-304.837	-58.024	-0.105	0.046
-303.822	-111.229	0.303	-0.062
-302.807	-117.903	-0.205	0.037
-301.793	-22.632	-0.154	0.093
-300.778	-200.000	-0.030	-0.136
-299.764	-200.000	-0.048	0.242
-298.749	800.000	-0.023	0.078
-297.735	124.321	0.138	0.174
-296.720	126.061	-0.085	-0.108
-295.705	436.762	0.092	0.200
-294.691	-67.596	0.167	-0.065
-293.676	-14.437	0.125	0.080
-292.662	180.071	-0.182	0.267
-291.647	416.712	-0.105	-0.224
-290.632	-17.558	0.206	-0.129
-289.618	-86.541	-0.043	0.013
-288.603	63.481	-0.255	-0.255
-287.589	-77.502	0.182	0.063
-286.574	-200.000	-0.027	0.185
-285.559	-200.000	0.021	-0.133
-284.545	-86.201	-0.435	-0.134
-283.530	132.585	-0.155	0.199
-282.516	49.982	-0.363	0.341
-281.501	373.209	0.124	0.251
-280.486	-76.162	0.273	0.096
-279.472	800.000	-0.059	-0.178
-278.457	-145.513	0.036	0.003
-277.443	-193.553	-0.095	0.001
-276.428	-12.187	-0.169	0.110
-275.413	-54.222	-0.222	-0.101
-274.399	-141.072	0.137	-0.014
-273.384	498.201	-0.069	0.159
-272.370	153.966	0.198	0.271
-271.355	197.185	0.037	0.056
-270.340	-200.000	0.029	0.202
-269.326	428.490	-0.066	0.142
-268.311	-198.717	0.167	-0.001
-267.297	88.024	0.083	-0.092
-266.282	-112.403	-0.214	0.043
-265.267	-2.922	-0.270	0.188
-264.253	-21.423	0.113	-0.069
-263.238	15.114	0.112	-0.088
-262.224	319.962	0.059	-0.112
-261.209	235.851	0.091	0.149
-260.195	-24.210	0.225	-0.134
-259.180	6.988	-0.185	0.137
-258.165	-170.222	0.117	0.004
-257.151	-200.000	-0.019	0.236
-256.136	-106.875	-0.173	-0.038
-255.122	500.540	-0.075	-0.172
-254.107	-80.654	0.293	-0.097
-253.092	43.016	0.150	0.136
-252.078	276.233	0.179	-0.317
-251.063	294.238	0.115	-0.210
-250.049	-167.454	-0.139	-0.006
-249.034	-44.245	-0.264	-0.132
-248.019	-69.734	-0.034	-0.013
-247.005	-200.000	-0.004	-0.150
-245.990	32.699	-0.257	-0.222
-244.976	800.000	-0.047	0.131
-243.961	-89.536	0.270	-0.079
-242.946	208.471	0.043	-0.067
-241.932	113.211	0.195	0.236
-240.917	800.000	-0.092	0.305
-239.903	-134.580	0.315	-0.038
-238.888	68.476	-0.101	-0.103
-237.873	-75.205	0.228	0.081
-236.859	-45.092	-0.164	-0.081
-235.844	-94.452	-0.119	-0.032
-234.830	-153.016	-0.185	0.013
-233.815	-90.895	0.064	0.018
-232.800	-200.000	-0.032	0.348
-231.786	175.532	0.076	0.109
-230.771	61.407	0.130	0.129
-229.757	-200.000	0.048	0.317
-228.742	32.048	0.299	0.257
-227.727	800.000	-0.086	0.255
-226.713	257.506	-0.058	-0.099
-225.698	800.000	0.078	0.339
-224.684	-200.000	-0.015	0.153
-223.669	-167.323	-0.164	-0.007
-222.655	84.422	0.021	-0.023
-221.640	-178.007	-0.215	-0.005
-220.625	409.101	-0.142	0.300
-219.611	-98.199	-0.188	0.048
-218.596	-55.625	0.216	-0.096
-217.582	89.466	-0.275	-0.305
-216.567	800.000	-0.064	-0.259
-215.552	-159.401	0.289	-0.016
-214.538	253.433	0.255	0.434
-213.523	41.476	0.073	0.066
-212.509	-49.225	0.179	-0.085
-211.494	635.919	0.088	-0.222
-210.479	235.723	-0.099	-0.163
-209.465	15.262	0.090	0.070
-208.450	-11.955	0.129	-0.084
-207.436	135.430	-0.222	0.287
-206.421	-45.082	0.147	-0.073
-205.406	-200.000	-0.041	-0.000
-204.392	217.066	0.081	0.128
-203.377	404.602	-0.034	-0.072
-202.363	12.695	0.057	0.044
-201.348	-45.402	-0.112	0.055
-200.333	109.266	-0.069	0.082
-199.319	198.149	-0.103	-0.156
-198.304	800.000	0.077	-0.295
-197.290	-18.229	-0.316	-0.197
-196.275	800.000	-0.027	0.104
-195.260	2.836	-0.167	-0.120
-194.246	-200.000	0.009	-0.202
-193.231	332.160	0.115	0.221
-192.217	413.728	-0.101	0.213
-191.202	-200.000	-0.010	0.249
-190.187	-114.517	0.495	0.094
-189.173	162.609	0.086	-0.119
-188.158	325.171	0.017	0.033
-187.144	-156.254	-0.024	-0.002
-186.129	415.307	0.123	-0.260
-185.114	-122.080	0.266	-0.043
-184.100	-200.000	0.027	0.328
-183.085	800.000	0.035	0.120
-182.071	-200.000	0.051	-0.417
-181.056	-200.000	-0.004	-0.206
-180.042	-34.069	0.151	-0.083
-179.027	-200.000	-0.065	-0.341
-178.012	42.781	0.214	-0.194
-176.998	-13.437	-0.200	0.129
-175.983	-122.974	0.085	0.014
-174.969	-200.000	0.005	-0.049
-173.954	-200.000	-0.032	-0.167
-172.939	110.593	0.146	0.174
-171.925	293.138	-0.153	0.278
-170.910	311.027	-0.189	-0.352
-169.896	134.538	0.085	-0.110
-168.881	74.846	0.231	-0.242
-167.866	-24.354	0.175	0.104
-166.852	800.000	0.011	-0.032
-165.837	-36.371	0.143	0.076
-164.823	-129.787	-0.233	0.032
-163.808	784.072	-0.051	0.140
-162.793	-106.164	0.221	-0.049
-161.779	117.344	0.152	0.185
-160.764	-200.000	0.013	0.185
-159.750	-52.590	-0.155	0.071
-158.735	107.674	0.110	-0.131
-157.720	-63.811	0.284	-0.116
-156.706	-33.713	-0.328	-0.180
-155.691	-109.664	-0.284	0.059
-154.677	-131.959	-0.137	0.018
-153.662	800.000	-0.009	-0.028
-152.647	51.799	0.081	-0.077
-151.633	552.158	-0.132	0.314
-150.618	117.941	0.229	0.280
-149.604	79.258	0.110	0.117
-148.589	-200.000	0.053	-0.400
-147.574	159.417	-0.075	0.104
-146.560	-110.049	0.070	-0.015
-145.545	91.301	0.245	-0.273
-144.531	65.317	0.160	0.160
-143.516	-200.000	0.026	0.124
-142.502	800.000	-0.066	0.247
-141.487	-126.214	-0.205	-0.030
-140.472	-150.667	0.182	0.014
-139.458	-11.101	0.252	-0.165
-138.443	-34.154	-0.092	0.050
-137.429	13.536	0.228	0.175
-136.414	116.515	0.063	0.077
-135.399	67.327	-0.139	0.140
-134.385	-88.172	-0.265	-0.079
-133.370	269.656	0.072	0.126
-132.356	-18.127	0.115	-0.072
-131.341	-4.381	-0.180	-0.123
-130.326	-169.852	0.086	0.003
-129.312	270.730	0.161	0.281
-128.297	-143.507	-0.156	-0.015
-127.283	-68.707	0.251	-0.096
-126.268	800.000	0.075	-0.294
-125.253	-126.887	-0.076	-0.011
-124.239	-56.513	0.400	-0.176
-123.224	320.394	0.022	0.042
-122.210	238.181	-0.214	-0.352
-121.195	287.209	-0.095	-0.170
-120.180	800.000	0.149	-0.413
-119.166	800.000	-0.016	-0.065
-118.151	15.127	0.121	-0.094
-117.137	-61.430	-0.090	0.038
-116.122	713.373	-0.033	-0.087
-115.107	-148.795	-0.091	0.007
-114.093	-65.711	-0.303	0.120
-113.078	-62.948	-0.467	0.191
-112.064	-7.462	-0.144	-0.097
-111.049	-131.940	0.278	-0.036
-110.034	-56.327	0.250	-0.110
-109.020	180.991	0.065	-0.094
-108.005	800.000	0.071	0.204
-106.991	-28.310	0.263	-0.150
-105.976	-112.728	0.216	-0.043
-104.962	230.879	-0.154	0.250
-103.947	-200.000	-0.005	-0.132
-102.932	669.871	-0.127	-0.325
-101.918	-200.000	0.003	0.254
-100.903	52.127	-0.108	0.102
-99.889	-104.886	0.373	0.085
-98.874	-140.862	0.075	-0.008
-97.859	-163.184	0.210	-0.010
-96.845	543.308	0.169	-0.400
-95.830	-200.000	0.055	0.386
-94.816	140.859	0.082	0.107
-93.801	-87.697	0.156	-0.047
-92.786	800.000	0.157	0.478
-91.772	-128.457	0.109	0.015
-90.757	-200.000	-0.000	-0.003
-89.743	9.707	0.225	-0.169
-88.728	-7.646	0.281	-0.188
-87.713	105.297	-0.249	-0.291
-86.699	182.111	0.134	-0.196
-85.684	-33.344	-0.309	-0.170
-84.670	57.542	0.067	0.065
-83.655	36.293	0.097	-0.085
-82.640	406.750	0.020	0.042
-81.626	-148.060	-0.175	0.014
-80.611	35.694	0.378	-0.328
-79.597	-200.000	-0.016	0.138
-78.582	-3.227	0.051	0.036
-77.567	-200.000	-0.027	-0.164
-76.553	-142.534	0.455	-0.044
-75.538	261.935	-0.057	-0.098
-74.524	-181.174	0.328	0.006
-73.509	-22.929	0.243	0.145
-72.494	-200.000	-0.010	0.376
-71.480	-200.000	-0.067	-0.372
-70.465	-101.518	0.408	-0.098
-69.451	27.944	-0.210	0.176
-68.436	426.544	-0.213	-0.454
-67.422	800.000	0.076	-0.211
-66.407	800.000	0.023	0.089
-65.392	-40.211	0.382	0.197
-64.378	408.145	-0.097	0.202
-63.363	108.389	-0.043	-0.051
-62.349	-45.540	-0.149	0.073
-61.334	82.330	-0.830	-0.891
-60.319	126.666	0.525	0.658
-59.305	-200.000	-0.075	-0.806
-58.290	76.755	0.733	0.769
-57.276	-200.000	0.295	1.475
-56.261	-200.000	94.989	557.586
-55.246	533.489	1383.612	3241.590
-54.232	153.565	2573.508	3486.453
-53.217	115.252	2174.818	2626.908
-52.203	48.189	1631.135	1509.033
-51.188	40.115	1366.606	1214.927
-50.173	36.825	1324.035	1157.412
-49.159	57.489	1371.841	1325.334
-48.144	61.892	1389.725	1369.297
-47.130	40.330	1344.920	1196.756
-46.115	36.848	1326.865	1159.838
-45.100	36.411	1322.747	1153.583
-44.086	36.576	1318.603	1150.907
-43.071	36.539	1316.982	1149.226
-42.057	36.384	1315.204	1146.708
-41.042	36.517	1312.993	1145.521
-40.027	36.555	1311.455	1144.358
-39.013	36.637	1309.353	1142.963
-37.998	36.503	1307.946	1140.900
-36.984	36.504	1306.364	1139.478
-35.969	36.560	1304.692	1138.306
-34.954	36.661	1302.384	1136.843
-33.940	36.622	1301.168	1135.505
-32.925	36.566	1300.272	1134.350
-31.911	36.733	1298.529	1133.765
-30.896	36.799	1296.690	1132.500
-29.881	36.666	1296.265	1131.305
-28.867	36.766	1294.694	1130.474
-27.852	36.640	1293.432	1128.590
-26.838	36.699	1291.754	1127.424
-25.823	36.749	1289.892	1126.045
-24.809	36.710	1288.247	1124.342
-23.794	36.775	1287.075	1123.649
-22.779	36.752	1285.725	1122.291
-21.765	36.760	1284.418	1121.153
-20.750	36.654	1283.234	1119.464
-19.736	36.732	1282.106	1118.887
-18.721	36.544	1281.491	1117.216
-17.706	36.603	1280.119	1116.317
-16.692	36.629	1278.422	1114.944
-15.677	36.575	1277.529	1113.811
-14.663	36.618	1276.463	1113.084
-13.648	36.556	1275.465	1111.814
-12.633	36.603	1274.274	1110.999
-11.619	36.640	1273.859	1110.809
-10.604	36.543	1273.118	1109.558
-9.590	36.563	1272.150	1108.785
-8.575	36.529	1271.278	1107.785
-7.560	36.681	1269.739	1107.275
-6.546	36.487	1269.447	1105.866
-5.531	36.433	1268.416	1104.611
-4.517	36.628	1267.492	1104.881
-3.502	36.587	1266.548	1103.779
-2.487	36.630	1265.588	1103.142
-1.473	36.314	1261.330	1097.591
-0.458	33.604	1243.661	1066.948
0.556	25.832	1221.884	1009.559
1.571	19.900	1224.225	977.993
2.586	17.996	1238.677	978.553
3.600	17.450	1228.110	967.018
4.615	12.884	1157.107	886.530
5.629	4.830	1080.625	787.275
6.644	0.607	1059.343	750.744
7.659	0.198	1056.740	746.806
8.673	0.060	1056.067	745.581
9.688	0.156	1054.621	744.966
10.702	0.315	1053.111	744.620
11.717	4.889	1059.310	771.631
12.731	12.851	1069.340	818.544
13.746	16.859	1073.841	841.861
14.761	16.822	1073.942	841.684
15.775	16.068	1071.500	835.957
16.790	15.081	1069.477	829.416
17.804	14.337	1068.186	824.659
18.819	13.990	1067.167	822.083
19.834	13.631	1066.217	819.505
20.848	13.579	1064.672	817.989
21.863	13.251	1064.216	815.949
22.877	13.126	1063.076	814.386
23.892	13.030	1062.898	813.705
24.907	13.011	1062.238	813.031
25.921	13.188	1061.444	813.223
26.936	13.121	1060.675	812.234
27.950	13.208	1059.681	811.830
28.965	13.266	1058.541	811.169
29.980	13.248	1057.246	810.017
30.994	13.326	1056.015	809.381
32.009	13.304	1055.108	808.509
33.023	13.215	1054.150	807.265
34.038	13.248	1052.863	806.372
35.053	13.251	1052.220	805.822
36.067	13.148	1051.901	805.006
37.082	13.210	1050.771	804.372
38.096	13.231	1049.988	803.803
39.111	13.292	1049.060	803.316
40.126	13.133	1048.380	801.952
41.140	13.179	1047.001	801.049
42.155	13.032	1045.591	799.186
43.169	13.028	1044.965	798.620
44.184	13.040	1043.664	797.613
45.199	13.076	1042.828	797.076
46.213	13.050	1041.868	796.150
47.228	13.165	1040.802	795.817
48.242	13.122	1039.920	794.866
49.257	13.234	1039.029	794.654
50.271	13.153	1037.739	793.206
51.286	13.290	1036.897	793.147
52.301	13.257	1035.972	792.212
53.315	13.197	1034.843	790.992
54.330	13.069	1034.348	789.932
55.344	13.209	1033.135	789.605
56.359	13.096	1032.471	788.486
57.374	13.077	1031.163	787.327
58.388	13.065	1030.603	786.776
59.403	13.082	1029.693	786.091
60.417	13.062	1028.742	785.200
61.432	12.855	1028.417	783.900
62.447	13.000	1027.513	783.827
63.461	12.935	1026.781	782.890
64.476	13.056	1025.443	782.375
65.490	12.979	1024.544	781.257
66.505	13.047	1023.755	780.909
67.520	13.057	1023.423	780.634
68.534	13.018	1022.784	779.893
69.549	13.032	1021.715	779.076
70.563	12.995	1020.961	778.254
71.578	12.980	1020.201	777.537
72.593	12.989	1019.179	776.731
73.607	12.886	1018.555	775.703
74.622	12.972	1018.578	776.055
75.636	12.959	1017.769	775.310
76.651	12.843	1017.077	774.170
77.666	12.885	1016.163	773.602
78.680	12.926	1015.500	773.221
79.695	12.882	1014.876	772.471
80.709	13.005	1014.358	772.587
81.724	13.141	1013.767	772.701
82.739	12.970	1013.271	771.455
83.753	13.189	1011.884	771.356
84.768	13.289	1011.065	771.127
85.782	13.201	1010.193	769.988
86.797	13.191	1009.366	769.240
87.812	13.125	1008.326	768.073
88.826	13.190	1007.043	767.329
89.841	13.204	1006.637	767.019
90.855	13.259	1005.506	766.343
91.870	13.228	1004.832	765.616
92.884	13.159	1004.398	764.898
93.899	13.220	1003.294	764.274
94.914	13.249	1002.433	763.685
95.928	13.285	1001.648	763.183
96.943	13.251	1000.945	762.426
97.957	13.291	1000.074	761.876
98.972	13.297	999.273	761.227
99.987	13.269	998.296	760.289
101.001	13.212	997.363	759.250
102.016	13.303	996.358	758.834
103.030	13.227	995.627	757.863
104.045	13.169	995.207	757.206
105.060	13.284	994.102	756.828
106.074	13.137	993.304	755.479
107.089	13.158	991.777	754.348
108.103	13.197	990.892	753.787
109.118	13.065	990.188	752.580
110.133	13.093	989.199	751.891
111.147	13.231	988.319	751.784
112.162	13.167	987.614	750.892
113.176	13.150	987.022	750.295
114.191	13.120	986.570	749.752
115.206	13.233	985.263	749.204
116.220	13.210	984.430	748.399
117.235	13.155	983.420	747.317
118.249	13.196	982.624	746.828
119.264	13.022	981.996	745.502
120.279	13.138	981.075	745.259
121.293	13.073	980.489	744.454
122.308	13.151	979.090	743.680
123.322	13.116	978.491	743.002
124.337	13.035	977.756	742.014
125.352	13.086	976.534	741.247
126.366	13.129	975.117	740.299
127.381	13.232	974.121	739.939
128.395	13.111	973.731	739.036
129.410	13.283	972.717	738.971
130.424	13.320	971.646	738.255
131.439	13.325	971.121	737.815
132.454	13.312	970.104	736.919
133.468	13.285	969.139	736.000
134.483	13.296	968.401	735.423
135.497	13.246	967.809	734.686
136.512	13.258	966.797	733.907
137.527	13.308	965.812	733.318
138.541	13.306	965.198	732.776
139.556	13.282	964.501	732.074
140.570	13.301	963.665	731.459
141.585	13.459	962.865	731.484
142.600	13.434	961.728	730.449
143.614	13.413	960.815	729.595
144.629	13.407	960.538	729.295
145.643	13.381	959.760	728.527
146.658	13.447	958.364	727.691
147.673	13.211	957.829	726.182
148.687	13.350	956.471	725.699
149.702	13.372	955.406	724.926
150.716	13.304	955.358	724.527
151.731	13.200	954.441	723.311
152.746	13.349	953.596	723.257
153.760	13.419	952.815	722.907
154.775	13.445	952.524	722.738
155.789	13.447	951.946	722.242
156.804	13.309	951.284	721.074
157.819	13.484	950.339	721.056
158.833	13.548	949.687	720.777
159.848	13.660	948.582	720.362
160.862	13.535	948.024	719.329
161.877	13.380	946.979	717.802
162.892	13.306	946.110	716.759
163.906	13.425	945.406	716.679
164.921	13.346	944.759	715.781
165.935	13.269	943.559	714.478
166.950	13.354	942.892	714.278
167.964	13.403	942.028	713.770
168.979	13.455	940.847	713.037
169.994	13.407	940.104	712.201
171.008	13.484	939.165	711.758
172.023	13.602	938.665	711.822
173.037	13.551	938.021	711.055
174.052	13.575	937.190	710.465
175.067	13.459	936.867	709.657
176.081	13.438	936.477	709.212
177.096	13.445	935.933	708.767
178.110	13.481	935.077	708.210
179.125	13.696	934.392	708.548
180.140	13.582	934.026	707.718
181.154	13.608	933.581	707.432
182.169	13.672	932.699	706.974
183.183	13.753	932.268	706.931
184.198	13.817	931.279	706.388
185.213	13.766	930.464	705.489
186.227	13.788	930.001	705.169
187.242	13.725	929.474	704.440
188.256	13.814	928.511	704.028
189.271	13.725	928.256	703.393
190.286	13.629	927.255	702.165
191.300	13.687	926.441	701.735
192.315	13.656	925.990	701.199
193.329	13.482	925.589	700.096
194.344	13.543	924.741	699.650
195.359	13.852	923.569	700.007
196.373	13.687	923.731	699.372
197.388	13.841	922.994	699.399
198.402	13.805	922.598	698.885
199.417	13.899	921.993	698.761
200.432	13.914	921.772	698.596
201.446	13.988	921.188	698.401
202.461	14.145	920.144	698.208
203.475	13.999	919.837	697.299
204.490	13.942	919.167	696.494
205.504	14.039	918.183	696.092
206.519	13.983	917.340	695.154
207.534	13.975	916.774	694.632
208.548	14.008	916.126	694.219
209.563	14.084	915.431	693.947
210.577	13.973	914.554	692.757
211.592	14.117	914.140	692.985
212.607	14.190	913.366	692.637
213.621	14.161	912.226	691.594
214.636	14.062	911.776	690.778
215.650	14.288	910.876	690.974
216.665	14.191	910.328	690.096
217.680	14.364	909.290	689.964
218.694	14.245	909.217	689.356
219.709	14.295	908.551	688.996
220.723	14.343	907.733	688.512
221.738	14.154	907.361	687.388
222.753	14.181	906.591	686.853
223.767	14.300	905.940	686.793
224.782	14.423	905.345	686.789
225.796	14.373	904.720	686.046
226.811	14.429	903.834	685.546
227.826	14.299	903.121	684.409
228.840	14.361	902.694	684.278
229.855	14.329	901.973	683.540
230.869	14.233	901.251	682.538
231.884	14.207	900.755	681.998
232.899	14.346	899.616	681.642
233.913	14.184	899.326	680.700
234.928	14.334	898.359	680.523
235.942	14.266	897.839	679.791
236.957	14.289	897.462	679.538
237.972	14.348	896.881	679.278
238.986	14.339	895.991	678.509
240.001	14.319	895.787	678.211
241.015	14.378	894.894	677.716
242.030	14.475	893.927	677.318
243.045	14.440	893.589	676.859
244.059	14.526	892.863	676.600
245.074	14.424	892.610	675.933
246.088	14.651	891.539	675.982
247.103	14.549	890.966	675.075
248.117	14.549	890.681	674.797
249.132	14.599	890.200	674.578
250.147	14.708	889.479	674.409
251.161	14.699	888.609	673.656
252.176	14.708	887.871	673.071
253.190	14.858	887.265	673.158
254.205	14.746	886.633	672.166
255.220	14.767	886.281	671.925
256.234	14.909	885.531	671.867
257.249	14.798	884.697	670.730
258.263	14.873	883.758	670.259
259.278	14.814	883.265	669.592
260.293	14.834	883.209	669.568
261.307	14.855	882.555	669.099
262.322	15.009	881.449	668.815
263.336	15.084	880.734	668.514
264.351	15.039	879.953	667.683
265.366	15.047	879.501	667.313
266.380	14.957	878.939	666.468
267.395	14.917	878.568	665.970
268.409	14.957	877.573	665.315
269.424	15.008	877.009	665.031
270.439	15.124	875.922	664.606
271.453	15.097	875.559	664.167
272.468	15.026	874.906	663.332
273.482	14.896	874.522	662.466
274.497	15.122	873.786	662.744
275.512	15.082	873.277	662.141
276.526	15.107	872.947	661.931
277.541	15.097	872.471	661.472
278.555	15.180	872.065	661.433
279.570	15.306	870.926	661.010
280.585	15.347	869.819	660.272
281.599	15.388	869.438	660.085
282.614	15.322	868.588	659.122
283.628	15.388	868.205	659.032
284.643	15.327	867.775	658.407
285.657	15.232	867.068	657.441
286.672	15.308	866.356	657.139
287.687	15.294	865.852	656.644
288.701	15.190	865.645	656.022
289.716	15.250	864.658	655.453
290.730	15.418	863.945	655.508
291.745	15.391	863.427	654.954
292.760	15.458	862.960	654.804
293.774	15.441	862.315	654.188
294.789	15.379	861.872	653.553
295.803	15.463	861.222	653.328
296.818	15.467	860.579	652.799
297.833	15.346	859.794	651.678
298.847	15.535	859.056	651.791
299.862	15.522	858.474	651.242
300.876	15.529	858.372	651.135
301.891	15.576	857.586	650.662
302.906	15.783	856.897	650.883
303.920	15.758	856.127	650.145
304.935	15.599	855.804	649.229
305.949	15.507	854.699	647.975
306.964	15.654	854.435	648.286
307.979	15.664	853.742	647.740
308.993	15.731	853.307	647.613
310.008	15.835	852.341	647.221
311.022	15.687	852.344	646.599
312.037	15.695	851.613	646.018
313.052	15.651	851.008	645.331
314.066	15.803	850.156	645.211
315.081	15.711	849.797	644.529
316.095	15.688	849.508	644.164
317.110	15.705	849.029	643.810
318.125	15.666	848.766	643.405
319.139	15.697	847.624	642.600
320.154	15.747	847.130	642.360
321.168	15.766	846.783	642.111
322.183	15.835	846.437	642.057
323.197	15.750	846.217	641.508
324.212	15.848	845.303	641.134
325.227	15.882	844.558	640.638
326.241	15.784	844.207	639.945
327.256	15.817	843.488	639.468
328.270	15.856	843.121	639.280
329.285	15.759	842.356	638.276
330.300	15.785	841.872	637.951
331.314	15.866	841.354	637.810
332.329	16.008	841.012	638.031
333.343	15.923	840.674	637.396
334.358	15.957	840.257	637.152
335.373	15.943	839.515	636.482
336.387	15.929	839.431	636.307
337.402	16.118	838.690	636.405
338.416	15.950	838.989	635.940
339.431	16.063	838.653	636.056
340.446	16.136	837.696	635.547
341.460	16.066	837.772	635.287
342.475	16.240	836.859	635.192
343.489	16.222	836.614	634.882
344.504	16.135	836.461	634.383
345.519	16.198	835.719	634.003
346.533	16.243	835.001	633.570
347.548	16.144	834.345	632.642
348.562	16.180	833.855	632.351
349.577	16.033	833.296	631.321
350.592	16.169	832.841	631.429
351.606	16.239	832.421	631.318
352.621	16.050	831.724	630.027
353.635	16.148	830.781	629.623
354.650	16.194	829.903	629.072
355.665	16.250	829.623	629.013
356.679	16.266	829.122	628.635
357.694	16.429	828.065	628.388
358.708	16.346	827.887	627.886
359.723	16.393	827.325	627.581
360.738	16.472	826.272	627.018
361.752	16.433	825.761	626.432
362.767	16.476	825.432	626.283
363.781	16.597	824.479	625.955
364.796	16.528	824.729	625.834
365.810	16.495	824.529	625.503
366.825	16.514	824.101	625.194
367.840	16.675	823.270	625.103
368.854	16.462	822.875	623.963
369.869	16.504	822.734	623.953
370.883	16.591	822.000	623.664
371.898	16.706	821.651	623.765
372.913	16.687	820.843	623.029
373.927	16.765	820.163	622.745
374.942	16.711	820.225	622.538
375.956	16.732	819.809	622.242
376.971	16.694	819.703	621.967
377.986	16.814	819.261	622.018
379.000	16.820	818.723	621.578
380.015	16.894	817.973	621.223
381.029	16.915	817.121	620.600
382.044	16.740	816.674	619.564
383.059	16.942	815.974	619.717
384.073	16.866	815.497	619.023
385.088	16.725	815.227	618.247
386.102	16.930	814.485	618.377
387.117	16.809	813.954	617.479
388.132	16.843	813.732	617.380
389.146	16.783	812.967	616.525
390.161	17.056	812.216	616.893
391.175	16.969	812.039	616.390
392.190	17.001	811.336	615.917
393.205	16.844	811.095	615.108
394.219	16.880	810.903	615.041
395.234	16.884	810.546	614.728
396.248	16.896	809.692	614.072
397.263	16.742	809.549	613.351
398.278	16.885	809.044	613.432
399.292	16.880	808.457	612.914
400.307	16.911	808.064	612.676
401.321	17.064	807.421	612.683
402.336	16.975	807.171	612.119
403.350	16.944	806.695	611.591
404.365	16.912	806.334	611.151
405.380	16.991	806.160	611.247
406.394	17.252	805.083	611.317
407.409	17.180	804.752	610.754
408.423	17.189	804.376	610.445
409.438	17.180	804.288	610.292
410.453	17.236	803.555	609.883
411.467	17.293	803.215	609.774
412.482	17.393	802.440	609.491
413.496	17.330	802.420	609.197
414.511	17.403	801.915	609.019
415.526	17.247	801.571	608.147
416.540	17.464	800.914	608.370
417.555	17.375	800.744	607.870
418.569	17.292	800.457	607.302
419.584	17.491	799.806	607.464
420.599	17.505	799.647	607.338
421.613	103.365	1283.263	1438.433
422.628	88.737	1353.713	1438.549
