DTS Sentinel unit serial number:	SN413079Multiplexer serial number:	ORYXHardware model number:	OX4-SRSoftware version number:	ORYX F/W v4.00 Oryx Data Collector v3.7.2.0data status	okinstallation	princeton_trtdifferential loss correction	single-endedforward channel	channel 1reverse channel	N/Adate	2019/09/10time	21:40:11forward acquisition time	60.00reverse acquisition time	0.00gamma	496.2192k internal	0.2330k external	0.2330temperature offset calibration	0.9934default loss term (dB/km)	0.3790temperature slope calibration	1.0000multiplexer offset coefficient	1.0000multiplexer slope coefficient	1.0000fibre end	0.00T internal ref (°C)	31.00T ext. ref 1 (°C)	-0.30T ext. ref 2 (°C)	24.28length (m)	temperature (°C)	Stokes	anti-Stokes-747.200	70.678	-0.145	0.151
-746.185	-142.104	-0.336	0.034
-745.171	-106.888	0.265	-0.059
-744.156	0.012	-0.114	-0.082
-743.142	800.000	0.037	-0.159
-742.127	-197.779	-0.401	0.002
-741.112	46.638	0.170	0.159
-740.098	178.826	-0.087	0.128
-739.083	18.299	0.057	-0.046
-738.069	706.919	-0.112	0.297
-737.054	99.716	0.073	0.085
-736.039	-121.245	-0.394	-0.066
-735.025	-140.966	0.186	0.019
-734.010	-95.120	-0.151	-0.041
-732.996	146.113	-0.143	-0.193
-731.981	-0.504	0.148	-0.106
-730.966	32.536	-0.137	-0.119
-729.952	123.744	0.186	-0.235
-728.937	50.574	-0.118	-0.112
-727.923	-26.744	-0.080	-0.047
-726.908	800.000	0.026	0.080
-725.894	-31.054	0.256	-0.145
-724.879	191.010	-0.027	-0.040
-723.864	-31.998	0.293	-0.165
-722.850	-94.698	-0.121	-0.033
-721.835	49.247	0.230	-0.218
-720.821	20.087	0.233	0.189
-719.806	-80.383	-0.275	0.092
-718.791	800.000	0.042	-0.156
-717.777	-14.413	-0.286	0.185
-716.762	800.000	0.099	0.301
-715.748	-200.000	0.056	0.584
-714.733	6.518	-0.491	0.367
-713.718	104.284	0.243	-0.287
-712.704	-53.578	-0.422	0.194
-711.689	-89.056	-0.184	0.055
-710.675	-200.000	0.018	-0.256
-709.660	-36.498	-0.294	0.159
-708.645	-57.468	-0.324	0.143
-707.631	205.274	0.113	-0.177
-706.616	-57.265	-0.279	0.123
-705.602	-51.579	-0.260	0.122
-704.587	4.509	-0.220	-0.162
-703.572	-200.000	-0.031	0.307
-702.558	-88.585	0.370	-0.111
-701.543	231.969	-0.052	0.086
-700.529	-35.712	-0.115	0.063
-699.514	-121.317	-0.319	-0.054
-698.499	27.056	-0.210	0.177
-697.485	-123.618	-0.083	0.013
-696.470	-200.000	-0.037	-0.268
-695.456	765.156	0.134	-0.365
-694.441	-21.921	0.212	-0.130
-693.426	-3.392	-0.173	-0.121
-692.412	-10.086	-0.244	0.163
-691.397	-200.000	-0.050	-0.290
-690.383	-87.311	-0.103	-0.031
-689.368	-6.800	-0.171	0.117
-688.354	77.067	0.111	0.118
-687.339	-60.406	-0.296	0.126
-686.324	-30.099	0.045	-0.026
-685.310	81.268	-0.178	0.193
-684.295	-59.890	0.260	0.111
-683.281	-24.121	-0.199	-0.119
-682.266	-85.049	-0.257	0.081
-681.251	800.000	0.072	-0.298
-680.237	-200.000	0.010	0.118
-679.222	1.400	-0.175	0.126
-678.208	-200.000	-0.004	-0.259
-677.193	328.607	-0.031	0.060
-676.178	637.489	-0.182	-0.463
-675.164	199.070	0.207	-0.319
-674.149	239.812	0.126	-0.211
-673.135	-102.323	-0.311	0.075
-672.120	121.379	-0.280	-0.350
-671.105	-9.191	0.182	0.122
-670.091	-46.386	-0.149	-0.074
-669.076	800.000	-0.114	-0.326
-668.062	73.083	-0.150	-0.158
-667.047	800.000	0.076	-0.318
-666.032	21.845	-0.053	0.043
-665.018	-200.000	-0.041	0.000
-664.003	227.248	-0.057	0.093
-662.989	-62.521	0.355	0.148
-661.974	-3.072	-0.259	0.181
-660.959	-150.997	0.292	-0.022
-659.945	-55.815	-0.100	0.045
-658.930	238.573	0.064	-0.106
-657.916	108.106	-0.262	0.313
-656.901	800.000	0.125	0.396
-655.886	800.000	-0.034	0.119
-654.872	-200.000	-0.005	-0.099
-653.857	-200.000	0.018	-0.400
-652.843	106.675	-0.069	-0.082
-651.828	-36.064	0.303	-0.164
-650.814	-68.708	-0.173	-0.067
-649.799	240.407	0.071	0.119
-648.784	-29.508	0.324	-0.186
-647.770	-148.825	0.171	0.014
-646.755	-127.277	-0.294	0.043
-645.741	604.563	-0.081	-0.202
-644.726	-47.932	0.297	0.144
-643.711	21.184	-0.127	-0.104
-642.697	286.546	-0.200	-0.362
-641.682	727.389	-0.031	-0.084
-640.668	3.034	-0.342	0.249
-639.653	-81.219	0.169	0.056
-638.638	441.949	-0.110	0.241
-637.624	60.354	0.089	0.089
-636.609	91.367	-0.073	0.083
-635.595	800.000	0.096	0.279
-634.580	-30.235	-0.097	0.055
-633.565	86.893	0.231	-0.255
-632.551	366.816	0.045	0.092
-631.536	154.188	-0.210	-0.289
-630.522	-46.071	0.312	0.154
-629.507	-200.000	-0.017	0.093
-628.492	101.740	0.065	-0.076
-627.478	800.000	-0.058	-0.237
-626.463	165.389	-0.126	0.178
-625.449	407.773	-0.162	0.343
-624.434	355.742	-0.109	0.217
-623.419	-22.111	-0.093	0.057
-622.405	156.904	-0.086	0.119
-621.390	-87.701	-0.237	-0.072
-620.376	-16.293	-0.119	0.076
-619.361	-91.497	-0.317	0.091
-618.346	-40.996	0.164	0.085
-617.332	-150.289	-0.326	0.025
-616.317	-158.153	0.379	-0.022
-615.303	24.563	0.072	-0.060
-614.288	-33.586	0.270	0.149
-613.273	521.753	-0.112	0.264
-612.259	161.621	0.126	-0.177
-611.244	800.000	0.106	0.310
-610.230	800.000	-0.031	0.123
-609.215	-200.000	-0.001	0.087
-608.201	104.165	0.138	-0.163
-607.186	-121.367	-0.107	-0.018
-606.171	100.873	0.135	-0.158
-605.157	279.708	0.297	-0.530
-604.142	-200.000	-0.026	-0.169
-603.128	-97.209	0.249	-0.065
-602.113	3.068	-0.016	0.012
-601.098	-178.974	-0.246	-0.006
-600.084	-108.387	-0.034	0.007
-599.069	47.625	0.125	-0.117
-598.055	-200.000	-0.011	0.308
-597.040	-200.000	0.080	0.554
-596.025	800.000	-0.031	-0.129
-595.011	-70.866	-0.182	-0.069
-593.996	-115.588	0.137	-0.026
-592.982	244.697	0.073	-0.123
-591.967	-36.129	-0.082	-0.044
-590.952	-181.200	0.287	-0.006
-589.938	-138.605	-0.286	-0.031
-588.923	-200.000	0.013	0.137
-587.909	243.973	0.064	-0.108
-586.894	-74.952	-0.192	-0.069
-585.879	47.215	0.135	0.126
-584.865	10.555	0.081	0.062
-583.850	35.448	0.090	-0.079
-582.836	-7.381	0.173	0.117
-581.821	-200.000	0.004	0.155
-580.806	800.000	-0.052	0.215
-579.792	17.304	0.226	0.179
-578.777	36.030	0.028	0.025
-577.763	-103.274	-0.151	0.036
-576.748	800.000	-0.076	0.299
-575.733	-16.243	0.112	0.071
-574.719	23.683	-0.121	0.100
-573.704	305.090	-0.096	0.178
-572.690	279.052	0.113	0.201
-571.675	258.698	0.037	-0.064
-570.661	-200.000	-0.000	-0.158
-569.646	13.246	0.063	-0.049
-568.631	-31.465	-0.140	0.079
-567.617	192.078	0.054	-0.082
-566.602	598.462	-0.077	-0.191
-565.588	518.316	-0.080	-0.188
-564.573	435.104	0.181	-0.393
-563.558	48.443	-0.144	-0.134
-562.544	223.747	-0.150	0.242
-561.529	800.000	-0.053	-0.152
-560.515	257.130	-0.093	-0.160
-559.500	-97.409	-0.249	-0.065
-558.485	497.450	0.089	0.204
-557.471	-61.843	0.124	0.052
-556.456	211.766	0.103	0.162
-555.442	199.948	0.113	0.173
-554.427	-112.180	0.122	-0.025
-553.412	-95.953	-0.188	0.050
-552.398	197.407	0.077	0.118
-551.383	-125.086	0.195	-0.030
-550.369	89.052	-0.111	0.123
-549.354	72.902	0.204	-0.213
-548.339	209.416	-0.088	-0.138
-547.325	-54.441	0.160	-0.072
-546.310	40.546	-0.174	0.156
-545.296	316.263	0.162	-0.305
-544.281	-151.589	-0.373	0.028
-543.266	-98.038	0.203	0.052
-542.252	-84.111	0.136	0.043
-541.237	630.707	0.130	-0.329
-540.223	611.969	0.107	-0.267
-539.208	-133.281	-0.162	0.020
-538.193	-88.115	0.185	0.055
-537.179	136.420	0.147	0.192
-536.164	141.215	-0.132	-0.174
-535.150	-70.272	0.324	-0.123
-534.135	-34.313	0.362	-0.198
-533.121	-35.935	-0.242	-0.131
-532.106	-106.514	-0.270	-0.060
-531.091	800.000	0.103	-0.439
-530.077	-53.139	0.189	-0.087
-529.062	134.501	0.060	0.078
-528.048	-200.000	-0.057	0.363
-527.033	-57.132	0.195	0.086
-526.018	800.000	-0.056	0.227
-525.004	-200.000	-0.030	-0.161
-523.989	113.771	-0.174	-0.211
-522.975	-35.307	0.042	-0.023
-521.960	800.000	-0.100	-0.281
-520.945	-19.227	-0.278	-0.172
-519.931	-200.000	0.060	0.346
-518.916	466.239	-0.138	0.309
-517.902	134.924	0.200	-0.260
-516.887	-74.542	0.400	-0.144
-515.872	125.742	0.169	-0.213
-514.858	234.449	-0.162	-0.266
-513.843	-121.311	0.215	-0.036
-512.829	45.781	0.123	0.114
-511.814	-200.000	0.032	-0.158
-510.799	-200.000	-0.033	0.235
-509.785	-200.000	0.010	0.167
-508.770	-81.270	-0.331	0.109
-507.756	-29.396	0.070	0.040
-506.741	7.479	0.083	0.062
-505.726	-200.000	-0.020	-0.189
-504.712	-29.276	0.166	-0.095
-503.697	100.580	-0.055	0.064
-502.683	391.341	0.090	0.186
-501.668	-69.434	0.046	-0.018
-500.653	633.051	0.132	0.333
-499.639	-200.000	0.013	0.059
-498.624	-3.174	0.296	-0.206
-497.610	43.266	0.152	0.139
-496.595	170.729	0.198	0.282
-495.581	8.269	0.092	-0.069
-494.566	289.499	-0.125	0.226
-493.551	330.078	-0.068	-0.130
-492.537	141.873	0.234	-0.309
-491.522	-200.000	-0.060	-0.310
-490.508	-122.066	-0.247	0.040
-489.493	-46.037	-0.201	0.099
-488.478	-67.396	0.046	-0.018
-487.464	521.848	-0.035	-0.083
-486.449	-41.077	-0.120	-0.062
-485.435	-94.401	-0.270	0.073
-484.420	-4.910	0.136	-0.093
-483.405	-131.659	0.079	0.010
-482.391	695.262	0.048	-0.126
-481.376	-163.362	0.114	-0.005
-480.362	800.000	0.033	-0.144
-479.347	-200.000	-0.004	-0.081
-478.332	53.789	-0.189	-0.181
-477.318	4.169	-0.067	-0.049
-476.303	-91.151	-0.159	0.045
-475.289	-200.000	0.010	0.164
-474.274	-200.000	-0.048	0.528
-473.259	-9.962	-0.188	-0.124
-472.245	800.000	-0.049	-0.140
-471.230	34.155	0.128	-0.111
-470.216	-103.704	-0.101	-0.024
-469.201	659.496	-0.073	-0.187
-468.186	-108.063	-0.121	-0.026
-467.172	-82.481	0.118	-0.038
-466.157	800.000	-0.051	-0.152
-465.143	36.465	0.132	-0.116
-464.128	-53.137	0.186	0.085
-463.113	-96.157	-0.246	-0.065
-462.099	229.926	-0.159	-0.259
-461.084	800.000	-0.099	0.372
-460.070	5.871	-0.168	-0.124
-459.055	800.000	0.068	0.239
-458.040	58.543	-0.115	-0.113
-457.026	-17.677	-0.104	-0.065
-456.011	-184.325	0.204	0.003
-454.997	-174.738	0.124	0.003
-453.982	-79.326	0.388	0.131
-452.968	-200.000	0.045	-0.222
-451.953	55.008	-0.087	-0.084
-450.938	111.466	0.124	0.149
-449.924	-200.000	0.024	-0.130
-448.909	152.486	-0.061	-0.082
-447.895	384.907	0.133	-0.273
-446.880	-97.604	0.371	-0.096
-445.865	-200.000	-0.017	-0.117
-444.851	574.531	0.112	-0.272
-443.836	800.000	0.063	-0.186
-442.822	800.000	0.046	-0.145
-441.807	-200.000	-0.014	0.150
-440.792	143.041	0.138	0.183
-439.778	-159.050	0.094	-0.005
-438.763	-200.000	0.035	0.362
-437.749	800.000	-0.044	-0.159
-436.734	-19.942	-0.061	-0.038
-435.719	177.894	-0.346	-0.502
-434.705	-77.877	0.238	-0.082
-433.690	363.896	0.097	0.195
-432.676	256.364	-0.088	-0.150
-431.661	-4.009	-0.154	0.106
-430.646	-19.665	0.208	0.128
-429.632	195.100	-0.070	-0.105
-428.617	-200.000	0.015	-0.284
-427.603	474.046	-0.080	-0.180
-426.588	-136.884	0.127	0.014
-425.573	800.000	0.058	0.167
-424.559	-200.000	0.015	0.155
-423.544	800.000	-0.032	-0.126
-422.530	-200.000	-0.011	-0.258
-421.515	-148.554	0.083	-0.007
-420.500	42.779	-0.205	-0.186
-419.486	-50.717	-0.075	0.035
-418.471	-200.000	0.068	-0.000
-417.457	800.000	-0.061	-0.221
-416.442	316.596	0.120	-0.226
-415.428	-200.000	0.098	0.641
-414.413	-106.091	0.389	-0.087
-413.398	-19.826	0.177	0.109
-412.384	-199.485	0.390	0.002
-411.369	416.632	-0.188	-0.399
-410.355	90.607	-0.102	-0.114
-409.340	-37.644	0.038	0.020
-408.325	-145.623	-0.256	-0.023
-407.311	129.749	-0.031	-0.039
-406.296	-148.782	-0.457	0.037
-405.282	-131.644	-0.110	-0.014
-404.267	-8.993	-0.174	-0.115
-403.252	-45.726	-0.202	-0.099
-402.238	-200.000	-0.062	0.339
-401.223	800.000	-0.041	0.136
-400.209	-36.796	-0.242	0.129
-399.194	52.172	-0.139	0.132
-398.179	91.296	0.080	-0.089
-397.165	372.279	0.111	0.223
-396.150	263.298	0.082	0.141
-395.136	-23.874	-0.055	0.033
-394.121	105.517	-0.156	0.184
-393.106	225.700	0.043	0.069
-392.092	6.191	-0.155	0.114
-391.077	-50.596	0.152	-0.071
-390.063	732.963	-0.089	0.237
-389.048	-101.084	-0.156	0.038
-388.033	-52.815	-0.182	-0.083
-387.019	-122.110	0.346	0.056
-386.004	800.000	0.070	0.265
-384.990	800.000	-0.038	0.147
-383.975	523.256	-0.110	-0.257
-382.960	36.728	0.216	-0.190
-381.946	-200.000	0.038	-0.207
-380.931	48.272	0.320	0.297
-379.917	-147.286	0.203	-0.017
-378.902	326.689	-0.038	0.072
-377.888	-172.779	0.060	0.002
-376.873	302.466	0.123	-0.227
-375.858	599.226	-0.090	0.223
-374.844	-46.189	0.242	0.118
-373.829	-102.549	-0.338	-0.080
-372.815	222.348	0.070	0.112
-371.800	-67.893	0.219	0.085
-370.785	-200.000	-0.035	-0.186
-369.771	166.251	0.044	0.061
-368.756	-36.172	0.228	0.122
-367.742	-200.000	-0.005	0.196
-366.727	-113.748	-0.278	0.054
-365.712	7.957	-0.048	0.035
-364.698	17.020	0.097	-0.076
-363.683	-200.000	-0.015	-0.104
-362.669	38.015	-0.073	-0.064
-361.654	18.433	0.100	0.079
-360.639	21.529	-0.360	0.291
-359.625	-1.258	-0.304	-0.213
-358.610	-120.350	0.145	0.024
-357.596	12.144	-0.144	0.110
-356.581	-141.118	-0.051	0.005
-355.566	201.976	0.077	-0.118
-354.552	-123.182	-0.303	-0.048
-353.537	71.055	0.205	-0.211
-352.523	800.000	-0.017	0.049
-351.508	-161.607	0.092	0.005
-350.493	-124.988	0.350	0.053
-349.479	-200.000	-0.007	-0.103
-348.464	-82.607	0.210	-0.067
-347.450	-120.703	0.037	-0.006
-346.435	-22.554	-0.289	0.173
-345.420	-130.339	0.217	0.029
-344.406	-49.372	0.229	0.108
-343.391	-94.514	0.033	0.009
-342.377	486.542	-0.191	-0.432
-341.362	800.000	0.073	0.204
-340.348	160.596	-0.197	-0.272
-339.333	197.443	-0.116	-0.176
-338.318	800.000	0.118	-0.381
-337.304	-200.000	0.073	0.369
-336.289	-125.685	0.020	-0.003
-335.275	800.000	0.011	0.038
-334.260	-54.605	-0.250	0.112
-333.245	486.652	-0.095	-0.215
-332.231	800.000	-0.080	-0.235
-331.216	-90.160	-0.308	-0.089
-330.202	329.377	-0.033	0.062
-329.187	-112.698	-0.093	-0.018
-328.172	-54.652	0.112	-0.050
-327.158	24.022	0.101	-0.082
-326.143	-26.735	-0.105	-0.061
-325.129	68.168	0.171	-0.173
-324.114	210.866	0.192	0.299
-323.099	-37.802	0.018	-0.010
-322.085	-25.765	0.467	0.273
-321.070	-200.000	-0.008	0.179
-320.056	0.553	-0.168	-0.119
-319.041	216.191	-0.094	-0.149
-318.026	-56.292	-0.419	-0.185
-317.012	-177.300	-0.197	-0.005
-315.997	-200.000	-0.024	0.491
-314.983	-200.000	0.028	0.187
-313.968	-49.228	0.288	-0.136
-312.953	800.000	-0.074	0.215
-311.939	-90.513	0.246	-0.070
-310.924	120.735	0.059	0.073
-309.910	-16.568	0.091	0.057
-308.895	25.361	-0.200	-0.164
-307.880	77.435	-0.202	0.213
-306.866	124.187	0.143	-0.177
-305.851	-200.000	0.006	-0.206
-304.837	-83.161	0.018	0.006
-303.822	13.690	-0.098	-0.075
-302.807	-68.414	-0.280	0.107
-301.793	-89.973	-0.210	-0.061
-300.778	-136.990	0.192	-0.022
-299.764	-62.821	-0.253	0.103
-298.749	102.497	0.090	-0.104
-297.735	-162.853	-0.202	0.010
-296.720	-65.156	-0.085	-0.034
-295.705	34.883	0.238	-0.206
-294.691	-200.000	-0.004	0.307
-293.676	374.142	-0.132	-0.266
-292.662	-182.411	-0.061	0.001
-291.647	28.904	-0.125	-0.104
-290.632	-33.468	-0.118	-0.065
-289.618	-200.000	-0.033	0.162
-288.603	-37.321	-0.188	-0.100
-287.589	33.398	0.173	-0.148
-286.574	800.000	-0.098	-0.306
-285.559	193.072	-0.188	-0.281
-284.545	10.266	0.219	0.165
-283.530	-200.000	0.016	-0.213
-282.516	87.685	-0.117	0.128
-281.501	800.000	0.052	0.181
-280.486	-200.000	-0.047	0.304
-279.472	-78.526	0.095	0.032
-278.457	5.838	-0.197	-0.144
-277.443	-200.000	0.019	0.136
-276.428	-94.738	-0.080	0.021
-275.413	800.000	0.005	0.015
-274.399	74.462	-0.205	0.213
-273.384	293.098	0.125	0.226
-272.370	-154.641	0.144	0.009
-271.355	-143.684	0.364	0.034
-270.340	100.278	0.168	-0.193
-269.326	-89.635	-0.225	0.065
-268.311	12.315	0.379	0.289
-267.297	-58.932	0.146	-0.062
-266.282	-22.066	0.257	0.154
-265.267	-200.000	-0.002	-0.025
-264.253	-200.000	-0.052	0.293
-263.238	31.586	-0.250	0.212
-262.224	-99.882	-0.133	-0.033
-261.209	-37.921	-0.168	0.088
-260.195	134.293	0.111	-0.142
-259.180	-200.000	0.047	0.242
-258.165	-54.362	0.211	-0.094
-257.151	-200.000	0.045	0.213
-256.136	-178.150	0.246	0.006
-255.122	-100.428	-0.238	0.058
-254.107	92.077	0.092	-0.102
-253.092	-200.000	-0.027	0.443
-252.078	-33.362	0.248	0.136
-251.063	157.283	-0.079	0.108
-250.049	800.000	-0.092	0.284
-249.034	-88.635	0.150	0.044
-248.019	434.689	0.047	0.100
-247.005	-49.733	-0.129	-0.061
-245.990	-167.163	0.247	0.010
-244.976	800.000	-0.077	0.308
-243.961	800.000	-0.074	0.215
-242.946	179.206	-0.086	-0.124
-241.932	-68.591	0.102	-0.039
-240.917	178.654	0.062	-0.089
-239.903	-181.134	0.215	-0.004
-238.888	38.524	0.220	0.193
-237.873	633.650	0.013	-0.033
-236.859	-31.974	-0.313	0.173
-235.844	103.474	-0.182	0.211
-234.830	20.424	-0.273	-0.218
-233.815	166.310	-0.187	-0.262
-232.800	-119.446	0.124	-0.021
-231.786	-200.000	-0.043	0.224
-230.771	-26.945	0.133	-0.077
-229.757	800.000	0.028	0.083
-228.742	-66.990	0.056	-0.022
-227.727	1.132	0.040	0.028
-226.713	-79.857	-0.148	-0.049
-225.698	752.205	-0.039	0.104
-224.684	-168.347	-0.112	-0.004
-223.669	52.259	-0.088	0.083
-222.655	259.260	-0.207	0.353
-221.640	-100.088	0.148	0.036
-220.625	-108.615	0.068	-0.014
-219.611	-10.209	-0.235	0.154
-218.596	800.000	0.111	-0.374
-217.582	-200.000	-0.004	0.195
-216.567	8.038	-0.165	0.122
-215.552	454.850	-0.091	-0.200
-214.538	-56.016	-0.110	-0.048
-213.523	-200.000	0.007	0.094
-212.509	138.115	0.080	-0.103
-211.494	108.696	-0.021	0.024
-210.479	195.012	-0.110	0.164
-209.465	29.002	-0.182	-0.152
-208.450	-56.155	-0.095	-0.042
-207.436	78.669	0.127	-0.133
-206.421	327.444	-0.125	-0.236
-205.406	47.960	0.097	0.090
-204.392	-24.884	-0.226	0.132
-203.377	429.799	0.109	-0.232
-202.363	-82.875	-0.111	0.035
-201.348	695.976	0.067	0.174
-200.333	-89.907	-0.163	0.047
-199.319	266.330	-0.029	0.050
-198.304	-27.874	0.079	-0.045
-197.290	-200.000	0.028	-0.173
-196.275	-121.800	-0.281	-0.046
-195.260	357.668	-0.065	0.128
-194.246	800.000	0.136	-0.431
-193.231	-200.000	-0.007	-0.163
-192.217	-95.414	0.423	0.112
-191.202	800.000	0.095	-0.382
-190.187	800.000	-0.036	-0.104
-189.173	800.000	0.015	0.048
-188.158	800.000	-0.113	0.322
-187.144	-37.619	-0.099	0.052
-186.129	-87.216	0.180	-0.054
-185.114	116.223	0.260	-0.313
-184.100	-97.181	0.169	0.044
-183.085	-136.509	0.430	0.049
-182.071	800.000	0.011	-0.032
-181.056	-85.516	-0.247	0.076
-180.042	-99.143	0.209	-0.052
-179.027	676.038	-0.077	-0.197
-178.012	-161.866	-0.195	-0.010
-176.998	-98.240	-0.092	-0.023
-175.983	-200.000	0.011	-0.227
-174.969	-200.000	-0.030	0.238
-173.954	-76.592	-0.249	0.086
-172.939	-61.053	-0.511	0.213
-171.925	-200.000	0.009	0.058
-170.910	364.996	-0.116	-0.229
-169.896	490.816	0.095	-0.213
-168.881	-123.801	-0.372	0.058
-167.866	-87.586	0.341	0.102
-166.852	282.375	0.167	-0.294
-165.837	-45.679	-0.209	-0.102
-164.823	135.108	0.127	-0.163
-163.808	284.391	-0.137	-0.242
-162.793	-4.520	-0.166	0.113
-161.779	-200.000	-0.040	0.264
-160.764	-200.000	0.058	-0.282
-159.750	287.493	-0.220	0.391
-158.735	-129.122	0.263	-0.036
-157.720	106.045	0.091	0.106
-156.706	57.825	0.011	0.010
-155.691	-112.959	-0.087	-0.017
-154.677	800.000	-0.105	-0.328
-153.662	-161.258	-0.376	-0.019
-152.647	545.789	-0.054	0.126
-151.633	-76.797	0.260	0.089
-150.618	-33.471	-0.215	-0.117
-149.604	-70.429	-0.146	0.054
-148.589	-166.041	0.274	-0.012
-147.574	-200.000	-0.012	-0.141
-146.560	44.697	0.186	0.168
-145.545	166.327	-0.229	0.318
-144.531	144.175	-0.140	0.184
-143.516	49.106	0.096	0.089
-142.502	-5.035	0.255	0.173
-141.487	41.589	0.068	-0.061
-140.472	-72.361	0.185	0.067
-139.458	-200.000	0.012	-0.057
-138.443	-30.501	0.362	-0.202
-137.429	-124.452	0.317	-0.048
-136.414	-148.431	0.034	0.003
-135.399	-46.122	0.304	0.147
-134.385	92.232	-0.156	0.173
-133.370	735.422	-0.085	0.224
-132.356	157.770	-0.063	0.085
-131.341	154.028	-0.104	-0.141
-130.326	-94.402	-0.182	0.049
-129.312	-8.520	-0.140	0.093
-128.297	379.355	-0.048	0.096
-127.283	-158.066	-0.156	-0.009
-126.268	-200.000	0.007	-0.300
-125.253	-100.549	0.308	-0.075
-124.239	-164.812	-0.072	-0.003
-123.224	-6.463	0.285	0.191
-122.210	-186.901	0.255	-0.003
-121.195	-9.697	0.222	0.145
-120.180	5.893	0.116	-0.084
-119.166	370.986	-0.018	-0.035
-118.151	-136.484	0.201	-0.023
-117.137	-114.066	-0.212	0.040
-116.122	-81.783	-0.143	0.046
-115.107	-69.585	0.081	0.030
-114.093	-40.285	-0.145	0.074
-113.078	174.830	0.140	-0.200
-112.064	380.489	0.031	0.062
-111.049	87.120	0.210	0.228
-110.034	-141.582	-0.206	-0.020
-109.020	-200.000	0.031	-0.209
-108.005	-135.460	0.230	0.027
-106.991	-63.994	0.050	-0.020
-105.976	-50.717	0.352	0.163
-104.962	-136.876	0.152	0.017
-103.947	-123.790	0.435	0.068
-102.932	-129.177	0.346	-0.047
-101.918	-200.000	-0.014	-0.072
-100.903	-107.303	-0.051	-0.011
-99.889	-186.410	0.090	0.001
-98.874	-131.293	0.207	-0.027
-97.859	-59.414	0.245	0.103
-96.845	-200.000	0.032	0.645
-95.830	290.155	-0.088	0.157
-94.816	122.305	0.102	0.125
-93.801	34.378	-0.182	0.156
-92.786	777.942	0.039	0.105
-91.772	-200.000	-0.097	0.436
-90.757	236.796	-0.109	0.177
-89.743	327.972	0.024	-0.046
-88.728	68.133	0.088	0.088
-87.713	-57.944	-0.428	0.183
-86.699	-34.733	0.270	-0.145
-85.684	-86.318	0.214	0.065
-84.670	-200.000	-0.040	0.240
-83.655	-200.000	-0.026	-0.281
-82.640	-80.406	0.087	-0.028
-81.626	35.886	-0.033	-0.028
-80.611	-63.908	-0.123	0.050
-79.597	31.416	-0.245	0.206
-78.582	226.446	0.105	0.167
-77.567	88.752	0.372	0.405
-76.553	-78.244	0.425	-0.143
-75.538	-200.000	-0.011	-0.361
-74.524	-200.000	-0.078	-0.356
-73.509	-62.389	0.117	-0.048
-72.494	10.560	0.531	-0.397
-71.480	-36.299	0.188	0.099
-70.465	-118.650	-0.288	0.050
-69.451	-6.802	0.036	0.024
-68.436	-30.620	-0.137	-0.076
-67.422	800.000	0.038	0.141
-66.407	-4.482	0.214	0.145
-65.392	-96.747	-0.284	-0.073
-64.378	800.000	0.023	0.067
-63.363	-200.000	0.027	-0.311
-62.349	-95.371	0.235	-0.062
-61.334	169.629	-0.800	-1.120
-60.319	437.862	0.380	0.812
-59.305	760.380	-0.312	-0.829
-58.290	232.988	0.669	1.079
-57.276	800.000	0.507	1.406
-56.261	-200.000	100.090	618.718
-55.246	567.466	1428.848	3399.959
-54.232	188.586	2622.639	3844.557
-53.217	117.795	2143.595	2586.546
-52.203	43.271	1591.962	1424.501
-51.188	34.618	1327.244	1136.361
-50.173	31.340	1285.942	1082.011
-49.159	55.391	1335.689	1266.219
-48.144	56.589	1352.119	1288.799
-47.130	34.817	1308.746	1121.513
-46.115	31.147	1291.542	1085.424
-45.100	31.042	1286.715	1080.717
-44.086	30.958	1284.212	1078.090
-43.071	30.825	1282.033	1075.449
-42.057	30.877	1279.882	1073.899
-41.042	30.818	1278.514	1072.366
-40.027	30.918	1277.362	1071.934
-39.013	30.939	1275.354	1070.330
-37.998	30.851	1273.632	1068.338
-36.984	31.020	1271.539	1067.503
-35.969	30.907	1270.186	1065.683
-34.954	31.126	1268.008	1065.059
-33.940	31.027	1266.917	1063.538
-32.925	31.131	1265.862	1063.206
-31.911	31.134	1264.305	1061.870
-30.896	31.124	1263.092	1060.753
-29.881	31.128	1261.413	1059.325
-28.867	31.052	1260.245	1057.871
-27.852	31.137	1258.717	1057.024
-26.838	31.135	1257.500	1055.949
-25.823	31.059	1256.410	1054.563
-24.809	31.145	1254.556	1053.450
-23.794	31.081	1253.708	1052.334
-22.779	31.131	1252.624	1051.667
-21.765	31.158	1251.090	1050.489
-20.750	31.123	1249.969	1049.308
-19.736	31.096	1248.139	1047.583
-18.721	30.854	1247.347	1045.516
-17.706	30.903	1246.094	1044.701
-16.692	30.988	1245.270	1044.443
-15.677	30.951	1243.595	1042.789
-14.663	30.913	1242.984	1042.022
-13.648	30.963	1241.567	1041.074
-12.633	30.867	1240.858	1039.900
-11.619	31.020	1240.100	1040.077
-10.604	30.858	1239.328	1038.484
-9.590	30.883	1238.287	1037.709
-8.575	30.897	1236.863	1036.556
-7.560	30.881	1236.074	1035.762
-6.546	30.861	1235.508	1035.136
-5.531	30.894	1234.160	1034.148
-4.517	30.937	1233.185	1033.531
-3.502	30.927	1232.631	1032.971
-2.487	30.905	1232.058	1032.328
-1.473	30.845	1227.374	1028.029
-0.458	29.263	1212.677	1007.045
0.556	23.412	1195.373	968.852
1.571	19.697	1200.441	952.439
2.586	18.841	1214.703	958.895
3.600	18.685	1204.191	949.649
4.615	13.512	1133.723	866.983
5.629	4.284	1059.089	764.527
6.644	-0.004	1038.362	728.744
7.659	-0.332	1036.214	725.586
8.673	-0.386	1035.406	724.698
9.688	-0.467	1033.956	723.228
10.702	-0.156	1032.164	723.410
11.717	5.661	1040.119	757.095
12.731	14.722	1052.716	810.343
13.746	18.753	1057.643	833.670
14.761	19.111	1057.838	835.491
15.775	19.031	1057.282	834.589
16.790	18.801	1056.427	832.724
17.804	18.904	1055.727	832.600
18.819	18.939	1055.209	832.285
19.834	19.030	1054.823	832.349
20.848	18.849	1054.471	831.119
21.863	18.845	1054.422	830.987
22.877	18.883	1052.913	829.909
23.892	18.731	1052.518	828.793
24.907	18.909	1051.860	829.060
25.921	18.950	1050.523	828.130
26.936	18.903	1049.612	827.110
27.950	18.838	1047.859	825.346
28.965	18.546	1046.175	822.545
29.980	18.826	1044.180	822.245
30.994	18.975	1042.998	821.954
32.009	18.972	1042.014	821.091
33.023	18.631	1040.871	818.492
34.038	18.799	1039.925	818.476
35.053	18.944	1039.209	818.528
36.067	18.940	1038.315	817.735
37.082	18.990	1037.410	817.186
38.096	19.199	1036.665	817.520
39.111	19.280	1035.891	817.222
40.126	19.075	1034.674	815.216
41.140	18.703	1032.974	812.048
42.155	18.688	1031.149	810.468
43.169	18.625	1030.409	809.518
44.184	18.845	1028.977	809.358
45.199	18.609	1028.222	807.580
46.213	18.632	1027.227	806.834
47.228	18.802	1025.919	806.537
48.242	18.718	1025.269	805.559
49.257	18.785	1024.515	805.211
50.271	18.908	1023.641	805.028
51.286	18.809	1023.005	803.993
52.301	18.920	1021.945	803.609
53.315	18.904	1020.669	802.460
54.330	18.967	1019.761	801.969
55.344	18.914	1018.701	800.817
56.359	18.901	1018.109	800.218
57.374	18.769	1016.831	798.529
58.388	18.799	1016.031	797.973
59.403	18.682	1015.631	797.043
60.417	18.619	1014.724	795.967
61.432	18.658	1013.973	795.492
62.447	18.826	1013.257	795.636
63.461	18.710	1013.055	794.869
64.476	18.777	1011.142	793.610
65.490	18.846	1010.014	792.973
66.505	18.825	1009.596	792.476
67.520	18.794	1008.934	791.745
68.534	18.644	1007.803	790.093
69.549	18.411	1006.785	788.153
70.563	18.451	1005.869	787.550
71.578	18.437	1005.118	786.831
72.593	18.370	1004.357	785.857
73.607	18.494	1003.715	785.853
74.622	18.738	1003.426	786.675
75.636	18.675	1002.808	785.833
76.651	18.550	1001.784	784.389
77.666	18.565	1000.599	783.461
78.680	18.728	999.950	783.630
79.695	18.598	999.619	782.706
80.709	18.627	999.154	782.406
81.724	18.524	998.414	781.288
82.739	18.747	997.234	781.308
83.753	19.025	996.777	782.148
84.768	19.188	995.823	782.071
85.782	19.229	994.758	781.348
86.797	19.172	993.382	779.943
87.812	18.947	993.149	778.670
88.826	18.976	992.096	777.906
89.841	19.030	991.083	777.287
90.855	19.125	990.081	776.863
91.870	19.145	989.011	776.045
92.884	19.010	987.919	774.509
93.899	18.974	986.980	773.542
94.914	19.153	986.304	773.751
95.928	18.884	985.386	771.756
96.943	18.691	983.895	769.653
97.957	18.523	982.958	768.100
98.972	18.454	981.590	766.655
99.987	18.715	980.869	767.189
101.001	18.974	979.943	767.551
102.016	19.029	978.976	766.971
103.030	18.834	977.735	765.064
104.045	18.586	976.905	763.242
105.060	18.504	976.204	762.263
106.074	18.670	975.540	762.414
107.089	19.079	975.246	763.935
108.103	18.882	974.038	762.048
109.118	18.693	972.751	760.137
110.133	18.866	971.687	760.002
111.147	18.718	970.262	758.165
112.162	18.533	969.254	756.496
113.176	18.790	968.810	757.215
114.191	18.565	968.178	755.663
115.206	18.364	966.776	753.617
116.220	18.419	965.848	753.068
117.235	18.501	965.096	752.777
118.249	18.632	963.953	752.391
119.264	18.467	963.161	750.984
120.279	18.608	962.518	751.036
121.293	18.731	961.724	750.887
122.308	18.602	960.941	749.646
123.322	18.599	959.785	748.663
124.337	18.408	958.451	746.726
125.352	18.124	956.081	743.576
126.366	17.896	955.647	742.182
127.381	18.731	955.145	745.352
128.395	18.962	954.356	745.673
129.410	19.043	953.626	745.388
130.424	19.180	952.539	745.065
131.439	18.960	951.923	743.566
132.454	18.859	950.950	742.304
133.468	18.884	950.015	741.619
134.483	18.988	949.270	741.420
135.497	19.171	948.966	741.904
136.512	19.090	948.026	740.754
137.527	19.237	946.632	740.231
138.541	19.217	945.816	739.442
139.556	19.247	945.121	738.961
140.570	19.162	944.229	737.835
141.585	19.295	942.787	737.213
142.600	19.206	941.758	735.961
143.614	19.287	941.442	735.996
144.629	19.408	941.024	736.121
145.643	19.410	939.669	735.006
146.658	19.167	938.291	732.829
147.673	19.037	937.506	731.598
148.687	19.059	936.589	730.909
149.702	19.016	935.655	729.932
150.716	18.944	934.981	729.039
151.731	19.172	933.976	729.157
152.746	19.318	933.784	729.559
153.760	19.331	932.903	728.860
154.775	19.301	932.602	728.435
155.789	19.370	931.510	727.807
156.804	19.315	930.574	726.780
157.819	19.358	930.005	726.453
158.833	19.410	929.209	725.984
159.848	19.456	927.851	725.055
160.862	19.402	926.944	724.053
161.877	19.367	926.025	723.125
162.892	19.384	925.605	722.805
163.906	19.410	924.235	721.781
164.921	19.447	923.389	721.211
165.935	19.422	922.426	720.290
166.950	19.441	921.380	719.488
167.964	19.552	920.241	718.997
168.979	19.337	919.521	717.477
169.994	19.152	918.709	716.013
171.008	19.380	918.173	716.478
172.023	19.390	917.425	715.872
173.037	19.034	916.139	713.330
174.052	19.029	915.550	712.786
175.067	19.125	914.553	712.346
176.081	19.332	913.993	712.702
177.096	19.169	913.489	711.574
178.110	19.091	912.078	710.088
179.125	19.005	911.402	709.145
180.140	18.936	911.237	708.670
181.154	19.007	911.037	708.744
182.169	19.180	910.477	708.957
183.183	19.390	910.345	709.655
184.198	19.338	909.035	708.358
185.213	19.337	908.115	707.574
186.227	19.376	907.898	707.504
187.242	19.380	906.760	706.569
188.256	19.477	906.401	706.625
189.271	19.501	905.476	705.938
190.286	19.056	904.626	703.396
191.300	18.628	903.601	700.789
192.315	17.987	901.958	696.840
193.329	17.990	901.157	696.169
194.344	18.685	901.905	699.518
195.359	19.358	901.733	702.064
196.373	19.341	900.717	701.143
197.388	19.196	899.874	699.837
198.402	19.225	899.292	699.437
199.417	19.113	898.755	698.504
200.432	18.840	897.433	696.309
201.446	18.669	897.342	695.485
202.461	18.852	896.145	695.237
203.475	17.951	894.513	690.268
204.490	17.338	893.358	686.840
205.504	18.370	893.451	691.019
206.519	18.874	893.697	693.181
207.534	18.935	893.247	693.016
208.548	19.241	893.057	694.040
209.563	19.082	891.917	692.451
210.577	19.023	891.396	691.749
211.592	19.367	890.860	692.656
212.607	19.440	889.797	692.061
213.621	19.400	889.572	691.665
214.636	19.376	888.834	690.931
215.650	19.426	887.613	690.121
216.665	19.388	887.381	689.727
217.680	19.368	886.135	688.620
218.694	18.969	885.059	686.132
219.709	18.876	884.609	685.350
220.723	19.342	884.257	686.872
221.738	19.269	884.009	686.330
222.753	19.246	883.107	685.478
223.767	19.327	882.424	685.210
224.782	19.453	882.099	685.395
225.796	19.391	881.491	684.616
226.811	18.849	879.752	681.055
227.826	18.360	878.640	678.202
228.840	18.580	878.618	678.992
229.855	18.559	877.760	678.187
230.869	18.308	876.550	676.203
231.884	18.652	876.801	677.695
232.899	19.398	876.361	680.239
233.913	19.337	875.424	679.209
234.928	19.320	875.480	679.126
235.942	19.286	874.669	678.302
236.957	18.903	873.684	675.973
237.972	19.034	873.236	676.080
238.986	19.086	872.520	675.672
240.001	19.049	871.892	674.982
241.015	19.158	871.564	675.096
242.030	19.394	870.613	675.222
243.045	19.343	870.367	674.772
244.059	19.421	869.837	674.607
245.074	19.425	868.585	673.593
246.088	18.955	867.803	671.091
247.103	19.242	867.443	671.875
248.117	19.650	867.384	673.358
249.132	19.825	867.243	673.871
250.147	19.708	866.600	672.856
251.161	20.029	865.691	673.339
252.176	20.009	864.835	672.537
253.190	20.037	864.638	672.431
254.205	20.261	863.601	672.434
255.220	20.353	862.859	672.153
256.234	20.155	862.369	670.948
257.249	19.909	862.027	669.668
258.263	20.074	860.912	669.383
259.278	20.020	860.491	668.786
260.293	20.044	859.993	668.433
261.307	19.903	859.094	667.129
262.322	19.719	858.056	665.557
263.336	19.077	855.823	661.299
264.351	17.972	854.417	655.913
265.366	18.051	854.176	655.973
266.380	19.330	854.451	661.035
267.395	19.793	854.372	662.692
268.409	19.679	853.745	661.708
269.424	19.764	853.472	661.763
270.439	19.931	852.521	661.608
271.453	19.927	852.086	661.197
272.468	20.189	851.677	661.819
273.482	20.378	850.827	661.821
274.497	19.728	850.233	658.824
275.512	19.532	848.740	656.864
276.526	19.945	849.120	658.671
277.541	20.025	848.631	658.537
278.555	19.638	847.890	656.433
279.570	19.595	846.615	655.226
280.585	19.788	846.132	655.524
281.599	19.854	845.335	655.100
282.614	19.280	844.402	652.148
283.628	19.209	843.960	651.479
284.643	19.578	843.171	652.208
285.657	19.281	842.431	650.457
286.672	19.043	841.237	648.577
287.687	19.609	841.541	650.892
288.701	19.569	841.039	650.292
289.716	19.244	839.825	648.074
290.730	19.263	839.296	647.679
291.745	18.949	838.230	645.621
292.760	19.420	838.033	647.181
293.774	20.192	838.595	650.455
294.789	20.480	838.453	651.365
295.803	20.571	837.705	651.067
296.818	20.577	836.844	650.365
297.833	20.152	836.126	648.161
298.847	19.997	835.425	646.980
299.862	20.377	834.756	647.822
300.876	20.666	834.280	648.475
301.891	20.297	833.765	646.643
302.906	19.904	832.843	644.406
303.920	20.031	832.444	644.514
304.935	20.441	832.445	645.981
305.949	20.382	831.380	644.880
306.964	20.306	830.633	643.959
307.979	20.205	830.386	643.338
308.993	20.536	830.257	644.409
310.008	20.503	829.681	643.782
311.022	20.320	828.724	642.304
312.037	20.044	828.408	640.981
313.052	20.031	827.397	640.095
314.066	19.251	825.963	636.050
315.081	19.017	825.630	634.875
316.095	19.810	825.427	637.587
317.110	20.264	825.249	639.067
318.125	19.590	824.081	635.623
319.139	18.564	822.456	630.545
320.154	18.732	821.771	630.581
321.168	19.348	822.285	633.181
322.183	19.935	822.430	635.392
323.197	20.107	822.010	635.644
324.212	20.326	821.457	635.961
325.227	20.523	820.831	636.141
326.241	20.214	820.377	634.603
327.256	20.376	819.552	634.503
328.270	20.130	819.169	633.251
329.285	19.974	818.219	631.892
330.300	19.856	817.453	630.812
331.314	20.066	816.951	631.136
332.329	20.304	816.997	631.982
333.343	20.229	816.902	631.579
334.358	20.371	815.863	631.235
335.373	20.499	815.398	631.284
336.387	20.678	815.836	632.217
337.402	20.779	815.429	632.213
338.416	20.752	815.034	631.755
339.431	20.576	815.008	631.037
340.446	20.864	814.234	631.429
341.460	20.628	813.527	629.970
342.475	20.578	812.986	629.315
343.489	20.648	812.924	629.464
344.504	20.994	812.411	630.261
345.519	21.056	812.087	630.179
346.533	21.187	811.875	630.431
347.548	21.066	811.471	629.625
348.562	21.219	810.736	629.549
349.577	21.077	810.312	628.656
350.592	21.215	809.136	628.183
351.606	21.116	808.522	627.295
352.621	21.011	807.706	626.230
353.635	20.967	806.885	625.379
354.650	20.305	805.392	621.795
355.665	19.505	803.697	617.572
356.679	19.969	803.730	619.202
357.694	20.278	803.167	619.815
358.708	20.197	803.213	619.506
359.723	20.573	803.091	620.701
360.738	20.829	802.344	620.982
361.752	20.882	801.664	620.590
362.767	21.231	801.604	621.731
363.781	21.425	801.316	622.144
364.796	21.472	800.766	621.829
365.810	21.304	800.718	621.138
366.825	21.350	800.182	620.831
367.840	21.073	799.440	619.216
368.854	20.733	798.586	617.296
369.869	20.894	798.199	617.512
370.883	21.013	797.447	617.299
371.898	20.743	797.142	616.051
372.913	20.690	797.068	615.752
373.927	20.972	796.531	616.278
374.942	21.108	796.222	616.465
375.956	21.171	795.691	616.222
376.971	21.264	795.565	616.399
377.986	21.456	794.541	616.226
379.000	21.330	794.272	615.520
380.015	21.353	793.872	615.236
381.029	21.311	793.265	614.566
382.044	21.349	792.908	614.368
383.059	21.488	792.058	614.141
384.073	21.484	791.592	613.711
385.088	21.338	790.996	612.684
386.102	21.396	790.593	612.521
387.117	21.406	789.871	611.944
388.132	20.929	788.493	609.153
389.146	20.524	787.575	606.978
390.161	20.688	787.851	607.710
391.175	21.223	787.340	609.126
392.190	20.725	786.833	606.944
393.205	19.703	784.827	601.788
394.219	18.433	783.314	596.157
395.234	18.346	783.231	595.739
396.248	20.103	784.312	602.623
397.263	21.304	784.987	607.268
398.278	21.236	784.437	606.552
399.292	20.908	783.940	604.974
400.307	20.980	783.533	604.855
401.321	21.141	783.116	605.041
402.336	21.302	783.091	605.524
403.350	21.735	782.793	606.740
404.365	21.669	782.793	606.457
405.380	22.065	781.922	607.097
406.394	22.015	781.699	606.699
407.409	21.972	781.169	606.084
408.423	22.140	780.708	606.253
409.438	21.944	780.373	605.264
410.453	22.030	780.055	605.262
411.467	22.043	779.441	604.776
412.482	21.975	779.357	604.422
413.496	22.054	778.524	603.993
414.511	22.143	778.210	604.003
415.526	22.138	777.720	603.550
416.540	22.007	777.270	602.700
417.555	21.685	776.456	600.910
418.569	21.773	776.041	600.839
419.584	21.699	775.613	600.199
420.599	21.515	775.009	599.050
421.613	158.650	1362.377	1797.569
422.628	136.959	1447.953	1797.660
