DTS Sentinel unit serial number:	SN413079Multiplexer serial number:	ORYXHardware model number:	OX4-SRSoftware version number:	ORYX F/W v4.00 Oryx Data Collector v3.7.2.0data status	okinstallation	princeton_trtdifferential loss correction	single-endedforward channel	channel 1reverse channel	N/Adate	2019/09/14time	11:06:35forward acquisition time	60.00reverse acquisition time	0.00gamma	496.2192k internal	0.2298k external	0.2298temperature offset calibration	1.0076default loss term (dB/km)	0.3790temperature slope calibration	1.0000multiplexer offset coefficient	1.0000multiplexer slope coefficient	1.0000fibre end	0.00T internal ref (°C)	36.25T ext. ref 1 (°C)	4.42T ext. ref 2 (°C)	34.06length (m)	temperature (°C)	Stokes	anti-Stokes-747.200	-200.000	0.003	0.051
-746.185	-200.000	0.000	0.054
-745.171	-56.899	0.313	0.141
-744.156	-200.000	0.021	0.293
-743.142	147.055	0.033	-0.045
-742.127	-84.792	-0.174	-0.056
-741.112	437.484	-0.120	-0.267
-740.098	800.000	-0.111	0.444
-739.083	-121.574	-0.258	-0.044
-738.069	-0.293	0.082	0.059
-737.054	51.840	-0.062	0.061
-736.039	800.000	-0.054	-0.209
-735.025	118.886	-0.215	-0.271
-734.010	-47.702	-0.131	-0.065
-732.996	76.326	-0.169	0.183
-731.981	-18.985	0.051	-0.032
-730.966	-200.000	0.018	-0.374
-729.952	236.376	0.005	0.009
-728.937	-200.000	-0.037	-0.199
-727.923	295.497	0.055	0.103
-726.908	-128.598	-0.217	0.031
-725.894	-200.000	-0.018	0.116
-724.879	167.176	-0.075	0.108
-723.864	800.000	0.036	-0.136
-722.850	42.033	0.159	-0.147
-721.835	-34.451	-0.373	-0.208
-720.821	800.000	0.037	-0.135
-719.806	135.475	0.043	-0.057
-718.791	71.112	-0.085	0.090
-717.777	800.000	0.079	0.275
-716.762	-200.000	-0.045	0.237
-715.748	5.406	-0.356	-0.268
-714.733	-95.309	-0.188	0.051
-713.718	-138.269	0.411	-0.046
-712.704	86.809	0.042	0.047
-711.689	800.000	0.045	-0.141
-710.675	-70.036	-0.098	0.038
-709.660	387.090	0.084	0.176
-708.645	-200.000	0.027	0.261
-707.631	295.797	-0.032	-0.060
-706.616	-75.475	-0.402	-0.146
-705.602	-74.618	0.113	-0.041
-704.587	-36.970	0.040	-0.022
-703.572	-200.000	-0.002	-0.071
-702.558	46.457	0.173	-0.164
-701.543	-186.000	0.057	0.001
-700.529	-27.301	-0.192	-0.114
-699.514	800.000	0.068	0.195
-698.499	26.964	0.185	0.158
-697.485	-104.593	-0.166	-0.039
-696.470	-200.000	0.041	-0.286
-695.456	260.542	-0.044	-0.078
-694.441	-22.696	-0.098	-0.060
-693.426	-177.911	0.138	0.003
-692.412	-13.381	0.334	-0.221
-691.397	-200.000	0.007	0.242
-690.383	-55.627	-0.064	-0.029
-689.368	800.000	0.052	0.150
-688.354	-42.666	0.171	-0.088
-687.339	709.294	-0.047	-0.127
-686.324	357.261	0.141	0.286
-685.310	160.351	-0.082	0.117
-684.295	800.000	0.093	-0.351
-683.281	154.807	0.071	-0.100
-682.266	-200.000	0.018	-0.141
-681.251	-95.160	0.452	-0.124
-680.237	248.347	0.127	0.219
-679.222	-76.873	0.117	0.042
-678.208	800.000	0.060	0.200
-677.193	800.000	0.069	0.240
-676.178	84.777	-0.244	0.272
-675.164	-200.000	-0.010	0.061
-674.149	-11.794	-0.130	-0.087
-673.135	92.226	-0.254	-0.292
-672.120	800.000	0.028	-0.083
-671.105	-37.127	0.093	-0.051
-670.091	539.342	-0.024	0.059
-669.076	414.630	-0.025	0.055
-668.062	-200.000	-0.020	0.335
-667.047	310.394	0.070	-0.133
-666.032	-188.059	-0.273	0.004
-665.018	-79.290	0.161	-0.056
-664.003	-140.810	-0.198	-0.021
-662.989	175.744	-0.041	-0.061
-661.974	587.094	0.036	0.091
-660.959	800.000	0.076	-0.316
-659.945	-200.000	-0.307	0.001
-658.930	121.283	0.134	-0.170
-657.916	51.790	-0.112	0.108
-656.901	476.569	0.082	0.189
-655.886	-135.344	0.174	-0.021
-654.872	122.618	0.261	-0.332
-653.857	800.000	0.033	-0.138
-652.843	-10.752	0.186	-0.125
-651.828	455.926	0.049	-0.111
-650.814	161.945	0.219	0.311
-649.799	316.680	-0.046	-0.088
-648.784	-200.000	0.046	0.222
-647.770	-128.704	-0.069	0.010
-646.755	716.203	0.040	-0.109
-645.741	319.684	0.091	0.176
-644.726	-200.000	0.001	0.240
-643.711	-47.093	-0.173	-0.086
-642.697	1.047	-0.273	0.199
-641.682	800.000	-0.017	-0.051
-640.668	61.302	-0.125	-0.127
-639.653	-200.000	-0.033	0.192
-638.638	389.138	0.161	-0.339
-637.624	226.213	-0.093	0.153
-636.609	-108.662	0.077	-0.017
-635.595	196.839	-0.023	0.036
-634.580	-53.394	0.149	-0.069
-633.565	800.000	0.034	0.132
-632.551	-32.047	-0.136	0.077
-631.536	-200.000	-0.049	0.238
-630.522	316.050	0.093	-0.179
-629.507	46.131	0.163	-0.154
-628.492	342.911	0.015	0.030
-627.478	306.712	0.067	0.126
-626.463	-145.257	0.333	-0.031
-625.449	-200.000	-0.067	0.313
-624.434	345.574	0.098	-0.196
-623.419	800.000	-0.053	-0.156
-622.405	56.246	0.215	-0.212
-621.390	-62.157	-0.217	-0.092
-620.376	263.765	0.126	-0.223
-619.361	-180.775	0.323	-0.007
-618.346	-200.000	-0.043	0.200
-617.332	-139.926	0.268	-0.029
-616.317	-131.392	0.085	0.011
-615.303	367.363	-0.029	0.058
-614.288	-137.153	0.158	-0.018
-613.273	-185.572	0.338	0.005
-612.259	278.526	0.162	0.294
-611.244	-200.000	-0.016	0.301
-610.230	514.267	0.042	0.100
-609.215	251.618	-0.214	-0.370
-608.201	1.335	0.233	-0.170
-607.186	451.865	-0.104	-0.233
-606.171	-68.342	-0.042	-0.017
-605.157	-35.378	0.292	-0.161
-604.142	556.551	-0.125	-0.306
-603.128	297.614	-0.134	-0.250
-602.113	-110.326	-0.112	0.024
-601.098	-45.087	0.050	0.025
-600.084	-33.524	-0.470	-0.264
-599.069	17.957	-0.221	0.179
-598.055	-61.339	-0.085	0.036
-597.040	-79.507	-0.055	-0.019
-596.025	-27.225	0.299	-0.177
-595.011	18.607	-0.045	0.037
-593.996	800.000	0.012	0.053
-592.982	19.046	0.246	0.200
-591.967	25.441	0.194	-0.164
-590.952	-89.053	-0.110	0.033
-589.938	-200.000	-0.002	0.204
-588.923	10.332	-0.241	0.186
-587.909	13.424	-0.153	-0.121
-586.894	452.281	0.066	-0.147
-585.879	-0.954	-0.265	0.190
-584.865	-200.000	0.091	-0.562
-583.850	101.480	-0.204	0.241
-582.836	800.000	-0.061	0.226
-581.821	-144.005	0.189	-0.018
-580.806	88.216	0.031	-0.035
-579.792	-79.621	-0.122	0.042
-578.777	122.933	0.043	-0.055
-577.763	218.899	0.089	0.145
-576.748	49.859	0.213	-0.203
-575.733	98.513	-0.097	0.113
-574.719	302.598	-0.125	-0.235
-573.704	-59.764	0.400	-0.174
-572.690	-70.104	0.287	0.111
-571.675	-200.000	0.005	0.136
-570.661	399.548	0.188	-0.399
-569.646	31.855	-0.268	0.234
-568.631	67.595	-0.142	0.147
-567.617	-200.000	-0.004	-0.111
-566.602	-163.207	-0.079	0.004
-565.588	-7.941	-0.136	0.093
-564.573	240.627	0.111	-0.188
-563.558	-38.314	0.265	-0.142
-562.544	-47.326	0.133	-0.066
-561.529	-74.932	-0.221	0.080
-560.515	-148.399	0.088	0.007
-559.500	272.611	-0.081	-0.146
-558.485	-200.000	-0.014	0.234
-557.471	-85.684	0.048	0.015
-556.456	-144.880	0.344	-0.032
-555.442	17.104	0.202	0.162
-554.427	-160.216	-0.471	-0.026
-553.412	-122.052	0.227	-0.038
-552.398	-32.656	-0.309	-0.174
-551.383	-200.000	-0.023	0.238
-550.369	559.617	-0.052	0.127
-549.354	800.000	0.069	0.213
-548.339	-30.792	0.449	0.257
-547.325	2.857	-0.130	-0.095
-546.310	10.977	-0.088	0.068
-545.296	-146.622	-0.395	0.035
-544.281	1.509	-0.260	-0.189
-543.266	32.236	0.142	0.124
-542.252	497.428	0.029	0.067
-541.237	-53.723	-0.231	0.107
-540.223	207.761	0.074	-0.116
-539.208	12.143	-0.097	0.075
-538.193	-20.393	-0.099	-0.062
-537.179	-36.923	-0.228	-0.124
-536.164	-35.446	-0.037	-0.020
-535.150	-100.333	0.304	0.076
-534.135	-200.000	-0.024	0.107
-533.121	-200.000	-0.006	0.445
-532.106	-200.000	-0.017	-0.079
-531.091	20.025	0.137	0.112
-530.077	194.467	-0.134	0.205
-529.062	-59.436	0.081	-0.035
-528.048	-200.000	0.029	0.329
-527.033	267.870	0.051	-0.090
-526.018	800.000	-0.090	0.316
-525.004	7.034	0.056	-0.042
-523.989	62.391	-0.096	-0.097
-522.975	476.021	0.017	-0.038
-521.960	181.380	0.023	-0.034
-520.945	122.245	0.102	-0.129
-519.931	33.548	0.164	-0.145
-518.916	800.000	0.014	-0.047
-517.902	75.071	-0.269	-0.286
-516.887	-15.872	-0.296	-0.191
-515.872	23.457	0.237	-0.197
-514.858	-200.000	0.030	0.328
-513.843	-135.183	0.299	-0.036
-512.829	-154.430	-0.177	0.012
-511.814	-101.111	-0.177	0.044
-510.799	215.112	0.345	-0.553
-509.785	11.794	-0.309	-0.240
-508.770	71.891	-0.222	-0.234
-507.756	277.825	0.146	-0.262
-506.741	800.000	0.077	-0.220
-505.726	-103.657	-0.176	0.042
-504.712	169.714	0.156	0.225
-503.697	338.040	-0.178	-0.350
-502.683	204.829	0.117	-0.183
-501.668	796.958	-0.138	0.386
-500.653	141.281	-0.159	-0.213
-499.639	-75.841	-0.234	0.084
-498.624	-200.000	-0.017	-0.284
-497.610	800.000	-0.031	-0.092
-496.595	-29.645	0.281	-0.162
-495.581	-64.282	0.149	0.061
-494.566	-200.000	-0.002	0.077
-493.551	-200.000	-0.016	-0.146
-492.537	142.647	-0.368	-0.495
-491.522	-75.560	-0.235	0.085
-490.508	718.371	-0.069	-0.185
-489.493	26.609	-0.184	-0.156
-488.478	-103.777	0.100	-0.024
-487.464	10.184	0.211	-0.162
-486.449	101.587	-0.094	-0.111
-485.435	246.724	0.142	-0.242
-484.420	-94.609	-0.013	-0.003
-483.405	-200.000	-0.045	0.408
-482.391	-142.767	0.143	0.014
-481.376	386.469	0.080	-0.166
-480.362	800.000	-0.035	-0.141
-479.347	-12.011	-0.250	0.165
-478.332	-200.000	0.038	-0.214
-477.318	-17.047	0.131	-0.083
-476.303	800.000	0.152	0.525
-475.289	-106.787	-0.171	0.038
-474.274	-111.592	-0.033	-0.007
-473.259	-31.499	-0.298	0.169
-472.245	-57.027	-0.446	0.199
-471.230	17.830	-0.118	-0.095
-470.216	41.598	0.099	-0.091
-469.201	-18.410	0.040	-0.025
-468.186	210.133	0.188	0.298
-467.172	-80.827	0.169	0.057
-466.157	-154.138	0.283	-0.019
-465.143	-98.703	-0.217	-0.056
-464.128	-200.000	-0.018	-0.196
-463.113	-170.091	-0.223	-0.008
-462.099	593.401	0.151	0.378
-461.084	-200.000	0.014	-0.116
-460.070	-200.000	0.010	0.162
-459.055	117.212	-0.065	0.081
-458.040	93.583	0.297	-0.339
-457.026	205.787	0.124	0.194
-456.011	-200.000	-0.004	-0.034
-454.997	-81.914	-0.249	0.082
-453.982	-113.403	0.074	-0.015
-452.968	-200.000	-0.042	-0.212
-451.953	800.000	0.043	0.151
-450.938	64.839	0.163	0.166
-449.924	-174.081	-0.220	0.006
-448.909	-12.423	-0.344	-0.226
-447.895	-20.100	-0.360	0.224
-446.880	-108.168	-0.115	-0.025
-445.865	-200.000	-0.015	0.251
-444.851	-22.010	-0.092	0.056
-443.836	-75.432	-0.100	0.036
-442.822	550.425	-0.135	0.327
-441.807	-20.921	0.101	-0.062
-440.792	-200.000	-0.033	-0.310
-439.778	-200.000	0.024	-0.198
-438.763	403.882	-0.097	0.206
-437.749	-174.001	0.141	-0.004
-436.734	-41.458	0.099	0.051
-435.719	110.190	0.142	0.172
-434.705	-25.268	0.131	-0.078
-433.690	800.000	-0.044	-0.165
-432.676	17.055	-0.157	0.126
-431.661	708.182	0.044	0.118
-430.646	85.592	-0.132	0.146
-429.632	-60.089	-0.398	0.171
-428.617	-200.000	0.022	-0.112
-427.603	461.807	0.045	0.102
-426.588	800.000	0.109	-0.455
-425.573	-50.376	0.049	0.024
-424.559	-125.763	-0.350	-0.053
-423.544	-200.000	0.022	-0.114
-422.530	-78.464	0.259	0.089
-421.515	74.169	-0.141	0.149
-420.500	138.087	-0.145	0.192
-419.486	-200.000	0.002	0.205
-418.471	500.055	0.180	-0.417
-417.457	-4.935	-0.097	0.067
-416.442	-22.963	-0.048	-0.029
-415.428	52.180	0.061	-0.058
-414.413	76.631	0.076	-0.081
-413.398	800.000	-0.031	-0.108
-412.384	247.671	0.110	-0.187
-411.369	185.734	0.069	0.103
-410.355	-59.724	-0.174	-0.075
-409.340	-49.329	0.085	0.041
-408.325	-73.701	0.168	0.062
-407.311	221.354	-0.024	-0.038
-406.296	-59.061	-0.191	-0.083
-405.282	67.337	0.174	0.178
-404.267	-200.000	0.014	0.289
-403.252	-26.934	-0.255	0.150
-402.238	-200.000	-0.040	-0.206
-401.223	-200.000	-0.007	-0.051
-400.209	-56.995	-0.151	0.067
-399.194	-62.591	-0.472	0.197
-398.179	-200.000	0.036	0.291
-397.165	66.025	0.037	0.038
-396.150	681.476	0.142	-0.372
-395.136	138.727	-0.273	0.361
-394.121	-200.000	-0.010	-0.133
-393.106	585.643	-0.146	0.361
-392.092	135.412	0.166	-0.218
-391.077	-113.347	-0.145	-0.029
-390.063	-200.000	-0.030	0.155
-389.048	-18.972	-0.269	0.169
-388.033	795.700	-0.084	-0.234
-387.019	99.428	-0.130	-0.151
-386.004	705.497	0.012	0.031
-384.990	-200.000	0.001	-0.233
-383.975	443.518	-0.118	-0.261
-382.960	-200.000	-0.001	0.224
-381.946	-28.857	0.211	-0.122
-380.931	-83.030	0.381	0.123
-379.917	253.713	-0.191	-0.329
-378.902	-200.000	-0.009	-0.239
-377.888	30.043	0.237	0.203
-376.873	800.000	0.059	0.238
-375.858	-63.463	0.093	0.039
-374.844	-59.675	0.186	-0.080
-373.829	-85.527	0.309	0.097
-372.815	52.356	-0.114	0.109
-371.800	510.324	-0.085	-0.198
-370.785	480.249	-0.082	-0.187
-369.771	22.800	-0.191	-0.157
-368.756	-200.000	-0.047	0.255
-367.742	-63.744	0.077	0.032
-366.727	-184.075	0.077	0.001
-365.712	129.473	0.148	0.190
-364.698	57.619	0.062	-0.061
-363.683	89.910	-0.183	0.205
-362.669	199.625	-0.059	0.091
-361.654	-147.934	0.174	0.015
-360.639	-80.340	-0.452	-0.152
-359.625	7.077	-0.144	-0.108
-358.610	-129.729	0.410	-0.057
-357.596	109.322	-0.119	-0.144
-356.581	-0.686	-0.166	-0.118
-355.566	800.000	0.022	-0.091
-354.552	-102.474	0.246	-0.059
-353.537	194.384	-0.153	-0.234
-352.523	-81.996	-0.237	0.078
-351.508	389.896	-0.120	0.250
-350.493	765.605	-0.077	0.210
-349.479	354.068	-0.092	0.184
-348.464	-73.719	-0.198	-0.073
-347.450	800.000	0.044	0.123
-346.435	-35.344	0.038	0.021
-345.420	247.969	-0.068	0.115
-344.406	-136.525	-0.104	0.012
-343.391	-200.000	-0.034	-0.209
-342.377	94.526	-0.031	0.035
-341.362	-101.432	-0.193	-0.047
-340.348	62.745	0.181	-0.181
-339.333	-200.000	-0.036	0.166
-338.318	-165.341	-0.122	-0.005
-337.304	168.615	0.219	-0.314
-336.289	-22.364	-0.141	-0.086
-335.275	-55.577	0.092	-0.041
-334.260	311.190	0.158	0.298
-333.245	-15.092	0.233	-0.150
-332.231	68.241	-0.185	-0.190
-331.216	25.915	-0.214	-0.179
-330.202	9.208	-0.210	-0.160
-329.187	-200.000	-0.039	0.189
-328.172	-125.743	0.229	-0.035
-327.158	-115.766	0.174	0.033
-326.143	-200.000	-0.070	0.335
-325.129	-77.818	0.092	-0.032
-324.114	-86.142	-0.135	0.042
-323.099	800.000	-0.041	-0.151
-322.085	800.000	-0.029	-0.110
-321.070	-125.941	0.048	-0.007
-320.056	87.839	0.147	-0.164
-319.041	-137.265	-0.090	-0.010
-318.026	-21.651	-0.305	-0.187
-317.012	265.871	-0.066	0.116
-315.997	800.000	0.094	-0.322
-314.983	60.021	-0.182	0.181
-313.968	114.249	-0.090	-0.110
-312.953	800.000	-0.030	-0.099
-311.939	800.000	-0.027	-0.094
-310.924	252.544	-0.141	0.242
-309.910	157.402	-0.134	-0.186
-308.895	-200.000	0.026	0.157
-307.880	-68.334	-0.111	-0.043
-306.866	-151.053	-0.422	-0.032
-305.851	-92.803	0.178	0.050
-304.837	8.515	0.183	0.138
-303.822	0.237	0.241	-0.172
-302.807	-200.000	-0.023	-0.114
-301.793	47.771	0.198	0.185
-300.778	-65.974	-0.326	-0.131
-299.764	-107.007	0.408	-0.090
-298.749	-200.000	-0.009	-0.075
-297.735	800.000	-0.086	-0.307
-296.720	-112.735	0.109	0.022
-295.705	100.106	-0.175	-0.204
-294.691	-144.926	-0.151	0.014
-293.676	-5.551	-0.094	-0.065
-292.662	27.479	0.279	0.235
-291.647	-86.551	0.114	-0.035
-290.632	47.832	0.188	0.176
-289.618	96.497	-0.144	0.165
-288.603	152.788	0.202	-0.277
-287.589	-19.567	-0.092	-0.057
-286.574	50.507	0.200	-0.190
-285.559	779.243	-0.152	-0.418
-284.545	56.442	-0.124	-0.121
-283.530	-200.000	-0.016	0.265
-282.516	-95.191	0.092	-0.025
-281.501	-164.248	-0.072	-0.003
-280.486	329.820	0.294	0.568
-279.472	-19.020	0.143	-0.089
-278.457	145.606	0.097	-0.131
-277.443	-67.019	0.092	0.036
-276.428	-171.527	-0.120	-0.004
-275.413	106.608	-0.192	0.228
-274.399	-49.501	0.091	0.044
-273.384	-200.000	-0.070	-0.349
-272.370	-90.211	0.342	0.100
-271.355	-14.291	-0.096	0.062
-270.340	2.847	0.242	-0.176
-269.326	60.607	0.223	-0.221
-268.311	800.000	0.055	0.195
-267.297	-52.999	0.081	-0.037
-266.282	-29.931	-0.133	-0.076
-265.267	219.934	0.119	-0.192
-264.253	-200.000	0.009	-0.145
-263.238	-163.420	0.200	-0.010
-262.224	180.704	0.191	-0.281
-261.209	-82.282	0.457	-0.149
-260.195	78.017	-0.259	0.277
-259.180	-1.437	0.139	0.098
-258.165	-95.668	-0.152	-0.041
-257.151	-113.252	0.428	-0.084
-256.136	-86.653	-0.242	-0.074
-255.122	13.942	0.064	0.050
-254.107	168.403	-0.290	0.414
-253.092	-200.000	-0.039	0.281
-252.078	-200.000	0.088	0.507
-251.063	385.403	-0.095	0.196
-250.049	-171.394	0.213	-0.007
-249.034	-105.631	-0.255	-0.058
-248.019	86.528	0.073	0.081
-247.005	-123.033	-0.137	0.022
-245.990	130.748	-0.101	0.130
-244.976	-77.531	0.025	0.009
-243.961	-200.000	0.020	0.261
-242.946	8.380	-0.075	0.057
-241.932	-200.000	-0.010	0.237
-240.917	127.829	0.086	-0.109
-239.903	262.292	0.172	-0.298
-238.888	-72.940	-0.104	0.038
-237.873	111.441	0.057	-0.069
-236.859	800.000	-0.019	-0.054
-235.844	467.151	0.022	0.050
-234.830	426.131	0.073	-0.157
-233.815	-200.000	-0.002	-0.352
-232.800	-30.337	-0.457	0.260
-231.786	800.000	-0.057	0.172
-230.771	216.912	0.223	-0.354
-229.757	25.531	0.160	0.133
-228.742	26.512	-0.047	-0.039
-227.727	-95.081	0.148	0.040
-226.713	-200.000	0.037	0.167
-225.698	326.364	0.264	0.506
-224.684	414.065	-0.039	-0.084
-223.669	-76.034	0.246	0.087
-222.655	-51.168	-0.310	0.145
-221.640	-200.000	-0.014	0.200
-220.625	112.630	-0.150	-0.181
-219.611	184.767	-0.070	-0.104
-218.596	-47.616	-0.198	-0.096
-217.582	144.793	0.140	0.188
-216.567	60.309	-0.156	-0.154
-215.552	418.395	0.048	-0.102
-214.538	-44.009	0.469	0.236
-213.523	-200.000	-0.022	-0.128
-212.509	128.505	0.141	0.180
-211.494	800.000	-0.036	0.146
-210.479	-200.000	-0.003	-0.015
-209.465	-200.000	-0.004	0.286
-208.450	332.065	-0.135	0.260
-207.436	0.716	-0.052	0.037
-206.421	94.837	-0.080	-0.091
-205.406	649.723	0.017	0.042
-204.392	-156.006	-0.071	-0.004
-203.377	-200.000	-0.012	-0.236
-202.363	-103.911	0.101	0.024
-201.348	-107.099	0.246	0.054
-200.333	-70.395	-0.162	-0.061
-199.319	-200.000	0.001	0.146
-198.304	-68.072	-0.132	-0.051
-197.290	-63.850	-0.362	-0.148
-196.275	219.323	0.112	-0.179
-195.260	-137.640	0.146	-0.016
-194.246	265.879	-0.185	-0.322
-193.231	-71.891	0.100	-0.037
-192.217	293.024	0.092	0.169
-191.202	650.643	0.094	0.240
-190.187	93.035	-0.121	0.137
-189.173	-124.587	-0.145	0.022
-188.158	-127.991	0.488	0.070
-187.144	272.959	0.068	0.120
-186.129	554.399	0.082	-0.198
-185.114	-154.786	0.372	-0.025
-184.100	-72.579	0.456	0.168
-183.085	-200.000	0.042	0.311
-182.071	117.356	0.105	0.129
-181.056	800.000	0.096	0.302
-180.042	704.230	-0.105	0.277
-179.027	-200.000	0.055	-0.275
-178.012	578.218	0.044	0.108
-176.998	-200.000	0.013	-0.154
-175.983	408.975	0.111	0.235
-174.969	800.000	-0.096	0.339
-173.954	-8.019	-0.156	0.105
-172.939	551.552	0.117	-0.281
-171.925	-120.589	-0.140	-0.024
-170.910	-200.000	0.008	-0.066
-169.896	27.138	0.334	-0.280
-168.881	-7.223	-0.062	-0.042
-167.866	-85.280	-0.352	0.110
-166.852	-78.719	0.067	-0.023
-165.837	-115.808	-0.283	-0.053
-164.823	449.335	0.133	-0.293
-163.808	-18.184	0.261	0.163
-162.793	-35.602	0.216	0.117
-161.779	-91.017	0.119	0.034
-160.764	134.567	-0.327	-0.423
-159.750	5.414	0.301	0.221
-158.735	-65.843	0.422	0.168
-157.720	-101.597	-0.172	-0.042
-156.706	26.621	0.085	-0.071
-155.691	-30.305	-0.116	-0.066
-154.677	-110.434	-0.114	0.024
-153.662	-9.789	0.238	0.158
-152.647	-200.000	-0.053	0.289
-151.633	-200.000	0.006	-0.081
-150.618	800.000	0.085	0.287
-149.604	-74.367	0.324	0.117
-148.589	-116.176	0.335	0.062
-147.574	-54.420	-0.118	-0.053
-146.560	4.669	0.013	0.010
-145.545	-8.293	0.023	-0.015
-144.531	-3.065	0.229	0.159
-143.516	278.174	0.037	-0.067
-142.502	-82.423	0.209	-0.068
-141.487	-142.993	0.203	-0.020
-140.472	287.327	-0.062	-0.111
-139.458	212.491	0.139	0.219
-138.443	131.193	0.156	-0.199
-137.429	22.837	0.053	0.043
-136.414	116.056	0.312	0.381
-135.399	113.157	0.040	-0.049
-134.385	-74.081	-0.138	-0.050
-133.370	-79.846	-0.203	0.068
-132.356	-28.231	-0.362	0.209
-131.341	-51.616	-0.294	-0.137
-130.326	-79.645	0.151	0.051
-129.312	-200.000	-0.020	0.345
-128.297	800.000	0.022	-0.080
-127.283	-149.165	0.227	-0.018
-126.268	377.342	0.121	-0.247
-125.253	-21.833	-0.157	0.095
-124.239	32.586	0.174	-0.150
-123.224	-177.930	-0.319	-0.008
-122.210	49.029	-0.173	0.162
-121.195	8.091	-0.168	0.126
-120.180	-108.620	-0.248	-0.053
-119.166	-69.364	0.279	-0.107
-118.151	-8.913	0.250	-0.167
-117.137	800.000	-0.043	0.122
-116.122	-119.900	0.121	0.021
-115.107	-79.230	-0.138	-0.046
-114.093	74.640	-0.090	-0.094
-113.078	-109.003	0.211	0.045
-112.064	-200.000	0.035	0.224
-111.049	-29.661	-0.023	0.013
-110.034	-155.184	0.178	0.012
-109.020	-200.000	0.028	-0.224
-108.005	-200.000	-0.086	-0.486
-106.991	-119.752	0.294	-0.050
-105.976	-200.000	-0.008	0.262
-104.962	10.774	-0.200	-0.152
-103.947	-92.769	0.039	0.011
-102.932	-71.689	0.069	-0.026
-101.918	-200.000	0.008	0.108
-100.903	-200.000	0.012	-0.231
-99.889	-72.215	0.218	0.080
-98.874	-200.000	-0.004	-0.100
-97.859	170.480	0.040	0.057
-96.845	-100.270	-0.164	0.041
-95.830	-182.141	-0.325	-0.006
-94.816	494.499	-0.176	0.401
-93.801	-200.000	-0.032	-0.173
-92.786	87.678	0.094	-0.104
-91.772	800.000	-0.085	-0.354
-90.757	-200.000	0.047	-0.357
-89.743	294.087	-0.190	-0.345
-88.728	261.648	0.081	0.140
-87.713	800.000	0.023	-0.094
-86.699	108.426	0.163	0.194
-85.684	-16.789	-0.225	0.142
-84.670	40.346	-0.113	0.101
-83.655	-200.000	-0.019	0.347
-82.640	-119.872	-0.260	-0.045
-81.626	594.030	0.045	0.112
-80.611	47.017	0.035	0.032
-79.597	-10.727	0.076	-0.050
-78.582	-39.432	0.271	0.141
-77.567	93.644	0.182	-0.205
-76.553	-125.103	0.028	0.004
-75.538	-145.231	0.348	0.031
-74.524	-200.000	-0.028	0.283
-73.509	70.760	0.154	0.158
-72.494	-200.000	-0.015	-0.199
-71.480	76.327	-0.240	0.253
-70.465	156.867	-0.134	-0.184
-69.451	-200.000	-0.022	-0.138
-68.436	-200.000	0.002	-0.069
-67.422	528.612	-0.077	0.181
-66.407	8.753	-0.076	0.057
-65.392	144.198	0.087	-0.116
-64.378	-29.522	0.328	-0.186
-63.363	-90.662	-0.215	0.062
-62.349	-200.000	-0.029	0.252
-61.334	130.816	-0.849	-1.082
-60.319	40.091	0.366	0.327
-59.305	800.000	-0.309	-1.014
-58.290	418.327	0.388	0.824
-57.276	800.000	0.414	1.452
-56.261	-200.000	89.391	501.900
-55.246	510.399	1411.980	3262.970
-54.232	179.283	2635.585	3831.388
-53.217	116.525	2238.432	2727.054
-52.203	47.139	1675.414	1548.984
-51.188	39.513	1403.778	1249.670
-50.173	36.281	1359.734	1190.510
-49.159	55.978	1404.620	1353.635
-48.144	60.046	1423.204	1396.968
-47.130	40.115	1379.894	1231.963
-46.115	36.358	1362.403	1193.136
-45.100	36.183	1357.617	1187.819
-44.086	36.224	1354.710	1185.478
-43.071	36.068	1352.440	1182.487
-42.057	36.092	1350.306	1180.724
-41.042	36.006	1348.776	1178.814
-40.027	36.161	1346.816	1178.000
-39.013	36.094	1344.992	1175.950
-37.998	36.222	1343.030	1174.965
-36.984	36.270	1341.052	1173.480
-35.969	36.313	1338.763	1171.690
-34.954	36.232	1337.381	1169.943
-33.940	36.347	1336.113	1169.489
-32.925	36.277	1334.792	1167.862
-31.911	36.315	1333.175	1166.626
-30.896	36.331	1331.603	1165.302
-29.881	36.425	1330.057	1164.472
-28.867	36.358	1328.767	1162.893
-27.852	36.489	1327.148	1162.215
-26.838	36.423	1325.442	1160.280
-25.823	36.295	1324.440	1158.586
-24.809	36.284	1323.113	1157.318
-23.794	36.355	1321.512	1156.292
-22.779	36.335	1320.001	1154.809
-21.765	36.394	1318.795	1154.059
-20.750	36.360	1317.697	1152.847
-19.736	36.171	1316.452	1150.584
-18.721	36.144	1315.187	1149.276
-17.706	36.289	1313.566	1148.675
-16.692	36.233	1312.288	1147.179
-15.677	36.230	1311.411	1146.349
-14.663	36.138	1310.239	1144.731
-13.648	36.179	1309.095	1143.928
-12.633	36.171	1307.533	1142.471
-11.619	36.124	1307.336	1141.977
-10.604	36.211	1305.881	1141.175
-9.590	36.166	1305.329	1140.385
-8.575	36.123	1304.178	1139.075
-7.560	36.077	1303.744	1138.381
-6.546	36.217	1302.516	1138.092
-5.531	36.152	1301.414	1136.698
-4.517	36.148	1300.219	1135.588
-3.502	36.191	1299.530	1135.193
-2.487	36.267	1298.228	1134.459
-1.473	36.261	1294.749	1131.338
-0.458	35.374	1279.957	1113.221
0.556	32.584	1261.700	1074.761
1.571	28.889	1265.982	1057.115
2.586	27.556	1280.520	1061.404
3.600	25.702	1267.987	1040.218
4.615	18.992	1190.938	940.366
5.629	9.272	1110.545	827.024
6.644	4.714	1087.967	787.121
7.659	4.234	1085.721	783.001
8.673	4.336	1084.333	782.446
9.688	4.398	1083.207	781.876
10.702	4.616	1081.934	781.988
11.717	10.065	1090.116	815.380
12.731	18.875	1102.396	869.246
13.746	21.228	1104.442	882.692
14.761	19.928	1101.734	873.888
15.775	18.808	1100.083	866.854
16.790	17.740	1097.582	859.429
17.804	17.106	1096.000	854.921
18.819	16.651	1095.238	851.962
19.834	16.431	1094.430	850.150
20.848	16.272	1093.680	848.693
21.863	16.048	1092.459	846.545
22.877	16.042	1091.665	845.826
23.892	15.997	1090.863	844.903
24.907	15.952	1090.007	843.941
25.921	15.925	1089.431	843.283
26.936	15.978	1087.890	842.282
27.950	16.036	1086.597	841.496
28.965	16.045	1085.049	840.268
29.980	16.267	1083.525	840.120
30.994	16.328	1082.068	839.215
32.009	16.372	1081.285	838.751
33.023	16.412	1079.829	837.748
34.038	16.169	1078.841	835.706
35.053	16.140	1078.299	835.064
36.067	15.971	1077.691	833.687
37.082	16.140	1076.410	833.454
38.096	16.266	1075.896	833.608
39.111	16.266	1075.419	833.164
40.126	16.052	1073.681	830.689
41.140	15.888	1072.942	829.236
42.155	15.931	1071.290	828.097
43.169	15.834	1069.910	826.483
44.184	15.702	1069.233	825.237
45.199	15.790	1068.172	824.776
46.213	15.899	1067.130	824.434
47.228	16.007	1066.260	824.217
48.242	16.018	1065.137	823.329
49.257	16.076	1063.979	822.643
50.271	16.030	1063.886	822.273
51.286	16.047	1062.487	821.205
52.301	16.182	1061.109	820.722
53.315	16.094	1060.429	819.698
54.330	15.921	1059.129	817.778
55.344	15.834	1058.801	817.031
56.359	15.973	1057.140	816.349
57.374	15.834	1056.514	815.123
58.388	15.813	1055.620	814.257
59.403	15.843	1054.554	813.510
60.417	15.797	1054.036	812.816
61.432	15.682	1053.408	811.706
62.447	15.732	1052.204	810.945
63.461	15.717	1051.276	810.088
64.476	15.698	1050.575	809.381
65.490	15.576	1049.703	808.051
66.505	15.757	1049.261	808.511
67.520	15.827	1048.178	807.941
68.534	15.859	1047.209	807.275
69.549	15.714	1046.883	806.257
70.563	15.614	1045.889	804.940
71.578	15.619	1045.306	804.445
72.593	15.643	1044.029	803.507
73.607	15.492	1043.721	802.479
74.622	15.485	1042.857	801.706
75.636	15.553	1042.325	801.554
76.651	15.615	1041.506	801.149
77.666	15.619	1040.880	800.617
78.680	15.620	1040.416	800.189
79.695	15.690	1039.496	799.748
80.709	15.703	1039.349	799.624
81.724	15.682	1038.871	799.087
82.739	15.859	1037.763	799.005
83.753	15.976	1036.814	798.755
84.768	16.180	1036.009	799.033
85.782	16.366	1035.467	799.422
86.797	16.245	1034.211	797.811
87.812	16.069	1033.673	796.497
88.826	16.201	1032.341	796.021
89.841	16.176	1031.371	795.084
90.855	16.129	1030.880	794.413
91.870	16.279	1030.122	794.468
92.884	16.188	1028.948	793.061
93.899	16.314	1028.182	792.993
94.914	16.256	1027.452	792.088
95.928	16.264	1026.394	791.241
96.943	16.245	1025.194	790.157
97.957	16.125	1024.575	789.046
98.972	16.208	1023.560	788.584
99.987	16.276	1022.527	788.037
101.001	16.157	1021.979	786.991
102.016	16.202	1020.657	786.108
103.030	16.267	1020.180	785.974
104.045	16.158	1019.628	784.975
105.060	16.138	1018.499	783.944
106.074	15.972	1017.424	782.277
107.089	15.816	1016.084	780.454
108.103	15.760	1015.514	779.688
109.118	15.781	1014.787	779.158
110.133	15.727	1013.340	777.728
111.147	15.712	1012.737	777.126
112.162	15.742	1012.034	776.656
113.176	15.870	1011.002	776.385
114.191	15.896	1010.573	776.107
115.206	15.924	1009.984	775.715
116.220	15.920	1008.758	774.686
117.235	15.879	1007.612	773.550
118.249	15.811	1006.778	772.527
119.264	15.836	1006.019	771.991
120.279	15.901	1005.209	771.600
121.293	15.864	1004.311	770.673
122.308	15.690	1003.437	769.139
123.322	15.671	1002.321	768.129
124.337	15.735	1001.052	767.378
125.352	15.735	999.920	766.443
126.366	15.786	999.004	765.908
127.381	15.791	997.863	764.988
128.395	15.733	997.410	764.308
129.410	15.814	996.368	763.812
130.424	15.888	995.548	763.448
131.439	15.907	994.851	762.933
132.454	16.056	993.952	762.853
133.468	15.982	993.668	762.232
134.483	16.043	992.320	761.407
135.497	16.082	991.036	760.529
136.512	15.957	990.872	759.770
137.527	16.093	989.490	759.257
138.541	16.198	989.171	759.417
139.556	16.011	988.487	757.982
140.570	16.131	988.117	758.171
141.585	16.218	987.080	757.702
142.600	16.417	985.815	757.555
143.614	16.406	985.387	757.112
144.629	16.318	984.715	756.132
145.643	16.295	983.740	755.212
146.658	16.139	982.315	753.356
147.673	16.072	981.402	752.291
148.687	16.057	980.923	751.790
149.702	16.062	979.287	750.492
150.716	16.072	978.916	750.187
151.731	16.064	978.395	749.684
152.746	16.069	977.815	749.197
153.760	16.149	977.133	748.964
154.775	16.158	976.708	748.609
155.789	16.204	975.913	748.136
156.804	16.216	975.231	747.600
157.819	16.275	974.607	747.321
158.833	16.277	973.900	746.719
159.848	16.504	972.990	746.960
160.862	16.531	971.682	746.007
161.877	16.097	971.021	743.519
162.892	16.157	969.737	742.734
163.906	16.083	968.769	741.605
164.921	16.118	968.051	741.143
165.935	16.304	966.938	741.041
166.950	16.133	966.212	739.669
167.964	16.311	965.458	739.804
168.979	16.234	964.164	738.413
169.994	16.312	963.220	737.963
171.008	16.231	962.833	737.251
172.023	16.318	962.112	737.014
173.037	16.346	961.435	736.549
174.052	16.404	960.686	736.162
175.067	16.204	959.992	734.695
176.081	16.034	960.058	733.941
177.096	16.152	959.164	733.706
178.110	16.264	958.419	733.560
179.125	16.456	957.440	733.579
180.140	16.344	957.438	733.025
181.154	16.320	956.795	732.365
182.169	16.336	956.342	732.019
183.183	16.596	955.528	732.458
184.198	16.453	954.978	731.353
185.213	16.603	953.894	731.109
186.227	16.505	953.909	730.631
187.242	16.508	953.222	730.054
188.256	16.650	952.247	729.853
189.271	16.653	951.540	729.262
190.286	16.314	950.650	727.053
191.300	16.105	949.802	725.445
192.315	16.018	949.152	724.508
193.329	16.248	948.427	724.878
194.344	16.362	947.914	724.910
195.359	16.385	947.225	724.418
196.373	16.546	946.575	724.546
197.388	16.721	946.447	725.134
198.402	16.749	945.782	724.681
199.417	16.779	945.497	724.527
200.432	16.860	944.599	724.123
201.446	16.904	944.588	724.238
202.461	16.910	944.227	723.922
203.475	16.885	943.369	723.093
204.490	16.774	942.236	721.688
205.504	16.683	941.517	720.683
206.519	16.659	940.483	719.730
207.534	16.674	940.071	719.412
208.548	16.627	939.362	718.607
209.563	16.753	938.783	718.635
210.577	16.746	938.072	717.999
211.592	16.983	937.304	718.352
212.607	16.931	936.556	717.495
213.621	16.916	935.823	716.803
214.636	16.903	934.760	715.872
215.650	16.935	934.422	715.683
216.665	17.130	933.209	715.516
217.680	17.109	933.188	715.348
218.694	17.043	932.603	714.558
219.709	16.977	932.071	713.810
220.723	17.143	930.958	713.591
221.738	16.964	930.543	712.457
222.753	17.010	929.607	711.872
223.767	17.036	929.050	711.492
224.782	17.146	928.603	711.547
225.796	17.175	928.278	711.357
226.811	17.022	927.369	709.955
227.826	17.028	926.540	709.283
228.840	16.953	925.815	708.352
229.855	17.048	924.896	707.981
230.869	17.091	924.036	707.440
231.884	16.869	923.673	706.174
232.899	16.978	922.630	705.770
233.913	16.997	921.727	705.095
234.928	16.898	921.213	704.230
235.942	16.830	921.244	703.907
236.957	16.830	920.341	703.157
237.972	16.901	919.702	702.897
238.986	16.933	919.244	702.618
240.001	16.893	918.414	701.759
241.015	17.048	917.691	701.784
242.030	16.962	917.212	701.001
243.045	17.029	916.538	700.701
244.059	17.120	915.648	700.332
245.074	17.112	915.383	700.035
246.088	17.222	914.360	699.643
247.103	17.330	913.622	699.461
248.117	17.465	913.466	699.835
249.132	17.552	912.926	699.716
250.147	17.689	912.193	699.654
251.161	17.598	911.952	699.037
252.176	17.680	911.039	698.611
253.190	17.802	910.122	698.346
254.205	17.825	909.397	697.822
255.220	17.830	908.772	697.301
256.234	17.732	908.277	696.459
257.249	17.690	908.102	696.089
258.263	17.848	906.673	695.577
259.278	17.830	906.279	695.141
260.293	17.965	905.412	694.963
261.307	17.877	905.426	694.553
262.322	17.812	904.736	693.700
263.336	17.866	904.149	693.407
264.351	17.897	902.963	692.562
265.366	17.917	902.304	692.076
266.380	17.895	902.094	691.763
267.395	17.829	901.064	690.646
268.409	17.812	900.347	689.965
269.424	17.765	899.343	688.948
270.439	17.777	898.825	688.536
271.453	17.781	897.897	687.781
272.468	17.820	897.712	687.735
273.482	17.878	896.922	687.306
274.497	17.824	896.470	686.678
275.512	17.888	895.691	686.277
276.526	17.741	895.593	685.552
277.541	17.861	895.102	685.598
278.555	17.908	894.548	685.301
279.570	18.065	893.507	685.072
280.585	18.138	892.845	684.797
281.599	18.069	891.736	683.610
282.614	18.041	891.204	683.030
283.628	18.044	890.685	682.584
284.643	17.879	890.428	681.667
285.657	17.943	889.685	681.294
286.672	18.047	888.784	680.958
287.687	18.160	888.201	680.901
288.701	18.072	887.950	680.297
289.716	18.232	886.910	680.078
290.730	18.000	886.976	679.147
291.745	18.116	886.092	678.867
292.760	17.962	885.567	677.796
293.774	18.216	884.814	678.165
294.789	18.182	883.977	677.330
295.803	18.099	883.775	676.787
296.818	18.071	882.823	675.888
297.833	18.160	881.926	675.492
298.847	18.097	881.337	674.731
299.862	18.220	880.666	674.646
300.876	18.205	880.339	674.277
301.891	18.340	879.890	674.405
302.906	18.492	879.178	674.395
303.920	18.452	878.683	673.799
304.935	18.604	878.152	673.931
305.949	18.458	877.294	672.638
306.964	18.306	877.172	671.890
307.979	18.397	876.496	671.670
308.993	18.638	875.481	671.775
310.008	18.488	875.126	670.856
311.022	18.389	874.587	669.995
312.037	18.309	874.055	669.217
313.052	18.281	873.107	668.325
314.066	18.294	872.641	667.956
315.081	18.313	871.698	667.250
316.095	18.266	871.416	666.794
317.110	18.310	870.983	666.575
318.125	18.202	870.366	665.621
319.139	18.348	869.603	665.546
320.154	18.370	869.372	665.398
321.168	18.375	868.881	664.981
322.183	18.514	867.889	664.704
323.197	18.430	867.814	664.260
324.212	18.382	866.951	663.354
325.227	18.375	866.740	663.109
326.241	18.306	866.028	662.238
327.256	18.454	865.089	662.033
328.270	18.349	864.863	661.396
329.285	18.330	864.162	660.727
330.300	18.403	863.661	660.567
331.314	18.529	863.186	660.633
332.329	18.509	862.810	660.208
333.343	18.535	862.419	659.952
334.358	18.663	861.599	659.757
335.373	18.493	861.249	658.776
336.387	18.611	861.031	659.007
337.402	18.726	860.599	659.056
338.416	18.847	860.274	659.214
339.431	18.927	859.866	659.150
340.446	18.968	859.297	658.815
341.460	18.984	859.167	658.719
342.475	18.763	859.221	657.853
343.489	18.892	858.415	657.672
344.504	18.958	858.230	657.726
345.519	18.988	857.669	657.353
346.533	18.998	857.209	656.980
347.548	18.800	856.645	655.734
348.562	18.844	855.688	655.108
349.577	18.787	855.140	654.415
350.592	18.723	854.374	653.527
351.606	18.766	853.550	653.002
352.621	18.758	852.779	652.323
353.635	18.842	852.168	652.117
354.650	18.873	851.698	651.817
355.665	18.782	851.215	651.045
356.679	18.895	850.598	650.946
357.694	18.995	849.997	650.806
358.708	19.006	849.000	650.025
359.723	19.028	848.610	649.754
360.738	18.920	848.225	648.995
361.752	19.072	847.410	648.886
362.767	19.178	846.693	648.677
363.781	19.158	846.579	648.456
364.796	19.251	846.269	648.514
365.810	19.399	845.674	648.556
366.825	19.471	845.136	648.358
367.840	19.407	844.485	647.561
368.854	19.295	843.836	646.585
369.869	19.291	843.806	646.491
370.883	19.189	843.577	645.874
371.898	19.418	843.038	646.265
372.913	19.556	842.392	646.226
373.927	19.472	841.777	645.386
374.942	19.339	841.392	644.535
375.956	19.601	840.781	644.989
376.971	19.466	840.598	644.289
377.986	19.555	840.087	644.171
379.000	19.596	839.399	643.738
380.015	19.665	838.888	643.548
381.029	19.676	838.483	643.220
382.044	19.575	837.886	642.329
383.059	19.547	837.307	641.726
384.073	19.571	836.747	641.327
385.088	19.388	836.139	640.127
386.102	19.322	835.472	639.314
387.117	19.449	834.816	639.226
388.132	19.412	834.360	638.685
389.146	19.551	833.771	638.689
390.161	19.516	833.560	638.343
391.175	19.510	832.981	637.821
392.190	19.629	832.157	637.572
393.205	19.466	831.867	636.690
394.219	19.561	831.553	636.746
395.234	19.484	831.032	636.009
396.248	19.331	830.784	635.195
397.263	19.372	829.942	634.647
398.278	19.502	829.510	634.738
399.292	19.436	829.004	634.055
400.307	19.376	828.649	633.506
401.321	19.292	828.331	632.898
402.336	19.544	827.467	633.108
403.350	19.632	827.331	633.270
404.365	19.562	827.176	632.838
405.380	19.726	826.507	632.869
406.394	19.915	826.008	633.121
407.409	19.854	825.471	632.432
408.423	19.845	825.312	632.220
409.438	19.950	825.130	632.410
410.453	20.143	824.137	632.298
411.467	20.033	823.937	631.688
412.482	20.088	823.734	631.677
413.496	20.081	823.316	631.273
414.511	20.292	823.064	631.791
415.526	20.082	822.044	630.190
416.540	20.127	821.798	630.110
417.555	20.120	821.058	629.460
418.569	20.079	820.948	629.172
419.584	20.185	820.565	629.207
420.599	20.186	819.966	628.695
421.613	153.973	1369.943	1784.140
422.628	134.092	1450.111	1784.258
