DTS Sentinel unit serial number:	SN413079Multiplexer serial number:	ORYXHardware model number:	OX4-SRSoftware version number:	ORYX F/W v4.00 Oryx Data Collector v3.7.2.0data status	okinstallation	princeton_trtdifferential loss correction	single-endedforward channel	channel 1reverse channel	N/Adate	2019/09/17time	08:46:35forward acquisition time	60.00reverse acquisition time	0.00gamma	496.2192k internal	0.2327k external	0.2327temperature offset calibration	0.9967default loss term (dB/km)	0.3790temperature slope calibration	1.0000multiplexer offset coefficient	1.0000multiplexer slope coefficient	1.0000fibre end	0.00T internal ref (°C)	27.77T ext. ref 1 (°C)	0.13T ext. ref 2 (°C)	23.35length (m)	temperature (°C)	Stokes	anti-Stokes-747.200	-120.866	0.287	0.049
-746.185	-98.082	-0.168	0.044
-745.171	-200.000	0.011	0.116
-744.156	-131.771	-0.158	-0.021
-743.142	-93.059	-0.097	0.027
-742.127	136.618	0.049	0.065
-741.112	-30.331	-0.363	-0.208
-740.098	-117.232	-0.186	0.034
-739.083	-200.000	-0.047	0.335
-738.069	-127.767	-0.031	0.004
-737.054	88.103	0.147	0.164
-736.039	800.000	0.092	-0.275
-735.025	-88.245	0.118	0.035
-734.010	-149.057	-0.145	0.012
-732.996	149.432	-0.189	0.257
-731.981	-167.892	0.135	0.005
-730.966	476.390	-0.145	0.331
-729.952	-95.031	0.285	-0.078
-728.937	-200.000	0.001	-0.127
-727.923	-156.340	0.017	-0.001
-726.908	118.202	0.020	-0.025
-725.894	40.246	-0.124	-0.113
-724.879	-16.389	-0.126	-0.081
-723.864	2.519	0.028	0.020
-722.850	521.834	0.068	-0.160
-721.835	24.633	-0.243	0.202
-720.821	-199.702	-0.221	0.001
-719.806	278.155	0.109	-0.196
-718.791	291.873	-0.155	-0.285
-717.777	-12.016	-0.184	0.121
-716.762	-136.801	-0.243	-0.028
-715.748	-77.954	0.234	0.081
-714.733	-48.814	-0.184	-0.089
-713.718	-182.852	-0.312	-0.006
-712.704	387.052	-0.136	0.284
-711.689	-80.199	0.267	-0.090
-710.675	7.153	-0.359	-0.270
-709.660	-200.000	0.098	-0.492
-708.645	-77.525	-0.300	-0.105
-707.631	-0.282	0.153	-0.110
-706.616	-15.107	0.225	-0.145
-705.602	800.000	0.041	-0.129
-704.587	203.478	-0.196	-0.305
-703.572	-68.021	0.401	-0.157
-702.558	800.000	0.042	0.143
-701.543	-200.000	0.001	0.034
-700.529	136.821	-0.176	-0.231
-699.514	61.515	-0.063	-0.063
-698.499	-29.784	0.440	0.253
-697.485	-30.586	-0.212	0.121
-696.470	121.250	0.129	-0.161
-695.456	338.265	0.151	-0.295
-694.441	800.000	0.103	-0.371
-693.426	-200.000	-0.011	-0.211
-692.412	-50.130	-0.314	-0.150
-691.397	306.660	0.129	-0.242
-690.383	-96.300	-0.187	0.050
-689.368	800.000	-0.014	0.040
-688.354	143.112	0.123	-0.165
-687.339	-200.000	-0.004	-0.100
-686.324	32.451	-0.160	0.139
-685.310	-200.000	-0.002	0.176
-684.295	38.209	0.115	-0.103
-683.281	147.925	-0.027	-0.037
-682.266	-200.000	-0.026	-0.367
-681.251	-101.328	0.157	0.039
-680.237	-136.842	0.071	0.008
-679.222	-85.041	0.076	-0.024
-678.208	-200.000	-0.039	0.194
-677.193	-200.000	-0.008	-0.063
-676.178	800.000	0.100	-0.309
-675.164	-200.000	0.002	0.132
-674.149	-50.733	-0.199	-0.094
-673.135	-46.172	0.074	-0.037
-672.120	170.366	0.161	-0.231
-671.105	38.518	-0.127	-0.114
-670.091	-28.508	-0.176	0.102
-669.076	-200.000	-0.089	0.410
-668.062	800.000	-0.111	-0.400
-667.047	67.944	-0.139	0.143
-666.032	-91.901	0.053	0.015
-665.018	-200.000	-0.053	0.288
-664.003	503.581	-0.032	-0.075
-662.989	108.284	0.181	0.217
-661.974	439.704	0.108	-0.236
-660.959	480.925	0.010	0.022
-659.945	152.139	0.072	-0.099
-658.930	63.158	-0.188	-0.190
-657.916	-123.804	-0.387	0.061
-656.901	148.212	-0.273	-0.370
-655.886	-74.904	-0.245	-0.088
-654.872	131.777	-0.077	0.100
-653.857	-141.531	-0.132	-0.013
-652.843	75.332	0.086	0.091
-651.828	-200.000	0.039	-0.192
-650.814	134.324	-0.071	-0.092
-649.799	-16.124	-0.279	0.178
-648.784	-200.000	-0.055	0.246
-647.770	84.865	-0.098	-0.108
-646.755	724.021	-0.131	0.350
-645.741	-61.229	0.366	0.155
-644.726	-128.632	-0.268	-0.038
-643.711	266.310	-0.109	-0.192
-642.697	40.936	0.039	0.035
-641.682	77.731	0.091	0.097
-640.668	-185.918	-0.180	-0.003
-639.653	91.559	0.238	-0.268
-638.638	158.949	0.148	-0.206
-637.624	280.549	-0.022	0.039
-636.609	-152.306	0.209	-0.015
-635.595	-101.790	-0.199	-0.048
-634.580	800.000	0.064	-0.244
-633.565	-101.239	0.186	0.046
-632.551	-149.072	-0.066	-0.005
-631.536	96.245	0.252	-0.289
-630.522	19.499	0.196	-0.158
-629.507	-108.558	0.263	-0.057
-628.492	126.774	0.015	-0.019
-627.478	14.404	-0.203	0.159
-626.463	-55.968	-0.141	0.063
-625.449	-79.571	-0.323	0.109
-624.434	649.155	0.072	-0.184
-623.419	562.279	0.092	0.224
-622.405	353.449	0.113	0.226
-621.390	99.458	0.074	0.085
-620.376	-54.134	0.163	0.074
-619.361	-56.571	-0.114	-0.051
-618.346	112.866	-0.169	-0.206
-617.332	-8.198	0.208	-0.141
-616.317	-130.965	-0.239	0.032
-615.303	-91.942	-0.232	0.066
-614.288	-23.619	-0.181	-0.109
-613.273	237.840	-0.008	0.013
-612.259	-77.017	0.139	-0.049
-611.244	-200.000	0.008	-0.220
-610.230	-200.000	0.001	-0.047
-609.215	800.000	0.011	0.039
-608.201	-14.588	0.094	0.061
-607.186	-200.000	0.000	-0.077
-606.171	300.360	-0.098	-0.181
-605.157	142.335	-0.228	-0.303
-604.142	-119.298	-0.234	-0.041
-603.128	800.000	0.040	0.171
-602.113	-48.055	0.188	-0.091
-601.098	282.761	0.125	-0.224
-600.084	-120.034	0.320	0.055
-599.069	-97.826	-0.133	-0.035
-598.055	-112.668	-0.064	-0.013
-597.040	-200.000	-0.035	-0.198
-596.025	349.946	0.081	0.160
-595.011	-17.406	0.198	0.125
-593.996	618.238	0.087	0.218
-592.982	495.726	-0.095	-0.220
-591.967	115.767	0.052	-0.064
-590.952	800.000	0.080	0.290
-589.938	-139.020	-0.111	-0.012
-588.923	9.715	0.181	0.138
-587.909	-200.000	0.007	-0.313
-586.894	653.583	0.089	-0.230
-585.879	89.343	-0.082	0.091
-584.865	118.847	-0.136	0.168
-583.850	79.069	0.172	0.185
-582.836	469.052	-0.009	-0.021
-581.821	-85.857	-0.273	-0.085
-580.806	-162.798	0.278	0.014
-579.792	-59.912	0.227	0.097
-578.777	800.000	0.109	0.332
-577.763	634.259	-0.102	0.258
-576.748	-124.580	-0.424	0.066
-575.733	-25.654	0.337	0.199
-574.719	-45.724	0.276	-0.137
-573.704	-59.242	0.265	-0.114
-572.690	-28.157	0.194	0.112
-571.675	800.000	-0.070	-0.214
-570.661	-64.202	-0.425	-0.174
-569.646	-106.422	-0.251	0.056
-568.631	13.631	0.115	0.090
-567.617	-83.259	0.080	-0.026
-566.602	-51.102	-0.203	0.095
-565.588	-185.828	-0.011	-0.000
-564.573	8.107	0.196	-0.147
-563.558	-48.543	0.285	-0.137
-562.544	-200.000	-0.032	-0.167
-561.529	-90.040	-0.234	-0.068
-560.515	-200.000	-0.037	-0.266
-559.500	-65.581	-0.253	0.102
-558.485	-81.777	-0.424	-0.139
-557.471	-127.873	-0.229	-0.033
-556.456	-200.000	-0.019	-0.159
-555.442	-89.644	0.313	-0.092
-554.427	-200.000	-0.008	0.059
-553.412	47.817	0.071	0.066
-552.398	49.346	-0.336	0.316
-551.383	106.811	0.185	-0.220
-550.369	-200.000	0.004	0.146
-549.354	140.578	-0.076	0.101
-548.339	103.729	-0.203	0.238
-547.325	-42.954	0.121	0.061
-546.310	38.345	0.133	0.118
-545.296	-172.724	0.194	0.006
-544.281	233.746	0.152	0.250
-543.266	21.860	-0.092	-0.075
-542.252	-180.225	-0.139	0.003
-541.237	627.621	-0.084	0.213
-540.223	464.021	-0.071	-0.158
-539.208	-200.000	0.044	-0.281
-538.193	-200.000	0.018	-0.171
-537.179	-200.000	0.032	-0.346
-536.164	-62.840	0.476	-0.197
-535.150	800.000	0.055	0.181
-534.135	-96.639	0.228	0.060
-533.121	-119.441	-0.186	0.032
-532.106	800.000	-0.070	-0.256
-531.091	-25.379	0.257	0.152
-530.077	800.000	0.090	-0.267
-529.062	-95.870	-0.123	0.033
-528.048	232.105	0.106	-0.174
-527.033	-128.790	0.215	0.030
-526.018	-200.000	-0.001	0.069
-525.004	366.649	-0.105	0.212
-523.989	137.150	0.056	-0.074
-522.975	40.821	0.221	0.199
-521.960	-178.622	0.185	0.004
-520.945	205.857	-0.037	-0.058
-519.931	-170.738	-0.076	0.003
-518.916	-79.687	0.193	0.065
-517.902	-53.494	-0.187	0.085
-516.887	-200.000	-0.000	0.496
-515.872	800.000	-0.028	0.084
-514.858	-47.816	-0.267	-0.129
-513.843	35.614	0.442	0.388
-512.829	-200.000	0.002	0.117
-511.814	18.803	-0.319	-0.255
-510.799	-200.000	-0.048	-0.235
-509.785	-141.351	0.320	0.032
-508.770	800.000	-0.085	-0.336
-507.756	190.910	-0.252	-0.379
-506.741	-50.824	-0.182	-0.086
-505.726	29.355	0.124	0.105
-504.712	174.048	0.225	-0.324
-503.697	-160.005	0.252	-0.014
-502.683	-200.000	0.035	0.358
-501.668	-18.572	0.245	-0.153
-500.653	-131.740	-0.279	-0.037
-499.639	-200.000	0.014	-0.133
-498.624	-200.000	-0.032	-0.237
-497.610	-113.942	0.196	0.038
-496.595	-56.459	-0.257	-0.114
-495.581	50.748	0.072	0.068
-494.566	108.719	0.257	0.307
-493.551	-24.165	0.339	-0.202
-492.537	38.474	-0.080	-0.071
-491.522	-200.000	-0.035	0.204
-490.508	86.293	-0.096	0.105
-489.493	-200.000	0.032	-0.179
-488.478	121.243	-0.090	0.111
-487.464	-200.000	0.058	0.461
-486.449	-93.682	0.128	0.035
-485.435	359.420	0.094	-0.188
-484.420	-38.022	0.093	0.049
-483.405	154.471	0.221	0.302
-482.391	728.736	-0.094	0.250
-481.376	-103.508	0.257	0.060
-480.362	64.587	-0.213	-0.214
-479.347	800.000	0.076	-0.248
-478.332	506.427	0.093	0.215
-477.318	173.573	-0.163	0.235
-476.303	507.101	0.092	-0.213
-475.289	1.886	-0.301	0.217
-474.274	-13.185	-0.311	0.202
-473.259	-110.039	-0.361	0.075
-472.245	-127.902	-0.059	0.008
-471.230	-150.957	0.348	-0.026
-470.216	137.017	0.134	-0.174
-469.201	15.920	-0.073	-0.057
-468.186	185.489	-0.218	-0.323
-467.172	-200.000	0.039	0.173
-466.157	249.576	0.095	-0.161
-465.143	-102.929	0.246	-0.058
-464.128	-92.526	0.076	0.021
-463.113	-51.584	-0.199	-0.093
-462.099	800.000	0.061	-0.175
-461.084	70.722	0.052	-0.054
-460.070	-34.685	-0.119	-0.065
-459.055	-50.317	0.099	-0.047
-458.040	-123.023	-0.178	0.029
-457.026	74.421	0.219	-0.230
-456.011	103.073	0.168	-0.196
-454.997	106.356	0.141	0.166
-453.982	-60.503	0.227	0.096
-452.968	-0.667	0.009	0.007
-451.953	-200.000	-0.037	0.228
-450.938	144.634	-0.090	0.119
-449.924	412.099	-0.054	-0.115
-448.909	-78.264	0.089	-0.031
-447.895	150.085	-0.233	-0.315
-446.880	252.150	0.081	-0.137
-445.865	800.000	-0.074	0.240
-444.851	800.000	-0.025	-0.092
-443.836	-200.000	-0.029	0.380
-442.822	-75.317	-0.338	-0.120
-441.807	790.486	-0.236	-0.646
-440.792	-4.280	0.027	0.019
-439.778	-84.714	0.088	-0.027
-438.763	-42.593	-0.317	-0.161
-437.749	800.000	-0.008	-0.031
-436.734	-43.682	0.131	-0.066
-435.719	140.877	0.055	-0.073
-434.705	37.101	-0.034	0.030
-433.690	-120.610	-0.256	-0.043
-432.676	800.000	-0.061	-0.254
-431.661	383.596	-0.062	0.126
-430.646	37.546	0.126	-0.111
-429.632	-138.707	-0.207	0.023
-428.617	-200.000	0.005	0.034
-427.603	-74.382	-0.251	0.090
-426.588	-17.570	-0.320	-0.200
-425.573	-7.011	0.303	0.205
-424.559	643.707	0.101	-0.258
-423.544	-200.000	0.022	-0.098
-422.530	-200.000	0.011	0.345
-421.515	-64.920	-0.111	-0.045
-420.500	-63.633	0.313	0.128
-419.486	-148.725	0.130	0.011
-418.471	370.364	-0.157	0.317
-417.457	13.630	-0.142	0.110
-416.442	290.258	-0.160	0.289
-415.428	240.296	0.062	0.103
-414.413	-81.266	0.344	0.113
-413.398	-36.868	-0.131	-0.070
-412.384	452.701	0.051	-0.112
-411.369	-77.299	-0.166	-0.057
-410.355	572.646	-0.183	0.444
-409.340	-200.000	-0.015	-0.111
-408.325	47.019	0.178	0.165
-407.311	-102.787	0.151	0.036
-406.296	38.892	0.262	0.233
-405.282	68.790	0.202	-0.206
-404.267	-2.630	0.119	0.083
-403.252	-200.000	-0.044	0.241
-402.238	-162.581	0.281	0.014
-401.223	-24.698	-0.296	-0.175
-400.209	267.940	0.106	-0.184
-399.194	800.000	0.071	0.265
-398.179	-115.598	0.154	-0.029
-397.165	30.303	0.047	-0.040
-396.150	53.093	-0.113	-0.107
-395.136	800.000	-0.030	0.111
-394.121	311.419	-0.088	-0.164
-393.106	70.331	0.090	0.093
-392.092	-125.682	-0.230	-0.035
-391.077	67.875	-0.200	-0.203
-390.063	-200.000	-0.007	0.406
-389.048	800.000	-0.059	0.167
-388.033	800.000	-0.077	0.212
-387.019	-171.271	-0.133	0.004
-386.004	168.721	0.256	0.363
-384.990	-200.000	0.003	0.075
-383.975	-82.865	0.121	0.039
-382.960	-76.811	-0.339	0.118
-381.946	-200.000	-0.073	-0.328
-380.931	10.072	-0.132	-0.100
-379.917	-50.902	-0.087	0.040
-378.902	800.000	-0.124	0.356
-377.888	9.270	-0.083	0.062
-376.873	254.654	0.025	0.043
-375.858	-38.812	-0.509	0.266
-374.844	-106.267	0.167	0.037
-373.829	800.000	0.030	0.085
-372.815	-77.273	0.113	-0.039
-371.800	-37.754	-0.225	0.119
-370.785	800.000	-0.074	-0.318
-369.771	347.377	0.085	-0.166
-368.756	-89.007	0.254	0.075
-367.742	82.364	0.186	0.201
-366.727	36.381	-0.199	-0.175
-365.712	800.000	0.046	-0.185
-364.698	62.487	-0.239	-0.237
-363.683	126.312	0.079	0.099
-362.669	28.744	-0.259	0.218
-361.654	-116.573	-0.275	-0.050
-360.639	-73.659	0.250	-0.090
-359.625	800.000	-0.093	0.277
-358.610	100.144	-0.101	-0.117
-357.596	433.441	0.098	0.211
-356.581	10.273	0.017	-0.012
-355.566	-200.000	-0.003	-0.136
-354.552	-200.000	-0.021	-0.170
-353.537	148.178	-0.108	-0.144
-352.523	800.000	-0.048	0.195
-351.508	-76.705	0.374	0.130
-350.493	800.000	-0.029	0.085
-349.479	31.714	0.100	-0.085
-348.464	433.237	-0.071	0.153
-347.450	-58.546	0.100	0.043
-346.435	-52.024	-0.245	-0.113
-345.420	61.407	-0.036	0.036
-344.406	23.014	0.186	0.152
-343.391	-36.523	-0.139	-0.074
-342.377	800.000	-0.079	0.275
-341.362	-16.697	-0.230	-0.144
-340.348	-44.131	0.056	0.028
-339.333	141.266	-0.224	0.293
-338.318	-200.000	-0.022	0.203
-337.304	-83.055	-0.329	-0.105
-336.289	-111.506	0.165	-0.033
-335.275	-200.000	-0.027	-0.536
-334.260	-2.399	-0.078	0.054
-333.245	-200.000	0.008	-0.305
-332.231	-57.106	0.262	0.114
-331.216	-32.999	0.049	0.027
-330.202	-169.329	0.155	-0.006
-329.187	-200.000	0.009	-0.090
-328.172	307.299	0.142	-0.263
-327.158	-29.856	-0.224	0.126
-326.143	-140.981	0.247	0.025
-325.129	-76.873	0.161	0.056
-324.114	-43.056	0.308	0.155
-323.099	-94.618	0.167	0.045
-322.085	-40.322	0.045	0.023
-321.070	-67.031	-0.234	0.092
-320.056	252.452	0.178	-0.300
-319.041	60.484	-0.269	0.264
-318.026	-117.321	-0.263	0.047
-317.012	-0.644	-0.252	-0.177
-315.997	-200.000	0.023	-0.283
-314.983	-200.000	0.016	-0.192
-313.968	-119.301	-0.141	0.024
-312.953	88.732	0.299	0.329
-311.939	800.000	-0.040	-0.158
-310.924	178.863	0.273	-0.396
-309.910	2.099	-0.215	-0.154
-308.895	800.000	-0.165	0.469
-307.880	141.638	0.224	0.293
-306.866	144.951	-0.074	-0.098
-305.851	-140.795	-0.055	-0.006
-304.837	-200.000	0.002	0.024
-303.822	182.357	0.187	0.273
-302.807	13.408	0.020	-0.016
-301.793	-79.157	0.402	-0.135
-300.778	800.000	0.012	-0.042
-299.764	229.386	0.112	0.180
-298.749	-21.014	0.218	0.132
-297.735	-43.389	-0.124	0.062
-296.720	-74.957	-0.193	-0.069
-295.705	22.449	0.132	-0.107
-294.691	-16.025	-0.185	0.116
-293.676	-61.557	0.321	-0.134
-292.662	800.000	0.015	0.060
-291.647	800.000	0.061	0.233
-290.632	288.921	-0.201	-0.360
-289.618	-59.059	0.165	0.071
-288.603	800.000	-0.153	0.433
-287.589	-102.992	-0.175	-0.041
-286.574	-94.900	0.292	0.078
-285.559	-184.804	0.235	0.004
-284.545	190.029	-0.089	-0.133
-283.530	-200.000	-0.016	-0.241
-282.516	97.268	0.265	-0.301
-281.501	-41.665	-0.354	-0.180
-280.486	-126.854	0.002	0.000
-279.472	-9.320	0.077	-0.051
-278.457	-61.391	-0.401	0.167
-277.443	227.428	-0.171	0.275
-276.428	-79.906	0.213	-0.071
-275.413	800.000	-0.113	-0.328
-274.399	178.251	0.219	-0.316
-273.384	-200.000	0.015	0.092
-272.370	61.007	0.264	-0.259
-271.355	-17.902	0.154	-0.096
-270.340	-59.349	-0.301	-0.128
-269.326	25.797	0.059	0.048
-268.311	140.905	0.063	0.083
-267.297	800.000	-0.057	0.188
-266.282	422.392	0.099	0.210
-265.267	800.000	0.078	0.302
-264.253	234.952	-0.103	0.168
-263.238	21.753	0.084	-0.068
-262.224	-200.000	-0.023	0.239
-261.209	615.537	-0.097	0.241
-260.195	164.999	0.119	-0.166
-259.180	-32.993	0.335	0.184
-258.165	-25.257	0.154	0.090
-257.151	-62.591	-0.192	0.079
-256.136	67.502	0.145	0.147
-255.122	-200.000	0.032	0.143
-254.107	381.072	-0.020	0.040
-253.092	690.545	0.070	-0.180
-252.078	341.959	0.058	0.111
-251.063	-200.000	0.033	0.189
-250.049	-14.277	0.274	0.175
-249.034	-200.000	-0.018	-0.243
-248.019	-76.493	0.162	-0.056
-247.005	-200.000	0.023	-0.255
-245.990	-200.000	0.019	-0.308
-244.976	410.547	0.030	-0.063
-243.961	-78.524	-0.119	0.040
-242.946	349.433	0.076	0.149
-241.932	-200.000	-0.032	-0.156
-240.917	-53.978	0.240	0.108
-239.903	-36.894	0.178	0.094
-238.888	800.000	0.087	0.287
-237.873	-200.000	0.022	-0.163
-236.859	-156.077	-0.117	-0.007
-235.844	405.641	-0.147	-0.307
-234.830	-39.509	-0.341	0.176
-233.815	22.299	0.174	0.140
-232.800	-126.430	0.036	-0.005
-231.786	457.460	-0.174	0.383
-230.771	-123.340	-0.155	0.024
-229.757	0.218	0.085	0.060
-228.742	-29.511	0.065	-0.037
-227.727	399.599	-0.054	-0.112
-226.713	74.785	0.175	-0.182
-225.698	-88.840	-0.315	-0.092
-224.684	461.401	0.075	0.165
-223.669	379.422	0.041	0.082
-222.655	39.129	0.092	-0.081
-221.640	-102.387	-0.252	-0.060
-220.625	353.077	-0.092	-0.180
-219.611	111.266	0.093	-0.111
-218.596	12.411	-0.068	0.052
-217.582	130.227	0.218	0.275
-216.567	-78.861	-0.641	-0.216
-215.552	52.694	0.131	-0.123
-214.538	243.754	-0.037	0.062
-213.523	-100.155	-0.286	0.070
-212.509	-200.000	-0.033	0.180
-211.494	-156.114	-0.377	-0.024
-210.479	800.000	0.101	0.306
-209.465	-200.000	-0.036	-0.199
-208.450	800.000	0.018	-0.064
-207.436	-110.158	-0.234	-0.048
-206.421	-200.000	-0.013	-0.178
-205.406	-55.023	-0.021	0.009
-204.392	652.964	-0.062	-0.158
-203.377	-78.923	0.147	-0.049
-202.363	240.334	0.195	0.321
-201.348	44.239	-0.024	-0.022
-200.333	800.000	-0.089	0.359
-199.319	-60.597	-0.374	0.157
-198.304	-12.941	-0.094	0.060
-197.290	-15.647	0.230	0.145
-196.275	297.950	0.150	0.272
-195.260	800.000	-0.037	0.106
-194.246	-200.000	-0.004	-0.016
-193.231	-132.075	0.141	0.018
-192.217	-169.083	-0.162	-0.006
-191.202	-200.000	0.030	-0.235
-190.187	297.627	-0.169	0.305
-189.173	-200.000	-0.008	0.099
-188.158	446.396	0.032	0.069
-187.144	-117.434	-0.265	0.047
-186.129	113.998	-0.028	0.033
-185.114	-169.313	0.255	-0.009
-184.100	-52.809	0.221	-0.100
-183.085	-156.241	-0.421	0.026
-182.071	176.364	0.101	-0.145
-181.056	221.970	0.114	0.181
-180.042	-59.029	-0.112	-0.048
-179.027	800.000	0.062	-0.203
-178.012	559.756	0.052	-0.124
-176.998	-200.000	0.068	-0.409
-175.983	-200.000	0.019	-0.168
-174.969	127.634	0.075	-0.095
-173.954	-114.635	0.277	-0.052
-172.939	-118.463	-0.493	-0.086
-171.925	-144.017	-0.245	0.023
-170.910	-66.710	-0.267	0.104
-169.896	99.318	-0.268	-0.306
-168.881	695.388	-0.067	0.174
-167.866	-70.480	-0.204	-0.076
-166.852	277.194	-0.143	-0.250
-165.837	15.501	0.215	-0.166
-164.823	0.629	0.113	0.080
-163.808	-200.000	0.291	-0.001
-162.793	800.000	-0.050	0.194
-161.779	-200.000	0.051	-0.285
-160.764	-65.637	0.220	-0.087
-159.750	316.743	0.086	-0.161
-158.735	-148.768	-0.124	0.010
-157.720	800.000	0.012	-0.048
-156.706	8.094	-0.098	0.073
-155.691	76.800	0.081	-0.085
-154.677	695.540	-0.070	-0.182
-153.662	-200.000	0.031	-0.216
-152.647	71.407	-0.236	-0.241
-151.633	-80.090	0.191	-0.063
-150.618	39.832	-0.039	-0.035
-149.604	-125.904	-0.187	-0.028
-148.589	-34.254	0.148	0.080
-147.574	303.995	0.081	-0.148
-146.560	146.352	-0.125	0.165
-145.545	42.521	0.036	-0.032
-144.531	15.560	0.150	-0.116
-143.516	198.706	0.054	-0.081
-142.502	-75.090	-0.150	0.053
-141.487	-200.000	0.014	0.077
-140.472	-200.000	-0.017	-0.078
-139.458	-96.496	-0.227	0.059
-138.443	750.731	-0.158	0.421
-137.429	180.582	0.097	-0.140
-136.414	84.827	-0.181	0.196
-135.399	-200.000	-0.006	0.079
-134.385	800.000	0.068	-0.288
-133.370	-200.000	-0.056	-0.346
-132.356	-200.000	0.032	0.202
-131.341	28.587	-0.035	0.029
-130.326	-161.713	0.258	-0.013
-129.312	12.986	0.171	0.130
-128.297	54.493	-0.082	-0.077
-127.283	-35.329	0.076	-0.041
-126.268	277.164	-0.139	-0.243
-125.253	-91.377	0.250	0.070
-124.239	800.000	0.085	0.358
-123.224	86.994	-0.124	0.134
-122.210	-200.000	0.018	0.162
-121.195	10.913	0.117	-0.088
-120.180	2.063	-0.095	-0.067
-119.166	-200.000	0.010	0.093
-118.151	-4.599	-0.163	0.110
-117.137	800.000	-0.116	0.322
-116.122	259.952	0.134	0.227
-115.107	259.041	-0.109	-0.184
-114.093	-35.175	0.104	-0.055
-113.078	-116.513	0.170	-0.031
-112.064	-44.512	0.126	0.062
-111.049	143.298	0.047	0.062
-110.034	800.000	-0.075	-0.221
-109.020	-119.511	0.203	-0.035
-108.005	60.607	0.014	0.014
-106.991	-20.135	-0.115	0.070
-105.976	60.161	0.104	0.101
-104.962	254.703	0.047	0.079
-103.947	104.181	-0.159	0.184
-102.932	373.420	-0.073	-0.147
-101.918	-44.240	0.145	0.072
-100.903	-101.680	0.067	-0.016
-99.889	603.879	0.017	0.042
-98.874	44.266	0.200	-0.181
-97.859	-82.961	0.179	0.057
-96.845	-11.145	0.138	0.089
-95.830	-110.188	0.084	0.017
-94.816	6.703	0.367	0.268
-93.801	206.741	-0.152	0.233
-92.786	196.584	0.098	-0.146
-91.772	-48.507	-0.234	0.111
-90.757	-11.143	-0.290	-0.188
-89.743	-165.655	-0.102	-0.004
-88.728	-146.589	-0.082	0.007
-87.713	800.000	0.109	0.355
-86.699	-185.920	-0.235	-0.003
-85.684	-81.380	-0.267	0.087
-84.670	24.114	0.189	-0.154
-83.655	296.420	0.046	-0.083
-82.640	231.962	-0.016	0.026
-81.626	-62.527	0.088	-0.036
-80.611	736.051	-0.021	0.055
-79.597	16.902	-0.199	-0.155
-78.582	234.241	-0.112	-0.181
-77.567	-200.000	0.032	-0.140
-76.553	38.101	-0.139	0.121
-75.538	122.577	-0.230	0.282
-74.524	-135.289	0.110	-0.013
-73.509	367.501	0.122	-0.241
-72.494	-40.123	0.113	0.058
-71.480	-97.567	-0.226	-0.058
-70.465	-74.737	-0.037	-0.013
-69.451	-44.800	0.089	-0.044
-68.436	-62.275	0.083	0.034
-67.422	505.406	-0.017	-0.038
-66.407	-200.000	0.022	-0.159
-65.392	99.353	0.161	0.183
-64.378	56.224	0.278	-0.265
-63.363	-97.447	-0.279	0.071
-62.349	248.501	-0.077	0.128
-61.334	97.155	-0.952	-1.072
-60.319	-20.030	0.775	0.469
-59.305	800.000	-0.292	-0.988
-58.290	272.042	0.734	1.270
-57.276	275.697	0.925	1.610
-56.261	-200.000	111.439	624.192
-55.246	461.278	1503.444	3288.938
-54.232	147.186	2669.356	3524.461
-53.217	103.958	2157.455	2487.938
-52.203	39.144	1606.326	1409.647
-51.188	31.132	1352.184	1137.960
-50.173	28.100	1314.404	1088.110
-49.159	53.761	1369.102	1289.785
-48.144	53.316	1383.753	1300.839
-47.130	31.311	1339.563	1128.240
-46.115	27.928	1322.159	1093.327
-45.100	27.639	1317.645	1087.827
-44.086	27.629	1315.032	1085.571
-43.071	27.534	1312.499	1082.869
-42.057	27.579	1310.715	1081.622
-41.042	27.471	1308.914	1079.451
-40.027	27.658	1307.507	1079.358
-39.013	27.623	1305.472	1077.425
-37.998	27.696	1303.320	1076.041
-36.984	27.647	1302.169	1074.758
-35.969	27.811	1299.780	1073.708
-34.954	27.775	1298.346	1072.267
-33.940	27.748	1297.443	1071.323
-32.925	27.883	1295.494	1070.463
-31.911	27.804	1294.411	1069.059
-30.896	27.961	1292.573	1068.418
-29.881	27.920	1291.926	1067.605
-28.867	27.861	1290.463	1066.005
-27.852	27.790	1288.710	1064.102
-26.838	27.811	1287.635	1063.295
-25.823	27.819	1286.487	1062.351
-24.809	27.844	1285.102	1061.313
-23.794	27.807	1283.701	1059.897
-22.779	27.855	1282.014	1058.740
-21.765	27.838	1281.190	1057.922
-20.750	27.946	1279.077	1056.754
-19.736	27.808	1278.116	1055.125
-18.721	27.691	1277.217	1053.661
-17.706	27.766	1275.816	1052.898
-16.692	27.692	1274.768	1051.566
-15.677	27.765	1273.587	1050.971
-14.663	27.855	1272.126	1050.241
-13.648	27.765	1271.626	1049.271
-12.633	27.734	1270.599	1048.205
-11.619	27.685	1269.777	1047.202
-10.604	27.758	1268.597	1046.606
-9.590	27.635	1267.822	1045.218
-8.575	27.737	1266.695	1044.830
-7.560	27.600	1266.310	1043.691
-6.546	27.703	1265.715	1043.745
-5.531	27.628	1264.587	1042.346
-4.517	27.771	1263.172	1041.955
-3.502	27.685	1262.864	1041.168
-2.487	27.710	1261.877	1040.458
-1.473	27.814	1256.955	1036.947
-0.458	26.482	1242.361	1017.381
0.556	21.589	1225.633	981.185
1.571	17.886	1232.617	965.777
2.586	17.008	1246.878	971.839
3.600	16.822	1235.422	961.764
4.615	12.393	1162.216	880.997
5.629	4.231	1087.327	783.074
6.644	0.463	1067.781	750.217
7.659	0.026	1065.899	746.657
8.673	0.065	1064.554	745.844
9.688	-0.023	1063.214	744.402
10.702	0.267	1061.577	744.624
11.717	5.153	1067.339	772.839
12.731	13.032	1078.741	820.321
13.746	16.959	1082.637	842.761
14.761	16.969	1081.967	842.212
15.775	16.034	1079.931	835.920
16.790	15.015	1077.620	829.011
17.804	14.304	1076.433	824.502
18.819	13.983	1075.060	821.791
19.834	13.735	1074.130	819.783
20.848	13.419	1073.403	817.595
21.863	13.291	1072.350	816.090
22.877	13.047	1072.166	814.673
23.892	13.126	1070.811	813.961
24.907	13.194	1070.382	813.897
25.921	13.161	1069.619	813.084
26.936	13.106	1068.921	812.209
27.950	13.187	1067.708	811.615
28.965	13.187	1066.429	810.569
29.980	13.259	1065.052	809.806
30.994	13.361	1064.138	809.536
32.009	13.336	1063.111	808.559
33.023	13.369	1062.110	807.889
34.038	13.347	1061.348	807.129
35.053	13.257	1060.113	805.681
36.067	13.307	1059.470	805.367
37.082	13.266	1058.407	804.284
38.096	13.318	1057.642	803.887
39.111	13.279	1056.958	803.108
40.126	13.195	1055.774	801.727
41.140	13.091	1054.547	800.221
42.155	13.086	1053.505	799.335
43.169	12.975	1052.517	797.978
44.184	13.015	1051.172	797.080
45.199	13.010	1050.261	796.297
46.213	13.086	1049.212	795.795
47.228	13.169	1048.141	795.315
48.242	13.149	1047.277	794.492
49.257	13.185	1045.782	793.461
50.271	13.130	1045.559	792.954
51.286	13.197	1044.274	792.235
52.301	13.185	1043.189	791.282
53.315	13.233	1041.995	790.535
54.330	13.184	1041.157	789.595
55.344	13.124	1040.647	788.851
56.359	13.144	1039.473	787.990
57.374	13.126	1038.805	787.329
58.388	13.040	1037.825	786.104
59.403	13.095	1036.697	785.440
60.417	13.110	1035.999	784.914
61.432	13.117	1035.333	784.376
62.447	12.983	1034.670	783.168
63.461	13.064	1033.606	782.677
64.476	13.012	1032.692	781.668
65.490	13.000	1032.021	781.034
66.505	12.912	1031.336	780.032
67.520	13.081	1030.715	780.291
68.534	13.066	1030.078	779.670
69.549	13.149	1029.025	779.195
70.563	13.105	1028.047	778.179
71.578	13.006	1027.508	777.232
72.593	12.918	1026.652	776.104
73.607	12.915	1026.317	775.769
74.622	12.983	1025.564	775.449
75.636	12.848	1024.796	774.168
76.651	12.972	1023.730	773.876
77.666	12.997	1023.612	773.834
78.680	12.964	1022.353	772.657
79.695	12.935	1022.133	772.288
80.709	13.051	1021.557	772.328
81.724	13.093	1020.636	771.761
82.739	13.024	1019.945	770.849
83.753	13.267	1019.282	771.410
84.768	13.206	1018.061	770.136
85.782	13.301	1016.911	769.641
86.797	13.370	1015.856	769.091
87.812	13.056	1015.880	767.583
88.826	13.203	1014.693	767.301
89.841	13.206	1013.861	766.617
90.855	13.332	1012.669	766.231
91.870	13.241	1012.045	765.271
92.884	13.262	1011.109	764.595
93.899	13.308	1010.180	764.035
94.914	13.445	1009.247	763.893
95.928	13.307	1008.625	762.718
96.943	13.305	1007.656	761.912
97.957	13.269	1007.017	761.192
98.972	13.368	1005.346	760.321
99.987	13.307	1004.925	759.653
101.001	13.287	1004.164	758.919
102.016	13.314	1003.353	758.361
103.030	13.377	1002.122	757.653
104.045	13.417	1001.735	757.479
105.060	13.300	1000.607	756.022
106.074	13.240	999.948	755.183
107.089	13.150	998.968	753.967
108.103	12.994	998.236	752.635
109.118	13.119	997.164	752.330
110.133	13.021	996.520	751.332
111.147	13.057	995.383	750.573
112.162	13.146	994.620	750.333
113.176	13.135	994.181	749.887
114.191	13.275	993.051	749.601
115.206	13.276	991.678	748.503
116.220	13.202	991.333	747.843
117.235	13.220	990.297	747.076
118.249	13.171	989.121	745.902
119.264	13.171	988.910	745.678
120.279	13.174	988.008	744.942
121.293	13.095	987.229	743.934
122.308	13.272	985.729	743.532
123.322	13.236	984.878	742.666
124.337	13.233	984.110	742.008
125.352	13.184	982.928	740.829
126.366	13.065	981.931	739.482
127.381	13.129	981.112	739.086
128.395	13.176	979.746	738.199
129.410	13.186	979.027	737.638
130.424	13.204	978.507	737.263
131.439	13.221	977.554	736.556
132.454	13.234	976.850	736.017
133.468	13.306	975.883	735.544
134.483	13.219	975.044	734.458
135.497	13.291	974.292	734.145
136.512	13.238	973.264	733.074
137.527	13.283	972.559	732.677
138.541	13.341	971.780	732.281
139.556	13.210	971.168	731.175
140.570	13.323	970.514	731.116
141.585	13.380	969.570	730.592
142.600	13.396	968.657	729.911
143.614	13.354	967.823	729.033
144.629	13.376	967.101	728.524
145.643	13.325	966.280	727.614
146.658	13.358	965.275	726.937
147.673	13.364	964.152	726.057
148.687	13.359	963.496	725.475
149.702	13.401	962.510	724.850
150.716	13.342	961.695	723.918
151.731	13.362	961.169	723.545
152.746	13.374	960.434	722.980
153.760	13.459	959.687	722.725
154.775	13.403	959.286	722.113
155.789	13.365	958.883	721.582
156.804	13.347	957.885	720.686
157.819	13.359	957.533	720.411
158.833	13.576	956.384	720.424
159.848	13.585	955.530	719.759
160.862	13.535	954.435	718.653
161.877	13.496	953.781	717.925
162.892	13.339	952.978	716.582
163.906	13.517	952.043	716.582
164.921	13.457	950.996	715.475
165.935	13.581	949.595	714.891
166.950	13.548	949.371	714.515
167.964	13.584	948.112	713.660
168.979	13.476	947.682	712.807
169.994	13.446	946.607	711.808
171.008	13.662	945.811	712.076
172.023	13.623	945.491	711.604
173.037	13.595	944.929	710.996
174.052	13.681	943.421	710.167
175.067	13.678	943.149	709.889
176.081	13.488	942.852	708.788
177.096	13.519	942.052	708.258
178.110	13.730	941.209	708.462
179.125	13.533	941.228	707.571
180.140	13.574	940.468	707.114
181.154	13.632	940.288	707.160
182.169	13.789	939.365	707.075
183.183	13.799	938.428	706.347
184.198	13.804	937.677	705.744
185.213	13.762	937.238	705.169
186.227	13.682	936.597	704.286
187.242	13.804	935.947	704.251
188.256	13.882	934.968	703.784
189.271	13.723	934.662	702.819
190.286	13.834	933.593	702.422
191.300	13.651	933.008	701.145
192.315	13.588	932.511	700.447
193.329	13.553	932.501	700.228
194.344	13.715	931.321	699.961
195.359	13.788	930.440	699.545
196.373	13.883	929.702	699.332
197.388	13.952	929.602	699.481
198.402	14.016	928.731	699.034
199.417	13.970	928.220	698.394
200.432	13.963	927.652	697.876
201.446	14.109	927.321	698.178
202.461	14.109	926.618	697.587
203.475	13.987	926.470	696.902
204.490	14.008	925.272	696.028
205.504	14.135	924.573	695.972
206.519	13.912	923.827	694.418
207.534	13.953	922.929	693.850
208.548	13.915	922.755	693.501
209.563	13.953	922.091	693.099
210.577	14.008	921.214	692.608
211.592	14.159	920.134	692.365
212.607	14.137	919.865	692.007
213.621	14.113	919.078	691.254
214.636	14.155	918.357	690.824
215.650	14.149	917.499	690.096
216.665	14.292	916.555	689.916
217.680	14.192	916.473	689.380
218.694	14.268	915.658	689.020
219.709	14.226	915.026	688.309
220.723	14.298	914.080	687.833
221.738	14.165	913.801	687.012
222.753	14.250	912.688	686.468
223.767	14.188	912.441	685.965
224.782	14.500	911.604	686.560
225.796	14.426	911.006	685.746
226.811	14.420	910.401	685.202
227.826	14.327	910.096	684.530
228.840	14.389	908.880	683.809
229.855	14.401	908.118	683.226
230.869	14.495	907.027	682.731
231.884	14.217	907.037	681.537
232.899	14.276	906.202	681.090
233.913	14.297	905.367	680.489
234.928	14.341	904.610	680.042
235.942	14.303	904.383	679.653
236.957	14.431	903.494	679.450
237.972	14.421	902.760	678.797
238.986	14.223	902.426	677.677
240.001	14.389	901.560	677.641
241.015	14.366	901.187	677.209
242.030	14.530	900.235	677.097
243.045	14.481	899.634	676.388
244.059	14.507	898.872	675.861
245.074	14.586	898.303	675.693
246.088	14.403	898.228	674.838
247.103	14.542	897.412	674.727
248.117	14.685	896.913	674.871
249.132	14.616	896.361	674.115
250.147	14.606	895.545	673.403
251.161	14.674	895.101	673.281
252.176	14.729	894.406	672.921
253.190	14.862	893.663	672.840
254.205	14.817	893.352	672.363
255.220	14.809	892.523	671.650
256.234	14.842	891.668	671.080
257.249	14.804	890.834	670.240
258.263	14.749	890.510	669.714
259.278	14.986	889.530	669.868
260.293	14.891	889.077	669.087
261.307	14.998	888.367	668.920
262.322	14.964	887.988	668.441
263.336	14.972	887.073	667.726
264.351	14.898	886.322	666.804
265.366	15.078	885.735	667.021
266.380	15.090	884.874	666.362
267.395	15.065	884.133	665.644
268.409	15.033	883.542	665.014
269.424	14.996	882.710	664.181
270.439	15.150	881.692	663.969
271.453	15.104	881.248	663.393
272.468	15.053	881.242	663.129
273.482	15.145	880.166	662.624
274.497	15.073	879.656	661.895
275.512	15.055	879.056	661.317
276.526	15.165	878.639	661.379
277.541	15.112	878.348	660.891
278.555	15.082	877.594	660.145
279.570	15.270	876.892	660.302
280.585	15.273	875.849	659.468
281.599	15.171	875.464	658.718
282.614	15.244	874.422	658.163
283.628	15.232	874.322	657.982
284.643	15.302	873.592	657.651
285.657	15.293	872.717	656.899
286.672	15.309	872.138	656.467
287.687	15.180	872.076	655.855
288.701	15.375	871.354	656.019
289.716	15.373	870.353	655.201
290.730	15.356	869.870	654.710
291.745	15.379	869.332	654.338
292.760	15.458	868.369	653.862
293.774	15.600	867.772	653.908
294.789	15.509	867.032	652.938
295.803	15.463	866.650	652.415
296.818	15.478	865.730	651.725
297.833	15.437	865.102	651.033
298.847	15.457	864.561	650.647
299.862	15.483	864.266	650.468
300.876	15.525	863.557	650.040
301.891	15.527	863.079	649.629
302.906	15.607	862.693	649.588
303.920	15.530	862.683	649.226
304.935	15.761	861.545	649.205
305.949	15.880	860.495	648.815
306.964	15.655	860.289	647.734
307.979	15.762	859.431	647.445
308.993	15.730	859.134	647.039
310.008	15.738	858.906	646.841
311.022	15.846	857.729	646.312
312.037	15.679	857.308	645.297
313.052	15.705	856.663	644.853
314.066	15.699	856.090	644.344
315.081	15.789	855.302	644.039
316.095	15.684	854.967	643.327
317.110	15.635	854.572	642.783
318.125	15.669	854.181	642.565
319.139	15.704	853.610	642.212
320.154	15.792	853.009	642.039
321.168	15.907	852.268	641.863
322.183	15.729	851.880	640.835
323.197	15.817	851.312	640.684
324.212	15.912	850.426	640.324
325.227	15.862	849.889	639.672
326.241	15.871	849.388	639.273
327.256	15.772	849.269	638.752
328.270	15.840	848.683	638.513
329.285	15.859	848.384	638.304
330.300	15.780	847.377	637.191
331.314	15.906	847.035	637.352
332.329	15.908	846.293	636.746
333.343	15.907	846.192	636.611
334.358	15.897	845.607	636.076
335.373	15.844	845.536	635.766
336.387	15.796	845.587	635.566
337.402	16.040	844.546	635.648
338.416	16.079	844.081	635.388
339.431	16.170	843.800	635.464
340.446	16.196	843.298	635.129
341.460	16.223	843.322	635.190
342.475	16.243	843.032	634.991
343.489	16.230	842.418	634.425
344.504	16.227	841.614	633.750
345.519	16.226	841.237	633.405
346.533	16.297	840.579	633.123
347.548	16.198	840.275	632.465
348.562	15.990	840.252	631.612
349.577	16.156	839.226	631.408
350.592	16.246	838.201	630.917
351.606	16.149	837.755	630.164
352.621	16.203	837.286	629.957
353.635	16.275	836.388	629.494
354.650	16.109	836.222	628.693
355.665	16.365	835.268	628.875
356.679	16.310	834.481	628.020
357.694	16.470	833.866	628.096
358.708	16.347	833.574	627.365
359.723	16.374	833.097	627.052
360.738	16.350	832.188	626.220
361.752	16.473	831.928	626.426
362.767	16.487	830.792	625.569
363.781	16.458	830.685	625.323
364.796	16.448	830.431	625.041
365.810	16.572	829.887	625.034
366.825	16.492	829.781	624.603
367.840	16.609	828.669	624.145
368.854	16.399	828.459	623.154
369.869	16.542	827.978	623.266
370.883	16.633	827.053	622.850
371.898	16.573	827.408	622.840
372.913	16.648	826.943	622.711
373.927	16.684	826.576	622.512
374.942	16.607	826.086	621.803
375.956	16.720	825.408	621.654
376.971	16.814	824.837	621.515
377.986	16.967	824.066	621.437
379.000	16.891	824.054	621.095
380.015	16.862	823.558	620.563
381.029	16.884	822.916	620.104
382.044	16.832	822.393	619.465
383.059	16.889	821.550	618.983
384.073	16.868	821.159	618.556
385.088	17.006	820.417	618.446
386.102	16.884	819.880	617.541
387.117	16.901	819.224	617.054
388.132	16.880	819.039	616.785
389.146	16.802	818.622	616.131
390.161	16.976	817.737	616.046
391.175	17.055	817.259	615.916
392.190	16.983	817.087	615.472
393.205	17.045	816.657	615.318
394.219	16.919	816.371	614.590
395.234	16.951	815.895	614.295
396.248	16.930	815.485	613.853
397.263	16.928	815.211	613.585
398.278	16.941	814.571	613.098
399.292	17.016	813.726	612.678
400.307	16.879	813.744	612.143
401.321	16.939	813.101	611.822
402.336	17.003	812.688	611.687
403.350	16.908	812.377	611.057
404.365	17.060	811.789	611.109
405.380	17.095	811.369	610.864
406.394	17.155	810.812	610.606
407.409	17.248	810.437	610.604
408.423	17.212	810.274	610.296
409.438	17.211	809.570	609.710
410.453	17.279	809.035	609.496
411.467	17.333	808.764	609.432
412.482	17.286	808.308	608.866
413.496	17.324	807.947	608.677
414.511	17.385	807.701	608.656
415.526	17.499	806.662	608.227
416.540	17.335	806.673	607.596
417.555	17.326	806.068	607.052
418.569	17.308	806.200	607.036
419.584	17.409	805.443	606.771
420.599	17.558	804.621	606.627
421.613	110.729	1294.476	1476.763
422.628	95.468	1365.844	1476.853
