DTS Sentinel unit serial number:	SN413079Multiplexer serial number:	ORYXHardware model number:	OX4-SRSoftware version number:	ORYX F/W v4.00 Oryx Data Collector v3.7.2.0data status	okinstallation	princeton_trtdifferential loss correction	single-endedforward channel	channel 1reverse channel	N/Adate	2019/09/11time	23:28:11forward acquisition time	60.00reverse acquisition time	0.00gamma	496.2192k internal	0.2318k external	0.2318temperature offset calibration	1.0063default loss term (dB/km)	0.3790temperature slope calibration	1.0000multiplexer offset coefficient	1.0000multiplexer slope coefficient	1.0000fibre end	0.00T internal ref (°C)	34.25T ext. ref 1 (°C)	1.86T ext. ref 2 (°C)	28.22length (m)	temperature (°C)	Stokes	anti-Stokes-747.200	66.551	-0.169	-0.174
-746.185	-187.629	-0.579	0.008
-745.171	-200.000	0.037	-0.198
-744.156	800.000	0.072	-0.234
-743.142	-6.259	-0.193	-0.133
-742.127	629.253	0.117	0.299
-741.112	452.035	0.045	0.102
-740.098	400.369	0.031	0.066
-739.083	11.354	0.177	-0.137
-738.069	-23.883	-0.057	0.035
-737.054	637.176	-0.022	-0.057
-736.039	19.473	-0.309	-0.251
-735.025	-102.758	0.111	0.027
-734.010	1.898	0.168	0.123
-732.996	-200.000	-0.021	-0.161
-731.981	422.154	-0.150	-0.325
-730.966	-59.318	0.308	-0.134
-729.952	-86.739	-0.166	0.051
-728.937	-129.781	0.258	-0.036
-727.923	146.426	-0.075	-0.101
-726.908	13.675	-0.237	-0.186
-725.894	-200.000	-0.017	0.264
-724.879	-200.000	-0.042	0.351
-723.864	498.298	0.115	-0.268
-722.850	133.590	0.086	0.113
-721.835	-200.000	0.018	-0.083
-720.821	-200.000	-0.106	-0.478
-719.806	9.490	0.340	0.261
-718.791	-72.850	0.119	0.044
-717.777	-79.712	-0.196	0.067
-716.762	-200.000	-0.005	0.065
-715.748	21.288	-0.278	0.228
-714.733	-200.000	0.033	-0.160
-713.718	756.016	0.054	0.146
-712.704	-200.000	-0.001	-0.237
-711.689	-90.647	-0.238	-0.070
-710.675	697.123	0.054	0.143
-709.660	800.000	-0.072	0.231
-708.645	160.641	-0.138	0.194
-707.631	-82.162	-0.276	-0.091
-706.616	-52.715	0.371	0.173
-705.602	-123.347	-0.226	-0.036
-704.587	-55.975	-0.052	0.024
-703.572	-34.628	0.245	0.135
-702.558	285.105	0.061	0.111
-701.543	-113.082	0.165	0.033
-700.529	-145.189	0.157	-0.014
-699.514	252.826	0.086	0.148
-698.499	-200.000	-0.003	-0.210
-697.485	101.348	-0.109	-0.129
-696.470	77.240	-0.099	-0.106
-695.456	800.000	0.040	0.177
-694.441	-200.000	-0.050	0.325
-693.426	-38.083	-0.113	-0.061
-692.412	-82.071	0.105	-0.035
-691.397	62.218	0.114	0.115
-690.383	44.145	0.153	-0.142
-689.368	-200.000	-0.023	-0.101
-688.354	-123.182	-0.115	-0.019
-687.339	-102.071	0.140	-0.034
-686.324	94.131	0.164	0.188
-685.310	-54.573	-0.014	0.007
-684.295	412.883	-0.135	0.289
-683.281	782.404	0.041	0.113
-682.266	389.703	0.088	-0.183
-681.251	146.617	-0.126	0.171
-680.237	-43.239	0.198	0.101
-679.222	-144.128	-0.316	-0.030
-678.208	55.404	-0.229	-0.224
-677.193	-200.000	0.030	-0.198
-676.178	302.120	-0.072	-0.134
-675.164	-200.000	-0.016	-0.227
-674.149	-200.000	-0.052	0.299
-673.135	60.142	-0.103	0.103
-672.120	-200.000	-0.035	0.398
-671.105	-84.847	0.139	0.044
-670.091	-82.531	-0.121	-0.040
-669.076	37.973	0.059	0.053
-668.062	-103.821	0.177	0.042
-667.047	-200.000	-0.016	0.236
-666.032	238.900	0.074	-0.125
-665.018	800.000	0.060	-0.185
-664.003	440.109	-0.102	-0.225
-662.989	-164.705	0.438	0.020
-661.974	-3.921	-0.101	-0.071
-660.959	-127.303	-0.043	-0.006
-659.945	23.438	-0.253	-0.210
-658.930	-200.000	-0.002	-0.402
-657.916	271.995	0.044	-0.078
-656.901	-23.279	0.250	0.151
-655.886	-104.106	-0.080	-0.019
-654.872	-200.000	0.062	-0.375
-653.857	-89.281	-0.159	0.047
-652.843	-182.991	-0.142	0.003
-651.828	-49.919	-0.243	-0.116
-650.814	-54.275	-0.234	-0.107
-649.799	-38.955	-0.049	0.026
-648.784	-89.573	0.404	-0.120
-647.770	7.570	-0.324	-0.244
-646.755	-200.000	-0.010	0.163
-645.741	-200.000	-0.010	0.390
-644.726	576.215	-0.068	-0.168
-643.711	255.845	-0.157	-0.272
-642.697	-200.000	-0.026	-0.232
-641.682	291.932	-0.051	0.094
-640.668	-84.531	-0.261	-0.083
-639.653	104.512	0.064	0.076
-638.638	36.440	-0.254	-0.226
-637.624	218.488	-0.195	0.314
-636.609	-200.000	0.011	-0.271
-635.595	-147.254	-0.176	0.015
-634.580	289.109	-0.070	-0.128
-633.565	-59.750	-0.118	-0.051
-632.551	-165.766	-0.208	-0.009
-631.536	-134.431	-0.086	0.011
-630.522	-68.115	0.117	0.046
-629.507	-30.878	-0.301	-0.171
-628.492	-200.000	-0.007	-0.183
-627.478	254.438	-0.054	0.093
-626.463	-81.653	0.264	-0.087
-625.449	248.372	-0.103	-0.175
-624.434	800.000	-0.049	0.212
-623.419	800.000	0.057	0.224
-622.405	-144.963	0.198	-0.018
-621.390	527.366	0.121	-0.287
-620.376	-106.764	-0.087	0.019
-619.361	150.769	-0.099	0.136
-618.346	800.000	0.079	-0.255
-617.332	16.975	-0.185	-0.148
-616.317	118.795	0.052	0.065
-615.303	800.000	0.019	-0.067
-614.288	-72.434	0.080	-0.030
-613.273	-70.865	-0.120	-0.046
-612.259	800.000	0.118	-0.382
-611.244	-77.794	0.280	-0.097
-610.230	-200.000	-0.092	0.420
-609.215	-200.000	0.024	0.118
-608.201	-200.000	-0.004	-0.040
-607.186	-104.812	0.048	0.011
-606.171	-58.412	0.227	0.099
-605.157	-147.178	0.269	-0.023
-604.142	-200.000	-0.015	0.087
-603.128	311.328	0.211	-0.397
-602.113	606.939	0.042	-0.106
-601.098	-200.000	0.088	-0.416
-600.084	-137.205	-0.258	-0.030
-599.069	-200.000	0.018	-0.122
-598.055	61.276	0.054	0.054
-597.040	590.653	0.086	-0.213
-596.025	-200.000	-0.011	0.149
-595.011	50.891	0.137	0.131
-593.996	-40.058	0.195	0.102
-592.982	800.000	-0.053	0.170
-591.967	4.122	0.213	0.157
-590.952	19.075	-0.088	0.071
-589.938	-168.794	-0.377	0.014
-588.923	-200.000	0.011	-0.130
-587.909	-200.000	-0.043	-0.272
-586.894	800.000	0.013	0.053
-585.879	-109.552	0.443	-0.094
-584.865	-97.943	0.446	0.116
-583.850	-125.353	0.022	0.003
-582.836	26.961	-0.200	0.169
-581.821	-185.356	-0.194	0.003
-580.806	800.000	-0.095	-0.289
-579.792	-113.644	-0.200	-0.039
-578.777	-126.491	0.050	-0.008
-577.763	182.310	-0.056	-0.084
-576.748	-200.000	0.044	-0.233
-575.733	85.995	-0.069	0.076
-574.719	77.728	0.077	0.083
-573.704	35.133	0.203	-0.178
-572.690	-47.112	0.095	-0.047
-571.675	275.676	-0.021	-0.038
-570.661	118.446	-0.112	-0.139
-569.646	34.132	-0.362	-0.317
-568.631	5.193	0.175	0.129
-567.617	-33.939	-0.100	0.055
-566.602	161.668	-0.172	-0.242
-565.588	17.726	-0.385	-0.308
-564.573	-200.000	0.016	-0.287
-563.558	-200.000	0.016	-0.219
-562.544	269.705	0.053	-0.094
-561.529	685.422	-0.063	-0.165
-560.515	-190.320	-0.289	0.003
-559.500	376.360	-0.070	0.143
-558.485	16.300	0.288	-0.228
-557.471	257.762	-0.109	-0.188
-556.456	-48.997	0.162	-0.078
-555.442	-75.089	0.246	-0.088
-554.427	-200.000	0.051	0.232
-553.412	-107.703	0.144	0.032
-552.398	-67.690	-0.362	0.142
-551.383	800.000	0.089	-0.340
-550.369	120.744	-0.155	0.193
-549.354	-152.397	-0.286	0.021
-548.339	-200.000	0.025	0.129
-547.325	-108.463	0.329	-0.071
-546.310	-93.134	-0.291	-0.081
-545.296	-200.000	-0.034	-0.402
-544.281	-144.503	0.164	0.015
-543.266	-154.452	0.162	0.011
-542.252	13.012	0.022	-0.017
-541.237	95.238	0.090	-0.103
-540.223	-200.000	-0.041	-0.487
-539.208	171.148	0.223	0.321
-538.193	78.066	-0.067	0.072
-537.179	800.000	-0.056	-0.189
-536.164	800.000	0.043	0.126
-535.150	305.890	-0.013	0.024
-534.135	222.197	-0.032	0.051
-533.121	-200.000	0.048	-0.282
-532.106	-200.000	-0.015	-0.136
-531.091	-9.757	-0.025	-0.017
-530.077	736.222	0.045	0.121
-529.062	26.735	-0.279	-0.234
-528.048	-31.416	0.018	-0.010
-527.033	83.272	0.220	-0.241
-526.018	800.000	0.084	0.243
-525.004	-66.235	0.248	-0.099
-523.989	-200.000	-0.024	-0.193
-522.975	-69.105	0.276	0.107
-521.960	240.715	-0.081	-0.135
-520.945	-200.000	0.026	0.375
-519.931	241.721	-0.130	-0.218
-518.916	145.750	-0.074	0.099
-517.902	108.736	-0.102	0.123
-516.887	-5.333	-0.236	-0.162
-515.872	-68.969	-0.306	0.118
-514.858	102.730	0.131	-0.154
-513.843	552.190	0.086	-0.207
-512.829	-86.428	0.031	-0.010
-511.814	72.194	0.087	-0.091
-510.799	-200.000	-0.022	-0.196
-509.785	-200.000	0.001	0.020
-508.770	-119.350	-0.064	-0.011
-507.756	-86.071	0.290	-0.090
-506.741	-200.000	0.014	-0.106
-505.726	236.126	-0.129	0.214
-504.712	-109.459	-0.005	-0.001
-503.697	-200.000	0.002	-0.136
-502.683	-126.194	-0.120	0.018
-501.668	-154.174	0.389	0.026
-500.653	-200.000	-0.014	0.292
-499.639	6.310	-0.244	0.181
-498.624	-200.000	-0.025	-0.214
-497.610	-20.383	-0.056	0.035
-496.595	653.204	0.139	0.356
-495.581	617.246	0.090	-0.227
-494.566	800.000	0.010	-0.038
-493.551	-91.742	-0.190	-0.054
-492.537	800.000	-0.012	-0.040
-491.522	29.036	0.269	0.229
-490.508	-65.881	-0.417	-0.167
-489.493	800.000	0.025	-0.102
-488.478	421.453	0.089	-0.191
-487.464	-69.956	-0.306	0.117
-486.449	218.382	-0.157	0.252
-485.435	-138.951	0.398	-0.043
-484.420	-45.878	0.077	-0.038
-483.405	108.709	-0.112	0.135
-482.391	800.000	-0.054	0.202
-481.376	800.000	-0.084	-0.344
-480.362	-84.509	0.265	0.084
-479.347	57.246	-0.165	0.161
-478.332	99.146	-0.150	-0.174
-477.318	-36.243	-0.030	0.016
-476.303	215.237	0.100	-0.158
-475.289	174.622	0.072	-0.104
-474.274	800.000	-0.031	-0.091
-473.259	-21.559	0.115	-0.070
-472.245	177.776	-0.050	0.072
-471.230	800.000	0.127	0.421
-470.216	-79.345	0.134	0.045
-469.201	-81.794	-0.128	-0.042
-468.186	-200.000	0.055	-0.339
-467.172	-46.633	0.109	0.053
-466.157	-89.695	-0.025	0.007
-465.143	-76.744	-0.231	0.081
-464.128	-62.420	0.163	0.068
-463.113	-200.000	0.057	-0.250
-462.099	-200.000	-0.026	-0.142
-461.084	-133.466	-0.520	0.065
-460.070	83.852	0.110	-0.120
-459.055	-200.000	-0.012	0.211
-458.040	3.507	0.090	-0.065
-457.026	-139.414	0.242	0.026
-456.011	433.292	-0.073	-0.158
-454.997	-200.000	-0.005	-0.321
-453.982	132.342	0.084	0.109
-452.968	-200.000	-0.038	-0.304
-451.953	-180.498	-0.195	0.004
-450.938	26.708	-0.077	0.065
-449.924	-66.777	0.142	-0.056
-448.909	-162.557	0.176	0.009
-447.895	232.050	-0.138	0.226
-446.880	-174.293	-0.156	0.005
-445.865	-200.000	-0.020	-0.133
-444.851	260.605	0.135	0.233
-443.836	-200.000	0.036	-0.177
-442.822	194.432	-0.076	-0.115
-441.807	503.160	0.034	-0.079
-440.792	37.406	0.145	-0.129
-439.778	-77.796	-0.125	0.043
-438.763	800.000	0.101	-0.442
-437.749	4.661	-0.152	-0.112
-436.734	-200.000	0.099	0.633
-435.719	84.106	-0.234	0.256
-434.705	-108.849	0.284	0.061
-433.690	-200.000	0.037	-0.259
-432.676	-89.107	-0.317	-0.094
-431.661	-57.288	-0.256	0.112
-430.646	55.647	-0.118	0.114
-429.632	-62.699	0.032	0.013
-428.617	458.824	-0.049	-0.109
-427.603	599.320	-0.150	0.371
-426.588	111.527	-0.170	-0.205
-425.573	-200.000	-0.019	0.247
-424.559	14.532	-0.237	-0.185
-423.544	28.224	-0.137	0.115
-422.530	-90.247	0.210	-0.061
-421.515	-200.000	-0.295	0.001
-420.500	549.736	-0.047	0.112
-419.486	66.543	0.200	-0.203
-418.471	294.761	-0.141	0.257
-417.457	206.734	0.152	-0.236
-416.442	-200.000	-0.002	0.019
-415.428	138.633	-0.146	0.192
-414.413	-55.915	0.039	-0.017
-413.398	-99.226	-0.353	0.089
-412.384	723.920	-0.079	-0.211
-411.369	-200.000	-0.022	0.131
-410.355	108.881	-0.126	0.151
-409.340	-200.000	-0.039	-0.191
-408.325	25.625	0.030	0.025
-407.311	-200.000	0.006	-0.149
-406.296	-200.000	0.002	0.127
-405.282	-200.000	0.016	0.403
-404.267	800.000	0.020	-0.074
-403.252	400.595	-0.038	-0.080
-402.238	-200.000	-0.024	-0.121
-401.223	47.075	0.109	0.101
-400.209	-59.076	-0.323	0.139
-399.194	-200.000	-0.027	-0.165
-398.179	584.123	-0.108	-0.264
-397.165	619.479	-0.063	0.158
-396.150	-110.258	-0.279	0.058
-395.136	128.058	-0.138	0.176
-394.121	32.468	0.273	0.236
-393.106	75.437	0.061	0.064
-392.092	-137.975	0.157	0.017
-391.077	-147.428	0.080	0.007
-390.063	493.494	-0.106	0.243
-389.048	38.733	0.272	0.243
-388.033	-98.662	-0.386	-0.098
-387.019	-37.840	0.160	0.085
-386.004	-33.237	0.111	-0.061
-384.990	282.996	-0.073	0.131
-383.975	43.083	0.337	0.307
-382.960	529.359	0.063	0.149
-381.946	800.000	-0.030	0.130
-380.931	217.407	0.111	-0.177
-379.917	19.850	-0.040	0.032
-378.902	-200.000	-0.048	-0.211
-377.888	100.538	0.117	0.136
-376.873	-61.347	-0.278	0.117
-375.858	-119.623	-0.130	0.022
-374.844	-165.757	0.094	0.004
-373.829	5.589	0.201	0.148
-372.815	800.000	0.033	-0.137
-371.800	-135.603	-0.018	0.002
-370.785	-21.311	-0.122	-0.074
-369.771	-137.368	0.042	-0.005
-368.756	-86.644	0.163	-0.050
-367.742	11.297	-0.289	-0.221
-366.727	-28.343	-0.140	-0.081
-365.712	-7.756	0.223	0.150
-364.698	254.398	0.099	-0.169
-363.683	800.000	0.047	0.194
-362.669	-60.373	0.309	0.131
-361.654	26.981	0.128	0.107
-360.639	125.976	-0.082	0.103
-359.625	710.527	0.178	-0.471
-358.610	443.900	0.250	-0.546
-357.596	68.923	-0.255	-0.262
-356.581	-126.058	-0.102	-0.015
-355.566	0.261	0.171	-0.121
-354.552	-200.000	-0.017	-0.165
-353.537	800.000	-0.015	0.058
-352.523	800.000	0.097	0.346
-351.508	-83.975	0.220	-0.070
-350.493	-200.000	-0.001	-0.198
-349.479	800.000	0.050	-0.205
-348.464	109.211	-0.006	-0.007
-347.450	800.000	-0.029	0.111
-346.435	2.796	0.268	0.193
-345.420	128.050	0.331	-0.419
-344.406	19.632	-0.417	0.334
-343.391	-166.628	0.271	-0.011
-342.377	4.016	-0.401	-0.292
-341.362	69.706	0.166	0.171
-340.348	-200.000	-0.023	-0.295
-339.333	-112.078	-0.168	-0.034
-338.318	350.240	-0.085	-0.167
-337.304	273.261	0.081	0.142
-336.289	-51.516	0.095	-0.044
-335.275	43.888	0.186	-0.170
-334.260	-74.037	0.147	-0.053
-333.245	5.747	0.203	0.150
-332.231	14.632	0.080	0.062
-331.216	75.014	0.127	0.133
-330.202	48.186	0.137	0.127
-329.187	-31.719	0.274	0.153
-328.172	800.000	0.102	-0.300
-327.158	-89.767	0.067	-0.020
-326.143	-85.062	0.260	0.081
-325.129	-25.385	-0.212	0.125
-324.114	-138.632	0.428	0.047
-323.099	-200.000	-0.022	-0.163
-322.085	91.835	-0.109	-0.122
-321.070	800.000	0.014	-0.055
-320.056	85.768	0.147	-0.161
-319.041	107.290	0.056	-0.066
-318.026	-56.294	0.033	0.015
-317.012	-33.715	-0.461	0.253
-315.997	-7.473	0.358	0.241
-314.983	-97.182	0.139	0.036
-313.968	-82.655	-0.126	0.041
-312.953	-200.000	0.072	0.404
-311.939	800.000	-0.098	0.349
-310.924	-44.751	0.271	0.135
-309.910	-155.572	0.167	0.011
-308.895	539.083	0.160	0.379
-307.880	23.718	-0.241	0.197
-306.866	-200.000	0.013	0.190
-305.851	-19.347	-0.325	0.200
-304.837	-200.000	0.008	-0.208
-303.822	184.005	0.081	0.119
-302.807	-46.547	-0.041	0.020
-301.793	15.052	-0.142	-0.111
-300.778	-169.482	-0.113	-0.004
-299.764	45.837	-0.131	-0.121
-298.749	247.300	0.321	0.539
-297.735	-84.949	-0.059	-0.018
-296.720	-29.404	0.129	-0.073
-295.705	-52.599	0.052	-0.024
-294.691	800.000	0.042	0.168
-293.676	-200.000	-0.049	0.222
-292.662	512.280	0.139	-0.322
-291.647	66.227	0.077	0.078
-290.632	217.814	0.128	-0.203
-289.618	170.837	0.137	0.196
-288.603	199.504	-0.050	0.076
-287.589	800.000	0.081	-0.288
-286.574	-123.257	0.129	0.021
-285.559	-83.598	0.175	-0.056
-284.545	-146.988	0.132	-0.011
-283.530	-73.091	-0.233	0.085
-282.516	554.025	-0.131	0.313
-281.501	124.005	-0.106	-0.132
-280.486	79.092	0.122	0.130
-279.472	800.000	-0.182	0.504
-278.457	-200.000	-0.045	0.268
-277.443	800.000	0.088	0.359
-276.428	627.422	0.121	-0.305
-275.413	283.387	0.112	-0.200
-274.399	-142.462	0.113	0.011
-273.384	-200.000	0.030	0.188
-272.370	800.000	0.014	0.050
-271.355	182.014	-0.101	0.148
-270.340	-171.122	-0.065	-0.002
-269.326	-200.000	0.008	0.192
-268.311	-72.117	-0.314	0.116
-267.297	-142.900	0.305	-0.029
-266.282	-55.582	0.312	-0.139
-265.267	-145.147	-0.378	0.034
-264.253	-67.082	-0.092	-0.036
-263.238	-200.000	-0.084	0.402
-262.224	-90.090	-0.090	-0.026
-261.209	-89.073	0.141	-0.041
-260.195	-49.815	-0.133	0.063
-259.180	-153.541	0.152	0.010
-258.165	88.415	0.062	-0.069
-257.151	1.556	0.347	0.248
-256.136	-59.021	-0.086	0.037
-255.122	-200.000	0.016	-0.094
-254.107	-86.407	-0.253	0.077
-253.092	-63.230	0.154	0.063
-252.078	-118.730	-0.095	0.017
-251.063	-15.417	0.115	0.073
-250.049	800.000	0.025	-0.099
-249.034	745.607	0.091	-0.244
-248.019	326.492	0.116	-0.221
-247.005	-200.000	0.020	-0.136
-245.990	-95.284	0.119	0.032
-244.976	162.602	0.055	-0.076
-243.961	-106.949	-0.257	0.056
-242.946	527.905	0.118	0.277
-241.932	155.877	0.241	0.329
-240.917	71.225	-0.189	-0.194
-239.903	-104.437	-0.174	0.040
-238.888	800.000	-0.014	0.045
-237.873	-7.648	0.478	0.321
-236.859	141.835	0.251	0.331
-235.844	-22.567	0.314	-0.188
-234.830	-33.501	0.233	-0.128
-233.815	-113.855	-0.307	0.059
-232.800	-131.512	0.193	0.025
-231.786	232.849	-0.093	-0.152
-230.771	123.952	0.087	-0.109
-229.757	-200.000	0.016	-0.174
-228.742	-58.311	-0.103	0.045
-227.727	67.150	0.068	-0.069
-226.713	800.000	-0.058	0.177
-225.698	-200.000	-0.018	0.137
-224.684	94.063	0.336	0.378
-223.669	-18.527	-0.114	-0.071
-222.655	-200.000	0.004	0.346
-221.640	800.000	-0.053	0.223
-220.625	-82.130	-0.115	0.037
-219.611	800.000	-0.026	-0.082
-218.596	-162.687	0.308	-0.015
-217.582	-129.803	-0.197	0.027
-216.567	11.408	-0.043	-0.032
-215.552	-122.785	-0.249	0.040
-214.538	-30.094	-0.226	0.128
-213.523	-33.049	-0.124	0.068
-212.509	-3.507	-0.177	-0.122
-211.494	-126.010	-0.245	-0.036
-210.479	-137.122	-0.092	0.010
-209.465	61.441	0.225	-0.222
-208.450	-200.000	-0.011	0.317
-207.436	-0.523	-0.140	0.099
-206.421	-200.000	0.019	-0.258
-205.406	139.526	-0.205	-0.267
-204.392	-200.000	-0.016	-0.128
-203.377	21.537	0.034	0.027
-202.363	-180.449	0.356	0.007
-201.348	-86.467	-0.072	0.022
-200.333	-200.000	-0.001	0.264
-199.319	-141.732	0.387	0.039
-198.304	26.233	0.247	0.204
-197.290	-200.000	-0.002	0.147
-196.275	46.327	0.021	-0.019
-195.260	-112.058	-0.270	-0.054
-194.246	217.703	0.146	-0.231
-193.231	-200.000	0.013	-0.203
-192.217	20.734	0.167	0.134
-191.202	325.505	0.129	-0.244
-190.187	-54.206	0.172	0.077
-189.173	80.890	0.165	-0.177
-188.158	21.499	-0.128	0.103
-187.144	86.818	-0.159	0.174
-186.129	63.552	-0.133	0.132
-185.114	17.308	0.178	-0.140
-184.100	-3.682	-0.275	0.189
-183.085	-189.895	-0.128	-0.001
-182.071	-200.000	-0.027	-0.134
-181.056	800.000	-0.062	-0.172
-180.042	29.418	-0.097	0.082
-179.027	59.600	0.150	-0.146
-178.012	-200.000	0.036	0.519
-176.998	-200.000	0.036	-0.243
-175.983	-106.974	0.048	0.011
-174.969	201.314	-0.197	0.300
-173.954	73.526	-0.223	0.231
-172.939	-200.000	0.010	0.097
-171.925	-114.832	-0.285	-0.054
-170.910	-28.176	-0.166	-0.095
-169.896	-69.991	0.175	-0.066
-168.881	39.375	0.106	0.094
-167.866	-53.020	-0.108	-0.049
-166.852	34.177	0.342	0.295
-165.837	-1.593	-0.123	-0.086
-164.823	-200.000	-0.004	0.039
-163.808	-158.989	-0.434	-0.024
-162.793	-200.000	0.008	0.312
-161.779	-149.765	-0.316	0.025
-160.764	-72.026	0.171	-0.063
-159.750	-117.317	-0.079	-0.014
-158.735	800.000	-0.047	0.158
-157.720	-200.000	-0.008	-0.297
-156.706	-138.805	-0.206	0.022
-155.691	-4.373	-0.378	0.259
-154.677	-86.131	-0.193	-0.059
-153.662	-50.687	-0.120	0.056
-152.647	-196.213	-0.095	0.001
-151.633	42.219	-0.069	-0.062
-150.618	271.658	0.066	0.114
-149.604	-15.392	0.214	0.135
-148.589	800.000	-0.020	-0.058
-147.574	-82.813	-0.145	-0.046
-146.560	80.211	0.161	0.171
-145.545	-4.832	0.179	-0.122
-144.531	467.762	0.167	-0.371
-143.516	-200.000	0.067	-0.449
-142.502	68.025	0.182	-0.184
-141.487	-149.469	-0.185	-0.015
-140.472	-169.737	0.168	0.006
-139.458	3.844	0.176	0.127
-138.443	-200.000	-0.028	-0.225
-137.429	-143.602	0.072	-0.007
-136.414	-64.161	-0.118	0.048
-135.399	-75.855	0.184	0.065
-134.385	-58.151	0.171	-0.073
-133.370	-200.000	0.091	-0.439
-132.356	-200.000	-0.001	0.309
-131.341	11.404	-0.175	-0.133
-130.326	96.503	-0.044	0.050
-129.312	145.930	0.015	-0.020
-128.297	800.000	-0.033	-0.141
-127.283	-130.403	0.389	0.052
-126.268	-98.042	0.223	-0.057
-125.253	-66.993	-0.237	0.092
-124.239	-18.803	0.202	-0.124
-123.224	-187.647	0.180	-0.002
-122.210	-171.551	0.121	-0.004
-121.195	-74.397	0.063	0.022
-120.180	4.920	-0.224	-0.163
-119.166	274.197	-0.057	0.099
-118.151	239.793	0.111	0.183
-117.137	800.000	-0.126	0.374
-116.122	314.730	0.073	0.136
-115.107	800.000	0.032	0.120
-114.093	-17.296	0.308	-0.191
-113.078	748.953	0.096	0.256
-112.064	-133.113	-0.091	-0.011
-111.049	-153.766	-0.031	0.002
-110.034	10.996	-0.286	0.216
-109.020	-200.000	-0.010	-0.052
-108.005	-97.583	-0.216	-0.055
-106.991	270.035	0.056	0.098
-105.976	-117.586	-0.355	0.063
-104.962	-200.000	-0.000	0.022
-103.947	58.173	-0.117	-0.113
-102.932	-95.149	0.293	-0.078
-101.918	800.000	0.071	-0.276
-100.903	-200.000	-0.012	-0.243
-99.889	-124.743	0.048	0.007
-98.874	539.436	-0.097	0.228
-97.859	-154.165	-0.226	-0.015
-96.845	239.353	0.041	0.068
-95.830	-200.000	0.031	0.310
-94.816	-183.233	-0.204	-0.004
-93.801	800.000	-0.062	-0.232
-92.786	-55.246	-0.339	-0.150
-91.772	-50.385	0.147	-0.068
-90.757	64.797	0.133	0.133
-89.743	-200.000	-0.056	-0.244
-88.728	-57.671	0.378	0.163
-87.713	-87.161	-0.205	-0.062
-86.699	1.139	0.365	0.259
-85.684	-107.630	-0.009	-0.002
-84.670	-200.000	-0.014	-0.089
-83.655	800.000	0.014	0.051
-82.640	-200.000	-0.014	-0.098
-81.626	-20.905	0.114	-0.069
-80.611	-35.767	-0.367	-0.196
-79.597	212.247	-0.043	0.067
-78.582	-116.898	-0.089	0.016
-77.567	-144.888	0.299	0.027
-76.553	-200.000	0.011	-0.347
-75.538	413.624	0.040	-0.085
-74.524	-74.902	0.319	-0.113
-73.509	-160.808	-0.332	0.017
-72.494	-200.000	0.040	-0.327
-71.480	800.000	-0.062	0.218
-70.465	17.132	0.196	-0.153
-69.451	-112.542	0.153	0.030
-68.436	230.191	-0.091	0.147
-67.422	637.748	0.050	0.125
-66.407	32.640	0.117	-0.100
-65.392	-19.828	0.187	-0.114
-64.378	328.433	0.134	-0.253
-63.363	800.000	-0.032	0.088
-62.349	-200.000	-0.031	0.228
-61.334	67.353	-0.778	-0.782
-60.319	57.071	0.382	0.367
-59.305	-200.000	0.022	-1.015
-58.290	344.288	0.490	0.947
-57.276	800.000	0.406	1.698
-56.261	-200.000	98.011	588.794
-55.246	552.035	1392.556	3294.424
-54.232	154.137	2587.959	3497.118
-53.217	113.975	2157.024	2583.846
-52.203	45.720	1613.147	1468.615
-51.188	37.662	1349.998	1180.399
-50.173	34.426	1307.567	1124.208
-49.159	57.210	1357.152	1304.119
-48.144	60.877	1375.139	1343.321
-47.130	38.018	1329.511	1164.429
-46.115	34.456	1311.963	1127.989
-45.100	34.164	1307.984	1122.800
-44.086	34.060	1305.167	1119.724
-43.071	34.128	1302.772	1118.024
-42.057	34.087	1300.281	1115.603
-41.042	34.121	1298.923	1114.595
-40.027	34.138	1297.731	1113.627
-39.013	34.082	1295.667	1111.483
-37.998	34.105	1293.715	1109.902
-36.984	34.202	1292.240	1109.156
-35.969	34.223	1290.266	1107.541
-34.954	34.259	1288.349	1106.057
-33.940	34.282	1287.190	1105.153
-32.925	34.410	1286.170	1104.974
-31.911	34.367	1284.437	1103.196
-30.896	34.364	1283.027	1101.920
-29.881	34.351	1281.969	1100.894
-28.867	34.366	1280.458	1099.640
-27.852	34.374	1278.735	1098.161
-26.838	34.342	1277.492	1096.865
-25.823	34.371	1276.264	1095.933
-24.809	34.281	1274.779	1094.100
-23.794	34.360	1273.272	1093.219
-22.779	34.318	1271.956	1091.800
-21.765	34.395	1270.566	1091.008
-20.750	34.373	1269.420	1089.855
-19.736	34.230	1268.121	1087.877
-18.721	34.219	1267.220	1087.000
-17.706	34.252	1265.892	1086.003
-16.692	34.227	1264.617	1084.724
-15.677	34.187	1263.744	1083.709
-14.663	34.215	1262.545	1082.795
-13.648	34.280	1261.680	1082.380
-12.633	34.136	1260.871	1080.821
-11.619	34.057	1260.217	1079.772
-10.604	34.186	1259.043	1079.456
-9.590	34.123	1257.976	1078.139
-8.575	34.217	1256.643	1077.486
-7.560	34.271	1255.849	1077.071
-6.546	34.260	1255.196	1076.401
-5.531	34.060	1254.181	1074.360
-4.517	34.147	1253.572	1074.286
-3.502	34.190	1252.569	1073.630
-2.487	34.188	1251.992	1073.077
-1.473	34.045	1247.809	1068.646
-0.458	32.692	1232.940	1048.355
0.556	29.380	1215.199	1010.260
1.571	25.689	1221.512	995.053
2.586	24.869	1236.898	1002.908
3.600	24.210	1226.005	990.324
4.615	17.668	1153.281	897.179
5.629	7.092	1073.973	783.312
6.644	2.224	1052.641	744.027
7.659	1.844	1049.959	740.221
8.673	1.768	1048.842	738.996
9.688	1.605	1047.567	737.245
10.702	2.127	1046.288	738.804
11.717	8.748	1056.267	778.040
12.731	19.125	1070.735	839.487
13.746	24.056	1076.150	867.755
14.761	24.846	1077.266	872.433
15.775	24.949	1076.691	872.391
16.790	24.621	1076.111	870.249
17.804	24.603	1075.428	869.532
18.819	24.711	1075.053	869.676
19.834	24.741	1074.569	869.353
20.848	24.749	1074.169	868.992
21.863	24.801	1073.849	868.907
22.877	24.741	1073.161	867.984
23.892	24.683	1072.326	866.951
24.907	24.744	1071.455	866.468
25.921	24.671	1070.680	865.407
26.936	24.824	1068.731	864.497
27.950	24.684	1067.234	862.535
28.965	24.485	1065.942	860.456
29.980	24.579	1064.305	859.508
30.994	24.834	1063.545	860.046
32.009	24.834	1062.325	858.982
33.023	24.677	1061.199	857.244
34.038	24.678	1060.415	856.540
35.053	24.839	1059.781	856.719
36.067	24.830	1058.800	855.808
37.082	24.843	1058.405	855.476
38.096	24.985	1057.959	855.721
39.111	25.079	1057.280	855.541
40.126	24.931	1055.592	853.394
41.140	24.617	1054.053	850.584
42.155	24.409	1052.665	848.395
43.169	24.405	1051.833	847.634
44.184	24.526	1050.397	846.973
45.199	24.389	1049.691	845.680
46.213	24.390	1049.156	845.181
47.228	24.619	1047.747	845.051
48.242	24.635	1047.500	844.853
49.257	24.762	1046.679	844.716
50.271	24.858	1045.993	844.544
51.286	24.900	1045.119	843.962
52.301	25.007	1043.906	843.411
53.315	24.778	1043.064	841.577
54.330	24.753	1042.474	840.912
55.344	24.779	1041.300	840.013
56.359	24.830	1040.199	839.287
57.374	24.538	1039.675	837.421
58.388	24.574	1039.091	837.045
59.403	24.616	1037.898	836.209
60.417	24.366	1037.028	834.264
61.432	24.528	1036.589	834.592
62.447	24.662	1036.128	834.773
63.461	24.637	1034.922	833.614
64.476	24.512	1034.088	832.284
65.490	24.493	1033.067	831.298
66.505	24.551	1032.568	831.097
67.520	24.568	1032.040	830.678
68.534	24.205	1030.786	827.907
69.549	24.064	1029.786	826.374
70.563	24.004	1029.081	825.457
71.578	24.111	1028.024	825.032
72.593	23.936	1027.273	823.546
73.607	24.095	1026.852	823.871
74.622	24.355	1026.575	824.781
75.636	24.422	1025.805	824.398
76.651	24.309	1024.238	822.546
77.666	24.145	1023.641	821.238
78.680	24.342	1022.770	821.373
79.695	24.452	1022.372	821.488
80.709	24.355	1022.142	820.781
81.724	24.477	1020.852	820.234
82.739	24.481	1020.464	819.869
83.753	24.854	1019.954	821.099
84.768	25.097	1018.938	821.323
85.782	25.167	1018.427	821.157
86.797	24.976	1017.437	819.411
87.812	24.843	1016.618	818.072
88.826	25.071	1015.641	818.254
89.841	25.028	1014.713	817.238
90.855	25.105	1013.784	816.769
91.870	25.140	1013.094	816.299
92.884	24.931	1012.083	814.463
93.899	24.843	1011.089	813.191
94.914	25.060	1010.306	813.476
95.928	24.836	1009.750	811.940
96.943	24.628	1007.994	809.513
97.957	24.449	1006.495	807.426
98.972	24.355	1005.246	805.927
99.987	24.587	1005.204	806.874
101.001	24.806	1004.333	807.089
102.016	24.858	1003.177	806.324
103.030	24.583	1002.732	804.656
104.045	24.519	1001.801	803.547
105.060	24.414	1000.545	802.000
106.074	24.500	1000.338	802.150
107.089	24.808	999.576	802.848
108.103	24.893	998.270	802.111
109.118	24.687	996.808	799.943
110.133	24.573	995.939	798.664
111.147	24.393	994.866	796.929
112.162	24.165	994.133	795.254
113.176	24.408	993.692	795.916
114.191	24.306	992.399	794.355
115.206	24.064	991.546	792.524
116.220	24.094	990.505	791.757
117.235	24.283	990.062	792.172
118.249	24.222	989.616	791.474
119.264	24.120	988.565	790.111
120.279	24.142	988.283	789.912
121.293	24.306	987.049	789.585
122.308	24.265	986.067	788.547
123.322	24.291	984.829	787.602
124.337	24.057	984.021	785.851
125.352	23.492	982.454	782.043
126.366	23.464	981.364	780.983
127.381	24.229	981.529	784.411
128.395	24.607	981.273	785.800
129.410	24.654	980.393	785.231
130.424	24.653	979.250	784.242
131.439	24.744	978.155	783.694
132.454	24.627	977.588	782.658
133.468	24.702	976.844	782.325
134.483	24.874	975.768	782.142
135.497	24.995	975.329	782.254
136.512	25.005	974.444	781.516
137.527	25.034	973.435	780.763
138.541	25.031	972.702	780.096
139.556	25.068	972.086	779.693
140.570	25.077	971.716	779.365
141.585	25.201	970.481	778.844
142.600	24.975	969.550	777.049
143.614	25.299	968.494	777.538
144.629	25.350	967.761	777.098
145.643	25.246	966.274	775.389
146.658	25.066	965.270	773.738
147.673	24.887	964.455	772.241
148.687	24.827	963.389	771.063
149.702	24.797	962.065	769.804
150.716	24.763	961.606	769.226
151.731	24.866	960.941	769.066
152.746	25.044	960.532	769.434
153.760	25.074	960.058	769.115
154.775	25.325	959.098	769.353
155.789	25.227	958.070	768.041
156.804	25.226	957.140	767.223
157.819	25.351	956.091	766.849
158.833	25.387	955.772	766.681
159.848	25.269	954.406	765.013
160.862	25.227	953.038	763.670
161.877	25.203	952.621	763.168
162.892	25.207	951.829	762.483
163.906	25.124	950.907	761.324
164.921	25.214	949.589	760.584
165.935	25.281	948.768	760.140
166.950	25.180	947.998	759.028
167.964	25.144	947.314	758.261
168.979	24.968	945.977	756.384
169.994	24.893	945.031	755.242
171.008	25.184	944.551	756.018
172.023	25.366	943.561	755.925
173.037	25.090	942.520	753.863
174.052	24.764	941.983	751.998
175.067	24.934	941.364	752.150
176.081	25.155	940.260	752.130
177.096	25.043	939.607	751.073
178.110	24.711	938.923	749.068
179.125	24.572	937.986	747.674
180.140	24.555	937.897	747.461
181.154	24.623	937.978	747.748
182.169	24.973	937.943	749.117
183.183	25.270	937.110	749.626
184.198	25.212	935.894	748.343
185.213	25.077	935.478	747.381
186.227	25.313	934.664	747.649
187.242	25.273	933.961	746.857
188.256	25.245	933.460	746.270
189.271	25.341	932.821	746.093
190.286	24.897	931.472	743.107
191.300	24.270	930.045	739.301
192.315	23.433	928.690	734.694
193.329	23.410	928.336	734.252
194.344	24.511	928.722	739.054
195.359	24.982	928.400	740.680
196.373	25.139	927.903	740.864
197.388	25.006	927.507	739.935
198.402	25.071	926.516	739.346
199.417	25.141	925.841	739.032
200.432	24.876	924.810	737.052
201.446	24.487	924.774	735.357
202.461	24.722	923.441	735.198
203.475	23.721	921.736	729.663
204.490	22.989	920.488	725.608
205.504	24.064	920.789	730.192
206.519	24.791	920.482	732.864
207.534	24.703	920.131	732.159
208.548	25.043	920.299	733.619
209.563	24.834	919.232	731.853
210.577	24.963	918.504	731.732
211.592	25.383	918.081	733.046
212.607	25.311	916.961	731.795
213.621	25.397	916.565	731.765
214.636	25.179	916.529	730.782
215.650	25.155	915.370	729.695
216.665	25.261	914.955	729.731
217.680	25.263	913.851	728.794
218.694	24.862	912.507	726.032
219.709	24.804	911.783	725.157
220.723	24.889	912.190	725.761
221.738	25.045	911.143	725.494
222.753	25.022	910.501	724.825
223.767	25.179	909.912	724.926
224.782	25.367	909.715	725.468
225.796	25.336	909.082	724.773
226.811	24.769	907.576	721.221
227.826	24.056	906.631	717.536
228.840	24.228	906.249	717.863
229.855	24.316	905.584	717.625
230.869	23.901	904.530	715.057
231.884	24.252	904.534	716.410
232.899	24.881	904.779	719.069
233.913	24.895	903.781	718.267
234.928	24.867	903.296	717.705
235.942	24.974	902.152	717.163
236.957	24.726	901.547	715.624
237.972	24.618	901.163	714.825
238.986	24.719	900.370	714.536
240.001	24.785	899.697	714.201
241.015	24.860	899.321	714.141
242.030	24.827	899.345	713.965
243.045	25.062	898.653	714.286
244.059	25.168	898.172	714.265
245.074	25.048	896.751	712.594
246.088	24.712	895.670	710.336
247.103	24.927	895.638	711.105
248.117	25.487	895.864	713.443
249.132	25.671	895.651	713.943
250.147	25.730	895.401	713.914
251.161	25.817	894.480	713.462
252.176	25.831	894.234	713.255
253.190	25.934	893.236	712.805
254.205	26.091	892.764	712.983
255.220	25.945	892.207	711.901
256.234	25.864	891.905	711.276
257.249	25.830	890.770	710.173
258.263	25.845	889.883	709.463
259.278	25.945	889.296	709.327
260.293	25.972	889.014	709.145
261.307	25.848	888.375	708.084
262.322	25.712	887.239	706.582
263.336	24.907	885.535	702.010
264.351	23.865	883.208	696.025
265.366	23.937	883.422	696.415
266.380	25.051	884.278	701.390
267.395	25.460	883.774	702.526
268.409	25.503	882.772	701.838
269.424	25.621	882.827	702.280
270.439	25.849	881.837	702.320
271.453	25.866	881.395	701.968
272.468	26.044	881.200	702.446
273.482	26.032	880.430	701.723
274.497	25.654	879.461	699.421
275.512	25.227	878.698	697.091
276.526	25.671	878.697	698.752
277.541	25.757	878.337	698.739
278.555	25.746	876.747	697.371
279.570	25.381	876.298	695.539
280.585	25.552	876.203	696.065
281.599	25.531	874.926	694.907
282.614	24.872	874.209	691.731
283.628	25.025	873.043	691.338
284.643	25.419	873.006	692.764
285.657	24.861	872.152	689.878
286.672	24.636	871.328	688.297
287.687	25.312	871.102	690.660
288.701	25.356	870.543	690.325
289.716	25.038	869.617	688.306
290.730	24.966	869.028	687.503
291.745	24.608	868.253	685.459
292.760	24.980	868.306	686.865
293.774	26.039	868.677	691.158
294.789	26.302	868.084	691.633
295.803	26.336	867.616	691.328
296.818	26.300	867.151	690.756
297.833	25.895	865.626	687.935
298.847	25.658	865.291	686.705
299.862	26.283	864.530	688.423
300.876	26.405	864.596	688.880
301.891	26.130	864.064	687.347
302.906	25.714	863.236	685.045
303.920	25.906	862.536	685.158
304.935	26.201	862.782	686.414
305.949	26.151	862.190	685.691
306.964	26.011	861.399	684.472
307.979	26.058	860.772	684.092
308.993	26.448	860.401	685.213
310.008	26.399	859.542	684.284
311.022	26.199	858.765	682.849
312.037	25.972	858.135	681.430
313.052	25.722	857.468	679.896
314.066	24.892	855.817	675.395
315.081	24.465	855.187	673.228
316.095	25.479	855.211	677.011
317.110	25.952	855.234	678.752
318.125	25.179	853.489	674.400
319.139	24.089	851.945	669.027
320.154	24.062	851.776	668.733
321.168	25.006	852.110	672.481
322.183	25.781	852.270	675.458
323.197	25.823	852.253	675.542
324.212	25.889	851.887	675.438
325.227	26.114	850.971	675.496
326.241	25.845	850.374	673.956
327.256	25.989	849.366	673.635
328.270	25.650	849.198	672.174
329.285	25.621	848.473	671.435
330.300	25.258	847.610	669.339
331.314	25.545	847.237	670.055
332.329	26.132	847.028	672.016
333.343	26.115	847.081	671.933
334.358	26.114	846.575	671.470
335.373	25.947	846.415	670.661
336.387	26.384	846.213	672.067
337.402	26.598	846.043	672.669
338.416	26.433	845.453	671.527
339.431	26.641	844.991	671.874
340.446	26.796	844.410	671.925
341.460	26.753	844.370	671.675
342.475	26.544	843.563	670.200
343.489	26.453	843.362	669.645
344.504	26.745	843.148	670.494
345.519	26.875	843.107	670.884
346.533	27.074	842.186	670.828
347.548	27.045	841.611	670.204
348.562	26.993	840.653	669.189
349.577	26.880	840.373	668.490
350.592	26.919	839.863	668.167
351.606	26.960	838.903	667.497
352.621	26.794	838.283	666.334
353.635	26.693	837.639	665.394
354.650	26.040	835.852	661.520
355.665	25.076	834.620	656.955
356.679	25.396	834.596	658.051
357.694	25.744	834.150	658.916
358.708	25.853	833.479	658.727
359.723	26.200	833.641	660.064
360.738	26.572	833.002	660.859
361.752	26.883	832.504	661.539
362.767	27.040	832.325	661.911
363.781	27.292	832.108	662.596
364.796	27.328	831.732	662.371
365.810	27.214	831.356	661.596
366.825	27.213	830.786	661.081
367.840	27.059	830.064	659.888
368.854	26.593	829.079	657.356
369.869	26.782	828.395	657.439
370.883	26.663	828.580	657.098
371.898	26.545	827.795	655.991
372.913	26.897	827.072	656.633
373.927	26.778	827.105	656.170
374.942	26.830	826.727	655.999
375.956	26.976	826.705	656.452
376.971	27.193	826.142	656.730
377.986	27.294	825.513	656.539
379.000	27.314	824.809	655.993
380.015	26.959	824.535	654.436
381.029	27.156	823.694	654.422
382.044	27.392	823.226	654.841
383.059	27.372	822.396	654.049
384.073	27.312	821.909	653.389
385.088	27.318	821.620	653.124
386.102	27.097	820.611	651.472
387.117	27.043	819.984	650.721
388.132	26.606	819.388	648.626
389.146	26.102	818.099	645.744
390.161	26.461	818.323	647.150
391.175	27.025	817.849	648.734
392.190	26.586	816.867	646.331
393.205	25.203	814.621	639.570
394.219	23.722	813.020	632.982
395.234	23.706	813.057	632.896
396.248	25.366	814.315	639.740
397.263	26.770	815.674	645.756
398.278	26.742	814.960	645.033
399.292	26.546	814.253	643.720
400.307	26.580	813.628	643.291
401.321	26.837	812.915	643.582
402.336	27.106	813.099	644.625
403.350	27.534	813.012	646.019
404.365	27.723	813.093	646.694
405.380	27.856	812.645	646.750
406.394	28.134	811.943	647.121
407.409	27.912	811.400	645.845
408.423	27.888	811.104	645.468
409.438	27.982	811.011	645.667
410.453	28.008	810.582	645.363
411.467	27.872	809.955	644.325
412.482	28.057	809.217	644.331
413.496	28.086	809.054	644.247
414.511	28.067	808.706	643.849
415.526	27.963	808.357	643.146
416.540	27.809	807.712	642.035
417.555	27.614	806.887	640.638
418.569	27.772	806.539	640.860
419.584	27.581	805.908	639.631
420.599	27.568	805.688	639.355
421.613	109.422	1283.065	1449.153
422.628	94.502	1352.619	1449.247
