DTS Sentinel unit serial number:	SN413079Multiplexer serial number:	ORYXHardware model number:	OX4-SRSoftware version number:	ORYX F/W v4.00 Oryx Data Collector v3.7.2.0data status	okinstallation	princeton_trtdifferential loss correction	single-endedforward channel	channel 1reverse channel	N/Adate	2019/09/19time	08:10:35forward acquisition time	60.00reverse acquisition time	0.00gamma	496.2192k internal	0.2342k external	0.2342temperature offset calibration	1.0008default loss term (dB/km)	0.3790temperature slope calibration	1.0000multiplexer offset coefficient	1.0000multiplexer slope coefficient	1.0000fibre end	0.00T internal ref (°C)	20.12T ext. ref 1 (°C)	0.56T ext. ref 2 (°C)	15.79length (m)	temperature (°C)	Stokes	anti-Stokes-747.200	33.800	-0.086	-0.075
-746.185	-40.422	-0.263	0.137
-745.171	138.028	0.150	-0.197
-744.156	-123.853	-0.333	0.053
-743.142	117.728	-0.028	0.035
-742.127	215.442	-0.114	0.181
-741.112	-41.250	0.076	0.039
-740.098	-71.558	-0.216	0.081
-739.083	-200.000	0.054	0.426
-738.069	768.100	-0.112	0.304
-737.054	-46.484	0.287	0.141
-736.039	99.892	-0.134	-0.156
-735.025	-4.406	-0.250	0.173
-734.010	-22.730	0.185	-0.112
-732.996	-154.673	-0.199	-0.013
-731.981	-21.755	0.300	-0.183
-730.966	800.000	-0.033	-0.124
-729.952	-133.581	0.098	-0.012
-728.937	194.152	-0.120	-0.182
-727.923	-121.806	-0.220	-0.036
-726.908	143.941	0.331	0.441
-725.894	-92.615	-0.264	0.074
-724.879	24.705	-0.218	-0.181
-723.864	-200.000	-0.005	0.043
-722.850	-200.000	0.012	-0.158
-721.835	686.914	-0.140	-0.366
-720.821	56.568	-0.124	-0.121
-719.806	-200.000	0.045	0.273
-718.791	205.241	-0.087	-0.135
-717.777	763.732	-0.050	-0.135
-716.762	93.004	0.277	-0.314
-715.748	-200.000	-0.013	-0.085
-714.733	-200.000	-0.004	-0.065
-713.718	-200.000	0.029	-0.146
-712.704	800.000	-0.138	-0.412
-711.689	415.420	0.149	-0.318
-710.675	267.993	0.033	0.058
-709.660	800.000	-0.062	-0.242
-708.645	-200.000	-0.069	-0.335
-707.631	83.132	-0.194	-0.211
-706.616	247.834	-0.133	-0.225
-705.602	-56.117	-0.142	0.063
-704.587	-73.169	-0.335	0.123
-703.572	-27.496	-0.224	-0.130
-702.558	-200.000	-0.035	-0.206
-701.543	202.172	-0.063	0.097
-700.529	-83.849	0.310	0.099
-699.514	170.463	-0.057	0.082
-698.499	163.875	-0.215	-0.302
-697.485	277.888	0.111	-0.197
-696.470	5.797	0.357	0.264
-695.456	285.709	-0.028	-0.050
-694.441	-200.000	-0.013	-0.363
-693.426	800.000	0.075	0.210
-692.412	-69.801	-0.060	-0.023
-691.397	99.236	-0.048	-0.055
-690.383	-200.000	-0.013	0.065
-689.368	363.606	0.199	-0.400
-688.354	-117.588	-0.161	0.029
-687.339	-200.000	0.035	0.409
-686.324	192.588	0.159	-0.240
-685.310	-171.641	0.218	-0.007
-684.295	277.330	-0.014	-0.025
-683.281	800.000	0.016	0.045
-682.266	6.008	0.194	0.144
-681.251	-147.912	-0.140	-0.012
-680.237	-200.000	-0.046	-0.449
-679.222	800.000	-0.078	-0.336
-678.208	215.571	-0.107	0.169
-677.193	-200.000	-0.022	-0.150
-676.178	-13.898	-0.196	-0.127
-675.164	-81.094	0.149	-0.049
-674.149	-49.718	-0.072	0.034
-673.135	1.256	-0.096	-0.069
-672.120	-36.712	-0.163	-0.087
-671.105	-47.686	0.140	0.068
-670.091	-33.415	-0.244	0.135
-669.076	-200.000	0.027	0.239
-668.062	-200.000	0.002	0.086
-667.047	147.456	0.062	-0.083
-666.032	148.297	0.120	0.162
-665.018	-200.000	-0.025	-0.140
-664.003	-50.413	-0.238	-0.112
-662.989	-200.000	0.021	0.156
-661.974	83.076	-0.285	0.310
-660.959	94.467	-0.232	0.263
-659.945	-200.000	0.040	0.357
-658.930	-143.460	0.264	0.025
-657.916	536.505	-0.120	-0.284
-656.901	147.610	-0.159	0.214
-655.886	-200.000	-0.011	-0.228
-654.872	800.000	0.082	-0.347
-653.857	54.210	-0.233	-0.224
-652.843	-31.404	-0.294	0.165
-651.828	123.384	0.050	0.063
-650.814	185.668	-0.133	-0.197
-649.799	3.073	-0.182	-0.132
-648.784	58.279	0.163	-0.159
-647.770	-200.000	0.015	0.072
-646.755	121.739	-0.205	0.255
-645.741	-200.000	0.046	0.242
-644.726	14.797	0.294	-0.229
-643.711	800.000	-0.065	0.267
-642.697	-200.000	-0.005	-0.130
-641.682	24.697	-0.170	0.140
-640.668	10.175	-0.171	0.130
-639.653	-34.062	0.350	0.192
-638.638	69.171	-0.138	-0.142
-637.624	-107.669	0.064	-0.014
-636.609	-144.371	-0.422	-0.039
-635.595	-200.000	-0.011	-0.098
-634.580	463.797	-0.096	-0.213
-633.565	-60.716	0.244	-0.103
-632.551	-200.000	-0.007	-0.126
-631.536	387.699	-0.125	-0.257
-630.522	-121.396	0.097	-0.016
-629.507	-200.000	0.028	-0.286
-628.492	800.000	-0.035	-0.106
-627.478	137.782	-0.153	0.200
-626.463	-58.337	0.086	-0.037
-625.449	-101.449	0.291	-0.071
-624.434	-66.722	0.193	-0.076
-623.419	-81.476	-0.031	-0.010
-622.405	-82.120	0.102	0.033
-621.390	238.244	0.090	0.150
-620.376	56.166	0.165	0.160
-619.361	-129.947	0.126	0.017
-618.346	170.541	-0.110	-0.157
-617.332	-177.300	0.195	-0.005
-616.317	-200.000	0.002	-0.014
-615.303	66.728	0.076	0.077
-614.288	-200.000	0.008	-0.035
-613.273	-88.062	0.053	0.016
-612.259	133.763	0.079	-0.102
-611.244	-200.000	-0.069	-0.361
-610.230	-89.558	-0.319	-0.093
-609.215	84.952	0.210	-0.229
-608.201	-200.000	0.018	-0.098
-607.186	-200.000	-0.005	-0.170
-606.171	-200.000	-0.030	-0.142
-605.157	-200.000	0.028	0.326
-604.142	-67.723	0.260	0.101
-603.128	543.287	0.105	-0.249
-602.113	154.714	0.100	0.137
-601.098	65.482	-0.275	0.277
-600.084	291.323	-0.080	0.144
-599.069	580.941	0.043	-0.104
-598.055	-64.735	0.187	0.075
-597.040	-200.000	-0.057	-0.352
-596.025	38.969	-0.131	0.117
-595.011	-200.000	-0.016	0.196
-593.996	66.998	-0.143	0.145
-592.982	-200.000	-0.021	-0.434
-591.967	113.722	0.185	-0.224
-590.952	310.876	0.143	0.267
-589.938	48.648	-0.161	0.150
-588.923	294.380	0.161	0.292
-587.909	800.000	-0.152	0.474
-586.894	-64.059	-0.235	-0.096
-585.879	-3.459	0.078	0.054
-584.865	-126.649	-0.479	-0.071
-583.850	800.000	0.032	0.097
-582.836	29.991	-0.219	-0.186
-581.821	688.280	-0.041	-0.107
-580.806	-16.992	-0.186	-0.117
-579.792	436.736	-0.131	0.285
-578.777	727.989	0.121	-0.321
-577.763	-46.000	0.090	-0.044
-576.748	162.363	0.034	-0.048
-575.733	-141.090	0.166	-0.017
-574.719	-13.464	0.322	0.208
-573.704	337.155	0.112	-0.216
-572.690	340.517	-0.102	-0.198
-571.675	-200.000	0.091	0.502
-570.661	2.997	-0.173	-0.125
-569.646	-91.473	-0.336	-0.096
-568.631	114.424	0.176	0.213
-567.617	307.695	0.051	-0.095
-566.602	173.262	0.184	0.264
-565.588	-101.079	0.432	0.105
-564.573	-200.000	-0.013	0.142
-563.558	-81.573	0.212	-0.069
-562.544	301.789	-0.058	0.107
-561.529	-50.200	-0.236	-0.111
-560.515	26.032	-0.205	0.170
-559.500	-163.041	0.261	-0.013
-558.485	200.781	0.236	-0.361
-557.471	-65.232	0.535	-0.214
-556.456	86.915	-0.271	0.298
-555.442	105.663	0.148	0.174
-554.427	-153.763	0.482	0.033
-553.412	-66.293	-0.053	0.021
-552.398	-55.525	0.284	-0.126
-551.383	-72.999	-0.289	0.105
-550.369	-76.203	-0.102	-0.036
-549.354	62.481	0.122	-0.121
-548.339	-200.000	0.034	-0.217
-547.325	192.279	-0.159	-0.239
-546.310	56.639	-0.222	-0.215
-545.296	82.343	-0.229	-0.247
-544.281	800.000	-0.083	-0.238
-543.266	800.000	0.085	-0.270
-542.252	-200.000	0.008	-0.196
-541.237	285.405	0.111	-0.198
-540.223	48.497	0.150	0.139
-539.208	-39.268	-0.206	-0.108
-538.193	-67.818	-0.445	-0.173
-537.179	-17.222	0.453	0.284
-536.164	-14.596	-0.299	-0.191
-535.150	132.170	-0.141	-0.181
-534.135	-102.571	-0.244	0.058
-533.121	-44.968	0.129	0.064
-532.106	582.864	-0.036	-0.088
-531.091	-161.336	-0.053	0.003
-530.077	-123.176	0.229	-0.036
-529.062	-200.000	0.020	-0.127
-528.048	128.824	0.113	0.143
-527.033	-114.747	-0.058	0.011
-526.018	-200.000	0.201	-0.001
-525.004	4.141	0.169	0.123
-523.989	-63.356	0.316	0.129
-522.975	-200.000	0.007	0.142
-521.960	105.608	-0.120	0.140
-520.945	92.104	-0.107	-0.119
-519.931	-126.847	0.274	0.040
-518.916	800.000	-0.088	0.273
-517.902	800.000	0.057	-0.203
-516.887	-200.000	0.044	0.326
-515.872	-70.676	-0.319	0.120
-514.858	-4.644	0.296	-0.203
-513.843	4.035	0.299	0.217
-512.829	-200.000	0.006	-0.078
-511.814	-62.272	0.327	0.135
-510.799	-4.842	0.093	-0.064
-509.785	-46.384	0.205	-0.100
-508.770	-11.930	-0.184	0.120
-507.756	-9.989	0.118	-0.078
-506.741	-75.858	-0.184	-0.065
-505.726	-94.376	-0.225	0.061
-504.712	-110.001	-0.267	0.055
-503.697	15.042	-0.126	-0.098
-502.683	-200.000	0.068	-0.344
-501.668	278.847	-0.103	-0.182
-500.653	354.174	-0.025	0.049
-499.639	98.889	0.211	-0.241
-498.624	166.475	0.098	0.137
-497.610	-121.123	-0.314	0.052
-496.595	359.573	-0.082	-0.162
-495.581	-18.453	-0.055	-0.034
-494.566	27.040	-0.129	0.108
-493.551	800.000	-0.064	0.192
-492.537	251.511	-0.076	-0.127
-491.522	419.372	0.087	-0.184
-490.508	-111.719	-0.410	-0.082
-489.493	-108.815	0.124	0.026
-488.478	-67.532	-0.043	0.017
-487.464	-200.000	-0.019	0.253
-486.449	43.782	-0.115	-0.104
-485.435	21.739	-0.249	-0.201
-484.420	800.000	-0.061	-0.220
-483.405	-159.484	0.203	-0.011
-482.391	-200.000	-0.018	0.277
-481.376	-126.180	-0.248	-0.037
-480.362	320.328	-0.100	-0.187
-479.347	-25.994	0.157	0.091
-478.332	595.733	-0.096	0.236
-477.318	-27.877	-0.246	-0.141
-476.303	2.066	0.059	0.043
-475.289	-74.779	0.069	0.024
-474.274	280.756	-0.095	0.168
-473.259	86.406	0.174	-0.190
-472.245	251.540	0.092	-0.156
-471.230	-200.000	0.010	0.077
-470.216	332.868	-0.073	-0.139
-469.201	-102.467	-0.214	-0.051
-468.186	29.935	0.143	0.121
-467.172	560.718	0.050	0.119
-466.157	-109.002	-0.201	-0.042
-465.143	41.585	0.198	-0.177
-464.128	-200.000	-0.006	-0.075
-463.113	43.363	0.070	-0.064
-462.099	14.803	0.323	-0.250
-461.084	-179.502	-0.078	-0.002
-460.070	-57.867	0.123	0.053
-459.055	317.262	0.082	-0.154
-458.040	-78.785	-0.439	0.148
-457.026	-200.000	-0.011	-0.073
-456.011	246.811	0.162	-0.270
-454.997	108.820	-0.079	-0.094
-453.982	-125.775	0.235	0.035
-452.968	-200.000	-0.059	0.324
-451.953	-25.162	0.105	-0.062
-450.938	-200.000	-0.028	0.161
-449.924	175.010	0.151	0.217
-448.909	800.000	-0.052	-0.209
-447.895	-127.477	-0.489	0.070
-446.880	-90.672	0.122	0.035
-445.865	49.130	0.212	-0.197
-444.851	-200.000	0.010	-0.304
-443.836	262.149	-0.121	-0.208
-442.822	-89.042	-0.159	-0.047
-441.807	250.998	-0.132	0.223
-440.792	-200.000	-0.052	-0.272
-439.778	532.408	-0.093	-0.219
-438.763	58.629	-0.259	-0.252
-437.749	33.804	0.079	-0.068
-436.734	-200.000	0.023	0.198
-435.719	-65.564	0.156	0.062
-434.705	-190.845	0.148	-0.002
-433.690	-65.566	0.175	-0.069
-432.676	650.708	-0.169	-0.428
-431.661	338.487	-0.233	-0.448
-430.646	-49.650	-0.149	-0.070
-429.632	-200.000	-0.020	0.162
-428.617	-153.636	-0.153	-0.010
-427.603	-200.000	-0.004	-0.188
-426.588	800.000	-0.057	-0.245
-425.573	74.266	0.191	-0.199
-424.559	-105.149	0.179	-0.040
-423.544	65.320	0.073	0.073
-422.530	-200.000	-0.055	-0.242
-421.515	714.784	0.083	0.217
-420.500	-150.276	-0.273	0.021
-419.486	-93.120	0.370	-0.102
-418.471	-140.264	0.332	-0.034
-417.457	150.376	0.243	-0.326
-416.442	669.206	-0.104	-0.267
-415.428	800.000	-0.054	-0.173
-414.413	12.627	-0.182	0.139
-413.398	-43.720	0.421	0.210
-412.384	-200.000	-0.003	0.174
-411.369	-73.422	-0.249	0.090
-410.355	-200.000	0.052	0.311
-409.340	-200.000	0.019	0.311
-408.325	-60.199	-0.143	0.060
-407.311	236.224	-0.205	-0.334
-406.296	-200.000	-0.015	-0.207
-405.282	-123.120	-0.270	-0.043
-404.267	-200.000	0.025	0.172
-403.252	-102.860	0.230	0.054
-402.238	67.105	0.106	0.107
-401.223	430.783	0.094	0.202
-400.209	-117.384	0.214	-0.038
-399.194	-200.000	-0.027	0.167
-398.179	50.685	-0.154	0.144
-397.165	-200.000	-0.020	-0.095
-396.150	-101.176	-0.286	-0.069
-395.136	800.000	-0.057	0.204
-394.121	242.264	-0.048	0.080
-393.106	-116.330	-0.104	-0.019
-392.092	155.722	-0.139	-0.190
-391.077	47.727	0.245	-0.226
-390.063	-119.776	-0.258	-0.044
-389.048	75.835	0.270	0.282
-388.033	49.332	0.167	-0.155
-387.019	1.652	0.113	-0.080
-386.004	-200.000	0.055	-0.372
-384.990	-106.267	-0.064	0.014
-383.975	800.000	0.026	0.084
-382.960	-33.712	0.059	-0.032
-381.946	-99.857	-0.028	0.007
-380.931	-94.951	-0.308	-0.082
-379.917	396.656	-0.093	0.193
-378.902	69.841	-0.195	0.199
-377.888	-200.000	-0.013	0.244
-376.873	131.091	-0.175	0.221
-375.858	-13.927	0.330	-0.211
-374.844	-200.000	0.026	-0.181
-373.829	-91.367	0.262	0.074
-372.815	-53.312	0.174	-0.079
-371.800	-200.000	-0.009	0.253
-370.785	157.826	0.170	0.232
-369.771	-200.000	0.011	0.059
-368.756	438.655	0.021	0.045
-367.742	236.260	-0.138	0.226
-366.727	-52.156	-0.248	-0.113
-365.712	504.350	0.155	-0.354
-364.698	-110.702	-0.061	0.012
-363.683	-17.280	0.139	-0.087
-362.669	-13.602	0.366	0.234
-361.654	-90.129	0.232	0.067
-360.639	-200.000	-0.002	-0.164
-359.625	-139.923	-0.098	0.010
-358.610	-46.361	-0.062	0.030
-357.596	538.912	0.106	-0.249
-356.581	86.995	-0.142	0.155
-355.566	197.646	-0.160	-0.241
-354.552	-170.320	0.584	0.020
-353.537	-147.741	-0.301	-0.025
-352.523	-71.786	-0.184	0.068
-351.508	-200.000	0.052	0.359
-350.493	25.811	-0.108	-0.089
-349.479	-15.378	-0.023	0.014
-348.464	75.316	-0.239	-0.248
-347.450	-200.000	-0.005	0.107
-346.435	-0.667	-0.229	-0.160
-345.420	-41.745	0.216	0.109
-344.406	-58.682	-0.186	-0.080
-343.391	-200.000	0.003	0.126
-342.377	126.302	-0.244	0.304
-341.362	-200.000	-0.025	0.120
-340.348	69.033	0.104	0.105
-339.333	-53.265	-0.243	0.110
-338.318	-137.778	0.079	0.009
-337.304	-200.000	-0.086	0.580
-336.289	-34.922	0.162	-0.087
-335.275	-149.303	-0.207	-0.016
-334.260	-52.546	0.259	-0.118
-333.245	-200.000	0.073	0.465
-332.231	800.000	-0.061	-0.184
-331.216	133.226	-0.209	0.266
-330.202	295.070	0.121	0.219
-329.187	112.732	-0.143	-0.170
-328.172	800.000	0.017	-0.065
-327.158	-200.000	-0.029	-0.289
-326.143	571.525	0.054	-0.130
-325.129	-107.316	0.178	0.039
-324.114	-170.532	0.128	-0.004
-323.099	-105.906	-0.240	-0.053
-322.085	3.276	-0.125	0.090
-321.070	20.925	0.177	0.141
-320.056	-95.002	-0.351	0.093
-319.041	800.000	-0.085	-0.285
-318.026	-30.266	0.083	-0.047
-317.012	800.000	-0.046	0.193
-315.997	159.460	0.131	0.179
-314.983	800.000	-0.084	0.260
-313.968	42.915	-0.188	0.168
-312.953	-142.162	0.443	0.043
-311.939	-38.020	-0.079	0.041
-310.924	-53.524	0.058	-0.026
-309.910	800.000	-0.040	-0.132
-308.895	188.165	0.135	0.199
-307.880	-199.893	-0.166	0.001
-306.866	-200.000	0.006	0.033
-305.851	-138.364	-0.342	-0.037
-304.837	-98.334	0.190	-0.048
-303.822	-38.712	0.189	-0.098
-302.807	800.000	0.031	-0.102
-301.793	-64.120	-0.094	0.038
-300.778	10.485	0.227	0.170
-299.764	483.004	-0.054	0.120
-298.749	-153.130	-0.061	-0.004
-297.735	79.024	-0.110	0.116
-296.720	-86.751	0.285	-0.086
-295.705	397.287	0.130	0.267
-294.691	-200.000	-0.055	-0.243
-293.676	800.000	0.035	-0.140
-292.662	-141.014	-0.245	0.025
-291.647	-200.000	0.012	0.209
-290.632	84.414	0.244	-0.262
-289.618	-120.086	0.503	-0.085
-288.603	-200.000	-0.005	-0.113
-287.589	-200.000	0.025	-0.188
-286.574	179.597	-0.116	0.167
-285.559	-2.882	0.160	0.110
-284.545	-53.569	-0.059	-0.026
-283.530	95.615	-0.122	0.137
-282.516	-200.000	0.041	0.245
-281.501	218.076	-0.214	0.335
-280.486	-200.000	-0.031	0.166
-279.472	-200.000	0.066	0.294
-278.457	-176.522	-0.137	-0.003
-277.443	-125.809	-0.119	0.018
-276.428	800.000	-0.005	-0.015
-275.413	800.000	0.122	-0.333
-274.399	-200.000	0.019	0.101
-273.384	-200.000	0.079	-0.369
-272.370	766.784	0.064	0.171
-271.355	-61.275	-0.149	-0.062
-270.340	34.090	0.369	-0.316
-269.326	23.956	-0.016	-0.013
-268.311	284.872	0.166	0.294
-267.297	-200.000	-0.015	-0.098
-266.282	-200.000	0.028	-0.223
-265.267	317.599	-0.136	0.253
-264.253	81.223	-0.062	-0.066
-263.238	-110.695	0.324	-0.066
-262.224	420.271	0.046	0.097
-261.209	126.836	-0.093	0.116
-260.195	-200.000	0.025	-0.208
-259.180	-191.513	0.158	0.002
-258.165	-124.583	0.047	0.007
-257.151	28.226	0.179	0.148
-256.136	108.724	0.194	0.228
-255.122	-200.000	0.029	0.313
-254.107	97.920	-0.104	0.117
-253.092	707.264	0.065	-0.169
-252.078	111.745	-0.143	0.169
-251.063	-200.000	-0.057	0.278
-250.049	-133.110	0.336	0.042
-249.034	-58.188	0.180	0.077
-248.019	-136.449	-0.296	-0.034
-247.005	-185.638	0.185	0.003
-245.990	-200.000	-0.007	-0.302
-244.976	444.022	-0.042	-0.091
-243.961	-200.000	-0.026	0.181
-242.946	-128.403	-0.585	-0.082
-241.932	32.570	0.248	0.211
-240.917	-25.381	-0.218	0.127
-239.903	773.305	0.084	-0.226
-238.888	-114.673	0.440	-0.083
-237.873	-83.577	0.279	-0.088
-236.859	-115.152	-0.146	-0.027
-235.844	574.574	0.069	0.165
-234.830	800.000	0.052	0.215
-233.815	420.990	-0.090	-0.189
-232.800	-137.378	0.023	0.003
-231.786	-200.000	0.006	-0.220
-230.771	-120.321	0.303	0.051
-229.757	-77.859	-0.344	-0.116
-228.742	-200.000	0.002	-0.054
-227.727	-200.000	-0.052	-0.238
-226.713	-158.042	-0.333	0.019
-225.698	-200.000	0.000	-0.111
-224.684	-113.732	0.142	-0.027
-223.669	-150.213	0.326	0.025
-222.655	-34.717	-0.332	-0.178
-221.640	-72.679	-0.146	0.053
-220.625	268.373	0.194	0.333
-219.611	-60.276	0.103	0.043
-218.596	-200.000	-0.002	0.064
-217.582	-200.000	-0.011	0.140
-216.567	-141.592	-0.283	-0.028
-215.552	-200.000	-0.021	-0.336
-214.538	70.172	0.185	-0.187
-213.523	-8.624	-0.199	0.131
-212.509	26.465	-0.108	0.088
-211.494	-76.629	-0.413	-0.142
-210.479	-73.360	0.416	0.149
-209.465	800.000	0.042	0.138
-208.450	63.900	-0.170	-0.168
-207.436	11.116	0.182	0.137
-206.421	-200.000	0.010	0.148
-205.406	127.528	-0.192	0.240
-204.392	-150.015	0.271	-0.021
-203.377	193.573	-0.216	-0.320
-202.363	34.195	0.013	0.011
-201.348	-67.824	0.413	0.158
-200.333	800.000	0.036	-0.099
-199.319	-133.761	0.072	-0.009
-198.304	-0.086	-0.296	0.207
-197.290	-41.926	0.088	0.044
-196.275	60.202	0.325	-0.315
-195.260	123.065	-0.031	0.038
-194.246	800.000	0.020	0.076
-193.231	800.000	0.062	-0.245
-192.217	-65.369	-0.278	0.109
-191.202	800.000	-0.039	-0.146
-190.187	40.730	0.182	-0.161
-189.173	254.684	0.242	0.406
-188.158	395.863	-0.119	-0.242
-187.144	615.991	-0.098	-0.241
-186.129	29.541	-0.144	-0.120
-185.114	616.057	0.104	0.255
-184.100	242.137	-0.109	-0.179
-183.085	-59.090	-0.285	-0.120
-182.071	106.337	-0.151	-0.175
-181.056	800.000	0.040	0.141
-180.042	50.373	-0.267	0.247
-179.027	16.001	-0.111	0.085
-178.012	184.728	-0.294	-0.427
-176.998	12.640	-0.153	0.116
-175.983	-200.000	-0.008	0.213
-174.969	95.637	-0.103	-0.115
-173.954	47.053	-0.154	0.140
-172.939	-8.225	-0.153	0.101
-171.925	-135.634	-0.220	0.026
-170.910	57.465	-0.277	0.265
-169.896	173.283	0.078	0.109
-168.881	-1.616	-0.158	0.109
-167.866	-63.820	-0.172	0.069
-166.852	800.000	0.021	-0.073
-165.837	-120.494	0.142	-0.024
-164.823	48.873	0.214	0.196
-163.808	-97.815	0.126	-0.032
-162.793	-200.000	0.008	0.118
-161.779	-102.699	-0.084	-0.020
-160.764	595.687	0.151	0.366
-159.750	57.298	0.326	0.312
-158.735	-91.239	-0.001	0.000
-157.720	-43.195	-0.320	0.158
-156.706	32.928	-0.328	0.278
-155.691	-7.134	0.134	0.089
-154.677	800.000	0.036	0.136
-153.662	-60.262	-0.169	0.071
-152.647	-82.617	-0.150	-0.048
-151.633	-59.459	0.377	-0.158
-150.618	37.601	-0.290	0.252
-149.604	388.310	0.136	0.276
-148.589	-137.583	-0.430	0.047
-147.574	82.075	0.214	-0.227
-146.560	12.988	0.250	0.189
-145.545	-100.693	-0.075	-0.018
-144.531	-55.458	-0.130	0.057
-143.516	369.373	0.113	0.224
-142.502	800.000	-0.007	0.024
-141.487	-200.000	-0.027	0.120
-140.472	80.207	-0.178	-0.187
-139.458	-116.529	-0.153	0.028
-138.443	32.999	0.057	-0.049
-137.429	-200.000	0.002	-0.154
-136.414	-184.114	0.241	-0.004
-135.399	-76.576	-0.128	-0.044
-134.385	800.000	0.040	-0.143
-133.370	130.411	0.094	0.118
-132.356	-68.455	0.271	-0.103
-131.341	503.176	0.037	-0.085
-130.326	-7.408	-0.195	-0.129
-129.312	-167.354	0.387	0.015
-128.297	156.086	-0.032	-0.044
-127.283	17.662	0.093	0.072
-126.268	-200.000	-0.052	0.330
-125.253	-112.252	0.119	0.023
-124.239	-17.089	-0.249	0.153
-123.224	-71.732	-0.107	-0.039
-122.210	-121.465	0.095	-0.016
-121.195	800.000	0.025	0.084
-120.180	178.377	-0.113	0.161
-119.166	-44.626	0.255	-0.125
-118.151	-138.954	0.012	-0.001
-117.137	-118.556	-0.213	-0.037
-116.122	-123.920	0.129	0.020
-115.107	-130.980	-0.178	-0.023
-114.093	141.649	-0.189	0.245
-113.078	-26.701	0.102	-0.058
-112.064	-67.453	-0.223	-0.086
-111.049	309.200	-0.076	-0.138
-110.034	160.000	-0.086	-0.117
-109.020	-153.145	0.114	-0.008
-108.005	800.000	-0.015	0.051
-106.991	-158.881	-0.111	0.006
-105.976	130.014	0.218	0.272
-104.962	-55.204	0.504	0.222
-103.947	-149.970	-0.190	0.014
-102.932	-41.125	-0.164	-0.083
-101.918	-171.649	-0.380	-0.012
-100.903	-103.569	0.600	0.138
-99.889	-48.144	-0.184	0.087
-98.874	481.278	-0.071	0.158
-97.859	-200.000	0.035	-0.173
-96.845	490.656	0.066	0.148
-95.830	-200.000	-0.034	0.218
-94.816	-200.000	-0.039	-0.221
-93.801	-200.000	-0.043	0.217
-92.786	87.389	0.100	-0.108
-91.772	-118.697	-0.215	0.037
-90.757	800.000	0.102	-0.280
-89.743	-116.612	-0.395	-0.071
-88.728	-143.869	-0.363	0.033
-87.713	-99.639	0.153	-0.037
-86.699	44.934	0.280	0.251
-85.684	-79.392	-0.087	-0.029
-84.670	199.056	-0.175	-0.261
-83.655	-148.055	-0.124	-0.010
-82.640	44.849	0.265	0.238
-81.626	800.000	0.068	-0.272
-80.611	-73.623	-0.222	0.079
-79.597	-12.626	-0.155	0.099
-78.582	-148.705	0.212	0.017
-77.567	800.000	-0.086	-0.300
-76.553	-200.000	-0.021	0.189
-75.538	73.597	0.177	0.181
-74.524	419.922	0.048	-0.100
-73.509	-71.950	-0.117	0.043
-72.494	633.463	0.078	0.193
-71.480	-200.000	-0.010	0.098
-70.465	-25.113	0.238	0.138
-69.451	9.507	0.306	0.226
-68.436	0.990	0.004	0.003
-67.422	36.221	-0.296	0.254
-66.407	-200.000	-0.020	0.156
-65.392	-118.492	0.140	-0.024
-64.378	800.000	0.120	0.343
-63.363	-162.176	-0.142	0.007
-62.349	800.000	0.075	0.276
-61.334	82.310	-0.917	-0.971
-60.319	-10.137	0.525	0.340
-59.305	800.000	-0.504	-1.429
-58.290	201.161	1.009	1.514
-57.276	316.257	0.678	1.248
-56.261	-200.000	134.673	669.864
-55.246	336.231	1669.906	3159.764
-54.232	133.595	2804.748	3537.174
-53.217	86.270	2178.885	2340.004
-52.203	31.515	1607.593	1347.041
-51.188	23.359	1356.291	1086.634
-50.173	21.114	1320.581	1044.562
-49.159	49.004	1394.252	1276.131
-48.144	44.702	1403.748	1258.267
-47.130	23.447	1350.840	1082.635
-46.115	20.299	1332.009	1048.508
-45.100	20.137	1326.368	1043.057
-44.086	19.975	1324.015	1040.190
-43.071	20.048	1321.941	1038.955
-42.057	19.892	1320.373	1036.751
-41.042	20.111	1317.766	1035.968
-40.027	20.072	1316.424	1034.643
-39.013	20.013	1314.973	1033.106
-37.998	20.051	1313.074	1031.802
-36.984	20.115	1311.276	1030.730
-35.969	20.093	1309.697	1029.317
-34.954	20.085	1308.182	1028.034
-33.940	20.129	1307.027	1027.347
-32.925	20.164	1305.566	1026.368
-31.911	20.149	1303.781	1024.835
-30.896	20.276	1302.528	1024.559
-29.881	20.190	1300.943	1022.766
-28.867	20.194	1299.901	1021.928
-27.852	20.282	1298.345	1021.184
-26.838	20.183	1297.214	1019.668
-25.823	20.199	1295.844	1018.644
-24.809	20.232	1294.058	1017.395
-23.794	20.175	1293.278	1016.407
-22.779	20.291	1291.543	1015.685
-21.765	20.192	1290.672	1014.378
-20.750	20.263	1289.386	1013.740
-19.736	20.153	1288.058	1012.014
-18.721	20.182	1287.227	1011.494
-17.706	20.125	1285.362	1009.651
-16.692	19.980	1284.812	1008.337
-15.677	20.040	1283.376	1007.518
-14.663	20.034	1282.028	1006.384
-13.648	20.101	1281.007	1005.934
-12.633	20.084	1280.251	1005.201
-11.619	20.182	1279.153	1004.868
-10.604	20.092	1278.186	1003.550
-9.590	20.032	1277.865	1002.909
-8.575	20.049	1276.674	1002.034
-7.560	20.126	1275.643	1001.629
-6.546	19.919	1275.038	999.920
-5.531	20.096	1273.855	999.971
-4.517	20.109	1273.263	999.540
-3.502	20.072	1272.021	998.315
-2.487	20.042	1271.651	997.810
-1.473	20.164	1267.121	994.915
-0.458	18.838	1252.761	976.073
0.556	14.847	1238.348	943.007
1.571	11.654	1247.595	931.789
2.586	11.126	1263.105	940.245
3.600	11.180	1251.281	931.670
4.615	8.453	1178.020	862.348
5.629	3.050	1108.309	783.758
6.644	0.634	1092.738	760.522
7.659	0.525	1090.589	758.412
8.673	0.530	1089.757	757.793
9.688	0.531	1087.844	756.399
10.702	0.667	1085.765	755.568
11.717	3.938	1088.835	774.022
12.731	10.160	1097.549	811.437
13.746	15.272	1103.813	841.729
14.761	17.127	1105.968	852.619
15.775	16.561	1103.737	847.984
16.790	15.558	1102.018	841.569
17.804	14.789	1100.723	836.656
18.819	14.521	1099.431	834.261
19.834	14.355	1098.411	832.583
20.848	14.140	1097.409	830.673
21.863	13.821	1096.418	828.260
22.877	13.686	1096.198	827.345
23.892	13.486	1095.311	825.608
24.907	13.659	1094.129	825.504
25.921	13.681	1094.042	825.473
26.936	13.579	1093.109	824.191
27.950	13.775	1091.461	823.851
28.965	13.708	1090.522	822.736
29.980	13.728	1089.337	821.868
30.994	13.783	1088.298	821.283
32.009	13.794	1087.296	820.506
33.023	13.793	1086.049	819.488
34.038	13.784	1085.343	818.840
35.053	13.662	1084.624	817.625
36.067	13.837	1083.032	817.211
37.082	13.750	1082.630	816.409
38.096	13.813	1081.825	816.038
39.111	13.665	1081.126	814.711
40.126	13.681	1079.425	813.436
41.140	13.715	1078.390	812.751
42.155	13.564	1077.490	811.261
43.169	13.549	1076.375	810.277
44.184	13.508	1075.275	809.178
45.199	13.592	1074.300	808.781
46.213	13.502	1073.483	807.659
47.228	13.664	1071.673	807.014
48.242	13.597	1071.030	806.131
49.257	13.612	1070.108	805.437
50.271	13.645	1069.308	804.922
51.286	13.584	1068.274	803.778
52.301	13.649	1067.117	803.155
53.315	13.606	1066.537	802.437
54.330	13.616	1064.971	801.237
55.344	13.590	1064.560	800.730
56.359	13.667	1063.165	799.981
57.374	13.629	1062.206	799.007
58.388	13.514	1061.661	797.973
59.403	13.569	1060.258	797.113
60.417	13.509	1060.108	796.637
61.432	13.522	1058.809	795.655
62.447	13.531	1058.020	795.037
63.461	13.523	1057.269	794.360
64.476	13.439	1056.413	793.246
65.490	13.448	1055.758	792.725
66.505	13.531	1054.824	792.354
67.520	13.674	1053.422	791.915
68.534	13.610	1052.676	790.976
69.549	13.548	1052.389	790.395
70.563	13.548	1051.706	789.812
71.578	13.549	1050.735	789.018
72.593	13.576	1050.023	788.543
73.607	13.387	1049.659	787.299
74.622	13.579	1048.692	787.419
75.636	13.400	1048.158	786.095
76.651	13.480	1047.519	785.927
77.666	13.511	1046.890	785.533
78.680	13.454	1046.406	784.831
79.695	13.361	1045.745	783.824
80.709	13.480	1044.765	783.584
81.724	13.603	1043.683	783.285
82.739	13.645	1042.885	782.813
83.753	13.639	1042.311	782.287
84.768	13.667	1041.420	781.681
85.782	13.791	1040.004	781.130
86.797	13.686	1039.708	780.344
87.812	13.686	1038.712	779.529
88.826	13.640	1037.410	778.266
89.841	13.633	1036.901	777.783
90.855	13.594	1035.781	776.692
91.870	13.680	1035.399	776.738
92.884	13.711	1034.016	775.780
93.899	13.825	1033.038	775.507
94.914	13.849	1032.361	775.043
95.928	13.717	1031.648	773.822
96.943	13.753	1030.433	773.011
97.957	13.686	1029.766	772.133
98.972	13.752	1029.034	771.820
99.987	13.726	1027.625	770.574
101.001	13.765	1026.918	770.158
102.016	13.724	1025.982	769.198
103.030	13.690	1025.534	768.637
104.045	13.868	1024.457	768.587
105.060	13.750	1023.805	767.485
106.074	13.622	1022.779	766.055
107.089	13.655	1021.795	765.403
108.103	13.756	1020.931	765.154
109.118	13.839	1019.679	764.531
110.133	13.588	1019.121	762.886
111.147	13.608	1018.406	762.377
112.162	13.592	1017.563	761.605
113.176	13.814	1016.352	761.648
114.191	13.644	1016.108	760.617
115.206	13.751	1014.819	760.077
116.220	13.710	1013.970	759.185
117.235	13.730	1012.911	758.416
118.249	13.671	1012.115	757.483
119.264	13.661	1011.975	757.267
120.279	13.779	1010.373	756.538
121.293	13.573	1010.037	755.284
122.308	13.640	1009.233	754.919
123.322	13.755	1007.420	754.022
124.337	13.781	1006.528	753.405
125.352	13.762	1005.320	752.346
126.366	13.674	1004.578	751.326
127.381	13.607	1003.414	750.086
128.395	13.649	1002.526	749.546
129.410	13.654	1001.995	749.105
130.424	13.689	1000.935	748.405
131.439	13.672	1000.270	747.762
132.454	13.822	999.177	747.558
133.468	13.664	998.580	746.330
134.483	13.707	997.855	745.919
135.497	13.635	996.721	744.683
136.512	13.715	995.921	744.375
137.527	13.906	993.958	743.698
138.541	13.724	994.093	742.920
139.556	13.713	993.576	742.416
140.570	13.913	992.528	742.464
141.585	13.919	991.772	741.857
142.600	13.870	990.799	740.845
143.614	13.822	990.416	740.281
144.629	13.938	988.982	739.658
145.643	13.973	988.416	739.325
146.658	13.957	987.409	738.435
147.673	13.865	985.953	736.875
148.687	13.847	985.364	736.287
149.702	13.876	984.480	735.690
150.716	13.842	983.865	735.015
151.731	13.873	982.964	734.417
152.746	13.792	982.477	733.627
153.760	13.903	981.435	733.274
154.775	14.004	981.166	733.456
155.789	14.088	980.259	733.081
156.804	13.986	980.042	732.407
157.819	13.926	979.042	731.330
158.833	13.939	979.002	731.293
159.848	14.110	977.213	730.645
160.862	14.057	976.380	729.724
161.877	14.057	975.625	729.096
162.892	14.048	974.264	727.971
163.906	13.923	973.530	726.811
164.921	13.915	973.026	726.339
165.935	14.034	972.202	726.177
166.950	14.024	971.340	725.427
167.964	14.073	970.259	724.768
168.979	14.067	969.250	723.925
169.994	14.175	968.289	723.611
171.008	14.117	967.691	722.851
172.023	14.191	967.003	722.592
173.037	14.130	966.618	721.975
174.052	14.162	965.768	721.416
175.067	14.147	965.222	720.882
176.081	14.097	964.295	719.906
177.096	14.240	963.738	720.048
178.110	14.151	962.924	718.989
179.125	14.117	962.775	718.668
180.140	14.171	961.895	718.182
181.154	14.075	961.729	717.579
182.169	14.275	960.893	717.753
183.183	14.221	960.245	716.974
184.198	14.266	959.695	716.693
185.213	14.335	958.393	715.953
186.227	14.344	958.068	715.688
187.242	14.328	957.271	714.961
188.256	14.274	957.103	714.537
189.271	14.321	956.000	713.853
190.286	14.269	954.951	712.787
191.300	14.261	954.674	712.481
192.315	14.239	954.146	711.928
193.329	14.354	953.436	711.830
194.344	14.271	952.960	711.058
195.359	14.353	952.059	710.669
196.373	14.302	951.354	709.863
197.388	14.312	951.265	709.776
198.402	14.572	950.151	709.988
199.417	14.340	950.170	708.953
200.432	14.519	949.233	708.954
201.446	14.579	948.491	708.590
202.461	14.505	948.600	708.297
203.475	14.444	947.936	707.476
204.490	14.641	946.636	707.281
205.504	14.436	946.189	706.013
206.519	14.547	945.424	705.853
207.534	14.443	944.600	704.736
208.548	14.542	943.740	704.449
209.563	14.526	943.049	703.804
210.577	14.748	942.083	703.957
211.592	14.642	941.774	703.217
212.607	14.721	940.925	702.853
213.621	14.622	940.128	701.777
214.636	14.815	939.236	701.860
215.650	14.688	938.498	700.716
216.665	14.826	937.551	700.525
217.680	14.793	937.252	700.098
218.694	14.887	936.483	699.859
219.709	14.729	935.750	698.585
220.723	14.813	935.095	698.386
221.738	14.864	934.693	698.239
222.753	14.891	933.637	697.500
223.767	14.958	933.716	697.775
224.782	14.813	933.082	696.637
225.796	14.899	932.181	696.261
226.811	14.758	931.618	695.191
227.826	15.006	930.509	695.335
228.840	15.030	929.530	694.641
229.855	15.004	928.646	693.810
230.869	15.086	927.802	693.457
231.884	14.867	927.859	692.532
232.899	14.821	927.417	691.950
233.913	14.951	926.648	691.852
234.928	14.950	925.944	691.260
235.942	14.941	925.070	690.511
236.957	14.953	924.573	690.129
237.972	14.900	924.017	689.434
238.986	14.886	923.228	688.726
240.001	14.947	922.640	688.479
241.015	15.062	921.601	688.114
242.030	14.964	921.252	687.392
243.045	15.049	920.425	687.061
244.059	15.057	920.118	686.803
245.074	15.030	919.753	686.360
246.088	15.225	918.339	686.041
247.103	15.154	917.836	685.316
248.117	15.279	917.291	685.361
249.132	15.282	916.294	684.564
250.147	15.247	915.825	684.011
251.161	15.257	915.012	683.386
252.176	15.332	914.498	683.247
253.190	15.394	913.951	683.031
254.205	15.473	913.095	682.652
255.220	15.413	912.685	682.039
256.234	15.354	911.960	681.199
257.249	15.342	911.683	680.885
258.263	15.429	910.423	680.234
259.278	15.391	909.771	679.532
260.293	15.506	909.390	679.655
261.307	15.557	908.751	679.322
262.322	15.589	908.010	678.839
263.336	15.491	907.534	678.025
264.351	15.578	906.584	677.606
265.366	15.599	906.108	677.275
266.380	15.690	905.281	676.963
267.395	15.641	904.660	676.242
268.409	15.609	903.935	675.512
269.424	15.627	903.215	674.986
270.439	15.631	902.636	674.509
271.453	15.581	902.032	673.798
272.468	15.561	901.442	673.220
273.482	15.672	900.698	673.050
274.497	15.593	900.513	672.533
275.512	15.655	899.420	671.905
276.526	15.775	899.109	672.093
277.541	15.772	898.202	671.342
278.555	15.819	897.896	671.245
279.570	15.798	897.421	670.743
280.585	15.872	896.754	670.481
281.599	15.949	895.534	669.818
282.614	15.837	895.166	669.037
283.628	15.852	894.359	668.433
284.643	15.742	894.069	667.722
285.657	15.804	893.162	667.232
286.672	15.844	892.368	666.738
287.687	15.904	891.925	666.585
288.701	15.878	891.654	666.219
289.716	15.858	890.563	665.269
290.730	15.891	890.089	664.983
291.745	15.968	889.381	664.700
292.760	15.979	889.010	664.407
293.774	16.014	888.266	663.930
294.789	16.083	887.379	663.480
295.803	15.928	887.045	662.561
296.818	16.063	886.302	662.481
297.833	16.032	885.369	661.604
298.847	16.059	884.883	661.286
299.862	16.051	884.404	660.840
300.876	16.036	883.935	660.369
301.891	16.070	883.415	660.059
302.906	16.276	882.298	659.971
303.920	16.165	882.188	659.396
304.935	16.205	881.461	658.950
305.949	16.212	880.904	658.503
306.964	16.325	880.055	658.248
307.979	16.337	879.771	658.026
308.993	16.437	878.856	657.673
310.008	16.319	878.194	656.660
311.022	16.351	877.855	656.471
312.037	16.295	877.226	655.726
313.052	16.270	876.574	655.082
314.066	16.156	876.001	654.156
315.081	16.367	875.384	654.455
316.095	16.362	874.764	653.913
317.110	16.283	874.434	653.305
318.125	16.376	873.890	653.198
319.139	16.197	873.690	652.300
320.154	16.353	873.032	652.353
321.168	16.468	872.136	652.070
322.183	16.520	871.769	651.939
323.197	16.413	871.549	651.303
324.212	16.407	870.671	650.567
325.227	16.446	869.952	650.123
326.241	16.346	869.964	649.689
327.256	16.385	869.071	649.114
328.270	16.419	867.994	648.383
329.285	16.557	867.091	648.179
330.300	16.424	867.000	647.546
331.314	16.427	866.749	647.311
332.329	16.489	866.114	647.019
333.343	16.474	865.413	646.378
334.358	16.614	865.062	646.593
335.373	16.692	864.641	646.521
336.387	16.668	864.353	646.158
337.402	16.684	864.394	646.190
338.416	16.545	863.925	645.255
339.431	16.678	863.342	645.266
340.446	16.417	863.090	644.028
341.460	16.733	862.055	644.401
342.475	16.718	862.278	644.454
343.489	16.706	861.662	643.889
344.504	16.669	861.143	643.306
345.519	16.715	860.891	643.234
346.533	16.858	860.107	643.133
347.548	16.718	860.012	642.476
348.562	16.800	859.105	642.052
349.577	16.714	858.557	641.258
350.592	16.826	857.437	640.792
351.606	16.713	856.961	639.950
352.621	16.855	856.320	639.951
353.635	16.795	855.971	639.409
354.650	16.939	855.284	639.383
355.665	16.961	854.373	638.726
356.679	17.012	853.527	638.228
357.694	16.975	853.244	637.822
358.708	16.927	852.293	636.875
359.723	17.073	851.628	636.868
360.738	17.049	851.276	636.460
361.752	17.006	850.806	635.890
362.767	17.089	849.829	635.416
363.781	17.015	849.886	635.124
364.796	17.169	849.088	635.049
365.810	17.044	848.967	634.434
366.825	17.204	848.278	634.461
367.840	17.194	847.928	634.103
368.854	17.288	846.738	633.508
369.869	17.287	846.774	633.476
370.883	17.044	846.935	632.634
371.898	17.233	846.302	632.809
372.913	17.275	845.752	632.500
373.927	17.301	845.135	632.077
374.942	17.266	844.497	631.416
375.956	17.322	844.195	631.340
376.971	17.308	843.905	631.015
377.986	17.408	843.334	630.903
379.000	17.400	842.942	630.524
380.015	17.324	842.305	629.712
381.029	17.395	841.751	629.505
382.044	17.409	841.124	629.031
383.059	17.445	840.526	628.663
384.073	17.474	839.951	628.283
385.088	17.528	839.416	628.029
386.102	17.592	839.052	627.933
387.117	17.445	838.434	626.874
388.132	17.496	837.885	626.596
389.146	17.568	837.168	626.270
390.161	17.530	836.793	625.796
391.175	17.448	836.323	625.085
392.190	17.479	835.860	624.798
393.205	17.499	834.993	624.170
394.219	17.471	834.921	623.959
395.234	17.619	834.172	623.884
396.248	17.469	834.039	623.179
397.263	17.387	833.852	622.684
398.278	17.694	832.880	623.027
399.292	17.518	832.380	621.956
400.307	17.637	832.334	622.301
401.321	17.576	831.790	621.614
402.336	17.652	831.215	621.408
403.350	17.821	830.602	621.510
404.365	17.497	830.693	620.345
405.380	17.577	830.034	620.086
406.394	17.901	829.273	620.643
407.409	17.954	828.710	620.358
408.423	17.725	828.631	619.413
409.438	17.856	828.248	619.546
410.453	17.788	827.407	618.615
411.467	17.967	826.980	618.891
412.482	18.017	826.522	618.675
413.496	18.040	826.013	618.323
414.511	17.826	826.063	617.530
415.526	17.999	825.443	617.636
416.540	17.917	825.076	617.013
417.555	17.950	824.709	616.802
418.569	17.940	823.931	616.129
419.584	18.046	823.509	616.142
420.599	17.926	823.266	615.474
421.613	115.341	1301.172	1491.475
422.628	100.152	1370.764	1491.538
