DTS Sentinel unit serial number:	SN413079Multiplexer serial number:	ORYXHardware model number:	OX4-SRSoftware version number:	ORYX F/W v4.00 Oryx Data Collector v3.7.2.0data status	okinstallation	princeton_trtdifferential loss correction	single-endedforward channel	channel 1reverse channel	N/Adate	2019/09/12time	12:00:11forward acquisition time	60.00reverse acquisition time	0.00gamma	496.2192k internal	0.2293k external	0.2293temperature offset calibration	1.0036default loss term (dB/km)	0.3790temperature slope calibration	1.0000multiplexer offset coefficient	1.0000multiplexer slope coefficient	1.0000fibre end	0.00T internal ref (°C)	40.31T ext. ref 1 (°C)	1.99T ext. ref 2 (°C)	38.34length (m)	temperature (°C)	Stokes	anti-Stokes-747.200	800.000	0.111	0.316
-746.185	-200.000	-0.002	0.346
-745.171	456.221	0.147	0.335
-744.156	-107.501	-0.271	0.061
-743.142	61.323	0.194	-0.198
-742.127	-128.830	0.247	-0.036
-741.112	-75.826	-0.267	-0.097
-740.098	-51.319	0.201	0.096
-739.083	-200.000	0.002	-0.237
-738.069	0.879	-0.277	0.203
-737.054	230.230	0.135	0.226
-736.039	-133.229	-0.280	-0.036
-735.025	130.088	-0.101	-0.132
-734.010	-200.000	0.015	-0.096
-732.996	-200.000	-0.017	-0.201
-731.981	-73.920	0.237	-0.088
-730.966	-110.383	0.241	0.051
-729.952	-63.564	-0.295	-0.124
-728.937	-12.329	-0.137	-0.092
-727.923	-200.000	0.011	-0.052
-726.908	-53.244	-0.230	-0.108
-725.894	-200.000	0.000	-0.258
-724.879	-35.827	0.124	-0.069
-723.864	-120.007	-0.616	-0.108
-722.850	-21.085	0.149	0.093
-721.835	800.000	-0.146	-0.543
-720.821	-172.548	0.389	0.013
-719.806	-26.769	-0.162	-0.097
-718.791	-200.000	0.032	-0.183
-717.777	499.433	-0.100	0.236
-716.762	-24.724	-0.123	0.075
-715.748	82.919	-0.122	0.135
-714.733	187.490	0.065	-0.099
-713.718	-117.703	0.176	-0.032
-712.704	-159.697	0.448	-0.025
-711.689	-200.000	0.012	0.149
-710.675	-56.759	-0.562	0.254
-709.660	149.551	-0.120	0.167
-708.645	222.370	0.158	0.260
-707.631	-33.422	-0.202	0.114
-706.616	-29.549	0.148	0.086
-705.602	32.190	-0.112	0.099
-704.587	-61.620	0.220	-0.094
-703.572	95.484	-0.086	0.100
-702.558	-200.000	0.050	0.353
-701.543	-200.000	0.024	0.186
-700.529	46.526	-0.023	0.022
-699.514	82.113	0.210	0.233
-698.499	-51.290	-0.303	0.145
-697.485	-55.172	0.186	-0.085
-696.470	-200.000	0.042	-0.285
-695.456	-41.264	0.177	0.093
-694.441	-200.000	-0.002	0.104
-693.426	126.712	0.135	-0.175
-692.412	205.183	-0.146	-0.232
-691.397	190.503	0.071	-0.109
-690.383	-200.000	0.032	0.158
-689.368	-2.569	-0.246	-0.176
-688.354	-147.119	0.428	0.037
-687.339	-200.000	-0.006	0.116
-686.324	-65.373	-0.098	-0.040
-685.310	71.518	0.046	-0.048
-684.295	-90.560	-0.307	0.091
-683.281	38.362	-0.078	0.071
-682.266	800.000	-0.082	-0.276
-681.251	800.000	-0.055	-0.193
-680.237	-74.771	0.313	0.115
-679.222	63.076	-0.114	-0.116
-678.208	385.159	0.076	-0.161
-677.193	-166.965	0.228	0.010
-676.178	-200.000	0.012	0.122
-675.164	-168.415	-0.291	-0.011
-674.149	206.802	0.126	-0.200
-673.135	800.000	0.099	-0.287
-672.120	113.652	0.066	-0.082
-671.105	101.742	-0.116	0.138
-670.091	205.738	-0.164	0.260
-669.076	192.434	-0.070	-0.107
-668.062	-200.000	0.001	-0.090
-667.047	-200.000	-0.019	0.200
-666.032	-102.273	0.321	-0.079
-665.018	486.314	0.009	-0.020
-664.003	166.642	-0.040	0.058
-662.989	-200.000	0.005	-0.245
-661.974	1.587	0.176	-0.129
-660.959	800.000	-0.124	0.379
-659.945	-156.614	0.438	0.028
-658.930	68.425	-0.103	0.108
-657.916	358.886	-0.075	0.154
-656.901	110.346	0.202	0.247
-655.886	800.000	0.026	0.104
-654.872	-200.000	-0.041	0.186
-653.857	-121.611	-0.179	-0.030
-652.843	-200.000	0.056	-0.300
-651.828	-133.378	-0.083	0.011
-650.814	258.210	-0.116	-0.204
-649.799	-63.883	-0.388	-0.162
-648.784	-144.990	0.183	-0.017
-647.770	451.796	0.039	-0.088
-646.755	-200.000	-0.001	-0.509
-645.741	-33.841	-0.092	0.052
-644.726	23.091	0.151	0.126
-643.711	-85.252	-0.011	-0.003
-642.697	-125.343	0.306	-0.048
-641.682	-49.381	-0.245	0.119
-640.668	-200.000	-0.002	0.327
-639.653	-147.294	0.455	0.039
-638.638	-35.598	-0.360	-0.199
-637.624	227.505	0.141	-0.234
-636.609	-200.000	-0.030	-0.154
-635.595	-200.000	-0.047	0.211
-634.580	8.875	-0.092	-0.071
-633.565	-40.032	0.431	-0.229
-632.551	-193.476	-0.064	-0.001
-631.536	800.000	-0.042	0.122
-630.522	-200.000	-0.096	-0.514
-629.507	-109.391	0.348	-0.075
-628.492	800.000	-0.041	0.138
-627.478	67.501	-0.129	-0.134
-626.463	-55.435	0.202	-0.092
-625.449	-46.752	-0.293	-0.146
-624.434	0.553	-0.216	-0.157
-623.419	-125.718	0.323	0.050
-622.405	-1.691	0.218	0.157
-621.390	800.000	-0.137	-0.409
-620.376	81.894	0.021	-0.023
-619.361	-107.508	-0.131	-0.029
-618.346	-92.837	0.218	-0.062
-617.332	348.856	0.145	-0.291
-616.317	-112.569	-0.184	0.037
-615.303	-154.969	0.318	0.021
-614.288	800.000	-0.082	0.275
-613.273	48.389	-0.228	0.218
-612.259	-200.000	-0.001	0.368
-611.244	-71.512	-0.510	-0.194
-610.230	-114.705	-0.220	-0.043
-609.215	800.000	0.016	0.061
-608.201	440.517	0.024	0.054
-607.186	-34.454	-0.117	0.066
-606.171	-94.095	0.102	0.028
-605.157	391.626	0.078	-0.165
-604.142	627.353	0.054	-0.140
-603.128	-200.000	-0.043	0.452
-602.113	-200.000	-0.048	0.236
-601.098	800.000	0.105	-0.297
-600.084	-89.296	-0.188	0.056
-599.069	-200.000	-0.214	-0.000
-598.055	800.000	0.071	-0.224
-597.040	161.543	0.162	-0.231
-596.025	-140.004	0.229	-0.025
-595.011	556.918	0.082	0.201
-593.996	122.005	0.281	0.356
-592.982	70.182	-0.094	0.099
-591.967	-170.508	-0.133	-0.005
-590.952	167.664	0.266	0.384
-589.938	165.600	-0.073	-0.105
-588.923	75.614	-0.096	-0.103
-587.909	-200.000	-0.008	-0.056
-586.894	18.533	-0.209	-0.170
-585.879	120.990	0.222	-0.281
-584.865	102.073	-0.272	0.323
-583.850	-102.682	0.124	-0.030
-582.836	56.749	0.057	-0.057
-581.821	457.315	0.081	0.184
-580.806	471.954	0.075	-0.173
-579.792	65.875	-0.162	0.167
-578.777	-92.556	0.320	-0.091
-577.763	-200.000	0.071	-0.435
-576.748	-180.635	-0.381	0.008
-575.733	-200.000	-0.031	0.225
-574.719	-66.534	-0.321	0.129
-573.704	800.000	-0.059	-0.257
-572.690	800.000	0.047	-0.168
-571.675	20.568	0.119	0.098
-570.661	185.616	0.176	0.265
-569.646	134.473	-0.277	0.365
-568.631	-79.601	-0.313	-0.107
-567.617	-17.136	0.090	0.058
-566.602	114.369	-0.156	-0.193
-565.588	21.966	-0.318	-0.263
-564.573	-34.104	-0.238	0.133
-563.558	800.000	0.039	0.118
-562.544	747.145	0.074	0.202
-561.529	800.000	0.029	0.090
-560.515	-98.659	-0.135	-0.035
-559.500	-15.761	-0.139	-0.090
-558.485	-110.207	0.133	-0.028
-557.471	-200.000	-0.026	-0.366
-556.456	-23.056	0.132	-0.081
-555.442	382.151	-0.003	0.006
-554.427	26.264	0.166	0.141
-553.412	-113.777	0.178	-0.035
-552.398	28.351	0.169	-0.145
-551.383	-3.397	0.285	-0.202
-550.369	4.562	-0.299	-0.223
-549.354	-200.000	0.016	-0.310
-548.339	445.008	0.083	0.184
-547.325	-200.000	0.006	-0.133
-546.310	173.516	0.211	-0.309
-545.296	-116.332	0.322	0.061
-544.281	-200.000	-0.043	-0.333
-543.266	-200.000	-0.028	-0.358
-542.252	-37.536	0.170	0.092
-541.237	-98.303	0.138	0.036
-540.223	-200.000	0.013	0.215
-539.208	6.606	-0.313	-0.236
-538.193	457.207	0.102	0.230
-537.179	203.630	-0.052	-0.081
-536.164	129.076	-0.084	-0.109
-535.150	-200.000	0.008	0.088
-534.135	309.030	-0.165	0.314
-533.121	-85.212	0.156	-0.050
-532.106	479.806	0.040	-0.093
-531.091	716.089	0.042	0.112
-530.077	-81.773	-0.215	-0.071
-529.062	-1.964	0.122	0.087
-528.048	-200.000	0.043	0.209
-527.033	-103.967	-0.213	-0.050
-526.018	26.260	-0.169	0.144
-525.004	800.000	-0.038	0.158
-523.989	357.399	0.163	-0.330
-522.975	37.600	-0.277	-0.249
-521.960	-24.201	0.071	-0.043
-520.945	-200.000	-0.012	-0.151
-519.931	284.073	-0.134	0.244
-518.916	241.892	-0.049	-0.082
-517.902	-83.536	-0.258	0.084
-516.887	-89.003	-0.127	0.038
-515.872	549.774	0.085	0.206
-514.858	-161.677	-0.330	0.017
-513.843	-200.000	0.007	0.241
-512.829	60.279	-0.214	0.215
-511.814	-200.000	0.028	-0.159
-510.799	-200.000	0.012	-0.350
-509.785	293.127	0.064	-0.119
-508.770	109.687	0.164	0.199
-507.756	324.181	-0.126	-0.245
-506.741	88.916	0.116	0.131
-505.726	800.000	0.069	0.227
-504.712	-67.953	-0.113	-0.045
-503.697	800.000	0.075	0.252
-502.683	99.544	-0.144	-0.169
-501.668	163.203	0.085	-0.122
-500.653	-200.000	0.021	0.113
-499.639	-139.692	-0.228	-0.025
-498.624	-200.000	0.013	0.090
-497.610	83.812	0.264	-0.292
-496.595	-176.606	0.035	0.001
-495.581	67.617	-0.033	0.035
-494.566	123.623	-0.125	-0.159
-493.551	49.101	-0.148	0.141
-492.537	-200.000	0.012	0.448
-491.522	-87.798	0.103	0.032
-490.508	-49.094	-0.127	0.062
-489.493	-20.173	0.116	0.072
-488.478	-200.000	0.026	0.222
-487.464	33.384	-0.220	0.194
-486.449	800.000	-0.041	0.164
-485.435	30.740	-0.227	-0.197
-484.420	42.008	0.149	0.137
-483.405	-200.000	0.062	0.285
-482.391	7.067	-0.308	0.233
-481.376	365.294	0.111	0.227
-480.362	-200.000	-0.008	-0.143
-479.347	-146.747	0.286	-0.025
-478.332	138.201	0.006	-0.008
-477.318	-24.864	-0.074	-0.045
-476.303	-91.431	-0.142	0.041
-475.289	-83.069	-0.075	0.024
-474.274	250.609	0.093	0.160
-473.259	-100.136	-0.206	-0.052
-472.245	94.121	0.013	-0.014
-471.230	-34.824	0.224	0.124
-470.216	187.522	0.159	0.241
-469.201	-200.000	-0.049	0.336
-468.186	-43.617	-0.083	-0.042
-467.172	517.382	-0.079	-0.187
-466.157	-200.000	0.056	-0.275
-465.143	-132.201	-0.413	-0.054
-464.128	-146.850	0.068	0.006
-463.113	-36.193	-0.161	0.088
-462.099	34.448	0.263	-0.232
-461.084	-98.765	0.306	0.079
-460.070	197.762	-0.205	0.316
-459.055	-80.826	-0.153	0.051
-458.040	-108.879	-0.171	0.037
-457.026	191.085	0.096	-0.146
-456.011	577.899	-0.111	-0.275
-454.997	-70.328	0.053	0.020
-453.982	-49.072	-0.230	-0.111
-452.968	-200.000	0.087	0.507
-451.953	-118.792	-0.385	-0.069
-450.938	-108.815	0.072	-0.016
-449.924	-37.764	-0.139	0.075
-448.909	51.222	0.207	-0.198
-447.895	10.953	0.162	-0.125
-446.880	-200.000	0.003	-0.116
-445.865	182.546	0.080	-0.120
-444.851	67.653	0.327	-0.338
-443.836	70.748	0.116	-0.121
-442.822	800.000	-0.054	0.188
-441.807	64.532	-0.227	0.232
-440.792	-98.263	-0.172	-0.045
-439.778	800.000	0.072	0.315
-438.763	739.885	0.107	-0.291
-437.749	428.146	0.137	0.300
-436.734	15.975	0.044	0.035
-435.719	800.000	0.060	0.244
-434.705	-66.762	0.175	-0.070
-433.690	800.000	0.091	-0.299
-432.676	23.876	-0.414	-0.345
-431.661	-200.000	0.020	-0.097
-430.646	90.379	0.215	-0.244
-429.632	-17.538	-0.184	0.117
-428.617	43.681	0.244	0.226
-427.603	51.061	-0.205	0.196
-426.588	-41.587	0.132	-0.068
-425.573	114.983	0.109	-0.135
-424.559	138.921	-0.252	-0.335
-423.544	126.103	0.145	0.185
-422.530	-200.000	-0.031	-0.171
-421.515	-200.000	0.019	-0.169
-420.500	-200.000	0.001	-0.204
-419.486	464.106	-0.027	0.062
-418.471	28.116	-0.168	0.143
-417.457	-200.000	-0.007	-0.167
-416.442	-200.000	-0.014	-0.243
-415.428	23.401	-0.335	-0.278
-414.413	-49.955	-0.187	0.090
-413.398	-122.524	-0.208	-0.034
-412.384	-62.366	0.108	0.045
-411.369	490.061	-0.060	0.139
-410.355	181.489	-0.113	0.168
-409.340	588.347	0.135	-0.335
-408.325	151.283	0.077	-0.106
-407.311	-42.075	-0.127	0.066
-406.296	659.278	-0.051	-0.132
-405.282	-200.000	0.018	0.146
-404.267	-200.000	0.040	0.185
-403.252	-200.000	-0.038	0.334
-402.238	31.967	-0.088	-0.077
-401.223	36.558	-0.029	0.026
-400.209	-200.000	-0.035	-0.161
-399.194	-82.549	-0.004	-0.001
-398.179	136.757	-0.180	0.237
-397.165	-103.985	0.082	0.019
-396.150	-200.000	-0.048	-0.242
-395.136	800.000	-0.078	-0.278
-394.121	800.000	0.072	0.221
-393.106	110.518	-0.066	0.081
-392.092	-21.502	-0.048	-0.030
-391.077	128.253	0.082	-0.105
-390.063	79.417	0.280	0.303
-389.048	102.867	-0.107	0.126
-388.033	800.000	0.040	0.119
-387.019	-53.245	0.198	-0.092
-386.004	800.000	-0.043	-0.178
-384.990	-200.000	0.022	0.215
-383.975	-187.285	0.331	-0.005
-382.960	-145.226	0.324	0.030
-381.946	-17.739	-0.218	0.138
-380.931	-200.000	-0.021	-0.250
-379.917	376.089	0.170	-0.351
-378.902	40.006	0.187	0.169
-377.888	333.830	0.104	0.203
-376.873	-123.144	0.054	0.009
-375.858	-200.000	-0.050	0.628
-374.844	-41.599	0.340	0.176
-373.829	-5.668	0.183	-0.126
-372.815	51.826	-0.304	0.292
-371.800	242.233	-0.090	0.153
-370.785	239.382	0.044	-0.074
-369.771	25.950	0.200	-0.168
-368.756	-159.885	0.215	0.012
-367.742	-120.607	-0.265	-0.045
-366.727	800.000	-0.038	0.133
-365.712	-95.842	-0.372	0.100
-364.698	41.486	-0.136	-0.124
-363.683	160.134	0.078	-0.110
-362.669	-126.067	0.438	0.066
-361.654	-132.676	0.105	-0.014
-360.639	158.451	0.073	-0.103
-359.625	-63.380	0.058	-0.024
-358.610	-44.472	0.075	-0.038
-357.596	-200.000	0.004	0.292
-356.581	800.000	0.090	0.321
-355.566	707.733	-0.032	0.086
-354.552	31.713	-0.205	-0.178
-353.537	-27.250	-0.296	-0.174
-352.523	-200.000	0.049	-0.229
-351.508	800.000	0.039	-0.114
-350.493	45.143	-0.160	-0.149
-349.479	-85.041	0.176	-0.056
-348.464	216.367	0.153	-0.246
-347.450	-51.559	-0.246	-0.116
-346.435	-200.000	-0.014	-0.098
-345.420	-179.522	-0.407	-0.009
-344.406	-32.105	0.125	-0.070
-343.391	-43.099	-0.186	0.095
-342.377	-200.000	0.015	-0.149
-341.362	465.310	0.085	-0.191
-340.348	148.725	0.117	0.159
-339.333	-157.099	-0.299	-0.018
-338.318	-56.601	-0.188	-0.084
-337.304	800.000	-0.042	0.133
-336.289	-200.000	-0.020	0.326
-335.275	738.167	-0.078	0.210
-334.260	-31.898	0.285	0.161
-333.245	-101.998	-0.078	-0.019
-332.231	-138.019	0.027	-0.003
-331.216	-52.101	-0.147	0.069
-330.202	-200.000	-0.027	0.307
-329.187	311.880	-0.044	-0.083
-328.172	-200.000	0.013	-0.130
-327.158	3.049	0.039	-0.028
-326.143	92.443	0.070	-0.079
-325.129	90.343	0.151	-0.170
-324.114	25.231	-0.211	-0.176
-323.099	-59.044	0.265	-0.115
-322.085	800.000	-0.016	-0.063
-321.070	47.650	0.262	0.246
-320.056	-131.551	0.158	0.021
-319.041	-200.000	0.023	0.124
-318.026	114.306	0.188	-0.230
-317.012	213.374	0.190	0.302
-315.997	-35.623	0.230	-0.126
-314.983	24.611	0.145	-0.120
-313.968	490.958	-0.179	0.413
-312.953	23.627	0.093	0.077
-311.939	89.888	-0.014	0.015
-310.924	-131.114	0.317	-0.043
-309.910	198.501	-0.059	-0.091
-308.895	789.803	-0.090	0.249
-307.880	-200.000	-0.001	0.167
-306.866	800.000	-0.101	-0.390
-305.851	405.127	-0.074	0.156
-304.837	6.092	0.211	-0.157
-303.822	255.942	0.038	0.066
-302.807	123.195	0.128	0.161
-301.793	-200.000	-0.031	-0.276
-300.778	209.603	-0.075	0.118
-299.764	-86.951	-0.021	-0.006
-298.749	143.047	-0.148	0.198
-297.735	74.673	0.218	0.230
-296.720	-200.000	-0.031	0.148
-295.705	-11.278	0.194	-0.128
-294.691	-135.149	0.422	-0.051
-293.676	31.402	0.193	0.166
-292.662	203.122	0.080	-0.124
-291.647	772.788	0.095	-0.260
-290.632	255.830	0.033	0.057
-289.618	-7.803	-0.140	0.095
-288.603	-200.000	-0.059	0.267
-287.589	-200.000	-0.024	-0.210
-286.574	-200.000	0.031	0.208
-285.559	-45.918	-0.060	0.030
-284.545	-200.000	-0.048	-0.366
-283.530	-30.465	0.102	-0.058
-282.516	-200.000	-0.007	0.061
-281.501	-152.354	-0.224	0.016
-280.486	119.668	0.169	0.210
-279.472	-98.030	-0.495	-0.128
-278.457	-11.414	0.228	-0.151
-277.443	-200.000	0.045	-0.216
-276.428	-167.420	0.502	-0.020
-275.413	-200.000	0.015	0.150
-274.399	192.472	-0.236	-0.358
-273.384	62.128	0.152	0.152
-272.370	-200.000	-0.007	0.186
-271.355	-200.000	0.037	-0.177
-270.340	-200.000	-0.030	-0.200
-269.326	346.852	-0.059	0.117
-268.311	-98.290	-0.151	-0.039
-267.297	-146.484	0.222	0.019
-266.282	279.136	-0.188	0.337
-265.267	340.727	0.201	0.394
-264.253	-200.000	0.048	-0.225
-263.238	102.473	-0.161	-0.189
-262.224	691.450	-0.052	-0.136
-261.209	-22.591	0.229	-0.139
-260.195	23.351	-0.301	0.248
-259.180	291.360	0.177	0.324
-258.165	-149.955	-0.194	-0.015
-257.151	-148.822	-0.213	-0.017
-256.136	641.332	-0.060	0.154
-255.122	102.313	0.158	-0.186
-254.107	-135.213	-0.214	-0.026
-253.092	800.000	0.090	0.279
-252.078	118.278	0.139	0.172
-251.063	-200.000	0.023	-0.163
-250.049	-164.889	0.200	-0.009
-249.034	281.512	-0.147	0.264
-248.019	53.521	-0.171	0.165
-247.005	-34.524	-0.182	0.100
-245.990	484.453	-0.088	-0.202
-244.976	45.919	-0.389	-0.361
-243.961	24.147	-0.269	0.223
-242.946	630.631	0.056	-0.142
-241.932	-151.194	0.165	-0.012
-240.917	472.192	0.024	-0.055
-239.903	-200.000	-0.040	0.283
-238.888	35.419	0.159	0.140
-237.873	-200.000	0.021	0.342
-236.859	-200.000	-0.585	-0.002
-235.844	209.037	0.211	-0.332
-234.830	94.018	-0.295	-0.336
-233.815	-79.356	0.215	-0.073
-232.800	-200.000	-0.032	0.238
-231.786	533.517	0.101	-0.240
-230.771	-145.670	-0.264	0.024
-229.757	670.041	0.183	-0.476
-228.742	114.884	0.079	-0.096
-227.727	298.871	-0.086	0.159
-226.713	-200.000	-0.005	0.209
-225.698	42.362	-0.102	0.093
-224.684	-116.392	-0.137	0.025
-223.669	-200.000	0.023	-0.178
-222.655	-200.000	0.076	-0.435
-221.640	-200.000	-0.003	-0.072
-220.625	8.832	-0.194	-0.147
-219.611	2.682	0.099	0.072
-218.596	-10.913	0.307	0.203
-217.582	63.332	0.268	-0.269
-216.567	-37.731	0.190	0.102
-215.552	-36.321	-0.368	-0.199
-214.538	800.000	0.072	0.217
-213.523	91.709	-0.089	-0.100
-212.509	535.270	0.042	0.100
-211.494	99.340	0.116	0.135
-210.479	75.037	0.094	-0.100
-209.465	47.606	0.211	-0.197
-208.450	127.560	0.208	0.265
-207.436	166.951	-0.135	0.193
-206.421	-90.216	0.124	0.036
-205.406	193.742	0.084	-0.128
-204.392	-100.852	-0.278	0.068
-203.377	-200.000	0.033	0.154
-202.363	-34.302	0.156	0.085
-201.348	479.456	-0.124	-0.281
-200.333	-200.000	-0.010	-0.355
-199.319	-77.786	-0.251	0.087
-198.304	235.108	0.152	0.252
-197.290	-22.036	0.178	0.108
-196.275	1.994	-0.187	-0.135
-195.260	-124.447	0.120	0.019
-194.246	72.235	0.041	0.043
-193.231	-200.000	-0.036	0.183
-192.217	-15.303	-0.135	0.087
-191.202	-17.636	0.119	-0.075
-190.187	-24.493	-0.099	0.059
-189.173	-38.546	0.025	0.013
-188.158	800.000	-0.025	-0.069
-187.144	-69.516	0.170	0.065
-186.129	227.707	0.048	0.078
-185.114	22.276	-0.064	-0.053
-184.100	-45.997	-0.176	-0.087
-183.085	-104.856	0.091	0.021
-182.071	94.012	0.175	-0.199
-181.056	-164.046	-0.334	-0.015
-180.042	-200.000	0.029	0.211
-179.027	-2.765	-0.229	0.160
-178.012	791.435	0.112	0.308
-176.998	-74.123	0.317	-0.115
-175.983	-128.339	0.551	0.079
-174.969	63.746	-0.311	0.312
-173.954	800.000	-0.029	0.115
-172.939	800.000	0.036	0.135
-171.925	-117.244	-0.040	0.007
-170.910	2.308	-0.204	-0.148
-169.896	273.847	0.152	-0.270
-168.881	-14.080	0.125	0.081
-167.866	-200.000	0.011	-0.089
-166.852	800.000	-0.065	-0.265
-165.837	198.119	0.154	-0.236
-164.823	-111.371	0.229	-0.047
-163.808	-200.000	0.010	-0.249
-162.793	800.000	-0.060	0.193
-161.779	176.334	-0.142	0.206
-160.764	-84.640	0.138	0.043
-159.750	162.870	-0.069	-0.096
-158.735	800.000	0.014	-0.053
-157.720	-54.919	-0.084	0.038
-156.706	-200.000	0.002	-0.119
-155.691	-200.000	0.008	0.352
-154.677	79.808	0.169	-0.181
-153.662	79.556	-0.150	0.160
-152.647	-49.782	0.087	0.041
-151.633	390.126	-0.070	-0.144
-150.618	-2.907	-0.127	0.089
-149.604	-88.060	0.448	-0.135
-148.589	-200.000	0.011	-0.128
-147.574	-129.557	0.137	-0.019
-146.560	-80.206	0.169	0.057
-145.545	162.676	0.093	0.131
-144.531	-42.964	0.141	0.072
-143.516	165.781	-0.033	-0.047
-142.502	54.526	-0.218	-0.210
-141.487	312.617	-0.080	0.150
-140.472	-200.000	0.038	0.230
-139.458	-177.934	0.163	0.004
-138.443	574.581	0.096	0.233
-137.429	-114.076	-0.194	-0.038
-136.414	41.659	-0.033	0.030
-135.399	-121.398	-0.220	0.037
-134.385	800.000	0.126	0.419
-133.370	619.342	-0.069	0.172
-132.356	-135.230	0.436	0.052
-131.341	445.035	-0.109	0.238
-130.326	112.577	0.058	0.070
-129.312	229.594	0.119	0.194
-128.297	-200.000	0.033	0.242
-127.283	-100.079	0.359	-0.089
-126.268	542.487	-0.069	-0.165
-125.253	449.917	-0.046	0.101
-124.239	62.812	0.145	-0.145
-123.224	192.017	0.150	0.226
-122.210	800.000	-0.017	0.075
-121.195	68.872	0.288	-0.296
-120.180	52.020	0.255	-0.242
-119.166	-69.722	-0.253	-0.096
-118.151	-200.000	-0.025	0.182
-117.137	35.207	-0.151	-0.132
-116.122	-200.000	0.029	0.183
-115.107	800.000	0.053	-0.149
-114.093	-200.000	0.023	-0.155
-113.078	627.711	0.039	-0.098
-112.064	16.436	0.141	0.111
-111.049	800.000	0.043	-0.125
-110.034	80.638	0.098	0.106
-109.020	110.132	-0.112	-0.135
-108.005	653.199	-0.049	-0.126
-106.991	-113.427	0.008	0.002
-105.976	383.674	0.016	0.033
-104.962	-168.665	0.165	0.006
-103.947	-61.008	0.257	-0.108
-102.932	-200.000	-0.036	0.184
-101.918	361.885	-0.013	-0.026
-100.903	800.000	0.012	0.039
-99.889	161.299	-0.112	-0.156
-98.874	800.000	0.047	0.184
-97.859	55.384	-0.201	0.194
-96.845	211.824	0.030	-0.047
-95.830	29.640	0.206	0.175
-94.816	-84.490	0.050	0.016
-93.801	-200.000	-0.005	-0.166
-92.786	425.397	0.136	-0.291
-91.772	-108.057	-0.142	0.031
-90.757	-107.348	-0.019	-0.004
-89.743	800.000	0.089	0.256
-88.728	66.684	-0.217	0.221
-87.713	-55.067	-0.289	0.130
-86.699	-154.845	0.406	0.027
-85.684	664.336	-0.018	0.046
-84.670	-30.769	0.244	0.137
-83.655	13.696	0.059	-0.045
-82.640	-19.218	0.121	-0.075
-81.626	-200.000	-0.079	0.394
-80.611	425.654	-0.065	0.140
-79.597	-112.498	0.061	-0.012
-78.582	-200.000	-0.006	0.169
-77.567	800.000	0.034	-0.112
-76.553	-139.292	0.252	-0.027
-75.538	122.073	-0.196	-0.244
-74.524	287.215	0.114	0.205
-73.509	-50.124	0.245	-0.116
-72.494	-142.798	-0.235	-0.023
-71.480	-34.382	0.204	0.111
-70.465	617.938	-0.098	-0.244
-69.451	-200.000	0.004	0.384
-68.436	77.554	0.095	0.101
-67.422	474.887	0.212	-0.477
-66.407	21.113	0.315	0.255
-65.392	97.052	0.130	0.149
-64.378	-104.475	-0.179	0.041
-63.363	115.881	-0.085	0.103
-62.349	79.492	-0.186	0.199
-61.334	3.644	-0.685	-0.498
-60.319	800.000	0.141	0.407
-59.305	-200.000	-0.088	-1.078
-58.290	173.256	0.290	0.416
-57.276	800.000	0.366	1.530
-56.261	-200.000	76.308	505.878
-55.246	504.965	1341.171	3093.291
-54.232	144.563	2576.063	3427.028
-53.217	115.630	2237.127	2724.205
-52.203	52.012	1679.538	1593.200
-51.188	44.032	1402.873	1280.581
-50.173	40.478	1357.056	1216.940
-49.159	58.601	1392.291	1361.200
-48.144	65.136	1411.442	1420.321
-47.130	44.537	1373.546	1256.734
-46.115	40.546	1357.329	1217.409
-45.100	40.245	1352.961	1211.601
-44.086	40.038	1350.111	1207.739
-43.071	40.042	1348.466	1206.244
-42.057	39.982	1345.957	1203.587
-41.042	40.075	1344.055	1202.403
-40.027	40.095	1342.600	1201.175
-39.013	40.129	1340.303	1199.280
-37.998	40.116	1339.207	1198.173
-36.984	40.273	1337.062	1197.155
-35.969	40.378	1334.822	1195.734
-34.954	40.496	1333.006	1194.770
-33.940	40.359	1331.874	1192.887
-32.925	40.424	1330.901	1192.356
-31.911	40.438	1329.544	1191.177
-30.896	40.311	1327.887	1188.882
-29.881	40.437	1325.911	1187.822
-28.867	40.435	1324.262	1186.286
-27.852	40.437	1323.326	1185.413
-26.838	40.398	1321.633	1183.614
-25.823	40.495	1320.224	1182.886
-24.809	40.429	1319.105	1181.446
-23.794	40.364	1317.684	1179.735
-22.779	40.449	1315.909	1178.606
-21.765	40.405	1314.789	1177.296
-20.750	40.497	1313.036	1176.226
-19.736	40.343	1312.109	1174.437
-18.721	40.336	1310.677	1173.063
-17.706	40.303	1309.379	1171.663
-16.692	40.251	1308.788	1170.780
-15.677	40.336	1307.589	1170.160
-14.663	40.266	1306.555	1168.778
-13.648	40.344	1304.711	1167.541
-12.633	40.218	1304.060	1166.172
-11.619	40.184	1303.321	1165.264
-10.604	40.248	1302.785	1165.113
-9.590	40.195	1301.615	1163.708
-8.575	40.161	1300.694	1162.637
-7.560	40.212	1299.527	1161.850
-6.546	40.119	1298.848	1160.652
-5.531	40.071	1298.390	1159.911
-4.517	40.124	1297.389	1159.282
-3.502	40.204	1296.004	1158.466
-2.487	40.336	1294.670	1158.000
-1.473	40.369	1291.482	1155.300
-0.458	39.561	1276.944	1137.584
0.556	36.057	1257.935	1098.351
1.571	32.018	1262.187	1078.805
2.586	30.839	1276.556	1084.135
3.600	28.952	1264.826	1063.178
4.615	20.510	1186.090	950.927
5.629	7.929	1100.988	818.329
6.644	2.409	1076.802	772.473
7.659	1.985	1073.956	768.230
8.673	1.799	1072.445	766.142
9.688	1.769	1071.153	765.003
10.702	2.000	1070.164	765.389
11.717	8.960	1080.617	807.955
12.731	20.246	1097.187	877.694
13.746	25.153	1102.244	906.535
14.761	25.284	1102.783	907.562
15.775	25.279	1101.889	906.716
16.790	24.957	1101.480	904.675
17.804	25.018	1100.180	903.838
18.819	25.069	1100.633	904.386
19.834	25.263	1099.287	904.176
20.848	25.305	1099.085	904.143
21.863	25.222	1098.549	903.202
22.877	25.268	1097.588	902.566
23.892	25.118	1097.581	901.725
24.907	25.015	1096.632	900.347
25.921	25.130	1095.759	900.127
26.936	25.099	1094.280	898.681
27.950	25.055	1092.306	896.760
28.965	24.886	1090.912	894.687
29.980	24.972	1089.674	894.026
30.994	25.192	1088.489	894.071
32.009	25.213	1087.509	893.291
33.023	24.977	1086.111	890.890
34.038	25.137	1085.471	891.082
35.053	25.208	1084.812	890.813
36.067	25.123	1084.025	889.666
37.082	25.239	1083.196	889.485
38.096	25.360	1082.767	889.652
39.111	25.459	1082.099	889.511
40.126	25.268	1080.573	887.236
41.140	24.898	1078.767	883.847
42.155	24.633	1077.483	881.412
43.169	24.793	1076.382	881.219
44.184	24.854	1075.306	880.561
45.199	24.752	1074.122	879.012
46.213	24.790	1073.695	878.776
47.228	24.934	1072.916	878.764
48.242	25.054	1071.886	878.432
49.257	25.128	1071.046	878.028
50.271	25.155	1070.580	877.700
51.286	25.302	1069.702	877.620
52.301	25.241	1068.709	876.432
53.315	25.070	1068.100	875.020
54.330	25.040	1066.736	873.679
55.344	25.012	1066.659	873.404
56.359	24.987	1065.155	871.972
57.374	24.927	1064.212	870.831
58.388	24.949	1063.637	870.390
59.403	24.859	1062.641	869.062
60.417	24.641	1061.919	867.337
61.432	24.758	1061.065	867.130
62.447	24.866	1060.625	867.215
63.461	24.867	1059.623	866.326
64.476	24.825	1058.516	865.138
65.490	24.769	1057.479	863.946
66.505	24.797	1057.380	863.924
67.520	24.830	1056.980	863.678
68.534	24.678	1055.241	861.448
69.549	24.424	1054.280	859.365
70.563	24.390	1053.595	858.568
71.578	24.328	1052.780	857.532
72.593	24.247	1051.879	856.329
73.607	24.373	1051.343	856.424
74.622	24.748	1050.600	857.539
75.636	24.707	1049.993	856.772
76.651	24.481	1049.537	855.241
77.666	24.411	1048.889	854.306
78.680	24.573	1047.910	854.203
79.695	24.699	1047.282	854.222
80.709	24.663	1046.843	853.613
81.724	24.651	1045.739	852.579
82.739	24.786	1045.247	852.749
83.753	25.095	1044.453	853.496
84.768	25.400	1044.120	854.601
85.782	25.571	1042.765	854.228
86.797	25.419	1041.902	852.726
87.812	25.369	1040.797	851.507
88.826	25.388	1039.828	850.730
89.841	25.500	1039.148	850.630
90.855	25.506	1038.224	849.826
91.870	25.371	1037.619	848.616
92.884	25.195	1036.386	846.703
93.899	25.242	1035.082	845.781
94.914	25.420	1034.105	845.749
95.928	25.253	1033.389	844.303
96.943	24.963	1032.010	841.739
97.957	24.772	1030.821	839.795
98.972	24.804	1029.543	838.831
99.987	24.892	1029.440	839.087
101.001	25.067	1028.490	839.058
102.016	25.113	1027.369	838.282
103.030	24.968	1026.560	836.872
104.045	24.803	1025.993	835.564
105.060	24.772	1025.034	834.567
106.074	24.774	1024.496	834.061
107.089	25.166	1023.624	835.107
108.103	25.077	1022.542	833.734
109.118	24.870	1021.185	831.594
110.133	24.922	1020.325	831.058
111.147	24.678	1019.093	828.849
112.162	24.535	1018.151	827.348
113.176	24.723	1017.480	827.602
114.191	24.817	1016.628	827.270
115.206	24.452	1015.422	824.527
116.220	24.458	1014.835	824.008
117.235	24.621	1013.799	823.845
118.249	24.632	1012.832	823.037
119.264	24.528	1011.912	821.737
120.279	24.434	1011.739	821.093
121.293	24.575	1010.956	821.033
122.308	24.579	1009.705	819.962
123.322	24.455	1009.040	818.781
124.337	24.309	1007.615	816.882
125.352	23.897	1005.761	813.423
126.366	23.820	1004.877	812.284
127.381	24.547	1005.107	815.723
128.395	25.008	1004.714	817.435
129.410	24.999	1003.870	816.634
130.424	25.103	1002.780	816.147
131.439	25.097	1002.080	815.480
132.454	25.100	1001.056	814.587
133.468	25.015	999.837	813.140
134.483	25.186	999.523	813.587
135.497	25.354	998.662	813.573
136.512	25.401	997.667	812.904
137.527	25.345	996.749	811.830
138.541	25.370	996.291	811.499
139.556	25.312	995.496	810.518
140.570	25.466	994.569	810.385
141.585	25.479	993.712	809.675
142.600	25.470	992.522	808.594
143.614	25.621	991.852	808.653
144.629	25.720	991.561	808.792
145.643	25.638	989.938	807.027
146.658	25.454	988.672	805.101
147.673	25.307	987.488	803.407
148.687	25.085	986.674	801.679
149.702	25.107	985.514	800.765
150.716	25.010	984.829	799.704
151.731	25.222	984.083	799.974
152.746	25.426	983.312	800.185
153.760	25.508	982.666	799.951
154.775	25.509	982.458	799.720
155.789	25.527	981.314	798.794
156.804	25.499	980.022	797.550
157.819	25.433	979.661	796.891
158.833	25.737	979.053	797.677
159.848	25.690	978.020	796.556
160.862	25.417	976.817	794.299
161.877	25.446	975.846	793.566
162.892	25.482	974.438	792.511
163.906	25.436	973.417	791.405
164.921	25.464	972.500	790.712
165.935	25.594	971.939	790.760
166.950	25.402	970.906	789.004
167.964	25.430	969.974	788.301
168.979	25.152	968.902	786.144
169.994	25.340	968.123	786.266
171.008	25.610	967.327	786.727
172.023	25.510	966.841	785.827
173.037	25.443	965.266	784.186
174.052	25.233	964.341	782.448
175.067	25.131	963.612	781.342
176.081	25.226	963.357	781.479
177.096	25.185	962.785	780.768
178.110	25.030	961.625	779.084
179.125	24.836	960.609	777.352
180.140	24.947	960.403	777.598
181.154	25.063	960.483	778.096
182.169	25.365	960.320	779.205
183.183	25.477	960.019	779.381
184.198	25.381	958.965	778.039
185.213	25.305	958.379	777.167
186.227	25.521	957.399	777.237
187.242	25.513	956.694	776.561
188.256	25.418	956.333	775.788
189.271	25.582	955.543	775.785
190.286	25.242	954.298	773.241
191.300	24.587	952.946	769.257
192.315	23.890	950.851	764.503
193.329	23.689	950.688	763.443
194.344	24.706	951.323	768.254
195.359	25.214	951.088	770.180
196.373	25.531	950.396	770.910
197.388	25.350	949.887	769.653
198.402	25.299	949.654	769.177
199.417	25.336	948.754	768.541
200.432	24.988	948.052	766.414
201.446	25.050	946.837	765.631
202.461	24.949	946.570	764.916
203.475	24.212	944.493	760.026
204.490	23.412	943.094	755.427
205.504	24.320	943.443	759.507
206.519	24.959	943.382	762.111
207.534	25.030	943.004	762.041
208.548	25.363	943.194	763.542
209.563	25.020	942.262	761.263
210.577	25.123	941.144	760.730
211.592	25.577	941.038	762.500
212.607	25.406	940.306	761.117
213.621	25.479	939.890	761.021
214.636	25.450	939.008	760.119
215.650	25.575	938.109	759.851
216.665	25.646	937.553	759.632
217.680	25.622	936.364	758.501
218.694	25.088	935.486	755.472
219.709	25.074	934.972	754.931
220.723	25.336	934.548	755.625
221.738	25.329	934.167	755.222
222.753	25.329	933.468	754.589
223.767	25.432	933.018	754.593
224.782	25.628	932.795	755.168
225.796	25.650	932.093	754.626
226.811	24.981	930.439	750.419
227.826	24.296	929.332	746.590
228.840	24.548	928.711	747.080
229.855	24.703	928.110	747.177
230.869	24.259	926.851	744.247
231.884	24.678	926.996	746.044
232.899	25.207	927.049	748.228
233.913	25.246	926.534	747.911
234.928	25.380	925.839	747.840
235.942	25.216	925.000	746.416
236.957	24.943	924.477	744.789
237.972	24.986	923.937	744.467
238.986	24.978	923.417	743.949
240.001	24.994	922.604	743.295
241.015	25.266	922.056	743.915
242.030	25.340	921.555	743.754
243.045	25.328	921.166	743.324
244.059	25.373	920.946	743.267
245.074	25.364	919.797	742.234
246.088	24.983	918.968	739.928
247.103	25.347	918.274	740.806
248.117	25.752	918.534	742.620
249.132	26.098	918.266	743.767
250.147	26.158	917.787	743.558
251.161	26.321	917.270	743.744
252.176	26.282	916.617	742.987
253.190	26.395	916.181	743.035
254.205	26.361	915.827	742.543
255.220	26.368	914.851	741.711
256.234	26.193	914.255	740.447
257.249	26.078	913.487	739.287
258.263	26.242	912.525	739.114
259.278	26.303	912.197	739.032
260.293	26.264	911.333	738.109
261.307	26.168	911.046	737.419
262.322	26.037	910.230	736.159
263.336	25.358	907.974	731.502
264.351	24.295	906.138	725.636
265.366	24.286	905.948	725.381
266.380	25.353	906.899	730.426
267.395	25.838	906.394	731.924
268.409	25.883	905.517	731.334
269.424	26.057	905.392	731.874
270.439	26.048	904.640	731.164
271.453	26.095	904.016	730.784
272.468	26.324	903.655	731.354
273.482	26.262	903.326	730.775
274.497	25.896	901.991	728.152
275.512	25.608	900.988	726.113
276.526	25.959	901.368	727.772
277.541	26.154	900.966	728.173
278.555	25.852	900.179	726.255
279.570	25.815	898.903	725.012
280.585	25.978	898.444	725.232
281.599	25.905	897.707	724.280
282.614	25.327	896.399	720.839
283.628	25.336	896.012	720.503
284.643	25.591	895.903	721.373
285.657	25.243	894.646	718.902
286.672	24.986	893.578	716.952
287.687	25.466	894.057	719.197
288.701	25.758	893.202	719.610
289.716	25.410	892.254	717.392
290.730	25.370	891.573	716.625
291.745	25.013	890.542	714.307
292.760	25.380	890.611	715.762
293.774	26.282	890.981	719.592
294.789	26.631	891.024	720.953
295.803	26.602	890.119	720.043
296.818	26.679	889.167	719.514
297.833	26.184	887.982	716.527
298.847	26.015	887.306	715.250
299.862	26.354	887.195	716.439
300.876	26.551	887.267	717.212
301.891	26.594	885.992	716.291
302.906	26.046	885.319	713.515
303.920	26.213	884.966	713.829
304.935	26.561	884.672	714.904
305.949	26.613	884.031	714.527
306.964	26.200	883.510	712.413
307.979	26.334	883.086	712.538
308.993	26.830	882.771	714.174
310.008	26.797	882.113	713.447
311.022	26.454	881.252	711.340
312.037	26.321	880.711	710.318
313.052	25.985	879.901	708.282
314.066	25.211	877.946	703.611
315.081	24.863	877.235	701.614
316.095	25.842	877.457	705.569
317.110	26.265	877.399	707.115
318.125	25.313	875.919	702.138
319.139	24.526	874.414	697.793
320.154	24.221	874.237	696.400
321.168	25.103	874.625	700.093
322.183	25.977	874.483	703.329
323.197	26.128	874.236	703.657
324.212	26.259	873.938	703.865
325.227	26.424	873.213	703.860
326.241	26.248	872.137	702.248
327.256	26.156	871.756	701.519
328.270	25.955	871.316	700.325
329.285	25.849	870.606	699.279
330.300	25.626	869.836	697.734
331.314	25.890	869.333	698.292
332.329	26.347	868.925	699.673
333.343	26.562	868.815	700.353
334.358	26.407	868.254	699.241
335.373	26.542	868.163	699.629
336.387	26.720	867.951	700.083
337.402	26.925	867.990	700.843
338.416	26.724	867.664	699.744
339.431	26.893	867.379	700.104
340.446	27.077	866.940	700.394
341.460	26.992	866.376	699.552
342.475	26.751	866.093	698.331
343.489	26.786	865.554	697.969
344.504	27.211	865.316	699.351
345.519	27.247	864.865	699.065
346.533	27.299	864.088	698.575
347.548	27.221	864.146	698.258
348.562	27.298	862.962	697.535
349.577	27.210	862.395	696.679
350.592	27.147	861.800	695.895
351.606	27.121	861.001	695.088
352.621	27.001	860.252	693.963
353.635	26.908	859.775	693.161
354.650	26.342	857.794	689.348
355.665	25.442	856.069	684.472
356.679	25.743	856.170	685.639
357.694	26.241	855.532	686.963
358.708	26.182	855.124	686.350
359.723	26.518	855.037	687.496
360.738	26.845	855.112	688.735
361.752	26.998	854.206	688.526
362.767	27.260	854.170	689.431
363.781	27.531	853.802	690.099
364.796	27.661	852.977	689.864
365.810	27.703	852.971	689.957
366.825	27.506	852.814	689.021
367.840	27.360	851.301	687.186
368.854	26.868	850.513	684.636
369.869	26.810	850.546	684.383
370.883	26.975	849.789	684.333
371.898	26.918	849.192	683.578
372.913	27.067	848.934	683.871
373.927	27.061	848.678	683.583
374.942	27.162	848.258	683.561
375.956	27.420	847.682	684.008
376.971	27.481	847.526	684.049
377.986	27.616	846.981	684.055
379.000	27.686	846.266	683.680
380.015	27.390	845.783	682.122
381.029	27.333	845.251	681.419
382.044	27.537	845.026	681.941
383.059	27.668	844.270	681.759
384.073	27.592	843.564	680.847
385.088	27.544	843.217	680.324
386.102	27.464	841.721	678.760
387.117	27.287	841.447	677.821
388.132	26.824	840.629	675.378
389.146	26.504	839.468	673.194
390.161	26.755	839.501	674.093
391.175	27.220	839.463	675.734
392.190	26.908	838.621	673.837
393.205	25.655	836.282	667.254
394.219	24.143	834.258	659.983
395.234	23.985	833.915	659.069
396.248	25.547	835.636	666.164
397.263	27.004	836.695	672.346
398.278	27.142	835.786	672.069
399.292	26.819	835.473	670.561
400.307	26.682	835.038	669.646
401.321	26.970	834.617	670.313
402.336	27.268	834.600	671.340
403.350	27.727	834.453	672.857
404.365	27.971	834.474	673.714
405.380	28.307	833.895	674.427
406.394	28.258	833.323	673.723
407.409	28.179	833.083	673.177
408.423	28.189	832.779	672.909
409.438	28.276	832.407	672.868
410.453	28.499	831.373	672.791
411.467	28.291	831.049	671.709
412.482	28.183	830.599	670.888
413.496	28.301	830.544	671.217
414.511	28.390	829.984	671.031
415.526	28.326	829.239	670.135
416.540	28.170	828.665	669.043
417.555	27.966	827.968	667.674
418.569	28.110	827.443	667.718
419.584	27.960	827.133	666.862
420.599	27.727	826.422	665.380
421.613	94.974	1267.329	1378.986
422.628	81.987	1331.593	1379.100
