DTS Sentinel unit serial number:	SN413079Multiplexer serial number:	ORYXHardware model number:	OX4-SRSoftware version number:	ORYX F/W v4.00 Oryx Data Collector v3.7.2.0data status	okinstallation	princeton_trtdifferential loss correction	single-endedforward channel	channel 1reverse channel	N/Adate	2019/09/17time	03:22:35forward acquisition time	60.00reverse acquisition time	0.00gamma	496.2192k internal	0.2323k external	0.2323temperature offset calibration	0.9962default loss term (dB/km)	0.3790temperature slope calibration	1.0000multiplexer offset coefficient	1.0000multiplexer slope coefficient	1.0000fibre end	0.00T internal ref (°C)	30.00T ext. ref 1 (°C)	0.14T ext. ref 2 (°C)	24.84length (m)	temperature (°C)	Stokes	anti-Stokes-747.200	-200.000	0.014	0.312
-746.185	199.861	-0.167	0.259
-745.171	665.553	0.030	0.079
-744.156	310.568	-0.151	0.286
-743.142	60.375	0.090	-0.090
-742.127	-107.928	0.100	0.022
-741.112	193.445	-0.170	0.259
-740.098	-50.008	0.118	-0.057
-739.083	61.409	-0.202	0.202
-738.069	-8.122	0.268	0.182
-737.054	36.638	-0.133	-0.119
-736.039	143.239	-0.070	0.094
-735.025	-100.779	-0.235	-0.059
-734.010	800.000	-0.025	-0.083
-732.996	-200.000	-0.003	-0.290
-731.981	-69.855	-0.375	-0.144
-730.966	-200.000	-0.069	-0.309
-729.952	800.000	-0.079	0.255
-728.937	-127.811	-0.238	-0.035
-727.923	-163.667	-0.234	-0.011
-726.908	-161.421	-0.117	-0.006
-725.894	-73.098	-0.299	0.111
-724.879	6.674	0.120	-0.090
-723.864	-72.586	-0.186	-0.069
-722.850	800.000	0.037	-0.150
-721.835	-200.000	0.054	0.264
-720.821	-74.024	-0.277	0.101
-719.806	338.482	-0.179	-0.353
-718.791	-117.996	-0.145	0.026
-717.777	658.649	0.088	0.229
-716.762	-200.000	-0.059	0.463
-715.748	275.526	0.036	0.064
-714.733	-134.563	0.270	-0.033
-713.718	-35.344	0.364	0.200
-712.704	-16.234	-0.225	0.144
-711.689	-183.994	0.098	0.002
-710.675	222.828	-0.019	-0.031
-709.660	798.082	0.054	0.151
-708.645	800.000	-0.017	0.072
-707.631	-107.207	-0.293	0.065
-706.616	19.140	0.200	0.162
-705.602	-200.000	0.015	-0.190
-704.587	-200.000	-0.019	0.207
-703.572	-117.284	-0.115	-0.021
-702.558	116.275	-0.123	0.152
-701.543	800.000	0.013	-0.048
-700.529	87.984	-0.109	0.121
-699.514	1.492	-0.233	-0.169
-698.499	134.272	-0.240	0.313
-697.485	-63.411	-0.051	0.021
-696.470	-45.533	0.014	-0.007
-695.456	-200.000	0.018	-0.259
-694.441	50.248	-0.290	-0.276
-693.426	65.166	-0.121	-0.123
-692.412	286.631	-0.201	-0.366
-691.397	40.275	0.129	0.117
-690.383	-87.292	0.182	0.056
-689.368	800.000	-0.082	-0.342
-688.354	9.931	0.081	0.062
-687.339	-47.082	0.284	-0.140
-686.324	-200.000	0.002	0.214
-685.310	144.926	-0.210	-0.282
-684.295	-200.000	-0.022	-0.104
-683.281	645.124	-0.119	0.305
-682.266	-107.889	-0.106	-0.023
-681.251	-200.000	0.005	-0.143
-680.237	172.915	-0.132	0.192
-679.222	1.215	0.120	-0.087
-678.208	224.307	-0.101	0.164
-677.193	139.208	0.254	-0.336
-676.178	278.641	0.093	-0.167
-675.164	-14.742	0.046	-0.030
-674.149	353.999	0.066	-0.132
-673.135	-153.176	0.111	-0.008
-672.120	23.543	0.218	0.181
-671.105	625.680	-0.119	-0.301
-670.091	800.000	-0.134	-0.380
-669.076	-19.287	0.257	0.161
-668.062	-61.219	0.085	0.036
-667.047	185.563	-0.069	-0.104
-666.032	-109.054	-0.468	0.100
-665.018	175.776	-0.089	0.130
-664.003	-56.052	-0.237	0.106
-662.989	-92.184	0.235	-0.067
-661.974	-61.349	-0.283	-0.120
-660.959	196.778	0.078	0.120
-659.945	-55.718	-0.140	0.063
-658.930	595.481	0.055	-0.136
-657.916	800.000	0.023	0.087
-656.901	800.000	0.032	0.106
-655.886	-126.226	-0.081	0.012
-654.872	61.738	0.127	0.127
-653.857	234.087	-0.111	-0.185
-652.843	-20.398	-0.095	-0.059
-651.828	-200.000	0.010	0.133
-650.814	319.694	-0.145	0.277
-649.799	-7.784	-0.225	0.153
-648.784	316.195	0.128	0.243
-647.770	-71.448	0.082	0.031
-646.755	-200.000	0.017	0.286
-645.741	-132.347	-0.467	-0.061
-644.726	800.000	0.086	-0.248
-643.711	131.777	0.192	0.248
-642.697	-64.054	-0.072	0.029
-641.682	-200.000	0.006	-0.212
-640.668	-27.656	0.367	-0.215
-639.653	-200.000	0.004	0.050
-638.638	-200.000	0.062	0.391
-637.624	-83.989	-0.205	0.065
-636.609	210.830	0.108	-0.171
-635.595	-119.458	0.228	-0.040
-634.580	2.170	0.145	-0.105
-633.565	-77.228	-0.062	-0.022
-632.551	-81.869	-0.224	0.074
-631.536	-124.285	-0.064	0.010
-630.522	352.432	-0.050	-0.099
-629.507	-95.935	-0.262	-0.070
-628.492	-149.022	-0.081	0.007
-627.478	-200.000	-0.008	0.308
-626.463	-33.803	-0.040	-0.022
-625.449	10.719	0.469	0.360
-624.434	-42.494	-0.137	0.070
-623.419	-103.655	-0.398	-0.094
-622.405	-66.725	-0.224	-0.089
-621.390	16.790	0.186	0.148
-620.376	-103.835	-0.211	-0.050
-619.361	-136.060	0.153	0.018
-618.346	-94.929	0.143	-0.039
-617.332	121.965	-0.092	-0.115
-616.317	-7.372	0.335	-0.228
-615.303	-106.875	0.123	0.027
-614.288	167.140	0.200	-0.285
-613.273	-8.890	-0.243	0.163
-612.259	-7.123	-0.188	-0.128
-611.244	60.123	-0.051	-0.050
-610.230	55.235	-0.196	-0.191
-609.215	-200.000	0.013	0.239
-608.201	800.000	0.034	0.136
-607.186	-200.000	-0.017	-0.161
-606.171	138.020	-0.215	0.283
-605.157	49.058	0.110	0.103
-604.142	800.000	-0.060	0.257
-603.128	800.000	-0.045	-0.195
-602.113	-24.502	0.037	-0.022
-601.098	-200.000	0.037	-0.267
-600.084	-112.315	0.116	0.023
-599.069	-61.786	-0.252	0.106
-598.055	800.000	0.059	-0.204
-597.040	-141.713	-0.095	0.010
-596.025	-159.427	-0.066	-0.004
-595.011	131.774	0.183	0.236
-593.996	79.054	0.213	0.229
-592.982	-41.007	0.015	-0.008
-591.967	130.824	0.181	-0.233
-590.952	-154.266	0.074	0.005
-589.938	800.000	-0.089	-0.280
-588.923	251.471	-0.069	0.118
-587.909	-98.074	-0.243	0.063
-586.894	244.392	0.207	0.349
-585.879	66.053	0.249	0.253
-584.865	15.366	-0.219	0.173
-583.850	-200.000	0.022	0.353
-582.836	-46.966	-0.222	-0.109
-581.821	181.959	0.131	0.193
-580.806	-104.734	-0.220	-0.051
-579.792	194.269	-0.152	0.231
-578.777	60.116	0.355	-0.352
-577.763	-65.138	-0.069	-0.028
-576.748	-200.000	0.028	-0.420
-575.733	-200.000	0.016	-0.147
-574.719	317.806	0.143	-0.271
-573.704	32.288	-0.332	0.287
-572.690	-45.959	0.275	-0.136
-571.675	60.834	-0.137	-0.136
-570.661	165.326	-0.073	0.103
-569.646	-97.538	0.247	-0.064
-568.631	-84.340	0.285	0.091
-567.617	-173.159	0.354	0.011
-566.602	93.015	0.071	-0.080
-565.588	63.055	0.384	-0.386
-564.573	352.310	0.106	-0.210
-563.558	-114.967	0.500	-0.095
-562.544	24.638	-0.183	0.152
-561.529	-28.261	0.213	-0.123
-560.515	-95.518	-0.291	-0.078
-559.500	8.517	0.236	-0.178
-558.485	-107.676	-0.201	-0.044
-557.471	131.507	-0.106	-0.136
-556.456	-17.186	0.234	-0.148
-555.442	-110.902	-0.238	-0.049
-554.427	-131.786	-0.224	-0.029
-553.412	80.736	0.129	-0.140
-552.398	159.817	-0.143	-0.200
-551.383	-200.000	0.048	-0.228
-550.369	54.809	0.078	-0.076
-549.354	-52.126	0.117	0.055
-548.339	17.467	-0.136	-0.108
-547.325	-101.212	0.325	0.080
-546.310	-94.425	0.277	-0.076
-545.296	-47.955	-0.122	-0.059
-544.281	16.684	-0.107	-0.085
-543.266	82.045	-0.058	0.063
-542.252	-200.000	-0.041	-0.208
-541.237	-109.674	-0.242	0.051
-540.223	298.822	-0.035	-0.064
-539.208	800.000	0.081	-0.329
-538.193	34.959	-0.301	-0.264
-537.179	-147.900	0.194	0.016
-536.164	4.594	-0.044	0.032
-535.150	-18.980	-0.191	-0.119
-534.135	37.146	-0.075	-0.067
-533.121	800.000	-0.121	-0.395
-532.106	-200.000	-0.010	-0.130
-531.091	349.285	-0.205	-0.406
-530.077	-200.000	0.029	0.188
-529.062	-100.663	-0.317	0.078
-528.048	-200.000	0.035	0.368
-527.033	-200.000	0.053	0.328
-526.018	-69.234	-0.290	0.112
-525.004	-91.767	-0.115	-0.033
-523.989	-191.593	-0.062	-0.001
-522.975	-39.139	-0.205	0.108
-521.960	477.162	-0.090	0.205
-520.945	-85.252	-0.462	-0.145
-519.931	800.000	-0.148	0.458
-518.916	-126.701	-0.214	-0.032
-517.902	-163.422	0.069	-0.003
-516.887	82.606	-0.190	0.207
-515.872	800.000	0.044	0.168
-514.858	-141.481	0.080	0.008
-513.843	146.613	-0.129	0.173
-512.829	54.893	-0.155	0.150
-511.814	684.259	-0.051	0.132
-510.799	4.724	0.112	0.082
-509.785	120.207	-0.113	-0.141
-508.770	-157.339	0.127	-0.008
-507.756	43.853	0.361	-0.331
-506.741	-200.000	-0.071	-0.369
-505.726	50.349	0.105	-0.099
-504.712	1.189	0.081	-0.058
-503.697	114.917	-0.137	-0.167
-502.683	800.000	0.105	0.298
-501.668	-43.012	-0.181	0.092
-500.653	800.000	-0.126	-0.422
-499.639	15.142	0.145	0.114
-498.624	126.866	-0.213	-0.270
-497.610	-84.059	0.273	-0.087
-496.595	-124.182	-0.141	-0.022
-495.581	104.138	-0.140	0.165
-494.566	-122.774	-0.298	0.048
-493.551	-200.000	0.030	0.138
-492.537	-42.770	0.046	-0.023
-491.522	133.269	0.080	0.104
-490.508	-98.551	-0.144	0.037
-489.493	-47.910	-0.268	0.130
-488.478	28.443	0.225	0.190
-487.464	-90.444	-0.248	-0.072
-486.449	19.667	0.163	-0.131
-485.435	800.000	0.047	0.135
-484.420	-200.000	-0.018	0.144
-483.405	-200.000	-0.001	-0.161
-482.391	132.172	-0.136	0.175
-481.376	71.249	0.066	0.068
-480.362	-149.680	-0.107	-0.008
-479.347	91.205	0.162	0.182
-478.332	-47.957	0.090	0.044
-477.318	-49.847	0.233	0.111
-476.303	-128.103	-0.077	0.011
-475.289	26.994	-0.409	-0.343
-474.274	-40.399	-0.134	0.070
-473.259	800.000	-0.067	0.199
-472.245	-140.966	-0.160	0.016
-471.230	-108.665	-0.380	-0.081
-470.216	38.045	0.130	-0.116
-469.201	-200.000	0.005	0.093
-468.186	-99.046	0.090	-0.023
-467.172	18.769	-0.294	0.235
-466.157	-200.000	-0.022	-0.177
-465.143	-115.373	0.089	0.017
-464.128	-178.015	0.467	-0.011
-463.113	800.000	0.016	0.059
-462.099	-200.000	0.010	0.078
-461.084	-200.000	-0.043	0.291
-460.070	-83.590	0.381	0.122
-459.055	-200.000	-0.010	0.087
-458.040	-75.816	0.266	0.094
-457.026	-200.000	0.000	0.137
-456.011	79.513	-0.295	0.316
-454.997	22.039	0.177	0.144
-453.982	-169.149	-0.273	0.010
-452.968	-76.150	-0.325	-0.114
-451.953	-200.000	-0.014	-0.306
-450.938	-200.000	-0.005	-0.072
-449.924	-25.560	0.021	0.012
-448.909	-68.045	0.149	0.058
-447.895	253.189	0.059	-0.100
-446.880	515.308	-0.153	0.356
-445.865	-135.166	0.036	0.004
-444.851	2.983	0.194	-0.140
-443.836	172.389	-0.046	0.065
-442.822	412.170	-0.196	-0.415
-441.807	53.614	-0.105	-0.100
-440.792	-9.697	0.155	-0.103
-439.778	-109.477	0.255	0.054
-438.763	-144.287	0.225	0.021
-437.749	-11.236	0.306	-0.201
-436.734	-200.000	-0.003	-0.033
-435.719	800.000	-0.106	-0.334
-434.705	22.826	-0.302	0.247
-433.690	82.311	0.120	-0.129
-432.676	-116.599	0.254	-0.047
-431.661	-115.866	0.335	-0.062
-430.646	83.229	-0.091	-0.099
-429.632	118.080	0.062	-0.076
-428.617	-200.000	0.083	0.417
-427.603	800.000	0.058	-0.177
-426.588	800.000	-0.028	0.096
-425.573	509.490	-0.070	0.162
-424.559	-91.317	0.407	-0.116
-423.544	82.029	-0.356	0.385
-422.530	-90.304	0.180	-0.052
-421.515	-53.040	-0.186	-0.085
-420.500	-76.847	0.227	-0.079
-419.486	117.028	0.202	-0.248
-418.471	-200.000	-0.028	-0.141
-417.457	143.813	-0.214	0.285
-416.442	800.000	-0.025	-0.109
-415.428	800.000	-0.068	-0.231
-414.413	800.000	-0.121	-0.383
-413.398	-94.953	0.194	0.052
-412.384	-200.000	0.016	-0.347
-411.369	324.714	-0.087	0.166
-410.355	-200.000	-0.102	-0.472
-409.340	-4.811	-0.246	0.169
-408.325	506.095	-0.086	-0.198
-407.311	-155.693	-0.341	-0.022
-406.296	-200.000	-0.031	-0.250
-405.282	57.702	-0.203	-0.198
-404.267	800.000	-0.091	0.271
-403.252	699.797	0.166	0.436
-402.238	40.344	0.091	-0.082
-401.223	173.245	-0.018	0.026
-400.209	-11.194	-0.198	0.130
-399.194	74.835	-0.177	-0.185
-398.179	800.000	-0.093	-0.396
-397.165	350.721	0.155	0.305
-396.150	159.779	0.248	0.344
-395.136	-57.474	0.258	-0.113
-394.121	-11.968	-0.088	0.058
-393.106	40.051	0.125	0.112
-392.092	401.300	0.179	0.373
-391.077	114.874	-0.109	0.132
-390.063	142.264	0.130	0.172
-389.048	-38.733	-0.119	-0.063
-388.033	159.588	0.267	0.369
-387.019	165.831	0.206	-0.290
-386.004	-163.872	0.454	-0.021
-384.990	84.673	-0.094	-0.103
-383.975	-121.763	0.228	0.038
-382.960	-83.909	0.290	-0.092
-381.946	2.944	0.114	-0.083
-380.931	73.008	0.275	0.286
-379.917	159.094	-0.122	-0.169
-378.902	-39.475	0.095	0.050
-377.888	-146.262	0.029	0.002
-376.873	-42.416	0.163	-0.083
-375.858	-131.133	0.211	0.028
-374.844	-31.079	0.269	-0.151
-373.829	751.906	0.071	0.191
-372.815	-149.123	-0.095	0.008
-371.800	136.329	-0.136	0.176
-370.785	109.617	-0.068	0.081
-369.771	-68.999	0.122	-0.047
-368.756	-97.749	-0.273	-0.070
-367.742	400.444	-0.131	-0.274
-366.727	-78.669	0.069	0.023
-365.712	-200.000	0.081	-0.555
-364.698	-200.000	0.004	-0.103
-363.683	299.436	-0.014	-0.026
-362.669	88.414	-0.153	-0.169
-361.654	482.195	0.049	-0.110
-360.639	9.029	-0.153	-0.115
-359.625	276.462	-0.056	0.098
-358.610	4.659	0.191	-0.140
-357.596	-64.024	0.273	0.111
-356.581	15.488	-0.159	-0.124
-355.566	299.728	-0.034	0.062
-354.552	489.752	0.063	-0.144
-353.537	-200.000	-0.021	0.303
-352.523	379.929	-0.070	0.142
-351.508	85.925	-0.198	-0.217
-350.493	194.653	-0.128	0.192
-349.479	337.298	0.166	0.321
-348.464	3.936	-0.107	0.078
-347.450	-112.532	-0.156	-0.031
-346.435	-186.440	0.040	-0.001
-345.420	-200.000	-0.017	-0.112
-344.406	-200.000	0.008	0.377
-343.391	113.194	0.237	0.286
-342.377	-6.010	-0.427	0.291
-341.362	-200.000	-0.002	0.206
-340.348	251.829	-0.042	0.070
-339.333	538.809	0.040	-0.096
-338.318	35.239	0.318	0.277
-337.304	-85.697	0.072	0.022
-336.289	41.726	0.127	-0.114
-335.275	185.492	-0.121	0.178
-334.260	-114.997	0.251	0.047
-333.245	752.761	0.070	-0.189
-332.231	30.921	0.042	0.036
-331.216	-127.850	0.094	0.013
-330.202	-46.956	-0.139	0.067
-329.187	-18.134	0.381	0.237
-328.172	800.000	0.021	-0.090
-327.158	760.676	-0.153	-0.413
-326.143	-200.000	-0.036	-0.289
-325.129	-200.000	0.014	-0.075
-324.114	194.516	0.047	0.070
-323.099	-51.110	-0.020	-0.009
-322.085	711.761	-0.055	0.145
-321.070	212.449	0.245	-0.384
-320.056	73.213	0.080	0.083
-319.041	-125.937	0.281	-0.042
-318.026	166.716	0.056	-0.079
-317.012	0.941	0.078	0.056
-315.997	-200.000	-0.041	-0.178
-314.983	112.445	-0.193	0.231
-313.968	-200.000	0.027	0.231
-312.953	-133.790	-0.276	-0.034
-311.939	50.541	-0.124	-0.117
-310.924	44.382	0.192	-0.175
-309.910	-167.513	0.209	-0.008
-308.895	-19.695	-0.222	0.136
-307.880	-200.000	0.015	0.124
-306.866	-106.032	-0.277	-0.062
-305.851	299.941	-0.037	0.067
-304.837	48.437	-0.067	0.062
-303.822	682.619	-0.095	-0.246
-302.807	-101.123	-0.167	0.041
-301.793	-172.885	-0.370	-0.011
-300.778	114.193	0.143	-0.172
-299.764	-66.718	-0.077	0.030
-298.749	211.314	-0.136	0.212
-297.735	-132.327	0.087	0.011
-296.720	259.162	-0.130	-0.223
-295.705	-122.203	0.158	0.026
-294.691	-61.496	0.221	0.092
-293.676	-61.741	-0.366	-0.152
-292.662	502.438	0.132	-0.304
-291.647	-93.906	-0.364	0.099
-290.632	-138.229	0.254	-0.028
-289.618	217.164	0.193	-0.305
-288.603	-110.521	0.134	-0.028
-287.589	-200.000	0.003	-0.121
-286.574	33.120	0.167	0.144
-285.559	-200.000	0.423	0.002
-284.545	-126.989	-0.227	0.033
-283.530	115.302	0.185	0.224
-282.516	39.288	-0.114	-0.101
-281.501	15.290	-0.115	0.089
-280.486	294.472	0.109	-0.197
-279.472	35.131	0.279	0.242
-278.457	-63.721	-0.129	-0.052
-277.443	-105.120	-0.242	0.055
-276.428	-178.904	-0.144	0.003
-275.413	36.838	0.277	0.243
-274.399	-200.000	-0.006	-0.071
-273.384	-171.915	-0.257	-0.008
-272.370	-59.523	0.165	-0.070
-271.355	22.331	-0.342	0.277
-270.340	19.689	0.259	-0.207
-269.326	382.280	-0.046	-0.095
-268.311	120.927	0.073	0.090
-267.297	-111.610	-0.364	0.073
-266.282	-113.173	0.313	-0.061
-265.267	-72.928	0.286	-0.104
-264.253	-67.066	-0.114	-0.045
-263.238	-200.000	0.002	-0.038
-262.224	-149.891	0.061	0.005
-261.209	-164.811	0.101	0.004
-260.195	-49.117	0.126	-0.060
-259.180	-200.000	-0.028	0.130
-258.165	-138.761	-0.163	0.018
-257.151	-120.136	0.102	0.017
-256.136	-120.051	-0.036	-0.006
-255.122	-95.539	-0.429	-0.114
-254.107	-104.816	-0.302	0.069
-253.092	3.703	-0.043	0.031
-252.078	345.539	-0.150	0.292
-251.063	-114.835	0.087	-0.016
-250.049	-39.188	-0.108	-0.056
-249.034	-200.000	-0.023	-0.222
-248.019	-200.000	0.022	-0.179
-247.005	-156.667	0.227	-0.014
-245.990	-62.277	-0.081	0.033
-244.976	-166.796	0.223	0.009
-243.961	253.888	-0.100	0.169
-242.946	-200.000	0.008	0.262
-241.932	800.000	-0.019	-0.080
-240.917	-200.000	0.054	0.484
-239.903	99.611	-0.139	-0.159
-238.888	291.098	-0.154	0.277
-237.873	25.230	0.053	-0.044
-236.859	800.000	-0.070	-0.261
-235.844	-200.000	0.010	0.143
-234.830	131.213	-0.125	-0.159
-233.815	800.000	-0.070	-0.245
-232.800	50.997	-0.253	-0.237
-231.786	-75.185	-0.304	0.107
-230.771	-112.810	-0.286	-0.056
-229.757	-10.050	0.276	0.182
-228.742	155.563	-0.233	0.317
-227.727	-200.000	-0.010	0.267
-226.713	-62.591	-0.472	-0.194
-225.698	98.778	0.127	-0.145
-224.684	-142.714	0.354	0.034
-223.669	-124.376	-0.186	-0.029
-222.655	500.456	-0.111	-0.252
-221.640	-200.000	0.022	-0.189
-220.625	-74.762	-0.183	-0.065
-219.611	-145.377	-0.273	-0.024
-218.596	459.911	0.071	-0.156
-217.582	487.691	-0.165	0.373
-216.567	-67.606	-0.295	0.114
-215.552	-200.000	0.011	0.126
-214.538	-135.424	-0.207	0.024
-213.523	-167.151	-0.217	0.009
-212.509	-131.708	0.148	0.019
-211.494	-75.775	0.326	0.114
-210.479	64.705	-0.178	-0.178
-209.465	55.577	0.213	0.204
-208.450	800.000	0.054	-0.177
-207.436	800.000	-0.004	0.016
-206.421	472.710	0.020	-0.043
-205.406	1.555	-0.228	-0.162
-204.392	-200.000	-0.028	0.416
-203.377	-139.517	-0.009	-0.001
-202.363	-88.821	-0.074	0.022
-201.348	-200.000	-0.022	-0.201
-200.333	-34.423	0.179	0.097
-199.319	-136.653	0.064	-0.007
-198.304	367.679	0.225	0.450
-197.290	-200.000	0.007	0.194
-196.275	-200.000	0.025	0.110
-195.260	421.079	0.016	-0.035
-194.246	-200.000	0.011	0.425
-193.231	78.280	-0.150	-0.158
-192.217	-38.235	0.331	-0.173
-191.202	-97.356	0.219	0.056
-190.187	-124.489	0.078	-0.012
-189.173	28.255	0.198	0.165
-188.158	84.456	0.131	-0.141
-187.144	143.190	0.084	-0.110
-186.129	51.547	-0.261	-0.245
-185.114	364.242	-0.062	0.123
-184.100	-200.000	-0.022	0.367
-183.085	108.542	-0.107	-0.126
-182.071	-200.000	-0.032	0.364
-181.056	-200.000	-0.011	-0.163
-180.042	-31.880	0.189	0.104
-179.027	-200.000	-0.031	0.382
-178.012	91.066	-0.072	0.080
-176.998	487.270	0.083	-0.188
-175.983	-8.427	-0.278	-0.185
-174.969	129.907	0.120	0.152
-173.954	-200.000	0.022	-0.167
-172.939	391.692	-0.133	-0.273
-171.925	-40.090	0.248	0.128
-170.910	-200.000	0.017	-0.089
-169.896	-42.148	0.062	-0.031
-168.881	12.758	-0.268	-0.205
-167.866	-85.545	0.424	-0.130
-166.852	16.013	0.152	0.118
-165.837	637.086	0.160	-0.401
-164.823	375.384	0.056	0.113
-163.808	82.643	0.136	-0.146
-162.793	800.000	0.067	0.196
-161.779	58.201	-0.148	0.143
-160.764	-29.968	0.302	-0.170
-159.750	237.516	0.112	0.183
-158.735	-2.721	-0.118	-0.082
-157.720	-95.364	0.125	-0.033
-156.706	712.274	-0.077	-0.201
-155.691	-116.981	-0.132	0.024
-154.677	-145.509	0.127	0.011
-153.662	-48.642	0.398	0.189
-152.647	390.616	0.087	0.178
-151.633	493.654	0.066	-0.149
-150.618	-114.287	0.391	-0.074
-149.604	-12.344	0.108	-0.070
-148.589	-40.040	-0.078	0.040
-147.574	-147.666	0.241	0.020
-146.560	-8.139	-0.013	0.009
-145.545	-200.000	0.031	0.139
-144.531	2.996	-0.292	0.210
-143.516	77.711	0.166	0.175
-142.502	-200.000	-0.231	-0.001
-141.487	106.416	-0.169	-0.197
-140.472	777.690	-0.107	-0.288
-139.458	-200.000	0.003	0.125
-138.443	-32.567	-0.213	-0.117
-137.429	-133.190	-0.439	-0.055
-136.414	30.687	0.078	0.066
-135.399	288.926	0.109	-0.195
-134.385	-176.652	0.483	-0.012
-133.370	26.979	-0.250	-0.207
-132.356	-100.108	-0.390	-0.096
-131.341	148.318	0.051	-0.068
-130.326	-200.000	-0.027	-0.299
-129.312	101.634	-0.159	-0.183
-128.297	-95.587	0.280	-0.074
-127.283	-200.000	-0.043	0.278
-126.268	20.110	0.326	0.260
-125.253	-200.000	0.023	0.232
-124.239	44.363	-0.329	0.298
-123.224	-46.485	-0.173	-0.084
-122.210	56.387	-0.179	0.172
-121.195	155.616	0.338	-0.459
-120.180	116.289	0.116	-0.140
-119.166	-119.679	-0.215	-0.037
-118.151	44.742	-0.099	-0.090
-117.137	-200.000	0.012	0.228
-116.122	-14.651	0.184	-0.117
-115.107	-99.004	0.201	0.050
-114.093	800.000	0.019	0.066
-113.078	18.415	0.199	-0.156
-112.064	137.336	-0.112	0.144
-111.049	-75.922	0.247	-0.086
-110.034	-71.774	0.163	0.060
-109.020	-200.000	0.082	0.375
-108.005	-171.653	0.184	-0.006
-106.991	-200.000	0.014	0.120
-105.976	-155.453	-0.042	-0.003
-104.962	96.640	-0.216	-0.244
-103.947	-55.896	0.396	-0.174
-102.932	-63.701	-0.347	0.140
-101.918	-137.816	-0.188	0.021
-100.903	-116.157	0.326	-0.060
-99.889	-200.000	-0.061	-0.469
-98.874	10.335	0.080	-0.060
-97.859	-17.398	0.196	-0.122
-96.845	21.065	0.095	-0.076
-95.830	-61.268	0.257	-0.107
-94.816	-155.907	-0.156	-0.010
-93.801	-200.000	0.045	0.332
-92.786	-20.256	-0.302	0.183
-91.772	-1.298	-0.442	-0.307
-90.757	36.532	0.125	-0.109
-89.743	-19.429	0.028	-0.017
-88.728	-200.000	0.005	0.262
-87.713	121.910	0.190	-0.234
-86.699	459.192	-0.034	-0.075
-85.684	4.322	-0.067	-0.048
-84.670	800.000	0.103	0.352
-83.655	202.150	0.070	0.107
-82.640	-79.439	0.168	0.056
-81.626	147.504	-0.178	-0.236
-80.611	-82.304	0.204	-0.065
-79.597	27.252	-0.074	-0.061
-78.582	178.153	0.062	-0.089
-77.567	15.022	-0.270	0.208
-76.553	-89.738	-0.274	0.079
-75.538	-89.868	0.288	-0.083
-74.524	156.603	0.154	-0.210
-73.509	-200.000	0.085	-0.511
-72.494	148.996	0.194	0.259
-71.480	-164.071	-0.182	0.008
-70.465	80.334	0.190	-0.202
-69.451	-74.737	-0.399	0.141
-68.436	-7.638	0.094	0.062
-67.422	-133.315	-0.160	0.020
-66.407	-200.000	0.036	-0.228
-65.392	-81.919	-0.124	0.040
-64.378	-169.234	0.401	0.015
-63.363	-56.596	0.241	0.105
-62.349	229.221	-0.106	-0.171
-61.334	134.659	-0.830	-1.060
-60.319	323.315	0.310	0.581
-59.305	794.825	-0.374	-1.013
-58.290	169.710	0.652	0.916
-57.276	800.000	0.456	1.695
-56.261	-200.000	105.541	575.862
-55.246	461.402	1455.316	3190.029
-54.232	149.892	2638.860	3517.235
-53.217	107.728	2157.410	2525.267
-52.203	41.756	1604.083	1429.054
-51.188	33.638	1341.342	1146.132
-50.173	30.361	1300.275	1091.761
-49.159	53.201	1351.967	1272.724
-48.144	54.214	1367.972	1293.817
-47.130	33.632	1324.009	1131.108
-46.115	30.134	1306.326	1095.330
-45.100	30.056	1300.987	1090.350
-44.086	29.859	1299.136	1087.595
-43.071	29.883	1296.606	1085.576
-42.057	29.827	1294.699	1083.607
-41.042	29.912	1292.576	1082.288
-40.027	29.847	1291.607	1081.049
-39.013	29.877	1289.445	1079.374
-37.998	29.912	1288.023	1078.346
-36.984	30.029	1285.657	1077.001
-35.969	29.932	1284.086	1075.083
-34.954	30.058	1282.623	1074.542
-33.940	30.059	1281.167	1073.289
-32.925	30.112	1279.960	1072.540
-31.911	30.111	1278.599	1071.352
-30.896	30.075	1277.150	1069.884
-29.881	30.097	1275.693	1068.752
-28.867	30.019	1274.367	1067.151
-27.852	30.217	1272.826	1066.952
-26.838	30.145	1271.487	1065.375
-25.823	30.139	1270.158	1064.185
-24.809	30.081	1268.909	1062.766
-23.794	29.931	1268.180	1061.254
-22.779	30.064	1266.566	1060.619
-21.765	30.124	1265.201	1059.781
-20.750	30.028	1263.911	1058.110
-19.736	30.055	1262.429	1056.978
-18.721	29.973	1261.385	1055.597
-17.706	29.953	1260.334	1054.561
-16.692	29.850	1259.201	1052.981
-15.677	29.931	1258.147	1052.519
-14.663	30.001	1257.171	1052.059
-13.648	29.895	1256.170	1050.580
-12.633	29.987	1254.653	1049.789
-11.619	29.885	1253.871	1048.516
-10.604	29.988	1252.816	1048.177
-9.590	29.953	1251.997	1047.249
-8.575	29.900	1250.706	1045.831
-7.560	29.951	1250.572	1045.965
-6.546	30.004	1249.296	1045.155
-5.531	29.902	1248.683	1044.026
-4.517	30.087	1247.664	1044.175
-3.502	29.978	1246.742	1042.751
-2.487	29.910	1246.063	1041.757
-1.473	29.917	1241.876	1038.254
-0.458	28.569	1226.658	1018.013
0.556	23.374	1210.504	981.258
1.571	19.931	1216.524	966.857
2.586	19.146	1230.671	973.576
3.600	18.948	1220.182	964.080
4.615	14.030	1147.110	880.283
5.629	5.052	1070.643	776.972
6.644	0.470	1051.074	740.260
7.659	0.104	1048.897	736.867
8.673	0.011	1047.857	735.616
9.688	-0.043	1046.377	734.250
10.702	0.296	1044.288	734.371
11.717	5.620	1051.793	765.665
12.731	14.215	1062.921	816.006
13.746	17.645	1066.556	835.568
14.761	17.136	1064.742	831.583
15.775	16.112	1062.967	825.116
16.790	15.006	1061.111	818.196
17.804	14.257	1059.302	813.074
18.819	14.070	1058.071	811.141
19.834	13.704	1057.079	808.526
20.848	13.470	1056.089	806.556
21.863	13.296	1055.748	805.377
22.877	13.118	1054.592	803.561
23.892	13.132	1054.078	803.164
24.907	13.043	1053.635	802.326
25.921	13.032	1052.885	801.628
26.936	13.101	1051.780	801.050
27.950	13.160	1050.501	800.291
28.965	13.289	1049.676	800.215
29.980	13.356	1047.968	799.170
30.994	13.185	1047.767	798.118
32.009	13.347	1046.247	797.668
33.023	13.285	1045.721	796.901
34.038	13.190	1044.647	795.552
35.053	13.352	1043.758	795.584
36.067	13.176	1043.116	794.180
37.082	13.260	1041.604	793.363
38.096	13.282	1041.124	793.032
39.111	13.387	1040.248	792.795
40.126	13.246	1039.159	791.224
41.140	13.107	1038.285	789.822
42.155	13.099	1036.901	788.659
43.169	13.079	1035.876	787.715
44.184	13.063	1035.066	786.955
45.199	12.985	1034.155	785.819
46.213	13.134	1033.054	785.622
47.228	13.189	1032.148	785.125
48.242	13.142	1031.224	784.130
49.257	13.188	1030.119	783.437
50.271	13.341	1028.748	783.050
51.286	13.240	1028.294	782.158
52.301	13.254	1027.084	781.236
53.315	13.217	1026.112	780.253
54.330	13.108	1025.344	779.083
55.344	13.255	1024.234	778.866
56.359	13.167	1023.493	777.820
57.374	13.082	1022.701	776.750
58.388	13.084	1021.867	776.056
59.403	13.045	1021.099	775.219
60.417	12.912	1020.516	774.084
61.432	12.986	1019.778	773.803
62.447	12.979	1018.872	773.016
63.461	12.964	1018.041	772.247
64.476	13.223	1016.483	772.208
65.490	12.911	1016.284	770.527
66.505	13.034	1015.664	770.565
67.520	13.088	1014.871	770.148
68.534	13.005	1014.276	769.241
69.549	13.028	1013.599	768.768
70.563	13.116	1012.528	768.294
71.578	12.936	1012.154	767.106
72.593	12.922	1011.333	766.351
73.607	12.910	1010.644	765.704
74.622	12.992	1009.880	765.440
75.636	13.065	1009.173	765.175
76.651	12.929	1008.873	764.249
77.666	12.880	1008.182	763.430
78.680	12.987	1007.587	763.410
79.695	13.051	1006.627	762.909
80.709	13.061	1005.839	762.291
81.724	13.154	1005.303	762.245
82.739	13.168	1004.564	761.682
83.753	13.229	1003.761	761.286
84.768	13.270	1002.956	760.796
85.782	13.248	1002.171	760.036
86.797	13.273	1001.760	759.769
87.812	13.281	1000.496	758.780
88.826	13.215	999.413	757.591
89.841	13.261	998.639	757.148
90.855	13.322	997.634	756.599
91.870	13.318	996.985	756.018
92.884	13.327	996.183	755.387
93.899	13.422	994.903	754.781
94.914	13.357	994.439	754.066
95.928	13.295	993.896	753.304
96.943	13.331	992.789	752.564
97.957	13.217	992.171	751.512
98.972	13.292	991.145	751.006
99.987	13.263	990.459	750.288
101.001	13.263	989.217	749.283
102.016	13.294	988.620	748.904
103.030	13.312	987.583	748.133
104.045	13.335	986.742	747.535
105.060	13.332	986.103	746.972
106.074	13.249	984.890	745.611
107.089	13.133	984.188	744.492
108.103	13.140	983.234	743.735
109.118	13.128	981.919	742.623
110.133	13.202	981.166	742.318
111.147	13.169	980.475	741.581
112.162	13.111	979.620	740.610
113.176	13.116	979.226	740.270
114.191	13.288	977.917	739.983
115.206	13.192	977.496	739.169
116.220	13.153	976.745	738.360
117.235	13.176	975.870	737.740
118.249	13.289	974.477	737.126
119.264	13.220	973.937	736.344
120.279	13.261	973.017	735.764
121.293	13.132	972.737	734.914
122.308	13.219	971.490	734.291
123.322	13.182	970.466	733.291
124.337	13.047	969.470	731.873
125.352	13.177	968.407	731.583
126.366	13.167	967.796	731.013
127.381	13.216	966.386	730.097
128.395	13.195	965.748	729.460
129.410	13.291	964.528	728.898
130.424	13.265	963.788	728.159
131.439	13.266	962.979	727.485
132.454	13.279	962.421	727.058
133.468	13.168	961.823	726.053
134.483	13.261	960.566	725.451
135.497	13.313	960.010	725.193
136.512	13.296	958.915	724.228
137.527	13.232	958.385	723.483
138.541	13.301	957.463	723.024
139.556	13.177	957.394	722.368
140.570	13.435	956.395	722.675
141.585	13.533	955.066	722.036
142.600	13.411	954.356	720.902
143.614	13.410	953.536	720.213
144.629	13.546	952.611	720.045
145.643	13.576	951.795	719.492
146.658	13.391	950.862	717.924
147.673	13.468	949.934	717.490
148.687	13.293	949.168	716.091
149.702	13.405	948.351	715.895
150.716	13.368	947.462	715.000
151.731	13.308	946.843	714.212
152.746	13.326	946.315	713.827
153.760	13.425	945.227	713.372
154.775	13.409	944.807	712.921
155.789	13.513	943.822	712.562
156.804	13.500	943.288	712.043
157.819	13.556	943.042	712.034
158.833	13.626	941.962	711.454
159.848	13.753	941.001	711.211
160.862	13.430	940.409	709.318
161.877	13.495	939.660	708.970
162.892	13.374	938.702	707.664
163.906	13.422	937.727	707.070
164.921	13.348	937.170	706.274
165.935	13.449	935.884	705.674
166.950	13.522	935.120	705.346
167.964	13.510	934.530	704.786
168.979	13.515	933.517	703.979
169.994	13.495	932.692	703.212
171.008	13.539	932.083	702.878
172.023	13.514	931.194	702.039
173.037	13.637	930.593	702.045
174.052	13.655	929.874	701.518
175.067	13.557	929.376	700.663
176.081	13.541	928.894	700.169
177.096	13.523	928.086	699.425
178.110	13.614	927.631	699.405
179.125	13.629	927.507	699.312
180.140	13.533	926.621	698.178
181.154	13.527	926.169	697.748
182.169	13.814	925.351	698.277
183.183	13.729	924.712	697.377
184.198	13.881	923.477	697.022
185.213	13.832	923.114	696.483
186.227	13.818	922.680	696.033
187.242	13.761	922.197	695.368
188.256	13.953	921.075	695.266
189.271	13.849	920.691	694.478
190.286	13.717	919.853	693.232
191.300	13.678	919.258	692.562
192.315	13.664	918.554	691.909
193.329	13.627	917.684	691.040
194.344	13.656	917.463	690.931
195.359	13.760	916.472	690.558
196.373	13.834	916.087	690.515
197.388	13.820	915.943	690.286
198.402	14.051	915.037	690.503
199.417	14.077	914.144	689.875
200.432	13.966	914.026	689.266
201.446	14.089	913.162	689.062
202.461	14.037	912.955	688.630
203.475	14.159	912.519	688.747
204.490	14.060	911.728	687.676
205.504	13.963	911.155	686.781
206.519	14.022	909.715	685.882
207.534	14.107	909.532	686.033
208.548	13.989	909.125	685.180
209.563	14.054	908.154	684.653
210.577	14.055	907.672	684.236
211.592	14.140	906.999	684.016
212.607	14.100	906.086	683.103
213.621	14.000	905.870	682.470
214.636	14.244	904.338	682.253
215.650	14.145	904.243	681.715
216.665	14.201	903.224	681.116
217.680	14.302	902.544	680.956
218.694	14.224	901.944	680.127
219.709	14.294	901.264	679.837
220.723	14.295	900.625	679.301
221.738	14.309	899.942	678.781
222.753	14.293	899.179	678.081
223.767	14.415	898.958	678.350
224.782	14.338	898.034	677.282
225.796	14.473	897.610	677.449
226.811	14.511	896.750	676.893
227.826	14.423	896.338	676.169
228.840	14.289	895.495	674.929
229.855	14.303	894.901	674.478
230.869	14.447	893.968	674.296
231.884	14.217	894.013	673.342
232.899	14.244	892.653	672.365
233.913	14.196	892.239	671.801
234.928	14.280	891.417	671.461
235.942	14.321	890.619	670.966
236.957	14.388	890.154	670.827
237.972	14.324	889.954	670.357
238.986	14.336	889.203	669.783
240.001	14.334	888.535	669.210
241.015	14.443	888.012	669.196
242.030	14.430	887.027	668.342
243.045	14.404	886.736	667.961
244.059	14.639	885.985	668.275
245.074	14.529	885.324	667.277
246.088	14.447	885.181	666.784
247.103	14.521	884.493	666.501
248.117	14.621	884.111	666.554
249.132	14.584	883.429	665.835
250.147	14.778	882.129	665.569
251.161	14.874	881.854	665.685
252.176	14.819	881.246	664.947
253.190	14.808	880.971	664.639
254.205	14.741	880.037	663.608
255.220	14.888	879.408	663.659
256.234	14.991	878.527	663.343
257.249	14.962	878.168	662.897
258.263	14.933	877.156	661.961
259.278	14.994	876.584	661.711
260.293	14.919	876.172	661.044
261.307	14.987	875.676	660.882
262.322	15.095	874.801	660.590
263.336	15.169	874.195	660.365
264.351	15.141	873.659	659.790
265.366	15.091	873.049	659.075
266.380	15.245	872.047	658.868
267.395	14.919	872.128	657.586
268.409	15.034	871.127	657.227
269.424	15.073	870.124	656.563
270.439	15.177	869.589	656.509
271.453	15.111	868.725	655.542
272.468	15.067	868.284	654.977
273.482	14.989	867.940	654.354
274.497	15.152	866.911	654.158
275.512	15.157	866.307	653.663
276.526	15.196	865.977	653.508
277.541	15.164	865.763	653.165
278.555	15.239	865.086	652.889
279.570	15.302	864.259	652.454
280.585	15.472	863.297	652.328
281.599	15.282	862.802	651.161
282.614	15.189	862.385	650.427
283.628	15.237	861.798	650.113
284.643	15.230	861.388	649.718
285.657	15.369	860.183	649.289
286.672	15.242	859.923	648.546
287.687	15.362	859.314	648.492
288.701	15.423	858.602	648.133
289.716	15.513	858.131	648.068
290.730	15.439	857.202	647.022
291.745	15.453	856.611	646.572
292.760	15.394	856.516	646.216
293.774	15.454	855.903	645.930
294.789	15.516	854.790	645.272
295.803	15.393	854.054	644.187
296.818	15.442	853.770	644.103
297.833	15.419	853.086	643.441
298.847	15.436	852.612	643.089
299.862	15.404	851.944	642.406
300.876	15.470	851.430	642.218
301.891	15.576	850.658	641.983
302.906	15.750	849.844	641.974
303.920	15.673	849.703	641.519
304.935	15.695	849.379	641.300
305.949	15.569	848.395	640.020
306.964	15.796	847.759	640.350
307.979	15.765	847.421	639.917
308.993	15.720	846.992	639.368
310.008	15.834	846.138	639.099
311.022	15.790	845.622	638.485
312.037	15.822	845.026	638.101
313.052	15.747	844.567	637.413
314.066	15.651	843.780	636.399
315.081	15.675	843.547	636.259
316.095	15.798	842.460	635.848
317.110	15.745	842.072	635.297
318.125	15.683	841.646	634.687
319.139	15.689	841.018	634.177
320.154	15.676	840.941	634.014
321.168	15.748	840.227	633.692
322.183	15.699	840.010	633.287
323.197	15.783	839.588	633.228
324.212	15.723	838.881	632.414
325.227	15.777	838.257	632.090
326.241	15.703	837.573	631.241
327.256	15.807	837.054	631.184
328.270	15.915	836.298	630.965
329.285	15.802	835.816	630.122
330.300	15.770	835.569	629.758
331.314	15.729	835.309	629.355
332.329	15.858	834.390	629.087
333.343	15.973	833.661	628.914
334.358	15.900	833.480	628.450
335.373	15.985	833.075	628.402
336.387	15.805	833.244	627.803
337.402	16.169	832.547	628.580
338.416	16.045	832.270	627.854
339.431	16.138	831.481	627.550
340.446	16.103	831.497	627.375
341.460	16.133	830.908	626.988
342.475	16.211	830.159	626.654
343.489	16.311	829.884	626.762
344.504	16.337	829.399	626.438
345.519	16.269	828.963	625.801
346.533	16.380	828.228	625.603
347.548	16.226	827.816	624.667
348.562	16.220	827.399	624.275
349.577	16.228	826.989	623.937
350.592	16.236	826.128	623.264
351.606	16.165	825.513	622.481
352.621	16.199	824.743	621.973
353.635	16.273	824.053	621.670
354.650	16.148	823.685	620.876
355.665	16.403	822.773	621.074
356.679	16.334	822.171	620.310
357.694	16.308	821.809	619.883
358.708	16.397	821.274	619.755
359.723	16.310	820.521	618.813
360.738	16.575	819.862	619.231
361.752	16.471	819.770	618.724
362.767	16.513	819.095	618.315
363.781	16.524	818.429	617.797
364.796	16.607	818.365	617.996
365.810	16.393	817.911	616.819
366.825	16.607	817.346	617.119
367.840	16.690	817.188	617.249
368.854	16.682	815.976	616.248
369.869	16.638	815.861	615.946
370.883	16.529	815.857	615.491
371.898	16.679	815.287	615.554
372.913	16.633	814.627	614.835
373.927	16.693	814.602	614.976
374.942	16.657	813.741	614.142
375.956	16.761	813.194	614.052
376.971	16.735	813.167	613.884
377.986	16.932	812.172	613.791
379.000	16.886	811.793	613.283
380.015	16.875	811.539	612.997
381.029	16.971	810.771	612.712
382.044	16.975	809.946	612.048
383.059	17.084	809.621	612.143
384.073	16.840	809.430	611.063
385.088	16.851	808.792	610.567
386.102	16.751	808.052	609.595
387.117	16.764	807.378	609.079
388.132	16.834	807.040	609.020
389.146	16.864	806.899	608.968
390.161	16.922	806.044	608.478
391.175	17.016	805.863	608.623
392.190	16.929	805.188	607.750
393.205	17.018	804.529	607.517
394.219	17.064	804.295	607.452
395.234	16.939	803.897	606.651
396.248	16.898	803.586	606.214
397.263	16.874	803.011	605.641
398.278	16.956	802.448	605.454
399.292	16.968	801.947	605.068
400.307	16.896	801.626	604.515
401.321	16.928	801.498	604.480
402.336	17.027	800.956	604.369
403.350	16.996	800.431	603.809
404.365	16.995	799.852	603.316
405.380	17.083	799.693	603.454
406.394	17.056	799.071	602.835
407.409	17.143	798.779	602.870
408.423	17.198	798.392	602.719
409.438	17.284	797.915	602.612
410.453	17.369	797.482	602.531
411.467	17.341	796.671	601.769
412.482	17.325	796.405	601.458
413.496	17.277	796.495	601.303
414.511	17.413	795.749	601.165
415.526	17.519	795.163	601.045
416.540	17.344	794.667	599.998
417.555	17.418	794.328	599.949
418.569	17.499	793.747	599.745
419.584	17.592	793.230	599.628
420.599	17.503	793.183	599.225
421.613	109.405	1290.687	1469.335
422.628	93.983	1363.165	1469.421
