DTS Sentinel unit serial number:	SN413079Multiplexer serial number:	ORYXHardware model number:	OX4-SRSoftware version number:	ORYX F/W v4.00 Oryx Data Collector v3.7.2.0data status	okinstallation	princeton_trtdifferential loss correction	single-endedforward channel	channel 1reverse channel	N/Adate	2019/09/11time	23:56:11forward acquisition time	60.00reverse acquisition time	0.00gamma	496.2192k internal	0.2319k external	0.2319temperature offset calibration	1.0072default loss term (dB/km)	0.3790temperature slope calibration	1.0000multiplexer offset coefficient	1.0000multiplexer slope coefficient	1.0000fibre end	0.00T internal ref (°C)	33.81T ext. ref 1 (°C)	2.00T ext. ref 2 (°C)	28.13length (m)	temperature (°C)	Stokes	anti-Stokes-747.200	143.057	-0.141	0.190
-746.185	-124.341	-0.297	0.047
-745.171	45.051	0.114	0.106
-744.156	-47.651	0.140	0.069
-743.142	118.558	-0.043	0.054
-742.127	-93.594	0.123	0.034
-741.112	189.400	0.048	0.073
-740.098	-108.604	-0.146	0.032
-739.083	-177.860	0.211	-0.005
-738.069	-34.022	-0.067	0.037
-737.054	421.539	-0.147	-0.318
-736.039	569.257	-0.126	-0.309
-735.025	800.000	0.125	0.370
-734.010	-200.000	-0.006	-0.092
-732.996	76.288	0.148	-0.158
-731.981	-0.524	0.157	0.113
-730.966	537.507	-0.189	0.454
-729.952	81.626	-0.224	0.245
-728.937	638.984	-0.130	-0.333
-727.923	-78.270	-0.202	0.070
-726.908	300.910	-0.162	-0.302
-725.894	358.410	0.119	0.240
-724.879	57.341	-0.165	0.162
-723.864	31.749	0.125	-0.109
-722.850	800.000	-0.079	-0.231
-721.835	131.551	0.120	0.156
-720.821	-169.533	0.115	-0.004
-719.806	160.122	-0.036	-0.051
-718.791	-200.000	-0.005	-0.200
-717.777	121.039	-0.182	0.229
-716.762	-114.597	-0.334	-0.065
-715.748	114.766	0.051	0.063
-714.733	-56.845	-0.157	-0.070
-713.718	48.888	0.019	0.018
-712.704	115.648	-0.193	-0.239
-711.689	-200.000	-0.062	0.397
-710.675	522.497	0.153	0.363
-709.660	800.000	0.170	-0.507
-708.645	-200.000	0.087	-0.395
-707.631	-200.000	-0.009	-0.123
-706.616	245.931	-0.203	0.345
-705.602	-182.883	0.094	0.002
-704.587	800.000	-0.101	0.337
-703.572	800.000	0.088	-0.300
-702.558	516.970	-0.079	0.185
-701.543	144.773	0.186	-0.251
-700.529	508.916	-0.088	-0.205
-699.514	-200.000	-0.039	-0.298
-698.499	765.244	-0.144	-0.394
-697.485	248.749	-0.240	-0.411
-696.470	-5.598	-0.275	0.191
-695.456	50.122	0.205	0.195
-694.441	-19.606	-0.112	0.070
-693.426	-200.000	-0.014	-0.134
-692.412	-20.310	0.302	0.188
-691.397	69.303	0.155	0.161
-690.383	-27.621	-0.122	-0.072
-689.368	-84.352	0.183	0.058
-688.354	331.950	-0.244	-0.475
-687.339	-200.000	0.030	-0.185
-686.324	137.015	0.211	-0.279
-685.310	-132.911	-0.392	-0.050
-684.295	-41.832	-0.291	0.150
-683.281	-52.453	-0.234	0.109
-682.266	800.000	-0.082	-0.283
-681.251	-200.000	0.027	-0.143
-680.237	32.239	0.144	0.125
-679.222	76.722	0.165	-0.177
-678.208	90.365	-0.112	0.126
-677.193	-200.000	-0.038	-0.272
-676.178	-200.000	-0.051	-0.259
-675.164	25.249	-0.072	0.060
-674.149	111.341	0.084	0.102
-673.135	-200.000	-0.029	-0.370
-672.120	65.275	0.263	-0.268
-671.105	-200.000	0.009	0.372
-670.091	9.302	0.180	-0.138
-669.076	277.744	0.078	-0.140
-668.062	108.228	-0.075	-0.090
-667.047	-128.646	0.126	0.018
-666.032	800.000	-0.085	0.320
-665.018	800.000	0.163	-0.470
-664.003	-116.684	0.169	0.031
-662.989	-119.911	0.137	-0.024
-661.974	800.000	-0.108	-0.422
-660.959	652.351	0.093	-0.241
-659.945	-59.243	0.208	-0.090
-658.930	-10.665	0.262	-0.175
-657.916	39.760	0.161	0.145
-656.901	-1.957	0.468	0.331
-655.886	-189.711	0.199	-0.002
-654.872	-78.121	-0.156	0.054
-653.857	-200.000	-0.003	-0.360
-652.843	110.850	0.224	-0.271
-651.828	-96.406	-0.220	0.059
-650.814	-61.537	0.182	0.077
-649.799	800.000	-0.099	0.299
-648.784	-77.339	0.109	0.038
-647.770	38.363	-0.280	-0.251
-646.755	800.000	-0.123	-0.386
-645.741	-156.930	0.044	0.003
-644.726	-71.556	0.261	0.098
-643.711	-108.318	-0.298	-0.065
-642.697	-200.000	0.052	-0.254
-641.682	65.646	-0.083	0.084
-640.668	-123.818	0.464	0.074
-639.653	7.620	-0.204	-0.154
-638.638	51.440	0.168	-0.161
-637.624	-104.250	-0.361	-0.084
-636.609	11.603	0.025	0.020
-635.595	800.000	0.126	-0.370
-634.580	49.388	-0.035	0.033
-633.565	-142.191	-0.103	-0.010
-632.551	-200.000	0.048	0.266
-631.536	506.122	0.097	-0.225
-630.522	-167.089	0.136	0.006
-629.507	3.887	-0.240	-0.177
-628.492	-86.380	-0.272	0.084
-627.478	-95.086	-0.374	-0.102
-626.463	222.167	-0.319	-0.517
-625.449	-21.314	-0.166	0.102
-624.434	29.829	0.055	0.047
-623.419	458.893	0.080	0.178
-622.405	154.386	-0.215	0.298
-621.390	48.087	-0.130	0.123
-620.376	-109.960	-0.109	-0.023
-619.361	-78.878	0.204	0.070
-618.346	-200.000	0.044	-0.249
-617.332	-69.748	-0.119	-0.046
-616.317	9.876	0.092	-0.070
-615.303	-74.057	0.186	-0.068
-614.288	-69.589	-0.184	-0.071
-613.273	81.280	0.055	-0.060
-612.259	-105.655	-0.223	-0.051
-611.244	148.300	-0.100	-0.136
-610.230	112.201	-0.112	-0.136
-609.215	73.524	-0.136	-0.144
-608.201	-200.000	-0.032	-0.247
-607.186	6.960	0.350	0.263
-606.171	-83.693	-0.079	0.025
-605.157	-200.000	0.018	0.296
-604.142	-200.000	0.005	0.119
-603.128	800.000	-0.014	-0.043
-602.113	36.055	-0.268	0.237
-601.098	396.351	0.116	-0.244
-600.084	-160.912	0.304	-0.016
-599.069	-200.000	-0.084	-0.413
-598.055	-200.000	-0.079	-0.452
-597.040	512.754	0.029	-0.068
-596.025	693.835	-0.059	0.156
-595.011	-160.951	0.060	0.003
-593.996	-56.074	-0.161	-0.072
-592.982	800.000	0.026	0.105
-591.967	320.712	-0.053	-0.102
-590.952	-91.056	-0.056	-0.016
-589.938	800.000	0.034	-0.112
-588.923	35.722	-0.165	0.146
-587.909	332.978	-0.094	0.183
-586.894	-56.956	-0.176	-0.078
-585.879	66.909	0.151	0.155
-584.865	-200.000	-0.096	-0.427
-583.850	-200.000	0.009	-0.258
-582.836	25.408	-0.236	-0.198
-581.821	800.000	0.048	-0.168
-580.806	-43.472	0.320	-0.162
-579.792	-39.510	0.072	0.038
-578.777	-156.413	-0.190	-0.012
-577.763	50.830	0.293	-0.279
-576.748	60.236	-0.164	-0.163
-575.733	-71.918	-0.159	0.059
-574.719	-200.000	-0.008	0.192
-573.704	-102.868	0.127	-0.030
-572.690	738.045	0.109	-0.294
-571.675	-200.000	-0.042	-0.364
-570.661	-200.000	0.026	-0.155
-569.646	481.395	0.166	-0.379
-568.631	-68.482	-0.016	0.006
-567.617	800.000	0.101	-0.329
-566.602	679.318	-0.066	-0.172
-565.588	-48.926	0.264	-0.127
-564.573	800.000	-0.037	-0.153
-563.558	-130.856	-0.261	0.035
-562.544	-127.735	-0.523	0.076
-561.529	28.590	-0.121	0.103
-560.515	61.422	0.149	0.149
-559.500	-200.000	-0.014	-0.303
-558.485	-137.546	-0.211	-0.024
-557.471	97.724	-0.079	0.092
-556.456	-200.000	0.047	0.329
-555.442	-200.000	0.035	0.280
-554.427	800.000	0.145	0.516
-553.412	-183.383	0.208	0.004
-552.398	-156.269	0.510	0.032
-551.383	256.353	-0.146	-0.252
-550.369	132.708	-0.182	-0.236
-549.354	386.379	0.015	0.030
-548.339	-200.000	-0.041	0.186
-547.325	-132.600	-0.170	0.022
-546.310	-200.000	-0.015	-0.169
-545.296	-200.000	0.030	-0.141
-544.281	-23.755	-0.114	0.069
-543.266	-125.602	0.117	0.018
-542.252	-200.000	0.056	0.259
-541.237	-72.546	0.146	0.054
-540.223	98.209	0.211	0.244
-539.208	466.313	0.152	0.341
-538.193	800.000	-0.057	0.247
-537.179	-138.317	0.124	0.014
-536.164	395.057	0.056	0.117
-535.150	404.204	-0.059	0.124
-534.135	196.794	-0.222	-0.339
-533.121	800.000	0.043	0.142
-532.106	151.953	-0.140	-0.191
-531.091	-167.025	0.190	-0.008
-530.077	800.000	-0.043	-0.159
-529.062	-123.497	-0.146	-0.023
-528.048	70.292	0.354	0.367
-527.033	-200.000	0.034	0.284
-526.018	600.740	0.019	0.048
-525.004	507.374	0.085	0.199
-523.989	-41.072	-0.161	0.083
-522.975	348.576	-0.062	-0.123
-521.960	-84.270	-0.147	-0.047
-520.945	-78.925	-0.231	-0.079
-519.931	-125.975	-0.269	0.041
-518.916	-127.178	-0.059	-0.009
-517.902	-84.699	0.242	0.076
-516.887	800.000	0.081	0.278
-515.872	-54.755	-0.114	0.051
-514.858	178.032	0.231	0.337
-513.843	-186.707	0.268	0.004
-512.829	-200.000	0.064	0.408
-511.814	490.598	0.155	0.357
-510.799	341.744	-0.082	0.160
-509.785	-6.064	0.095	-0.065
-508.770	-169.222	0.122	-0.005
-507.756	-90.212	-0.206	-0.060
-506.741	-123.946	-0.241	0.038
-505.726	-200.000	0.000	0.337
-504.712	-103.135	0.191	0.045
-503.697	-4.523	-0.091	-0.063
-502.683	472.193	0.043	0.098
-501.668	14.619	-0.207	0.162
-500.653	494.766	0.059	0.135
-499.639	-97.785	0.356	0.092
-498.624	800.000	0.019	-0.071
-497.610	-33.362	-0.089	0.049
-496.595	800.000	-0.038	-0.134
-495.581	-49.552	-0.130	-0.062
-494.566	0.895	-0.145	0.104
-493.551	601.340	0.068	0.168
-492.537	-200.000	0.008	0.222
-491.522	96.173	-0.089	-0.102
-490.508	-107.201	-0.340	0.075
-489.493	37.579	0.194	-0.172
-488.478	15.227	-0.245	-0.192
-487.464	196.145	0.120	-0.183
-486.449	-90.195	-0.288	-0.084
-485.435	19.456	-0.055	0.044
-484.420	221.435	-0.275	0.443
-483.405	80.994	0.238	0.258
-482.391	-15.349	-0.418	0.267
-481.376	-200.000	-0.021	0.136
-480.362	144.632	0.182	0.244
-479.347	-78.466	-0.579	-0.199
-478.332	93.226	0.127	0.144
-477.318	380.589	-0.115	-0.236
-476.303	-3.727	0.321	-0.223
-475.289	-185.445	0.169	-0.003
-474.274	89.395	0.091	0.102
-473.259	53.395	0.108	0.103
-472.245	-166.005	0.054	-0.002
-471.230	199.103	0.236	0.362
-470.216	-38.417	-0.078	-0.041
-469.201	24.858	0.288	-0.239
-468.186	-151.078	0.360	-0.027
-467.172	800.000	0.111	0.408
-466.157	237.324	-0.110	0.182
-465.143	-200.000	0.065	-0.304
-464.128	118.161	0.216	-0.267
-463.113	79.530	0.155	0.166
-462.099	91.358	0.160	0.180
-461.084	800.000	0.035	0.130
-460.070	800.000	-0.035	-0.097
-459.055	128.121	-0.242	-0.308
-458.040	-200.000	0.044	0.249
-457.026	-95.497	0.186	-0.050
-456.011	800.000	0.081	-0.257
-454.997	-40.536	-0.197	-0.102
-453.982	-200.000	-0.008	0.080
-452.968	-147.225	-0.138	-0.012
-451.953	-43.600	0.327	-0.165
-450.938	-101.345	0.177	0.043
-449.924	-200.000	-0.038	-0.387
-448.909	-105.323	0.310	0.071
-447.895	113.426	-0.053	0.064
-446.880	-6.404	-0.135	0.092
-445.865	-200.000	0.034	0.242
-444.851	65.349	0.256	0.259
-443.836	-200.000	-0.041	-0.212
-442.822	-92.811	0.296	-0.083
-441.807	-143.768	-0.533	0.050
-440.792	557.663	0.017	0.041
-439.778	-117.582	0.119	-0.021
-438.763	119.163	-0.186	0.230
-437.749	159.804	-0.115	-0.159
-436.734	365.803	0.224	0.451
-435.719	415.895	-0.094	-0.199
-434.705	-68.334	-0.065	0.025
-433.690	-200.000	0.413	0.002
-432.676	30.401	0.109	0.093
-431.661	-200.000	0.048	-0.296
-430.646	561.809	0.055	-0.132
-429.632	-96.780	0.251	0.066
-428.617	-121.520	0.240	0.040
-427.603	-132.963	-0.406	0.052
-426.588	-61.724	-0.220	-0.092
-425.573	-35.930	0.251	0.136
-424.559	459.048	-0.043	0.097
-423.544	58.648	-0.034	0.033
-422.530	7.433	-0.236	0.176
-421.515	-200.000	-0.010	-0.160
-420.500	-19.025	-0.200	-0.124
-419.486	-130.537	-0.193	0.026
-418.471	-70.469	-0.128	0.048
-417.457	800.000	0.057	0.238
-416.442	800.000	0.077	-0.259
-415.428	-119.868	0.239	-0.041
-414.413	-200.000	0.038	-0.292
-413.398	800.000	-0.122	-0.347
-412.384	-200.000	-0.004	-0.330
-411.369	-68.652	0.273	0.105
-410.355	328.459	-0.158	-0.303
-409.340	-115.238	0.494	-0.093
-408.325	110.755	0.112	0.134
-407.311	-74.344	-0.350	0.126
-406.296	158.462	-0.119	-0.166
-405.282	75.503	0.067	-0.071
-404.267	-93.992	0.105	0.029
-403.252	274.375	-0.037	0.066
-402.238	800.000	0.036	0.137
-401.223	-200.000	0.015	0.178
-400.209	-200.000	-0.024	0.516
-399.194	26.957	0.076	0.064
-398.179	35.012	-0.043	0.038
-397.165	449.772	-0.190	-0.419
-396.150	36.153	-0.164	0.144
-395.136	18.162	-0.081	-0.064
-394.121	241.481	-0.134	0.224
-393.106	800.000	-0.105	-0.387
-392.092	-146.613	-0.097	-0.008
-391.077	-200.000	0.052	0.237
-390.063	-105.041	0.582	0.133
-389.048	-62.480	-0.128	-0.053
-388.033	800.000	0.062	0.177
-387.019	-2.425	-0.096	-0.067
-386.004	187.520	-0.358	-0.533
-384.990	-200.000	-0.076	-0.449
-383.975	-15.318	-0.130	0.083
-382.960	-118.347	-0.116	-0.021
-381.946	800.000	0.033	0.101
-380.931	108.453	-0.124	-0.147
-379.917	-124.863	0.193	-0.030
-378.902	-90.752	-0.158	0.045
-377.888	800.000	0.048	-0.147
-376.873	106.691	0.025	-0.030
-375.858	800.000	0.096	0.362
-374.844	-200.000	0.016	-0.157
-373.829	-118.422	0.061	-0.011
-372.815	457.478	-0.032	-0.072
-371.800	-71.837	-0.156	-0.058
-370.785	50.404	0.172	0.162
-369.771	-73.368	0.259	-0.094
-368.756	-48.647	0.061	-0.029
-367.742	335.070	-0.038	0.074
-366.727	800.000	-0.099	-0.295
-365.712	-10.242	0.097	0.064
-364.698	25.592	0.024	-0.020
-363.683	-70.202	0.142	0.054
-362.669	-200.000	0.015	0.092
-361.654	87.936	-0.076	0.083
-360.639	93.603	-0.200	-0.226
-359.625	709.934	-0.055	0.145
-358.610	800.000	0.081	0.255
-357.596	138.045	-0.140	0.183
-356.581	312.632	-0.112	0.210
-355.566	-200.000	-0.010	0.261
-354.552	696.762	-0.039	-0.102
-353.537	50.340	0.232	0.218
-352.523	-120.764	-0.262	0.044
-351.508	-200.000	0.008	0.069
-350.493	121.108	0.090	-0.112
-349.479	-200.000	-0.147	0.000
-348.464	-120.950	-0.368	-0.062
-347.450	172.758	0.137	-0.197
-346.435	612.923	0.070	0.174
-345.420	368.945	0.227	0.458
-344.406	-193.340	0.043	-0.000
-343.391	800.000	0.048	0.163
-342.377	45.044	-0.193	-0.177
-341.362	48.094	-0.044	-0.041
-340.348	-46.099	0.189	0.093
-339.333	111.939	-0.264	-0.317
-338.318	-200.000	0.026	-0.270
-337.304	327.418	0.174	0.332
-336.289	-200.000	0.011	-0.058
-335.275	37.148	-0.110	-0.097
-334.260	-140.705	0.491	-0.051
-333.245	-153.901	0.141	0.010
-332.231	340.821	-0.069	0.134
-331.216	-200.000	0.026	0.205
-330.202	35.547	-0.013	-0.012
-329.187	-178.314	0.169	-0.004
-328.172	2.994	0.224	0.162
-327.158	-200.000	-0.030	0.295
-326.143	411.562	-0.085	0.181
-325.129	-200.000	0.003	0.162
-324.114	-114.718	0.220	-0.042
-323.099	153.053	-0.158	0.214
-322.085	149.998	0.308	-0.416
-321.070	-200.000	-0.018	-0.358
-320.056	-88.156	-0.168	-0.050
-319.041	23.850	-0.165	-0.135
-318.026	-115.456	0.296	0.056
-317.012	166.637	-0.183	0.259
-315.997	-87.734	0.235	-0.071
-314.983	-58.573	0.183	-0.079
-313.968	275.168	0.148	-0.262
-312.953	-200.000	0.040	-0.235
-311.939	-200.000	-0.015	-0.336
-310.924	-200.000	0.008	0.355
-309.910	202.604	-0.134	-0.206
-308.895	3.911	0.190	0.138
-307.880	800.000	-0.045	-0.135
-306.866	-200.000	0.003	-0.142
-305.851	638.730	-0.132	-0.334
-304.837	-200.000	-0.045	0.246
-303.822	37.176	-0.108	0.095
-302.807	800.000	-0.149	-0.555
-301.793	290.273	0.172	0.311
-300.778	389.232	-0.090	-0.186
-299.764	-14.775	-0.335	-0.214
-298.749	149.364	-0.196	-0.264
-297.735	-200.000	0.021	-0.161
-296.720	-153.873	0.136	0.009
-295.705	-13.625	-0.273	0.176
-294.691	-141.756	0.266	0.026
-293.676	-200.000	-0.014	0.341
-292.662	800.000	0.096	-0.265
-291.647	446.330	-0.062	0.136
-290.632	-46.660	-0.171	-0.083
-289.618	-186.697	0.397	0.006
-288.603	413.266	0.089	-0.187
-287.589	-75.167	-0.160	0.057
-286.574	162.146	0.106	-0.148
-285.559	-88.056	0.215	0.064
-284.545	-200.000	0.012	0.099
-283.530	138.493	0.215	0.280
-282.516	514.263	-0.094	0.219
-281.501	-99.549	-0.092	-0.023
-280.486	-32.068	0.185	-0.103
-279.472	77.772	0.130	0.138
-278.457	-200.000	-0.020	-0.390
-277.443	-40.918	-0.039	-0.020
-276.428	-200.000	-0.009	0.127
-275.413	8.505	0.150	0.112
-274.399	60.406	-0.233	0.229
-273.384	-126.600	0.444	-0.065
-272.370	-46.453	0.416	-0.203
-271.355	305.895	-0.175	0.323
-270.340	224.222	0.152	0.244
-269.326	800.000	-0.033	-0.129
-268.311	-200.000	0.026	-0.180
-267.297	-49.945	-0.151	0.071
-266.282	800.000	0.085	-0.305
-265.267	-53.130	0.208	0.095
-264.253	143.553	0.036	0.047
-263.238	-69.455	0.176	0.067
-262.224	-6.406	0.027	-0.018
-261.209	-43.397	-0.269	-0.135
-260.195	-200.000	0.042	-0.238
-259.180	64.764	-0.165	-0.166
-258.165	8.549	-0.158	-0.118
-257.151	-122.177	-0.088	-0.014
-256.136	800.000	-0.035	0.100
-255.122	133.918	-0.138	0.178
-254.107	767.953	0.186	-0.502
-253.092	-78.849	0.512	-0.173
-252.078	472.847	-0.013	0.029
-251.063	-200.000	0.000	0.123
-250.049	564.012	-0.139	-0.335
-249.034	-47.834	-0.221	0.106
-248.019	-200.000	0.010	0.063
-247.005	336.493	-0.101	-0.194
-245.990	-59.756	0.071	-0.030
-244.976	173.268	-0.114	-0.164
-243.961	-129.715	-0.373	-0.051
-242.946	800.000	-0.033	-0.098
-241.932	132.860	-0.163	0.209
-240.917	239.211	-0.204	0.337
-239.903	112.470	0.070	0.084
-238.888	-157.838	0.239	-0.014
-237.873	-200.000	0.039	-0.354
-236.859	800.000	0.043	0.177
-235.844	-200.000	0.060	-0.291
-234.830	74.071	-0.166	0.173
-233.815	-56.504	0.132	-0.058
-232.800	-133.403	-0.242	0.030
-231.786	-200.000	0.007	0.226
-230.771	-200.000	0.014	-0.082
-229.757	-37.692	0.326	0.172
-228.742	83.865	0.039	-0.042
-227.727	800.000	-0.045	0.180
-226.713	300.215	0.098	0.180
-225.698	47.544	-0.235	0.217
-224.684	-97.593	-0.253	0.065
-223.669	128.109	0.157	0.198
-222.655	-200.000	-0.014	0.098
-221.640	-19.417	0.060	0.037
-220.625	-137.183	-0.308	-0.035
-219.611	216.159	-0.025	0.040
-218.596	36.432	0.113	-0.099
-217.582	-28.028	0.245	-0.141
-216.567	248.787	0.073	0.122
-215.552	-200.000	0.057	0.278
-214.538	0.659	0.218	0.155
-213.523	795.545	-0.037	0.101
-212.509	-200.000	0.005	-0.136
-211.494	-200.000	0.008	0.436
-210.479	666.972	0.109	0.279
-209.465	26.724	-0.113	-0.094
-208.450	250.202	-0.080	-0.134
-207.436	638.961	0.049	-0.122
-206.421	800.000	0.096	0.298
-205.406	-30.849	-0.410	0.230
-204.392	800.000	-0.064	0.217
-203.377	141.103	-0.036	0.047
-202.363	80.341	0.176	0.187
-201.348	-200.000	0.075	-0.334
-200.333	64.850	-0.124	0.124
-199.319	-200.000	-0.060	-0.309
-198.304	-46.886	0.257	-0.124
-197.290	-116.881	0.192	0.035
-196.275	800.000	-0.043	0.178
-195.260	-5.801	-0.149	-0.101
-194.246	402.583	-0.032	-0.068
-193.231	48.048	-0.220	0.204
-192.217	778.269	0.265	0.718
-191.202	115.464	0.232	0.280
-190.187	791.670	0.160	0.435
-189.173	-200.000	-0.075	-0.334
-188.158	-166.996	-0.310	0.013
-187.144	-33.485	0.169	0.093
-186.129	-60.032	-0.136	0.057
-185.114	-99.686	0.201	0.050
-184.100	-137.126	-0.189	-0.021
-183.085	-200.000	0.070	-0.330
-182.071	791.616	0.115	-0.314
-181.056	-12.037	0.251	-0.163
-180.042	399.923	-0.185	-0.384
-179.027	-193.752	-0.204	0.002
-178.012	-18.463	-0.238	-0.147
-176.998	165.036	0.266	-0.371
-175.983	130.665	-0.115	0.146
-174.969	2.873	-0.142	0.102
-173.954	-93.762	-0.039	0.011
-172.939	-200.000	0.020	-0.367
-171.925	123.539	-0.053	0.066
-170.910	-189.162	-0.170	0.002
-169.896	702.408	0.075	0.195
-168.881	-10.740	-0.097	0.063
-167.866	-200.000	-0.024	0.247
-166.852	54.460	-0.247	0.236
-165.837	-83.163	0.135	0.043
-164.823	-187.246	0.304	0.004
-163.808	-200.000	-0.014	-0.105
-162.793	185.304	-0.006	-0.008
-161.779	-120.059	0.370	0.063
-160.764	-113.526	0.189	-0.037
-159.750	800.000	-0.076	-0.243
-158.735	-200.000	-0.006	-0.210
-157.720	211.183	0.195	-0.303
-156.706	-200.000	0.007	0.105
-155.691	-70.368	-0.272	0.102
-154.677	800.000	-0.129	-0.353
-153.662	-178.391	-0.390	0.009
-152.647	195.770	-0.086	0.129
-151.633	174.332	-0.081	0.116
-150.618	3.279	0.247	0.177
-149.604	52.073	0.037	-0.035
-148.589	-200.000	0.003	-0.081
-147.574	800.000	0.038	-0.113
-146.560	-166.106	-0.118	-0.005
-145.545	-200.000	0.016	0.310
-144.531	-7.269	-0.229	0.153
-143.516	55.220	-0.230	-0.220
-142.502	15.283	0.179	-0.139
-141.487	-86.130	0.114	0.035
-140.472	99.039	-0.184	0.210
-139.458	118.395	0.061	-0.074
-138.443	-200.000	-0.001	0.140
-137.429	318.742	0.092	-0.173
-136.414	-116.793	0.251	-0.045
-135.399	-40.230	0.157	-0.081
-134.385	-104.264	0.327	-0.075
-133.370	130.173	-0.048	-0.061
-132.356	-78.157	0.099	0.034
-131.341	-4.506	0.268	-0.183
-130.326	22.517	0.162	0.131
-129.312	544.926	0.134	0.317
-128.297	544.374	0.046	-0.109
-127.283	-200.000	-0.027	0.131
-126.268	-200.000	-0.017	-0.074
-125.253	-99.670	-0.302	0.075
-124.239	37.983	-0.362	0.318
-123.224	-127.565	0.242	-0.035
-122.210	-42.675	-0.122	0.062
-121.195	-200.000	-0.027	-0.318
-120.180	-200.000	-0.020	-0.091
-119.166	192.030	0.081	0.120
-118.151	-32.946	-0.160	0.088
-117.137	-200.000	-0.029	-0.260
-116.122	631.308	-0.029	0.072
-115.107	45.984	0.090	-0.082
-114.093	160.119	-0.118	0.162
-113.078	39.613	0.103	0.091
-112.064	-186.112	-0.170	0.002
-111.049	-132.976	0.358	0.045
-110.034	-200.000	-0.020	-0.330
-109.020	-46.641	-0.211	-0.102
-108.005	-200.000	0.009	-0.165
-106.991	628.105	0.103	0.256
-105.976	800.000	0.083	-0.233
-104.962	-131.716	-0.301	0.039
-103.947	-99.854	0.158	-0.039
-102.932	-200.000	0.047	0.279
-101.918	-200.000	0.014	0.195
-100.903	-69.715	0.215	-0.081
-99.889	-49.666	0.171	0.080
-98.874	-114.474	0.227	0.043
-97.859	-50.789	-0.087	-0.040
-96.845	584.472	-0.137	-0.332
-95.830	-137.731	-0.372	-0.041
-94.816	800.000	0.022	0.089
-93.801	55.644	0.084	0.080
-92.786	146.686	-0.181	0.240
-91.772	800.000	-0.127	0.446
-90.757	8.858	0.172	0.128
-89.743	108.428	0.096	0.113
-88.728	-200.000	-0.016	-0.230
-87.713	-83.849	-0.192	-0.060
-86.699	46.112	0.062	-0.057
-85.684	78.499	0.277	0.291
-84.670	688.164	-0.021	0.053
-83.655	-22.984	-0.175	-0.104
-82.640	30.361	-0.287	0.242
-81.626	222.133	0.111	-0.176
-80.611	121.371	-0.000	0.001
-79.597	55.688	-0.154	-0.147
-78.582	310.032	-0.109	0.201
-77.567	-1.608	-0.278	0.193
-76.553	-200.000	-0.013	0.153
-75.538	794.141	0.100	-0.270
-74.524	-200.000	-0.065	0.442
-73.509	-9.081	0.172	0.113
-72.494	397.491	0.065	0.133
-71.480	-51.576	-0.067	0.031
-70.465	-200.000	-0.028	0.268
-69.451	-21.865	0.076	0.045
-68.436	28.382	-0.046	0.039
-67.422	-200.000	0.004	0.119
-66.407	-200.000	-0.006	0.324
-65.392	-136.868	0.094	0.011
-64.378	-78.152	-0.105	0.036
-63.363	800.000	0.047	-0.136
-62.349	-20.407	0.060	0.036
-61.334	29.240	-1.313	-1.098
-60.319	636.914	0.143	0.358
-59.305	800.000	-0.268	-1.081
-58.290	158.435	0.631	0.862
-57.276	800.000	0.427	1.672
-56.261	-200.000	96.589	585.503
-55.246	549.680	1386.376	3272.755
-54.232	156.017	2577.101	3498.696
-53.217	113.178	2151.178	2568.927
-52.203	45.287	1610.303	1462.300
-51.188	37.260	1347.966	1175.683
-50.173	34.103	1305.523	1120.071
-49.159	57.096	1353.395	1299.278
-48.144	59.489	1370.631	1330.067
-47.130	37.471	1327.556	1158.953
-46.115	33.948	1310.067	1122.875
-45.100	33.788	1305.383	1117.872
-44.086	33.741	1303.048	1115.549
-43.071	33.613	1300.808	1112.838
-42.057	33.598	1298.954	1111.123
-41.042	33.585	1297.470	1109.731
-40.027	33.806	1295.403	1109.211
-39.013	33.729	1293.642	1107.209
-37.998	33.711	1291.765	1105.453
-36.984	33.791	1290.339	1104.654
-35.969	33.763	1288.687	1103.035
-34.954	33.838	1287.139	1102.101
-33.940	33.939	1285.394	1101.147
-32.925	33.909	1284.246	1099.945
-31.911	33.900	1282.925	1098.724
-30.896	33.941	1281.262	1097.490
-29.881	33.938	1280.113	1096.445
-28.867	33.975	1278.357	1095.109
-27.852	33.891	1277.258	1093.644
-26.838	33.932	1275.972	1092.733
-25.823	33.863	1274.776	1091.270
-24.809	34.048	1272.926	1090.702
-23.794	33.858	1271.885	1088.677
-22.779	33.931	1269.991	1087.433
-21.765	33.926	1269.585	1087.014
-20.750	33.879	1268.177	1085.497
-19.736	33.747	1266.819	1083.538
-18.721	33.767	1265.554	1082.527
-17.706	33.756	1264.443	1081.470
-16.692	33.738	1263.221	1080.278
-15.677	33.807	1262.073	1079.650
-14.663	33.717	1261.527	1078.623
-13.648	33.699	1260.075	1077.238
-12.633	33.739	1259.161	1076.643
-11.619	33.784	1258.403	1076.207
-10.604	33.660	1257.508	1074.695
-9.590	33.786	1256.570	1074.564
-8.575	33.699	1255.442	1073.067
-7.560	33.732	1254.661	1072.544
-6.546	33.756	1253.586	1071.713
-5.531	33.699	1252.967	1070.823
-4.517	33.718	1252.038	1070.094
-3.502	33.727	1251.262	1069.438
-2.487	33.687	1250.798	1068.775
-1.473	33.681	1246.634	1065.139
-0.458	32.215	1231.050	1043.649
0.556	29.149	1213.594	1006.266
1.571	25.600	1218.893	991.052
2.586	24.849	1234.314	999.312
3.600	24.539	1224.490	989.551
4.615	18.180	1151.280	897.067
5.629	7.355	1073.188	782.949
6.644	2.351	1051.582	742.860
7.659	1.872	1049.425	738.950
8.673	1.860	1048.188	737.956
9.688	1.919	1046.306	736.852
10.702	2.358	1045.287	738.187
11.717	9.317	1055.030	778.807
12.731	19.563	1069.661	839.608
13.746	24.297	1075.147	866.917
14.761	25.025	1076.414	871.406
15.775	25.066	1075.862	871.081
16.790	24.875	1074.719	869.150
17.804	24.824	1074.304	868.487
18.819	25.051	1073.383	868.767
19.834	24.985	1073.773	868.689
20.848	24.999	1073.318	868.309
21.863	25.022	1072.587	867.752
22.877	25.002	1071.959	867.073
23.892	24.878	1071.196	865.780
24.907	25.141	1070.329	866.273
25.921	24.940	1069.310	864.402
26.936	24.949	1068.275	863.530
27.950	24.952	1066.464	862.005
28.965	24.830	1064.667	859.889
29.980	24.880	1062.981	858.690
30.994	25.064	1062.237	858.896
32.009	25.095	1061.477	858.354
33.023	24.887	1060.248	856.293
34.038	25.019	1059.543	856.278
35.053	25.093	1058.972	856.094
36.067	25.052	1058.268	855.253
37.082	25.162	1057.123	854.777
38.096	25.317	1056.573	854.991
39.111	25.361	1055.853	854.542
40.126	25.165	1054.360	852.330
41.140	24.767	1053.211	849.433
42.155	24.589	1051.551	847.179
43.169	24.751	1050.343	846.898
44.184	24.615	1049.989	845.891
45.199	24.661	1048.689	844.989
46.213	24.697	1048.181	844.676
47.228	24.930	1047.228	844.929
48.242	24.940	1046.184	844.060
49.257	24.966	1045.753	843.761
50.271	25.117	1044.781	843.612
51.286	25.158	1043.972	843.077
52.301	25.119	1043.046	842.072
53.315	24.995	1042.432	840.919
54.330	24.980	1041.466	839.995
55.344	25.166	1040.540	840.045
56.359	25.107	1039.637	838.965
57.374	24.935	1038.250	836.969
58.388	24.788	1038.225	836.189
59.403	24.753	1036.969	834.939
60.417	24.622	1036.372	833.774
61.432	24.736	1035.876	833.833
62.447	24.769	1035.433	833.554
63.461	24.920	1034.383	833.338
64.476	24.848	1033.100	831.898
65.490	24.688	1032.367	830.489
66.505	24.663	1032.412	830.335
67.520	24.832	1031.413	830.241
68.534	24.590	1030.217	828.087
69.549	24.160	1029.251	825.244
70.563	24.213	1028.312	824.661
71.578	24.422	1026.834	824.372
72.593	24.238	1026.194	822.935
73.607	24.143	1026.258	822.473
74.622	24.586	1025.399	823.758
75.636	24.558	1024.904	823.158
76.651	24.447	1023.773	821.665
77.666	24.503	1023.010	821.235
78.680	24.491	1022.576	820.761
79.695	24.528	1021.788	820.225
80.709	24.648	1021.328	820.336
81.724	24.603	1020.242	819.183
82.739	24.696	1020.051	819.386
83.753	25.033	1019.752	820.617
84.768	25.141	1018.922	820.370
85.782	25.396	1017.660	820.443
86.797	25.366	1016.383	819.206
87.812	25.183	1015.282	817.410
88.826	25.245	1014.574	817.054
89.841	25.449	1013.505	817.047
90.855	25.371	1012.636	815.921
91.870	25.323	1011.829	814.980
92.884	25.141	1011.039	813.446
93.899	25.079	1009.961	812.227
94.914	25.351	1009.102	812.695
95.928	25.083	1008.452	810.886
96.943	24.865	1006.940	808.615
97.957	24.666	1005.676	806.630
98.972	24.522	1004.828	805.227
99.987	24.859	1004.080	806.077
101.001	24.997	1003.533	806.189
102.016	24.941	1002.877	805.335
103.030	24.965	1001.300	804.108
104.045	24.723	1000.871	802.603
105.060	24.607	999.746	801.113
106.074	24.829	998.977	801.420
107.089	25.145	998.265	802.188
108.103	25.035	997.694	801.171
109.118	24.817	996.256	798.972
110.133	24.702	994.994	797.377
111.147	24.491	994.396	795.885
112.162	24.632	992.751	795.123
113.176	24.733	992.618	795.399
114.191	24.733	991.615	794.522
115.206	24.183	990.851	791.399
116.220	24.389	989.652	791.283
117.235	24.425	988.940	790.804
118.249	24.435	988.195	790.181
119.264	24.426	987.327	789.378
120.279	24.407	987.098	789.043
121.293	24.557	985.771	788.576
122.308	24.733	984.974	788.642
123.322	24.462	983.591	786.271
124.337	24.324	982.759	784.929
125.352	23.692	981.350	780.959
126.366	23.753	980.316	780.333
127.381	24.501	980.157	783.423
128.395	24.839	980.428	785.053
129.410	25.023	978.982	784.629
130.424	24.943	978.439	783.774
131.439	24.907	977.343	782.670
132.454	24.937	976.699	782.215
133.468	24.883	975.950	781.312
134.483	25.060	975.054	781.298
135.497	25.264	974.244	781.467
136.512	25.319	973.518	781.057
137.527	25.244	972.674	779.984
138.541	25.234	971.684	779.075
139.556	25.417	970.602	778.935
140.570	25.326	970.222	778.167
141.585	25.331	969.274	777.360
142.600	25.278	968.102	776.122
143.614	25.467	967.585	776.453
144.629	25.554	966.579	775.954
145.643	25.398	965.382	774.250
146.658	25.260	964.033	772.508
147.673	25.235	962.760	771.313
148.687	25.066	962.060	769.955
149.702	25.049	960.876	768.869
150.716	25.002	960.296	768.133
151.731	25.102	959.932	768.202
152.746	25.414	959.210	768.894
153.760	25.372	958.526	768.098
154.775	25.428	958.105	767.933
155.789	25.317	957.111	766.591
156.804	25.554	955.922	766.584
157.819	25.516	955.604	766.101
158.833	25.544	954.627	765.366
159.848	25.462	953.805	764.293
160.862	25.456	952.139	762.865
161.877	25.354	951.620	761.947
162.892	25.367	950.418	760.974
163.906	25.358	949.370	760.030
164.921	25.480	948.420	759.716
165.935	25.427	947.752	758.892
166.950	25.477	946.619	758.128
167.964	25.335	945.584	756.632
168.979	25.154	944.601	755.015
169.994	25.202	943.709	754.440
171.008	25.376	943.434	754.884
172.023	25.372	942.693	754.207
173.037	25.222	941.543	752.591
174.052	25.143	940.163	751.090
175.067	25.054	940.029	750.546
176.081	25.241	939.444	750.794
177.096	25.124	938.574	749.540
178.110	24.950	937.437	747.843
179.125	24.777	937.147	746.823
180.140	24.832	936.735	746.658
181.154	24.988	936.272	746.874
182.169	25.379	936.106	748.305
183.183	25.432	935.926	748.316
184.198	25.298	934.963	746.921
185.213	25.278	933.754	745.804
186.227	25.567	933.071	746.394
187.242	25.450	932.748	745.583
188.256	25.425	932.094	744.890
189.271	25.569	931.330	744.813
190.286	25.271	929.994	742.445
191.300	24.530	928.782	738.350
192.315	23.835	927.068	734.054
193.329	23.767	927.005	733.656
194.344	24.499	927.871	737.302
195.359	25.223	927.418	739.861
196.373	25.436	926.554	739.987
197.388	25.165	926.072	738.417
198.402	25.229	925.548	738.197
199.417	25.381	924.813	738.173
200.432	25.090	923.705	736.027
201.446	24.931	922.959	734.715
202.461	24.809	922.836	734.052
203.475	24.174	920.460	729.498
204.490	23.235	919.528	724.853
205.504	24.241	919.556	728.928
206.519	24.889	919.453	731.428
207.534	24.912	919.149	731.215
208.548	25.320	919.061	732.747
209.563	25.183	918.136	731.386
210.577	25.171	917.350	730.648
211.592	25.566	917.346	732.189
212.607	25.430	916.289	730.726
213.621	25.529	915.547	730.473
214.636	25.506	914.938	729.827
215.650	25.400	914.210	728.752
216.665	25.573	913.417	728.759
217.680	25.435	912.759	727.607
218.694	24.960	911.761	724.829
219.709	24.987	910.898	724.186
220.723	25.175	910.472	724.543
221.738	25.317	910.089	724.748
222.753	25.242	909.371	723.810
223.767	25.397	908.610	723.763
224.782	25.596	908.718	724.587
225.796	25.610	908.310	724.256
226.811	24.926	906.343	719.876
227.826	24.305	905.093	716.322
228.840	24.407	904.857	716.484
229.855	24.619	903.654	716.315
230.869	24.283	902.933	714.337
231.884	24.557	903.398	715.740
232.899	25.325	903.235	718.621
233.913	25.216	902.575	717.597
234.928	25.141	901.840	716.651
235.942	25.129	900.972	715.848
236.957	24.876	899.991	713.997
237.972	24.753	899.702	713.212
238.986	24.866	899.256	713.246
240.001	25.016	898.428	713.126
241.015	25.118	898.180	713.270
242.030	25.277	897.467	713.273
243.045	25.349	896.929	713.067
244.059	25.322	896.745	712.750
245.074	25.276	895.306	711.362
246.088	24.944	894.401	709.267
247.103	25.258	894.455	710.488
248.117	25.704	894.523	712.244
249.132	25.902	894.326	712.808
250.147	26.033	893.726	712.785
251.161	26.292	893.114	713.256
252.176	26.209	892.389	712.288
253.190	26.269	892.202	712.312
254.205	26.235	891.911	711.880
255.220	26.330	890.766	711.278
256.234	26.123	890.150	709.911
257.249	26.105	889.409	709.186
258.263	26.061	888.684	708.373
259.278	26.240	887.906	708.390
260.293	26.253	887.502	708.057
261.307	26.032	887.029	706.752
262.322	25.923	885.998	705.441
263.336	25.210	884.019	701.017
264.351	24.079	882.350	695.221
265.366	24.385	881.818	695.932
266.380	25.259	882.699	699.975
267.395	25.709	882.604	701.593
268.409	25.806	881.597	701.108
269.424	25.871	881.228	701.006
270.439	26.105	880.434	701.221
271.453	26.059	880.031	700.659
272.468	26.324	879.394	701.119
273.482	26.329	878.695	700.520
274.497	25.744	878.325	697.894
275.512	25.410	877.347	695.763
276.526	25.968	877.125	697.687
277.541	26.141	876.492	697.788
278.555	25.873	875.897	696.217
279.570	25.709	874.853	694.692
280.585	25.958	874.580	695.378
281.599	25.930	873.647	694.464
282.614	25.304	872.071	690.742
283.628	25.284	871.867	690.445
284.643	25.576	871.818	691.466
285.657	25.165	870.260	688.590
286.672	24.958	869.687	687.281
287.687	25.438	869.607	689.001
288.701	25.549	869.094	688.959
289.716	25.262	868.345	687.203
290.730	25.306	867.642	686.756
291.745	24.970	866.579	684.571
292.760	25.305	866.656	685.851
293.774	26.356	867.029	690.098
294.789	26.618	866.656	690.741
295.803	26.469	866.209	689.756
296.818	26.550	865.524	689.456
297.833	26.211	864.338	687.163
298.847	26.043	863.528	685.819
299.862	26.374	863.617	687.087
300.876	26.657	863.028	687.630
301.891	26.436	862.595	686.386
302.906	25.997	861.414	683.721
303.920	26.145	861.374	684.190
304.935	26.554	861.130	685.485
305.949	26.493	860.063	684.345
306.964	26.220	859.202	682.568
307.979	26.197	859.253	682.461
308.993	26.692	859.017	684.083
310.008	26.521	858.379	682.871
311.022	26.227	857.635	681.107
312.037	26.347	856.512	680.608
313.052	25.960	855.750	678.486
314.066	24.934	854.834	673.842
315.081	24.740	853.813	672.246
316.095	25.714	853.853	675.879
317.110	26.195	853.771	677.559
318.125	25.383	852.129	673.156
319.139	24.285	850.486	667.687
320.154	24.208	850.217	667.128
321.168	25.078	850.908	670.871
322.183	25.928	850.672	673.804
323.197	26.073	850.285	673.979
324.212	26.252	850.330	674.623
325.227	26.298	849.555	674.119
326.241	26.094	848.867	672.757
327.256	26.089	848.263	672.200
328.270	25.861	847.712	670.855
329.285	25.893	846.509	669.963
330.300	25.614	846.025	668.481
331.314	25.928	845.597	669.250
332.329	26.384	845.259	670.617
333.343	26.444	845.341	670.843
334.358	26.301	845.188	670.133
335.373	26.388	844.657	669.974
336.387	26.716	844.437	670.955
337.402	26.781	844.513	671.196
338.416	26.764	844.009	670.676
339.431	26.999	843.652	671.200
340.446	26.960	843.165	670.609
341.460	26.796	843.138	669.923
342.475	26.647	841.903	668.331
343.489	26.822	841.775	668.817
344.504	27.092	841.211	669.303
345.519	27.174	841.268	669.591
346.533	27.250	840.925	669.541
347.548	27.250	840.149	668.865
348.562	27.414	839.629	668.995
349.577	27.150	839.177	667.603
350.592	27.141	838.668	667.106
351.606	27.199	837.766	666.543
352.621	26.899	836.966	664.750
353.635	26.982	835.986	664.217
354.650	26.166	834.639	660.103
355.665	25.381	832.899	655.805
356.679	25.761	832.935	657.161
357.694	26.202	832.508	658.373
358.708	26.032	832.154	657.418
359.723	26.499	832.402	659.259
360.738	26.946	831.818	660.361
361.752	26.926	831.203	659.745
362.767	27.261	831.079	660.804
363.781	27.389	831.011	661.158
364.796	27.647	830.047	661.267
365.810	27.746	829.810	661.377
366.825	27.535	829.212	660.077
367.840	27.213	828.391	658.202
368.854	26.910	827.333	656.207
369.869	26.856	827.119	655.783
370.883	27.015	826.760	656.017
371.898	26.882	826.476	655.252
372.913	26.998	826.174	655.372
373.927	26.997	825.724	654.954
374.942	27.047	825.389	654.812
375.956	27.227	825.059	655.140
376.971	27.338	824.673	655.176
377.986	27.572	824.227	655.607
379.000	27.356	823.689	654.341
380.015	27.242	822.761	653.139
381.029	27.391	822.320	653.264
382.044	27.434	822.168	653.242
383.059	27.648	821.351	653.300
384.073	27.577	820.832	652.575
385.088	27.587	819.728	651.675
386.102	27.317	819.261	650.283
387.117	27.286	818.947	649.865
388.132	26.956	817.536	647.511
389.146	26.585	816.206	645.079
390.161	26.832	816.719	646.306
391.175	27.163	816.593	647.331
392.190	26.887	815.572	645.480
393.205	25.442	813.448	638.610
394.219	23.879	811.581	631.542
395.234	23.870	811.822	631.641
396.248	25.630	812.900	638.679
397.263	27.146	813.488	644.465
398.278	26.923	813.239	643.420
399.292	26.749	812.732	642.345
400.307	26.862	812.070	642.166
401.321	26.849	811.809	641.858
402.336	27.435	811.784	643.854
403.350	27.794	811.538	644.871
404.365	28.000	811.677	645.649
405.380	28.314	810.828	646.027
406.394	28.368	810.505	645.902
407.409	28.233	810.059	645.012
408.423	28.126	809.956	644.498
409.438	28.177	809.895	644.570
410.453	28.310	809.086	644.337
411.467	28.308	808.216	643.581
412.482	28.413	808.000	643.723
413.496	28.440	807.717	643.534
414.511	28.152	807.487	642.284
415.526	28.149	806.829	641.693
416.540	28.084	805.975	640.729
417.555	27.875	805.221	639.339
418.569	27.896	805.264	639.392
419.584	27.880	804.554	638.716
420.599	27.788	803.653	637.622
421.613	110.034	1283.592	1450.738
422.628	94.995	1353.533	1450.833
