DTS Sentinel unit serial number:	SN413079Multiplexer serial number:	ORYXHardware model number:	OX4-SRSoftware version number:	ORYX F/W v4.00 Oryx Data Collector v3.7.2.0data status	okinstallation	princeton_trtdifferential loss correction	single-endedforward channel	channel 1reverse channel	N/Adate	2019/09/13time	08:58:35forward acquisition time	60.00reverse acquisition time	0.00gamma	496.2192k internal	0.2327k external	0.2327temperature offset calibration	1.0161default loss term (dB/km)	0.3790temperature slope calibration	1.0000multiplexer offset coefficient	1.0000multiplexer slope coefficient	1.0000fibre end	0.00T internal ref (°C)	28.36T ext. ref 1 (°C)	4.36T ext. ref 2 (°C)	25.52length (m)	temperature (°C)	Stokes	anti-Stokes-747.200	-200.000	0.039	-0.393
-746.185	17.578	0.009	0.007
-745.171	-77.173	-0.135	0.047
-744.156	143.613	0.048	0.064
-743.142	800.000	0.049	-0.152
-742.127	-110.297	-0.267	-0.056
-741.112	224.859	0.057	0.093
-740.098	-58.678	0.053	-0.023
-739.083	60.341	0.028	0.028
-738.069	566.747	-0.060	0.147
-737.054	-90.141	0.350	0.103
-736.039	-77.612	-0.174	-0.061
-735.025	101.067	0.151	0.177
-734.010	105.308	-0.271	-0.322
-732.996	800.000	-0.068	-0.282
-731.981	-200.000	-0.064	0.364
-730.966	61.298	-0.188	-0.188
-729.952	-97.562	0.099	-0.026
-728.937	-2.498	0.171	-0.120
-727.923	-200.000	-0.078	0.403
-726.908	-200.000	-0.033	0.189
-725.894	47.082	-0.124	0.116
-724.879	87.988	-0.129	-0.144
-723.864	-93.435	0.180	0.050
-722.850	-144.760	-0.296	0.027
-721.835	800.000	0.053	-0.175
-720.821	-131.486	0.311	-0.041
-719.806	33.881	-0.385	-0.338
-718.791	-29.718	0.229	-0.131
-717.777	264.877	-0.098	-0.172
-716.762	-177.604	-0.257	0.006
-715.748	-134.898	0.105	-0.013
-714.733	800.000	-0.038	-0.149
-713.718	132.945	-0.161	-0.210
-712.704	800.000	-0.058	-0.185
-711.689	97.264	0.038	0.044
-710.675	-67.147	0.420	-0.167
-709.660	-66.523	0.152	0.061
-708.645	-85.972	-0.178	0.056
-707.631	680.764	-0.050	-0.132
-706.616	168.942	0.146	-0.210
-705.602	-17.576	-0.181	-0.115
-704.587	211.662	-0.115	0.182
-703.572	71.352	-0.316	-0.330
-702.558	604.804	-0.091	-0.228
-701.543	13.795	-0.201	-0.158
-700.529	200.021	0.046	0.071
-699.514	154.695	-0.036	0.050
-698.499	800.000	-0.172	-0.481
-697.485	96.405	0.247	-0.284
-696.470	537.563	-0.101	0.241
-695.456	-200.000	0.096	-0.458
-694.441	-200.000	-0.011	-0.058
-693.426	-3.825	-0.121	-0.085
-692.412	-200.000	-0.020	-0.369
-691.397	-49.768	-0.361	-0.172
-690.383	321.233	-0.099	-0.190
-689.368	-60.765	0.167	0.071
-688.354	100.537	0.273	-0.319
-687.339	55.290	0.194	-0.189
-686.324	-84.999	-0.067	-0.021
-685.310	126.655	0.197	0.250
-684.295	468.439	0.060	0.135
-683.281	-190.317	0.186	-0.002
-682.266	-57.861	-0.276	-0.121
-681.251	-119.831	-0.326	0.056
-680.237	189.811	0.071	-0.107
-679.222	210.712	-0.033	0.053
-678.208	-15.623	0.025	0.016
-677.193	-200.000	0.016	-0.304
-676.178	-29.517	0.044	-0.025
-675.164	-200.000	0.019	-0.139
-674.149	238.540	-0.122	-0.204
-673.135	9.676	0.133	-0.101
-672.120	-108.919	0.231	-0.049
-671.105	241.352	-0.103	-0.174
-670.091	654.002	-0.042	-0.109
-669.076	-133.315	-0.108	0.014
-668.062	-55.833	0.206	-0.093
-667.047	-200.000	-0.003	0.077
-666.032	465.441	0.081	0.182
-665.018	-0.719	0.099	-0.070
-664.003	-26.071	0.227	-0.134
-662.989	253.920	-0.124	-0.214
-661.974	-40.868	-0.212	0.110
-660.959	-48.218	0.207	0.100
-659.945	-56.210	0.139	0.062
-658.930	-105.555	-0.094	0.021
-657.916	168.445	-0.024	-0.034
-656.901	800.000	-0.134	-0.407
-655.886	259.343	-0.158	-0.274
-654.872	81.569	0.057	-0.062
-653.857	800.000	-0.035	-0.100
-652.843	493.948	0.039	0.090
-651.828	-124.812	0.253	-0.039
-650.814	800.000	-0.014	0.047
-649.799	137.352	-0.085	0.112
-648.784	349.914	0.075	0.150
-647.770	179.212	-0.019	-0.028
-646.755	-25.791	0.221	-0.131
-645.741	800.000	-0.027	-0.114
-644.726	685.507	0.078	-0.206
-643.711	11.005	-0.165	-0.126
-642.697	119.070	0.158	-0.196
-641.682	-109.392	0.296	-0.063
-640.668	-48.634	-0.255	0.123
-639.653	113.900	-0.147	-0.179
-638.638	18.970	0.077	-0.062
-637.624	-200.000	0.048	0.227
-636.609	-200.000	0.006	0.128
-635.595	417.205	-0.101	0.216
-634.580	-144.116	0.114	0.011
-633.565	-200.000	-0.037	-0.289
-632.551	-200.000	-0.029	0.360
-631.536	-18.917	-0.317	-0.198
-630.522	-200.000	0.018	-0.093
-629.507	472.781	0.135	0.304
-628.492	62.760	0.267	0.268
-627.478	58.461	-0.245	0.242
-626.463	-115.961	-0.353	-0.066
-625.449	42.591	-0.160	0.146
-624.434	-200.000	-0.049	0.359
-623.419	-121.512	-0.377	-0.063
-622.405	206.188	0.213	0.333
-621.390	-69.374	-0.232	-0.089
-620.376	-200.000	-0.011	-0.106
-619.361	-25.494	0.168	0.100
-618.346	-200.000	0.031	0.179
-617.332	-110.187	-0.250	0.052
-616.317	-129.357	-0.338	-0.047
-615.303	336.068	-0.120	0.233
-614.288	253.309	-0.202	0.347
-613.273	-29.578	0.201	0.115
-612.259	-60.355	-0.162	0.069
-611.244	66.308	-0.052	-0.053
-610.230	-4.534	-0.087	0.060
-609.215	-114.087	-0.308	0.060
-608.201	-21.352	0.170	0.104
-607.186	102.070	0.093	-0.109
-606.171	31.018	0.104	0.089
-605.157	800.000	0.028	0.115
-604.142	-122.913	-0.383	-0.062
-603.128	206.868	-0.052	0.082
-602.113	243.324	0.049	0.082
-601.098	-61.136	0.237	0.100
-600.084	75.805	-0.134	0.142
-599.069	-200.000	0.002	-0.189
-598.055	-99.005	-0.276	-0.070
-597.040	-4.992	-0.151	-0.104
-596.025	-155.857	0.218	-0.014
-595.011	-133.630	-0.196	-0.025
-593.996	-137.478	-0.220	0.025
-592.982	766.991	-0.035	-0.096
-591.967	-200.000	0.010	-0.219
-590.952	-190.797	0.049	0.001
-589.938	-200.000	-0.006	-0.157
-588.923	-151.727	-0.271	0.020
-587.909	672.296	-0.020	0.052
-586.894	-152.636	-0.439	-0.031
-585.879	328.731	0.105	-0.202
-584.865	-23.613	-0.117	0.070
-583.850	-98.617	0.178	0.045
-582.836	-29.263	-0.269	-0.154
-581.821	-200.000	-0.015	0.094
-580.806	12.171	0.232	-0.179
-579.792	-37.963	-0.187	0.099
-578.777	292.644	-0.039	0.071
-577.763	420.559	-0.148	0.317
-576.748	800.000	-0.049	0.209
-575.733	281.704	0.195	-0.349
-574.719	-22.374	-0.202	-0.122
-573.704	-200.000	0.004	-0.064
-572.690	108.353	0.164	0.196
-571.675	-63.433	0.418	0.172
-570.661	-58.307	-0.258	0.112
-569.646	2.085	-0.165	0.119
-568.631	-200.000	0.027	0.166
-567.617	78.685	-0.108	-0.116
-566.602	-138.007	-0.319	0.036
-565.588	-77.617	0.029	0.010
-564.573	481.385	-0.089	0.201
-563.558	-200.000	-0.006	0.130
-562.544	163.230	-0.115	-0.162
-561.529	-89.836	-0.247	-0.072
-560.515	-200.000	0.023	-0.221
-559.500	-27.176	-0.259	0.151
-558.485	208.869	0.169	-0.265
-557.471	14.104	-0.213	-0.166
-556.456	35.592	-0.208	0.182
-555.442	-200.000	-0.091	0.457
-554.427	-139.099	0.053	-0.006
-553.412	149.005	0.100	0.135
-552.398	612.798	-0.138	-0.345
-551.383	177.719	0.130	-0.189
-550.369	800.000	-0.092	-0.372
-549.354	-200.000	0.039	-0.196
-548.339	209.158	-0.165	0.258
-547.325	-121.540	-0.392	-0.065
-546.310	-91.167	0.273	-0.078
-545.296	127.812	0.214	0.272
-544.281	-196.859	-0.214	0.001
-543.266	-117.879	-0.058	-0.010
-542.252	-5.810	0.184	-0.126
-541.237	-122.763	0.182	0.029
-540.223	-111.602	-0.052	0.011
-539.208	-75.529	-0.181	0.064
-538.193	140.797	0.084	-0.111
-537.179	-135.081	0.152	0.018
-536.164	-64.801	0.207	0.084
-535.150	25.551	-0.074	0.062
-534.135	-45.766	0.399	-0.197
-533.121	-134.017	-0.229	0.028
-532.106	-34.774	0.271	0.148
-531.091	-96.189	-0.158	0.042
-530.077	25.803	-0.357	0.298
-529.062	800.000	0.054	-0.162
-528.048	800.000	0.083	-0.245
-527.033	-200.000	0.010	0.256
-526.018	-162.335	0.264	0.013
-525.004	-52.774	-0.274	-0.126
-523.989	227.310	0.227	-0.370
-522.975	-159.330	0.294	-0.016
-521.960	379.166	0.149	0.305
-520.945	-103.035	-0.166	0.039
-519.931	-139.408	-0.362	-0.039
-518.916	-24.971	0.273	0.162
-517.902	-0.045	-0.048	-0.034
-516.887	-200.000	0.010	0.178
-515.872	-26.693	-0.162	0.095
-514.858	307.095	-0.059	-0.109
-513.843	-200.000	0.271	-0.001
-512.829	-200.000	0.008	-0.106
-511.814	-37.101	-0.015	0.008
-510.799	800.000	0.033	-0.124
-509.785	-200.000	0.038	0.213
-508.770	-91.880	0.325	0.092
-507.756	-47.649	-0.024	0.012
-506.741	-107.790	-0.367	-0.080
-505.726	-68.243	-0.068	-0.026
-504.712	-200.000	0.037	0.229
-503.697	-64.633	-0.098	-0.040
-502.683	230.517	-0.082	0.133
-501.668	800.000	-0.040	-0.133
-500.653	-23.150	0.205	-0.123
-499.639	23.446	0.253	0.208
-498.624	-11.077	-0.198	-0.130
-497.610	800.000	-0.008	-0.032
-496.595	800.000	0.055	-0.238
-495.581	44.399	0.086	-0.079
-494.566	-200.000	0.020	0.095
-493.551	-120.740	0.168	-0.028
-492.537	-92.270	0.051	-0.014
-491.522	-125.439	0.277	0.042
-490.508	152.763	-0.232	-0.317
-489.493	441.584	0.047	-0.103
-488.478	-99.249	0.323	0.081
-487.464	-8.914	0.220	-0.147
-486.449	-200.000	0.013	-0.366
-485.435	523.521	-0.097	-0.228
-484.420	44.591	0.359	0.329
-483.405	-200.000	0.011	0.063
-482.391	-200.000	0.015	0.133
-481.376	-131.911	-0.073	0.010
-480.362	162.895	-0.078	-0.110
-479.347	-200.000	0.048	-0.255
-478.332	800.000	0.085	-0.270
-477.318	684.638	0.030	-0.078
-476.303	-94.029	0.087	0.024
-475.289	-162.533	-0.152	-0.007
-474.274	-96.275	0.254	-0.067
-473.259	-123.042	-0.112	0.018
-472.245	-20.803	-0.129	0.079
-471.230	-66.559	0.414	0.164
-470.216	367.778	-0.013	0.026
-469.201	-94.567	-0.081	0.022
-468.186	694.781	-0.012	-0.031
-467.172	-75.617	0.055	-0.020
-466.157	526.840	-0.078	-0.182
-465.143	163.315	0.126	-0.176
-464.128	740.601	-0.113	-0.301
-463.113	188.783	-0.300	-0.448
-462.099	-21.389	0.189	-0.115
-461.084	431.324	-0.102	-0.220
-460.070	164.977	-0.031	0.044
-459.055	33.211	-0.052	0.045
-458.040	37.209	-0.116	-0.102
-457.026	-180.389	0.147	-0.003
-456.011	-200.000	0.005	-0.158
-454.997	-200.000	-0.028	-0.225
-453.982	-168.508	0.066	-0.003
-452.968	-1.019	-0.272	-0.192
-451.953	-50.431	0.076	0.036
-450.938	139.743	-0.215	0.282
-449.924	-151.121	0.144	-0.011
-448.909	-79.100	0.294	-0.100
-447.895	800.000	-0.017	-0.059
-446.880	800.000	-0.108	-0.380
-445.865	800.000	0.068	0.274
-444.851	800.000	-0.127	-0.440
-443.836	-104.152	0.071	-0.016
-442.822	625.927	-0.104	0.261
-441.807	-51.056	0.210	0.098
-440.792	-112.327	0.023	-0.005
-439.778	-7.627	-0.355	-0.239
-438.763	57.977	-0.081	0.079
-437.749	-200.000	0.064	0.315
-436.734	87.303	-0.208	0.229
-435.719	34.739	-0.114	0.099
-434.705	-71.175	-0.076	0.028
-433.690	21.708	0.097	0.079
-432.676	123.548	0.077	0.096
-431.661	800.000	-0.122	-0.441
-430.646	321.775	-0.123	0.234
-429.632	43.718	-0.225	0.205
-428.617	17.598	-0.165	-0.130
-427.603	-200.000	-0.046	-0.242
-426.588	-21.660	0.247	-0.150
-425.573	-200.000	-0.042	-0.277
-424.559	-200.000	-0.009	-0.296
-423.544	-61.233	0.216	-0.091
-422.530	127.259	-0.071	0.089
-421.515	515.378	0.081	0.188
-420.500	-200.000	-0.020	-0.147
-419.486	22.942	0.154	0.125
-418.471	800.000	0.050	-0.147
-417.457	-48.378	0.164	0.079
-416.442	-164.823	-0.075	-0.003
-415.428	-97.043	0.191	0.050
-414.413	43.009	-0.193	-0.175
-413.398	-82.106	0.263	-0.085
-412.384	800.000	-0.096	-0.355
-411.369	23.997	0.251	-0.206
-410.355	-41.696	-0.211	0.108
-409.340	-200.000	-0.029	0.287
-408.325	42.242	-0.172	0.156
-407.311	110.144	-0.217	-0.259
-406.296	15.745	0.194	-0.152
-405.282	55.157	-0.249	-0.239
-404.267	-12.200	-0.320	-0.208
-403.252	-68.696	0.392	0.151
-402.238	-200.000	-0.002	0.110
-401.223	86.268	0.030	-0.033
-400.209	-200.000	-0.020	0.368
-399.194	800.000	-0.097	0.394
-398.179	800.000	0.036	0.141
-397.165	51.357	0.178	-0.168
-396.150	-30.489	0.071	0.040
-395.136	-187.649	0.089	-0.001
-394.121	213.097	-0.131	0.206
-393.106	95.830	0.079	-0.090
-392.092	525.396	0.068	0.160
-391.077	-122.125	-0.136	-0.022
-390.063	-68.245	0.139	0.054
-389.048	287.246	0.121	-0.217
-388.033	574.456	0.112	-0.273
-387.019	-51.640	0.141	0.065
-386.004	-71.277	0.196	0.073
-384.990	-105.116	0.015	-0.003
-383.975	200.515	0.239	0.365
-382.960	-77.976	0.016	-0.005
-381.946	-200.000	0.018	0.180
-380.931	-177.548	-0.115	-0.003
-379.917	67.243	0.127	-0.129
-378.902	-82.134	0.119	0.038
-377.888	183.581	0.182	-0.267
-376.873	19.612	0.143	-0.115
-375.858	381.844	-0.045	0.092
-374.844	800.000	0.065	0.183
-373.829	-78.494	0.525	-0.178
-372.815	233.860	-0.190	-0.311
-371.800	-101.972	-0.138	0.033
-370.785	104.984	-0.184	0.215
-369.771	173.099	0.179	0.256
-368.756	-40.207	0.164	0.085
-367.742	-0.872	-0.096	-0.068
-366.727	-200.000	0.015	-0.149
-365.712	5.585	-0.239	-0.175
-364.698	-200.000	-0.003	-0.172
-363.683	-57.113	-0.205	0.090
-362.669	-32.370	0.222	0.123
-361.654	-200.000	-0.036	-0.195
-360.639	-149.261	-0.174	-0.014
-359.625	800.000	-0.021	0.084
-358.610	68.954	0.182	0.186
-357.596	271.360	0.193	-0.337
-356.581	-119.033	-0.043	0.007
-355.566	36.100	-0.070	-0.061
-354.552	107.975	-0.069	-0.082
-353.537	290.061	-0.057	0.102
-352.523	800.000	0.025	0.089
-351.508	582.473	-0.126	0.308
-350.493	36.291	0.264	0.231
-349.479	-151.166	0.157	-0.012
-348.464	233.212	0.339	-0.554
-347.450	-9.643	0.425	-0.281
-346.435	-68.088	0.206	-0.080
-345.420	96.722	0.170	0.193
-344.406	-200.000	0.006	-0.312
-343.391	-0.583	0.147	0.104
-342.377	269.054	-0.064	0.111
-341.362	-200.000	0.057	0.369
-340.348	-74.223	-0.149	0.054
-339.333	138.296	-0.100	-0.130
-338.318	40.806	-0.159	-0.142
-337.304	98.022	-0.052	0.059
-336.289	-69.647	-0.339	0.129
-335.275	1.083	-0.112	0.080
-334.260	-200.000	-0.031	-0.214
-333.245	-200.000	0.003	-0.085
-332.231	139.727	-0.182	0.238
-331.216	-200.000	-0.022	-0.178
-330.202	-200.000	0.005	0.089
-329.187	288.231	-0.088	0.158
-328.172	-1.246	-0.297	-0.208
-327.158	-98.511	0.054	-0.014
-326.143	-138.060	0.389	0.043
-325.129	-90.606	-0.209	-0.060
-324.114	82.853	0.052	0.057
-323.099	-118.849	-0.350	-0.061
-322.085	-157.636	-0.281	0.017
-321.070	800.000	-0.074	0.225
-320.056	-40.156	0.352	0.182
-319.041	-200.000	0.083	0.407
-318.026	-133.493	0.232	-0.029
-317.012	116.004	-0.025	-0.031
-315.997	-199.224	0.164	-0.001
-314.983	800.000	0.050	0.157
-313.968	320.829	0.046	-0.087
-312.953	-82.879	-0.250	-0.080
-311.939	44.261	-0.003	-0.002
-310.924	311.997	-0.085	0.158
-309.910	-84.481	0.214	0.067
-308.895	-156.018	-0.141	-0.009
-307.880	-12.583	-0.097	0.063
-306.866	6.795	0.286	0.211
-305.851	109.015	-0.095	0.113
-304.837	-82.315	0.205	-0.066
-303.822	-96.414	-0.180	0.047
-302.807	-57.337	0.205	0.089
-301.793	204.078	0.270	-0.414
-300.778	47.379	0.105	-0.097
-299.764	327.018	0.040	-0.076
-298.749	252.381	0.106	0.179
-297.735	-62.580	-0.363	-0.149
-296.720	-96.920	0.265	0.069
-295.705	800.000	0.037	0.125
-294.691	-136.374	-0.402	0.046
-293.676	-67.281	-0.185	-0.072
-292.662	-200.000	0.001	-0.054
-291.647	-56.151	-0.156	-0.069
-290.632	800.000	0.076	0.287
-289.618	37.046	0.231	-0.203
-288.603	-102.347	0.303	0.072
-287.589	-55.066	-0.162	0.072
-286.574	145.220	0.063	0.083
-285.559	0.737	0.193	0.137
-284.545	-88.654	0.090	-0.026
-283.530	-34.106	-0.140	-0.076
-282.516	800.000	0.079	-0.247
-281.501	800.000	0.062	-0.185
-280.486	-53.478	-0.236	-0.107
-279.472	-200.000	-0.004	-0.218
-278.457	-114.431	0.185	0.035
-277.443	1.113	-0.127	0.090
-276.428	23.030	-0.075	0.061
-275.413	-200.000	-0.016	-0.085
-274.399	-77.038	0.299	-0.103
-273.384	-36.620	0.206	-0.110
-272.370	-200.000	-0.055	0.314
-271.355	-25.696	-0.272	0.159
-270.340	-57.650	0.161	-0.070
-269.326	-44.835	0.070	0.034
-268.311	-126.996	0.232	-0.034
-267.297	-177.752	0.082	0.002
-266.282	-63.092	-0.097	0.040
-265.267	-200.000	-0.061	-0.404
-264.253	-107.293	0.286	0.062
-263.238	800.000	-0.045	0.166
-262.224	-79.608	-0.182	-0.061
-261.209	-200.000	-0.016	-0.629
-260.195	-200.000	0.011	-0.082
-259.180	-29.345	-0.260	0.147
-258.165	-200.000	0.020	-0.104
-257.151	-66.680	-0.449	0.176
-256.136	-40.939	0.319	0.163
-255.122	800.000	-0.180	0.500
-254.107	-34.786	0.213	0.115
-253.092	-67.652	0.217	-0.084
-252.078	161.296	-0.086	-0.119
-251.063	248.686	0.112	0.188
-250.049	139.140	-0.101	-0.131
-249.034	800.000	-0.038	0.152
-248.019	5.793	-0.179	0.131
-247.005	-200.000	0.012	-0.147
-245.990	-200.000	-0.000	-0.650
-244.976	-200.000	0.003	0.285
-243.961	-200.000	0.058	-0.299
-242.946	800.000	0.065	0.270
-241.932	-33.968	0.213	0.116
-240.917	17.517	0.054	0.043
-239.903	37.502	-0.093	-0.082
-238.888	0.398	0.220	-0.155
-237.873	-161.292	-0.363	-0.019
-236.859	-5.742	-0.430	0.291
-235.844	277.344	-0.109	-0.191
-234.830	15.729	-0.074	-0.058
-233.815	-130.966	-0.056	-0.007
-232.800	210.733	-0.188	-0.292
-231.786	-72.778	0.022	0.008
-230.771	800.000	-0.080	-0.276
-229.757	90.629	-0.171	0.189
-228.742	-36.304	-0.340	0.181
-227.727	-48.211	0.214	0.102
-226.713	283.940	-0.120	-0.213
-225.698	64.479	0.211	0.210
-224.684	-4.278	-0.222	-0.152
-223.669	-200.000	0.018	0.231
-222.655	-11.952	-0.096	-0.062
-221.640	140.488	0.138	0.180
-220.625	800.000	0.094	0.305
-219.611	-146.994	-0.325	-0.028
-218.596	-30.282	0.181	-0.101
-217.582	-152.857	0.355	0.025
-216.567	36.954	-0.070	-0.061
-215.552	-59.629	0.352	0.149
-214.538	-51.387	0.350	-0.162
-213.523	-77.838	0.296	-0.101
-212.509	-173.891	-0.421	-0.012
-211.494	-200.000	-0.028	0.195
-210.479	-96.824	-0.180	0.047
-209.465	800.000	0.064	-0.210
-208.450	-36.113	0.432	-0.231
-207.436	-63.828	-0.054	0.022
-206.421	800.000	0.055	0.233
-205.406	-103.936	-0.302	-0.070
-204.392	-200.000	-0.046	0.348
-203.377	18.155	0.159	-0.125
-202.363	104.314	0.293	-0.340
-201.348	-86.643	-0.230	-0.070
-200.333	-121.567	0.175	0.029
-199.319	-200.000	-0.030	0.164
-198.304	178.744	0.050	-0.072
-197.290	-55.313	-0.078	-0.035
-196.275	295.723	0.047	-0.085
-195.260	287.758	-0.108	0.193
-194.246	-9.865	0.052	0.034
-193.231	-200.000	0.005	-0.032
-192.217	-200.000	0.009	0.212
-191.202	-200.000	-0.002	-0.109
-190.187	-200.000	0.047	0.293
-189.173	-92.732	0.239	0.066
-188.158	800.000	0.049	0.199
-187.144	-200.000	0.015	-0.104
-186.129	-37.717	0.268	0.141
-185.114	118.576	0.082	0.100
-184.100	-107.019	-0.149	0.033
-183.085	-117.623	0.304	0.054
-182.071	-200.000	0.001	0.273
-181.056	47.201	-0.075	0.069
-180.042	-55.556	0.141	-0.062
-179.027	39.772	0.276	0.244
-178.012	114.846	-0.150	0.180
-176.998	252.079	0.010	-0.017
-175.983	-33.967	-0.167	0.091
-174.969	-71.230	-0.066	-0.024
-173.954	122.175	-0.048	-0.060
-172.939	344.856	0.070	-0.135
-171.925	28.127	0.288	-0.240
-170.910	78.205	0.073	-0.077
-169.896	112.582	-0.244	-0.291
-168.881	-200.000	-0.041	0.469
-167.866	285.851	-0.026	0.047
-166.852	-124.725	0.119	0.018
-165.837	-109.555	-0.173	0.036
-164.823	-136.286	0.254	-0.029
-163.808	106.553	-0.077	-0.090
-162.793	54.277	-0.117	0.111
-161.779	-194.220	0.317	0.003
-160.764	-200.000	-0.003	0.050
-159.750	-200.000	0.006	0.293
-158.735	289.428	0.148	0.264
-157.720	800.000	-0.022	0.080
-156.706	-136.606	-0.291	-0.033
-155.691	60.140	0.049	-0.048
-154.677	-200.000	-0.014	-0.213
-153.662	0.174	-0.338	-0.238
-152.647	-200.000	0.023	-0.209
-151.633	-200.000	0.026	-0.222
-150.618	96.817	-0.163	-0.184
-149.604	-86.887	0.262	0.079
-148.589	156.460	0.020	-0.027
-147.574	-200.000	0.004	-0.042
-146.560	-200.000	0.009	-0.127
-145.545	-146.952	0.186	-0.016
-144.531	-40.248	0.060	-0.031
-143.516	-200.000	-0.009	-0.216
-142.502	-48.244	0.145	0.069
-141.487	-53.384	-0.112	-0.050
-140.472	-200.000	0.044	0.352
-139.458	-200.000	0.027	-0.313
-138.443	421.224	0.072	-0.151
-137.429	68.329	-0.186	0.188
-136.414	429.267	0.074	0.157
-135.399	-200.000	-0.006	0.179
-134.385	-38.335	0.179	0.093
-133.370	109.506	0.249	0.294
-132.356	-120.787	-0.325	-0.054
-131.341	800.000	-0.037	-0.135
-130.326	-200.000	-0.020	0.316
-129.312	-200.000	-0.034	-0.304
-128.297	565.676	0.135	-0.322
-127.283	-44.043	0.284	-0.140
-126.268	-55.883	-0.221	0.097
-125.253	-84.312	-0.364	0.113
-124.239	-17.616	-0.088	-0.055
-123.224	20.014	0.193	0.153
-122.210	-89.966	0.248	-0.071
-121.195	-77.899	-0.041	-0.014
-120.180	-109.355	-0.168	0.035
-119.166	-118.752	-0.182	0.031
-118.151	574.042	-0.069	0.166
-117.137	-200.000	0.014	0.185
-116.122	24.281	0.133	-0.108
-115.107	-200.000	0.054	0.283
-114.093	48.030	-0.286	0.263
-113.078	800.000	0.026	0.091
-112.064	278.857	0.029	0.051
-111.049	-200.000	-0.026	0.177
-110.034	43.868	0.175	-0.158
-109.020	-142.730	0.215	-0.021
-108.005	-60.498	0.306	0.128
-106.991	-200.000	0.039	-0.334
-105.976	295.610	0.126	0.227
-104.962	-109.659	-0.245	0.051
-103.947	-104.234	0.135	0.031
-102.932	-10.639	0.204	0.133
-101.918	-113.095	-0.156	0.030
-100.903	-200.000	0.025	0.374
-99.889	-107.590	0.220	-0.047
-98.874	320.256	0.074	-0.137
-97.859	-117.406	-0.115	0.021
-96.845	20.777	-0.211	-0.168
-95.830	-159.287	0.144	0.008
-94.816	800.000	-0.159	0.437
-93.801	-200.000	-0.027	0.220
-92.786	-14.251	-0.155	-0.098
-91.772	-10.891	-0.282	-0.183
-90.757	10.467	0.007	-0.005
-89.743	205.024	-0.210	0.320
-88.728	-200.000	-0.019	0.172
-87.713	-179.244	-0.289	0.006
-86.699	187.468	-0.207	-0.304
-85.684	54.193	-0.338	0.319
-84.670	135.617	0.152	0.195
-83.655	-110.864	0.138	-0.028
-82.640	-58.724	-0.238	0.101
-81.626	-72.391	0.218	0.079
-80.611	-66.584	0.476	-0.185
-79.597	-166.723	0.075	-0.003
-78.582	-23.522	-0.098	0.058
-77.567	800.000	0.014	-0.040
-76.553	-157.902	0.273	-0.016
-75.538	-200.000	0.022	0.379
-74.524	-200.000	0.016	-0.285
-73.509	-200.000	-0.007	-0.237
-72.494	319.854	0.092	0.172
-71.480	170.688	-0.159	0.223
-70.465	646.223	-0.041	0.102
-69.451	133.347	-0.152	-0.193
-68.436	800.000	0.004	-0.014
-67.422	140.630	-0.050	-0.065
-66.407	800.000	0.008	0.029
-65.392	39.826	0.380	0.335
-64.378	-59.118	0.306	-0.129
-63.363	-200.000	0.074	-0.320
-62.349	-87.196	-0.323	0.096
-61.334	215.639	-0.590	-0.919
-60.319	107.707	0.452	0.528
-59.305	351.769	-0.680	-1.322
-58.290	800.000	0.437	1.247
-57.276	542.552	0.714	1.670
-56.261	-200.000	109.327	597.999
-55.246	491.855	1522.168	3420.989
-54.232	173.581	2713.027	3840.829
-53.217	108.361	2173.779	2545.084
-52.203	39.921	1612.240	1420.408
-51.188	31.806	1351.604	1141.559
-50.173	28.752	1311.090	1089.218
-49.159	53.067	1367.501	1284.101
-48.144	52.620	1382.457	1295.383
-47.130	31.878	1336.508	1129.062
-46.115	28.491	1318.968	1094.030
-45.100	28.327	1313.855	1088.771
-44.086	28.265	1311.089	1086.068
-43.071	28.174	1309.081	1083.825
-42.057	28.119	1306.710	1081.490
-41.042	28.252	1305.023	1080.840
-40.027	28.222	1304.007	1079.780
-39.013	28.180	1301.906	1077.750
-37.998	28.203	1299.864	1076.152
-36.984	28.291	1297.735	1074.863
-35.969	28.356	1296.241	1073.963
-34.954	28.403	1294.360	1072.637
-33.940	28.452	1293.383	1072.070
-32.925	28.471	1291.725	1070.766
-31.911	28.492	1289.863	1069.300
-30.896	28.431	1289.092	1068.263
-29.881	28.385	1288.001	1067.050
-28.867	28.559	1285.889	1066.267
-27.852	28.510	1284.939	1065.152
-26.838	28.600	1282.849	1063.901
-25.823	28.475	1282.204	1062.602
-24.809	28.457	1280.409	1060.964
-23.794	28.440	1279.477	1060.055
-22.779	28.439	1278.166	1058.916
-21.765	28.470	1277.063	1058.143
-20.750	28.525	1275.121	1056.810
-19.736	28.297	1274.591	1055.010
-18.721	28.390	1272.836	1054.052
-17.706	28.442	1271.468	1053.176
-16.692	28.257	1270.836	1051.550
-15.677	28.248	1270.283	1051.002
-14.663	28.318	1268.982	1050.281
-13.648	28.355	1267.720	1049.407
-12.633	28.299	1266.700	1048.202
-11.619	28.274	1265.880	1047.337
-10.604	28.259	1265.330	1046.757
-9.590	28.281	1263.816	1045.589
-8.575	28.238	1263.228	1044.812
-7.560	28.256	1262.293	1044.103
-6.546	28.192	1262.177	1043.599
-5.531	28.203	1260.811	1042.490
-4.517	28.363	1259.396	1042.189
-3.502	28.309	1258.994	1041.510
-2.487	28.265	1257.547	1040.019
-1.473	28.333	1254.066	1037.488
-0.458	27.300	1239.385	1019.516
0.556	26.053	1222.309	984.249
1.571	22.442	1228.822	969.564
2.586	21.330	1243.353	974.744
3.600	20.521	1230.326	959.977
4.615	15.590	1158.257	877.959
5.629	8.032	1084.974	785.216
6.644	4.651	1066.771	755.568
7.659	4.366	1064.007	752.163
8.673	4.271	1062.535	750.598
9.688	4.164	1061.784	749.482
10.702	4.581	1059.658	749.929
11.717	9.788	1066.328	779.807
12.731	17.715	1077.895	826.782
13.746	21.761	1082.149	849.625
14.761	22.116	1082.614	851.641
15.775	21.320	1080.731	846.230
16.790	20.331	1078.835	839.886
17.804	19.761	1076.817	835.490
18.819	19.460	1076.265	833.531
19.834	19.445	1075.314	832.651
20.848	19.407	1075.146	832.260
21.863	19.184	1074.270	830.434
22.877	19.058	1073.513	829.170
23.892	18.848	1073.135	827.792
24.907	18.924	1072.048	827.249
25.921	18.831	1071.100	825.992
26.936	18.951	1069.518	825.278
27.950	18.830	1068.732	824.017
28.965	19.084	1066.824	823.691
29.980	19.125	1065.806	823.026
30.994	19.147	1064.598	822.124
32.009	19.388	1063.415	822.291
33.023	19.127	1063.377	820.943
34.038	19.137	1061.844	819.733
35.053	19.032	1060.692	818.273
36.067	19.001	1059.581	817.196
37.082	19.034	1059.103	816.914
38.096	19.202	1058.541	817.202
39.111	19.183	1057.561	816.282
40.126	19.008	1056.379	814.473
41.140	18.717	1054.990	811.952
42.155	18.639	1053.377	810.268
43.169	18.594	1052.346	809.196
44.184	18.421	1051.690	807.800
45.199	18.548	1050.492	807.410
46.213	18.739	1049.946	807.815
47.228	18.986	1048.989	808.169
48.242	18.971	1047.804	807.116
49.257	18.903	1047.044	806.140
50.271	19.112	1046.121	806.337
51.286	19.112	1045.192	805.549
52.301	19.008	1044.292	804.299
53.315	18.885	1043.006	802.661
54.330	18.790	1042.019	801.389
55.344	18.734	1041.392	800.572
56.359	18.670	1040.411	799.452
57.374	18.728	1039.208	798.723
58.388	18.537	1038.601	797.298
59.403	18.556	1037.715	796.636
60.417	18.532	1037.089	795.975
61.432	18.388	1036.403	794.711
62.447	18.292	1035.618	793.593
63.461	18.312	1034.377	792.665
64.476	18.271	1033.575	791.789
65.490	18.289	1032.493	790.973
66.505	18.409	1032.032	791.107
67.520	18.346	1031.655	790.453
68.534	18.290	1030.885	789.537
69.549	18.317	1029.996	788.912
70.563	18.159	1029.374	787.639
71.578	18.277	1027.805	786.908
72.593	18.022	1027.427	785.379
73.607	18.047	1026.708	784.876
74.622	18.147	1026.231	784.897
75.636	18.201	1026.025	784.919
76.651	18.291	1024.731	784.272
77.666	18.335	1024.262	784.045
78.680	18.220	1023.837	783.126
79.695	18.270	1022.837	782.518
80.709	18.528	1022.673	783.503
81.724	18.515	1021.765	782.681
82.739	18.631	1021.548	782.974
83.753	18.950	1020.494	783.550
84.768	19.229	1020.082	784.433
85.782	19.290	1019.166	783.937
86.797	19.271	1018.088	782.954
87.812	19.079	1017.211	781.337
88.826	19.090	1016.049	780.426
89.841	19.205	1015.119	780.163
90.855	19.272	1014.213	779.700
91.870	19.280	1013.733	779.298
92.884	19.216	1012.656	778.115
93.899	19.299	1011.989	777.908
94.914	19.335	1010.799	777.084
95.928	19.286	1010.283	776.400
96.943	19.133	1009.147	774.769
97.957	19.036	1008.368	773.666
98.972	19.133	1007.578	773.428
99.987	19.276	1006.623	773.267
101.001	19.239	1005.163	771.914
102.016	19.063	1004.749	770.740
103.030	19.144	1004.090	770.528
104.045	19.175	1003.034	769.787
105.060	18.986	1002.286	768.302
106.074	18.530	1001.234	765.391
107.089	18.471	999.734	763.914
108.103	18.446	998.525	762.809
109.118	18.406	997.710	761.945
110.133	18.347	996.892	760.988
111.147	18.385	995.828	760.279
112.162	18.413	995.520	760.101
113.176	18.551	994.694	760.014
114.191	18.598	993.756	759.436
115.206	18.558	993.429	758.944
116.220	18.443	992.663	757.782
117.235	18.504	991.580	757.157
118.249	18.484	990.291	756.017
119.264	18.384	989.531	754.929
120.279	18.258	989.099	753.979
121.293	18.299	987.780	753.087
122.308	18.205	987.079	752.073
123.322	18.153	986.133	751.056
124.337	18.108	985.029	749.952
125.352	18.136	983.774	749.055
126.366	18.067	983.006	748.099
127.381	18.132	982.091	747.625
128.395	18.189	980.932	746.922
129.410	18.168	980.425	746.379
130.424	18.284	979.515	746.126
131.439	18.588	978.796	746.838
132.454	18.574	977.860	745.995
133.468	18.457	977.400	745.070
134.483	18.548	976.477	744.696
135.497	18.438	976.173	743.922
136.512	18.625	974.954	743.734
137.527	18.570	974.057	742.748
138.541	18.611	973.201	742.209
139.556	18.593	972.764	741.730
140.570	18.885	972.178	742.480
141.585	19.071	971.065	742.366
142.600	19.182	970.275	742.174
143.614	19.204	969.822	741.859
144.629	19.172	969.001	741.024
145.643	19.048	968.151	739.776
146.658	18.927	966.564	737.981
147.673	18.874	965.500	736.873
148.687	18.769	964.763	735.799
149.702	18.656	963.992	734.660
150.716	18.561	962.982	733.419
151.731	18.576	962.846	733.315
152.746	18.614	961.677	732.524
153.760	18.632	961.455	732.365
154.775	18.872	960.700	732.747
155.789	18.944	959.975	732.437
156.804	18.922	959.452	731.881
157.819	19.173	958.369	732.056
158.833	19.213	958.223	732.052
159.848	19.210	957.456	731.385
160.862	19.150	956.269	730.161
161.877	18.744	955.074	727.464
162.892	18.755	953.848	726.514
163.906	18.590	953.021	725.121
164.921	18.706	952.211	724.928
165.935	18.751	951.621	724.606
166.950	18.766	950.306	723.607
167.964	18.878	949.243	723.201
168.979	18.648	948.666	721.733
169.994	18.725	947.606	721.186
171.008	18.848	947.210	721.336
172.023	19.048	947.085	722.017
173.037	19.104	946.311	721.597
174.052	18.871	945.522	719.956
175.067	18.707	944.736	718.606
176.081	18.627	943.608	717.352
177.096	18.475	943.416	716.508
178.110	18.695	942.418	716.603
179.125	18.549	942.590	716.063
180.140	18.731	941.793	716.152
181.154	19.080	940.938	716.894
182.169	19.058	941.007	716.790
183.183	19.001	940.612	716.186
184.198	19.158	939.444	715.889
185.213	19.110	938.822	715.150
186.227	19.245	938.061	715.069
187.242	19.412	937.034	714.914
188.256	19.455	936.954	714.968
189.271	19.369	936.436	714.153
190.286	19.049	935.320	711.915
191.300	18.713	933.611	709.165
192.315	18.506	932.755	707.597
193.329	18.496	933.124	707.772
194.344	18.786	932.365	708.330
195.359	18.814	932.267	708.308
196.373	18.944	931.502	708.202
197.388	19.276	931.145	709.232
198.402	19.448	930.490	709.378
199.417	19.451	930.048	708.993
200.432	19.558	929.598	709.025
201.446	19.686	929.136	709.135
202.461	19.632	928.750	708.556
203.475	19.499	928.468	707.732
204.490	19.365	926.945	705.963
205.504	19.350	925.695	704.887
206.519	19.189	925.422	703.957
207.534	19.052	924.935	702.965
208.548	19.240	923.990	702.951
209.563	19.287	923.182	702.467
210.577	19.374	922.628	702.336
211.592	19.631	921.965	702.816
212.607	19.634	921.302	702.260
213.621	19.496	920.484	701.016
214.636	19.459	920.218	700.601
215.650	19.436	919.617	699.985
216.665	19.642	919.019	700.306
217.680	19.682	918.109	699.712
218.694	19.858	917.397	699.818
219.709	19.752	916.953	698.988
220.723	19.702	916.037	698.027
221.738	19.421	915.056	696.086
222.753	19.554	914.531	696.158
223.767	19.723	914.172	696.507
224.782	19.742	914.221	696.557
225.796	20.043	913.301	697.007
226.811	19.702	912.498	694.959
227.826	19.551	911.556	693.577
228.840	19.460	910.978	692.711
229.855	19.481	910.333	692.244
230.869	19.526	909.382	691.638
231.884	19.467	908.716	690.835
232.899	19.422	907.630	689.767
233.913	19.377	906.969	689.024
234.928	19.282	906.344	688.109
235.942	19.123	905.823	687.018
236.957	19.313	905.238	687.270
237.972	19.236	904.692	686.490
238.986	19.389	903.686	686.273
240.001	19.224	903.479	685.399
241.015	19.515	902.771	685.960
242.030	19.519	902.150	685.442
243.045	19.606	901.997	685.609
244.059	19.556	901.233	684.770
245.074	19.595	900.716	684.470
246.088	19.678	900.317	684.437
247.103	19.889	899.477	684.573
248.117	20.057	899.593	685.266
249.132	20.401	899.275	686.322
250.147	20.441	898.671	685.956
251.161	20.625	898.081	686.173
252.176	20.562	896.973	685.018
253.190	20.531	897.118	684.943
254.205	20.584	896.092	684.310
255.220	20.556	895.417	683.623
256.234	20.438	894.955	682.745
257.249	20.516	893.597	681.955
258.263	20.468	893.204	681.406
259.278	20.537	892.639	681.187
260.293	20.613	892.176	681.072
261.307	20.606	891.861	680.745
262.322	20.740	890.859	680.442
263.336	20.684	890.396	679.809
264.351	20.724	889.546	679.257
265.366	20.734	888.938	678.769
266.380	20.602	888.403	677.786
267.395	20.502	887.754	676.844
268.409	20.456	886.972	676.007
269.424	20.325	886.310	674.935
270.439	20.473	885.394	674.751
271.453	20.478	884.383	673.940
272.468	20.302	883.911	672.837
273.482	20.371	883.546	672.768
274.497	20.365	882.982	672.258
275.512	20.352	881.988	671.389
276.526	20.361	881.818	671.236
277.541	20.519	881.438	671.499
278.555	20.671	880.929	671.637
279.570	20.834	880.383	671.791
280.585	20.903	879.583	671.387
281.599	20.497	878.824	669.186
282.614	20.494	877.840	668.364
283.628	20.427	877.275	667.617
284.643	20.372	876.698	666.909
285.657	20.401	876.217	666.596
286.672	20.471	875.708	666.419
287.687	20.503	874.995	665.941
288.701	20.567	873.930	665.316
289.716	20.492	873.776	664.851
290.730	20.543	873.517	664.789
291.745	20.626	872.470	664.254
292.760	20.654	872.185	664.084
293.774	20.922	871.533	664.550
294.789	20.885	871.056	663.986
295.803	20.554	870.097	661.935
296.818	20.576	869.023	661.145
297.833	20.708	868.602	661.267
298.847	20.724	868.125	660.908
299.862	20.679	867.861	660.476
300.876	20.772	867.300	660.343
301.891	21.037	866.635	660.782
302.906	20.974	866.347	660.267
303.920	21.136	866.176	660.691
304.935	21.295	865.440	660.673
305.949	21.155	864.649	659.481
306.964	21.035	863.767	658.299
307.979	20.880	863.220	657.236
308.993	21.190	862.754	657.993
310.008	21.038	862.638	657.273
311.022	21.079	861.662	656.626
312.037	20.800	860.976	654.996
313.052	20.612	860.557	653.912
314.066	20.528	859.979	653.099
315.081	20.561	859.196	652.571
316.095	20.624	858.661	652.343
317.110	20.685	858.028	652.035
318.125	20.550	857.278	650.900
319.139	20.515	857.004	650.506
320.154	20.661	856.390	650.527
321.168	20.745	855.547	650.141
322.183	20.753	854.983	649.684
323.197	20.784	854.905	649.685
324.212	20.783	854.499	649.316
325.227	20.762	853.845	648.681
326.241	20.772	852.835	647.893
327.256	20.628	852.621	647.138
328.270	20.752	851.773	646.899
329.285	20.557	851.622	646.001
330.300	20.757	850.581	645.896
331.314	20.672	850.313	645.324
332.329	20.933	850.069	646.048
333.343	21.073	849.409	646.007
334.358	21.022	849.000	645.451
335.373	21.084	848.469	645.218
336.387	21.287	848.311	645.793
337.402	21.226	848.337	645.530
338.416	21.279	848.206	645.566
339.431	21.492	847.578	645.819
340.446	21.701	847.149	646.207
341.460	21.536	847.133	645.526
342.475	21.700	846.807	645.826
343.489	21.728	846.217	645.424
344.504	21.721	845.668	644.923
345.519	21.850	845.248	645.017
346.533	21.758	844.613	644.138
347.548	21.415	843.875	642.260
348.562	21.295	842.794	640.940
349.577	21.185	842.521	640.271
350.592	21.084	841.428	639.013
351.606	21.087	840.889	638.558
352.621	21.235	840.381	638.661
353.635	21.197	839.916	638.110
354.650	21.229	839.579	637.915
355.665	21.293	838.784	637.488
356.679	21.431	838.124	637.433
357.694	21.292	837.652	636.512
358.708	21.481	836.547	636.301
359.723	21.451	836.003	635.722
360.738	21.293	836.033	635.114
361.752	21.550	835.019	635.222
362.767	21.638	834.768	635.293
363.781	21.837	834.505	635.757
364.796	21.924	834.000	635.632
365.810	22.059	833.524	635.703
366.825	21.907	833.548	635.116
367.840	21.925	832.905	634.632
368.854	21.725	832.168	633.293
369.869	21.625	831.506	632.373
370.883	21.907	831.168	633.078
371.898	21.939	830.891	632.925
372.913	22.101	830.568	633.206
373.927	21.843	829.776	631.619
374.942	21.818	829.492	631.256
375.956	22.046	828.660	631.386
376.971	22.205	828.419	631.718
377.986	22.145	828.573	631.566
379.000	22.230	827.940	631.333
380.015	22.156	827.148	630.406
381.029	22.210	826.618	630.141
382.044	22.160	825.797	629.278
383.059	22.207	825.389	629.080
384.073	21.851	825.042	627.488
385.088	21.891	823.738	626.583
386.102	21.806	823.260	625.861
387.117	21.822	822.905	625.592
388.132	21.902	822.093	625.203
389.146	21.830	821.592	624.513
390.161	22.130	821.204	625.229
391.175	22.203	820.875	625.182
392.190	22.007	820.095	623.838
393.205	21.922	819.729	623.202
394.219	21.802	819.478	622.531
395.234	21.942	818.469	622.206
396.248	21.775	818.320	621.446
397.263	21.509	817.785	620.043
398.278	21.476	817.376	619.558
399.292	21.554	816.969	619.471
400.307	21.754	816.243	619.574
401.321	21.691	815.688	618.874
402.336	21.947	815.300	619.430
403.350	21.951	815.288	619.381
404.365	22.023	815.355	619.631
405.380	22.268	814.826	620.039
406.394	22.420	813.857	619.780
407.409	22.375	813.596	619.369
408.423	22.504	813.479	619.679
409.438	22.589	813.065	619.605
410.453	22.579	812.587	619.154
411.467	22.744	812.166	619.354
412.482	22.647	811.703	618.609
413.496	22.659	811.679	618.578
414.511	22.681	810.935	618.034
415.526	22.461	810.670	617.004
416.540	22.516	810.176	616.766
417.555	22.548	809.338	616.186
418.569	22.849	809.023	616.945
419.584	22.687	808.676	616.059
420.599	22.626	808.267	615.482
421.613	163.853	1370.782	1794.963
422.628	142.651	1452.712	1795.074
