DTS Sentinel unit serial number:	SN413079Multiplexer serial number:	ORYXHardware model number:	OX4-SRSoftware version number:	ORYX F/W v4.00 Oryx Data Collector v3.7.2.0data status	okinstallation	princeton_trtdifferential loss correction	single-endedforward channel	channel 1reverse channel	N/Adate	2019/09/12time	04:48:11forward acquisition time	60.00reverse acquisition time	0.00gamma	496.2192k internal	0.2323k external	0.2323temperature offset calibration	1.0078default loss term (dB/km)	0.3790temperature slope calibration	1.0000multiplexer offset coefficient	1.0000multiplexer slope coefficient	1.0000fibre end	0.00T internal ref (°C)	31.62T ext. ref 1 (°C)	2.06T ext. ref 2 (°C)	27.33length (m)	temperature (°C)	Stokes	anti-Stokes-747.200	800.000	0.090	0.272
-746.185	13.190	-0.070	0.054
-745.171	-94.806	-0.134	-0.037
-744.156	-200.000	-0.044	0.380
-743.142	-104.419	0.114	-0.027
-742.127	18.257	-0.161	0.130
-741.112	-133.652	-0.276	-0.035
-740.098	-71.319	0.084	-0.032
-739.083	-73.933	0.389	0.143
-738.069	-116.695	0.029	-0.005
-737.054	-41.652	0.144	0.075
-736.039	-142.268	-0.143	0.014
-735.025	-83.974	0.493	0.158
-734.010	-39.966	-0.190	0.100
-732.996	82.230	-0.171	-0.187
-731.981	-45.329	-0.192	-0.096
-730.966	-56.757	-0.092	0.041
-729.952	76.737	-0.087	-0.093
-728.937	-200.000	-0.011	0.229
-727.923	348.760	-0.095	-0.190
-726.908	-200.000	-0.019	-0.204
-725.894	800.000	0.130	-0.477
-724.879	-50.792	0.190	-0.090
-723.864	-111.192	-0.261	0.054
-722.850	92.769	-0.150	0.171
-721.835	271.637	-0.197	0.350
-720.821	-200.000	0.007	-0.146
-719.806	-141.919	0.288	0.029
-718.791	-200.000	0.048	-0.256
-717.777	-200.000	0.031	-0.410
-716.762	379.622	0.153	0.316
-715.748	93.990	0.167	0.191
-714.733	81.482	-0.021	-0.023
-713.718	-133.664	-0.331	-0.042
-712.704	-200.000	-0.064	-0.348
-711.689	800.000	-0.073	-0.207
-710.675	-200.000	0.070	-0.376
-709.660	11.156	-0.051	0.039
-708.645	156.187	0.065	0.090
-707.631	-56.286	-0.541	-0.242
-706.616	800.000	0.111	-0.319
-705.602	-69.240	0.313	-0.121
-704.587	-200.000	0.006	-0.428
-703.572	367.357	-0.188	-0.383
-702.558	800.000	-0.157	-0.440
-701.543	266.662	-0.115	-0.203
-700.529	685.927	-0.031	0.082
-699.514	800.000	-0.038	-0.130
-698.499	-200.000	0.039	0.387
-697.485	-94.762	0.207	0.057
-696.470	642.219	-0.018	0.047
-695.456	-140.707	0.073	0.008
-694.441	255.531	-0.183	-0.316
-693.426	-138.161	0.208	-0.023
-692.412	-200.000	-0.029	-0.150
-691.397	-115.981	0.181	-0.034
-690.383	-35.640	-0.190	-0.104
-689.368	-200.000	0.034	0.185
-688.354	271.071	0.126	0.223
-687.339	320.584	0.128	0.246
-686.324	318.371	-0.085	-0.162
-685.310	-200.000	0.025	-0.130
-684.295	-116.475	-0.069	0.013
-683.281	-0.885	-0.105	0.075
-682.266	800.000	-0.115	0.362
-681.251	-200.000	-0.232	-0.001
-680.237	800.000	-0.051	-0.163
-679.222	-6.319	-0.067	-0.046
-678.208	-23.366	-0.100	0.060
-677.193	1.235	-0.257	0.186
-676.178	177.478	0.164	-0.240
-675.164	-200.000	-0.038	-0.286
-674.149	-34.027	0.318	-0.176
-673.135	-129.869	0.207	0.029
-672.120	-200.000	0.027	0.152
-671.105	81.474	-0.172	0.188
-670.091	800.000	0.066	-0.271
-669.076	-200.000	0.036	-0.486
-668.062	-200.000	0.049	-0.235
-667.047	-49.033	-0.098	-0.047
-666.032	173.091	0.071	0.104
-665.018	-110.759	-0.243	0.050
-664.003	-135.306	0.050	-0.006
-662.989	-132.085	0.033	-0.004
-661.974	187.517	-0.086	-0.129
-660.959	290.025	-0.234	-0.427
-659.945	-39.355	0.525	0.277
-658.930	82.378	-0.214	-0.233
-657.916	15.346	0.237	0.187
-656.901	-141.012	-0.416	-0.043
-655.886	-200.000	-0.016	-0.099
-654.872	-34.729	0.149	-0.082
-653.857	536.643	-0.005	-0.013
-652.843	-121.835	-0.178	0.030
-651.828	253.121	0.092	0.157
-650.814	-125.348	-0.199	0.031
-649.799	-200.000	0.026	0.118
-648.784	156.277	0.176	-0.244
-647.770	800.000	0.112	-0.428
-646.755	800.000	0.028	0.092
-645.741	672.194	0.085	0.222
-644.726	800.000	0.089	-0.267
-643.711	-37.257	0.113	-0.061
-642.697	5.617	-0.124	0.092
-641.682	468.967	-0.139	0.313
-640.668	33.743	-0.240	-0.210
-639.653	-116.782	-0.317	0.058
-638.638	-200.000	-0.004	0.062
-637.624	37.046	0.181	-0.161
-636.609	-82.098	-0.262	0.086
-635.595	-30.420	0.198	0.113
-634.580	-171.998	0.261	0.009
-633.565	-68.230	0.297	0.116
-632.551	-43.519	-0.159	0.081
-631.536	55.139	-0.123	0.120
-630.522	63.185	0.050	0.050
-629.507	800.000	-0.023	-0.091
-628.492	261.668	0.054	-0.095
-627.478	-112.525	-0.382	-0.077
-626.463	-126.695	-0.080	-0.012
-625.449	-32.536	-0.344	-0.192
-624.434	155.144	0.204	0.282
-623.419	54.609	-0.096	-0.093
-622.405	-181.778	-0.206	-0.004
-621.390	-200.000	0.010	-0.046
-620.376	800.000	0.062	-0.243
-619.361	-30.309	0.188	0.108
-618.346	192.721	-0.134	0.203
-617.332	-39.188	0.189	-0.100
-616.317	-38.041	-0.216	-0.115
-615.303	45.620	0.089	0.083
-614.288	166.114	0.163	-0.231
-613.273	-59.394	-0.038	-0.017
-612.259	2.697	-0.253	0.184
-611.244	-118.832	-0.031	0.006
-610.230	25.757	-0.208	0.174
-609.215	-200.000	-0.017	0.105
-608.201	35.740	-0.088	-0.078
-607.186	-141.118	-0.093	0.010
-606.171	114.671	0.116	0.142
-605.157	-23.900	0.117	-0.070
-604.142	-16.588	-0.021	-0.014
-603.128	22.187	0.192	-0.157
-602.113	-46.202	-0.150	0.074
-601.098	410.602	0.160	0.341
-600.084	800.000	0.021	0.086
-599.069	-19.014	-0.240	-0.150
-598.055	-200.000	-0.013	-0.230
-597.040	-25.719	-0.147	0.087
-596.025	116.941	-0.280	0.345
-595.011	449.394	0.110	0.244
-593.996	163.589	-0.130	-0.183
-592.982	-11.613	-0.220	-0.145
-591.967	-128.082	-0.508	0.073
-590.952	-68.767	-0.202	-0.079
-589.938	-200.000	-0.022	-0.239
-588.923	443.013	0.043	0.094
-587.909	60.996	-0.226	0.225
-586.894	-38.966	-0.250	0.132
-585.879	-200.000	-0.015	0.203
-584.865	-200.000	0.008	0.042
-583.850	-200.000	0.008	0.085
-582.836	499.317	-0.103	0.238
-581.821	-163.170	0.158	0.008
-580.806	-200.000	-0.015	0.129
-579.792	522.436	0.049	0.115
-578.777	-200.000	0.022	-0.363
-577.763	-200.000	0.008	-0.092
-576.748	-200.000	-0.025	0.266
-575.733	-157.178	0.092	-0.006
-574.719	147.703	0.106	0.143
-573.704	104.405	-0.062	0.074
-572.690	800.000	0.017	0.066
-571.675	305.205	0.073	0.136
-570.661	-200.000	0.044	0.238
-569.646	800.000	0.026	-0.076
-568.631	188.476	0.145	-0.217
-567.617	138.627	0.272	-0.358
-566.602	-200.000	0.003	0.053
-565.588	21.132	0.252	0.205
-564.573	-30.726	0.139	-0.079
-563.558	-102.388	-0.288	-0.069
-562.544	35.910	0.302	0.267
-561.529	-36.564	-0.133	0.071
-560.515	-51.863	-0.273	-0.128
-559.500	800.000	0.082	-0.331
-558.485	21.546	-0.195	-0.159
-557.471	191.171	-0.179	0.270
-556.456	6.942	0.153	-0.115
-555.442	237.352	0.103	-0.170
-554.427	-40.601	-0.159	0.083
-553.412	-98.972	0.346	0.088
-552.398	-67.118	0.136	-0.054
-551.383	-192.365	-0.216	-0.002
-550.369	-179.129	0.389	-0.009
-549.354	70.673	-0.070	-0.073
-548.339	-8.169	0.175	0.118
-547.325	-20.086	-0.045	0.028
-546.310	-104.787	-0.557	0.128
-545.296	-120.270	-0.106	-0.018
-544.281	-200.000	-0.046	-0.370
-543.266	96.377	-0.086	0.099
-542.252	387.712	-0.094	-0.194
-541.237	-66.751	0.170	-0.068
-540.223	604.355	0.113	-0.282
-539.208	800.000	0.067	0.216
-538.193	-200.000	0.008	-0.226
-537.179	-168.980	0.360	-0.013
-536.164	-57.427	0.323	-0.142
-535.150	-53.748	-0.279	0.127
-534.135	-200.000	0.375	-0.002
-533.121	85.041	0.154	-0.170
-532.106	-200.000	-0.014	-0.090
-531.091	-138.007	-0.158	-0.018
-530.077	-62.444	-0.057	-0.024
-529.062	55.289	-0.233	-0.226
-528.048	-2.101	-0.127	0.090
-527.033	251.594	-0.156	-0.266
-526.018	-67.342	0.211	0.083
-525.004	411.504	-0.233	-0.495
-523.989	800.000	0.069	0.206
-522.975	530.955	0.027	-0.064
-521.960	800.000	0.080	-0.252
-520.945	-100.068	0.183	-0.046
-519.931	-51.608	-0.367	-0.171
-518.916	-188.784	0.143	-0.002
-517.902	106.291	-0.084	-0.099
-516.887	6.852	0.058	-0.043
-515.872	-57.662	0.116	0.051
-514.858	-200.000	-0.009	0.180
-513.843	-200.000	-0.001	-0.016
-512.829	-1.337	-0.258	-0.182
-511.814	11.823	0.082	-0.063
-510.799	131.042	-0.087	-0.112
-509.785	-6.243	0.224	0.153
-508.770	508.835	-0.041	-0.095
-507.756	800.000	-0.043	0.127
-506.741	800.000	0.031	-0.132
-505.726	-67.318	-0.417	-0.164
-504.712	-200.000	0.001	-0.219
-503.697	-121.304	-0.149	0.025
-502.683	19.917	-0.150	0.121
-501.668	-115.382	-0.357	0.067
-500.653	-144.414	0.272	0.025
-499.639	-88.612	-0.279	-0.083
-498.624	275.778	-0.083	0.148
-497.610	-14.024	-0.200	0.129
-496.595	800.000	0.103	-0.381
-495.581	-38.649	0.491	0.259
-494.566	84.601	-0.148	-0.162
-493.551	430.475	0.033	0.072
-492.537	-89.453	0.157	-0.046
-491.522	-130.471	0.041	-0.006
-490.508	-82.653	0.452	0.146
-489.493	-52.135	0.045	-0.021
-488.478	-200.000	-0.008	-0.159
-487.464	-200.000	0.247	0.000
-486.449	156.240	-0.059	0.082
-485.435	113.555	0.169	-0.205
-484.420	-76.194	0.582	-0.205
-483.405	366.937	-0.118	0.238
-482.391	308.841	-0.118	0.219
-481.376	65.709	0.301	-0.304
-480.362	-71.121	0.255	-0.096
-479.347	-127.249	-0.181	-0.026
-478.332	-200.000	0.055	-0.342
-477.318	133.954	0.053	0.069
-476.303	-88.967	-0.045	-0.013
-475.289	-143.135	0.160	-0.015
-474.274	-200.000	0.026	0.138
-473.259	554.361	0.059	0.142
-472.245	-200.000	-0.007	-0.165
-471.230	390.875	0.069	-0.144
-470.216	800.000	-0.037	-0.104
-469.201	134.654	0.145	-0.187
-468.186	800.000	-0.011	-0.047
-467.172	-200.000	-0.006	0.154
-466.157	16.667	-0.203	-0.160
-465.143	800.000	0.092	-0.380
-464.128	8.036	0.198	0.148
-463.113	-200.000	-0.004	-0.102
-462.099	800.000	0.022	0.080
-461.084	-200.000	-0.031	0.143
-460.070	-7.368	-0.199	0.135
-459.055	-20.148	-0.090	0.055
-458.040	55.340	-0.111	-0.107
-457.026	-148.892	-0.065	0.005
-456.011	-9.904	-0.242	0.160
-454.997	-174.723	-0.083	-0.002
-453.982	177.145	-0.080	0.116
-452.968	-80.895	-0.279	-0.092
-451.953	23.229	0.226	-0.185
-450.938	65.592	0.103	-0.104
-449.924	800.000	-0.017	-0.065
-448.909	-55.731	0.235	-0.105
-447.895	-32.918	-0.163	0.090
-446.880	-133.383	-0.236	-0.030
-445.865	25.466	-0.441	-0.366
-444.851	800.000	-0.038	0.163
-443.836	-45.304	0.165	-0.081
-442.822	48.605	0.200	0.187
-441.807	-56.503	-0.401	0.177
-440.792	24.267	0.470	0.388
-439.778	-121.424	-0.160	-0.027
-438.763	-112.489	0.611	0.122
-437.749	38.222	0.188	0.167
-436.734	194.236	0.140	-0.212
-435.719	73.385	0.135	-0.141
-434.705	597.835	0.035	0.087
-433.690	-126.486	-0.266	0.039
-432.676	800.000	-0.104	0.301
-431.661	-66.137	0.215	-0.086
-430.646	385.662	0.074	0.151
-429.632	15.450	-0.126	0.099
-428.617	-112.087	-0.149	0.030
-427.603	-71.943	0.161	0.060
-426.588	-35.955	-0.226	-0.122
-425.573	-95.239	0.170	0.046
-424.559	-85.346	0.086	0.027
-423.544	191.006	0.130	-0.195
-422.530	-104.518	-0.126	0.029
-421.515	22.265	0.250	0.204
-420.500	218.148	-0.044	-0.070
-419.486	129.954	-0.068	-0.086
-418.471	644.075	0.127	0.324
-417.457	-144.332	0.341	0.032
-416.442	0.150	-0.069	0.049
-415.428	161.414	-0.037	-0.051
-414.413	515.456	-0.197	-0.459
-413.398	-61.632	-0.125	0.052
-412.384	-200.000	-0.043	-0.194
-411.369	53.240	0.209	0.200
-410.355	-79.622	-0.283	-0.095
-409.340	233.908	0.204	-0.334
-408.325	30.274	-0.059	-0.050
-407.311	-72.737	0.072	0.026
-406.296	-200.000	-0.060	0.348
-405.282	-178.347	-0.043	-0.001
-404.267	102.964	-0.129	-0.150
-403.252	165.965	0.091	-0.128
-402.238	-15.155	-0.151	0.096
-401.223	166.058	0.044	-0.062
-400.209	-200.000	0.025	-0.233
-399.194	-131.329	-0.117	-0.015
-398.179	177.391	0.270	0.392
-397.165	-141.566	-0.214	-0.021
-396.150	-7.271	-0.057	-0.039
-395.136	-200.000	0.043	0.230
-394.121	-46.996	-0.307	-0.150
-393.106	-200.000	0.069	-0.342
-392.092	523.638	0.107	0.250
-391.077	-104.570	-0.220	-0.051
-390.063	-95.970	-0.324	-0.086
-389.048	-122.827	0.207	0.033
-388.033	61.915	0.349	0.346
-387.019	59.814	-0.096	0.095
-386.004	118.791	-0.282	0.346
-384.990	356.610	0.185	-0.367
-383.975	67.072	0.050	0.051
-382.960	800.000	0.088	0.261
-381.946	-200.000	-0.018	-0.138
-380.931	10.498	0.086	0.066
-379.917	-103.559	-0.214	0.050
-378.902	-33.433	-0.216	-0.119
-377.888	-105.808	0.155	-0.035
-376.873	-200.000	-0.001	0.202
-375.858	12.250	-0.123	-0.095
-374.844	608.946	-0.033	-0.082
-373.829	800.000	-0.085	-0.291
-372.815	139.848	0.207	0.271
-371.800	170.065	-0.053	-0.075
-370.785	-69.720	0.013	-0.005
-369.771	-200.000	0.094	0.544
-368.756	-200.000	-0.018	0.217
-367.742	280.193	-0.062	0.111
-366.727	-180.022	0.160	-0.003
-365.712	-181.789	-0.317	-0.006
-364.698	117.923	0.125	0.153
-363.683	608.576	0.096	0.239
-362.669	-45.627	-0.094	0.046
-361.654	-29.416	0.235	-0.133
-360.639	-200.000	0.006	0.074
-359.625	-200.000	0.008	0.188
-358.610	-71.062	0.241	0.090
-357.596	-200.000	0.003	-0.098
-356.581	-172.474	-0.281	-0.009
-355.566	-113.780	-0.449	-0.087
-354.552	-146.776	0.242	0.021
-353.537	52.151	0.054	0.051
-352.523	279.436	-0.113	-0.200
-351.508	693.185	-0.144	0.377
-350.493	-176.030	-0.131	0.003
-349.479	-54.162	0.201	0.091
-348.464	800.000	-0.111	0.347
-347.450	-4.403	0.119	-0.081
-346.435	77.714	-0.062	-0.065
-345.420	418.578	-0.082	0.175
-344.406	-200.000	0.008	-0.371
-343.391	-200.000	0.018	-0.267
-342.377	311.572	-0.101	0.188
-341.362	-107.116	0.162	-0.036
-340.348	92.263	-0.058	-0.064
-339.333	193.921	-0.188	0.283
-338.318	-200.000	-0.014	-0.436
-337.304	-35.697	-0.149	-0.080
-336.289	101.545	0.293	-0.339
-335.275	-200.000	-0.044	-0.208
-334.260	-62.689	0.058	0.024
-333.245	43.056	-0.077	0.070
-332.231	161.238	0.128	-0.178
-331.216	-131.802	-0.219	0.029
-330.202	-54.235	0.066	0.030
-329.187	371.458	-0.178	-0.359
-328.172	-96.428	-0.326	-0.086
-327.158	-114.137	-0.154	-0.030
-326.143	147.472	-0.231	-0.308
-325.129	252.611	-0.112	-0.190
-324.114	-200.000	0.468	0.002
-323.099	-93.463	-0.218	0.060
-322.085	287.112	-0.194	0.349
-321.070	250.311	0.128	0.216
-320.056	800.000	-0.112	0.352
-319.041	425.827	0.089	-0.189
-318.026	2.565	0.307	0.221
-317.012	315.324	-0.212	0.397
-315.997	-200.000	-0.015	0.175
-314.983	-12.249	-0.149	0.097
-313.968	175.066	-0.247	-0.355
-312.953	-118.775	-0.358	-0.063
-311.939	-126.079	-0.200	-0.030
-310.924	-69.831	-0.179	-0.068
-309.910	800.000	0.070	0.242
-308.895	-16.914	-0.103	-0.065
-307.880	-200.000	0.070	-0.316
-306.866	-32.005	-0.398	0.221
-305.851	-28.827	0.118	0.068
-304.837	-99.373	-0.217	0.054
-303.822	305.450	-0.038	0.071
-302.807	-121.928	0.324	-0.053
-301.793	800.000	-0.135	0.397
-300.778	137.394	0.100	-0.130
-299.764	207.280	-0.246	0.380
-298.749	-81.038	-0.154	0.051
-297.735	-123.945	-0.109	-0.017
-296.720	148.747	0.173	-0.232
-295.705	800.000	-0.040	0.133
-294.691	-200.000	0.066	-0.346
-293.676	68.610	-0.125	0.128
-292.662	90.842	0.239	-0.266
-291.647	-86.325	0.156	-0.048
-290.632	-63.153	-0.080	0.033
-289.618	5.098	0.048	0.035
-288.603	1.039	-0.311	0.221
-287.589	87.886	0.219	0.240
-286.574	161.727	0.204	-0.283
-285.559	-105.333	-0.358	0.081
-284.545	77.241	0.097	-0.102
-283.530	-134.479	0.262	-0.032
-282.516	-166.592	-0.253	0.010
-281.501	130.192	-0.058	0.073
-280.486	-75.467	0.177	0.062
-279.472	24.825	0.071	0.059
-278.457	357.495	0.201	-0.398
-277.443	120.432	0.069	-0.085
-276.428	-116.887	0.196	0.036
-275.413	-200.000	0.008	-0.209
-274.399	183.411	-0.229	-0.336
-273.384	-200.000	0.011	0.121
-272.370	-67.761	0.135	-0.053
-271.355	-96.921	0.194	-0.050
-270.340	130.392	0.245	0.311
-269.326	106.891	0.251	0.296
-268.311	-100.158	0.125	0.031
-267.297	240.963	0.151	0.250
-266.282	-200.000	0.022	0.343
-265.267	6.006	-0.261	0.191
-264.253	-105.550	-0.330	0.074
-263.238	-37.222	0.153	-0.081
-262.224	168.415	0.110	-0.155
-261.209	212.707	0.072	0.112
-260.195	90.575	0.081	0.090
-259.180	45.018	-0.107	0.098
-258.165	-100.337	0.134	-0.033
-257.151	-7.230	0.188	0.127
-256.136	-200.000	0.008	0.310
-255.122	44.993	-0.265	-0.242
-254.107	-117.617	-0.237	0.042
-253.092	-83.662	-0.231	-0.073
-252.078	14.642	-0.031	-0.024
-251.063	-49.833	-0.306	-0.144
-250.049	-25.205	0.379	0.222
-249.034	-200.000	0.043	0.368
-248.019	-92.424	-0.209	-0.058
-247.005	-200.000	0.006	-0.088
-245.990	143.405	0.197	0.260
-244.976	800.000	0.033	-0.125
-243.961	-200.000	0.096	0.455
-242.946	-57.660	0.249	0.108
-241.932	-35.763	-0.238	-0.128
-240.917	37.965	0.139	-0.122
-239.903	-68.006	-0.321	0.124
-238.888	752.691	0.069	0.185
-237.873	304.781	-0.053	0.097
-236.859	167.400	0.070	0.099
-235.844	800.000	-0.056	0.242
-234.830	17.646	-0.080	-0.063
-233.815	-200.000	0.035	-0.280
-232.800	131.202	0.070	0.089
-231.786	255.349	0.080	0.136
-230.771	83.522	0.223	0.241
-229.757	-16.253	-0.130	0.082
-228.742	-13.473	0.043	0.028
-227.727	716.526	0.137	-0.360
-226.713	-87.083	-0.145	-0.044
-225.698	-200.000	0.045	-0.370
-224.684	-110.629	-0.338	0.069
-223.669	-8.542	0.276	-0.184
-222.655	-100.946	-0.033	0.008
-221.640	-47.105	0.273	-0.132
-220.625	-36.209	0.238	-0.127
-219.611	800.000	0.116	-0.421
-218.596	-200.000	-0.003	-0.336
-217.582	-74.862	0.356	-0.126
-216.567	109.466	-0.147	-0.174
-215.552	-118.461	-0.209	0.037
-214.538	-200.000	-0.006	-0.178
-213.523	-43.091	-0.213	-0.107
-212.509	182.081	-0.047	-0.068
-211.494	-200.000	-0.005	-0.226
-210.479	-23.685	-0.239	0.141
-209.465	-100.444	-0.383	-0.094
-208.450	631.651	0.113	0.283
-207.436	-93.987	0.146	0.040
-206.421	-73.269	0.167	-0.061
-205.406	-112.153	-0.351	0.070
-204.392	-149.608	0.308	-0.024
-203.377	-107.639	0.144	0.031
-202.363	402.231	-0.046	-0.096
-201.348	67.130	-0.048	0.048
-200.333	-74.324	-0.239	0.085
-199.319	639.183	0.059	-0.148
-198.304	160.300	-0.176	-0.242
-197.290	8.353	0.164	-0.122
-196.275	800.000	0.016	0.044
-195.260	800.000	-0.056	0.194
-194.246	644.675	0.107	0.271
-193.231	-200.000	-0.027	0.439
-192.217	800.000	0.056	0.156
-191.202	-110.242	0.343	0.071
-190.187	800.000	0.023	-0.070
-189.173	-13.037	0.088	0.057
-188.158	-82.852	0.136	0.043
-187.144	800.000	-0.005	0.015
-186.129	22.540	0.207	-0.167
-185.114	-32.111	0.408	0.225
-184.100	104.778	0.223	0.260
-183.085	-30.101	-0.237	0.133
-182.071	800.000	-0.101	0.336
-181.056	-63.724	0.242	-0.098
-180.042	-200.000	-0.036	0.203
-179.027	-64.156	0.080	0.032
-178.012	720.610	-0.044	-0.116
-176.998	800.000	-0.073	-0.218
-175.983	-54.003	-0.079	-0.036
-174.969	-73.621	0.170	-0.061
-173.954	-6.660	0.426	-0.287
-172.939	65.937	0.156	-0.156
-171.925	103.153	-0.085	-0.099
-170.910	-145.617	0.233	-0.021
-169.896	-20.064	0.154	-0.094
-168.881	453.461	0.075	-0.163
-167.866	62.957	0.076	-0.075
-166.852	800.000	0.054	-0.148
-165.837	13.609	0.251	0.192
-164.823	800.000	-0.051	-0.175
-163.808	-137.815	-0.153	0.017
-162.793	-200.000	-0.052	-0.373
-161.779	-34.574	-0.218	-0.118
-160.764	330.169	-0.085	0.162
-159.750	-119.869	-0.166	0.028
-158.735	-140.948	0.093	-0.009
-157.720	184.060	-0.267	0.390
-156.706	-24.759	0.162	0.095
-155.691	98.124	0.070	0.080
-154.677	276.938	0.081	-0.142
-153.662	80.508	0.158	-0.168
-152.647	418.162	0.072	0.151
-151.633	458.516	0.058	-0.128
-150.618	639.290	0.041	-0.102
-149.604	32.803	0.155	0.132
-148.589	49.706	-0.231	0.214
-147.574	-107.409	-0.175	-0.038
-146.560	-200.000	-0.050	0.396
-145.545	502.523	-0.092	0.210
-144.531	56.771	0.158	0.152
-143.516	492.126	-0.113	0.255
-142.502	215.042	0.086	0.134
-141.487	-85.871	0.345	-0.105
-140.472	800.000	0.082	0.237
-139.458	142.107	-0.120	0.157
-138.443	-35.464	0.298	-0.160
-137.429	-174.096	0.091	-0.003
-136.414	-200.000	-0.009	-0.050
-135.399	-33.135	0.191	-0.104
-134.385	-58.977	-0.228	-0.097
-133.370	-175.763	-0.108	0.003
-132.356	-82.604	0.213	0.068
-131.341	9.929	-0.042	-0.031
-130.326	-123.147	0.260	-0.041
-129.312	-200.000	-0.001	-0.005
-128.297	-180.056	-0.162	-0.003
-127.283	60.767	-0.062	-0.061
-126.268	800.000	-0.015	0.063
-125.253	32.760	0.233	0.198
-124.239	58.614	0.078	0.076
-123.224	800.000	-0.045	0.140
-122.210	-1.471	0.225	0.156
-121.195	-125.400	-0.222	-0.033
-120.180	-165.675	0.323	-0.014
-119.166	328.629	0.016	-0.031
-118.151	193.845	0.086	-0.128
-117.137	76.388	0.074	-0.078
-116.122	393.453	0.166	0.340
-115.107	-200.000	-0.031	-0.504
-114.093	-200.000	0.003	0.303
-113.078	-18.154	-0.100	-0.062
-112.064	36.210	-0.080	0.070
-111.049	-191.937	0.469	0.004
-110.034	-59.012	0.146	-0.062
-109.020	800.000	0.111	0.422
-108.005	-43.509	-0.366	0.182
-106.991	-139.541	0.321	0.034
-105.976	-167.777	-0.241	0.009
-104.962	-109.538	-0.423	-0.088
-103.947	-92.032	-0.075	0.021
-102.932	-145.390	0.097	-0.009
-101.918	753.184	-0.051	0.136
-100.903	-84.054	0.276	-0.086
-99.889	-81.826	0.173	-0.056
-98.874	201.743	-0.105	0.160
-97.859	-48.396	0.302	-0.143
-96.845	224.121	-0.079	0.126
-95.830	165.731	-0.085	-0.119
-94.816	169.533	-0.051	0.071
-93.801	-76.736	-0.060	0.021
-92.786	77.132	0.119	-0.125
-91.772	123.958	-0.124	0.153
-90.757	272.259	-0.116	-0.202
-89.743	-49.574	-0.280	0.131
-88.728	311.842	-0.030	-0.055
-87.713	-34.737	0.180	0.097
-86.699	-67.606	0.111	0.043
-85.684	800.000	0.106	-0.425
-84.670	-20.463	0.087	0.053
-83.655	67.983	0.131	0.132
-82.640	-33.385	0.036	-0.020
-81.626	758.939	-0.031	-0.082
-80.611	169.929	-0.093	-0.130
-79.597	800.000	0.096	-0.281
-78.582	-135.574	-0.109	0.013
-77.567	-97.948	0.328	0.083
-76.553	-24.264	-0.162	-0.095
-75.538	430.843	0.170	0.362
-74.524	-140.399	-0.202	-0.021
-73.509	-200.000	-0.000	0.128
-72.494	800.000	0.046	-0.180
-71.480	337.735	0.044	-0.084
-70.465	286.739	-0.013	-0.023
-69.451	1.669	-0.335	0.237
-68.436	335.582	-0.040	-0.075
-67.422	-134.767	-0.392	0.047
-66.407	27.597	0.138	-0.114
-65.392	-171.908	0.182	0.006
-64.378	800.000	-0.035	0.110
-63.363	375.687	0.077	0.154
-62.349	-51.246	0.027	-0.012
-61.334	68.419	-1.095	-1.104
-60.319	161.055	0.545	0.748
-59.305	581.943	-0.461	-1.112
-58.290	800.000	0.334	0.980
-57.276	800.000	0.510	1.850
-56.261	-200.000	96.316	597.969
-55.246	556.498	1369.771	3243.851
-54.232	162.032	2546.982	3507.269
-53.217	113.209	2133.724	2543.822
-52.203	43.616	1595.506	1434.451
-51.188	35.215	1332.988	1148.315
-50.173	31.977	1291.625	1093.800
-49.159	54.739	1339.213	1269.589
-48.144	56.705	1356.130	1297.227
-47.130	35.323	1314.563	1132.899
-46.115	31.870	1297.325	1097.827
-45.100	31.622	1292.048	1091.871
-44.086	31.557	1289.641	1089.413
-43.071	31.523	1287.192	1087.105
-42.057	31.459	1285.383	1085.161
-41.042	31.499	1283.644	1083.883
-40.027	31.574	1282.192	1083.046
-39.013	31.507	1280.439	1081.140
-37.998	31.640	1278.317	1080.072
-36.984	31.586	1276.648	1078.307
-35.969	31.693	1274.830	1077.341
-34.954	31.630	1273.207	1075.568
-33.940	31.670	1271.999	1074.734
-32.925	31.741	1270.748	1074.040
-31.911	31.687	1269.263	1072.436
-30.896	31.725	1267.729	1071.310
-29.881	31.659	1266.781	1070.092
-28.867	31.761	1264.820	1068.978
-27.852	31.817	1263.367	1068.024
-26.838	31.735	1262.273	1066.589
-25.823	31.734	1260.775	1065.277
-24.809	31.675	1259.912	1064.171
-23.794	31.704	1258.110	1062.767
-22.779	31.733	1256.930	1061.896
-21.765	31.756	1255.406	1060.698
-20.750	31.717	1254.435	1059.610
-19.736	31.569	1253.375	1057.835
-18.721	31.584	1251.786	1056.540
-17.706	31.601	1250.922	1055.862
-16.692	31.622	1249.438	1054.691
-15.677	31.605	1248.521	1053.778
-14.663	31.588	1247.204	1052.527
-13.648	31.560	1246.028	1051.338
-12.633	31.638	1244.998	1050.862
-11.619	31.499	1244.427	1049.558
-10.604	31.538	1243.293	1048.782
-9.590	31.563	1242.523	1048.232
-8.575	31.469	1242.047	1047.258
-7.560	31.480	1240.820	1046.248
-6.546	31.472	1240.057	1045.513
-5.531	31.524	1239.170	1045.016
-4.517	31.576	1238.131	1044.388
-3.502	31.520	1237.521	1043.521
-2.487	31.542	1236.349	1042.615
-1.473	31.644	1231.902	1039.391
-0.458	30.341	1217.428	1019.980
0.556	27.746	1200.738	985.745
1.571	24.175	1207.405	971.689
2.586	23.742	1222.139	981.069
3.600	23.208	1211.295	969.355
4.615	16.745	1138.235	877.433
5.629	6.585	1062.397	769.540
6.644	2.399	1042.494	734.983
7.659	2.028	1040.125	731.468
8.673	1.920	1038.756	729.924
9.688	1.874	1037.607	728.831
10.702	2.106	1035.827	728.624
11.717	8.279	1044.475	764.272
12.731	18.446	1058.918	823.902
13.746	24.125	1065.380	856.244
14.761	25.259	1067.037	862.955
15.775	25.432	1066.434	863.221
16.790	25.258	1065.389	861.464
17.804	25.065	1065.479	860.534
18.819	25.165	1064.904	860.476
19.834	25.300	1064.710	860.889
20.848	25.346	1064.394	860.775
21.863	25.372	1063.460	860.070
22.877	25.424	1062.386	859.375
23.892	25.321	1062.113	858.585
24.907	25.378	1061.354	858.166
25.921	25.343	1060.330	857.098
26.936	25.267	1059.261	855.792
27.950	25.221	1057.832	854.344
28.965	25.172	1055.548	852.192
29.980	25.244	1054.241	851.403
30.994	25.458	1053.371	851.639
32.009	25.354	1052.571	850.423
33.023	25.268	1051.358	848.962
34.038	25.193	1050.902	848.165
35.053	25.355	1050.486	848.522
36.067	25.373	1049.081	847.394
37.082	25.434	1048.450	847.099
38.096	25.609	1048.009	847.491
39.111	25.732	1046.929	847.120
40.126	25.363	1045.670	844.294
41.140	25.110	1043.992	841.676
42.155	24.978	1042.500	839.781
43.169	24.847	1042.038	838.722
44.184	24.954	1040.805	838.152
45.199	24.916	1039.740	837.045
46.213	24.980	1039.091	836.749
47.228	25.125	1038.337	836.742
48.242	25.168	1037.519	836.210
49.257	25.403	1036.539	836.442
50.271	25.522	1035.939	836.437
51.286	25.449	1035.100	835.344
52.301	25.443	1034.017	834.372
53.315	25.442	1033.287	833.704
54.330	25.358	1032.326	832.463
55.344	25.436	1031.406	832.008
56.359	25.216	1031.169	830.724
57.374	25.093	1029.718	828.915
58.388	25.104	1029.230	828.497
59.403	25.029	1027.953	827.053
60.417	24.958	1026.973	825.865
61.432	25.072	1026.684	826.081
62.447	25.096	1026.039	825.602
63.461	25.092	1025.605	825.159
64.476	24.922	1025.175	823.962
65.490	25.007	1023.699	823.093
66.505	25.098	1022.642	822.586
67.520	25.162	1022.310	822.540
68.534	24.915	1020.637	819.989
69.549	24.694	1019.864	818.286
70.563	24.541	1019.260	817.028
71.578	24.598	1018.520	816.622
72.593	24.508	1017.249	815.119
73.607	24.534	1016.821	814.824
74.622	24.813	1016.873	816.067
75.636	24.906	1016.017	815.730
76.651	24.701	1015.107	813.994
77.666	24.673	1014.238	813.100
78.680	24.774	1013.551	812.936
79.695	24.917	1013.103	813.155
80.709	24.902	1012.336	812.399
81.724	24.902	1011.793	811.890
82.739	24.963	1010.925	811.400
83.753	25.403	1010.621	813.073
84.768	25.649	1010.029	813.637
85.782	25.637	1009.153	812.807
86.797	25.589	1008.059	811.640
87.812	25.492	1007.032	810.300
88.826	25.509	1006.073	809.534
89.841	25.598	1005.265	809.213
90.855	25.647	1004.250	808.545
91.870	25.634	1003.300	807.650
92.884	25.517	1002.350	806.290
93.899	25.427	1001.523	805.151
94.914	25.553	1000.839	805.094
95.928	25.431	999.830	803.664
96.943	25.162	998.504	801.327
97.957	25.025	997.292	799.670
98.972	24.883	995.840	797.802
99.987	25.119	995.656	798.635
101.001	25.317	994.787	798.749
102.016	25.383	994.126	798.443
103.030	25.178	993.224	796.737
104.045	25.112	992.124	795.489
105.060	25.018	990.995	794.096
106.074	25.081	990.706	794.077
107.089	25.423	990.154	795.074
108.103	25.400	988.892	793.890
109.118	25.134	987.609	791.615
110.133	24.984	987.145	790.512
111.147	24.876	985.816	788.903
112.162	24.828	984.482	787.552
113.176	25.004	984.448	788.232
114.191	24.915	983.622	787.108
115.206	24.505	982.211	784.112
116.220	24.573	981.621	783.867
117.235	24.808	980.711	784.104
118.249	24.785	979.974	783.344
119.264	24.554	979.540	781.915
120.279	24.771	978.703	782.125
121.293	24.830	977.866	781.649
122.308	24.809	977.136	780.904
123.322	24.758	975.737	779.492
124.337	24.463	974.687	777.301
125.352	24.171	972.757	774.426
126.366	23.996	971.655	772.717
127.381	24.840	972.226	776.767
128.395	25.222	971.725	777.959
129.410	25.231	970.801	777.188
130.424	25.280	969.578	776.350
131.439	25.248	968.866	775.574
132.454	25.177	967.888	774.416
133.468	25.219	967.093	773.894
134.483	25.260	966.791	773.759
135.497	25.420	965.859	773.636
136.512	25.605	964.511	773.280
137.527	25.547	963.813	772.403
138.541	25.535	963.281	771.860
139.556	25.584	962.413	771.306
140.570	25.647	961.665	770.905
141.585	25.746	960.126	770.028
142.600	25.610	959.689	769.030
143.614	25.904	958.807	769.508
144.629	25.872	958.354	768.940
145.643	25.504	957.554	766.662
146.658	25.612	955.381	765.313
147.673	25.419	954.556	763.766
148.687	25.487	953.567	763.196
149.702	25.369	952.147	761.491
150.716	25.297	951.525	760.618
151.731	25.533	951.307	761.378
152.746	25.614	950.783	761.233
153.760	25.711	950.021	760.968
154.775	25.710	949.635	760.587
155.789	25.782	948.683	760.060
156.804	25.686	947.949	759.000
157.819	25.569	947.371	757.978
158.833	25.817	946.353	758.141
159.848	25.954	945.004	757.567
160.862	25.727	943.985	755.731
161.877	25.662	943.199	754.764
162.892	25.759	941.958	754.109
163.906	25.600	941.045	752.645
164.921	25.723	940.082	752.325
165.935	25.859	939.154	752.083
166.950	25.656	938.744	750.841
167.964	25.838	937.465	750.508
168.979	25.478	936.804	748.416
169.994	25.569	935.786	747.912
171.008	25.738	935.456	748.285
172.023	25.719	934.553	747.417
173.037	25.664	933.281	746.106
174.052	25.475	932.260	744.441
175.067	25.442	932.267	744.246
176.081	25.431	931.551	743.563
177.096	25.567	930.748	743.420
178.110	25.061	930.039	740.694
179.125	25.137	928.964	740.088
180.140	25.161	928.520	739.766
181.154	25.326	928.280	740.190
182.169	25.500	928.418	740.950
183.183	25.689	927.930	741.276
184.198	25.630	927.274	740.441
185.213	25.590	926.138	739.306
186.227	25.684	925.828	739.382
187.242	25.778	924.850	738.920
188.256	25.770	924.401	738.460
189.271	25.829	923.647	738.034
190.286	25.513	922.529	735.784
191.300	24.889	920.853	731.831
192.315	24.026	919.459	727.137
193.329	24.109	919.010	727.054
194.344	24.961	919.496	730.853
195.359	25.513	919.486	733.032
196.373	25.710	918.492	732.979
197.388	25.642	918.162	732.370
198.402	25.594	917.715	731.754
199.417	25.739	916.939	731.660
200.432	25.295	916.295	729.279
201.446	25.232	915.399	728.247
202.461	25.211	914.876	727.681
203.475	24.315	912.963	722.467
204.490	23.558	911.456	718.145
205.504	24.539	911.998	722.482
206.519	24.951	912.316	724.336
207.534	25.110	911.304	724.110
208.548	25.696	911.326	726.428
209.563	25.491	910.519	724.897
210.577	25.402	909.571	723.719
211.592	25.999	909.288	725.834
212.607	25.778	908.691	724.402
213.621	25.803	908.097	723.967
214.636	25.751	907.389	723.128
215.650	25.789	906.645	722.625
216.665	25.907	905.790	722.350
217.680	25.825	905.033	721.355
218.694	25.407	903.845	718.673
219.709	25.206	903.529	717.555
220.723	25.378	903.050	717.798
221.738	25.669	902.639	718.570
222.753	25.574	901.861	717.510
223.767	25.653	901.659	717.601
224.782	25.796	901.346	717.857
225.796	25.908	900.535	717.594
226.811	25.273	898.575	713.446
227.826	24.648	897.684	710.193
228.840	24.780	897.309	710.356
229.855	24.861	896.550	710.014
230.869	24.461	895.615	707.626
231.884	25.018	895.567	709.733
232.899	25.604	895.911	712.263
233.913	25.534	894.928	711.140
234.928	25.478	894.570	710.573
235.942	25.321	893.760	709.247
236.957	25.114	892.927	707.705
237.972	25.366	891.737	707.692
238.986	25.315	891.683	707.388
240.001	25.363	890.914	706.903
241.015	25.270	890.784	706.371
242.030	25.514	890.402	706.963
243.045	25.566	890.225	706.966
244.059	25.768	889.891	707.431
245.074	25.451	888.839	705.289
246.088	25.236	887.656	703.446
247.103	25.523	887.155	704.111
248.117	26.189	887.345	706.807
249.132	26.283	886.913	706.769
250.147	26.511	886.116	706.962
251.161	26.523	886.013	706.863
252.176	26.369	885.479	705.775
253.190	26.502	884.818	705.705
254.205	26.643	884.331	705.801
255.220	26.665	883.589	705.234
256.234	26.483	883.122	704.090
257.249	26.387	882.097	702.835
258.263	26.501	881.328	702.603
259.278	26.586	880.751	702.413
260.293	26.615	880.371	702.158
261.307	26.416	879.311	700.479
262.322	26.139	878.798	698.937
263.336	25.545	876.747	694.951
264.351	24.423	875.239	689.362
265.366	24.693	874.920	690.090
266.380	25.841	875.123	694.619
267.395	26.188	875.223	695.977
268.409	26.118	874.389	694.981
269.424	26.117	874.094	694.683
270.439	26.198	873.358	694.346
271.453	26.475	872.665	694.797
272.468	26.521	872.681	694.926
273.482	26.617	872.062	694.739
274.497	26.056	870.690	691.436
275.512	25.849	869.905	689.959
276.526	26.084	870.099	690.952
277.541	26.378	869.533	691.565
278.555	26.280	868.535	690.337
279.570	26.121	867.554	688.890
280.585	26.115	867.229	688.548
281.599	26.320	866.070	688.347
282.614	25.540	865.484	684.851
283.628	25.543	864.658	684.146
284.643	25.921	864.673	685.537
285.657	25.400	864.297	683.197
286.672	25.273	862.937	681.578
287.687	25.871	862.812	683.688
288.701	25.844	862.126	682.983
289.716	25.551	861.167	681.052
290.730	25.589	860.714	680.779
291.745	25.229	859.848	678.670
292.760	25.481	859.936	679.634
293.774	26.499	860.088	683.544
294.789	26.919	859.906	684.922
295.803	26.825	859.297	684.021
296.818	26.928	858.579	683.780
297.833	26.527	857.369	681.244
298.847	26.290	856.955	679.965
299.862	26.809	856.432	681.441
300.876	26.829	856.548	681.546
301.891	26.839	855.529	680.713
302.906	26.413	854.595	678.312
303.920	26.595	854.252	678.662
304.935	26.922	854.278	679.849
305.949	26.792	853.349	678.565
306.964	26.505	852.774	676.971
307.979	26.653	852.527	677.271
308.993	27.064	852.118	678.420
310.008	27.028	851.235	677.523
311.022	26.596	850.919	675.602
312.037	26.548	849.839	674.505
313.052	26.321	848.860	672.822
314.066	25.460	847.772	668.696
315.081	25.152	846.833	666.754
316.095	26.170	847.097	670.685
317.110	26.397	847.280	671.615
318.125	25.623	845.770	667.486
319.139	24.430	844.127	661.713
320.154	24.498	844.031	661.829
321.168	25.568	844.388	666.018
322.183	26.080	844.489	667.933
323.197	26.418	843.967	668.711
324.212	26.511	843.778	668.844
325.227	26.609	843.040	668.563
326.241	26.422	842.510	667.394
327.256	26.485	841.676	666.904
328.270	26.216	841.469	665.694
329.285	26.022	840.403	664.075
330.300	26.050	839.167	663.142
331.314	26.162	839.002	663.364
332.329	26.580	839.161	664.969
333.343	26.808	838.758	665.426
334.358	26.672	838.265	664.479
335.373	26.746	837.873	664.380
336.387	27.028	838.303	665.696
337.402	27.129	837.924	665.706
338.416	27.136	837.426	665.278
339.431	27.265	837.110	665.440
340.446	27.418	836.793	665.686
341.460	27.200	836.247	664.399
342.475	26.942	835.678	662.943
343.489	27.163	835.398	663.471
344.504	27.350	835.142	663.892
345.519	27.518	834.572	663.990
346.533	27.406	834.502	663.468
347.548	27.623	833.688	663.554
348.562	27.465	833.297	662.609
349.577	27.543	832.222	661.977
350.592	27.454	831.675	661.162
351.606	27.470	831.120	660.721
352.621	27.366	830.468	659.768
353.635	27.315	829.547	658.793
354.650	26.521	827.884	654.542
355.665	25.693	826.641	650.510
356.679	26.141	826.647	652.077
357.694	26.557	826.105	653.091
358.708	26.409	825.503	652.025
359.723	26.889	825.532	653.722
360.738	27.123	825.177	654.222
361.752	27.163	824.525	653.794
362.767	27.651	824.155	655.197
363.781	27.792	824.256	655.725
364.796	27.909	823.647	655.603
365.810	27.964	823.300	655.464
366.825	27.916	823.104	655.078
367.840	27.657	822.175	653.354
368.854	27.200	821.093	650.799
369.869	27.172	820.823	650.430
370.883	27.175	820.723	650.302
371.898	27.115	819.978	649.441
372.913	27.208	819.665	649.466
373.927	27.227	819.390	649.260
374.942	27.536	818.982	649.981
375.956	27.528	818.502	649.516
376.971	27.731	818.328	650.041
377.986	27.848	817.887	650.051
379.000	27.836	817.196	649.401
380.015	27.682	816.355	648.129
381.029	27.734	815.794	647.811
382.044	27.798	815.708	647.911
383.059	27.794	815.073	647.335
384.073	27.877	814.496	647.114
385.088	27.814	813.629	646.145
386.102	27.547	813.184	644.789
387.117	27.447	812.573	643.896
388.132	27.341	811.326	642.475
389.146	26.743	810.262	639.468
390.161	27.211	810.363	641.140
391.175	27.705	810.199	642.697
392.190	27.089	809.412	639.846
393.205	25.802	807.068	633.414
394.219	24.426	805.213	627.069
395.234	24.284	805.138	626.458
396.248	25.925	806.506	633.237
397.263	27.365	807.387	638.932
398.278	27.177	807.197	638.067
399.292	26.950	806.604	636.743
400.307	27.049	806.034	636.586
401.321	27.242	805.626	636.880
402.336	27.625	805.564	638.118
403.350	27.950	805.395	639.066
404.365	28.283	805.366	640.150
405.380	28.542	804.598	640.384
406.394	28.695	804.333	640.653
407.409	28.433	804.004	639.419
408.423	28.447	803.747	639.208
409.438	28.653	802.928	639.216
410.453	28.506	802.682	638.452
411.467	28.395	802.100	637.548
412.482	28.527	801.703	637.633
413.496	28.651	801.492	637.842
414.511	28.667	800.984	637.436
415.526	28.594	800.467	636.716
416.540	28.380	799.649	635.264
417.555	28.137	799.351	634.129
418.569	28.306	798.872	634.281
419.584	28.157	798.360	633.303
420.599	28.119	797.528	632.456
421.613	111.774	1286.604	1459.320
422.628	96.366	1357.858	1459.405
