DTS Sentinel unit serial number:	SN413079Multiplexer serial number:	ORYXHardware model number:	OX4-SRSoftware version number:	ORYX F/W v4.00 Oryx Data Collector v3.7.2.0data status	okinstallation	princeton_trtdifferential loss correction	single-endedforward channel	channel 1reverse channel	N/Adate	2019/09/12time	19:07:34forward acquisition time	15.00reverse acquisition time	0.00gamma	496.2192k internal	0.2320k external	0.2320temperature offset calibration	1.0115default loss term (dB/km)	0.3790temperature slope calibration	1.0000multiplexer offset coefficient	1.0000multiplexer slope coefficient	1.0000fibre end	0.00T internal ref (°C)	32.62T ext. ref 1 (°C)	3.18T ext. ref 2 (°C)	27.26length (m)	temperature (°C)	Stokes	anti-Stokes-747.200	103.740	-0.271	0.322
-746.185	800.000	-0.159	0.648
-745.171	-47.036	-0.486	0.240
-744.156	355.111	-0.156	0.314
-743.142	-58.443	-0.260	0.114
-742.127	280.073	0.475	-0.858
-741.112	80.730	0.104	-0.113
-740.098	800.000	0.185	0.579
-739.083	-61.876	0.491	-0.208
-738.069	-47.288	-0.551	0.271
-737.054	-21.265	0.464	-0.287
-736.039	-200.000	0.021	0.211
-735.025	608.676	-0.120	0.303
-734.010	183.863	-0.633	-0.946
-732.996	-44.463	-0.642	0.325
-731.981	35.342	-0.289	0.256
-730.966	-173.349	-0.811	-0.025
-729.952	-163.767	0.454	0.022
-728.937	798.353	-0.096	-0.269
-727.923	18.102	0.248	0.200
-726.908	-68.806	0.163	0.064
-725.894	-200.000	0.118	0.578
-724.879	-69.588	0.104	0.040
-723.864	226.136	-0.291	-0.477
-722.850	-70.153	0.212	0.081
-721.835	17.911	-0.142	-0.115
-720.821	66.903	-0.229	0.236
-719.806	12.545	0.487	-0.380
-718.791	182.758	0.791	-1.179
-717.777	-200.000	-0.009	0.059
-716.762	52.852	0.505	0.488
-715.748	11.902	-0.460	0.357
-714.733	-5.995	-0.445	-0.308
-713.718	292.786	-0.338	-0.622
-712.704	-80.107	0.608	-0.206
-711.689	-169.329	0.445	0.017
-710.675	-149.531	-0.317	0.025
-709.660	-200.000	-0.000	-0.554
-708.645	202.609	0.670	-1.045
-707.631	800.000	-0.266	0.760
-706.616	-46.071	0.278	0.138
-705.602	-200.000	-0.013	-0.277
-704.587	290.984	0.259	-0.475
-703.572	223.717	0.289	-0.471
-702.558	123.054	-0.471	0.596
-701.543	-32.073	-0.362	-0.204
-700.529	772.982	0.080	0.220
-699.514	-180.649	0.701	0.015
-698.499	118.498	-0.203	-0.252
-697.485	480.390	0.079	0.182
-696.470	-200.000	-0.036	0.457
-695.456	207.254	0.118	-0.186
-694.441	443.128	-0.048	0.107
-693.426	800.000	0.047	-0.179
-692.412	71.545	-0.345	-0.362
-691.397	757.602	0.167	-0.457
-690.383	19.934	-0.227	-0.185
-689.368	177.152	0.488	-0.717
-688.354	194.630	-0.299	-0.457
-687.339	800.000	-0.145	-0.474
-686.324	-200.000	-0.053	-0.484
-685.310	295.260	-0.299	0.553
-684.295	800.000	0.074	0.224
-683.281	-153.167	-0.232	0.016
-682.266	-83.513	-0.603	0.195
-681.251	68.124	-0.150	0.155
-680.237	-60.859	0.534	-0.228
-679.222	-16.487	-0.581	-0.371
-678.208	-200.000	-0.429	0.001
-677.193	291.572	0.364	-0.667
-676.178	-200.000	0.047	0.288
-675.164	452.809	-0.302	-0.674
-674.149	294.388	-0.409	0.755
-673.135	-94.378	-0.797	-0.219
-672.120	158.484	-0.092	0.129
-671.105	56.850	0.425	-0.418
-670.091	-45.444	0.526	0.263
-669.076	-0.002	0.384	-0.276
-668.062	-33.024	-0.229	-0.128
-667.047	13.431	0.129	0.101
-666.032	-200.000	0.054	-0.709
-665.018	-146.008	0.765	-0.068
-664.003	-86.304	-0.734	-0.228
-662.989	44.829	-0.411	0.382
-661.974	161.240	-0.212	0.299
-660.959	-26.208	-0.510	0.302
-659.945	-156.571	-0.716	0.045
-658.930	-40.999	-0.541	0.282
-657.916	171.589	0.409	0.593
-656.901	-118.881	0.465	-0.082
-655.886	-74.455	-0.387	0.141
-654.872	800.000	0.283	-0.904
-653.857	1.296	0.587	0.425
-652.843	-200.000	0.051	-0.616
-651.828	-111.436	-0.506	-0.104
-650.814	-200.000	-0.250	-0.001
-649.799	-42.615	0.594	0.305
-648.784	800.000	-0.100	0.402
-647.770	-200.000	-0.156	-0.864
-646.755	-27.857	-0.979	-0.572
-645.741	48.557	0.610	0.576
-644.726	-200.000	0.002	0.131
-643.711	-200.000	0.015	0.597
-642.697	774.074	-0.316	0.869
-641.682	-200.000	0.017	0.213
-640.668	677.064	0.390	1.020
-639.653	-83.091	-0.269	-0.087
-638.638	-33.623	0.284	-0.158
-637.624	-100.942	0.607	-0.150
-636.609	130.587	-0.996	1.286
-635.595	124.475	0.486	0.616
-634.580	800.000	-0.049	0.207
-633.565	-137.669	0.587	-0.067
-632.551	800.000	-0.096	-0.356
-631.536	-133.505	-0.546	0.069
-630.522	800.000	-0.124	-0.496
-629.507	-200.000	0.068	-0.449
-628.492	-200.000	0.094	0.605
-627.478	800.000	-0.176	0.500
-626.463	-153.965	-0.634	0.043
-625.449	-200.000	0.073	0.573
-624.434	-125.090	-0.586	-0.091
-623.419	232.044	0.205	-0.338
-622.405	29.207	-0.402	-0.344
-621.390	40.843	-0.551	-0.500
-620.376	19.243	0.656	0.530
-619.361	-200.000	0.018	0.617
-618.346	-64.143	1.383	0.568
-617.332	188.734	0.271	-0.409
-616.317	238.445	0.187	-0.312
-615.303	-118.782	0.458	0.081
-614.288	172.790	0.203	-0.294
-613.273	-44.932	0.499	0.250
-612.259	-90.512	-0.452	-0.132
-611.244	800.000	0.024	0.079
-610.230	-29.505	-0.461	-0.265
-609.215	-200.000	-0.019	0.147
-608.201	-56.467	0.284	0.127
-607.186	222.552	-0.434	-0.703
-606.171	215.914	-0.425	-0.678
-605.157	-200.000	0.037	-0.246
-604.142	-132.954	-0.576	-0.074
-603.128	-40.598	-0.378	-0.197
-602.113	-44.706	0.581	0.292
-601.098	-55.245	-0.164	-0.074
-600.084	89.397	-0.583	-0.654
-599.069	-200.000	-0.096	0.683
-598.055	-59.758	0.567	0.244
-597.040	-63.628	-0.165	0.068
-596.025	-200.000	-0.206	-1.270
-595.011	32.745	0.802	-0.698
-593.996	-200.000	0.035	0.240
-592.982	-33.738	-0.439	0.243
-591.967	-150.856	0.173	-0.013
-590.952	-13.043	-0.455	0.297
-589.938	-135.348	-0.797	-0.096
-588.923	-200.000	0.155	-0.692
-587.909	15.930	0.549	0.434
-586.894	41.353	-0.509	0.463
-585.879	220.356	-0.283	0.456
-584.865	-92.511	-0.516	-0.146
-583.850	673.716	0.108	0.282
-582.836	800.000	-0.038	-0.116
-581.821	-109.302	-0.482	0.103
-580.806	-98.006	0.189	-0.049
-579.792	-200.000	0.073	0.889
-578.777	-72.280	-0.808	0.301
-577.763	408.714	0.263	-0.559
-576.748	-130.103	1.108	0.152
-575.733	20.874	-0.668	0.544
-574.719	-117.138	-0.511	-0.093
-573.704	-176.958	-0.442	0.011
-572.690	-127.604	0.881	-0.128
-571.675	330.400	-0.204	0.394
-570.661	772.091	-0.197	-0.540
-569.646	-163.818	-0.060	0.003
-568.631	-57.546	0.479	-0.211
-567.617	-114.834	-0.520	0.100
-566.602	70.955	-0.098	-0.101
-565.588	-91.158	-0.943	-0.272
-564.573	-83.194	0.242	0.078
-563.558	10.749	-0.711	0.545
-562.544	110.916	-0.194	-0.234
-561.529	-200.000	-0.030	0.342
-560.515	-200.000	0.014	0.199
-559.500	329.788	-0.507	-0.979
-558.485	800.000	0.210	0.590
-557.471	-160.634	-0.138	0.007
-556.456	-200.000	-0.045	-0.862
-555.442	-13.848	-0.391	0.254
-554.427	-200.000	-0.026	0.222
-553.412	66.745	0.677	0.692
-552.398	-135.772	-0.974	0.116
-551.383	-200.000	-0.044	-0.451
-550.369	800.000	-0.131	0.438
-549.354	-178.866	0.541	-0.012
-548.339	-197.833	-1.557	0.009
-547.325	-168.114	1.059	0.041
-546.310	-200.000	0.082	-0.823
-545.296	222.425	-0.484	-0.782
-544.281	-77.097	0.533	-0.187
-543.266	30.774	-0.469	0.403
-542.252	-200.000	-0.210	1.094
-541.237	572.610	-0.117	-0.286
-540.223	291.164	0.184	0.336
-539.208	368.935	0.197	0.399
-538.193	98.314	-0.199	-0.230
-537.179	-200.000	-0.080	-0.352
-536.164	-200.000	0.062	0.610
-535.150	-200.000	-0.025	-0.186
-534.135	137.663	0.449	-0.589
-533.121	-96.712	0.567	-0.150
-532.106	-164.074	-0.366	0.017
-531.091	51.563	0.395	-0.376
-530.077	-17.840	0.262	-0.165
-529.062	-74.239	-0.630	-0.229
-528.048	-200.000	-0.034	0.284
-527.033	800.000	-0.102	-0.405
-526.018	800.000	0.198	0.725
-525.004	-23.906	0.382	0.229
-523.989	-18.297	0.226	0.141
-522.975	-200.000	0.017	0.146
-521.960	342.521	-0.069	-0.135
-520.945	157.661	-0.051	0.071
-519.931	-159.177	-0.728	-0.041
-518.916	51.510	0.317	0.302
-517.902	141.969	0.282	0.375
-516.887	800.000	-0.085	-0.335
-515.872	257.936	-0.127	-0.220
-514.858	-22.192	0.330	-0.201
-513.843	-58.693	-0.555	0.241
-512.829	-200.000	-0.039	0.181
-511.814	370.220	0.620	-1.259
-510.799	92.186	-0.483	0.545
-509.785	-32.085	-0.241	0.135
-508.770	85.608	0.352	0.387
-507.756	-200.000	0.025	-0.829
-506.741	136.521	0.401	-0.525
-505.726	4.368	-0.310	0.228
-504.712	-111.459	-0.598	0.122
-503.697	-70.604	0.645	0.244
-502.683	-88.452	0.474	-0.142
-501.668	-58.582	-0.334	-0.145
-500.653	-140.089	-0.575	-0.061
-499.639	-76.451	0.360	-0.127
-498.624	14.063	0.257	-0.201
-497.610	-3.572	-0.051	0.036
-496.595	-200.000	0.091	1.035
-495.581	-139.947	0.390	0.041
-494.566	247.467	0.489	0.827
-493.551	-200.000	-0.135	1.056
-492.537	536.322	-0.106	-0.252
-491.522	800.000	-0.099	-0.278
-490.508	-200.000	0.002	-0.561
-489.493	-200.000	0.027	-0.623
-488.478	167.510	0.556	-0.792
-487.464	459.901	0.170	0.379
-486.449	-50.243	-1.027	0.486
-485.435	-200.000	-0.029	-0.408
-484.420	-73.807	0.233	0.085
-483.405	615.948	-0.219	0.550
-482.391	-200.000	0.049	-0.308
-481.376	800.000	0.091	0.343
-480.362	-66.109	0.219	0.088
-479.347	-87.199	0.177	-0.054
-478.332	-50.995	0.131	-0.061
-477.318	210.455	-0.273	0.430
-476.303	-115.381	0.482	-0.091
-475.289	19.510	0.386	-0.311
-474.274	-111.718	0.441	-0.089
-473.259	-109.013	0.161	0.034
-472.245	-44.697	-0.855	0.427
-471.230	-28.038	-0.722	0.418
-470.216	260.621	-0.600	1.039
-469.201	-39.957	-0.775	0.405
-468.186	-200.000	0.010	-0.268
-467.172	694.749	-0.128	-0.337
-466.157	165.110	0.324	-0.458
-465.143	490.711	0.181	-0.414
-464.128	-61.876	1.084	-0.454
-463.113	800.000	-0.102	0.420
-462.099	39.397	0.207	0.185
-461.084	-112.420	0.778	0.156
-460.070	-62.335	-0.239	0.100
-459.055	32.632	0.217	0.188
-458.040	-34.438	-0.790	-0.433
-457.026	18.499	-0.240	-0.192
-456.011	-200.000	0.003	-0.176
-454.997	-62.902	-0.441	0.182
-453.982	-200.000	-0.001	0.321
-452.968	71.677	-0.478	0.497
-451.953	48.426	0.326	0.306
-450.938	66.651	-0.376	0.382
-449.924	-200.000	-0.051	-0.539
-448.909	203.743	0.027	-0.042
-447.895	-65.886	0.981	0.392
-446.880	800.000	-0.145	0.580
-445.865	743.557	0.419	1.126
-444.851	-200.000	-0.039	0.519
-443.836	-63.680	0.763	-0.313
-442.822	524.059	-0.428	-1.005
-441.807	-200.000	0.004	0.158
-440.792	-155.594	0.453	-0.029
-439.778	-149.747	0.311	0.024
-438.763	-13.120	-0.614	-0.399
-437.749	159.767	0.443	0.617
-436.734	-28.730	0.667	-0.383
-435.719	-75.944	0.278	-0.098
-434.705	-4.186	-0.334	-0.231
-433.690	101.232	-0.155	-0.181
-432.676	316.132	0.512	-0.966
-431.661	-9.091	-0.489	-0.327
-430.646	-65.185	0.170	-0.069
-429.632	23.010	-0.969	0.794
-428.617	107.410	-0.602	-0.716
-427.603	43.677	0.988	0.903
-426.588	326.408	-0.264	-0.505
-425.573	90.654	0.198	0.222
-424.559	-95.633	-0.377	-0.101
-423.544	19.580	0.258	-0.208
-422.530	-200.000	-0.057	-0.451
-421.515	265.952	-0.325	-0.566
-420.500	-7.853	0.143	-0.097
-419.486	-200.000	-0.070	-0.346
-418.471	277.255	-0.492	-0.873
-417.457	-200.000	0.269	-1.221
-416.442	178.408	-0.367	-0.534
-415.428	-132.424	0.471	0.061
-414.413	-200.000	-0.079	-0.899
-413.398	2.407	0.356	0.257
-412.384	-125.997	-0.195	-0.029
-411.369	132.344	-0.333	-0.429
-410.355	-175.254	-0.553	0.015
-409.340	-131.201	-0.314	-0.042
-408.325	-109.095	0.418	-0.089
-407.311	-102.109	-1.164	-0.280
-406.296	-92.505	0.205	0.058
-405.282	140.841	-0.439	-0.579
-404.267	-200.000	0.063	0.443
-403.252	-12.331	-0.620	-0.404
-402.238	-147.411	-0.968	0.082
-401.223	-58.813	1.209	-0.522
-400.209	241.096	-0.116	0.193
-399.194	255.971	-0.264	0.452
-398.179	-97.222	-0.356	0.093
-397.165	-200.000	-0.009	0.339
-396.150	641.524	-0.049	-0.125
-395.136	-128.858	-0.220	0.031
-394.121	259.864	-0.308	0.531
-393.106	-96.805	0.503	-0.132
-392.092	-122.005	-0.362	-0.059
-391.077	800.000	0.102	-0.300
-390.063	10.309	0.443	0.336
-389.048	25.546	-0.436	0.362
-388.033	284.178	-0.201	-0.361
-387.019	-140.993	0.672	-0.069
-386.004	79.640	-0.159	0.170
-384.990	-78.835	-0.686	0.233
-383.975	54.146	-0.767	-0.735
-382.960	-200.000	0.033	0.850
-381.946	117.070	0.368	0.451
-380.931	-76.596	-0.185	-0.065
-379.917	-18.423	-0.558	-0.348
-378.902	-119.244	-0.164	0.029
-377.888	-7.303	0.152	0.102
-376.873	88.991	-0.324	0.360
-375.858	-78.401	-0.715	-0.244
-374.844	-200.000	-0.169	-1.223
-373.829	800.000	-0.159	-0.482
-372.815	-200.000	-0.053	0.371
-371.800	-30.369	-0.149	-0.084
-370.785	417.778	-0.069	0.147
-369.771	800.000	0.154	0.448
-368.756	501.177	-0.333	0.766
-367.742	-200.000	-0.034	-0.589
-366.727	193.306	0.348	-0.524
-365.712	-71.089	-0.278	-0.104
-364.698	-84.390	0.547	0.172
-363.683	651.743	-0.192	0.491
-362.669	-200.000	-0.055	0.768
-361.654	493.844	0.409	0.936
-360.639	404.196	0.217	-0.455
-359.625	301.162	-0.196	-0.360
-358.610	-143.401	0.897	0.085
-357.596	68.334	0.254	-0.259
-356.581	-22.874	0.475	0.286
-355.566	88.596	0.189	-0.210
-354.552	-147.988	0.990	-0.082
-353.537	-103.738	-0.448	0.105
-352.523	15.609	-0.362	-0.283
-351.508	-200.000	-0.041	-0.271
-350.493	175.857	0.338	-0.488
-349.479	-153.444	-0.547	0.038
-348.464	54.342	-0.389	-0.373
-347.450	262.805	-0.356	-0.616
-346.435	-187.773	1.070	0.014
-345.420	167.788	-0.126	-0.178
-344.406	-144.045	0.462	-0.043
-343.391	-200.000	-0.005	-0.690
-342.377	173.030	-0.771	-1.106
-341.362	800.000	0.331	1.092
-340.348	800.000	0.117	0.362
-339.333	50.353	-0.206	-0.194
-338.318	60.214	-0.635	-0.625
-337.304	-89.472	0.227	0.066
-336.289	-149.196	0.425	-0.034
-335.275	-200.000	-0.017	-0.394
-334.260	245.878	0.369	-0.619
-333.245	327.018	-0.098	-0.187
-332.231	77.129	0.504	0.533
-331.216	82.998	0.462	0.500
-330.202	543.684	-0.183	-0.435
-329.187	-53.735	0.807	-0.367
-328.172	-103.108	0.594	-0.140
-327.158	-109.514	0.318	-0.067
-326.143	-96.793	-0.400	-0.105
-325.129	800.000	0.117	0.395
-324.114	152.887	0.425	-0.578
-323.099	114.444	-0.399	-0.483
-322.085	-89.141	1.056	-0.310
-321.070	-200.000	0.085	-0.568
-320.056	-164.166	-0.692	0.032
-319.041	349.808	0.112	-0.219
-318.026	-188.087	0.346	-0.004
-317.012	542.769	0.130	-0.307
-315.997	-96.978	-0.502	0.131
-314.983	134.879	0.279	0.360
-313.968	635.848	0.446	1.126
-312.953	-14.723	0.282	-0.180
-311.939	27.640	-0.150	0.126
-310.924	-29.376	0.446	0.254
-309.910	-92.699	-0.877	0.244
-308.895	241.223	0.451	0.749
-307.880	36.054	0.070	0.061
-306.866	130.270	0.117	0.149
-305.851	-200.000	0.035	-0.611
-304.837	7.834	-0.679	-0.506
-303.822	21.859	-0.490	0.397
-302.807	-26.125	0.273	0.160
-301.793	-117.683	0.494	-0.088
-300.778	-97.764	0.643	0.165
-299.764	-200.000	-0.111	0.618
-298.749	800.000	0.062	0.259
-297.735	800.000	-0.091	0.338
-296.720	-200.000	-0.021	0.764
-295.705	60.022	-0.665	-0.653
-294.691	69.142	-0.414	0.423
-293.676	319.518	-0.291	-0.548
-292.662	-62.076	0.323	-0.134
-291.647	800.000	0.021	-0.064
-290.632	194.338	-0.527	-0.793
-289.618	-200.000	-0.063	-0.570
-288.603	381.041	-0.400	0.816
-287.589	139.437	0.546	0.714
-286.574	-48.813	0.265	-0.126
-285.559	437.964	-0.113	-0.246
-284.545	166.333	-0.076	0.108
-283.530	84.964	-0.438	0.477
-282.516	-50.891	0.880	0.411
-281.501	-146.598	0.593	0.051
-280.486	510.411	-0.186	-0.429
-279.472	-105.674	-0.034	-0.008
-278.457	-74.350	-0.529	0.190
-277.443	-92.978	0.745	0.207
-276.428	21.799	-0.229	0.185
-275.413	-200.000	0.032	0.700
-274.399	-8.248	-0.412	-0.275
-273.384	-30.183	-0.512	0.289
-272.370	-51.965	0.614	0.283
-271.355	-19.980	-0.401	0.246
-270.340	93.016	0.373	0.419
-269.326	228.659	0.358	-0.579
-268.311	-154.332	0.655	0.044
-267.297	562.918	0.197	-0.474
-266.282	112.541	0.381	-0.458
-265.267	19.322	0.689	-0.550
-264.253	82.624	0.419	-0.452
-263.238	-115.586	-0.447	-0.083
-262.224	-200.000	0.044	-0.287
-261.209	800.000	-0.246	-0.895
-260.195	-64.816	1.037	0.416
-259.180	338.911	-0.589	1.139
-258.165	-152.564	-0.401	-0.028
-257.151	168.417	-0.297	0.420
-256.136	755.819	0.194	-0.520
-255.122	-56.429	-0.502	0.221
-254.107	-51.080	-0.333	-0.155
-253.092	-200.000	-0.012	0.509
-252.078	67.672	-0.202	0.205
-251.063	-104.401	-0.880	0.202
-250.049	-200.000	-0.011	-0.053
-249.034	30.886	0.552	0.469
-248.019	-173.863	0.165	0.005
-247.005	-200.000	0.126	-0.737
-245.990	-200.000	0.074	-0.471
-244.976	312.435	0.048	0.090
-243.961	330.428	-0.072	0.137
-242.946	436.566	-0.113	0.244
-241.932	-200.000	0.138	-0.735
-240.917	13.608	-0.345	0.265
-239.903	-122.856	-0.704	0.113
-238.888	-172.859	-0.670	-0.021
-237.873	220.579	-0.226	0.360
-236.859	72.538	-0.194	0.201
-235.844	28.699	-0.154	0.129
-234.830	800.000	-0.068	0.286
-233.815	-26.283	0.799	-0.465
-232.800	800.000	0.148	0.571
-231.786	39.413	-0.275	-0.244
-230.771	-60.369	-0.375	0.158
-229.757	114.168	0.393	0.474
-228.742	-200.000	0.085	-0.948
-227.727	-77.308	0.619	0.213
-226.713	-200.000	-0.075	-0.730
-225.698	386.735	-0.212	0.434
-224.684	800.000	-0.169	0.595
-223.669	-6.677	0.969	0.653
-222.655	-104.102	-0.657	0.151
-221.640	-122.337	0.694	0.112
-220.625	-200.000	0.031	-0.679
-219.611	134.226	0.167	-0.214
-218.596	17.853	0.473	0.373
-217.582	-127.669	0.543	-0.078
-216.567	800.000	-0.072	0.247
-215.552	-200.000	-0.096	0.724
-214.538	-200.000	-0.037	-1.112
-213.523	5.360	0.309	-0.226
-212.509	107.538	-0.521	-0.614
-211.494	246.520	-0.156	0.261
-210.479	170.895	-0.191	0.272
-209.465	-200.000	0.055	-0.304
-208.450	85.185	0.401	-0.436
-207.436	800.000	-0.241	-0.669
-206.421	-93.665	-0.533	-0.146
-205.406	44.488	0.642	-0.584
-204.392	-141.330	0.492	-0.050
-203.377	-50.285	-0.516	-0.242
-202.363	11.251	0.705	-0.534
-201.348	-46.647	0.692	-0.336
-200.333	-65.008	-0.238	-0.095
-199.319	83.136	-0.275	-0.296
-198.304	238.762	0.448	0.738
-197.290	-200.000	0.211	1.088
-196.275	4.512	0.337	-0.245
-195.260	-200.000	0.008	0.079
-194.246	-19.888	-1.060	-0.648
-193.231	-140.692	-0.827	-0.085
-192.217	150.405	0.382	-0.513
-191.202	-18.786	0.491	-0.302
-190.187	-88.268	-0.518	-0.154
-189.173	800.000	-0.227	0.819
-188.158	-200.000	0.085	-0.456
-187.144	-142.199	-0.555	0.054
-186.129	-85.724	-0.254	0.078
-185.114	-90.767	-0.272	0.078
-184.100	83.657	0.410	0.443
-183.085	-61.303	0.724	-0.301
-182.071	691.084	0.013	0.033
-181.056	-17.715	-0.606	0.376
-180.042	-84.969	0.606	-0.188
-179.027	-76.540	0.545	0.189
-178.012	517.711	-0.075	0.174
-176.998	-200.000	-0.068	0.324
-175.983	800.000	-0.217	-0.652
-174.969	-200.000	0.033	-0.191
-173.954	8.053	1.043	-0.774
-172.939	-137.855	-0.585	0.065
-171.925	800.000	-0.197	0.587
-170.910	-90.985	-0.448	0.127
-169.896	-86.805	0.383	-0.116
-168.881	-200.000	0.108	0.668
-167.866	-8.519	-0.951	0.632
-166.852	8.985	0.233	0.174
-165.837	1.211	0.436	0.310
-164.823	-171.969	1.229	-0.039
-163.808	-20.320	0.159	-0.097
-162.793	42.461	0.696	0.625
-161.779	-115.143	0.571	-0.107
-160.764	163.844	-0.545	-0.758
-159.750	-200.000	0.154	0.865
-158.735	206.055	-0.425	0.654
-157.720	172.563	0.281	-0.400
-156.706	115.235	-0.210	0.254
-155.691	346.686	-0.064	0.125
-154.677	-200.000	0.009	0.088
-153.662	-99.065	0.767	-0.192
-152.647	51.037	0.507	0.475
-151.633	413.770	-0.045	0.094
-150.618	316.913	0.297	-0.555
-149.604	1.598	0.642	-0.457
-148.589	217.776	0.278	-0.439
-147.574	-111.199	-0.326	0.066
-146.560	482.651	-0.308	-0.691
-145.545	173.331	-0.027	-0.038
-144.531	-47.388	0.538	-0.259
-143.516	-36.808	0.123	0.065
-142.502	-200.000	0.002	-0.279
-141.487	-178.730	-0.022	0.000
-140.472	-200.000	0.017	-0.276
-139.458	228.053	0.277	0.446
-138.443	-200.000	0.039	0.268
-137.429	-69.181	0.535	-0.203
-136.414	-127.789	0.655	-0.093
-135.399	-135.964	-0.357	0.041
-134.385	-21.098	0.905	-0.547
-133.370	49.820	-0.065	-0.061
-132.356	-66.584	0.425	-0.166
-131.341	800.000	-0.180	0.755
-130.326	-98.259	0.575	0.146
-129.312	139.954	0.464	-0.604
-128.297	-50.234	-0.535	-0.250
-127.283	308.452	0.157	-0.289
-126.268	-8.527	0.666	0.442
-125.253	-12.494	-0.225	0.145
-124.239	-45.260	0.528	0.259
-123.224	394.495	-0.198	0.407
-122.210	-111.112	-0.812	0.164
-121.195	-39.797	-0.639	-0.330
-120.180	-200.000	0.028	0.693
-119.166	-6.349	0.097	0.066
-118.151	800.000	0.220	0.643
-117.137	-188.830	0.626	-0.008
-116.122	48.281	-0.574	0.530
-115.107	222.115	-0.234	0.372
-114.093	-200.000	-0.002	-0.422
-113.078	17.946	0.500	-0.393
-112.064	364.650	-0.378	-0.751
-111.049	-38.415	-0.462	-0.241
-110.034	-12.536	0.910	0.586
-109.020	-200.000	0.015	0.300
-108.005	-50.021	-0.112	-0.052
-106.991	-200.000	-0.957	-0.002
-105.976	-126.653	0.390	-0.057
-104.962	176.691	-0.219	-0.315
-103.947	-3.156	-0.626	-0.431
-102.932	-146.695	-0.071	0.006
-101.918	-200.000	0.178	0.814
-100.903	-109.679	0.090	-0.019
-99.889	-112.308	0.148	0.029
-98.874	5.164	-0.100	-0.072
-97.859	307.530	-0.270	0.496
-96.845	-77.905	-0.398	0.135
-95.830	-99.864	-0.657	0.162
-94.816	-16.862	-0.123	-0.077
-93.801	800.000	-0.276	1.115
-92.786	93.239	0.300	-0.334
-91.772	-200.000	-0.070	-0.777
-90.757	-153.987	-0.155	-0.010
-89.743	-67.903	0.229	-0.088
-88.728	-200.000	0.136	0.659
-87.713	-200.000	0.572	-0.001
-86.699	36.382	0.207	0.180
-85.684	-200.000	-0.045	0.772
-84.670	58.248	-0.561	-0.542
-83.655	643.743	0.307	-0.772
-82.640	127.877	0.544	-0.681
-81.626	79.372	-0.152	-0.161
-80.611	-102.580	0.325	0.077
-79.597	-200.000	0.027	0.925
-78.582	-136.315	0.171	-0.020
-77.567	-51.543	0.475	-0.219
-76.553	-9.092	-0.501	-0.330
-75.538	-5.418	0.165	-0.112
-74.524	132.006	-0.740	0.938
-73.509	58.197	-0.314	0.303
-72.494	-123.223	-0.690	0.109
-71.480	-125.378	-0.665	0.100
-70.465	-149.974	-0.635	0.049
-69.451	495.261	0.297	-0.672
-68.436	-200.000	-0.020	0.088
-67.422	-91.730	-0.840	-0.235
-66.407	328.450	0.225	0.426
-65.392	224.799	-0.424	0.676
-64.378	800.000	0.077	0.299
-63.363	81.115	0.203	-0.215
-62.349	-22.953	0.404	0.240
-61.334	-71.943	-0.705	-0.258
-60.319	71.620	0.729	0.746
-59.305	493.672	-0.497	-1.123
-58.290	227.729	0.792	1.269
-57.276	186.623	0.638	0.935
-56.261	-200.000	95.660	586.490
-55.246	673.147	1355.072	3460.033
-54.232	203.913	2517.802	3838.168
-53.217	119.663	2120.591	2586.157
-52.203	44.257	1593.114	1439.106
-51.188	36.174	1332.340	1155.317
-50.173	33.089	1291.525	1101.932
-49.159	56.164	1341.686	1282.312
-48.144	56.937	1358.254	1302.686
-47.130	36.149	1316.138	1140.941
-46.115	32.641	1299.186	1105.663
-45.100	32.506	1295.200	1101.436
-44.086	32.637	1291.010	1098.595
-43.071	32.537	1288.908	1096.179
-42.057	32.311	1287.051	1093.242
-41.042	32.634	1285.373	1093.646
-40.027	32.974	1282.976	1093.537
-39.013	32.574	1281.960	1090.309
-37.998	32.670	1279.906	1089.072
-36.984	32.565	1278.253	1087.020
-35.969	32.679	1275.895	1085.626
-34.954	32.794	1274.424	1084.993
-33.940	32.667	1274.234	1084.057
-32.925	32.676	1272.162	1082.306
-31.911	32.574	1271.481	1081.095
-30.896	32.543	1270.103	1079.708
-29.881	32.593	1268.016	1078.172
-28.867	32.851	1266.593	1078.394
-27.852	32.799	1265.443	1077.076
-26.838	32.772	1263.447	1075.184
-25.823	32.851	1261.929	1074.297
-24.809	32.847	1259.918	1072.523
-23.794	32.686	1259.469	1071.180
-22.779	32.548	1258.883	1069.857
-21.765	32.767	1257.278	1069.691
-20.750	32.870	1255.685	1068.878
-19.736	32.619	1255.392	1067.162
-18.721	32.585	1253.386	1065.225
-17.706	32.592	1252.462	1064.436
-16.692	32.740	1251.005	1063.993
-15.677	32.343	1251.410	1062.052
-14.663	32.425	1248.793	1060.252
-13.648	32.485	1248.677	1060.447
-12.633	32.688	1246.845	1059.992
-11.619	32.305	1247.593	1058.433
-10.604	32.526	1245.563	1057.910
-9.590	32.592	1244.512	1057.345
-8.575	32.539	1244.276	1056.802
-7.560	32.570	1242.974	1055.832
-6.546	32.617	1241.538	1054.831
-5.531	32.537	1241.258	1054.105
-4.517	32.567	1239.795	1052.988
-3.502	32.497	1239.670	1052.445
-2.487	32.452	1239.296	1051.840
-1.473	32.393	1235.028	1047.843
-0.458	30.760	1219.941	1026.009
0.556	28.428	1199.939	986.680
1.571	24.574	1204.991	969.864
2.586	23.416	1220.668	976.025
3.600	22.758	1209.089	963.091
4.615	16.732	1137.266	874.769
5.629	7.599	1061.184	771.969
6.644	3.383	1043.087	738.563
7.659	3.122	1039.885	734.984
8.673	3.071	1037.432	732.944
9.688	3.144	1035.188	731.642
10.702	3.181	1035.635	732.065
11.717	9.091	1043.490	765.817
12.731	18.770	1056.143	821.556
13.746	23.677	1062.439	849.932
14.761	24.341	1063.382	853.789
15.775	24.015	1061.372	850.540
16.790	24.047	1060.356	849.805
17.804	23.811	1060.372	848.617
18.819	23.723	1059.954	847.786
19.834	23.971	1060.183	849.077
20.848	23.953	1058.911	847.897
21.863	24.000	1057.730	847.105
22.877	23.679	1058.176	845.857
23.892	23.900	1056.910	845.822
24.907	23.510	1056.427	843.505
25.921	23.491	1054.948	842.158
26.936	23.754	1053.340	842.048
27.950	23.652	1052.518	840.831
28.965	23.432	1051.546	838.942
29.980	23.392	1050.648	837.962
30.994	23.667	1048.962	837.842
32.009	23.822	1048.270	837.945
33.023	23.587	1046.478	835.331
34.038	23.583	1045.596	834.536
35.053	23.469	1044.448	833.007
36.067	23.367	1044.604	832.581
37.082	23.471	1043.634	832.220
38.096	23.553	1043.215	832.199
39.111	23.836	1042.286	832.712
40.126	23.731	1040.032	830.344
41.140	23.368	1039.270	827.968
42.155	23.135	1038.372	826.088
43.169	23.387	1036.770	825.917
44.184	23.184	1036.151	824.404
45.199	22.846	1035.301	822.082
46.213	23.487	1033.657	823.685
47.228	23.680	1033.675	824.522
48.242	23.930	1033.315	825.324
49.257	23.645	1033.207	823.840
50.271	23.810	1031.904	823.493
51.286	23.942	1031.324	823.567
52.301	24.001	1029.880	822.614
53.315	23.495	1030.778	820.919
54.330	23.489	1027.971	818.583
55.344	23.404	1027.822	817.997
56.359	23.354	1027.067	817.093
57.374	23.585	1025.822	817.096
58.388	23.176	1025.734	815.072
59.403	23.136	1023.376	812.941
60.417	23.021	1023.779	812.662
61.432	23.246	1022.977	812.987
62.447	23.297	1021.912	812.302
63.461	23.340	1020.609	811.390
64.476	23.211	1020.008	810.249
65.490	23.060	1019.650	809.201
66.505	22.826	1019.059	807.592
67.520	23.096	1018.371	808.207
68.534	23.052	1016.677	806.591
69.549	22.998	1015.822	805.597
70.563	22.815	1015.285	804.264
71.578	22.353	1014.143	801.189
72.593	22.684	1012.959	801.684
73.607	22.530	1012.727	800.731
74.622	22.951	1012.014	802.009
75.636	22.705	1011.641	800.526
76.651	22.787	1011.261	800.526
77.666	22.641	1010.812	799.438
78.680	23.218	1009.072	800.601
79.695	22.894	1009.406	799.329
80.709	23.133	1008.968	799.991
81.724	22.808	1007.943	797.643
82.739	23.038	1007.706	798.420
83.753	23.736	1006.476	800.524
84.768	24.152	1006.086	802.017
85.782	24.459	1005.693	803.011
86.797	23.830	1004.646	799.279
87.812	23.822	1004.141	798.769
88.826	24.000	1003.172	798.728
89.841	24.137	1002.712	798.907
90.855	24.265	1000.927	797.987
91.870	24.469	1000.337	798.355
92.884	23.640	1000.442	794.659
93.899	24.075	998.074	794.651
94.914	24.011	997.954	794.199
95.928	23.899	996.361	792.364
96.943	23.826	995.182	791.030
97.957	23.475	994.641	788.967
98.972	23.928	992.834	789.480
99.987	23.924	993.325	789.781
101.001	23.776	991.393	787.520
102.016	23.829	991.257	787.574
103.030	23.946	990.605	787.505
104.045	23.907	989.846	786.658
105.060	23.663	989.549	785.277
106.074	23.698	988.279	784.354
107.089	23.646	987.284	783.263
108.103	23.559	986.021	781.807
109.118	23.356	984.618	779.733
110.133	23.296	982.926	778.063
111.147	22.648	983.461	775.567
112.162	23.098	981.681	776.068
113.176	23.230	982.187	776.982
114.191	23.203	980.453	775.420
115.206	22.942	980.022	773.868
116.220	22.981	978.969	773.139
117.235	22.909	977.505	771.601
118.249	22.824	976.740	770.559
119.264	22.714	975.667	769.163
120.279	22.676	975.947	769.152
121.293	22.943	974.921	769.437
122.308	22.785	973.485	767.551
123.322	22.473	973.241	765.931
124.337	22.551	971.398	764.753
125.352	22.780	971.055	765.409
126.366	22.521	969.750	763.189
127.381	22.748	970.213	764.471
128.395	23.411	969.350	766.589
129.410	23.309	967.321	764.478
130.424	23.217	966.663	763.493
131.439	23.363	965.938	763.481
132.454	23.321	965.590	762.960
133.468	23.748	963.655	763.198
134.483	23.475	963.804	762.077
135.497	23.419	963.534	761.552
136.512	23.367	961.851	759.934
137.527	23.438	961.537	759.922
138.541	23.744	960.159	760.076
139.556	23.492	960.063	758.853
140.570	23.629	959.734	759.113
141.585	23.968	959.104	759.995
142.600	23.937	957.478	758.507
143.614	24.038	957.712	759.058
144.629	24.697	956.321	760.694
145.643	23.883	955.798	756.745
146.658	23.890	954.007	755.292
147.673	23.669	952.691	753.244
148.687	23.778	952.020	753.110
149.702	23.452	951.608	751.335
150.716	23.434	950.641	750.430
151.731	23.511	949.781	750.012
152.746	23.924	948.358	750.564
153.760	23.972	947.597	750.097
154.775	23.981	947.307	749.841
155.789	24.012	945.856	748.757
156.804	24.064	946.052	749.062
157.819	23.858	945.485	747.680
158.833	24.204	944.689	748.440
159.848	24.039	944.142	747.246
160.862	24.066	942.778	746.214
161.877	23.776	941.007	743.533
162.892	23.646	940.225	742.305
163.906	23.564	939.012	740.939
164.921	23.403	938.601	739.877
165.935	23.610	937.833	740.071
166.950	23.504	936.922	738.846
167.964	23.468	936.777	738.515
168.979	23.622	935.028	737.710
169.994	23.415	934.600	736.448
171.008	23.751	933.690	737.059
172.023	23.955	934.473	738.459
173.037	24.074	933.565	738.173
174.052	24.050	932.257	736.972
175.067	23.466	930.563	733.153
176.081	23.523	929.684	732.632
177.096	23.258	929.068	730.985
178.110	23.421	928.266	730.962
179.125	23.512	927.649	730.788
180.140	23.255	927.744	729.739
181.154	23.607	927.815	731.183
182.169	23.833	927.975	732.173
183.183	23.766	927.761	731.662
184.198	23.503	926.952	729.879
185.213	23.561	925.577	728.969
186.227	23.512	924.935	728.200
187.242	23.794	924.747	729.144
188.256	24.109	923.512	729.397
189.271	24.112	923.497	729.330
190.286	23.864	921.578	726.740
191.300	23.370	920.084	723.480
192.315	23.002	919.492	721.449
193.329	23.104	918.351	720.905
194.344	23.652	918.563	723.241
195.359	23.692	918.813	723.535
196.373	23.771	918.677	723.688
197.388	24.124	917.455	724.094
198.402	24.385	916.633	724.445
199.417	24.310	916.971	724.339
200.432	24.243	916.520	723.649
201.446	24.226	916.280	723.327
202.461	24.785	914.056	723.771
203.475	24.089	913.902	720.766
204.490	23.837	912.689	718.728
205.504	23.931	913.035	719.315
206.519	23.934	912.363	718.737
207.534	24.015	911.574	718.378
208.548	24.031	910.722	717.706
209.563	23.901	910.221	716.727
210.577	23.958	909.733	716.507
211.592	24.586	909.592	718.860
212.607	24.687	909.152	718.856
213.621	24.384	907.824	716.525
214.636	24.163	906.744	714.721
215.650	24.168	906.688	714.636
216.665	24.215	905.849	714.098
217.680	24.399	904.996	714.101
218.694	24.168	904.559	712.766
219.709	23.971	904.008	711.482
220.723	23.986	902.882	710.593
221.738	23.781	902.608	709.498
222.753	24.015	901.164	709.230
223.767	24.462	900.649	710.542
224.782	24.304	901.829	710.780
225.796	24.277	900.741	709.753
226.811	24.247	898.651	707.924
227.826	23.499	898.209	704.543
228.840	23.766	897.351	704.867
229.855	23.758	897.189	704.646
230.869	23.663	896.394	703.583
231.884	23.568	895.547	702.480
232.899	23.901	895.421	703.638
233.913	24.122	894.374	703.625
234.928	23.660	893.812	701.297
235.942	23.519	893.069	700.095
236.957	23.562	892.501	699.759
237.972	23.058	892.831	697.966
238.986	23.356	891.497	698.034
240.001	23.280	890.717	697.065
241.015	23.454	890.503	697.519
242.030	23.690	889.825	697.852
243.045	23.793	889.094	697.625
244.059	23.857	889.727	698.310
245.074	23.688	888.541	696.653
246.088	23.896	888.685	697.522
247.103	24.252	888.111	698.403
248.117	24.649	886.839	698.894
249.132	24.942	887.596	700.576
250.147	25.153	886.534	700.500
251.161	24.966	886.615	699.772
252.176	25.187	885.946	700.044
253.190	25.123	885.292	699.217
254.205	25.460	884.195	699.598
255.220	25.035	884.392	698.037
256.234	24.693	883.956	696.299
257.249	24.695	881.904	694.630
258.263	24.971	880.830	694.792
259.278	24.699	881.597	694.281
260.293	24.417	881.327	692.911
261.307	24.834	880.819	694.071
262.322	24.993	880.042	694.011
263.336	24.561	878.451	691.023
264.351	24.237	878.287	689.579
265.366	24.560	877.179	689.898
266.380	25.066	877.657	692.168
267.395	24.638	876.054	689.191
268.409	24.866	875.064	689.229
269.424	24.922	874.399	688.863
270.439	24.680	874.940	688.294
271.453	24.611	873.753	687.032
272.468	24.537	873.658	686.613
273.482	24.760	873.184	687.039
274.497	24.726	871.921	685.851
275.512	24.637	871.916	685.448
276.526	24.419	871.267	684.041
277.541	24.857	871.333	685.709
278.555	24.622	870.760	684.299
279.570	25.093	870.413	685.766
280.585	24.663	869.615	683.437
281.599	24.585	867.967	681.780
282.614	24.190	866.822	679.314
283.628	24.698	866.231	680.727
284.643	24.371	865.487	678.838
285.657	24.549	865.473	679.446
286.672	24.862	864.008	679.423
287.687	24.635	864.426	678.831
288.701	24.614	864.012	678.364
289.716	24.932	862.766	678.533
290.730	24.705	862.515	677.414
291.745	24.755	861.759	676.950
292.760	24.603	862.118	676.596
293.774	25.309	861.444	678.679
294.789	24.930	861.252	677.033
295.803	25.056	859.390	675.986
296.818	25.023	858.774	675.315
297.833	24.696	858.421	673.746
298.847	24.923	857.485	673.806
299.862	24.882	857.350	673.488
300.876	24.922	857.126	673.401
301.891	25.116	856.918	673.910
302.906	25.388	856.240	674.339
303.920	25.321	855.685	673.590
304.935	25.464	855.602	674.001
305.949	25.579	854.132	673.215
306.964	24.632	853.721	669.284
307.979	24.707	853.709	669.496
308.993	25.384	852.649	671.138
310.008	25.332	851.528	670.002
311.022	25.351	851.158	669.721
312.037	24.785	850.178	666.781
313.052	24.992	849.763	667.170
314.066	24.634	848.930	665.126
315.081	24.413	849.211	664.461
316.095	24.665	848.345	664.665
317.110	24.933	848.132	665.435
318.125	24.435	847.168	662.769
319.139	24.429	846.266	661.983
320.154	24.425	845.514	661.322
321.168	24.485	844.878	660.988
322.183	24.677	845.351	662.010
323.197	24.484	844.774	660.785
324.212	24.665	844.194	660.943
325.227	24.486	843.965	660.043
326.241	24.696	842.402	659.536
327.256	24.573	842.202	658.868
328.270	24.102	842.683	657.448
329.285	24.492	841.146	657.626
330.300	24.291	840.056	655.978
331.314	24.177	840.744	656.037
332.329	24.340	840.213	656.165
333.343	24.777	839.631	657.256
334.358	24.898	838.930	657.096
335.373	24.622	839.590	656.540
336.387	24.989	838.771	657.187
337.402	25.033	838.950	657.433
338.416	25.258	839.365	658.523
339.431	25.176	839.080	657.941
340.446	25.973	837.399	659.483
341.460	25.649	836.746	657.725
342.475	25.568	836.824	657.434
343.489	25.748	836.725	657.956
344.504	25.718	837.299	658.238
345.519	25.847	836.075	657.690
346.533	25.961	835.266	657.411
347.548	25.709	834.621	655.925
348.562	25.490	833.348	654.071
349.577	25.131	833.049	652.471
350.592	25.367	832.265	652.656
351.606	25.201	831.605	651.478
352.621	25.113	830.916	650.562
353.635	25.198	830.354	650.374
354.650	24.789	830.028	648.575
355.665	24.563	829.710	647.454
356.679	25.333	828.197	648.999
357.694	25.459	827.099	648.535
358.708	25.294	827.015	647.819
359.723	25.073	826.507	646.565
360.738	24.778	826.064	645.096
361.752	25.106	826.674	646.699
362.767	25.482	825.918	647.407
363.781	25.994	824.555	648.120
364.796	25.727	824.234	646.853
365.810	26.059	824.157	647.927
366.825	25.809	824.119	646.941
367.840	25.423	822.764	644.437
368.854	25.503	822.582	644.524
369.869	25.360	822.414	643.822
370.883	25.538	821.530	643.712
371.898	25.706	822.336	644.888
372.913	25.730	820.461	643.447
373.927	25.715	819.203	642.350
374.942	25.437	819.452	641.493
375.956	25.769	819.576	642.720
376.971	25.580	819.759	642.132
377.986	25.881	819.009	642.562
379.000	25.736	818.168	641.327
380.015	25.792	816.999	640.554
381.029	26.052	816.753	641.230
382.044	26.224	816.581	641.648
383.059	25.982	815.746	640.076
384.073	26.309	815.136	640.702
385.088	25.636	814.307	637.609
386.102	25.319	813.695	635.950
387.117	25.152	813.111	634.846
388.132	25.162	812.847	634.618
389.146	25.479	811.721	634.802
390.161	25.454	811.611	634.574
391.175	25.703	811.866	635.596
392.190	25.937	810.499	635.295
393.205	25.237	809.337	631.865
394.219	24.432	810.140	629.596
395.234	24.283	809.661	628.641
396.248	24.860	808.499	629.714
397.263	25.261	807.900	630.604
398.278	25.056	806.775	628.948
399.292	24.498	807.292	627.337
400.307	24.547	806.366	626.734
401.321	25.208	805.708	628.483
402.336	25.526	805.411	629.309
403.350	25.540	806.584	630.221
404.365	25.847	806.091	630.854
405.380	26.043	805.872	631.312
406.394	26.191	805.208	631.255
407.409	26.428	804.697	631.623
408.423	26.310	804.148	630.725
409.438	26.309	803.414	630.093
410.453	26.366	802.775	629.732
411.467	25.877	802.725	627.936
412.482	25.855	802.897	627.936
413.496	26.225	801.869	628.365
414.511	26.076	801.728	627.682
415.526	26.097	801.235	627.311
416.540	26.462	800.999	628.339
417.555	26.441	799.946	627.386
418.569	26.309	799.616	626.613
419.584	26.316	799.365	626.385
420.599	26.394	798.439	625.875
421.613	160.244	1370.472	1791.725
422.628	139.040	1453.829	1791.825
