DTS Sentinel unit serial number:	SN413079Multiplexer serial number:	ORYXHardware model number:	OX4-SRSoftware version number:	ORYX F/W v4.00 Oryx Data Collector v3.7.2.0data status	okinstallation	princeton_trtdifferential loss correction	single-endedforward channel	channel 1reverse channel	N/Adate	2019/09/16time	08:06:35forward acquisition time	60.00reverse acquisition time	0.00gamma	496.2192k internal	0.2327k external	0.2327temperature offset calibration	0.9979default loss term (dB/km)	0.3790temperature slope calibration	1.0000multiplexer offset coefficient	1.0000multiplexer slope coefficient	1.0000fibre end	0.00T internal ref (°C)	28.62T ext. ref 1 (°C)	11.79T ext. ref 2 (°C)	24.79length (m)	temperature (°C)	Stokes	anti-Stokes-747.200	-136.401	0.178	0.021
-746.185	47.825	-0.156	0.147
-745.171	800.000	-0.049	0.149
-744.156	-136.484	-0.162	-0.019
-743.142	800.000	0.013	-0.044
-742.127	77.280	-0.284	0.305
-741.112	-160.130	-0.592	-0.032
-740.098	280.380	-0.093	-0.167
-739.083	173.319	0.095	-0.138
-738.069	129.897	0.132	0.170
-737.054	-115.381	-0.087	-0.017
-736.039	-50.466	-0.195	-0.093
-735.025	225.889	-0.038	0.062
-734.010	37.581	-0.081	-0.072
-732.996	15.915	-0.276	0.219
-731.981	-126.215	-0.038	0.006
-730.966	326.881	-0.153	-0.296
-729.952	64.835	0.219	-0.222
-728.937	800.000	-0.050	-0.172
-727.923	62.237	-0.098	-0.099
-726.908	221.659	-0.072	0.116
-725.894	119.110	0.206	0.256
-724.879	198.863	0.041	-0.064
-723.864	-60.825	-0.024	0.010
-722.850	130.990	-0.071	-0.092
-721.835	-34.093	-0.103	0.057
-720.821	-118.210	0.175	0.031
-719.806	800.000	0.056	0.214
-718.791	-22.296	-0.156	-0.095
-717.777	506.687	0.073	-0.169
-716.762	-200.000	0.003	-0.041
-715.748	-41.908	-0.276	-0.142
-714.733	-200.000	-0.044	-0.371
-713.718	-70.130	-0.130	-0.050
-712.704	2.948	-0.068	-0.049
-711.689	3.654	-0.190	0.140
-710.675	-43.432	-0.244	-0.124
-709.660	137.924	-0.128	-0.169
-708.645	347.961	-0.079	0.156
-707.631	-59.086	-0.524	0.228
-706.616	-34.576	-0.200	-0.110
-705.602	238.014	0.070	-0.116
-704.587	-53.216	0.174	0.080
-703.572	-137.174	-0.165	-0.019
-702.558	800.000	-0.060	-0.170
-701.543	-200.000	0.152	0.713
-700.529	-37.489	0.127	0.068
-699.514	-87.865	0.230	-0.070
-698.499	290.945	-0.119	-0.217
-697.485	-91.912	0.313	-0.089
-696.470	-62.744	-0.045	-0.019
-695.456	-20.132	0.257	-0.159
-694.441	800.000	0.058	0.163
-693.426	513.810	-0.080	0.189
-692.412	-7.550	-0.220	-0.150
-691.397	-160.930	-0.285	0.015
-690.383	800.000	0.151	-0.455
-689.368	-130.478	-0.191	0.026
-688.354	-79.739	0.241	0.082
-687.339	-159.904	-0.470	-0.026
-686.324	211.539	-0.212	-0.335
-685.310	-6.479	-0.279	-0.191
-684.295	-88.238	0.183	-0.055
-683.281	44.500	-0.097	-0.089
-682.266	-200.000	-0.079	0.382
-681.251	-200.000	0.009	-0.217
-680.237	-140.592	0.326	-0.034
-679.222	-17.772	-0.210	0.133
-678.208	58.630	0.068	0.067
-677.193	-73.056	0.309	-0.114
-676.178	49.585	-0.251	0.238
-675.164	-200.000	-0.046	-0.268
-674.149	-200.000	0.030	-0.275
-673.135	-200.000	0.014	-0.097
-672.120	800.000	-0.064	0.247
-671.105	36.064	-0.135	0.119
-670.091	-135.357	0.223	-0.027
-669.076	75.493	-0.123	-0.130
-668.062	-142.944	-0.421	-0.041
-667.047	-46.919	-0.082	0.040
-666.032	-200.000	0.022	-0.097
-665.018	-167.204	-0.224	-0.009
-664.003	-200.000	0.107	0.607
-662.989	235.045	0.123	0.204
-661.974	800.000	-0.082	-0.270
-660.959	77.655	0.081	0.087
-659.945	28.987	-0.128	-0.109
-658.930	610.480	-0.086	-0.215
-657.916	-102.802	0.366	-0.088
-656.901	-200.000	-0.021	-0.150
-655.886	800.000	-0.032	-0.105
-654.872	800.000	-0.019	-0.059
-653.857	-34.952	-0.115	-0.063
-652.843	800.000	0.073	-0.209
-651.828	-200.000	-0.063	-0.298
-650.814	59.591	-0.035	0.035
-649.799	-85.218	0.156	-0.049
-648.784	7.664	-0.257	-0.193
-647.770	-200.000	0.007	0.249
-646.755	18.441	0.191	0.153
-645.741	-200.000	-0.020	0.338
-644.726	-200.000	0.005	0.226
-643.711	100.120	-0.138	0.161
-642.697	164.285	0.154	-0.218
-641.682	800.000	0.089	-0.382
-640.668	-200.000	0.073	0.485
-639.653	382.814	-0.073	-0.152
-638.638	-200.000	-0.046	0.239
-637.624	-27.836	0.098	0.057
-636.609	358.873	0.114	-0.229
-635.595	89.085	0.049	-0.054
-634.580	-174.500	0.111	-0.003
-633.565	-84.195	0.109	-0.035
-632.551	-200.000	0.024	-0.210
-631.536	-105.336	-0.190	0.043
-630.522	132.456	0.045	-0.058
-629.507	287.327	-0.075	0.135
-628.492	52.981	0.111	0.107
-627.478	-109.532	-0.137	0.029
-626.463	535.556	0.174	-0.415
-625.449	22.621	-0.206	-0.169
-624.434	-200.000	-0.022	-0.221
-623.419	36.388	-0.179	-0.158
-622.405	-40.034	0.069	-0.036
-621.390	-125.676	0.600	0.091
-620.376	69.037	-0.013	0.014
-619.361	800.000	-0.149	-0.446
-618.346	113.020	-0.138	-0.168
-617.332	-200.000	-0.003	-0.200
-616.317	-179.107	-0.201	-0.005
-615.303	28.533	0.049	-0.042
-614.288	-132.889	0.167	-0.021
-613.273	-107.538	0.099	0.022
-612.259	-200.000	-0.018	-0.088
-611.244	800.000	0.083	-0.256
-610.230	552.226	0.014	-0.034
-609.215	-32.235	-0.265	0.149
-608.201	-101.926	0.187	0.045
-607.186	270.607	0.195	-0.344
-606.171	-159.036	-0.135	0.008
-605.157	-67.276	-0.249	0.098
-604.142	-165.972	-0.209	-0.009
-603.128	-14.428	-0.137	-0.088
-602.113	-147.196	-0.382	0.033
-601.098	362.702	-0.088	0.178
-600.084	-119.011	-0.170	-0.030
-599.069	-200.000	0.013	0.450
-598.055	-18.263	0.115	-0.072
-597.040	-200.000	-0.015	-0.262
-596.025	214.573	-0.043	0.068
-595.011	444.824	-0.063	-0.139
-593.996	-154.585	-0.210	-0.014
-592.982	-200.000	-0.025	-0.249
-591.967	205.778	0.261	0.407
-590.952	497.595	-0.071	0.164
-589.938	-192.398	-0.133	-0.001
-588.923	-11.278	-0.164	-0.108
-587.909	37.770	-0.037	-0.033
-586.894	-46.388	0.190	0.094
-585.879	19.852	-0.143	-0.115
-584.865	800.000	0.109	-0.311
-583.850	269.263	-0.070	-0.122
-582.836	800.000	0.058	-0.163
-581.821	-51.336	0.250	0.117
-580.806	154.042	0.154	-0.212
-579.792	515.525	0.134	-0.313
-578.777	149.904	-0.040	-0.055
-577.763	105.077	-0.081	0.095
-576.748	-4.696	-0.164	-0.114
-575.733	-113.082	-0.155	0.031
-574.719	-200.000	0.054	0.303
-573.704	-200.000	-0.004	-0.252
-572.690	24.691	-0.098	-0.081
-571.675	359.816	0.079	-0.158
-570.661	-200.000	0.022	-0.145
-569.646	-200.000	0.056	-0.274
-568.631	63.035	-0.229	0.230
-567.617	217.253	0.055	0.088
-566.602	322.624	-0.086	0.163
-565.588	37.259	-0.073	-0.065
-564.573	-5.634	-0.184	-0.126
-563.558	-72.559	-0.156	-0.058
-562.544	-29.836	-0.127	0.073
-561.529	-99.738	0.243	-0.061
-560.515	-200.000	-0.016	-0.160
-559.500	-60.151	-0.118	-0.050
-558.485	-11.718	0.209	-0.137
-557.471	-26.026	-0.127	0.075
-556.456	-17.182	0.017	-0.011
-555.442	408.210	-0.126	0.266
-554.427	-94.450	0.118	0.032
-553.412	-125.237	0.341	-0.052
-552.398	-68.575	0.075	0.029
-551.383	181.184	0.071	0.104
-550.369	-200.000	0.017	0.074
-549.354	-200.000	0.066	0.362
-548.339	113.810	0.101	-0.123
-547.325	325.975	-0.042	-0.081
-546.310	521.325	0.115	0.270
-545.296	55.222	-0.256	-0.248
-544.281	-17.092	0.272	-0.172
-543.266	434.619	0.031	-0.067
-542.252	-127.944	0.102	0.015
-541.237	-68.383	0.277	0.108
-540.223	-200.000	-0.013	0.162
-539.208	228.579	0.041	0.067
-538.193	776.203	0.095	0.261
-537.179	-104.345	0.075	0.017
-536.164	400.106	-0.121	0.253
-535.150	-64.722	0.247	-0.100
-534.135	720.547	0.189	0.502
-533.121	-97.872	0.208	-0.054
-532.106	-54.718	0.243	-0.110
-531.091	-200.000	-0.005	-0.096
-530.077	800.000	0.032	0.117
-529.062	-88.298	0.131	-0.039
-528.048	-182.439	0.112	0.002
-527.033	-200.000	-0.037	-0.203
-526.018	264.082	-0.048	-0.084
-525.004	-200.000	-0.026	0.205
-523.989	800.000	0.039	-0.121
-522.975	123.715	-0.145	0.182
-521.960	-68.702	-0.096	0.037
-520.945	-19.365	-0.242	0.150
-519.931	113.056	-0.142	0.172
-518.916	-100.038	-0.114	0.028
-517.902	197.946	0.119	-0.182
-516.887	-200.000	-0.031	-0.192
-515.872	800.000	-0.045	0.172
-514.858	6.404	-0.202	0.150
-513.843	-93.841	-0.329	-0.091
-512.829	419.740	0.148	0.317
-511.814	92.384	0.217	0.244
-510.799	-200.000	0.004	-0.086
-509.785	222.545	-0.155	-0.249
-508.770	800.000	-0.080	-0.337
-507.756	532.452	0.150	-0.355
-506.741	1.740	-0.058	0.042
-505.726	308.533	0.146	0.271
-504.712	-13.631	0.167	-0.108
-503.697	-29.392	0.157	0.090
-502.683	-43.987	0.243	-0.122
-501.668	800.000	-0.110	-0.354
-500.653	313.104	0.155	-0.291
-499.639	24.869	0.012	-0.010
-498.624	800.000	0.187	0.518
-497.610	6.217	-0.550	-0.408
-496.595	-71.199	0.222	-0.083
-495.581	-200.000	0.045	-0.394
-494.566	800.000	-0.070	-0.246
-493.551	485.571	-0.134	-0.304
-492.537	13.973	0.094	-0.073
-491.522	-99.181	-0.214	-0.054
-490.508	-200.000	0.076	-0.580
-489.493	121.801	-0.110	0.138
-488.478	-7.065	0.015	0.010
-487.464	-41.998	-0.207	0.106
-486.449	285.454	0.078	0.141
-485.435	7.105	-0.218	0.162
-484.420	84.338	0.252	0.276
-483.405	-51.114	0.526	0.246
-482.391	-23.956	-0.080	-0.048
-481.376	-102.538	0.046	0.011
-480.362	150.909	-0.116	-0.157
-479.347	-40.222	-0.122	-0.063
-478.332	67.798	-0.308	-0.314
-477.318	681.786	0.126	-0.327
-476.303	54.568	-0.246	0.236
-475.289	-7.362	-0.300	0.202
-474.274	-194.607	-0.140	-0.001
-473.259	87.177	0.173	-0.191
-472.245	80.303	0.291	0.312
-471.230	37.516	0.227	0.201
-470.216	-9.704	0.066	0.044
-469.201	93.303	-0.244	0.276
-468.186	153.596	-0.196	0.268
-467.172	-200.000	0.020	-0.447
-466.157	-26.804	0.362	-0.211
-465.143	125.720	0.071	-0.089
-464.128	-200.000	-0.049	-0.283
-463.113	-60.089	0.202	-0.086
-462.099	-200.000	-0.001	0.159
-461.084	800.000	0.075	0.262
-460.070	-100.777	0.340	-0.083
-459.055	156.320	-0.116	-0.159
-458.040	-114.357	0.248	-0.048
-457.026	-83.672	0.292	0.093
-456.011	-5.019	-0.206	0.141
-454.997	42.089	0.151	0.137
-453.982	800.000	-0.144	0.582
-452.968	120.279	0.036	0.044
-451.953	-200.000	-0.057	-0.397
-450.938	-28.611	0.216	-0.124
-449.924	-91.398	-0.172	-0.049
-448.909	-200.000	0.056	0.266
-447.895	236.835	-0.143	-0.236
-446.880	-200.000	-0.044	0.350
-445.865	-158.956	-0.259	0.015
-444.851	-200.000	0.061	0.301
-443.836	-64.124	-0.044	-0.018
-442.822	-200.000	0.001	-0.202
-441.807	-90.416	-0.283	-0.082
-440.792	-30.865	-0.294	0.166
-439.778	313.973	-0.036	0.067
-438.763	-200.000	-0.005	0.299
-437.749	171.066	0.239	0.341
-436.734	741.029	-0.127	-0.341
-435.719	-200.000	-0.058	-0.442
-434.705	171.786	-0.126	-0.180
-433.690	15.407	-0.226	-0.176
-432.676	-200.000	0.012	0.068
-431.661	123.602	-0.206	0.257
-430.646	-6.951	-0.147	-0.099
-429.632	-196.079	0.201	-0.001
-428.617	214.890	0.124	-0.196
-427.603	-153.937	0.189	-0.013
-426.588	243.236	0.119	0.198
-425.573	17.196	0.241	-0.190
-424.559	269.985	-0.080	0.139
-423.544	800.000	-0.089	-0.255
-422.530	800.000	-0.083	-0.299
-421.515	154.162	-0.180	-0.246
-420.500	13.187	0.239	0.185
-419.486	206.536	0.298	-0.462
-418.471	-7.871	-0.183	-0.123
-417.457	32.781	0.032	0.027
-416.442	-139.588	-0.440	0.047
-415.428	-8.316	-0.228	0.153
-414.413	-151.449	0.266	-0.020
-413.398	-43.715	0.328	0.164
-412.384	800.000	-0.057	-0.189
-411.369	-147.621	-0.274	-0.023
-410.355	-79.364	-0.181	-0.061
-409.340	36.212	-0.111	0.098
-408.325	-61.685	-0.232	-0.097
-407.311	20.612	-0.041	-0.033
-406.296	-200.000	0.044	-0.269
-405.282	-125.382	0.193	-0.029
-404.267	-31.204	0.441	-0.248
-403.252	-200.000	-0.029	0.127
-402.238	15.152	0.335	-0.262
-401.223	-60.832	0.337	-0.142
-400.209	-200.000	0.026	0.214
-399.194	-200.000	0.033	0.204
-398.179	800.000	0.094	0.269
-397.165	270.761	-0.152	-0.266
-396.150	0.052	-0.075	-0.053
-395.136	389.810	-0.041	-0.084
-394.121	51.859	-0.174	-0.164
-393.106	-200.000	-0.013	-0.079
-392.092	673.614	0.089	-0.229
-391.077	-28.501	-0.277	-0.159
-390.063	-200.000	0.112	0.518
-389.048	-200.000	0.073	0.525
-388.033	769.544	0.075	0.204
-387.019	-200.000	0.005	0.163
-386.004	113.078	-0.130	0.157
-384.990	168.855	-0.048	0.068
-383.975	476.384	-0.197	0.442
-382.960	356.919	-0.049	0.097
-381.946	-153.282	-0.193	-0.013
-380.931	-9.829	-0.078	0.051
-379.917	-200.000	-0.015	0.100
-378.902	800.000	0.025	-0.108
-377.888	144.499	-0.189	-0.251
-376.873	29.765	0.099	0.084
-375.858	273.344	0.143	0.252
-374.844	-39.329	0.127	0.066
-373.829	800.000	-0.096	-0.377
-372.815	-45.135	0.264	0.131
-371.800	-200.000	0.007	0.044
-370.785	143.070	-0.156	-0.206
-369.771	16.340	0.069	0.054
-368.756	800.000	-0.041	0.179
-367.742	-113.255	-0.126	0.025
-366.727	-87.968	-0.052	-0.016
-365.712	153.344	0.122	-0.166
-364.698	-106.586	0.290	0.064
-363.683	-200.000	-0.041	0.241
-362.669	272.571	-0.022	0.038
-361.654	-131.479	0.515	-0.067
-360.639	-72.555	0.122	0.045
-359.625	-22.626	-0.242	0.145
-358.610	65.011	-0.169	-0.170
-357.596	72.921	-0.050	-0.052
-356.581	73.156	0.156	0.162
-355.566	800.000	0.067	0.277
-354.552	-15.868	0.114	0.072
-353.537	654.739	0.145	0.369
-352.523	18.647	-0.164	-0.130
-351.508	601.392	-0.052	-0.128
-350.493	359.128	0.096	0.191
-349.479	-200.000	-0.011	0.140
-348.464	-61.013	0.145	-0.061
-347.450	-144.870	0.209	0.019
-346.435	48.378	0.478	-0.444
-345.420	21.591	-0.190	-0.154
-344.406	-59.754	0.278	-0.118
-343.391	-200.000	0.001	0.105
-342.377	274.458	0.171	-0.301
-341.362	743.304	-0.050	-0.132
-340.348	43.627	-0.010	-0.009
-339.333	-27.315	0.249	0.144
-338.318	-15.365	0.135	-0.086
-337.304	-113.296	-0.227	-0.044
-336.289	96.606	-0.203	0.230
-335.275	74.564	-0.071	-0.074
-334.260	233.275	-0.152	-0.248
-333.245	20.250	-0.154	0.123
-332.231	23.723	-0.095	-0.078
-331.216	723.600	-0.060	-0.160
-330.202	149.208	0.116	0.156
-329.187	-200.000	-0.016	-0.099
-328.172	43.797	0.153	0.139
-327.158	27.680	-0.088	0.074
-326.143	14.374	0.114	-0.088
-325.129	-200.000	-0.042	-0.210
-324.114	-200.000	0.010	0.115
-323.099	-137.757	0.217	0.024
-322.085	629.835	-0.100	0.250
-321.070	-42.836	0.270	0.136
-320.056	50.025	-0.151	-0.142
-319.041	-84.929	0.273	-0.085
-318.026	800.000	-0.059	-0.162
-317.012	-102.271	0.156	-0.037
-315.997	-140.934	0.195	0.020
-314.983	-25.216	-0.132	0.078
-313.968	-18.380	-0.349	-0.216
-312.953	158.806	0.128	0.176
-311.939	61.234	-0.327	0.322
-310.924	-93.440	0.317	0.087
-309.910	635.573	0.130	0.328
-308.895	129.691	0.099	0.125
-307.880	-135.426	0.233	-0.028
-306.866	-30.649	0.201	-0.113
-305.851	257.632	0.065	0.111
-304.837	-162.649	-0.196	-0.010
-303.822	-105.595	-0.029	-0.007
-302.807	-55.068	-0.322	0.144
-301.793	5.976	-0.104	0.076
-300.778	15.044	-0.098	0.076
-299.764	-90.492	-0.091	0.026
-298.749	742.744	0.083	-0.222
-297.735	-36.068	-0.211	0.113
-296.720	-200.000	-0.015	-0.076
-295.705	-200.000	-0.012	-0.163
-294.691	-143.102	0.362	0.035
-293.676	-200.000	-0.107	0.511
-292.662	156.434	0.124	0.170
-291.647	392.891	0.027	0.056
-290.632	-6.267	-0.107	-0.072
-289.618	-200.000	0.037	-0.571
-288.603	9.496	-0.109	0.081
-287.589	800.000	0.063	-0.242
-286.574	-108.580	0.076	0.016
-285.559	762.383	-0.064	0.171
-284.545	-88.471	-0.213	0.063
-283.530	-136.001	0.101	-0.012
-282.516	203.641	-0.279	0.428
-281.501	556.192	0.110	-0.261
-280.486	-133.857	0.318	0.039
-279.472	240.395	0.042	0.069
-278.457	-175.978	-0.146	0.004
-277.443	40.512	-0.197	0.175
-276.428	198.494	0.159	-0.242
-275.413	702.946	-0.144	0.376
-274.399	-106.164	-0.143	0.032
-273.384	201.107	-0.050	0.076
-272.370	-53.324	-0.114	0.052
-271.355	-200.000	-0.007	0.031
-270.340	-154.118	-0.020	-0.001
-269.326	-200.000	0.027	0.273
-268.311	30.128	-0.175	0.148
-267.297	191.910	0.200	-0.298
-266.282	297.465	-0.061	0.111
-265.267	-46.421	0.161	-0.078
-264.253	171.035	-0.216	-0.306
-263.238	754.788	0.044	0.117
-262.224	-6.558	0.037	0.025
-261.209	49.122	0.185	0.172
-260.195	60.438	-0.097	-0.095
-259.180	-83.301	-0.324	0.103
-258.165	-200.000	-0.025	-0.398
-257.151	186.025	-0.067	0.099
-256.136	187.203	-0.136	0.201
-255.122	152.326	0.140	0.189
-254.107	-200.000	0.023	0.101
-253.092	-200.000	-0.017	0.224
-252.078	27.955	-0.170	-0.142
-251.063	-200.000	0.065	0.330
-250.049	-134.038	0.112	0.014
-249.034	-146.950	-0.134	-0.011
-248.019	-41.585	0.117	0.060
-247.005	250.174	0.150	0.251
-245.990	209.404	0.101	0.156
-244.976	-163.243	-0.387	0.018
-243.961	50.066	0.214	-0.200
-242.946	186.461	-0.285	-0.419
-241.932	-145.439	-0.113	0.010
-240.917	-200.000	-0.036	-0.288
-239.903	-191.014	-0.171	0.002
-238.888	746.786	-0.076	-0.203
-237.873	497.016	0.080	-0.183
-236.859	-78.429	-0.206	-0.070
-235.844	-200.000	-0.061	-0.274
-234.830	105.711	0.217	-0.253
-233.815	66.705	-0.245	0.247
-232.800	-200.000	0.041	-0.389
-231.786	-106.648	0.160	-0.035
-230.771	255.101	-0.023	0.038
-229.757	231.128	-0.051	0.083
-228.742	-186.856	-0.276	0.004
-227.727	289.852	-0.317	0.568
-226.713	-47.618	0.245	0.117
-225.698	-169.620	-0.158	-0.006
-224.684	-60.784	-0.256	-0.107
-223.669	-79.456	-0.145	0.048
-222.655	-180.557	0.114	0.002
-221.640	800.000	-0.066	0.212
-220.625	-200.000	-0.028	0.319
-219.611	-85.411	0.156	0.048
-218.596	186.007	-0.069	0.102
-217.582	-166.410	0.384	-0.016
-216.567	-7.276	-0.307	0.205
-215.552	4.285	0.219	-0.158
-214.538	222.957	-0.131	-0.209
-213.523	5.635	0.149	-0.108
-212.509	-200.000	0.024	0.270
-211.494	800.000	0.069	-0.223
-210.479	-157.756	0.262	-0.015
-209.465	-27.623	-0.175	0.101
-208.450	800.000	-0.075	-0.298
-207.436	-118.458	0.306	0.053
-206.421	800.000	0.037	-0.151
-205.406	-200.000	-0.043	0.250
-204.392	-200.000	0.011	0.062
-203.377	124.663	-0.089	-0.111
-202.363	-137.952	-0.047	0.005
-201.348	-105.765	-0.381	0.085
-200.333	-200.000	0.099	0.519
-199.319	70.448	-0.107	-0.109
-198.304	768.672	0.099	-0.265
-197.290	-51.301	0.166	-0.077
-196.275	-52.480	0.184	0.084
-195.260	204.969	0.101	0.155
-194.246	79.177	0.268	0.283
-193.231	-62.164	0.147	0.060
-192.217	19.999	0.339	-0.269
-191.202	154.122	0.090	0.121
-190.187	-26.672	-0.082	-0.047
-189.173	285.682	0.190	0.337
-188.158	285.536	0.074	-0.132
-187.144	-90.431	0.154	0.044
-186.129	-135.516	0.256	0.030
-185.114	-80.180	-0.330	-0.109
-184.100	65.329	0.178	0.177
-183.085	800.000	0.044	-0.139
-182.071	274.678	-0.051	0.089
-181.056	10.359	0.178	0.134
-180.042	261.644	-0.154	0.263
-179.027	-200.000	-0.051	-0.366
-178.012	800.000	0.064	-0.235
-176.998	-83.399	0.207	-0.066
-175.983	-98.489	-0.212	0.053
-174.969	-200.000	-0.002	-0.312
-173.954	17.271	-0.368	0.288
-172.939	-200.000	0.019	0.100
-171.925	-200.000	-0.035	0.186
-170.910	-165.250	0.198	0.009
-169.896	-200.000	0.034	-0.251
-168.881	-127.751	-0.096	-0.014
-167.866	455.764	-0.032	-0.069
-166.852	800.000	0.030	-0.105
-165.837	-200.000	-0.128	0.713
-164.823	-200.000	0.029	-0.271
-163.808	128.815	-0.055	-0.069
-162.793	-17.594	-0.272	0.168
-161.779	-87.516	0.155	-0.046
-160.764	506.271	-0.120	-0.274
-159.750	-85.818	-0.423	0.129
-158.735	-200.000	0.022	-0.147
-157.720	139.398	-0.223	0.289
-156.706	800.000	-0.061	0.222
-155.691	800.000	-0.104	-0.409
-154.677	62.296	-0.078	0.077
-153.662	771.488	-0.056	0.151
-152.647	-57.882	-0.121	-0.052
-151.633	256.512	-0.126	-0.214
-150.618	-200.000	0.038	-0.345
-149.604	-200.000	-0.036	0.181
-148.589	-200.000	0.027	0.199
-147.574	557.145	0.027	0.063
-146.560	61.270	-0.282	-0.276
-145.545	-200.000	-0.031	-0.269
-144.531	-162.611	0.157	-0.008
-143.516	-200.000	-0.014	0.221
-142.502	229.753	-0.133	0.215
-141.487	15.999	-0.129	-0.100
-140.472	-142.558	0.246	0.024
-139.458	-51.025	0.434	-0.201
-138.443	800.000	0.064	0.214
-137.429	-200.000	0.010	0.187
-136.414	-23.893	0.099	-0.058
-135.399	348.135	0.088	0.171
-134.385	-84.244	0.245	-0.077
-133.370	-200.000	-0.015	-0.404
-132.356	-18.676	0.021	0.013
-131.341	-0.390	-0.050	-0.035
-130.326	-200.000	-0.003	-0.233
-129.312	474.103	-0.042	0.093
-128.297	-146.671	-0.150	0.013
-127.283	44.120	0.110	-0.099
-126.268	-61.328	0.166	0.069
-125.253	-36.509	0.192	-0.102
-124.239	-151.823	0.346	-0.025
-123.224	233.362	0.150	-0.243
-122.210	382.522	-0.070	0.142
-121.195	-66.593	-0.132	-0.051
-120.180	-72.557	-0.268	-0.097
-119.166	-152.833	0.340	-0.024
-118.151	798.161	-0.055	0.150
-117.137	-104.539	-0.321	-0.073
-116.122	-80.060	0.147	0.048
-115.107	-69.283	-0.133	-0.050
-114.093	-200.000	0.052	-0.307
-113.078	-76.769	0.308	-0.106
-112.064	-200.000	0.020	-0.397
-111.049	56.908	0.221	-0.211
-110.034	282.638	0.100	-0.177
-109.020	-36.872	0.287	0.151
-108.005	12.566	0.318	0.242
-106.991	-200.000	0.038	0.306
-105.976	517.024	0.081	0.186
-104.962	-105.935	0.144	0.032
-103.947	470.174	0.072	0.159
-102.932	36.785	-0.114	-0.099
-101.918	337.945	-0.039	0.075
-100.903	60.363	-0.420	0.409
-99.889	407.860	-0.043	0.089
-98.874	800.000	0.066	0.265
-97.859	66.034	0.136	-0.135
-96.845	-200.000	-0.005	0.060
-95.830	-4.601	0.125	0.085
-94.816	-130.909	-0.509	0.067
-93.801	7.984	0.186	-0.137
-92.786	-185.931	0.230	0.003
-91.772	1.258	-0.265	0.187
-90.757	-84.780	0.275	0.085
-89.743	52.224	-0.136	0.128
-88.728	209.903	0.194	0.299
-87.713	-200.000	-0.010	-0.115
-86.699	800.000	-0.121	-0.396
-85.684	-200.000	-0.006	-0.357
-84.670	-39.767	0.167	-0.086
-83.655	3.284	0.222	0.159
-82.640	42.494	-0.124	-0.110
-81.626	-21.930	-0.089	0.053
-80.611	48.970	-0.133	-0.122
-79.597	171.756	0.061	0.086
-78.582	-200.000	-0.019	0.197
-77.567	181.233	0.185	0.267
-76.553	-57.973	0.016	0.007
-75.538	-51.936	0.253	-0.115
-74.524	-102.282	-0.138	0.032
-73.509	-191.102	-0.129	0.001
-72.494	-200.000	0.057	-0.271
-71.480	800.000	0.052	-0.142
-70.465	-39.439	0.263	-0.136
-69.451	-200.000	0.024	0.338
-68.436	-34.979	0.158	0.085
-67.422	34.413	0.148	0.127
-66.407	-32.222	0.166	-0.091
-65.392	-77.653	-0.256	-0.087
-64.378	800.000	-0.083	-0.259
-63.363	-66.365	0.268	0.105
-62.349	53.622	-0.358	0.337
-61.334	72.765	-0.832	-0.852
-60.319	-40.023	0.554	0.284
-59.305	-200.000	-0.129	-0.892
-58.290	206.362	0.712	1.089
-57.276	800.000	0.488	1.485
-56.261	-200.000	108.889	584.660
-55.246	428.728	1506.715	3195.321
-54.232	143.483	2692.570	3519.000
-53.217	103.452	2171.665	2500.616
-52.203	40.012	1614.190	1423.204
-51.188	31.942	1354.113	1144.851
-50.173	29.048	1314.013	1093.736
-49.159	52.540	1369.445	1283.147
-48.144	52.631	1384.438	1297.699
-47.130	32.127	1339.381	1133.329
-46.115	28.873	1321.120	1098.427
-45.100	28.647	1316.355	1093.078
-44.086	28.437	1314.249	1090.036
-43.071	28.468	1312.085	1088.382
-42.057	28.540	1309.374	1086.518
-41.042	28.476	1308.143	1085.076
-40.027	28.469	1306.347	1083.502
-39.013	28.515	1304.491	1082.187
-37.998	28.471	1302.453	1080.195
-36.984	28.526	1301.138	1079.389
-35.969	28.629	1298.941	1078.125
-34.954	28.765	1296.938	1077.222
-33.940	28.651	1295.857	1075.609
-32.925	28.725	1294.833	1075.150
-31.911	28.698	1293.542	1073.881
-30.896	28.651	1292.279	1072.511
-29.881	28.710	1290.913	1071.678
-28.867	28.771	1288.994	1070.402
-27.852	28.768	1287.140	1068.802
-26.838	28.757	1285.860	1067.633
-25.823	28.770	1284.882	1066.851
-24.809	28.639	1283.650	1065.029
-23.794	28.631	1282.130	1063.679
-22.779	28.693	1281.031	1063.081
-21.765	28.718	1279.406	1061.839
-20.750	28.724	1278.123	1060.763
-19.736	28.704	1276.724	1059.446
-18.721	28.698	1275.631	1058.464
-17.706	28.532	1275.141	1057.058
-16.692	28.695	1273.209	1056.351
-15.677	28.572	1272.556	1055.060
-14.663	28.574	1271.050	1053.782
-13.648	28.517	1270.022	1052.562
-12.633	28.499	1269.424	1051.922
-11.619	28.568	1268.735	1051.701
-10.604	28.524	1267.798	1050.631
-9.590	28.484	1267.037	1049.732
-8.575	28.542	1265.848	1049.036
-7.560	28.557	1264.837	1048.245
-6.546	28.587	1264.038	1047.710
-5.531	28.620	1263.226	1047.185
-4.517	28.587	1262.132	1046.047
-3.502	28.609	1261.623	1045.709
-2.487	28.709	1260.472	1045.284
-1.473	28.636	1256.523	1041.553
-0.458	27.424	1241.519	1022.273
0.556	23.114	1225.793	988.971
1.571	19.695	1233.151	975.555
2.586	19.059	1248.043	983.610
3.600	18.977	1237.208	974.523
4.615	17.111	1170.533	911.907
5.629	13.563	1103.467	841.588
6.644	11.954	1086.245	820.330
7.659	11.797	1084.120	817.868
8.673	11.725	1082.899	816.516
9.688	11.685	1081.199	814.962
10.702	11.967	1079.423	814.955
11.717	13.996	1081.668	826.683
12.731	17.073	1085.660	845.000
13.746	18.179	1086.161	850.818
14.761	17.667	1085.219	847.462
15.775	16.497	1083.449	840.195
16.790	15.504	1081.128	833.396
17.804	14.905	1079.051	828.752
18.819	14.439	1077.920	825.502
19.834	14.188	1077.122	823.575
20.848	13.972	1075.780	821.410
21.863	13.646	1075.515	819.520
22.877	13.627	1074.353	818.467
23.892	13.490	1074.017	817.463
24.907	13.484	1073.439	816.923
25.921	13.441	1072.267	815.747
26.936	13.624	1070.549	815.270
27.950	13.579	1069.578	814.236
28.965	13.704	1067.861	813.468
29.980	13.784	1066.316	812.611
30.994	13.938	1064.881	812.201
32.009	13.758	1064.458	810.924
33.023	13.815	1063.302	810.253
34.038	13.780	1061.733	808.816
35.053	13.728	1061.053	807.972
36.067	13.774	1060.128	807.421
37.082	13.602	1059.620	806.124
38.096	13.794	1058.848	806.398
39.111	13.854	1057.497	805.588
40.126	13.684	1056.695	804.084
41.140	13.483	1055.679	802.265
42.155	13.348	1054.598	800.719
43.169	13.495	1053.291	800.368
44.184	13.435	1052.269	799.231
45.199	13.554	1050.997	798.768
46.213	13.458	1050.044	797.507
47.228	13.570	1049.002	797.188
48.242	13.608	1048.027	796.559
49.257	13.601	1046.845	795.553
50.271	13.718	1045.859	795.295
51.286	13.660	1045.218	794.459
52.301	13.799	1044.050	794.167
53.315	13.594	1043.108	792.401
54.330	13.581	1042.040	791.458
55.344	13.584	1040.957	790.577
56.359	13.515	1040.082	789.518
57.374	13.597	1038.858	788.905
58.388	13.451	1038.225	787.661
59.403	13.468	1037.777	787.336
60.417	13.456	1036.853	786.505
61.432	13.413	1035.959	785.556
62.447	13.326	1035.227	784.518
63.461	13.380	1034.356	784.043
64.476	13.377	1033.517	783.324
65.490	13.378	1032.909	782.796
66.505	13.353	1032.502	782.304
67.520	13.528	1031.242	782.106
68.534	13.657	1030.096	781.777
69.549	13.479	1029.981	780.779
70.563	13.529	1028.976	780.183
71.578	13.493	1027.987	779.195
72.593	13.256	1027.991	778.012
73.607	13.228	1026.970	777.039
74.622	13.345	1026.292	777.007
75.636	13.463	1025.401	776.820
76.651	13.287	1025.011	775.632
77.666	13.335	1024.144	775.130
78.680	13.291	1023.824	774.612
79.695	13.291	1022.968	773.897
80.709	13.518	1021.991	774.151
81.724	13.552	1021.608	773.952
82.739	13.515	1020.940	773.204
83.753	13.540	1020.170	772.668
84.768	13.635	1019.430	772.483
85.782	13.757	1018.248	772.085
86.797	13.695	1017.283	771.000
87.812	13.674	1016.027	769.881
88.826	13.688	1015.305	769.331
89.841	13.707	1014.213	768.520
90.855	13.595	1013.762	767.595
91.870	13.666	1012.612	766.984
92.884	13.558	1012.233	766.129
93.899	13.801	1010.763	766.070
94.914	13.826	1010.115	765.627
95.928	13.730	1009.212	764.431
96.943	13.762	1008.020	763.609
97.957	13.739	1007.603	763.122
98.972	13.729	1006.587	762.237
99.987	13.729	1005.886	761.641
101.001	13.723	1004.674	760.624
102.016	13.622	1004.204	759.739
103.030	13.789	1003.031	759.552
104.045	13.674	1002.342	758.436
105.060	13.703	1001.409	757.795
106.074	13.582	1000.633	756.587
107.089	13.496	999.684	755.410
108.103	13.517	998.661	754.667
109.118	13.409	997.708	753.386
110.133	13.485	996.455	752.721
111.147	13.533	995.971	752.505
112.162	13.581	995.087	751.990
113.176	13.589	994.073	751.195
114.191	13.601	993.565	750.798
115.206	13.606	993.058	750.371
116.220	13.588	991.630	749.143
117.235	13.569	990.918	748.456
118.249	13.586	989.872	747.677
119.264	13.555	988.915	746.748
120.279	13.480	988.577	746.087
121.293	13.532	987.597	745.516
122.308	13.516	986.887	744.840
123.322	13.511	985.722	743.873
124.337	13.400	984.720	742.554
125.352	13.574	983.284	742.185
126.366	13.507	982.753	741.418
127.381	13.559	981.854	740.906
128.395	13.580	980.422	739.854
129.410	13.575	979.889	739.363
130.424	13.599	978.895	738.656
131.439	13.532	978.661	738.117
132.454	13.646	977.583	737.747
133.468	13.711	976.419	737.092
134.483	13.691	975.698	736.393
135.497	13.666	974.709	735.467
136.512	13.730	973.864	735.050
137.527	13.798	972.732	734.433
138.541	13.522	972.546	733.004
139.556	13.749	971.330	733.027
140.570	13.712	971.106	732.628
141.585	13.883	969.775	732.317
142.600	13.842	969.228	731.657
143.614	13.770	968.525	730.743
144.629	13.865	967.717	730.486
145.643	13.742	966.424	728.908
146.658	13.669	965.717	727.988
147.673	13.702	964.610	727.234
148.687	13.615	963.929	726.274
149.702	13.776	962.719	726.005
150.716	13.785	962.267	725.639
151.731	13.822	961.721	725.323
152.746	13.739	960.869	724.257
153.760	13.780	960.533	724.117
154.775	13.887	959.716	723.903
155.789	13.766	959.333	723.021
156.804	13.901	957.966	722.515
157.819	13.966	957.427	722.328
158.833	13.995	956.860	721.960
159.848	14.056	955.898	721.436
160.862	13.945	955.192	720.359
161.877	13.874	954.400	719.392
162.892	13.869	953.028	718.273
163.906	13.802	952.251	717.333
164.921	13.963	951.233	717.199
165.935	13.908	950.638	716.450
166.950	13.880	949.621	715.498
167.964	13.808	949.038	714.684
168.979	13.802	948.224	713.983
169.994	13.889	947.171	713.502
171.008	13.946	946.506	713.182
172.023	13.968	946.017	712.844
173.037	13.989	944.941	712.059
174.052	14.071	944.296	711.862
175.067	13.979	943.716	710.968
176.081	13.816	943.588	710.112
177.096	13.872	942.729	709.641
178.110	14.009	942.049	709.654
179.125	14.051	941.053	709.019
180.140	13.922	940.964	708.338
181.154	14.061	940.293	708.361
182.169	14.175	939.606	708.268
183.183	14.130	939.371	707.837
184.198	14.185	938.377	707.259
185.213	14.200	937.719	706.766
186.227	14.202	936.801	706.019
187.242	14.148	936.471	705.478
188.256	14.198	935.803	705.124
189.271	14.196	935.149	704.561
190.286	14.135	934.040	703.405
191.300	13.882	933.759	702.061
192.315	13.914	933.124	701.657
193.329	13.985	932.368	701.324
194.344	13.997	931.935	700.989
195.359	14.011	931.013	700.291
196.373	14.132	930.786	700.569
197.388	14.077	930.468	700.037
198.402	14.427	929.397	700.640
199.417	14.390	928.992	700.116
200.432	14.460	928.432	699.929
201.446	14.410	928.005	699.334
202.461	14.615	927.418	699.690
203.475	14.415	927.128	698.570
204.490	14.381	926.263	697.714
205.504	14.317	925.487	696.800
206.519	14.394	925.066	696.744
207.534	14.435	923.981	696.035
208.548	14.490	923.198	695.613
209.563	14.394	922.681	694.761
210.577	14.499	922.313	694.861
211.592	14.536	921.332	694.216
212.607	14.560	920.637	693.730
213.621	14.548	920.022	693.157
214.636	14.658	918.803	692.630
215.650	14.794	918.116	692.618
216.665	14.606	917.885	691.602
217.680	14.794	916.918	691.591
218.694	14.709	916.441	690.817
219.709	14.702	915.921	690.337
220.723	14.628	915.017	689.287
221.738	14.673	914.449	688.985
222.753	14.630	914.422	688.728
223.767	14.635	913.417	687.928
224.782	14.726	913.049	687.965
225.796	14.904	912.367	688.122
226.811	14.788	911.442	686.886
227.826	14.832	910.616	686.384
228.840	14.739	909.952	685.444
229.855	14.724	908.940	684.558
230.869	14.680	908.682	684.121
231.884	14.677	907.818	683.399
232.899	14.818	907.153	683.413
233.913	14.715	906.497	682.438
234.928	14.561	905.845	681.261
235.942	14.760	904.897	681.296
236.957	14.751	904.530	680.924
237.972	14.848	904.246	681.044
238.986	14.716	903.660	680.006
240.001	14.764	903.088	679.711
241.015	14.683	902.151	678.619
242.030	14.804	901.654	678.672
243.045	14.757	901.422	678.250
244.059	14.735	900.787	677.622
245.074	14.881	899.821	677.425
246.088	14.902	899.305	677.065
247.103	14.810	898.943	676.357
248.117	14.898	898.433	676.269
249.132	14.976	897.765	676.022
250.147	15.198	896.728	676.081
251.161	15.219	896.188	675.698
252.176	15.235	895.458	675.151
253.190	15.281	895.090	674.999
254.205	15.316	894.144	674.365
255.220	15.288	893.823	673.953
256.234	15.276	893.485	673.589
257.249	15.213	892.750	672.721
258.263	15.248	891.769	672.064
259.278	15.293	890.865	671.504
260.293	15.327	890.828	671.552
261.307	15.488	889.729	671.308
262.322	15.455	889.048	670.602
263.336	15.316	888.371	669.477
264.351	15.481	887.594	669.491
265.366	15.513	887.051	669.152
266.380	15.536	886.373	668.671
267.395	15.523	885.661	668.023
268.409	15.487	884.896	667.246
269.424	15.363	884.238	666.197
270.439	15.407	883.607	665.837
271.453	15.582	882.905	665.941
272.468	15.348	882.425	664.596
273.482	15.359	882.338	664.515
274.497	15.367	881.561	663.903
275.512	15.534	880.298	663.553
276.526	15.592	880.059	663.542
277.541	15.586	879.516	663.050
278.555	15.765	878.850	663.194
279.570	15.670	878.763	662.697
280.585	15.683	877.513	661.746
281.599	15.690	876.492	660.944
282.614	15.714	875.985	660.599
283.628	15.671	875.496	660.003
284.643	15.600	875.185	659.429
285.657	15.612	874.441	658.860
286.672	15.816	873.499	658.890
287.687	15.715	873.399	658.360
288.701	15.733	872.513	657.704
289.716	15.723	871.911	657.156
290.730	15.907	871.185	657.266
291.745	15.880	870.579	656.645
292.760	15.849	870.402	656.333
293.774	15.971	869.229	655.866
294.789	15.964	868.429	655.177
295.803	15.846	868.178	654.472
296.818	15.958	867.277	654.171
297.833	15.814	866.917	653.280
298.847	15.952	866.241	653.247
299.862	15.893	865.693	652.550
300.876	15.916	865.371	652.337
301.891	15.976	864.308	651.712
302.906	15.958	864.297	651.576
303.920	16.003	863.891	651.385
304.935	16.239	863.031	651.591
305.949	16.117	862.215	650.445
306.964	16.119	861.422	649.797
307.979	16.187	861.341	649.943
308.993	16.224	860.327	649.262
310.008	16.202	859.918	648.812
311.022	16.070	859.426	647.874
312.037	16.158	858.648	647.568
313.052	16.120	858.107	646.958
314.066	15.961	857.959	646.179
315.081	15.834	857.514	645.300
316.095	16.072	856.187	645.155
317.110	15.970	855.811	644.426
318.125	16.005	855.138	643.994
319.139	16.193	854.639	644.279
320.154	16.119	854.513	643.845
321.168	16.210	853.869	643.652
322.183	16.199	853.424	643.215
323.197	16.125	853.003	642.557
324.212	16.167	852.630	642.383
325.227	16.245	851.787	641.986
326.241	16.177	851.317	641.316
327.256	16.207	850.598	640.834
328.270	16.171	849.654	639.927
329.285	16.290	848.983	639.819
330.300	16.218	849.023	639.519
331.314	16.166	848.398	638.793
332.329	16.342	847.941	639.058
333.343	16.249	847.585	638.384
334.358	16.373	847.084	638.418
335.373	16.203	846.738	637.459
336.387	16.358	846.534	637.833
337.402	16.417	846.192	637.743
338.416	16.488	845.629	637.529
339.431	16.455	845.188	637.013
340.446	16.546	844.514	636.793
341.460	16.548	844.509	636.740
342.475	16.734	843.748	636.812
343.489	16.542	843.634	635.946
344.504	16.662	843.068	635.916
345.519	16.737	842.465	635.685
346.533	16.625	842.218	635.023
347.548	16.478	841.831	634.120
348.562	16.663	840.927	634.076
349.577	16.591	840.411	633.365
350.592	16.696	839.726	633.183
351.606	16.664	839.216	632.623
352.621	16.548	838.651	631.710
353.635	16.574	837.984	631.248
354.650	16.662	837.054	630.817
355.665	16.775	836.606	630.847
356.679	16.704	835.866	629.967
357.694	16.805	835.326	629.880
358.708	16.676	834.923	629.041
359.723	16.902	833.945	629.087
360.738	16.821	833.323	628.263
361.752	16.696	833.165	627.625
362.767	16.856	832.241	627.467
363.781	16.951	831.695	627.351
364.796	16.968	831.560	627.255
365.810	17.089	831.265	627.424
366.825	17.031	830.662	626.701
367.840	16.950	830.433	626.173
368.854	16.961	829.797	625.680
369.869	17.042	829.488	625.689
370.883	16.981	828.960	625.009
371.898	16.947	828.930	624.806
372.913	17.045	827.912	624.346
373.927	17.128	827.317	624.147
374.942	17.057	827.118	623.680
375.956	17.159	826.795	623.756
376.971	17.151	826.122	623.163
377.986	17.235	825.776	623.154
379.000	17.202	825.774	622.976
380.015	17.356	824.803	622.755
381.029	17.233	824.133	621.744
382.044	17.283	823.651	621.508
383.059	17.197	822.996	620.643
384.073	17.366	822.318	620.693
385.088	17.322	821.791	620.082
386.102	17.208	821.311	619.247
387.117	17.220	820.876	618.908
388.132	17.211	820.201	618.312
389.146	17.140	819.844	617.731
390.161	17.270	819.082	617.576
391.175	17.360	818.694	617.554
392.190	17.464	817.774	617.184
393.205	17.150	817.660	615.903
394.219	17.203	817.572	615.973
395.234	17.257	817.091	615.752
396.248	17.270	816.654	615.418
397.263	17.159	816.104	614.545
398.278	17.388	815.412	614.798
399.292	17.279	815.244	614.224
400.307	17.207	814.737	613.528
401.321	17.468	813.911	613.793
402.336	17.465	813.474	613.398
403.350	17.486	813.393	613.358
404.365	17.373	813.182	612.738
405.380	17.519	812.271	612.524
406.394	17.505	811.586	611.903
407.409	17.542	811.258	611.735
408.423	17.736	810.976	612.164
409.438	17.695	810.860	611.875
410.453	17.652	810.320	611.259
411.467	17.799	809.663	611.235
412.482	17.927	809.407	611.445
413.496	17.787	809.128	610.681
414.511	17.770	808.935	610.418
415.526	17.814	808.435	610.146
416.540	17.772	807.814	609.473
417.555	17.826	807.184	609.137
418.569	17.852	806.867	608.934
419.584	17.825	806.632	608.609
420.599	17.856	806.119	608.278
421.613	110.183	1293.157	1471.229
422.628	95.039	1364.088	1471.328
