DTS Sentinel unit serial number:	SN413079Multiplexer serial number:	ORYXHardware model number:	OX4-SRSoftware version number:	ORYX F/W v4.00 Oryx Data Collector v3.7.2.0data status	okinstallation	princeton_trtdifferential loss correction	single-endedforward channel	channel 1reverse channel	N/Adate	2019/09/12time	03:16:11forward acquisition time	60.00reverse acquisition time	0.00gamma	496.2192k internal	0.2322k external	0.2322temperature offset calibration	1.0083default loss term (dB/km)	0.3790temperature slope calibration	1.0000multiplexer offset coefficient	1.0000multiplexer slope coefficient	1.0000fibre end	0.00T internal ref (°C)	32.25T ext. ref 1 (°C)	2.12T ext. ref 2 (°C)	27.02length (m)	temperature (°C)	Stokes	anti-Stokes-747.200	135.378	0.064	0.084
-746.185	260.095	-0.291	-0.509
-745.171	-200.000	0.007	0.047
-744.156	-200.000	0.007	-0.145
-743.142	800.000	0.074	-0.219
-742.127	-163.940	-0.251	-0.012
-741.112	-200.000	-0.010	-0.194
-740.098	800.000	-0.119	0.379
-739.083	22.202	-0.084	0.070
-738.069	3.849	-0.286	-0.211
-737.054	-200.000	0.052	0.337
-736.039	-56.372	-0.180	0.081
-735.025	94.168	0.094	0.108
-734.010	239.596	-0.168	-0.282
-732.996	244.103	-0.066	0.112
-731.981	800.000	0.033	-0.122
-730.966	8.232	0.046	-0.035
-729.952	800.000	0.069	-0.239
-728.937	626.582	-0.046	0.117
-727.923	157.239	-0.044	0.061
-726.908	-200.000	0.002	-0.187
-725.894	-13.853	-0.090	0.059
-724.879	118.269	-0.091	0.113
-723.864	-171.818	-0.146	0.005
-722.850	175.322	-0.035	-0.051
-721.835	800.000	-0.064	0.199
-720.821	92.513	-0.159	0.181
-719.806	-200.000	0.012	-0.155
-718.791	800.000	0.036	0.153
-717.777	45.349	-0.156	-0.145
-716.762	518.195	0.065	-0.153
-715.748	-135.982	-0.198	-0.024
-714.733	-59.379	0.471	0.204
-713.718	-171.965	-0.193	-0.006
-712.704	800.000	-0.077	-0.214
-711.689	-25.666	0.048	-0.029
-710.675	-82.330	-0.239	-0.078
-709.660	-77.900	-0.221	0.077
-708.645	800.000	0.058	-0.226
-707.631	800.000	0.039	0.158
-706.616	-29.579	-0.077	-0.044
-705.602	-7.309	0.194	-0.133
-704.587	-133.483	0.257	-0.033
-703.572	-62.689	-0.098	0.041
-702.558	800.000	0.044	0.127
-701.543	-150.740	-0.192	0.015
-700.529	-172.694	-0.176	0.006
-699.514	333.499	-0.093	0.182
-698.499	-76.267	0.057	0.020
-697.485	-116.180	-0.402	-0.075
-696.470	-166.170	-0.325	0.014
-695.456	463.854	-0.063	0.142
-694.441	88.722	-0.135	-0.151
-693.426	203.539	-0.032	0.051
-692.412	-200.000	-0.020	0.144
-691.397	-200.000	0.001	-0.179
-690.383	-19.050	-0.106	0.067
-689.368	800.000	0.016	0.062
-688.354	-23.710	-0.251	0.152
-687.339	74.784	0.084	-0.089
-686.324	-50.364	-0.266	0.127
-685.310	-19.049	0.159	-0.100
-684.295	800.000	0.037	-0.109
-683.281	-200.000	0.008	-0.279
-682.266	-200.000	0.011	-0.262
-681.251	15.536	-0.119	0.094
-680.237	202.896	0.123	0.191
-679.222	800.000	-0.044	-0.143
-678.208	140.310	0.259	-0.345
-677.193	77.027	0.205	-0.220
-676.178	187.712	0.214	-0.323
-675.164	-134.721	0.115	-0.014
-674.149	15.314	-0.307	0.243
-673.135	391.103	-0.107	0.223
-672.120	800.000	-0.012	-0.043
-671.105	-141.164	-0.100	-0.010
-670.091	-78.030	-0.232	0.081
-669.076	-200.000	0.005	-0.152
-668.062	495.109	-0.057	-0.133
-667.047	-200.000	-0.015	0.192
-666.032	258.665	-0.144	0.251
-665.018	157.869	-0.149	0.208
-664.003	-200.000	0.013	-0.092
-662.989	214.813	-0.131	0.208
-661.974	31.169	-0.376	-0.325
-660.959	-107.294	0.135	-0.030
-659.945	-200.000	0.032	-0.360
-658.930	-149.926	0.250	0.020
-657.916	54.310	0.045	0.044
-656.901	800.000	0.066	0.194
-655.886	-200.000	0.020	0.240
-654.872	295.551	0.190	-0.351
-653.857	628.312	-0.088	-0.224
-652.843	8.501	-0.074	0.056
-651.828	193.069	0.084	0.128
-650.814	-39.181	0.297	-0.157
-649.799	188.357	0.111	-0.167
-648.784	-56.589	-0.207	-0.092
-647.770	-119.601	-0.062	0.011
-646.755	18.186	0.149	0.120
-645.741	800.000	-0.036	0.103
-644.726	85.595	0.142	0.157
-643.711	-200.000	0.037	0.213
-642.697	84.676	0.057	0.063
-641.682	-200.000	-0.032	-0.263
-640.668	459.279	0.137	-0.306
-639.653	279.709	-0.167	-0.299
-638.638	399.364	-0.177	0.373
-637.624	88.673	0.118	0.132
-636.609	-160.405	-0.435	-0.024
-635.595	-45.374	0.066	0.033
-634.580	800.000	0.071	0.201
-633.565	11.782	-0.306	0.236
-632.551	-8.594	-0.199	0.135
-631.536	-63.943	0.235	-0.097
-630.522	-141.522	-0.507	0.052
-629.507	-200.000	-0.032	0.247
-628.492	169.460	0.233	-0.335
-627.478	800.000	-0.074	-0.249
-626.463	-119.064	0.417	-0.073
-625.449	-22.550	-0.309	0.188
-624.434	313.206	-0.180	-0.341
-623.419	-200.000	0.020	0.092
-622.405	-112.070	0.434	0.088
-621.390	800.000	0.052	0.220
-620.376	-200.000	0.009	0.324
-619.361	-148.934	0.083	0.007
-618.346	-200.000	0.019	-0.128
-617.332	80.284	-0.049	0.053
-616.317	-75.261	-0.143	-0.051
-615.303	-108.217	-0.198	-0.043
-614.288	800.000	0.060	-0.208
-613.273	800.000	0.024	0.104
-612.259	56.087	0.187	-0.182
-611.244	117.662	0.084	0.104
-610.230	-200.000	0.018	0.112
-609.215	-200.000	-0.033	0.422
-608.201	-15.731	-0.392	-0.251
-607.186	-200.000	0.047	-0.238
-606.171	406.847	-0.040	-0.085
-605.157	-20.554	0.344	0.212
-604.142	800.000	-0.025	-0.086
-603.128	549.256	0.061	0.146
-602.113	-104.824	-0.112	-0.026
-601.098	-25.023	0.215	-0.128
-600.084	1.746	0.301	-0.218
-599.069	-194.955	-0.490	0.004
-598.055	800.000	0.029	0.087
-597.040	7.546	-0.145	0.109
-596.025	-95.115	0.199	-0.054
-595.011	46.479	-0.015	0.014
-593.996	-40.718	-0.284	-0.148
-592.982	800.000	0.090	-0.266
-591.967	18.938	0.057	-0.046
-590.952	800.000	0.084	0.336
-589.938	-36.116	0.219	-0.119
-588.923	-200.000	-0.029	-0.139
-587.909	-130.703	0.123	0.017
-586.894	34.557	0.172	0.151
-585.879	-200.000	0.026	-0.130
-584.865	100.376	-0.101	0.117
-583.850	692.196	0.064	-0.167
-582.836	800.000	0.095	0.306
-581.821	-77.937	0.255	-0.088
-580.806	84.855	0.062	0.068
-579.792	-36.993	0.046	0.025
-578.777	-82.784	0.103	0.033
-577.763	9.433	0.092	0.070
-576.748	232.562	-0.070	-0.115
-575.733	504.478	-0.053	0.122
-574.719	-79.864	-0.549	0.185
-573.704	-109.299	0.115	-0.025
-572.690	-44.792	0.393	0.197
-571.675	254.918	-0.087	-0.149
-570.661	34.196	-0.065	-0.057
-569.646	-38.390	-0.466	-0.248
-568.631	7.567	0.142	0.106
-567.617	-200.000	-0.065	0.387
-566.602	386.820	0.069	0.143
-565.588	-135.531	-0.348	0.042
-564.573	172.932	0.096	-0.138
-563.558	-114.596	-0.065	-0.012
-562.544	277.470	0.178	0.318
-561.529	-137.256	0.157	-0.018
-560.515	-37.340	0.104	-0.056
-559.500	-200.000	-0.022	-0.230
-558.485	351.871	0.081	0.160
-557.471	133.669	0.124	-0.161
-556.456	-200.000	0.019	-0.175
-555.442	-54.198	0.164	-0.075
-554.427	117.700	0.260	-0.321
-553.412	-63.219	0.137	-0.057
-552.398	800.000	-0.018	-0.052
-551.383	145.463	0.174	0.234
-550.369	152.303	-0.210	-0.287
-549.354	800.000	-0.127	0.441
-548.339	168.296	-0.070	-0.100
-547.325	438.350	0.097	-0.212
-546.310	-96.240	-0.286	0.076
-545.296	-112.368	-0.198	-0.040
-544.281	-200.000	-0.038	-0.300
-543.266	800.000	0.063	0.242
-542.252	-83.392	-0.342	0.110
-541.237	-200.000	-0.030	-0.253
-540.223	44.663	0.330	0.304
-539.208	-168.860	-0.128	0.005
-538.193	-121.026	0.282	0.047
-537.179	-10.071	0.211	0.140
-536.164	-200.000	-0.013	-0.081
-535.150	-16.050	-0.238	0.152
-534.135	800.000	-0.002	-0.010
-533.121	800.000	0.122	-0.350
-532.106	-5.713	-0.194	0.133
-531.091	-126.983	0.287	0.042
-530.077	43.256	-0.120	0.110
-529.062	281.716	-0.080	-0.144
-528.048	-142.663	-0.072	-0.007
-527.033	-181.631	0.135	-0.003
-526.018	-26.199	0.070	0.041
-525.004	-135.045	-0.250	-0.030
-523.989	434.259	0.062	-0.135
-522.975	-143.490	0.114	0.011
-521.960	-200.000	-0.023	-0.170
-520.945	-28.366	-0.053	0.031
-519.931	-74.518	0.145	-0.052
-518.916	800.000	0.064	-0.196
-517.902	131.808	-0.142	-0.182
-516.887	685.138	-0.089	0.233
-515.872	-182.744	-0.241	0.004
-514.858	174.369	0.085	0.122
-513.843	-200.000	-0.012	-0.293
-512.829	30.553	0.369	-0.316
-511.814	14.456	-0.185	-0.145
-510.799	268.875	-0.070	-0.123
-509.785	-151.752	-0.227	0.017
-508.770	-131.476	0.184	-0.024
-507.756	-62.239	-0.391	0.163
-506.741	-105.038	-0.134	-0.031
-505.726	-200.000	0.028	-0.224
-504.712	-200.000	0.015	0.179
-503.697	-148.894	-0.146	0.012
-502.683	-24.755	-0.113	-0.067
-501.668	-200.000	0.045	-0.397
-500.653	291.309	0.159	0.289
-499.639	131.582	-0.098	0.126
-498.624	148.169	0.160	-0.216
-497.610	-70.680	0.246	0.093
-496.595	-200.000	-0.019	0.139
-495.581	20.383	0.289	-0.233
-494.566	-41.777	-0.061	0.031
-493.551	-59.513	-0.155	0.067
-492.537	397.840	-0.046	-0.097
-491.522	-127.114	-0.154	0.023
-490.508	-97.703	-0.215	0.056
-489.493	-107.048	0.174	-0.038
-488.478	298.914	0.108	0.199
-487.464	-78.605	0.141	-0.048
-486.449	-87.633	0.343	0.104
-485.435	-109.536	0.159	-0.034
-484.420	97.812	-0.044	0.051
-483.405	-87.878	-0.336	-0.101
-482.391	-140.079	-0.147	-0.016
-481.376	800.000	-0.069	0.239
-480.362	-151.670	-0.311	-0.023
-479.347	-127.452	0.116	-0.017
-478.332	112.413	0.065	0.078
-477.318	-32.855	0.377	-0.209
-476.303	55.592	-0.137	-0.133
-475.289	38.639	0.341	-0.304
-474.274	16.875	-0.194	0.154
-473.259	177.901	0.114	0.166
-472.245	-200.000	0.010	-0.291
-471.230	-200.000	0.036	-0.307
-470.216	-24.824	0.112	-0.067
-469.201	-32.385	0.130	-0.073
-468.186	470.728	0.111	-0.250
-467.172	800.000	0.096	-0.330
-466.157	338.853	-0.106	-0.206
-465.143	-152.703	-0.126	0.009
-464.128	800.000	0.029	0.102
-463.113	130.375	0.081	0.104
-462.099	-123.216	0.065	0.010
-461.084	7.179	0.132	-0.098
-460.070	-200.000	0.048	-0.360
-459.055	520.165	-0.096	0.226
-458.040	-71.860	0.275	0.102
-457.026	-47.847	0.119	0.058
-456.011	800.000	0.053	0.159
-454.997	-48.344	-0.093	0.045
-453.982	721.987	-0.071	-0.189
-452.968	75.283	0.068	-0.072
-451.953	-16.655	-0.105	-0.066
-450.938	30.739	-0.306	0.261
-449.924	107.122	0.230	0.274
-448.909	-69.513	0.209	0.080
-447.895	-99.662	-0.257	0.064
-446.880	-56.572	-0.234	-0.104
-445.865	181.975	-0.074	-0.109
-444.851	800.000	0.114	-0.370
-443.836	-200.000	0.053	-0.282
-442.822	800.000	-0.089	-0.363
-441.807	221.846	-0.267	0.428
-440.792	-178.467	0.150	0.003
-439.778	585.868	0.119	0.292
-438.763	800.000	-0.075	0.308
-437.749	-39.736	-0.132	0.069
-436.734	-200.000	-0.009	0.303
-435.719	36.368	-0.245	0.215
-434.705	-151.671	-0.235	-0.017
-433.690	282.180	0.119	0.213
-432.676	-29.622	0.299	0.170
-431.661	-135.412	-0.349	0.042
-430.646	-119.030	0.123	-0.021
-429.632	-103.357	0.156	-0.037
-428.617	353.900	0.050	-0.099
-427.603	3.078	0.170	0.123
-426.588	308.359	0.046	0.085
-425.573	-187.407	0.117	-0.002
-424.559	469.907	-0.031	0.070
-423.544	-4.517	-0.228	0.157
-422.530	-200.000	0.028	-0.203
-421.515	455.202	0.123	0.273
-420.500	-164.220	0.205	0.009
-419.486	314.369	0.061	-0.114
-418.471	-38.506	-0.154	0.081
-417.457	-200.000	0.007	0.079
-416.442	800.000	0.024	-0.106
-415.428	52.445	-0.081	-0.077
-414.413	-0.257	-0.205	0.145
-413.398	87.847	-0.071	0.079
-412.384	-186.607	-0.142	0.002
-411.369	-128.634	-0.180	-0.025
-410.355	-120.156	-0.126	0.021
-409.340	13.072	-0.065	-0.050
-408.325	-63.333	0.065	0.026
-407.311	24.133	-0.150	0.123
-406.296	800.000	0.066	-0.259
-405.282	219.895	0.117	-0.187
-404.267	161.691	0.102	0.142
-403.252	219.641	0.068	0.108
-402.238	800.000	-0.106	0.436
-401.223	-96.500	0.160	-0.042
-400.209	-200.000	0.003	-0.106
-399.194	-141.910	0.221	-0.022
-398.179	-200.000	-0.002	0.030
-397.165	111.439	0.030	-0.037
-396.150	42.750	-0.101	0.092
-395.136	-124.354	-0.172	0.027
-394.121	12.855	0.129	0.099
-393.106	190.537	-0.131	-0.196
-392.092	-74.730	-0.286	-0.102
-391.077	-200.000	0.024	-0.367
-390.063	169.163	-0.252	-0.359
-389.048	-107.028	-0.401	-0.088
-388.033	323.702	0.078	-0.149
-387.019	132.360	-0.246	0.316
-386.004	217.514	-0.271	-0.431
-384.990	24.899	-0.056	-0.046
-383.975	800.000	-0.064	0.226
-382.960	-200.000	-0.015	0.206
-381.946	-89.409	-0.248	0.073
-380.931	800.000	0.093	-0.400
-379.917	-200.000	0.004	-0.085
-378.902	313.170	0.025	-0.047
-377.888	-72.751	-0.284	-0.104
-376.873	-64.170	0.314	0.128
-375.858	-44.299	-0.178	0.089
-374.844	593.656	-0.126	0.311
-373.829	-76.214	-0.053	0.019
-372.815	-12.935	-0.284	-0.184
-371.800	-200.000	0.019	0.123
-370.785	-14.247	0.098	0.063
-369.771	83.404	0.019	0.020
-368.756	-152.837	0.302	-0.021
-367.742	-122.690	-0.178	0.029
-366.727	800.000	0.106	-0.366
-365.712	-171.566	-0.151	-0.005
-364.698	-86.487	0.049	-0.015
-363.683	800.000	0.089	0.245
-362.669	17.408	-0.146	0.115
-361.654	-200.000	-0.010	-0.061
-360.639	-55.457	-0.170	0.076
-359.625	427.476	0.057	-0.123
-358.610	-125.926	0.228	0.034
-357.596	-157.729	-0.505	-0.030
-356.581	-54.057	0.057	-0.026
-355.566	-131.684	0.181	-0.024
-354.552	-21.288	-0.182	-0.110
-353.537	18.395	0.212	-0.169
-352.523	-124.720	-0.278	-0.043
-351.508	-18.225	-0.378	-0.235
-350.493	216.738	0.131	-0.207
-349.479	21.482	0.112	0.091
-348.464	189.426	0.103	-0.153
-347.450	-96.184	-0.148	-0.039
-346.435	-12.549	0.129	-0.084
-345.420	-74.413	-0.208	-0.075
-344.406	150.809	-0.145	0.196
-343.391	-28.132	0.019	-0.011
-342.377	16.723	-0.104	-0.082
-341.362	-25.172	0.082	-0.048
-340.348	30.552	0.095	-0.081
-339.333	152.682	-0.075	-0.102
-338.318	800.000	-0.040	0.122
-337.304	60.373	-0.137	-0.135
-336.289	-111.986	0.321	0.064
-335.275	155.779	-0.172	-0.236
-334.260	800.000	0.093	0.275
-333.245	-200.000	-0.010	-0.144
-332.231	156.161	-0.055	0.075
-331.216	800.000	0.080	-0.277
-330.202	-52.864	-0.190	-0.087
-329.187	800.000	-0.160	0.532
-328.172	43.226	-0.201	-0.182
-327.158	114.735	-0.134	0.162
-326.143	-171.439	0.227	-0.008
-325.129	-124.000	0.436	0.068
-324.114	181.183	0.121	0.177
-323.099	79.207	-0.092	0.098
-322.085	486.887	0.067	0.151
-321.070	-116.902	-0.241	-0.044
-320.056	179.219	0.193	-0.281
-319.041	-200.000	-0.060	0.339
-318.026	86.130	0.057	0.063
-317.012	-78.194	0.372	-0.127
-315.997	-105.003	-0.079	-0.018
-314.983	-166.174	0.291	-0.012
-313.968	-66.502	-0.163	-0.064
-312.953	162.015	0.037	-0.051
-311.939	219.884	-0.150	0.239
-310.924	101.935	0.130	-0.151
-309.910	62.000	0.281	-0.279
-308.895	800.000	0.079	0.230
-307.880	-44.175	0.536	-0.267
-306.866	-73.703	-0.358	0.129
-305.851	800.000	0.060	0.247
-304.837	19.628	0.310	0.247
-303.822	-109.506	-0.220	0.046
-302.807	-4.894	0.227	-0.155
-301.793	28.418	0.149	0.125
-300.778	-49.825	0.292	0.138
-299.764	-200.000	-0.018	-0.203
-298.749	-200.000	-0.002	-0.241
-297.735	57.755	0.224	-0.217
-296.720	-200.000	0.054	0.301
-295.705	800.000	-0.045	0.175
-294.691	142.878	0.043	-0.056
-293.676	-104.288	0.142	0.033
-292.662	14.236	0.126	0.098
-291.647	44.577	-0.297	-0.271
-290.632	3.613	0.132	-0.095
-289.618	-22.227	0.132	0.079
-288.603	70.346	-0.170	-0.174
-287.589	-137.920	0.242	-0.027
-286.574	-84.857	0.242	0.075
-285.559	-67.980	-0.143	-0.055
-284.545	114.761	-0.067	-0.082
-283.530	51.710	0.229	-0.216
-282.516	106.122	0.112	0.132
-281.501	372.184	0.138	0.278
-280.486	800.000	-0.039	-0.145
-279.472	337.634	0.222	-0.428
-278.457	800.000	-0.022	-0.083
-277.443	-115.090	0.245	0.046
-276.428	113.966	-0.208	-0.251
-275.413	-156.144	-0.099	-0.006
-274.399	-108.289	0.237	0.051
-273.384	-72.100	0.103	0.038
-272.370	-200.000	0.196	-0.001
-271.355	-200.000	0.010	-0.134
-270.340	-75.234	0.125	0.044
-269.326	378.991	-0.106	0.215
-268.311	800.000	-0.078	-0.261
-267.297	-200.000	0.040	0.231
-266.282	800.000	-0.189	0.531
-265.267	451.147	-0.066	-0.144
-264.253	-3.479	-0.166	0.114
-263.238	-108.785	0.009	0.002
-262.224	-200.000	0.007	0.337
-261.209	194.730	-0.048	-0.072
-260.195	13.161	0.276	0.212
-259.180	361.433	0.196	-0.390
-258.165	-200.000	-0.022	0.199
-257.151	105.568	-0.148	-0.173
-256.136	-23.612	-0.153	-0.091
-255.122	-93.872	-0.241	0.066
-254.107	-152.752	0.125	-0.009
-253.092	-105.049	-0.450	-0.102
-252.078	-122.290	0.119	0.019
-251.063	-141.759	0.138	-0.014
-250.049	416.660	0.150	-0.316
-249.034	-38.843	0.236	-0.123
-248.019	-94.367	0.211	-0.057
-247.005	217.031	-0.094	0.148
-245.990	8.997	0.062	0.046
-244.976	270.059	-0.048	0.084
-243.961	408.727	0.185	0.388
-242.946	-200.000	0.033	0.172
-241.932	-68.497	-0.251	-0.097
-240.917	-137.481	0.329	-0.037
-239.903	435.142	0.088	-0.190
-238.888	102.208	-0.027	0.031
-237.873	-125.420	-0.322	-0.049
-236.859	422.002	0.135	0.286
-235.844	495.309	-0.053	-0.122
-234.830	-200.000	0.004	0.101
-233.815	-151.594	-0.352	-0.026
-232.800	498.405	0.035	0.080
-231.786	-200.000	-0.063	-0.294
-230.771	-1.212	0.154	0.108
-229.757	-18.126	0.350	-0.217
-228.742	12.844	-0.376	0.288
-227.727	-26.491	-0.107	0.062
-226.713	-200.000	0.042	0.227
-225.698	731.070	-0.032	-0.085
-224.684	171.819	0.113	0.161
-223.669	649.107	-0.098	0.247
-222.655	-131.514	0.259	0.034
-221.640	-200.000	0.053	-0.266
-220.625	-114.385	0.206	0.039
-219.611	312.925	0.145	-0.270
-218.596	-20.587	0.194	-0.118
-217.582	333.779	0.185	0.353
-216.567	-46.386	-0.247	0.120
-215.552	-200.000	-0.001	-0.079
-214.538	640.874	-0.087	-0.219
-213.523	-51.284	-0.105	0.049
-212.509	-50.946	-0.439	-0.204
-211.494	800.000	-0.054	0.205
-210.479	482.883	-0.148	0.333
-209.465	313.041	-0.011	-0.021
-208.450	800.000	0.042	0.125
-207.436	27.375	-0.165	-0.137
-206.421	-82.912	0.197	0.063
-205.406	-38.363	-0.203	-0.106
-204.392	380.237	-0.036	-0.074
-203.377	-172.884	0.118	0.004
-202.363	57.259	-0.036	0.035
-201.348	86.604	0.145	-0.158
-200.333	-22.046	-0.372	-0.223
-199.319	-200.000	0.023	0.177
-198.304	74.034	-0.164	-0.170
-197.290	-200.000	0.043	0.244
-196.275	37.788	0.196	-0.172
-195.260	221.570	0.074	0.118
-194.246	286.755	-0.041	0.073
-193.231	66.721	0.305	0.307
-192.217	-81.224	0.260	0.085
-191.202	-44.899	-0.113	0.056
-190.187	-15.488	-0.197	0.124
-189.173	800.000	0.090	0.253
-188.158	-200.000	0.044	0.230
-187.144	-115.321	0.124	-0.023
-186.129	-69.173	0.094	0.036
-185.114	207.623	-0.156	-0.241
-184.100	-15.319	0.027	0.017
-183.085	269.517	0.105	-0.182
-182.071	14.874	0.252	0.195
-181.056	-200.000	-0.003	0.229
-180.042	-52.021	-0.367	0.168
-179.027	-200.000	0.016	-0.158
-178.012	85.455	-0.269	0.292
-176.998	-16.626	-0.031	-0.020
-175.983	-189.696	-0.097	0.001
-174.969	-200.000	0.018	-0.211
-173.954	-112.150	0.004	-0.001
-172.939	5.707	0.105	0.077
-171.925	265.920	0.122	0.211
-170.910	759.756	0.086	-0.232
-169.896	-67.814	0.063	-0.024
-168.881	20.926	-0.217	0.173
-167.866	-55.879	-0.427	-0.188
-166.852	9.055	0.138	-0.103
-165.837	-120.795	-0.280	-0.047
-164.823	-2.816	0.336	-0.232
-163.808	270.523	-0.150	-0.260
-162.793	150.519	0.019	0.026
-161.779	26.673	0.074	0.061
-160.764	-200.000	0.021	-0.157
-159.750	410.610	0.103	0.215
-158.735	15.557	-0.371	0.288
-157.720	-200.000	-0.044	0.218
-156.706	-74.046	0.269	-0.096
-155.691	-159.025	-0.303	0.017
-154.677	-200.000	-0.004	0.297
-153.662	719.149	-0.110	0.288
-152.647	-20.802	-0.104	-0.063
-151.633	-200.000	0.051	-0.269
-150.618	-73.205	-0.029	0.010
-149.604	-168.489	-0.140	-0.005
-148.589	16.099	0.070	0.054
-147.574	290.136	-0.131	-0.236
-146.560	20.265	0.198	-0.158
-145.545	800.000	-0.020	-0.065
-144.531	168.346	-0.084	0.117
-143.516	-11.309	-0.069	0.045
-142.502	-200.000	-0.011	0.175
-141.487	40.920	0.047	-0.042
-140.472	19.529	-0.124	0.098
-139.458	-83.359	0.064	0.020
-138.443	-200.000	-0.009	-0.135
-137.429	-102.187	0.168	0.040
-136.414	-187.047	-0.082	-0.001
-135.399	5.282	-0.090	0.066
-134.385	-2.739	0.204	-0.141
-133.370	189.872	-0.152	0.225
-132.356	-200.000	-0.042	-0.339
-131.341	136.447	0.126	0.163
-130.326	218.685	0.290	-0.457
-129.312	30.017	-0.287	-0.241
-128.297	94.241	0.101	0.113
-127.283	800.000	0.021	-0.085
-126.268	-200.000	-0.016	-0.368
-125.253	189.765	-0.200	0.295
-124.239	-200.000	-0.051	-0.384
-123.224	-200.000	-0.002	0.218
-122.210	15.553	-0.343	0.266
-121.195	-172.886	0.375	0.011
-120.180	-200.000	0.020	-0.232
-119.166	-136.972	0.182	0.021
-118.151	-200.000	-0.001	-0.259
-117.137	135.581	0.066	0.085
-116.122	6.749	0.019	-0.014
-115.107	-7.277	0.183	-0.122
-114.093	529.314	0.092	0.215
-113.078	-200.000	0.012	0.063
-112.064	-52.024	0.342	-0.156
-111.049	-200.000	0.003	0.082
-110.034	-200.000	-0.015	0.159
-109.020	358.554	-0.063	0.124
-108.005	-108.638	0.411	0.087
-106.991	-146.070	0.205	0.018
-105.976	-15.196	0.162	-0.102
-104.962	-200.000	0.039	-0.173
-103.947	138.276	-0.193	0.249
-102.932	36.701	-0.134	0.117
-101.918	-200.000	0.002	-0.017
-100.903	-26.748	-0.324	-0.186
-99.889	93.935	-0.161	0.180
-98.874	-131.202	-0.287	0.038
-97.859	32.025	0.183	0.156
-96.845	45.793	0.376	0.342
-95.830	191.891	-0.243	0.361
-94.816	800.000	-0.016	0.063
-93.801	76.366	-0.039	0.040
-92.786	800.000	0.080	-0.312
-91.772	692.951	-0.051	-0.131
-90.757	41.298	-0.119	0.106
-89.743	115.694	0.442	0.532
-88.728	0.567	-0.149	0.105
-87.713	-99.807	-0.127	-0.031
-86.699	-139.993	-0.165	-0.017
-85.684	-65.283	0.335	0.133
-84.670	-182.867	0.372	0.007
-83.655	-34.296	-0.353	0.191
-82.640	7.414	0.209	-0.154
-81.626	-200.000	0.078	-0.626
-80.611	-38.239	0.321	-0.167
-79.597	800.000	-0.077	-0.320
-78.582	157.328	0.159	-0.216
-77.567	-25.609	0.214	0.125
-76.553	-36.977	-0.300	-0.158
-75.538	-1.705	-0.054	-0.038
-74.524	22.464	0.118	-0.095
-73.509	54.480	0.130	0.123
-72.494	-105.074	0.477	0.108
-71.480	431.521	-0.030	-0.065
-70.465	-200.000	-0.017	-0.212
-69.451	-200.000	-0.025	0.153
-68.436	22.508	-0.174	-0.140
-67.422	-63.825	-0.172	-0.069
-66.407	-18.522	0.045	0.028
-65.392	-150.378	-0.081	-0.006
-64.378	-87.399	-0.113	0.034
-63.363	-87.501	-0.187	-0.056
-62.349	75.938	-0.212	-0.221
-61.334	169.724	-0.768	-1.079
-60.319	137.211	0.472	0.608
-59.305	-200.000	-0.174	-0.904
-58.290	199.056	0.759	1.143
-57.276	800.000	0.533	1.646
-56.261	-200.000	95.616	591.939
-55.246	571.950	1364.858	3269.544
-54.232	162.836	2539.864	3506.750
-53.217	113.504	2135.483	2549.811
-52.203	44.040	1600.638	1442.867
-51.188	35.811	1338.597	1157.362
-50.173	32.528	1297.833	1102.888
-49.159	54.025	1344.778	1271.356
-48.144	56.620	1360.927	1302.021
-47.130	35.906	1320.075	1141.733
-46.115	32.452	1302.966	1106.625
-45.100	32.353	1297.449	1101.316
-44.086	32.200	1295.127	1098.405
-43.071	32.061	1292.758	1095.541
-42.057	32.132	1290.646	1094.121
-41.042	32.142	1288.963	1092.714
-40.027	32.198	1287.457	1091.719
-39.013	32.196	1285.753	1090.218
-37.998	32.253	1283.893	1088.925
-36.984	32.180	1282.121	1086.957
-35.969	32.324	1280.320	1086.219
-34.954	32.194	1279.068	1084.367
-33.940	32.206	1277.811	1083.323
-32.925	32.312	1275.940	1082.308
-31.911	32.434	1274.283	1081.556
-30.896	32.396	1272.785	1080.026
-29.881	32.307	1272.092	1078.886
-28.867	32.523	1269.992	1078.298
-27.852	32.490	1268.402	1076.718
-26.838	32.453	1267.391	1075.603
-25.823	32.411	1265.786	1073.961
-24.809	32.330	1264.928	1072.725
-23.794	32.326	1263.431	1071.393
-22.779	32.353	1261.917	1070.221
-21.765	32.364	1261.183	1069.619
-20.750	32.180	1260.084	1067.598
-19.736	32.305	1258.226	1066.689
-18.721	32.228	1257.030	1065.197
-17.706	32.270	1256.002	1064.523
-16.692	32.191	1255.024	1063.206
-15.677	32.174	1254.015	1062.210
-14.663	32.176	1253.027	1061.341
-13.648	32.077	1251.967	1059.845
-12.633	32.186	1250.833	1059.454
-11.619	32.147	1250.087	1058.566
-10.604	32.133	1249.267	1057.749
-9.590	32.082	1248.172	1056.495
-8.575	32.075	1247.328	1055.698
-7.560	32.156	1245.832	1054.842
-6.546	32.146	1245.506	1054.471
-5.531	32.154	1244.763	1053.845
-4.517	32.083	1243.876	1052.650
-3.502	32.240	1242.644	1052.448
-2.487	32.213	1241.541	1051.322
-1.473	32.179	1237.617	1047.766
-0.458	30.816	1222.617	1027.509
0.556	27.923	1205.688	990.748
1.571	24.472	1211.984	976.983
2.586	23.636	1227.598	984.844
3.600	23.134	1216.442	973.049
4.615	17.100	1143.813	883.565
5.629	7.025	1067.309	775.237
6.644	2.507	1046.560	738.355
7.659	2.079	1044.153	734.533
8.673	2.016	1042.913	733.290
9.688	1.899	1041.522	731.686
10.702	2.481	1040.177	733.465
11.717	9.037	1049.819	771.816
12.731	19.173	1064.299	831.581
13.746	24.200	1070.141	860.413
14.761	25.307	1071.364	866.669
15.775	25.456	1070.780	866.837
16.790	25.082	1069.958	864.294
17.804	25.016	1069.445	863.481
18.819	25.195	1068.844	863.782
19.834	25.450	1068.548	864.695
20.848	25.447	1067.680	863.901
21.863	25.290	1067.707	863.093
22.877	25.260	1067.221	862.478
23.892	25.300	1066.140	861.720
24.907	25.293	1065.669	861.230
25.921	25.251	1064.587	860.080
26.936	25.306	1062.878	858.887
27.950	25.373	1061.262	857.823
28.965	25.100	1060.298	855.665
29.980	25.262	1058.506	854.914
30.994	25.416	1057.712	854.930
32.009	25.419	1056.797	854.129
33.023	25.130	1055.287	851.464
34.038	25.320	1054.850	851.934
35.053	25.361	1054.217	851.544
36.067	25.328	1053.178	850.474
37.082	25.436	1052.352	850.240
38.096	25.729	1051.608	850.950
39.111	25.702	1050.695	850.010
40.126	25.483	1049.456	847.897
41.140	25.160	1047.954	845.089
42.155	24.949	1046.465	842.820
43.169	25.025	1045.844	842.604
44.184	25.035	1044.603	841.574
45.199	24.923	1043.818	840.342
46.213	25.000	1043.166	840.105
47.228	25.204	1042.452	840.413
48.242	25.222	1041.687	839.805
49.257	25.476	1040.353	839.840
50.271	25.463	1040.203	839.584
51.286	25.534	1039.255	839.079
52.301	25.459	1038.800	838.286
53.315	25.428	1037.225	836.795
54.330	25.217	1036.611	835.243
55.344	25.300	1035.819	834.917
56.359	25.306	1035.306	834.458
57.374	25.052	1034.101	832.234
58.388	25.195	1033.091	832.012
59.403	25.010	1032.342	830.479
60.417	24.907	1031.409	829.174
61.432	25.017	1030.790	829.114
62.447	25.111	1030.535	829.270
63.461	25.185	1029.865	829.002
64.476	25.108	1028.377	827.375
65.490	25.104	1027.478	826.561
66.505	25.093	1027.042	826.086
67.520	25.162	1026.611	825.982
68.534	24.968	1025.451	824.084
69.549	24.582	1024.522	821.490
70.563	24.671	1023.326	820.866
71.578	24.555	1023.151	820.119
72.593	24.526	1021.565	818.644
73.607	24.647	1021.156	818.799
74.622	24.874	1020.971	819.617
75.636	24.897	1020.416	819.203
76.651	24.830	1019.362	817.979
77.666	24.693	1018.899	816.908
78.680	24.667	1018.375	816.297
79.695	24.986	1017.412	816.910
80.709	25.124	1016.206	816.498
81.724	24.869	1016.327	815.360
82.739	24.987	1015.428	815.103
83.753	25.354	1014.678	816.097
84.768	25.668	1014.031	816.930
85.782	25.787	1013.316	816.824
86.797	25.564	1012.282	814.909
87.812	25.527	1011.101	813.718
88.826	25.599	1010.422	813.423
89.841	25.732	1009.384	813.119
90.855	25.525	1009.033	811.827
91.870	25.602	1007.837	811.139
92.884	25.367	1006.675	809.077
93.899	25.384	1005.874	808.436
94.914	25.724	1004.628	808.891
95.928	25.526	1004.251	807.628
96.943	25.173	1003.022	804.985
97.957	25.014	1001.688	803.130
98.972	24.931	1000.221	801.512
99.987	25.080	999.806	801.773
101.001	25.383	999.180	802.554
102.016	25.368	998.187	801.618
103.030	25.252	997.522	800.498
104.045	25.056	996.411	798.661
105.060	24.842	995.823	797.165
106.074	25.112	995.260	797.846
107.089	25.402	994.481	798.441
108.103	25.375	993.066	797.116
109.118	25.057	992.037	794.808
110.133	25.141	991.207	794.445
111.147	24.903	990.059	792.402
112.162	24.892	988.672	791.172
113.176	25.094	988.460	791.826
114.191	24.968	987.624	790.527
115.206	24.739	986.783	788.774
116.220	24.649	985.737	787.471
117.235	24.868	984.969	787.754
118.249	24.701	984.436	786.525
119.264	24.713	983.624	785.860
120.279	24.771	982.723	785.323
121.293	24.805	982.353	785.107
122.308	24.836	981.180	784.235
123.322	24.930	979.662	783.365
124.337	24.596	978.617	781.001
125.352	24.151	977.248	777.895
126.366	24.230	975.764	776.989
127.381	24.816	976.277	779.883
128.395	25.219	975.849	781.229
129.410	25.390	975.313	781.476
130.424	25.345	974.173	780.298
131.439	25.266	972.791	778.776
132.454	25.249	972.416	778.337
133.468	25.252	971.360	777.434
134.483	25.327	970.578	777.063
135.497	25.525	969.722	777.168
136.512	25.459	969.313	776.482
137.527	25.497	968.003	775.531
138.541	25.597	967.023	775.109
139.556	25.534	966.625	774.448
140.570	25.627	966.062	774.329
141.585	25.605	965.480	773.701
142.600	25.567	963.898	772.203
143.614	25.882	963.055	772.807
144.629	25.873	962.603	772.339
145.643	25.827	961.122	770.884
146.658	25.477	960.183	768.565
147.673	25.561	958.688	767.663
148.687	25.389	957.796	766.146
149.702	25.499	956.945	765.864
150.716	25.248	956.594	764.449
151.731	25.452	955.700	764.535
152.746	25.586	955.276	764.696
153.760	25.793	954.432	764.833
154.775	25.778	953.682	764.098
155.789	25.719	952.923	763.172
156.804	25.744	952.044	762.511
157.819	25.871	951.112	762.230
158.833	26.015	950.400	762.203
159.848	25.928	949.461	761.013
160.862	25.708	948.253	759.051
161.877	25.741	947.447	758.479
162.892	25.691	946.625	757.542
163.906	25.666	945.359	756.356
164.921	25.657	944.400	755.484
165.935	25.744	943.397	754.982
166.950	25.623	943.281	754.313
167.964	25.717	941.775	753.438
168.979	25.641	940.679	752.176
169.994	25.455	940.224	750.966
171.008	25.627	939.560	751.087
172.023	25.884	938.582	751.313
173.037	25.530	937.653	749.027
174.052	25.509	936.382	747.860
175.067	25.482	936.103	747.457
176.081	25.499	935.670	747.118
177.096	25.416	935.071	746.226
178.110	25.172	933.920	744.230
179.125	25.041	933.038	742.920
180.140	25.172	932.674	743.105
181.154	25.178	932.838	743.198
182.169	25.621	932.281	744.519
183.183	25.779	931.789	744.714
184.198	25.612	931.043	743.364
185.213	25.670	930.335	742.972
186.227	25.765	929.620	742.726
187.242	25.749	928.703	741.861
188.256	25.836	928.234	741.779
189.271	25.885	927.845	741.606
190.286	25.498	926.555	738.920
191.300	24.737	925.493	734.879
192.315	24.061	923.516	730.474
193.329	24.055	923.254	730.177
194.344	25.073	923.349	734.359
195.359	25.576	923.248	736.275
196.373	25.718	922.545	736.228
197.388	25.628	921.904	735.285
198.402	25.625	921.809	735.133
199.417	25.697	920.968	734.690
200.432	25.440	919.891	732.715
201.446	25.272	919.180	731.402
202.461	25.347	918.818	731.354
203.475	24.326	917.097	725.769
204.490	23.378	916.323	721.236
205.504	24.512	916.070	725.580
206.519	25.086	916.261	728.000
207.534	25.394	915.106	728.269
208.548	25.711	915.109	729.490
209.563	25.424	914.490	727.770
210.577	25.326	913.926	726.862
211.592	25.902	913.060	728.438
212.607	25.766	912.819	727.629
213.621	25.780	911.795	726.806
214.636	25.903	911.383	726.910
215.650	25.752	910.610	725.618
216.665	25.819	910.455	725.704
217.680	25.733	909.058	724.177
218.694	25.325	907.736	721.422
219.709	25.268	907.621	721.039
220.723	25.505	907.244	721.627
221.738	25.715	906.584	721.879
222.753	25.493	906.029	720.484
223.767	25.703	905.772	721.057
224.782	25.993	904.940	721.490
225.796	25.924	904.574	720.859
226.811	25.265	902.910	716.839
227.826	24.566	902.014	713.273
228.840	24.811	901.481	713.769
229.855	24.897	900.533	713.295
230.869	24.550	899.345	710.911
231.884	24.798	899.993	712.349
232.899	25.455	899.926	714.845
233.913	25.554	898.805	714.287
234.928	25.477	898.188	713.427
235.942	25.439	897.602	712.747
236.957	25.164	896.843	710.992
237.972	25.228	896.388	710.824
238.986	25.278	895.823	710.508
240.001	25.232	895.458	709.976
241.015	25.406	895.117	710.329
242.030	25.399	894.455	709.715
243.045	25.523	894.012	709.788
244.059	25.689	893.662	710.103
245.074	25.357	892.712	707.977
246.088	25.315	891.224	706.569
247.103	25.631	890.662	707.302
248.117	25.995	891.175	709.078
249.132	26.305	890.618	709.791
250.147	26.238	890.723	709.547
251.161	26.459	890.502	710.177
252.176	26.475	889.352	709.261
253.190	26.606	888.531	709.055
254.205	26.705	888.392	709.270
255.220	26.682	887.603	708.485
256.234	26.343	887.109	706.705
257.249	26.438	886.522	706.546
258.263	26.404	885.717	705.710
259.278	26.426	885.306	705.405
260.293	26.542	884.420	705.089
261.307	26.546	883.517	704.321
262.322	26.162	883.022	702.370
263.336	25.524	881.235	698.412
264.351	24.458	879.276	692.661
265.366	24.622	879.025	693.039
266.380	25.791	879.688	698.034
267.395	26.146	879.344	699.074
268.409	26.007	878.950	698.161
269.424	26.286	878.236	698.610
270.439	26.245	878.065	698.256
271.453	26.450	877.002	698.139
272.468	26.611	877.036	698.724
273.482	26.692	876.129	698.254
274.497	26.139	875.160	695.289
275.512	25.872	874.341	693.549
276.526	26.230	874.301	694.835
277.541	26.418	873.520	694.874
278.555	26.066	872.884	692.957
279.570	26.132	871.989	692.438
280.585	26.222	871.570	692.388
281.599	26.138	871.177	691.695
282.614	25.532	869.424	687.921
283.628	25.501	868.958	687.376
284.643	25.927	868.868	688.869
285.657	25.375	867.855	685.899
286.672	25.128	867.001	684.222
287.687	25.694	867.377	686.617
288.701	25.874	866.371	686.446
289.716	25.673	865.318	684.786
290.730	25.613	864.556	683.894
291.745	25.268	863.790	681.917
292.760	25.706	863.825	683.548
293.774	26.603	864.634	687.537
294.789	26.962	864.097	688.409
295.803	26.913	863.303	687.529
296.818	26.876	862.577	686.751
297.833	26.496	861.421	684.332
298.847	26.294	860.850	683.055
299.862	26.736	860.801	684.628
300.876	26.753	860.864	684.680
301.891	26.749	859.578	683.580
302.906	26.278	858.753	681.092
303.920	26.517	858.394	681.647
304.935	26.868	858.397	682.908
305.949	26.806	857.656	682.026
306.964	26.375	857.068	679.878
307.979	26.604	856.638	680.336
308.993	26.944	856.163	681.176
310.008	26.983	855.533	680.761
311.022	26.579	854.828	678.626
312.037	26.432	854.159	677.486
313.052	26.192	853.181	675.751
314.066	25.449	851.670	671.716
315.081	25.212	851.116	670.337
316.095	26.090	851.234	673.646
317.110	26.526	850.901	674.950
318.125	25.668	849.540	670.617
319.139	24.596	848.071	665.407
320.154	24.545	847.809	664.952
321.168	25.628	848.144	669.186
322.183	26.241	848.248	671.492
323.197	26.232	848.349	671.478
324.212	26.652	847.670	672.439
325.227	26.553	847.402	671.801
326.241	26.472	846.247	670.526
327.256	26.347	845.693	669.562
328.270	26.280	844.908	668.635
329.285	26.161	844.141	667.528
330.300	25.932	843.367	666.011
331.314	26.243	843.527	667.230
332.329	26.663	843.103	668.383
333.343	26.717	842.768	668.258
334.358	26.732	842.076	667.704
335.373	26.816	841.812	667.747
336.387	27.181	842.021	669.197
337.402	27.193	841.941	669.121
338.416	27.025	841.826	668.349
339.431	27.208	840.981	668.292
340.446	27.341	841.284	668.962
341.460	27.335	840.305	668.102
342.475	27.131	839.861	666.942
343.489	27.130	839.500	666.593
344.504	27.360	839.041	667.015
345.519	27.521	838.638	667.224
346.533	27.661	838.191	667.322
347.548	27.617	837.553	666.592
348.562	27.453	837.263	665.704
349.577	27.370	836.804	664.978
350.592	27.539	835.949	664.854
351.606	27.477	835.064	663.865
352.621	27.201	834.376	662.257
353.635	27.226	833.734	661.779
354.650	26.580	831.994	657.993
355.665	25.630	830.819	653.555
356.679	26.189	830.598	655.355
357.694	26.515	830.125	656.105
358.708	26.391	829.671	655.239
359.723	26.919	829.502	656.960
360.738	27.121	829.131	657.336
361.752	27.248	828.853	657.518
362.767	27.699	828.473	658.788
363.781	27.853	827.775	658.729
364.796	27.672	827.709	657.965
365.810	27.981	827.244	658.654
366.825	27.960	826.693	658.078
367.840	27.561	825.905	655.957
368.854	27.023	825.250	653.444
369.869	27.242	825.028	653.999
370.883	27.231	824.147	653.202
371.898	27.203	823.919	652.862
372.913	27.425	823.684	653.415
373.927	27.378	822.939	652.601
374.942	27.599	823.011	653.391
375.956	27.650	822.378	653.013
376.971	27.733	821.919	652.887
377.986	27.872	821.954	653.357
379.000	27.828	821.421	652.717
380.015	27.799	819.908	651.354
381.029	27.702	819.714	650.795
382.044	27.795	819.428	650.842
383.059	27.957	819.053	651.063
384.073	27.885	818.224	650.093
385.088	27.817	817.772	649.433
386.102	27.680	816.675	648.018
387.117	27.579	816.106	647.148
388.132	27.177	815.153	644.911
389.146	26.655	814.277	642.309
390.161	27.121	814.312	643.934
391.175	27.667	814.055	645.606
392.190	27.249	812.889	643.147
393.205	25.928	811.052	636.971
394.219	24.365	809.137	629.899
395.234	24.336	808.892	629.548
396.248	25.965	810.410	636.429
397.263	27.402	811.235	642.095
398.278	27.318	810.996	641.552
399.292	27.026	810.234	639.864
400.307	27.219	809.448	639.864
401.321	27.286	809.454	640.050
402.336	27.630	809.176	640.984
403.350	28.205	808.999	642.804
404.365	28.291	809.176	643.190
405.380	28.656	808.786	644.104
406.394	28.778	808.020	643.865
407.409	28.533	807.880	642.838
408.423	28.600	807.066	642.371
409.438	28.656	806.505	642.062
410.453	28.647	806.575	642.028
411.467	28.475	805.888	640.822
412.482	28.653	805.268	640.897
413.496	28.596	805.109	640.515
414.511	28.775	804.721	640.773
415.526	28.591	804.351	639.781
416.540	28.446	803.322	638.400
417.555	28.198	802.886	637.135
418.569	28.229	802.941	637.227
419.584	28.239	801.878	636.363
420.599	28.038	801.616	635.400
421.613	111.941	1285.460	1458.804
422.628	96.663	1355.938	1458.884
