DTS Sentinel unit serial number:	SN413079Multiplexer serial number:	ORYXHardware model number:	OX4-SRSoftware version number:	ORYX F/W v4.00 Oryx Data Collector v3.7.2.0data status	okinstallation	princeton_trtdifferential loss correction	single-endedforward channel	channel 1reverse channel	N/Adate	2019/09/11time	04:20:11forward acquisition time	60.00reverse acquisition time	0.00gamma	496.2192k internal	0.2331k external	0.2331temperature offset calibration	0.9927default loss term (dB/km)	0.3790temperature slope calibration	1.0000multiplexer offset coefficient	1.0000multiplexer slope coefficient	1.0000fibre end	0.00T internal ref (°C)	29.56T ext. ref 1 (°C)	-0.27T ext. ref 2 (°C)	23.33length (m)	temperature (°C)	Stokes	anti-Stokes-747.200	-111.517	-0.459	0.094
-746.185	800.000	0.131	0.385
-745.171	-30.768	-0.214	0.122
-744.156	-200.000	-0.008	0.298
-743.142	-16.549	-0.126	-0.081
-742.127	-115.668	0.145	-0.027
-741.112	-123.000	-0.133	-0.022
-740.098	247.713	0.069	0.117
-739.083	800.000	0.011	-0.038
-738.069	630.885	0.061	0.156
-737.054	-49.857	0.105	0.050
-736.039	159.003	0.121	0.169
-735.025	154.974	0.174	0.240
-734.010	-135.303	-0.206	-0.025
-732.996	800.000	0.066	-0.234
-731.981	457.705	-0.110	0.246
-730.966	-167.588	0.277	0.011
-729.952	-200.000	0.031	-0.205
-728.937	-27.231	-0.233	0.136
-727.923	112.700	-0.170	-0.207
-726.908	-200.000	0.015	-0.218
-725.894	-200.000	-0.019	-0.129
-724.879	-17.912	0.196	-0.124
-723.864	-57.018	-0.229	-0.102
-722.850	37.463	0.181	-0.162
-721.835	-200.000	-0.031	-0.283
-720.821	-117.253	0.097	-0.018
-719.806	453.680	-0.178	0.397
-718.791	-96.872	-0.324	0.085
-717.777	-2.288	-0.218	-0.154
-716.762	-69.939	-0.142	0.055
-715.748	800.000	0.014	-0.044
-714.733	-51.906	-0.167	0.078
-713.718	-21.727	-0.120	0.073
-712.704	800.000	-0.108	-0.335
-711.689	-130.580	0.061	-0.008
-710.675	-44.075	-0.261	0.132
-709.660	120.090	0.067	0.084
-708.645	800.000	0.056	-0.246
-707.631	-68.438	-0.102	-0.040
-706.616	196.243	0.063	-0.097
-705.602	91.196	0.219	0.247
-704.587	130.470	-0.152	-0.195
-703.572	-200.000	0.039	0.245
-702.558	192.942	-0.042	0.063
-701.543	171.345	0.074	0.106
-700.529	-200.000	0.072	0.425
-699.514	123.968	-0.014	0.018
-698.499	204.085	-0.112	-0.174
-697.485	24.408	-0.041	0.034
-696.470	-129.205	0.195	-0.027
-695.456	-200.000	0.008	0.185
-694.441	-113.092	-0.034	-0.007
-693.426	-26.100	0.163	0.096
-692.412	800.000	-0.043	0.121
-691.397	107.395	-0.065	0.077
-690.383	65.202	0.105	-0.107
-689.368	-163.090	-0.257	0.012
-688.354	450.962	-0.069	-0.154
-687.339	86.123	-0.175	0.194
-686.324	800.000	0.100	-0.362
-685.310	-200.000	-0.056	-0.299
-684.295	800.000	0.020	0.062
-683.281	55.925	-0.132	-0.128
-682.266	109.663	-0.127	-0.153
-681.251	-99.920	-0.315	-0.079
-680.237	329.388	-0.160	0.309
-679.222	-175.499	0.152	-0.004
-678.208	129.960	-0.140	0.180
-677.193	-35.858	0.261	0.142
-676.178	27.464	-0.083	0.070
-675.164	800.000	0.043	-0.180
-674.149	222.571	0.095	0.153
-673.135	-146.026	-0.259	0.023
-672.120	696.802	0.075	0.197
-671.105	15.715	0.339	-0.268
-670.091	800.000	-0.017	-0.064
-669.076	-121.820	0.281	0.047
-668.062	-155.469	0.364	-0.024
-667.047	236.671	0.097	-0.161
-666.032	-171.455	0.196	-0.007
-665.018	-120.432	-0.075	0.013
-664.003	-83.592	-0.253	-0.081
-662.989	33.816	-0.091	-0.080
-661.974	-160.257	-0.277	-0.015
-660.959	-101.946	0.253	-0.061
-659.945	-17.828	-0.279	-0.176
-658.930	-96.525	-0.369	-0.098
-657.916	-152.691	-0.272	-0.019
-656.901	497.916	-0.001	-0.003
-655.886	-125.284	-0.301	0.046
-654.872	-18.232	0.150	-0.094
-653.857	-129.837	-0.124	-0.017
-652.843	-200.000	0.011	0.130
-651.828	-5.061	0.159	0.110
-650.814	95.066	0.047	-0.054
-649.799	-123.929	-0.119	-0.019
-648.784	-95.981	-0.120	-0.032
-647.770	-78.128	-0.199	0.068
-646.755	-200.000	-0.001	0.165
-645.741	-15.130	-0.157	0.101
-644.726	-63.795	0.208	-0.085
-643.711	800.000	0.076	0.309
-642.697	784.001	0.026	-0.070
-641.682	40.332	-0.347	0.313
-640.668	-200.000	0.060	0.271
-639.653	-103.338	-0.276	0.065
-638.638	-28.673	0.268	-0.155
-637.624	-44.418	0.260	-0.130
-636.609	157.989	-0.082	-0.114
-635.595	-200.000	-0.020	0.164
-634.580	259.876	-0.229	-0.397
-633.565	-48.701	0.091	-0.044
-632.551	295.600	-0.085	0.155
-631.536	205.649	0.197	-0.306
-630.522	-70.124	-0.220	-0.084
-629.507	752.713	-0.044	-0.118
-628.492	-36.362	0.065	-0.035
-627.478	-13.319	-0.181	0.117
-626.463	-129.656	-0.161	-0.022
-625.449	43.589	0.062	-0.057
-624.434	7.079	0.125	0.094
-623.419	-200.000	0.056	0.286
-622.405	-200.000	-0.016	0.080
-621.390	-200.000	-0.006	0.237
-620.376	499.487	-0.085	0.196
-619.361	244.771	-0.142	-0.239
-618.346	4.331	-0.188	-0.138
-617.332	-59.345	-0.152	0.066
-616.317	-79.354	-0.302	-0.102
-615.303	-200.000	0.001	-0.231
-614.288	-170.757	-0.224	0.008
-613.273	339.053	-0.096	0.187
-612.259	82.061	0.092	0.100
-611.244	-60.606	0.147	-0.062
-610.230	800.000	-0.016	-0.058
-609.215	-28.272	-0.139	0.081
-608.201	170.956	-0.232	-0.334
-607.186	-118.257	0.318	0.057
-606.171	-200.000	-0.004	0.112
-605.157	55.623	-0.164	-0.159
-604.142	-45.962	-0.262	-0.129
-603.128	205.640	0.088	0.136
-602.113	-87.294	-0.050	0.015
-601.098	-200.000	-0.053	-0.329
-600.084	-25.697	-0.263	-0.155
-599.069	118.705	0.185	-0.228
-598.055	-50.785	0.294	0.139
-597.040	-127.655	0.303	-0.044
-596.025	-200.000	0.025	0.148
-595.011	-19.678	-0.112	0.069
-593.996	-13.503	-0.150	-0.097
-592.982	220.231	0.090	-0.144
-591.967	-200.000	0.004	-0.378
-590.952	-200.000	-0.002	-0.175
-589.938	601.351	-0.053	-0.133
-588.923	25.479	0.061	0.051
-587.909	-38.007	0.102	-0.054
-586.894	-200.000	-0.023	-0.143
-585.879	-200.000	-0.023	0.133
-584.865	-200.000	-0.011	0.128
-583.850	-108.016	0.132	0.029
-582.836	-29.551	0.002	0.001
-581.821	21.739	-0.150	-0.123
-580.806	-99.384	0.478	-0.120
-579.792	800.000	-0.077	-0.237
-578.777	40.074	-0.168	-0.151
-577.763	-169.983	0.573	-0.020
-576.748	-200.000	-0.038	-0.252
-575.733	-60.760	-0.137	-0.058
-574.719	-200.000	0.012	0.232
-573.704	41.513	-0.094	0.085
-572.690	-10.368	-0.066	0.044
-571.675	-9.233	0.189	-0.126
-570.661	542.304	0.081	0.192
-569.646	-27.820	0.412	-0.239
-568.631	-200.000	0.035	-0.164
-567.617	367.780	0.131	-0.265
-566.602	293.794	0.134	-0.244
-565.588	-40.023	-0.112	0.058
-564.573	-13.478	0.189	0.123
-563.558	800.000	0.110	0.388
-562.544	182.334	0.034	-0.050
-561.529	-109.147	-0.413	-0.088
-560.515	374.530	-0.187	0.380
-559.500	-200.000	-0.033	-0.414
-558.485	182.004	0.130	-0.191
-557.471	-26.545	0.270	0.158
-556.456	207.167	-0.126	-0.197
-555.442	-200.000	0.053	-0.312
-554.427	114.832	-0.103	0.125
-553.412	-105.170	0.246	-0.056
-552.398	546.611	-0.033	-0.078
-551.383	456.089	-0.126	-0.279
-550.369	-23.229	0.211	-0.127
-549.354	586.032	-0.071	0.174
-548.339	20.469	0.033	0.026
-547.325	90.493	0.219	-0.244
-546.310	-72.249	-0.212	-0.078
-545.296	-135.557	-0.195	0.023
-544.281	-138.324	-0.275	0.030
-543.266	-82.225	0.227	-0.074
-542.252	-66.593	-0.169	-0.067
-541.237	-28.062	-0.184	-0.106
-540.223	-200.000	0.006	-0.049
-539.208	-162.636	0.121	-0.006
-538.193	-106.670	0.089	0.020
-537.179	-121.911	-0.168	0.028
-536.164	-112.082	-0.368	-0.074
-535.150	-111.054	-0.116	0.024
-534.135	-98.800	0.224	0.057
-533.121	-155.045	0.168	0.011
-532.106	-200.000	-0.010	0.144
-531.091	69.955	0.165	0.170
-530.077	45.047	0.073	0.067
-529.062	53.396	0.206	-0.197
-528.048	12.781	0.042	0.032
-527.033	412.292	-0.041	-0.086
-526.018	11.379	-0.273	-0.209
-525.004	203.819	0.170	-0.263
-523.989	31.018	-0.084	-0.072
-522.975	22.540	0.178	0.146
-521.960	-200.000	0.002	0.337
-520.945	29.280	-0.238	0.202
-519.931	-124.794	-0.291	-0.045
-518.916	-200.000	0.016	-0.179
-517.902	-23.545	-0.119	0.071
-516.887	-66.181	0.141	0.056
-515.872	217.376	-0.164	-0.261
-514.858	468.545	0.122	-0.274
-513.843	243.263	-0.200	-0.335
-512.829	-23.805	-0.082	0.049
-511.814	586.802	-0.085	-0.209
-510.799	-123.727	0.123	-0.019
-509.785	28.646	0.165	0.139
-508.770	-53.062	0.344	-0.158
-507.756	642.818	-0.113	0.287
-506.741	3.889	-0.213	-0.155
-505.726	-81.984	0.378	-0.123
-504.712	-47.325	0.253	0.123
-503.697	-200.000	-0.025	-0.437
-502.683	-86.767	-0.191	0.058
-501.668	-200.000	-0.016	0.097
-500.653	-200.000	-0.021	0.133
-499.639	-200.000	0.005	0.130
-498.624	-200.000	-0.002	0.072
-497.610	800.000	-0.089	0.317
-496.595	-18.195	-0.295	-0.184
-495.581	59.290	0.244	-0.239
-494.566	21.424	-0.181	-0.146
-493.551	-75.375	-0.232	0.082
-492.537	-58.019	0.329	-0.143
-491.522	-42.720	-0.081	-0.041
-490.508	-200.000	0.044	0.272
-489.493	-99.153	0.338	0.085
-488.478	-186.962	0.194	0.003
-487.464	-27.612	-0.194	-0.112
-486.449	-106.033	-0.230	-0.051
-485.435	190.425	-0.143	-0.214
-484.420	20.470	-0.180	-0.145
-483.405	-85.324	-0.268	-0.083
-482.391	-129.811	-0.147	-0.020
-481.376	800.000	0.045	0.148
-480.362	62.169	0.093	-0.093
-479.347	-12.670	0.168	-0.109
-478.332	-31.210	0.056	-0.031
-477.318	20.236	-0.068	-0.055
-476.303	130.989	-0.376	-0.480
-475.289	800.000	-0.082	0.312
-474.274	16.789	-0.118	0.093
-473.259	46.273	0.182	0.168
-472.245	183.438	-0.019	-0.028
-471.230	5.091	0.138	-0.101
-470.216	108.153	0.082	-0.097
-469.201	123.644	0.095	0.119
-468.186	13.951	-0.052	0.040
-467.172	-200.000	0.056	-0.247
-466.157	209.157	-0.177	-0.277
-465.143	296.664	0.032	0.059
-464.128	800.000	-0.152	0.555
-463.113	-59.296	-0.140	0.060
-462.099	-149.394	0.141	-0.011
-461.084	329.067	0.031	-0.060
-460.070	-94.538	0.331	-0.090
-459.055	65.171	0.096	-0.096
-458.040	335.309	-0.099	-0.191
-457.026	-134.780	0.091	0.011
-456.011	65.955	0.160	-0.161
-454.997	-31.427	-0.351	0.196
-453.982	800.000	0.069	0.226
-452.968	60.988	-0.317	-0.313
-451.953	32.571	0.137	-0.118
-450.938	-37.508	-0.167	-0.089
-449.924	-103.629	0.316	-0.074
-448.909	-200.000	0.021	-0.110
-447.895	-37.272	0.142	-0.076
-446.880	-82.165	-0.530	0.172
-445.865	-144.732	-0.193	0.018
-444.851	-52.489	0.068	-0.031
-443.836	-9.443	0.252	0.168
-442.822	-180.586	0.204	-0.004
-441.807	65.306	0.126	0.127
-440.792	800.000	0.092	0.396
-439.778	-24.895	-0.272	0.161
-438.763	332.636	-0.095	-0.182
-437.749	-200.000	-0.028	0.259
-436.734	-200.000	0.053	0.262
-435.719	60.810	0.223	0.220
-434.705	719.791	0.143	0.378
-433.690	27.667	0.167	-0.139
-432.676	800.000	0.090	-0.378
-431.661	-200.000	-0.022	-0.411
-430.646	-200.000	0.018	-0.150
-429.632	-16.664	-0.407	0.256
-428.617	-73.087	0.179	-0.065
-427.603	41.501	-0.093	-0.084
-426.588	-86.526	-0.336	-0.102
-425.573	39.080	0.137	0.122
-424.559	10.315	-0.278	-0.210
-423.544	-5.832	0.251	0.171
-422.530	-98.072	0.184	-0.047
-421.515	154.328	-0.194	0.264
-420.500	245.168	0.062	0.103
-419.486	171.295	-0.045	0.065
-418.471	-134.420	-0.163	-0.020
-417.457	775.185	0.045	0.123
-416.442	-28.317	0.198	-0.114
-415.428	634.876	-0.038	-0.095
-414.413	790.897	-0.052	-0.143
-413.398	-10.713	0.041	0.027
-412.384	-200.000	0.004	-0.146
-411.369	-61.952	-0.089	-0.037
-410.355	57.424	-0.119	0.116
-409.340	-200.000	-0.057	0.345
-408.325	-13.158	0.196	0.126
-407.311	-200.000	-0.029	0.245
-406.296	202.535	-0.065	0.100
-405.282	-82.308	0.419	0.135
-404.267	333.223	0.078	-0.150
-403.252	-58.151	-0.352	-0.152
-402.238	-66.130	0.255	-0.101
-401.223	-104.029	0.095	0.022
-400.209	150.792	-0.163	-0.220
-399.194	327.407	0.118	-0.224
-398.179	780.042	-0.170	0.462
-397.165	-200.000	-0.007	0.112
-396.150	-200.000	0.060	-0.261
-395.136	104.742	0.118	-0.138
-394.121	49.674	0.189	0.177
-393.106	303.027	-0.033	0.061
-392.092	-97.336	-0.195	0.051
-391.077	-200.000	0.022	0.142
-390.063	150.761	0.198	-0.268
-389.048	-153.260	0.131	-0.009
-388.033	-153.075	-0.299	0.021
-387.019	415.963	0.099	0.210
-386.004	77.781	-0.121	0.128
-384.990	-70.440	0.166	0.062
-383.975	-200.000	-0.013	-0.221
-382.960	4.710	0.270	0.197
-381.946	216.566	0.050	-0.078
-380.931	-70.937	-0.324	-0.121
-379.917	-100.327	0.194	0.048
-378.902	-16.721	-0.069	-0.043
-377.888	67.266	-0.203	-0.205
-376.873	-200.000	0.042	0.303
-375.858	-200.000	-0.062	0.329
-374.844	-64.574	0.091	-0.036
-373.829	-67.875	0.423	-0.164
-372.815	46.004	0.377	0.346
-371.800	-200.000	-0.018	0.292
-370.785	60.648	-0.209	0.205
-369.771	-200.000	-0.005	-0.032
-368.756	62.103	-0.316	-0.312
-367.742	-109.078	-0.149	-0.031
-366.727	522.301	0.015	0.034
-365.712	-32.373	0.501	0.277
-364.698	-153.274	0.043	-0.003
-363.683	-200.000	-0.016	0.335
-362.669	-34.291	-0.208	0.113
-361.654	427.658	-0.051	-0.110
-360.639	-5.477	-0.214	0.145
-359.625	-200.000	0.002	0.075
-358.610	800.000	0.159	-0.482
-357.596	214.419	0.008	0.013
-356.581	-130.737	-0.124	-0.016
-355.566	279.947	0.069	-0.122
-354.552	-31.185	0.216	0.121
-353.537	-116.718	0.339	0.062
-352.523	513.302	-0.043	-0.100
-351.508	-10.102	0.205	-0.135
-350.493	490.573	-0.128	0.290
-349.479	-200.000	0.004	0.153
-348.464	-97.080	0.256	-0.066
-347.450	218.434	-0.109	-0.172
-346.435	-78.657	0.227	-0.077
-345.420	-89.746	0.445	-0.129
-344.406	640.464	0.098	0.248
-343.391	420.405	0.136	-0.289
-342.377	-200.000	0.017	0.179
-341.362	-200.000	-0.029	-0.181
-340.348	26.256	-0.244	0.202
-339.333	564.203	0.058	-0.140
-338.318	-82.485	0.176	-0.057
-337.304	-200.000	0.003	-0.100
-336.289	-41.204	-0.188	0.096
-335.275	-27.102	-0.151	-0.087
-334.260	-200.000	-0.042	0.351
-333.245	78.393	-0.367	-0.388
-332.231	-122.297	-0.278	-0.045
-331.216	800.000	0.078	0.338
-330.202	-200.000	-0.076	0.333
-329.187	-83.996	-0.204	-0.064
-328.172	-195.033	-0.255	-0.002
-327.158	124.336	-0.145	-0.181
-326.143	451.621	0.093	0.202
-325.129	37.518	0.202	0.177
-324.114	800.000	0.136	0.472
-323.099	140.602	-0.074	-0.097
-322.085	-63.887	0.126	0.051
-321.070	-200.000	0.018	0.145
-320.056	20.514	0.174	-0.139
-319.041	37.307	-0.153	-0.134
-318.026	442.340	-0.083	0.180
-317.012	800.000	-0.034	0.126
-315.997	163.403	-0.056	-0.077
-314.983	14.112	-0.023	0.018
-313.968	-200.000	-0.033	-0.152
-312.953	252.637	0.048	-0.081
-311.939	-151.733	0.208	-0.015
-310.924	148.321	-0.123	0.165
-309.910	51.097	0.058	-0.054
-308.895	386.408	-0.190	0.388
-307.880	800.000	0.086	0.288
-306.866	800.000	0.025	-0.084
-305.851	349.116	0.113	0.220
-304.837	257.800	-0.174	0.297
-303.822	128.680	0.196	-0.247
-302.807	800.000	-0.033	0.140
-301.793	-51.115	-0.127	0.059
-300.778	-47.638	-0.369	0.177
-299.764	-8.049	-0.321	-0.214
-298.749	-127.847	-0.327	0.047
-297.735	-36.229	-0.189	-0.101
-296.720	206.927	0.146	-0.225
-295.705	91.965	-0.169	-0.188
-294.691	-100.265	-0.333	-0.082
-293.676	800.000	0.075	0.320
-292.662	800.000	-0.074	0.305
-291.647	286.147	-0.190	-0.339
-290.632	181.236	0.101	0.147
-289.618	-200.000	-0.013	-0.173
-288.603	-55.161	-0.072	-0.032
-287.589	50.007	0.168	0.156
-286.574	93.767	0.033	0.037
-285.559	64.437	0.148	-0.147
-284.545	58.154	0.166	-0.161
-283.530	800.000	-0.178	0.537
-282.516	-200.000	-0.063	0.420
-281.501	-52.833	0.171	-0.078
-280.486	104.231	-0.282	-0.328
-279.472	141.499	0.262	-0.343
-278.457	-200.000	0.043	-0.204
-277.443	411.340	0.081	0.170
-276.428	-47.842	-0.132	0.063
-275.413	155.037	0.331	0.450
-274.399	83.744	0.220	0.237
-273.384	-200.000	0.024	0.218
-272.370	-84.726	0.300	0.093
-271.355	-200.000	0.014	0.242
-270.340	23.298	0.310	0.252
-269.326	-2.874	0.126	0.087
-268.311	-104.418	0.095	0.022
-267.297	178.653	-0.092	-0.133
-266.282	65.158	0.199	-0.199
-265.267	-158.468	-0.132	-0.008
-264.253	-127.932	-0.120	0.017
-263.238	27.789	0.171	0.143
-262.224	-103.232	0.331	-0.077
-261.209	71.137	-0.364	-0.373
-260.195	373.333	-0.179	0.359
-259.180	-116.875	-0.241	-0.044
-258.165	-50.134	0.229	-0.107
-257.151	301.748	0.055	0.100
-256.136	71.014	0.170	0.174
-255.122	-73.625	-0.226	0.081
-254.107	-20.560	0.180	0.109
-253.092	-75.668	-0.134	-0.047
-252.078	180.842	0.143	-0.208
-251.063	-134.826	0.154	0.018
-250.049	330.394	-0.067	0.127
-249.034	24.707	-0.261	0.213
-248.019	86.598	0.147	-0.160
-247.005	-1.042	-0.237	-0.166
-245.990	-135.981	0.166	0.019
-244.976	-168.482	-0.432	0.016
-243.961	-200.000	-0.028	0.127
-242.946	-177.794	-0.325	-0.008
-241.932	283.001	-0.144	0.255
-240.917	-159.525	-0.108	-0.006
-239.903	215.135	-0.116	0.181
-238.888	-108.876	-0.153	0.032
-237.873	514.113	-0.027	0.061
-236.859	800.000	0.054	0.212
-235.844	-69.082	0.188	-0.071
-234.830	-41.062	0.124	-0.063
-233.815	-37.004	-0.123	-0.065
-232.800	-174.409	0.261	0.007
-231.786	9.982	-0.220	-0.165
-230.771	-200.000	-0.070	0.376
-229.757	-200.000	-0.066	0.307
-228.742	-133.154	-0.233	-0.029
-227.727	78.884	0.212	0.224
-226.713	-98.678	-0.275	0.069
-225.698	3.781	-0.093	0.067
-224.684	405.123	-0.155	-0.322
-223.669	-118.008	-0.104	-0.018
-222.655	-48.564	-0.320	0.152
-221.640	-85.081	-0.162	-0.050
-220.625	-200.000	0.013	-0.193
-219.611	170.801	-0.225	0.317
-218.596	244.272	0.126	-0.209
-217.582	-200.000	0.014	-0.202
-216.567	800.000	0.115	-0.376
-215.552	320.822	-0.104	-0.194
-214.538	671.514	0.033	-0.085
-213.523	372.602	0.080	-0.160
-212.509	-63.129	0.155	-0.063
-211.494	14.080	-0.191	-0.146
-210.479	155.167	-0.176	0.239
-209.465	34.677	0.223	0.192
-208.450	800.000	0.081	0.312
-207.436	-42.010	0.279	0.141
-206.421	270.150	0.096	0.166
-205.406	-22.616	0.131	0.078
-204.392	-21.216	0.164	0.099
-203.377	-83.668	0.201	-0.063
-202.363	118.410	0.093	-0.113
-201.348	800.000	0.066	0.215
-200.333	-15.231	-0.232	0.147
-199.319	-200.000	0.029	0.175
-198.304	800.000	-0.025	0.084
-197.290	33.202	-0.356	-0.305
-196.275	47.693	-0.079	-0.073
-195.260	-200.000	0.058	-0.304
-194.246	-92.177	0.288	-0.080
-193.231	99.518	-0.222	0.253
-192.217	-83.188	0.288	-0.091
-191.202	-82.948	0.116	-0.037
-190.187	42.791	-0.202	-0.182
-189.173	768.739	0.068	-0.181
-188.158	-200.000	-0.009	-0.099
-187.144	322.968	0.088	-0.166
-186.129	54.409	-0.312	-0.296
-185.114	279.907	0.040	0.070
-184.100	800.000	-0.075	-0.253
-183.085	352.828	0.131	0.255
-182.071	-171.333	0.211	-0.007
-181.056	800.000	-0.058	0.173
-180.042	66.316	0.171	-0.171
-179.027	-94.461	0.252	0.068
-178.012	800.000	0.122	0.498
-176.998	-60.648	0.396	-0.166
-175.983	-200.000	-0.026	-0.211
-174.969	-71.016	0.278	-0.103
-173.954	-114.979	-0.158	-0.030
-172.939	-98.890	0.082	0.021
-171.925	-151.983	0.508	-0.036
-170.910	8.280	-0.347	-0.256
-169.896	127.744	-0.030	0.038
-168.881	56.292	0.186	-0.178
-167.866	-200.000	-0.024	-0.119
-166.852	115.388	0.025	0.030
-165.837	-89.263	0.190	-0.055
-164.823	-56.982	0.227	0.099
-163.808	11.756	0.139	0.105
-162.793	-140.682	0.465	-0.047
-161.779	-188.832	-0.148	0.002
-160.764	-35.690	-0.359	-0.192
-159.750	800.000	0.017	0.053
-158.735	400.157	-0.042	-0.086
-157.720	59.278	-0.057	0.056
-156.706	-136.257	-0.204	-0.023
-155.691	89.539	0.151	-0.166
-154.677	162.510	0.160	0.220
-153.662	-200.000	-0.057	-0.276
-152.647	-71.511	-0.226	0.083
-151.633	383.367	0.064	0.129
-150.618	-200.000	-0.097	-0.000
-149.604	800.000	-0.023	0.070
-148.589	-165.889	0.208	-0.009
-147.574	4.345	0.092	-0.066
-146.560	216.761	-0.139	0.218
-145.545	-103.397	0.288	0.067
-144.531	800.000	-0.125	0.378
-143.516	50.449	0.276	-0.256
-142.502	83.724	0.254	-0.272
-141.487	-83.303	0.111	-0.035
-140.472	800.000	-0.058	0.208
-139.458	-62.571	0.231	-0.094
-138.443	-200.000	0.008	0.136
-137.429	88.797	-0.117	-0.128
-136.414	-200.000	-0.002	0.455
-135.399	427.770	0.061	-0.130
-134.385	-136.617	0.394	0.045
-133.370	-19.222	0.201	-0.123
-132.356	800.000	0.077	0.307
-131.341	160.456	-0.153	-0.210
-130.326	-52.636	-0.202	-0.092
-129.312	-150.048	0.384	0.029
-128.297	114.932	-0.289	0.346
-127.283	-200.000	0.003	-0.110
-126.268	-148.569	0.146	0.012
-125.253	-62.204	0.196	-0.080
-124.239	293.824	0.178	0.319
-123.224	-162.522	0.300	-0.015
-122.210	800.000	0.047	-0.169
-121.195	-35.561	0.374	0.199
-120.180	-109.725	0.479	0.099
-119.166	-4.840	-0.327	-0.221
-118.151	469.345	0.039	0.086
-117.137	8.920	0.101	0.075
-116.122	-200.000	0.021	-0.261
-115.107	640.198	0.056	0.140
-114.093	-120.303	-0.305	0.051
-113.078	37.448	-0.256	0.223
-112.064	-200.000	-0.004	0.121
-111.049	-119.834	-0.246	0.042
-110.034	1.039	0.101	0.071
-109.020	232.721	0.045	0.072
-108.005	6.802	-0.106	-0.078
-106.991	138.438	0.207	0.267
-105.976	96.656	0.179	0.201
-104.962	30.022	-0.229	0.191
-103.947	-169.604	0.191	0.007
-102.932	-84.712	-0.317	0.098
-101.918	585.636	0.041	0.100
-100.903	-169.817	0.172	-0.006
-99.889	218.511	-0.177	-0.278
-98.874	3.585	0.300	0.215
-97.859	526.725	-0.174	0.402
-96.845	490.258	-0.041	0.092
-95.830	685.680	0.017	0.044
-94.816	-69.492	-0.206	0.077
-93.801	84.826	-0.116	-0.124
-92.786	280.825	-0.161	0.282
-91.772	-148.363	-0.307	0.025
-90.757	119.619	-0.047	0.058
-89.743	-7.823	0.138	0.091
-88.728	60.715	0.118	0.114
-87.713	-86.494	-0.268	-0.081
-86.699	-113.856	0.265	-0.051
-85.684	174.723	-0.170	0.241
-84.670	800.000	-0.063	-0.178
-83.655	-29.209	0.124	-0.070
-82.640	-68.380	0.225	0.086
-81.626	-148.118	-0.126	0.010
-80.611	-167.856	0.400	-0.015
-79.597	508.904	-0.115	0.261
-78.582	800.000	0.015	-0.054
-77.567	-96.250	-0.185	0.048
-76.553	82.619	0.064	0.068
-75.538	-96.251	0.184	-0.048
-74.524	176.631	0.081	-0.116
-73.509	800.000	-0.018	-0.075
-72.494	-200.000	-0.042	-0.270
-71.480	112.604	0.175	0.208
-70.465	-53.243	-0.260	-0.117
-69.451	6.739	-0.079	0.058
-68.436	-200.000	0.007	0.374
-67.422	-27.840	0.070	-0.040
-66.407	-200.000	0.059	-0.268
-65.392	44.301	-0.332	-0.299
-64.378	-34.564	0.027	-0.014
-63.363	-113.384	-0.195	0.038
-62.349	115.768	0.163	-0.195
-61.334	54.498	-1.094	-1.033
-60.319	45.674	0.548	0.496
-59.305	800.000	-0.244	-0.934
-58.290	208.121	0.679	1.040
-57.276	467.424	0.676	1.484
-56.261	-200.000	105.842	612.260
-55.246	503.936	1507.383	3417.032
-54.232	176.227	2701.288	3843.615
-53.217	112.014	2165.972	2563.616
-52.203	41.661	1598.931	1418.970
-51.188	33.072	1332.861	1131.646
-50.173	29.925	1290.986	1077.762
-49.159	54.468	1344.975	1269.305
-48.144	54.830	1360.544	1286.096
-47.130	33.265	1315.061	1117.497
-46.115	29.714	1298.070	1082.269
-45.100	29.524	1293.284	1077.127
-44.086	29.520	1289.991	1074.316
-43.071	29.479	1287.456	1071.929
-42.057	29.423	1285.464	1069.902
-41.042	29.410	1284.456	1068.944
-40.027	29.499	1282.806	1068.045
-39.013	29.474	1280.812	1066.197
-37.998	29.540	1279.154	1065.156
-36.984	29.546	1276.991	1063.348
-35.969	29.591	1275.248	1062.113
-34.954	29.576	1273.454	1060.492
-33.940	29.613	1272.788	1060.107
-32.925	29.640	1270.958	1058.693
-31.911	29.626	1269.918	1057.704
-30.896	29.657	1268.516	1056.674
-29.881	29.657	1266.849	1055.242
-28.867	29.655	1265.011	1053.660
-27.852	29.740	1263.710	1053.017
-26.838	29.694	1262.749	1051.913
-25.823	29.599	1261.374	1050.186
-24.809	29.633	1260.072	1049.250
-23.794	29.549	1259.339	1048.124
-22.779	29.644	1257.415	1047.018
-21.765	29.681	1255.980	1045.991
-20.750	29.670	1255.002	1045.077
-19.736	29.582	1253.264	1043.089
-18.721	29.510	1252.223	1041.774
-17.706	29.563	1251.165	1041.150
-16.692	29.515	1250.674	1040.433
-15.677	29.521	1249.243	1039.235
-14.663	29.517	1248.244	1038.337
-13.648	29.521	1246.859	1037.170
-12.633	29.500	1246.267	1036.513
-11.619	29.464	1245.327	1035.490
-10.604	29.487	1244.431	1034.834
-9.590	29.521	1243.120	1033.891
-8.575	29.414	1242.899	1033.067
-7.560	29.462	1241.589	1032.208
-6.546	29.491	1240.637	1031.539
-5.531	29.489	1239.825	1030.808
-4.517	29.560	1238.829	1030.336
-3.502	29.564	1238.215	1029.807
-2.487	29.499	1236.899	1028.311
-1.473	29.336	1232.798	1023.957
-0.458	28.102	1218.102	1004.933
0.556	22.324	1201.363	968.185
1.571	18.837	1206.372	952.829
2.586	18.123	1220.384	959.803
3.600	18.014	1210.189	951.094
4.615	13.511	1139.922	872.131
5.629	4.663	1065.187	771.168
6.644	0.147	1045.003	734.487
7.659	-0.306	1042.201	730.253
8.673	-0.354	1040.996	729.108
9.688	-0.565	1040.052	727.358
10.702	0.068	1038.457	729.249
11.717	6.193	1046.886	764.965
12.731	15.131	1059.947	818.292
13.746	19.586	1065.441	844.288
14.761	20.649	1066.217	850.028
15.775	20.629	1065.668	849.413
16.790	20.472	1065.105	848.123
17.804	20.423	1064.330	847.196
18.819	20.428	1064.017	846.896
19.834	20.535	1063.823	847.189
20.848	20.568	1063.269	846.829
21.863	20.578	1062.475	846.172
22.877	20.438	1062.097	845.114
23.892	20.383	1061.626	844.398
24.907	20.512	1060.385	843.965
25.921	20.633	1059.044	843.409
26.936	20.511	1058.004	841.913
27.950	20.445	1055.954	839.890
28.965	20.395	1054.460	838.383
29.980	20.401	1052.426	836.724
30.994	20.486	1051.715	836.495
32.009	20.560	1051.101	836.284
33.023	20.336	1049.484	833.849
34.038	20.504	1048.670	833.934
35.053	20.610	1048.271	834.055
36.067	20.624	1046.939	832.986
37.082	20.691	1046.301	832.726
38.096	20.824	1045.663	832.782
39.111	20.893	1045.180	832.653
40.126	20.724	1043.690	830.585
41.140	20.396	1041.857	827.491
42.155	20.204	1040.710	825.591
43.169	20.238	1039.729	824.900
44.184	20.314	1038.472	824.194
45.199	20.287	1037.325	823.081
46.213	20.214	1036.874	822.304
47.228	20.279	1036.204	822.009
48.242	20.414	1034.962	821.591
49.257	20.539	1034.358	821.627
50.271	20.637	1033.098	821.017
51.286	20.556	1032.680	820.230
52.301	20.661	1031.646	819.829
53.315	20.513	1030.637	818.258
54.330	20.502	1029.920	817.568
55.344	20.657	1029.132	817.596
56.359	20.569	1028.347	816.489
57.374	20.420	1027.049	814.685
58.388	20.351	1026.442	813.809
59.403	20.390	1025.404	813.098
60.417	20.176	1024.536	811.335
61.432	20.299	1023.941	811.366
62.447	20.304	1023.646	811.088
63.461	20.461	1022.734	811.023
64.476	20.266	1021.499	809.062
65.490	20.268	1020.708	808.377
66.505	20.401	1019.844	808.240
67.520	20.331	1019.173	807.309
68.534	20.170	1018.394	805.872
69.549	19.875	1016.871	803.229
70.563	19.858	1016.283	802.615
71.578	19.776	1015.666	801.672
72.593	19.792	1014.448	800.718
73.607	20.038	1013.841	801.305
74.622	20.231	1013.594	801.931
75.636	20.263	1012.709	801.307
76.651	20.126	1011.954	800.007
77.666	20.019	1011.181	798.832
78.680	20.069	1010.902	798.772
79.695	20.158	1010.154	798.520
80.709	20.366	1009.004	798.496
81.724	20.067	1008.465	796.624
82.739	20.267	1007.118	796.408
83.753	20.595	1007.195	797.902
84.768	20.912	1006.068	798.391
85.782	21.007	1005.126	798.007
86.797	20.828	1003.514	795.842
87.812	20.730	1002.637	794.627
88.826	20.668	1002.528	794.190
89.841	20.784	1001.451	793.795
90.855	20.817	1000.620	793.215
91.870	20.751	999.624	792.053
92.884	20.705	998.286	790.714
93.899	20.550	997.360	789.207
94.914	20.778	997.019	789.906
95.928	20.524	995.878	787.778
96.943	20.295	994.586	785.650
97.957	20.278	992.669	783.992
98.972	20.094	991.948	782.520
99.987	20.393	991.361	783.339
101.001	20.508	990.635	783.213
102.016	20.468	989.604	782.147
103.030	20.379	988.893	781.117
104.045	20.227	988.051	779.699
105.060	20.158	986.697	778.254
106.074	20.308	986.235	778.493
107.089	20.689	985.762	779.757
108.103	20.577	985.001	778.582
109.118	20.315	983.742	776.347
110.133	20.440	982.392	775.774
111.147	20.068	981.339	773.214
112.162	19.934	980.605	771.969
113.176	20.182	979.692	772.288
114.191	20.238	978.578	771.587
115.206	19.923	977.527	769.295
116.220	19.978	976.594	768.734
117.235	19.994	976.100	768.348
118.249	20.024	975.137	767.655
119.264	20.040	974.359	767.045
120.279	19.984	973.391	765.966
121.293	20.188	972.315	765.957
122.308	20.226	971.369	765.311
123.322	20.051	970.251	763.589
124.337	19.841	969.416	761.938
125.352	19.402	967.543	758.470
126.366	19.445	966.765	757.985
127.381	20.244	966.354	761.101
128.395	20.544	966.179	762.209
129.410	20.640	965.229	761.814
130.424	20.487	963.822	759.968
131.439	20.471	962.813	759.034
132.454	20.561	961.862	758.609
133.468	20.505	960.766	757.436
134.483	20.562	960.743	757.599
135.497	20.848	959.919	758.128
136.512	20.843	958.858	757.201
137.527	20.695	958.227	755.992
138.541	20.840	956.960	755.553
139.556	20.772	956.776	755.048
140.570	20.719	956.165	754.268
141.585	20.829	954.913	753.690
142.600	20.709	953.634	752.094
143.614	21.057	953.084	753.099
144.629	21.039	952.342	752.369
145.643	20.870	951.059	750.558
146.658	20.719	949.618	748.705
147.673	20.753	948.522	747.923
148.687	20.574	947.685	746.429
149.702	20.516	946.890	745.485
150.716	20.506	946.048	744.713
151.731	20.785	945.099	745.094
152.746	20.832	945.095	745.228
153.760	20.943	944.047	744.810
154.775	21.148	943.127	744.894
155.789	20.991	942.691	743.812
156.804	20.928	941.563	742.588
157.819	20.898	940.838	741.823
158.833	20.990	940.203	741.650
159.848	21.050	938.790	740.725
160.862	20.684	938.347	738.755
161.877	20.973	937.370	739.144
162.892	21.083	936.380	738.765
163.906	20.909	935.145	736.991
164.921	20.992	934.139	736.481
165.935	21.114	933.289	736.262
166.950	21.033	932.245	735.032
167.964	20.918	931.565	733.945
168.979	20.760	930.952	732.732
169.994	20.775	929.837	731.854
171.008	20.929	929.430	732.116
172.023	20.902	928.480	731.188
173.037	20.766	926.606	729.080
174.052	20.620	926.248	728.121
175.067	20.639	925.483	727.538
176.081	21.009	924.957	728.603
177.096	20.809	924.036	726.980
178.110	20.472	923.478	725.072
179.125	20.157	922.812	723.171
180.140	20.207	922.576	723.130
181.154	20.522	922.291	724.154
182.169	20.815	922.121	725.178
183.183	20.941	921.517	725.162
184.198	20.852	920.235	723.721
185.213	20.901	919.569	723.337
186.227	20.917	919.178	723.031
187.242	20.869	918.402	722.156
188.256	20.912	917.750	721.756
189.271	20.970	917.240	721.533
190.286	20.788	916.059	719.790
191.300	20.061	914.563	715.548
192.315	19.571	912.596	711.927
193.329	19.477	912.397	711.320
194.344	20.184	913.092	714.714
195.359	20.734	912.874	716.746
196.373	20.882	911.981	716.589
197.388	20.760	911.376	715.549
198.402	20.740	911.023	715.129
199.417	20.711	910.113	714.230
200.432	20.457	909.456	712.608
201.446	20.332	908.365	711.182
202.461	20.502	907.587	711.202
203.475	19.568	905.899	706.002
204.490	18.901	904.274	701.948
205.504	19.899	904.615	706.225
206.519	20.456	904.639	708.456
207.534	20.496	904.397	708.366
208.548	21.021	904.184	710.273
209.563	20.735	903.140	708.227
210.577	20.621	902.922	707.530
211.592	20.947	902.303	708.308
212.607	20.867	901.465	707.263
213.621	21.005	900.871	707.292
214.636	20.978	900.401	706.755
215.650	21.031	899.350	706.080
216.665	20.903	899.083	705.288
217.680	20.902	898.065	704.426
218.694	20.516	896.925	701.911
219.709	20.414	896.423	701.045
220.723	20.677	895.689	701.467
221.738	20.664	895.385	701.114
222.753	20.825	894.841	701.276
223.767	20.908	894.308	701.129
224.782	21.144	893.823	701.636
225.796	21.099	893.278	700.964
226.811	20.427	891.628	696.914
227.826	19.865	890.726	693.893
228.840	20.039	889.925	693.905
229.855	20.092	889.196	693.486
230.869	19.834	888.206	691.622
231.884	20.184	888.440	693.144
232.899	20.868	888.505	695.866
233.913	20.734	887.417	694.419
234.928	20.791	886.934	694.207
235.942	20.645	886.265	693.038
236.957	20.478	885.329	691.579
237.972	20.536	884.906	691.420
238.986	20.557	884.317	690.983
240.001	20.547	883.594	690.317
241.015	20.703	882.927	690.351
242.030	20.779	882.441	690.214
243.045	20.879	881.989	690.193
244.059	21.118	881.600	690.774
245.074	20.808	880.980	689.002
246.088	20.446	879.661	686.481
247.103	20.845	879.225	687.654
248.117	21.304	879.474	689.600
249.132	21.449	878.719	689.517
250.147	21.408	878.458	689.090
251.161	21.620	877.771	689.326
252.176	21.799	877.009	689.369
253.190	21.733	876.875	688.944
254.205	21.815	875.976	688.498
255.220	21.794	875.785	688.206
256.234	21.684	874.600	686.784
257.249	21.589	873.564	685.534
258.263	21.606	873.301	685.335
259.278	21.630	873.089	685.203
260.293	21.721	872.208	684.804
261.307	21.659	871.325	683.811
262.322	21.449	870.088	681.960
263.336	20.592	868.329	677.187
264.351	19.670	866.521	672.131
265.366	19.776	866.326	672.331
266.380	20.949	866.813	677.212
267.395	21.499	866.390	678.954
268.409	21.251	865.729	677.416
269.424	21.443	865.594	677.995
270.439	21.421	865.068	677.437
271.453	21.619	863.880	677.214
272.468	21.700	864.099	677.636
273.482	21.801	863.486	677.490
274.497	21.328	862.346	674.709
275.512	21.125	861.466	673.174
276.526	21.343	861.742	674.173
277.541	21.557	861.027	674.381
278.555	21.316	860.084	672.655
279.570	21.047	859.323	670.965
280.585	21.203	858.849	671.132
281.599	21.404	857.787	671.017
282.614	20.868	856.304	667.744
283.628	20.878	855.708	667.258
284.643	21.129	855.974	668.369
285.657	20.659	854.918	665.687
286.672	20.501	853.888	664.222
287.687	21.059	853.593	666.064
288.701	21.066	853.129	665.670
289.716	20.784	852.450	664.005
290.730	20.660	852.035	663.151
291.745	20.309	850.877	660.854
292.760	20.727	850.718	662.261
293.774	21.713	851.063	666.224
294.789	22.135	850.452	667.291
295.803	22.114	850.107	666.882
296.818	22.125	849.526	666.408
297.833	21.531	848.427	663.237
298.847	21.410	848.122	662.481
299.862	21.830	847.594	663.600
300.876	22.082	847.399	664.340
301.891	21.797	846.574	662.558
302.906	21.586	845.278	660.691
303.920	21.762	844.648	660.801
304.935	21.894	845.200	661.673
305.949	21.720	844.657	660.535
306.964	21.607	843.467	659.121
307.979	21.935	843.110	660.017
308.993	22.049	843.001	660.301
310.008	22.167	842.304	660.141
311.022	21.929	841.608	658.642
312.037	21.798	840.685	657.372
313.052	21.514	839.752	655.518
314.066	20.582	838.825	651.247
315.081	20.503	837.935	650.203
316.095	21.302	838.260	653.388
317.110	21.665	838.105	654.567
318.125	20.948	836.365	650.475
319.139	19.909	835.084	645.547
320.154	20.044	834.454	645.507
321.168	20.793	834.929	648.607
322.183	21.403	834.819	650.737
323.197	21.462	834.872	650.942
324.212	21.667	834.500	651.356
325.227	21.853	834.001	651.599
326.241	21.849	832.704	650.512
327.256	21.720	832.321	649.676
328.270	21.516	831.808	648.466
329.285	21.367	830.872	647.127
330.300	21.375	829.906	646.345
331.314	21.316	830.140	646.252
332.329	21.826	829.877	647.877
333.343	21.955	829.181	647.752
334.358	21.926	828.775	647.269
335.373	21.817	828.937	646.938
336.387	22.265	828.326	648.053
337.402	22.235	828.460	647.991
338.416	22.139	828.067	647.271
339.431	22.299	827.517	647.374
340.446	22.572	826.793	647.752
341.460	22.283	826.865	646.691
342.475	22.078	825.976	645.184
343.489	22.369	825.666	645.954
344.504	22.488	825.292	646.042
345.519	22.662	825.027	646.414
346.533	22.783	824.529	646.408
347.548	22.644	824.215	645.597
348.562	22.709	823.883	645.519
349.577	22.677	822.823	644.512
350.592	22.739	821.978	644.020
351.606	22.534	821.765	643.048
352.621	22.508	820.908	642.225
353.635	22.446	820.078	641.296
354.650	21.718	818.592	637.428
355.665	20.939	816.819	633.162
356.679	21.313	817.167	634.737
357.694	21.601	816.786	635.428
358.708	21.649	815.830	634.801
359.723	21.938	815.845	635.806
360.738	22.448	815.662	637.455
361.752	22.481	814.773	636.821
362.767	22.698	814.696	637.491
363.781	22.888	814.652	638.085
364.796	23.004	814.014	637.949
365.810	22.924	813.619	637.294
366.825	22.940	813.245	636.999
367.840	22.665	812.337	635.243
368.854	22.331	811.527	633.353
369.869	22.313	811.147	632.934
370.883	22.342	810.701	632.636
371.898	22.223	810.151	631.723
372.913	22.455	809.735	632.176
373.927	22.652	809.241	632.441
374.942	22.587	808.829	631.829
375.956	22.756	808.434	632.068
376.971	22.846	808.305	632.234
377.986	23.006	807.942	632.467
379.000	22.889	807.141	631.365
380.015	22.788	806.601	630.526
381.029	22.944	805.961	630.529
382.044	23.072	805.509	630.576
383.059	23.115	804.971	630.250
384.073	22.915	804.597	629.191
385.088	22.979	804.198	629.051
386.102	22.855	803.400	627.929
387.117	22.861	802.320	627.053
388.132	22.556	801.104	624.963
389.146	21.855	800.898	622.262
390.161	22.377	800.500	623.748
391.175	22.656	800.440	624.633
392.190	22.353	799.330	622.643
393.205	21.120	797.314	616.663
394.219	19.694	795.648	610.289
395.234	19.774	795.449	610.362
396.248	21.351	796.900	616.992
397.263	22.653	797.536	622.026
398.278	22.507	797.224	621.214
399.292	22.421	796.553	620.333
400.307	22.334	795.898	619.460
401.321	22.532	795.791	620.022
402.336	22.933	795.353	621.034
403.350	23.177	795.478	621.935
404.365	23.439	795.217	622.597
405.380	23.639	795.158	623.198
406.394	23.677	794.362	622.652
407.409	23.623	793.802	621.968
408.423	23.500	793.604	621.328
409.438	23.566	793.543	621.454
410.453	23.721	792.605	621.209
411.467	23.613	792.159	620.427
412.482	23.688	791.490	620.108
413.496	23.645	791.603	619.993
414.511	23.607	791.175	619.471
415.526	23.765	790.425	619.379
416.540	23.468	789.610	617.650
417.555	23.463	788.678	616.850
418.569	23.328	788.870	616.476
419.584	23.267	788.303	615.764
420.599	23.181	787.593	614.859
421.613	157.637	1365.177	1797.253
422.628	136.416	1449.323	1797.325
