DTS Sentinel unit serial number:	SN413079Multiplexer serial number:	ORYXHardware model number:	OX4-SRSoftware version number:	ORYX F/W v4.00 Oryx Data Collector v3.7.2.0data status	okinstallation	princeton_trtdifferential loss correction	single-endedforward channel	channel 1reverse channel	N/Adate	2019/09/11time	18:24:11forward acquisition time	60.00reverse acquisition time	0.00gamma	496.2192k internal	0.2290k external	0.2290temperature offset calibration	1.0005default loss term (dB/km)	0.3790temperature slope calibration	1.0000multiplexer offset coefficient	1.0000multiplexer slope coefficient	1.0000fibre end	0.00T internal ref (°C)	43.94T ext. ref 1 (°C)	1.15T ext. ref 2 (°C)	38.18length (m)	temperature (°C)	Stokes	anti-Stokes-747.200	-14.922	-0.112	0.074
-746.185	-32.482	-0.173	0.099
-745.171	-110.465	-0.147	0.031
-744.156	-87.476	-0.069	-0.021
-743.142	629.832	-0.055	0.143
-742.127	163.312	0.063	-0.091
-741.112	-73.221	-0.225	-0.084
-740.098	542.784	-0.094	0.231
-739.083	800.000	-0.012	-0.048
-738.069	24.219	0.399	0.338
-737.054	-16.157	-0.208	0.135
-736.039	736.648	0.063	0.174
-735.025	-27.823	0.121	0.072
-734.010	-156.746	-0.190	-0.012
-732.996	-97.162	0.130	-0.035
-731.981	220.551	-0.235	-0.386
-730.966	-86.582	0.414	-0.130
-729.952	252.150	0.020	0.035
-728.937	153.540	-0.145	-0.203
-727.923	-122.758	0.253	-0.042
-726.908	547.108	-0.171	0.420
-725.894	-200.000	-0.001	0.062
-724.879	-46.661	-0.571	0.286
-723.864	228.979	0.107	0.178
-722.850	-37.567	0.321	-0.175
-721.835	91.394	0.165	-0.190
-720.821	-200.000	0.030	0.194
-719.806	-12.812	0.116	0.077
-718.791	-103.686	-0.098	-0.024
-717.777	-13.450	-0.144	-0.095
-716.762	59.844	-0.249	0.251
-715.748	-200.000	-0.011	0.349
-714.733	-41.755	-0.263	-0.138
-713.718	-66.944	0.248	-0.100
-712.704	800.000	-0.136	-0.533
-711.689	-54.380	0.191	0.089
-710.675	-26.287	-0.494	0.296
-709.660	367.016	-0.127	0.263
-708.645	57.484	0.107	-0.107
-707.631	-200.000	0.013	-0.186
-706.616	-200.000	-0.007	-0.212
-705.602	-135.615	0.254	-0.031
-704.587	68.779	0.141	0.148
-703.572	800.000	0.099	0.323
-702.558	-200.000	0.041	0.257
-701.543	251.562	-0.186	-0.324
-700.529	3.816	0.095	-0.071
-699.514	800.000	0.035	-0.113
-698.499	800.000	0.028	-0.103
-697.485	800.000	-0.201	-0.570
-696.470	-200.000	0.010	-0.045
-695.456	117.932	-0.108	0.136
-694.441	-72.601	0.291	0.110
-693.426	72.987	0.267	-0.285
-692.412	-81.662	-0.189	-0.063
-691.397	-53.691	-0.214	-0.100
-690.383	-118.672	-0.492	-0.089
-689.368	-38.153	-0.050	0.027
-688.354	-11.486	0.116	0.078
-687.339	2.664	0.085	-0.063
-686.324	25.675	0.239	-0.203
-685.310	-74.473	0.135	-0.050
-684.295	25.115	0.228	-0.193
-683.281	634.984	-0.197	-0.511
-682.266	410.071	-0.092	0.198
-681.251	248.556	0.217	0.375
-680.237	-53.864	0.020	0.009
-679.222	-200.000	-0.026	0.115
-678.208	111.212	0.241	-0.296
-677.193	87.245	-0.076	0.086
-676.178	730.402	-0.127	-0.347
-675.164	-60.503	0.111	0.048
-674.149	399.751	-0.028	0.059
-673.135	-200.000	0.022	-0.291
-672.120	-200.000	-0.015	0.120
-671.105	-78.716	0.232	0.081
-670.091	-200.000	0.080	0.388
-669.076	-200.000	-0.053	0.374
-668.062	-41.176	0.263	0.139
-667.047	-93.045	0.256	0.073
-666.032	108.688	0.114	0.139
-665.018	-99.761	0.196	0.050
-664.003	418.330	-0.042	0.093
-662.989	-19.743	0.052	-0.033
-661.974	-105.009	-0.223	-0.052
-660.959	-173.527	-0.144	-0.004
-659.945	178.600	0.203	-0.303
-658.930	-69.723	0.108	-0.042
-657.916	45.895	-0.322	-0.304
-656.901	-161.651	-0.164	-0.009
-655.886	510.742	-0.033	-0.078
-654.872	-200.000	0.034	-0.359
-653.857	-106.437	0.228	0.052
-652.843	405.620	0.144	0.310
-651.828	-1.219	-0.208	0.150
-650.814	-75.704	-0.268	-0.097
-649.799	-95.474	-0.241	-0.066
-648.784	64.596	-0.130	0.134
-647.770	800.000	-0.038	0.145
-646.755	36.737	0.272	0.245
-645.741	-200.000	-0.035	0.270
-644.726	-200.000	0.047	0.273
-643.711	-200.000	-0.007	-0.165
-642.697	-161.672	-0.112	0.006
-641.682	-5.625	-0.170	0.119
-640.668	-200.000	-0.030	-0.249
-639.653	129.173	0.060	0.078
-638.638	-200.000	-0.030	-0.150
-637.624	-200.000	0.012	-0.125
-636.609	-200.000	-0.018	0.204
-635.595	800.000	-0.035	0.145
-634.580	671.444	0.068	0.181
-633.565	58.502	-0.079	-0.079
-632.551	-200.000	-0.034	-0.356
-631.536	50.564	0.206	0.198
-630.522	-113.900	0.211	0.042
-629.507	-200.000	-0.015	0.238
-628.492	-200.000	-0.011	-0.063
-627.478	-11.050	-0.197	-0.133
-626.463	86.627	-0.022	0.025
-625.449	475.048	0.096	0.220
-624.434	-200.000	0.017	0.096
-623.419	18.138	-0.082	-0.067
-622.405	-80.762	-0.297	-0.101
-621.390	-200.000	0.016	0.258
-620.376	-90.438	-0.189	0.056
-619.361	800.000	-0.047	0.158
-618.346	-43.838	-0.095	-0.049
-617.332	-39.698	-0.089	0.048
-616.317	-200.000	0.012	-0.176
-615.303	248.700	-0.102	0.175
-614.288	-135.842	-0.288	-0.035
-613.273	-139.092	0.212	0.023
-612.259	800.000	-0.051	-0.177
-611.244	-9.457	-0.175	-0.119
-610.230	593.092	-0.114	-0.287
-609.215	-117.913	-0.126	0.023
-608.201	-39.223	0.249	-0.133
-607.186	465.804	0.100	-0.228
-606.171	-68.830	0.114	0.045
-605.157	109.323	-0.129	0.157
-604.142	2.525	-0.197	-0.145
-603.128	8.965	-0.268	-0.206
-602.113	-16.291	-0.360	0.233
-601.098	-200.000	0.074	-0.332
-600.084	-7.318	-0.218	-0.151
-599.069	-6.695	-0.029	-0.020
-598.055	-200.000	-0.016	-0.233
-597.040	800.000	0.033	-0.136
-596.025	579.934	-0.043	-0.107
-595.011	-151.622	-0.272	-0.020
-593.996	-127.877	0.211	-0.031
-592.982	158.490	-0.189	-0.267
-591.967	-200.000	0.106	-0.583
-590.952	35.365	0.226	0.202
-589.938	-187.952	0.306	0.004
-588.923	-146.608	-0.192	-0.017
-587.909	48.546	0.042	0.040
-586.894	9.158	0.224	-0.172
-585.879	-58.503	-0.292	-0.129
-584.865	-86.659	0.066	0.021
-583.850	518.483	-0.014	-0.034
-582.836	25.056	-0.116	0.098
-581.821	800.000	0.078	-0.236
-580.806	-200.000	-0.016	-0.098
-579.792	-100.895	0.310	0.078
-578.777	-200.000	0.001	-0.244
-577.763	800.000	-0.096	0.305
-576.748	-200.000	0.014	0.111
-575.733	-38.429	0.377	-0.203
-574.719	800.000	0.066	0.231
-573.704	-86.024	0.254	0.080
-572.690	-200.000	0.006	-0.312
-571.675	-61.166	-0.314	-0.135
-570.661	-200.000	0.075	0.451
-569.646	57.845	-0.187	0.186
-568.631	-36.569	-0.186	0.102
-567.617	15.654	-0.212	-0.170
-566.602	-88.277	0.185	-0.056
-565.588	92.196	-0.250	-0.287
-564.573	157.478	0.074	0.104
-563.558	-200.000	0.006	-0.330
-562.544	322.322	0.110	0.213
-561.529	641.022	-0.020	0.051
-560.515	-114.152	0.271	0.053
-559.500	-200.000	0.008	0.079
-558.485	143.023	0.053	-0.072
-557.471	52.291	-0.039	-0.038
-556.456	-8.702	-0.127	0.087
-555.442	-73.643	-0.125	0.046
-554.427	-54.158	0.181	0.084
-553.412	-29.219	0.099	-0.058
-552.398	-72.099	0.250	0.094
-551.383	-65.584	0.147	-0.060
-550.369	-169.672	0.010	0.000
-549.354	-14.067	0.146	0.096
-548.339	218.700	0.138	-0.224
-547.325	11.055	0.128	-0.099
-546.310	-14.958	-0.152	0.099
-545.296	-200.000	-0.004	0.235
-544.281	-26.956	0.358	0.213
-543.266	-129.940	-0.250	-0.035
-542.252	3.127	-0.308	-0.227
-541.237	-22.057	-0.186	-0.115
-540.223	-179.504	0.171	-0.004
-539.208	186.632	0.082	-0.125
-538.193	130.216	-0.101	-0.131
-537.179	-100.164	0.380	-0.096
-536.164	-21.866	0.033	0.021
-535.150	-100.866	0.128	0.032
-534.135	367.094	-0.185	-0.379
-533.121	-50.114	0.204	-0.098
-532.106	68.400	-0.250	-0.261
-531.091	375.509	-0.060	0.124
-530.077	123.419	0.085	-0.108
-529.062	-200.000	-0.012	-0.105
-528.048	-77.946	0.176	0.062
-527.033	127.168	-0.235	0.303
-526.018	678.692	0.100	0.264
-525.004	79.461	0.122	-0.133
-523.989	190.195	-0.124	0.189
-522.975	-200.000	-0.028	0.293
-521.960	-200.000	-0.000	-0.156
-520.945	-24.389	0.476	0.288
-519.931	800.000	-0.072	-0.211
-518.916	800.000	0.061	-0.219
-517.902	-89.203	-0.204	0.061
-516.887	-200.000	0.015	0.093
-515.872	17.779	0.142	0.115
-514.858	800.000	-0.047	0.184
-513.843	1.234	-0.386	-0.281
-512.829	-63.713	-0.213	-0.088
-511.814	206.963	0.085	-0.134
-510.799	-145.947	-0.316	0.028
-509.785	-152.990	-0.410	0.029
-508.770	-21.108	0.273	0.170
-507.756	-200.000	0.051	0.294
-506.741	-50.274	0.081	0.039
-505.726	88.136	0.173	-0.194
-504.712	-200.000	-0.006	0.125
-503.697	-147.367	0.469	-0.040
-502.683	320.514	-0.077	-0.149
-501.668	-9.329	-0.224	-0.152
-500.653	800.000	-0.074	-0.275
-499.639	-140.539	0.116	0.012
-498.624	-200.000	-0.020	0.144
-497.610	800.000	-0.035	-0.105
-496.595	-156.365	0.351	0.022
-495.581	-120.757	-0.141	-0.024
-494.566	-200.000	-0.036	-0.217
-493.551	-95.036	-0.181	0.050
-492.537	73.946	0.124	-0.132
-491.522	518.283	0.045	0.107
-490.508	-61.510	-0.207	-0.088
-489.493	-72.033	-0.081	0.031
-488.478	2.314	-0.106	-0.078
-487.464	60.368	-0.176	0.177
-486.449	159.496	0.042	0.060
-485.435	-7.892	-0.253	-0.173
-484.420	159.236	0.191	0.269
-483.405	-11.864	0.303	-0.202
-482.391	-60.437	-0.138	-0.060
-481.376	95.786	0.208	0.240
-480.362	97.852	0.225	-0.262
-479.347	66.167	0.155	-0.160
-478.332	199.774	0.149	-0.232
-477.318	-24.853	0.030	0.018
-476.303	70.544	-0.173	0.181
-475.289	25.545	-0.075	0.063
-474.274	-200.000	0.024	0.348
-473.259	369.776	-0.246	0.505
-472.245	55.895	0.153	-0.150
-471.230	212.889	0.109	-0.175
-470.216	-200.000	0.026	0.268
-469.201	-200.000	0.019	0.128
-468.186	9.614	-0.179	0.138
-467.172	190.612	0.137	0.209
-466.157	-53.011	0.370	0.172
-465.143	-35.392	0.146	0.080
-464.128	47.347	-0.163	0.154
-463.113	556.359	-0.056	-0.138
-462.099	-63.099	-0.257	0.108
-461.084	-3.506	-0.031	0.022
-460.070	104.183	-0.027	0.032
-459.055	-164.673	-0.158	-0.007
-458.040	-6.849	-0.189	0.130
-457.026	334.372	-0.097	-0.191
-456.011	55.482	-0.045	-0.045
-454.997	-39.289	-0.084	-0.045
-453.982	287.339	0.129	0.236
-452.968	29.545	0.172	-0.148
-451.953	-58.851	-0.197	0.086
-450.938	-45.294	-0.238	0.120
-449.924	237.251	-0.184	0.309
-448.909	-120.134	-0.080	-0.014
-447.895	-47.316	-0.099	0.049
-446.880	-200.000	-0.015	-0.071
-445.865	-145.967	-0.119	-0.011
-444.851	-22.232	-0.332	-0.204
-443.836	-105.545	-0.554	-0.127
-442.822	-200.000	0.045	0.250
-441.807	260.207	0.099	0.174
-440.792	39.723	-0.057	-0.052
-439.778	-175.949	-0.209	-0.006
-438.763	154.391	-0.137	0.190
-437.749	320.790	-0.115	0.221
-436.734	800.000	-0.096	0.311
-435.719	379.063	-0.026	0.054
-434.705	-64.769	0.456	0.187
-433.690	23.676	-0.107	-0.089
-432.676	800.000	-0.042	-0.129
-431.661	-200.000	0.028	-0.174
-430.646	-200.000	-0.011	0.073
-429.632	-200.000	0.006	0.164
-428.617	192.377	0.108	-0.164
-427.603	-145.157	0.370	-0.034
-426.588	23.757	0.238	0.198
-425.573	95.301	0.057	0.066
-424.559	-200.000	0.027	-0.299
-423.544	-40.996	0.267	-0.140
-422.530	-200.000	-0.009	-0.105
-421.515	-113.040	0.223	0.045
-420.500	-195.285	0.303	0.002
-419.486	40.370	0.279	0.254
-418.471	-4.174	-0.052	-0.037
-417.457	-200.000	0.013	-0.271
-416.442	-200.000	0.037	0.169
-415.428	-79.368	-0.202	-0.069
-414.413	-107.605	0.112	0.025
-413.398	214.083	-0.094	-0.150
-412.384	-200.000	0.013	-0.225
-411.369	-89.461	0.117	-0.035
-410.355	84.307	0.157	-0.174
-409.340	-27.635	0.155	-0.091
-408.325	262.761	-0.053	-0.093
-407.311	-26.067	-0.292	0.173
-406.296	-200.000	0.001	-0.108
-405.282	84.037	-0.010	-0.011
-404.267	-90.165	-0.405	-0.119
-403.252	280.979	-0.024	0.044
-402.238	800.000	0.082	-0.345
-401.223	58.594	0.119	0.118
-400.209	-200.000	-0.017	0.152
-399.194	13.170	-0.146	0.114
-398.179	-30.399	0.231	0.133
-397.165	-91.605	0.228	-0.066
-396.150	20.128	-0.140	0.115
-395.136	-200.000	0.022	0.193
-394.121	-120.170	-0.050	-0.009
-393.106	67.439	-0.185	-0.190
-392.092	800.000	-0.039	-0.169
-391.077	-200.000	0.002	-0.022
-390.063	740.139	0.095	-0.257
-389.048	-200.000	0.022	-0.154
-388.033	-200.000	0.033	-0.168
-387.019	109.575	0.212	0.257
-386.004	114.618	-0.155	-0.190
-384.990	239.786	0.182	0.306
-383.975	-200.000	-0.033	-0.243
-382.960	-62.979	0.128	-0.054
-381.946	-170.913	0.204	0.007
-380.931	-51.087	-0.221	0.105
-379.917	-71.172	0.141	-0.053
-378.902	-112.525	0.154	0.031
-377.888	-200.000	0.010	0.356
-376.873	-200.000	-0.001	-0.206
-375.858	645.761	-0.042	0.109
-374.844	83.552	0.099	0.109
-373.829	85.429	0.120	-0.133
-372.815	-109.164	0.174	-0.037
-371.800	51.578	0.198	0.190
-370.785	-97.212	0.125	0.033
-369.771	-26.127	0.082	-0.049
-368.756	-80.091	0.081	0.027
-367.742	-77.104	0.355	-0.125
-366.727	566.169	-0.060	-0.146
-365.712	100.288	-0.134	-0.157
-364.698	46.695	0.217	-0.203
-363.683	-27.805	0.348	0.204
-362.669	111.985	-0.133	-0.163
-361.654	-79.443	-0.102	0.035
-360.639	-57.365	0.373	-0.165
-359.625	-11.078	0.223	-0.149
-358.610	-59.883	0.437	0.189
-357.596	8.176	0.188	-0.142
-356.581	175.540	0.206	0.301
-355.566	-14.647	0.150	-0.097
-354.552	-5.711	-0.036	0.025
-353.537	23.816	0.237	-0.197
-352.523	312.476	0.067	-0.127
-351.508	-200.000	-0.034	-0.168
-350.493	40.553	-0.129	-0.117
-349.479	94.710	-0.276	-0.317
-348.464	-88.914	0.177	-0.053
-347.450	-200.000	0.060	-0.366
-346.435	-132.717	-0.054	0.007
-345.420	159.611	-0.214	0.300
-344.406	-165.105	0.179	-0.008
-343.391	-156.816	0.212	-0.013
-342.377	-37.982	-0.122	0.065
-341.362	-18.704	-0.118	0.074
-340.348	-69.243	-0.023	0.009
-339.333	800.000	-0.059	0.208
-338.318	-52.274	-0.098	0.046
-337.304	-95.997	-0.160	-0.043
-336.289	800.000	-0.031	-0.086
-335.275	-200.000	0.095	0.424
-334.260	105.272	-0.131	-0.156
-333.245	282.767	-0.051	-0.092
-332.231	-1.376	-0.231	0.164
-331.216	-200.000	0.020	-0.088
-330.202	-22.882	0.081	0.049
-329.187	485.834	-0.032	0.074
-328.172	115.968	0.103	-0.127
-327.158	-152.370	0.529	0.038
-326.143	-200.000	-0.003	-0.503
-325.129	-90.361	0.284	0.083
-324.114	-102.511	0.130	0.031
-323.099	12.101	-0.053	-0.041
-322.085	684.267	0.042	0.110
-321.070	130.110	-0.098	0.126
-320.056	-200.000	-0.014	-0.063
-319.041	-200.000	0.037	-0.329
-318.026	-94.227	0.324	0.089
-317.012	-65.355	-0.147	0.059
-315.997	171.498	0.225	0.325
-314.983	78.369	-0.085	-0.092
-313.968	28.265	-0.182	0.155
-312.953	75.734	0.200	-0.212
-311.939	135.089	-0.106	0.139
-310.924	-21.510	0.223	0.137
-309.910	43.210	-0.119	0.109
-308.895	323.924	0.209	-0.402
-307.880	-57.636	0.229	0.101
-306.866	49.221	-0.294	0.278
-305.851	-163.585	-0.034	-0.002
-304.837	-55.750	0.109	0.049
-303.822	114.842	-0.178	-0.219
-302.807	-7.418	-0.112	0.077
-301.793	800.000	-0.013	-0.043
-300.778	-200.000	-0.026	-0.237
-299.764	25.830	-0.059	0.049
-298.749	-81.464	-0.108	-0.036
-297.735	-200.000	-0.005	-0.302
-296.720	215.066	-0.170	-0.272
-295.705	-42.191	0.083	-0.043
-294.691	-200.000	0.004	0.406
-293.676	-93.925	0.029	0.008
-292.662	-34.896	-0.135	-0.074
-291.647	-8.389	0.190	0.129
-290.632	-200.000	-0.025	-0.130
-289.618	-200.000	-0.004	-0.105
-288.603	800.000	-0.108	-0.338
-287.589	-200.000	0.042	0.200
-286.574	-200.000	0.024	0.406
-285.559	108.594	-0.078	0.093
-284.545	-200.000	0.001	-0.023
-283.530	436.536	0.102	-0.224
-282.516	-77.982	-0.203	0.070
-281.501	-0.158	-0.169	-0.121
-280.486	-159.193	-0.222	-0.013
-279.472	-124.261	-0.209	-0.033
-278.457	-200.000	-0.011	0.235
-277.443	-158.850	0.131	-0.008
-276.428	-97.175	0.199	-0.052
-275.413	148.259	-0.240	0.326
-274.399	800.000	0.072	-0.221
-273.384	-33.092	0.225	0.126
-272.370	800.000	0.045	0.163
-271.355	240.788	-0.047	-0.079
-270.340	287.998	0.082	-0.149
-269.326	-33.866	-0.089	0.049
-268.311	204.657	-0.122	-0.191
-267.297	79.677	0.231	-0.249
-266.282	-200.000	-0.075	0.330
-265.267	-167.864	-0.393	-0.016
-264.253	-46.129	-0.397	0.197
-263.238	-35.731	0.310	0.169
-262.224	-200.000	-0.008	-0.118
-261.209	218.734	0.014	-0.022
-260.195	34.326	0.141	-0.123
-259.180	-144.633	0.049	-0.005
-258.165	102.223	0.184	-0.216
-257.151	-189.213	-0.227	0.003
-256.136	520.434	0.094	0.222
-255.122	-81.321	-0.375	-0.124
-254.107	-6.865	-0.274	0.187
-253.092	153.194	-0.183	0.252
-252.078	-43.018	0.175	0.089
-251.063	-71.065	-0.311	-0.117
-250.049	-161.794	-0.103	-0.005
-249.034	-65.365	0.174	-0.070
-248.019	-75.677	-0.316	-0.113
-247.005	653.570	-0.101	-0.260
-245.990	77.532	-0.172	-0.184
-244.976	227.788	0.079	0.128
-243.961	800.000	0.004	0.013
-242.946	800.000	-0.083	-0.295
-241.932	-200.000	-0.025	0.311
-240.917	-121.356	-0.175	0.029
-239.903	-200.000	0.032	0.196
-238.888	32.890	-0.199	-0.173
-237.873	3.286	0.180	-0.131
-236.859	-181.166	0.415	-0.008
-235.844	-79.151	0.198	0.067
-234.830	150.730	-0.089	-0.121
-233.815	87.799	-0.452	0.503
-232.800	728.167	-0.060	0.159
-231.786	49.362	-0.108	-0.102
-230.771	-80.407	-0.339	0.114
-229.757	-3.393	-0.114	-0.080
-228.742	-200.000	-0.015	-0.069
-227.727	-37.041	-0.198	0.107
-226.713	1.055	0.327	0.235
-225.698	800.000	-0.058	0.250
-224.684	140.111	-0.185	-0.245
-223.669	-200.000	-0.018	0.087
-222.655	386.637	-0.141	-0.291
-221.640	800.000	-0.066	-0.189
-220.625	-200.000	-0.007	0.032
-219.611	-200.000	0.022	0.121
-218.596	-102.994	-0.198	-0.047
-217.582	12.692	-0.011	-0.008
-216.567	190.630	0.112	0.170
-215.552	246.449	-0.088	0.150
-214.538	-83.643	0.221	-0.071
-213.523	163.997	-0.010	0.013
-212.509	-200.000	-0.002	0.109
-211.494	570.356	0.091	0.222
-210.479	-145.948	-0.157	0.014
-209.465	-159.319	0.210	0.012
-208.450	-104.346	-0.190	0.044
-207.436	3.370	-0.113	0.083
-206.421	297.528	0.071	-0.131
-205.406	800.000	-0.188	-0.540
-204.392	54.255	-0.413	-0.398
-203.377	196.071	0.099	-0.151
-202.363	280.878	0.067	-0.120
-201.348	-124.498	0.218	-0.034
-200.333	-56.255	-0.150	0.067
-199.319	26.261	0.216	0.181
-198.304	-59.919	0.082	0.035
-197.290	800.000	-0.071	-0.234
-196.275	800.000	0.162	0.450
-195.260	10.260	0.136	0.103
-194.246	45.755	-0.172	-0.160
-193.231	-200.000	-0.029	0.132
-192.217	-58.489	0.407	-0.177
-191.202	-42.619	-0.092	0.047
-190.187	86.659	0.223	-0.247
-189.173	-20.475	-0.223	-0.138
-188.158	521.278	0.082	0.193
-187.144	-88.948	-0.141	0.042
-186.129	137.240	0.012	0.016
-185.114	2.440	-0.211	0.153
-184.100	52.925	-0.099	0.095
-183.085	-156.319	0.578	-0.036
-182.071	76.888	0.146	0.155
-181.056	-200.000	0.005	-0.147
-180.042	-113.197	0.171	-0.034
-179.027	-144.991	-0.183	0.017
-178.012	-126.294	-0.171	-0.026
-176.998	200.248	0.226	0.347
-175.983	-69.558	-0.037	0.014
-174.969	82.957	-0.062	-0.068
-173.954	-92.769	0.361	-0.101
-172.939	92.199	0.018	-0.020
-171.925	-131.679	-0.058	-0.008
-170.910	-200.000	0.029	-0.190
-169.896	327.832	0.101	-0.193
-168.881	51.379	0.096	-0.091
-167.866	-81.345	-0.081	0.027
-166.852	-130.188	-0.056	-0.008
-165.837	772.129	0.081	0.221
-164.823	-200.000	0.009	0.200
-163.808	297.773	0.095	0.175
-162.793	-158.529	0.163	0.009
-161.779	84.261	0.033	0.036
-160.764	-29.109	-0.088	-0.051
-159.750	249.285	-0.257	0.436
-158.735	-44.645	0.526	0.263
-157.720	800.000	0.009	0.029
-156.706	29.475	-0.029	0.024
-155.691	165.716	-0.210	0.298
-154.677	289.256	-0.139	0.252
-153.662	-34.643	-0.297	-0.163
-152.647	204.667	-0.067	-0.103
-151.633	-200.000	0.010	0.270
-150.618	65.547	-0.060	0.061
-149.604	800.000	0.055	0.158
-148.589	-19.055	0.133	-0.082
-147.574	-200.000	0.091	-0.429
-146.560	278.792	0.155	0.277
-145.545	65.571	-0.184	0.187
-144.531	-200.000	0.033	0.355
-143.516	-133.757	-0.262	0.033
-142.502	800.000	0.061	-0.207
-141.487	-200.000	0.033	0.173
-140.472	-27.098	0.185	0.108
-139.458	-123.216	0.351	-0.056
-138.443	800.000	-0.045	0.149
-137.429	-55.225	0.135	-0.061
-136.414	-86.576	0.158	0.048
-135.399	-107.253	0.332	-0.073
-134.385	-44.319	-0.178	0.089
-133.370	76.493	-0.119	0.127
-132.356	100.366	-0.146	0.170
-131.341	76.124	0.200	0.212
-130.326	-109.436	-0.088	0.019
-129.312	-89.680	0.114	-0.034
-128.297	224.372	-0.122	-0.197
-127.283	-200.000	-0.008	0.314
-126.268	-40.109	0.095	0.049
-125.253	22.780	0.212	0.174
-124.239	-200.000	-0.016	0.231
-123.224	-31.287	-0.156	0.088
-122.210	-88.065	-0.167	-0.050
-121.195	390.014	0.201	0.417
-120.180	90.228	0.055	-0.061
-119.166	-93.492	0.329	0.091
-118.151	-91.419	-0.115	-0.033
-117.137	-200.000	0.050	0.429
-116.122	203.797	0.312	-0.482
-115.107	97.350	0.181	0.208
-114.093	-52.631	0.140	-0.065
-113.078	-200.000	0.280	-0.001
-112.064	-41.228	-0.206	0.106
-111.049	292.911	-0.164	0.299
-110.034	-200.000	0.032	-0.162
-109.020	128.965	0.092	0.118
-108.005	81.046	-0.193	0.209
-106.991	1.092	0.225	0.161
-105.976	800.000	-0.078	0.280
-104.962	-200.000	-0.162	0.000
-103.947	134.714	-0.195	0.253
-102.932	297.497	0.193	0.353
-101.918	-33.135	0.325	-0.180
-100.903	41.442	-0.279	0.252
-99.889	136.303	0.061	0.080
-98.874	518.909	0.220	-0.515
-97.859	381.655	-0.140	-0.288
-96.845	-96.288	-0.092	-0.024
-95.830	267.685	0.054	0.094
-94.816	-101.344	-0.344	0.084
-93.801	-200.000	0.022	0.276
-92.786	-8.115	-0.271	0.183
-91.772	178.923	0.157	-0.230
-90.757	26.784	0.135	0.113
-89.743	450.008	-0.182	0.400
-88.728	-200.000	-0.042	-0.313
-87.713	-102.821	-0.180	0.043
-86.699	110.588	0.084	0.101
-85.684	-112.423	-0.225	-0.045
-84.670	298.089	0.054	-0.099
-83.655	-62.735	0.207	-0.086
-82.640	6.765	0.117	0.087
-81.626	-115.175	0.376	0.071
-80.611	800.000	-0.087	0.286
-79.597	-200.000	0.014	-0.237
-78.582	-200.000	0.041	-0.342
-77.567	-40.985	0.158	0.082
-76.553	-173.901	0.046	0.001
-75.538	-21.146	0.134	-0.082
-74.524	-200.000	-0.013	0.613
-73.509	-103.744	-0.088	-0.021
-72.494	-200.000	0.020	-0.132
-71.480	89.950	0.215	0.240
-70.465	350.096	-0.023	0.045
-69.451	120.535	-0.063	-0.078
-68.436	-94.619	0.055	0.015
-67.422	-200.000	0.005	-0.043
-66.407	118.067	0.133	-0.163
-65.392	458.916	0.107	-0.238
-64.378	-200.000	0.024	-0.230
-63.363	-200.000	0.026	-0.156
-62.349	-71.833	-0.108	-0.040
-61.334	91.961	-0.393	-0.441
-60.319	167.664	0.093	0.132
-59.305	126.167	-0.205	-0.258
-58.290	312.399	0.263	0.492
-57.276	800.000	0.542	1.496
-56.261	-200.000	71.787	534.446
-55.246	609.558	1272.355	3168.799
-54.232	148.245	2488.186	3348.758
-53.217	123.613	2220.980	2778.298
-52.203	57.086	1666.449	1620.275
-51.188	48.220	1384.592	1291.507
-50.173	44.342	1335.258	1222.173
-49.159	61.941	1367.775	1358.982
-48.144	70.586	1386.718	1430.031
-47.130	48.358	1349.883	1259.768
-46.115	44.101	1333.864	1219.255
-45.100	43.880	1329.333	1213.739
-44.086	43.696	1326.908	1210.375
-43.071	43.669	1324.419	1207.896
-42.057	43.715	1322.278	1206.171
-41.042	43.753	1320.276	1204.524
-40.027	43.768	1319.434	1203.793
-39.013	43.908	1316.872	1202.242
-37.998	43.828	1315.295	1200.279
-36.984	43.903	1313.424	1198.969
-35.969	43.947	1311.825	1197.721
-34.954	43.916	1310.389	1196.181
-33.940	43.989	1308.765	1195.081
-32.925	44.047	1307.132	1193.884
-31.911	43.970	1305.875	1192.235
-30.896	43.915	1304.689	1190.785
-29.881	44.079	1302.946	1190.106
-28.867	44.048	1301.392	1188.459
-27.852	44.071	1300.183	1187.442
-26.838	44.072	1298.330	1185.709
-25.823	43.985	1297.233	1184.148
-24.809	44.036	1295.312	1182.646
-23.794	44.072	1294.104	1181.711
-22.779	44.023	1293.031	1180.394
-21.765	44.019	1291.803	1179.203
-20.750	43.956	1290.539	1177.637
-19.736	43.881	1289.155	1175.895
-18.721	43.827	1287.984	1174.464
-17.706	43.909	1286.616	1173.648
-16.692	43.923	1285.438	1172.607
-15.677	43.874	1284.252	1171.193
-14.663	43.858	1282.703	1169.644
-13.648	43.905	1281.984	1169.209
-12.633	43.897	1280.994	1168.216
-11.619	43.980	1280.228	1167.950
-10.604	43.874	1279.263	1166.414
-9.590	43.907	1278.218	1165.603
-8.575	43.900	1277.321	1164.700
-7.560	43.870	1275.799	1163.094
-6.546	43.876	1275.328	1162.654
-5.531	43.854	1274.399	1161.635
-4.517	43.833	1273.661	1160.795
-3.502	43.928	1272.509	1160.241
-2.487	43.805	1272.125	1159.143
-1.473	43.932	1268.150	1156.199
-0.458	42.752	1252.761	1135.463
0.556	37.753	1231.656	1089.635
1.571	32.943	1233.906	1064.497
2.586	31.672	1247.272	1068.682
3.600	29.963	1236.249	1049.468
4.615	21.177	1159.818	937.543
5.629	7.826	1074.973	801.992
6.644	1.637	1049.734	752.554
7.659	1.129	1046.736	747.832
8.673	0.981	1045.652	746.263
9.688	0.845	1043.954	744.317
10.702	1.372	1043.031	746.181
11.717	8.784	1054.463	791.001
12.731	19.469	1069.446	855.418
13.746	23.650	1073.625	879.446
14.761	23.745	1073.400	879.654
15.775	23.835	1072.576	879.345
16.790	23.522	1072.113	877.340
17.804	23.307	1071.845	875.978
18.819	23.525	1070.873	876.185
19.834	23.663	1069.929	876.017
20.848	23.560	1070.142	875.603
21.863	23.730	1069.202	875.596
22.877	23.563	1068.670	874.261
23.892	23.446	1068.076	873.120
24.907	23.450	1067.875	872.899
25.921	23.564	1066.151	871.970
26.936	23.509	1065.267	870.902
27.950	23.558	1063.043	869.248
28.965	23.457	1061.427	867.352
29.980	23.454	1060.053	866.142
30.994	23.728	1059.152	866.662
32.009	23.627	1058.004	865.156
33.023	23.481	1056.951	863.505
34.038	23.424	1056.568	862.843
35.053	23.780	1055.202	863.380
36.067	23.506	1055.291	862.043
37.082	23.666	1054.146	861.810
38.096	23.806	1053.328	861.741
39.111	23.873	1052.953	861.683
40.126	23.771	1051.185	859.666
41.140	23.484	1049.375	856.725
42.155	23.218	1048.083	854.311
43.169	23.293	1047.418	854.057
44.184	23.265	1046.509	853.102
45.199	23.296	1045.167	852.083
46.213	23.204	1044.544	851.056
47.228	23.387	1043.808	851.262
48.242	23.446	1042.921	850.746
49.257	23.527	1042.315	850.566
50.271	23.581	1041.623	850.185
51.286	23.633	1040.699	849.603
52.301	23.765	1039.135	848.883
53.315	23.565	1038.901	847.661
54.330	23.627	1037.749	846.944
55.344	23.630	1036.671	846.001
56.359	23.645	1035.768	845.259
57.374	23.418	1035.329	843.749
58.388	23.492	1033.803	842.780
59.403	23.299	1033.552	841.584
60.417	23.127	1032.652	839.961
61.432	23.391	1031.640	840.318
62.447	23.516	1030.784	840.135
63.461	23.411	1030.438	839.284
64.476	23.379	1029.371	838.190
65.490	23.336	1028.121	836.891
66.505	23.296	1027.655	836.250
67.520	23.355	1027.229	836.110
68.534	23.217	1025.722	834.159
69.549	22.861	1024.701	831.576
70.563	22.980	1024.106	831.581
71.578	22.863	1023.441	830.417
72.593	22.718	1022.235	828.683
73.607	22.950	1021.823	829.366
74.622	23.100	1021.616	829.828
75.636	23.205	1020.853	829.627
76.651	23.242	1019.379	828.530
77.666	23.031	1018.827	827.019
78.680	23.103	1018.035	826.641
79.695	23.059	1017.777	826.153
80.709	23.341	1016.842	826.636
81.724	23.328	1015.501	825.414
82.739	23.310	1015.359	825.139
83.753	23.617	1014.914	826.137
84.768	23.828	1014.457	826.670
85.782	23.962	1013.743	826.640
86.797	23.922	1012.360	825.253
87.812	23.734	1011.031	823.227
88.826	23.838	1010.665	823.337
89.841	23.801	1009.851	822.428
90.855	23.859	1008.770	821.743
91.870	23.872	1007.647	820.816
92.884	23.783	1006.504	819.404
93.899	23.601	1005.973	818.057
94.914	23.959	1004.531	818.462
95.928	23.676	1004.296	816.894
96.943	23.373	1002.666	814.106
97.957	23.241	1001.458	812.449
98.972	23.214	999.967	811.042
99.987	23.336	999.707	811.319
101.001	23.575	999.111	811.858
102.016	23.569	998.651	811.384
103.030	23.418	997.469	809.661
104.045	23.248	996.615	808.121
105.060	23.216	995.353	806.882
106.074	23.385	994.692	807.044
107.089	23.771	993.994	808.159
108.103	23.668	993.073	806.871
109.118	23.439	991.371	804.379
110.133	23.400	990.602	803.507
111.147	23.091	989.309	800.990
112.162	22.980	988.521	799.776
113.176	23.372	987.752	800.854
114.191	23.298	986.923	799.779
115.206	22.898	985.932	797.101
116.220	22.953	985.319	796.782
117.235	23.156	984.081	796.626
118.249	23.117	983.650	796.031
119.264	23.050	982.494	794.722
120.279	22.900	982.569	794.038
121.293	23.092	981.326	793.824
122.308	23.125	980.355	793.116
123.322	23.179	978.867	792.087
124.337	22.874	978.275	790.174
125.352	22.442	976.455	786.702
126.366	22.309	975.498	785.269
127.381	23.146	975.449	788.895
128.395	23.485	974.798	789.808
129.410	23.617	974.208	789.846
130.424	23.601	973.316	788.983
131.439	23.662	972.281	788.344
132.454	23.545	971.843	787.401
133.468	23.663	970.405	786.690
134.483	23.675	969.902	786.267
135.497	23.964	968.801	786.579
136.512	24.068	967.702	786.080
137.527	24.025	967.411	785.581
138.541	23.911	966.888	784.587
139.556	23.995	965.777	783.986
140.570	24.000	965.050	783.348
141.585	23.953	964.340	782.495
142.600	23.904	963.131	781.228
143.614	24.121	962.900	781.923
144.629	24.169	962.032	781.362
145.643	24.087	959.994	779.276
146.658	23.907	958.812	777.463
147.673	23.796	958.103	776.335
148.687	23.659	957.064	774.828
149.702	23.652	955.852	773.747
150.716	23.601	955.288	773.001
151.731	23.788	954.379	773.008
152.746	23.844	954.436	773.231
153.760	23.866	953.745	772.699
154.775	23.969	952.881	772.377
155.789	24.038	952.064	771.947
156.804	23.948	951.311	770.878
157.819	24.055	950.278	770.433
158.833	24.155	949.491	770.161
159.848	24.160	948.306	769.154
160.862	23.990	947.224	767.475
161.877	24.016	946.335	766.798
162.892	24.113	945.482	766.458
163.906	23.921	944.569	764.825
164.921	23.984	943.249	763.957
165.935	23.978	942.695	763.415
166.950	24.033	941.830	762.883
167.964	23.937	941.336	762.003
168.979	23.811	940.174	760.456
169.994	23.816	938.874	759.361
171.008	23.984	938.734	759.895
172.023	24.046	937.790	759.328
173.037	23.880	936.524	757.532
174.052	23.661	935.819	755.963
175.067	23.836	935.254	756.183
176.081	23.795	935.149	755.854
177.096	23.727	934.063	754.623
178.110	23.568	933.233	753.211
179.125	23.309	932.354	751.334
180.140	23.437	931.849	751.403
181.154	23.549	931.729	751.717
182.169	23.901	931.194	752.709
183.183	24.158	930.992	753.565
184.198	23.920	929.998	751.690
185.213	23.865	929.259	750.793
186.227	24.121	928.468	751.164
187.242	23.932	928.160	750.053
188.256	23.999	927.405	749.659
189.271	24.130	926.836	749.685
190.286	23.892	925.230	747.318
191.300	23.183	924.234	743.471
192.315	22.491	922.671	739.245
193.329	22.201	922.538	737.855
194.344	23.307	922.825	742.661
195.359	23.850	922.715	744.780
196.373	23.936	921.988	744.487
197.388	23.785	921.899	743.718
198.402	23.801	921.036	743.025
199.417	23.773	920.149	742.125
200.432	23.676	919.475	741.114
201.446	23.513	918.560	739.629
202.461	23.652	917.602	739.371
203.475	22.760	916.291	734.540
204.490	22.082	914.374	730.121
205.504	22.728	915.595	733.718
206.519	23.461	915.203	736.386
207.534	23.548	914.642	736.230
208.548	24.022	914.398	737.932
209.563	23.695	913.161	735.515
210.577	23.616	913.120	735.091
211.592	24.062	912.711	736.542
212.607	24.083	911.526	735.606
213.621	24.150	910.829	735.256
214.636	24.120	910.268	734.613
215.650	24.016	909.768	733.719
216.665	24.086	909.117	733.414
217.680	24.161	908.186	732.907
218.694	23.713	906.726	729.824
219.709	23.566	906.020	728.590
220.723	23.709	906.237	729.286
221.738	23.856	905.562	729.279
222.753	23.894	905.174	729.059
223.767	24.003	904.459	728.865
224.782	24.223	904.109	729.421
225.796	24.115	903.673	728.563
226.811	23.433	902.142	724.479
227.826	23.014	900.530	721.409
228.840	23.093	899.998	721.242
229.855	23.126	899.596	720.988
230.869	22.811	898.463	718.733
231.884	23.109	898.676	720.056
232.899	23.949	898.542	723.299
233.913	23.944	897.788	722.611
234.928	23.796	897.290	721.544
235.942	23.867	896.957	721.499
236.957	23.495	895.800	719.000
237.972	23.462	895.436	718.509
238.986	23.584	894.726	718.368
240.001	23.593	894.118	717.855
241.015	23.746	893.587	717.984
242.030	23.934	893.116	718.300
243.045	23.983	892.828	718.201
244.059	24.011	892.317	717.841
245.074	23.859	891.309	716.356
246.088	23.473	890.468	714.062
247.103	23.832	890.204	715.230
248.117	24.427	890.131	717.501
249.132	24.568	889.995	717.894
250.147	24.686	889.070	717.561
251.161	24.792	888.835	717.732
252.176	24.656	888.163	716.581
253.190	24.847	887.689	716.898
254.205	25.025	887.220	717.168
255.220	24.870	886.581	715.970
256.234	24.746	885.767	714.754
257.249	24.649	884.772	713.499
258.263	24.644	884.350	713.079
259.278	24.743	883.468	712.696
260.293	24.855	883.315	712.955
261.307	24.796	882.166	711.731
262.322	24.551	881.420	710.093
263.336	23.901	879.420	705.838
264.351	22.806	877.534	699.922
265.366	22.956	877.142	700.143
266.380	24.117	877.710	705.136
267.395	24.348	877.965	706.192
268.409	24.393	876.821	705.387
269.424	24.669	876.421	706.096
270.439	24.625	875.854	705.400
271.453	24.736	875.630	705.597
272.468	24.835	875.239	705.608
273.482	24.924	874.533	705.330
274.497	24.566	873.562	703.075
275.512	24.032	872.742	700.250
276.526	24.613	872.464	702.252
277.541	24.694	872.089	702.204
278.555	24.431	871.607	700.722
279.570	24.368	870.697	699.680
280.585	24.571	870.108	699.943
281.599	24.528	869.010	698.829
282.614	23.951	867.696	695.456
283.628	23.807	867.714	694.846
284.643	24.251	867.704	696.510
285.657	23.966	865.918	693.904
286.672	23.545	865.178	691.610
287.687	24.195	865.059	693.983
288.701	24.202	864.615	693.595
289.716	23.986	863.817	692.053
290.730	23.731	863.426	690.687
291.745	23.562	862.478	689.211
292.760	23.804	862.092	689.779
293.774	24.880	862.370	694.119
294.789	25.162	862.207	695.016
295.803	25.229	861.467	694.618
296.818	25.121	860.773	693.583
297.833	24.831	859.785	691.603
298.847	24.631	859.231	690.323
299.862	24.950	859.024	691.327
300.876	25.159	858.765	691.864
301.891	25.129	858.109	691.157
302.906	24.736	856.757	688.497
303.920	24.709	856.488	688.115
304.935	25.087	856.520	689.535
305.949	24.974	856.055	688.663
306.964	24.770	855.426	687.313
307.979	24.941	854.805	687.410
308.993	25.250	854.675	688.431
310.008	25.285	853.697	687.718
311.022	24.993	853.018	685.989
312.037	24.809	852.656	684.935
313.052	24.666	851.567	683.451
314.066	23.727	850.183	678.695
315.081	23.426	849.179	676.683
316.095	24.318	849.557	680.329
317.110	24.851	849.362	682.147
318.125	23.950	847.662	677.292
319.139	22.896	846.337	672.165
320.154	22.770	846.331	671.622
321.168	23.580	846.953	675.138
322.183	24.497	846.443	678.158
323.197	24.699	846.159	678.636
324.212	24.775	846.065	678.790
325.227	24.993	845.391	679.015
326.241	24.825	844.572	677.659
327.256	24.756	843.559	676.527
328.270	24.675	843.006	675.719
329.285	24.422	842.626	674.395
330.300	24.136	841.580	672.420
331.314	24.413	841.492	673.337
332.329	24.918	841.251	674.989
333.343	25.098	840.952	675.365
334.358	24.965	840.531	674.467
335.373	25.193	839.930	674.784
336.387	25.301	840.499	675.587
337.402	25.584	839.423	675.727
338.416	25.346	839.201	674.593
339.431	25.459	839.227	674.978
340.446	25.537	838.857	674.913
341.460	25.500	837.941	673.979
342.475	25.318	837.748	673.084
343.489	25.305	837.134	672.482
344.504	25.653	836.982	673.604
345.519	25.765	836.712	673.744
346.533	25.769	836.151	673.248
347.548	25.882	835.590	673.158
348.562	25.723	835.431	672.376
349.577	25.740	834.309	671.478
350.592	25.755	833.909	671.152
351.606	25.742	833.100	670.393
352.621	25.622	832.369	669.300
353.635	25.489	831.482	668.034
354.650	24.879	830.239	664.712
355.665	23.868	829.010	659.917
356.679	24.250	828.429	660.813
357.694	24.881	828.212	662.920
358.708	24.810	827.351	661.910
359.723	25.058	827.322	662.746
360.738	25.559	826.890	664.190
361.752	25.429	826.546	663.377
362.767	25.765	826.252	664.323
363.781	26.066	825.876	665.069
364.796	26.156	825.762	665.250
365.810	26.210	825.351	665.059
366.825	26.205	824.742	664.490
367.840	25.934	823.970	662.815
368.854	25.558	822.806	660.441
369.869	25.483	822.588	659.929
370.883	25.412	822.350	659.419
371.898	25.451	821.676	658.966
372.913	25.643	821.568	659.525
373.927	25.686	820.920	659.100
374.942	25.727	820.718	659.030
375.956	25.841	820.297	659.053
376.971	25.956	819.758	658.983
377.986	26.233	819.447	659.685
379.000	26.050	819.193	658.752
380.015	25.973	818.400	657.776
381.029	25.924	818.078	657.281
382.044	26.040	817.328	657.043
383.059	26.127	817.091	657.112
384.073	26.143	816.184	656.381
385.088	26.127	815.454	655.678
386.102	25.908	815.073	654.520
387.117	25.918	814.393	653.952
388.132	25.672	812.883	651.790
389.146	24.860	812.173	648.224
390.161	25.352	812.491	650.200
391.175	25.825	811.941	651.414
392.190	25.658	811.069	650.056
393.205	24.265	808.998	643.314
394.219	22.782	807.376	636.624
395.234	22.616	806.847	635.549
396.248	24.250	808.362	642.583
397.263	25.634	809.292	648.255
398.278	25.680	808.695	647.886
399.292	25.331	808.223	646.194
400.307	25.443	808.001	646.366
401.321	25.682	807.280	646.590
402.336	25.918	807.065	647.208
403.350	26.385	806.902	648.694
404.365	26.741	806.837	649.861
405.380	26.885	806.505	650.052
406.394	26.890	805.770	649.421
407.409	26.831	805.366	648.828
408.423	26.759	805.515	648.631
409.438	26.821	804.855	648.263
410.453	26.799	804.949	648.204
411.467	26.745	803.949	647.148
412.482	26.924	803.204	647.131
413.496	26.963	803.139	647.158
414.511	26.827	802.939	646.457
415.526	26.891	802.301	646.113
416.540	26.697	801.377	644.622
417.555	26.525	800.724	643.429
418.569	26.527	800.747	643.399
419.584	26.498	800.249	642.837
420.599	26.242	799.414	641.201
421.613	83.962	1240.621	1300.665
422.628	71.473	1304.950	1300.807
