DTS Sentinel unit serial number:	SN413079Multiplexer serial number:	ORYXHardware model number:	OX4-SRSoftware version number:	ORYX F/W v4.00 Oryx Data Collector v3.7.2.0data status	okinstallation	princeton_trtdifferential loss correction	single-endedforward channel	channel 1reverse channel	N/Adate	2019/09/10time	21:32:11forward acquisition time	60.00reverse acquisition time	0.00gamma	496.2192k internal	0.2330k external	0.2330temperature offset calibration	0.9934default loss term (dB/km)	0.3790temperature slope calibration	1.0000multiplexer offset coefficient	1.0000multiplexer slope coefficient	1.0000fibre end	0.00T internal ref (°C)	31.12T ext. ref 1 (°C)	-0.31T ext. ref 2 (°C)	24.44length (m)	temperature (°C)	Stokes	anti-Stokes-747.200	-200.000	-0.040	0.333
-746.185	-200.000	-0.041	0.225
-745.171	-200.000	-0.065	0.319
-744.156	57.093	-0.246	0.242
-743.142	0.770	-0.343	-0.248
-742.127	-91.851	-0.081	-0.023
-741.112	270.408	-0.039	0.070
-740.098	195.776	0.180	0.275
-739.083	-21.689	0.128	-0.078
-738.069	-117.836	-0.335	-0.061
-737.054	53.276	-0.162	0.156
-736.039	504.631	0.124	-0.289
-735.025	10.277	0.274	0.210
-734.010	176.388	-0.090	-0.132
-732.996	128.437	-0.187	-0.240
-731.981	28.576	-0.099	-0.084
-730.966	105.837	-0.030	-0.035
-729.952	-109.970	-0.122	-0.026
-728.937	87.748	-0.233	-0.259
-727.923	32.122	0.048	0.041
-726.908	49.096	-0.252	-0.238
-725.894	283.883	-0.075	-0.135
-724.879	-200.000	0.022	-0.171
-723.864	19.295	-0.201	-0.163
-722.850	-104.778	-0.113	0.026
-721.835	-103.433	-0.140	-0.033
-720.821	366.425	-0.098	0.198
-719.806	328.800	-0.133	0.258
-718.791	294.678	-0.117	0.216
-717.777	233.835	0.099	-0.164
-716.762	101.524	0.062	-0.072
-715.748	-68.898	-0.045	0.017
-714.733	-70.213	0.471	0.180
-713.718	268.319	-0.061	0.107
-712.704	-200.000	0.004	-0.096
-711.689	-194.255	-0.242	0.002
-710.675	-200.000	0.004	0.140
-709.660	765.714	-0.138	0.377
-708.645	38.151	-0.038	0.034
-707.631	-200.000	0.032	-0.181
-706.616	19.513	0.298	0.241
-705.602	-200.000	0.005	0.227
-704.587	-140.530	-0.039	-0.004
-703.572	800.000	0.057	0.219
-702.558	477.051	-0.097	0.221
-701.543	800.000	0.067	0.262
-700.529	-182.765	0.305	-0.006
-699.514	-200.000	0.058	0.324
-698.499	-39.187	0.277	-0.146
-697.485	-15.549	0.090	-0.058
-696.470	-60.735	0.183	0.078
-695.456	205.199	-0.072	-0.112
-694.441	577.472	0.054	-0.133
-693.426	157.282	0.078	0.109
-692.412	-158.687	-0.259	0.015
-691.397	2.779	0.141	-0.103
-690.383	-128.418	-0.193	-0.028
-689.368	-21.204	0.231	-0.142
-688.354	269.167	-0.087	-0.153
-687.339	171.713	0.075	-0.109
-686.324	800.000	-0.037	-0.106
-685.310	-200.000	-0.056	-0.305
-684.295	-200.000	0.010	0.150
-683.281	162.961	-0.020	-0.029
-682.266	192.340	-0.078	0.118
-681.251	-200.000	-0.002	0.252
-680.237	186.551	-0.122	0.182
-679.222	-200.000	-0.001	-0.003
-678.208	-138.783	-0.263	-0.029
-677.193	-200.000	0.039	-0.182
-676.178	88.398	-0.147	-0.164
-675.164	2.369	0.302	-0.220
-674.149	-31.190	-0.374	-0.212
-673.135	800.000	0.068	0.261
-672.120	117.080	-0.015	-0.018
-671.105	-200.000	-0.021	0.109
-670.091	-23.925	0.223	0.134
-669.076	43.141	0.160	0.147
-668.062	-200.000	-0.016	0.186
-667.047	-142.143	0.365	0.036
-666.032	65.228	0.167	0.169
-665.018	288.037	0.103	0.187
-664.003	-51.443	-0.176	-0.083
-662.989	177.371	-0.125	0.183
-661.974	135.059	0.056	0.074
-660.959	3.285	-0.218	-0.159
-659.945	185.383	-0.180	-0.268
-658.930	487.076	0.055	-0.127
-657.916	-79.593	0.102	0.035
-656.901	7.546	-0.095	0.071
-655.886	170.000	-0.170	-0.244
-654.872	13.582	0.209	-0.163
-653.857	-116.563	0.331	-0.061
-652.843	70.754	0.037	0.038
-651.828	126.761	-0.090	0.114
-650.814	-200.000	0.017	-0.197
-649.799	800.000	0.060	-0.172
-648.784	55.500	-0.147	-0.143
-647.770	202.309	-0.138	-0.213
-646.755	2.411	0.125	-0.090
-645.741	61.193	0.212	0.211
-644.726	-200.000	-0.015	-0.122
-643.711	-61.175	-0.364	0.154
-642.697	173.877	-0.029	0.042
-641.682	685.754	0.021	0.056
-640.668	108.830	0.179	0.214
-639.653	120.807	0.102	-0.127
-638.638	24.038	-0.309	0.256
-637.624	-165.600	-0.295	0.013
-636.609	-47.122	-0.231	-0.113
-635.595	-47.190	-0.200	-0.098
-634.580	560.001	-0.125	0.302
-633.565	-200.000	-0.003	-0.064
-632.551	-3.186	0.131	0.091
-631.536	303.519	-0.181	-0.336
-630.522	-200.000	-0.015	0.177
-629.507	81.666	-0.107	0.117
-628.492	-164.634	0.185	-0.008
-627.478	102.745	-0.156	0.183
-626.463	49.887	-0.194	-0.183
-625.449	25.062	-0.057	-0.048
-624.434	-200.000	-0.006	0.122
-623.419	-24.222	0.191	0.114
-622.405	800.000	-0.177	-0.557
-621.390	24.043	-0.133	-0.110
-620.376	-200.000	0.006	0.221
-619.361	110.688	0.063	-0.076
-618.346	154.865	-0.162	0.223
-617.332	-35.220	0.055	0.030
-616.317	-200.000	0.000	-0.151
-615.303	800.000	0.084	-0.234
-614.288	-200.000	0.016	-0.277
-613.273	-200.000	0.029	-0.347
-612.259	-137.463	0.085	-0.010
-611.244	184.616	0.186	-0.277
-610.230	-63.809	0.141	0.058
-609.215	-75.456	-0.058	0.021
-608.201	-200.000	-0.057	0.306
-607.186	-58.877	-0.176	0.076
-606.171	800.000	0.019	-0.052
-605.157	-90.203	-0.246	0.072
-604.142	-178.639	-0.262	-0.006
-603.128	-200.000	0.019	0.092
-602.113	537.312	0.082	-0.194
-601.098	58.617	-0.085	0.084
-600.084	-200.000	0.024	-0.244
-599.069	-113.389	-0.161	-0.032
-598.055	164.283	-0.005	0.007
-597.040	168.018	-0.287	0.409
-596.025	-200.000	-0.000	0.123
-595.011	-67.597	-0.336	0.132
-593.996	-110.379	0.192	0.040
-592.982	800.000	0.008	0.035
-591.967	335.414	-0.095	-0.184
-590.952	-200.000	0.041	0.189
-589.938	-200.000	0.011	0.059
-588.923	149.690	-0.071	0.096
-587.909	35.937	0.208	0.183
-586.894	800.000	-0.098	0.350
-585.879	-196.044	0.077	-0.001
-584.865	-175.974	0.209	-0.006
-583.850	64.558	0.061	0.062
-582.836	-102.078	-0.536	-0.129
-581.821	11.935	0.269	-0.207
-580.806	-100.988	0.228	0.056
-579.792	-200.000	0.015	-0.163
-578.777	149.243	-0.265	-0.359
-577.763	-85.741	-0.184	0.057
-576.748	395.696	0.233	0.486
-575.733	68.176	0.120	0.123
-574.719	-200.000	0.083	-0.396
-573.704	-191.866	-0.253	-0.002
-572.690	-72.629	0.300	-0.111
-571.675	-200.000	-0.003	-0.171
-570.661	7.269	0.288	0.215
-569.646	570.696	-0.163	-0.396
-568.631	-200.000	0.004	-0.047
-567.617	-83.867	-0.201	0.064
-566.602	359.505	-0.044	-0.088
-565.588	243.026	0.137	-0.230
-564.573	348.817	-0.048	0.095
-563.558	-97.811	0.112	0.029
-562.544	-200.000	0.000	-0.110
-561.529	-72.349	-0.351	-0.130
-560.515	-72.704	0.146	0.054
-559.500	390.351	-0.121	-0.251
-558.485	-154.044	-0.239	0.016
-557.471	56.509	0.141	0.137
-556.456	-138.310	0.262	-0.029
-555.442	0.401	-0.210	-0.150
-554.427	-95.263	0.430	0.116
-553.412	-62.316	0.191	-0.079
-552.398	-159.130	0.175	0.010
-551.383	49.158	-0.229	0.215
-550.369	62.903	-0.143	-0.143
-549.354	-42.821	0.227	0.115
-548.339	256.866	-0.122	0.209
-547.325	539.618	0.083	-0.198
-546.310	269.543	0.176	-0.309
-545.296	703.484	-0.043	-0.112
-544.281	800.000	0.111	0.322
-543.266	-11.171	0.040	-0.026
-542.252	437.646	0.038	0.084
-541.237	674.866	-0.183	-0.475
-540.223	-200.000	0.010	-0.093
-539.208	-200.000	0.003	-0.045
-538.193	339.075	-0.245	-0.476
-537.179	800.000	-0.041	-0.174
-536.164	349.025	0.094	-0.185
-535.150	800.000	0.040	-0.122
-534.135	54.834	0.124	0.120
-533.121	-105.868	-0.227	0.051
-532.106	-130.654	0.115	0.016
-531.091	127.539	-0.210	0.266
-530.077	-93.704	-0.054	0.015
-529.062	149.440	0.184	-0.248
-528.048	158.647	-0.191	-0.265
-527.033	-111.337	0.279	-0.057
-526.018	45.475	-0.451	-0.415
-525.004	-200.000	0.002	0.224
-523.989	-19.644	-0.333	0.206
-522.975	-67.212	0.101	0.040
-521.960	800.000	0.070	0.236
-520.945	438.929	0.188	0.410
-519.931	-178.462	-0.169	-0.004
-518.916	-80.937	-0.105	0.035
-517.902	-185.035	0.100	0.002
-516.887	-5.794	0.284	-0.194
-515.872	-14.697	-0.175	-0.112
-514.858	-200.000	-0.064	0.286
-513.843	491.829	0.124	-0.283
-512.829	4.643	-0.101	-0.074
-511.814	-42.986	0.094	-0.048
-510.799	-18.676	-0.095	-0.059
-509.785	231.615	-0.183	-0.299
-508.770	-86.077	-0.071	-0.022
-507.756	800.000	-0.066	0.206
-506.741	-200.000	-0.007	0.044
-505.726	-67.162	0.291	-0.114
-504.712	297.602	0.100	0.183
-503.697	103.135	0.294	-0.343
-502.683	-200.000	-0.043	-0.259
-501.668	-7.769	-0.143	0.096
-500.653	1.319	-0.018	0.013
-499.639	-55.598	0.057	-0.025
-498.624	563.334	-0.021	0.052
-497.610	-200.000	-0.010	-0.473
-496.595	-132.879	-0.387	0.049
-495.581	-93.905	-0.362	-0.099
-494.566	468.873	0.086	0.192
-493.551	-158.530	-0.220	-0.013
-492.537	-57.561	0.205	-0.090
-491.522	-101.697	0.163	-0.040
-490.508	251.303	-0.064	0.108
-489.493	-8.322	-0.041	0.027
-488.478	33.909	0.034	-0.029
-487.464	8.195	0.137	-0.103
-486.449	181.270	-0.079	-0.116
-485.435	-147.007	0.234	0.020
-484.420	-4.967	-0.178	0.122
-483.405	-200.000	0.026	-0.384
-482.391	57.029	-0.183	0.178
-481.376	79.505	0.269	0.288
-480.362	-87.460	-0.152	0.046
-479.347	-28.629	-0.034	-0.019
-478.332	128.028	-0.059	0.075
-477.318	-20.254	-0.232	0.143
-476.303	-200.000	-0.368	0.001
-475.289	-115.888	0.215	0.040
-474.274	123.383	0.258	0.323
-473.259	-189.173	-0.343	-0.004
-472.245	148.345	-0.076	0.102
-471.230	331.396	-0.060	0.115
-470.216	214.591	-0.087	-0.137
-469.201	-72.101	0.153	-0.057
-468.186	800.000	0.056	0.170
-467.172	473.488	-0.176	-0.396
-466.157	426.943	-0.110	-0.237
-465.143	-200.000	0.022	-0.177
-464.128	-27.080	0.281	0.163
-463.113	-136.869	-0.329	0.038
-462.099	-91.488	0.053	-0.015
-461.084	-6.223	-0.144	-0.098
-460.070	272.271	0.067	0.118
-459.055	-120.484	-0.125	0.021
-458.040	-89.091	-0.085	-0.025
-457.026	118.236	0.224	0.275
-456.011	-173.581	-0.103	-0.003
-454.997	-200.000	0.201	0.000
-453.982	-36.936	-0.124	0.066
-452.968	182.046	-0.093	-0.136
-451.953	-200.000	0.024	-0.160
-450.938	658.712	-0.071	-0.183
-449.924	9.723	-0.277	0.209
-448.909	-17.916	0.127	-0.079
-447.895	-49.743	-0.144	-0.068
-446.880	-99.596	0.255	-0.064
-445.865	-72.573	-0.268	-0.098
-444.851	-200.000	-0.033	-0.273
-443.836	130.064	-0.067	0.086
-442.822	-160.916	-0.234	0.012
-441.807	67.660	0.121	0.123
-440.792	74.366	0.158	-0.165
-439.778	310.143	-0.182	-0.339
-438.763	-200.000	0.005	0.167
-437.749	152.704	0.110	0.149
-436.734	40.555	-0.157	0.141
-435.719	800.000	-0.049	0.162
-434.705	-200.000	0.005	0.208
-433.690	88.104	-0.165	0.182
-432.676	363.796	-0.130	-0.261
-431.661	800.000	-0.129	-0.410
-430.646	103.361	-0.151	0.176
-429.632	-62.363	-0.145	0.060
-428.617	-124.604	0.141	0.022
-427.603	-123.315	0.189	-0.030
-426.588	-86.596	-0.216	0.066
-425.573	-56.756	0.152	-0.067
-424.559	-165.144	-0.338	-0.015
-423.544	153.123	0.057	-0.077
-422.530	-113.753	-0.186	-0.036
-421.515	-6.078	-0.269	-0.183
-420.500	53.661	0.163	0.156
-419.486	-34.093	-0.139	-0.076
-418.471	-200.000	0.038	0.235
-417.457	-200.000	0.058	0.336
-416.442	-200.000	-0.057	-0.271
-415.428	604.602	-0.153	-0.380
-414.413	254.981	0.074	0.125
-413.398	489.043	0.147	0.334
-412.384	-21.383	-0.089	0.054
-411.369	14.618	0.215	-0.167
-410.355	114.866	0.219	0.266
-409.340	800.000	0.132	0.488
-408.325	237.391	-0.202	0.333
-407.311	800.000	0.037	0.152
-406.296	800.000	0.011	0.045
-405.282	-52.923	0.047	0.022
-404.267	-109.597	-0.252	0.053
-403.252	-121.787	0.160	0.026
-402.238	-64.697	-0.386	-0.156
-401.223	-76.168	0.365	0.128
-400.209	-11.252	0.187	0.122
-399.194	-20.568	0.119	0.073
-398.179	32.901	0.184	-0.158
-397.165	-124.781	-0.080	0.012
-396.150	-56.818	-0.248	-0.109
-395.136	686.663	0.040	-0.104
-394.121	-179.358	0.023	-0.001
-393.106	172.773	-0.240	-0.343
-392.092	119.823	0.136	0.167
-391.077	368.139	0.202	0.405
-390.063	-74.868	0.247	-0.088
-389.048	-52.619	-0.274	-0.126
-388.033	-92.898	0.190	-0.053
-387.019	-80.125	0.152	-0.051
-386.004	-200.000	0.011	0.190
-384.990	1.021	0.068	-0.048
-383.975	800.000	-0.043	0.151
-382.960	565.925	0.188	-0.452
-381.946	-200.000	0.088	-0.550
-380.931	574.410	-0.107	-0.259
-379.917	800.000	0.060	-0.167
-378.902	-73.618	0.406	0.147
-377.888	-200.000	0.010	0.090
-376.873	217.716	0.105	0.165
-375.858	175.760	0.024	-0.035
-374.844	366.661	-0.008	-0.016
-373.829	-200.000	0.033	0.276
-372.815	-27.402	0.131	0.076
-371.800	7.061	0.200	-0.148
-370.785	-144.924	-0.138	-0.013
-369.771	-200.000	-0.011	0.077
-368.756	1.866	-0.134	-0.096
-367.742	704.579	0.112	0.292
-366.727	-45.785	0.243	0.119
-365.712	-28.914	-0.455	-0.260
-364.698	-104.537	0.187	-0.043
-363.683	-8.981	-0.121	0.080
-362.669	59.899	0.176	-0.173
-361.654	800.000	-0.042	-0.156
-360.639	788.014	0.108	-0.294
-359.625	440.488	0.006	0.013
-358.610	-142.447	-0.133	0.013
-357.596	285.399	-0.076	0.136
-356.581	800.000	0.025	0.108
-355.566	338.915	0.156	0.302
-354.552	-200.000	-0.005	0.058
-353.537	-15.935	0.406	-0.257
-352.523	800.000	-0.169	0.530
-351.508	-169.082	0.138	-0.005
-350.493	-200.000	0.009	0.163
-349.479	92.799	0.110	0.123
-348.464	58.236	0.212	-0.206
-347.450	14.690	0.220	0.170
-346.435	-35.884	-0.271	0.145
-345.420	-200.000	-0.015	0.149
-344.406	-176.650	-0.238	-0.006
-343.391	-111.638	0.262	0.053
-342.377	30.411	-0.227	0.192
-341.362	-177.091	0.405	0.010
-340.348	-22.828	0.253	-0.151
-339.333	-129.574	0.020	0.003
-338.318	-68.760	-0.108	-0.041
-337.304	553.068	0.058	-0.138
-336.289	-61.587	0.065	0.027
-335.275	1.143	0.089	0.063
-334.260	396.103	-0.131	0.272
-333.245	224.673	-0.077	0.124
-332.231	110.914	-0.109	0.130
-331.216	164.458	-0.198	0.277
-330.202	-65.079	-0.344	0.138
-329.187	6.033	0.201	-0.148
-328.172	800.000	-0.068	-0.199
-327.158	267.084	-0.161	0.278
-326.143	-69.685	-0.093	0.035
-325.129	-22.320	0.261	-0.157
-324.114	500.742	-0.185	0.423
-323.099	800.000	0.037	0.154
-322.085	800.000	0.109	-0.362
-321.070	34.817	-0.029	-0.025
-320.056	38.894	0.251	-0.222
-319.041	-156.306	0.391	0.024
-318.026	-200.000	0.024	0.156
-317.012	-107.672	0.257	0.056
-315.997	-200.000	0.018	0.486
-314.983	-86.998	-0.061	-0.018
-313.968	-200.000	0.039	-0.357
-312.953	248.311	0.063	0.106
-311.939	64.056	-0.131	-0.130
-310.924	-16.391	0.030	0.019
-309.910	-200.000	0.092	0.432
-308.895	-101.411	0.323	0.078
-307.880	368.623	-0.141	0.283
-306.866	-4.403	0.010	-0.007
-305.851	-200.000	0.004	-0.430
-304.837	-34.588	-0.316	0.171
-303.822	800.000	0.016	-0.056
-302.807	800.000	-0.074	-0.280
-301.793	-22.953	0.087	0.052
-300.778	-10.483	-0.369	-0.242
-299.764	222.708	-0.113	-0.181
-298.749	-200.000	0.021	-0.262
-297.735	-8.229	-0.155	0.103
-296.720	549.456	-0.086	-0.203
-295.705	128.995	-0.067	0.084
-294.691	-200.000	-0.001	0.208
-293.676	17.336	0.242	-0.190
-292.662	-200.000	0.000	-0.061
-291.647	800.000	0.028	0.110
-290.632	-194.365	0.193	-0.002
-289.618	-106.316	0.601	-0.133
-288.603	-84.626	0.211	0.066
-287.589	-49.438	-0.282	-0.133
-286.574	-89.445	-0.058	-0.017
-285.559	-54.160	0.271	-0.122
-284.545	337.506	0.237	-0.455
-283.530	-123.099	-0.131	0.021
-282.516	-51.571	0.152	0.070
-281.501	-101.012	-0.268	-0.065
-280.486	-148.402	0.460	0.037
-279.472	-79.897	-0.066	-0.022
-278.457	268.469	0.102	0.176
-277.443	1.698	-0.176	0.126
-276.428	-21.268	-0.240	0.145
-275.413	-200.000	-0.027	0.253
-274.399	-170.627	-0.124	0.004
-273.384	-137.269	-0.324	0.036
-272.370	106.935	-0.068	-0.079
-271.355	-66.138	0.061	-0.024
-270.340	-37.590	-0.161	-0.085
-269.326	312.335	0.073	-0.135
-268.311	-104.253	0.144	-0.033
-267.297	-200.000	0.155	0.001
-266.282	-192.998	-0.241	-0.002
-265.267	296.315	-0.115	0.209
-264.253	415.080	-0.073	0.154
-263.238	-73.777	-0.290	0.104
-262.224	800.000	0.058	-0.173
-261.209	-45.400	0.045	0.022
-260.195	213.441	-0.112	-0.175
-259.180	42.149	0.158	-0.141
-258.165	800.000	0.100	0.274
-257.151	-200.000	-0.012	0.198
-256.136	-152.390	0.318	-0.023
-255.122	-200.000	0.070	-0.446
-254.107	35.047	0.110	0.095
-253.092	571.742	0.249	0.600
-252.078	-200.000	0.011	0.162
-251.063	126.471	0.099	0.123
-250.049	-200.000	-0.055	0.240
-249.034	800.000	-0.144	-0.468
-248.019	-12.001	0.396	-0.256
-247.005	-103.740	-0.108	-0.025
-245.990	-41.635	-0.146	-0.074
-244.976	-200.000	-0.034	-0.201
-243.961	-55.510	-0.309	0.137
-242.946	800.000	0.018	-0.052
-241.932	513.730	-0.070	-0.161
-240.917	-152.828	-0.187	0.013
-239.903	-200.000	-0.007	-0.089
-238.888	800.000	0.050	-0.186
-237.873	800.000	-0.003	-0.009
-236.859	800.000	0.007	0.023
-235.844	237.265	0.157	0.257
-234.830	-104.094	0.553	-0.127
-233.815	-200.000	-0.017	-0.223
-232.800	-48.257	0.421	-0.200
-231.786	-129.343	0.146	-0.020
-230.771	-67.377	0.181	-0.070
-229.757	86.917	-0.164	0.179
-228.742	558.189	0.048	-0.114
-227.727	-200.000	-0.037	-0.243
-226.713	-72.362	-0.456	0.166
-225.698	67.207	0.164	0.165
-224.684	-22.189	0.225	-0.135
-223.669	-159.751	0.299	0.016
-222.655	-66.456	-0.250	-0.098
-221.640	58.039	-0.179	-0.173
-220.625	434.060	-0.051	0.109
-219.611	448.016	-0.104	-0.226
-218.596	-65.876	0.162	-0.064
-217.582	406.691	-0.118	0.246
-216.567	351.096	-0.095	-0.186
-215.552	21.028	-0.119	-0.095
-214.538	800.000	0.056	0.220
-213.523	235.115	-0.146	0.237
-212.509	-100.216	0.118	0.029
-211.494	109.394	-0.108	-0.128
-210.479	469.685	-0.135	0.300
-209.465	-49.946	0.206	0.097
-208.450	-73.242	-0.089	0.032
-207.436	-37.459	-0.246	0.129
-206.421	-131.329	0.108	-0.014
-205.406	-51.557	0.283	-0.130
-204.392	-182.914	-0.207	-0.004
-203.377	-113.749	0.352	-0.068
-202.363	800.000	0.040	0.153
-201.348	-51.127	0.115	0.053
-200.333	-200.000	-0.014	-0.128
-199.319	-84.734	0.177	0.055
-198.304	-68.943	0.337	-0.128
-197.290	-159.672	-0.301	-0.016
-196.275	-9.038	0.318	-0.210
-195.260	97.660	0.248	-0.280
-194.246	-200.000	-0.003	-0.402
-193.231	-133.157	-0.278	0.035
-192.217	-17.190	0.030	0.019
-191.202	126.662	-0.032	0.040
-190.187	134.547	-0.140	-0.179
-189.173	34.152	-0.132	0.113
-188.158	800.000	0.079	0.234
-187.144	800.000	0.005	0.017
-186.129	-92.967	0.088	-0.024
-185.114	-100.234	-0.163	0.040
-184.100	-200.000	0.006	0.129
-183.085	-199.387	0.132	0.001
-182.071	73.029	-0.143	-0.148
-181.056	402.472	-0.250	0.518
-180.042	-115.438	0.299	0.056
-179.027	-79.243	-0.293	0.098
-178.012	800.000	-0.028	-0.112
-176.998	-71.977	-0.319	0.117
-175.983	-83.391	0.140	-0.044
-174.969	-78.312	0.047	-0.016
-173.954	800.000	-0.067	-0.183
-172.939	180.803	0.185	0.267
-171.925	800.000	0.076	0.236
-170.910	507.876	-0.138	0.316
-169.896	54.995	0.289	0.274
-168.881	-149.432	0.500	0.039
-167.866	-200.000	-0.037	0.324
-166.852	-22.685	0.262	0.156
-165.837	29.309	0.192	0.161
-164.823	-43.510	-0.060	-0.030
-163.808	111.766	0.294	-0.349
-162.793	86.580	-0.142	-0.155
-161.779	229.583	-0.058	-0.093
-160.764	-200.000	-0.056	-0.266
-159.750	-200.000	-0.034	0.272
-158.735	-30.509	0.238	0.133
-157.720	13.902	0.197	-0.151
-156.706	229.429	-0.313	0.503
-155.691	430.173	-0.147	0.312
-154.677	-70.869	0.060	-0.022
-153.662	403.747	-0.081	0.167
-152.647	-200.000	-0.008	-0.095
-151.633	272.545	0.059	-0.102
-150.618	-38.643	-0.129	0.067
-149.604	-119.092	-0.196	0.034
-148.589	-75.537	-0.288	0.101
-147.574	61.530	0.409	-0.401
-146.560	-66.460	-0.203	-0.079
-145.545	247.061	-0.106	-0.175
-144.531	-104.017	-0.252	0.058
-143.516	-200.000	0.035	0.331
-142.502	-200.000	0.033	-0.191
-141.487	264.159	-0.083	-0.141
-140.472	121.038	0.108	-0.132
-139.458	-156.272	-0.215	-0.013
-138.443	-86.767	-0.071	-0.021
-137.429	-200.000	-0.008	0.068
-136.414	37.296	-0.056	-0.049
-135.399	90.976	0.215	-0.237
-134.385	-62.038	-0.191	0.078
-133.370	19.327	-0.496	-0.392
-132.356	93.189	0.047	-0.053
-131.341	58.170	0.083	0.080
-130.326	103.044	0.196	-0.226
-129.312	800.000	0.057	0.185
-128.297	-187.191	-0.095	0.001
-127.283	-41.078	0.368	0.187
-126.268	143.930	-0.182	-0.238
-125.253	-200.000	-0.028	-0.285
-124.239	65.318	0.135	-0.134
-123.224	29.253	0.166	-0.139
-122.210	-150.473	-0.166	-0.013
-121.195	-62.428	-0.222	-0.091
-120.180	-52.984	-0.008	0.004
-119.166	-89.644	-0.128	0.037
-118.151	800.000	0.028	-0.085
-117.137	-200.000	0.014	0.098
-116.122	-74.274	-0.207	-0.073
-115.107	-200.000	0.028	-0.249
-114.093	-64.662	-0.045	-0.018
-113.078	-16.534	-0.075	-0.046
-112.064	-200.000	0.010	-0.072
-111.049	62.239	0.053	-0.052
-110.034	35.871	-0.168	0.145
-109.020	-149.468	0.294	0.023
-108.005	800.000	0.099	-0.272
-106.991	-114.636	0.321	0.060
-105.976	-2.465	0.303	0.208
-104.962	420.557	0.178	-0.374
-103.947	-124.894	-0.416	0.063
-102.932	136.620	0.045	0.058
-101.918	68.699	0.127	-0.128
-100.903	11.562	0.178	-0.134
-99.889	164.411	0.110	0.152
-98.874	-141.092	-0.118	-0.012
-97.859	-200.000	-0.053	0.267
-96.845	306.418	-0.098	0.179
-95.830	800.000	-0.119	-0.353
-94.816	225.679	0.088	-0.141
-93.801	-181.332	0.018	-0.000
-92.786	-46.178	0.033	-0.016
-91.772	175.930	0.162	0.231
-90.757	121.550	0.190	0.232
-89.743	350.213	-0.054	0.105
-88.728	-173.904	0.418	-0.012
-87.713	125.813	0.100	0.123
-86.699	-200.000	0.000	-0.375
-85.684	800.000	0.102	0.334
-84.670	800.000	0.041	0.171
-83.655	-55.199	0.335	0.148
-82.640	800.000	0.135	0.386
-81.626	686.947	-0.044	-0.112
-80.611	-74.950	-0.134	-0.047
-79.597	800.000	0.046	0.134
-78.582	800.000	-0.060	0.189
-77.567	124.012	0.200	-0.246
-76.553	468.685	-0.120	0.263
-75.538	-51.804	-0.222	-0.101
-74.524	-200.000	-0.050	-0.220
-73.509	-32.802	0.156	0.085
-72.494	575.410	0.052	0.125
-71.480	10.323	0.112	-0.084
-70.465	281.852	0.017	-0.030
-69.451	55.204	-0.160	-0.151
-68.436	-200.000	0.010	0.216
-67.422	115.118	-0.143	0.172
-66.407	182.971	0.023	0.034
-65.392	-144.193	-0.231	-0.021
-64.378	-131.113	-0.336	-0.044
-63.363	161.495	-0.071	0.097
-62.349	800.000	-0.034	0.096
-61.334	113.112	-0.809	-0.962
-60.319	800.000	0.138	0.585
-59.305	-200.000	-0.158	-1.098
-58.290	466.214	0.590	1.295
-57.276	800.000	0.526	1.798
-56.261	-200.000	99.713	619.693
-55.246	580.024	1422.326	3414.704
-54.232	189.720	2614.414	3843.430
-53.217	117.778	2143.290	2586.584
-52.203	43.281	1593.170	1425.962
-51.188	34.698	1329.639	1139.129
-50.173	31.455	1288.345	1084.931
-49.159	54.760	1337.321	1264.355
-48.144	56.255	1353.676	1288.590
-47.130	34.768	1311.379	1123.718
-46.115	31.300	1294.018	1088.630
-45.100	31.140	1288.535	1083.048
-44.086	31.003	1286.364	1080.385
-43.071	30.957	1284.517	1078.525
-42.057	31.030	1281.972	1076.766
-41.042	30.928	1280.619	1074.997
-40.027	30.956	1279.675	1074.322
-39.013	30.989	1277.356	1072.528
-37.998	30.998	1276.354	1071.692
-36.984	31.118	1273.680	1070.096
-35.969	31.157	1271.980	1068.847
-34.954	31.127	1270.319	1067.234
-33.940	31.234	1268.673	1066.423
-32.925	31.240	1267.694	1065.595
-31.911	31.195	1266.162	1064.005
-30.896	31.184	1265.187	1063.081
-29.881	31.251	1263.501	1062.003
-28.867	31.266	1262.602	1061.293
-27.852	31.223	1260.825	1059.512
-26.838	31.311	1259.116	1058.530
-25.823	31.140	1258.668	1057.141
-24.809	31.213	1256.883	1056.017
-23.794	31.254	1255.412	1054.969
-22.779	31.217	1254.140	1053.649
-21.765	31.293	1252.939	1053.030
-20.750	31.147	1251.784	1051.192
-19.736	31.218	1249.967	1050.026
-18.721	31.093	1249.126	1048.573
-17.706	31.153	1247.551	1047.544
-16.692	31.029	1246.437	1045.876
-15.677	31.031	1245.852	1045.353
-14.663	31.065	1244.598	1044.452
-13.648	31.062	1243.770	1043.696
-12.633	30.998	1242.649	1042.358
-11.619	31.024	1241.891	1041.826
-10.604	31.123	1240.623	1041.275
-9.590	31.066	1239.623	1040.074
-8.575	30.980	1239.086	1039.103
-7.560	31.041	1237.870	1038.384
-6.546	31.117	1237.043	1038.068
-5.531	30.927	1236.357	1036.397
-4.517	31.016	1235.785	1036.371
-3.502	31.023	1234.574	1035.349
-2.487	31.163	1233.618	1035.284
-1.473	30.928	1229.572	1030.552
-0.458	29.400	1214.431	1009.464
0.556	23.494	1196.566	970.508
1.571	19.794	1201.660	954.176
2.586	18.896	1216.064	960.513
3.600	18.594	1205.485	950.401
4.615	13.404	1134.521	867.240
5.629	4.187	1060.024	764.908
6.644	0.028	1039.596	729.947
7.659	-0.315	1037.019	726.412
8.673	-0.428	1036.387	725.356
9.688	-0.503	1034.432	723.561
10.702	-0.076	1032.574	724.260
11.717	5.818	1040.976	758.663
12.731	14.858	1053.644	811.917
13.746	18.684	1058.440	834.168
14.761	19.107	1058.543	836.234
15.775	19.004	1058.081	835.291
16.790	18.705	1057.378	833.214
17.804	18.694	1056.721	832.567
18.819	18.819	1055.954	832.495
19.834	18.874	1055.774	832.545
20.848	18.909	1055.024	832.053
21.863	18.936	1054.162	831.430
22.877	18.755	1054.120	830.446
23.892	18.750	1053.231	829.649
24.907	18.868	1052.612	829.656
25.921	18.749	1051.253	827.937
26.936	18.805	1050.239	827.336
27.950	18.752	1048.397	825.558
28.965	18.668	1046.179	823.336
29.980	18.713	1044.645	822.271
30.994	18.949	1043.865	822.712
32.009	18.852	1042.569	821.154
33.023	18.577	1040.904	818.461
34.038	18.671	1040.409	818.447
35.053	18.951	1039.548	819.031
36.067	18.977	1038.727	818.433
37.082	18.986	1037.909	817.759
38.096	19.254	1036.799	818.084
39.111	19.222	1036.012	817.241
40.126	19.019	1034.999	815.406
41.140	18.557	1033.338	811.839
42.155	18.496	1031.715	810.204
43.169	18.692	1030.728	810.282
44.184	18.660	1029.425	809.038
45.199	18.599	1027.990	807.549
46.213	18.483	1027.839	806.814
47.228	18.532	1026.811	806.168
48.242	18.728	1025.262	805.797
49.257	18.819	1024.648	805.670
50.271	18.962	1023.626	805.466
51.286	18.903	1022.678	804.373
52.301	18.786	1022.251	803.421
53.315	18.849	1020.622	802.363
54.330	18.920	1019.795	801.971
55.344	18.934	1019.189	801.490
56.359	18.738	1018.089	799.640
57.374	18.788	1016.795	798.786
58.388	18.726	1016.653	798.318
59.403	18.690	1015.604	797.255
60.417	18.682	1014.400	796.202
61.432	18.586	1013.989	795.361
62.447	18.652	1013.395	795.134
63.461	18.890	1012.307	795.309
64.476	18.820	1011.306	794.130
65.490	18.677	1010.857	793.046
66.505	18.724	1009.900	792.443
67.520	18.726	1009.470	792.043
68.534	18.551	1008.311	790.256
69.549	18.398	1007.043	788.488
70.563	18.377	1006.257	787.709
71.578	18.360	1005.402	786.891
72.593	18.124	1004.922	785.362
73.607	18.346	1004.244	785.784
74.622	18.672	1003.487	786.616
75.636	18.608	1002.738	785.666
76.651	18.562	1001.891	784.722
77.666	18.305	1001.422	783.111
78.680	18.488	1000.315	783.010
79.695	18.565	1000.215	783.215
80.709	18.581	999.624	782.755
81.724	18.526	998.666	781.685
82.739	18.635	997.682	781.341
83.753	18.908	997.365	782.269
84.768	19.027	996.402	781.984
85.782	19.124	995.042	781.286
86.797	19.133	993.943	780.395
87.812	19.004	993.006	779.009
88.826	18.965	992.211	778.138
89.841	19.094	991.475	778.075
90.855	19.158	990.056	777.183
91.870	19.221	989.225	776.744
92.884	18.943	988.209	774.627
93.899	18.923	987.425	773.852
94.914	19.059	986.645	773.787
95.928	18.999	985.429	772.495
96.943	18.766	984.287	770.483
97.957	18.652	982.936	768.848
98.972	18.271	982.356	766.622
99.987	18.541	981.609	767.179
101.001	18.784	980.583	767.391
102.016	18.767	980.006	766.796
103.030	18.822	978.646	765.911
104.045	18.512	977.541	763.599
105.060	18.408	976.525	762.273
106.074	18.706	975.970	763.097
107.089	18.997	975.750	764.154
108.103	18.884	974.546	762.639
109.118	18.784	973.316	761.167
110.133	18.754	972.511	760.338
111.147	18.574	971.102	758.372
112.162	18.470	969.820	756.846
113.176	18.657	969.395	757.271
114.191	18.622	968.624	756.446
115.206	18.338	967.081	753.928
116.220	18.364	966.475	753.503
117.235	18.364	965.791	752.902
118.249	18.447	964.984	752.570
119.264	18.387	963.917	751.410
120.279	18.432	963.015	750.836
121.293	18.554	962.186	750.657
122.308	18.614	961.672	750.453
123.322	18.391	960.256	748.305
124.337	18.350	958.744	746.884
125.352	18.079	956.699	744.045
126.366	17.890	956.306	742.852
127.381	18.698	955.432	745.620
128.395	18.860	955.675	746.445
129.410	18.955	954.355	745.759
130.424	19.002	952.911	744.769
131.439	18.842	952.728	743.867
132.454	18.815	951.876	743.022
133.468	18.901	950.461	742.222
134.483	18.997	949.515	741.832
135.497	19.124	949.120	742.005
136.512	18.969	948.525	740.806
137.527	19.222	946.956	740.605
138.541	19.137	946.570	739.870
139.556	19.199	945.758	739.437
140.570	19.144	945.002	738.543
141.585	19.174	943.579	737.495
142.600	19.054	942.956	736.428
143.614	19.323	942.108	736.852
144.629	19.314	941.195	736.033
145.643	19.057	940.358	734.219
146.658	19.028	938.785	732.801
147.673	19.077	937.826	732.197
148.687	18.908	936.894	730.683
149.702	19.013	935.500	729.979
150.716	19.032	934.822	729.468
151.731	19.137	934.176	729.340
152.746	19.185	933.848	729.226
153.760	19.350	933.255	729.396
154.775	19.358	932.274	728.599
155.789	19.279	931.675	727.733
156.804	19.359	930.497	727.085
157.819	19.266	929.853	726.125
158.833	19.367	929.306	726.058
159.848	19.315	928.046	724.794
160.862	19.268	927.008	723.719
161.877	19.226	926.329	722.949
162.892	19.447	925.392	723.080
163.906	19.312	924.300	721.598
164.921	19.231	923.886	720.873
165.935	19.307	922.688	720.192
166.950	19.307	921.955	719.554
167.964	19.483	920.537	719.117
168.979	19.194	919.802	717.279
169.994	19.165	919.050	716.508
171.008	19.278	918.811	716.725
172.023	19.199	917.637	715.419
173.037	18.961	916.283	713.314
174.052	19.018	915.474	712.856
175.067	19.122	915.135	712.962
176.081	19.293	914.619	713.204
177.096	19.202	914.119	712.373
178.110	18.840	912.621	709.648
179.125	18.709	912.339	708.826
180.140	18.782	911.595	708.485
181.154	18.979	911.089	708.843
182.169	19.178	911.035	709.555
183.183	19.346	910.528	709.790
184.198	19.343	909.300	708.759
185.213	19.168	909.210	707.905
186.227	19.300	908.059	707.489
187.242	19.331	907.475	707.100
188.256	19.257	906.852	706.249
189.271	19.339	905.805	705.704
190.286	19.128	904.948	704.114
191.300	18.802	903.208	701.366
192.315	17.950	902.248	697.081
193.329	17.825	901.742	696.120
194.344	18.699	902.143	699.931
195.359	19.253	901.548	701.666
196.373	19.261	901.211	701.375
197.388	18.974	900.409	699.521
198.402	19.030	899.789	699.207
199.417	19.133	899.071	699.002
200.432	18.824	897.887	696.767
201.446	18.584	897.115	695.134
202.461	18.638	896.663	694.942
203.475	17.836	894.887	690.260
204.490	17.335	893.546	687.141
205.504	18.370	894.095	691.687
206.519	18.829	893.617	693.106
207.534	18.835	893.306	692.827
208.548	19.156	893.526	694.233
209.563	18.991	892.258	692.520
210.577	19.025	891.779	692.226
211.592	19.312	891.377	693.005
212.607	19.160	890.252	691.460
213.621	19.288	889.772	691.537
214.636	19.344	888.860	690.994
215.650	19.257	888.489	690.294
216.665	19.306	888.009	690.059
217.680	19.215	886.737	688.644
218.694	18.872	885.454	686.216
219.709	18.906	884.604	685.631
220.723	19.013	884.490	685.910
221.738	19.225	883.894	686.233
222.753	19.162	883.220	685.400
223.767	19.182	883.047	685.283
224.782	19.208	882.612	684.989
225.796	19.413	882.063	685.318
226.811	18.824	880.024	681.336
227.826	18.224	879.204	678.262
228.840	18.526	879.126	679.339
229.855	18.361	878.492	678.137
230.869	18.223	877.001	676.381
231.884	18.648	876.914	677.931
232.899	19.166	877.172	680.120
233.913	19.244	876.269	679.665
234.928	19.293	875.974	679.570
235.942	19.103	875.448	678.351
236.957	18.848	874.140	676.275
237.972	19.001	873.701	676.479
238.986	19.036	872.909	675.941
240.001	19.016	872.341	675.363
241.015	19.179	871.532	675.317
242.030	19.285	870.840	675.139
243.045	19.391	870.460	675.199
244.059	19.343	870.315	674.836
245.074	19.217	868.655	672.998
246.088	18.823	867.770	670.715
247.103	19.144	867.713	671.864
248.117	19.574	867.761	673.520
249.132	19.694	867.042	673.370
250.147	19.752	866.473	673.093
251.161	19.890	865.788	673.038
252.176	20.024	864.955	672.854
253.190	19.904	864.802	672.209
254.205	20.061	864.366	672.419
255.220	20.138	863.458	671.952
256.234	19.945	862.890	670.701
257.249	19.821	862.090	669.543
258.263	19.906	861.380	669.261
259.278	19.995	860.500	668.861
260.293	20.110	859.962	668.826
261.307	19.881	859.603	667.604
262.322	19.753	858.253	666.004
263.336	18.815	856.347	660.859
264.351	17.884	854.110	655.501
265.366	18.148	854.157	656.494
266.380	19.203	855.056	661.179
267.395	19.588	854.977	662.535
268.409	19.537	854.104	661.605
269.424	19.754	853.444	661.867
270.439	19.945	852.848	662.078
271.453	19.996	852.193	661.704
272.468	19.988	852.348	661.734
273.482	20.277	851.447	662.079
274.497	19.570	850.683	658.732
275.512	19.270	849.420	656.553
276.526	19.865	849.251	658.628
277.541	19.978	848.586	658.483
278.555	19.545	848.435	656.663
279.570	19.385	847.033	654.913
280.585	19.745	846.414	655.742
281.599	19.647	845.936	654.943
282.614	19.235	844.480	652.196
283.628	19.243	843.918	651.735
284.643	19.563	843.510	652.573
285.657	19.219	842.923	650.760
286.672	18.994	841.880	649.049
287.687	19.480	841.588	650.601
288.701	19.409	840.750	649.625
289.716	19.132	839.898	647.869
290.730	19.086	839.478	647.315
291.745	18.824	838.126	645.231
292.760	19.219	838.307	646.796
293.774	20.062	838.958	650.406
294.789	20.335	838.716	651.187
295.803	20.469	838.155	651.194
296.818	20.536	837.104	650.571
297.833	20.259	835.789	648.457
298.847	19.965	835.626	647.176
299.862	20.276	834.925	647.735
300.876	20.322	835.056	647.951
301.891	20.199	833.948	646.575
302.906	19.839	832.953	644.407
303.920	19.901	832.292	644.071
304.935	20.527	832.132	646.217
305.949	20.235	831.526	644.604
306.964	20.209	831.184	644.183
307.979	20.195	830.617	643.637
308.993	20.471	830.271	644.334
310.008	20.496	829.704	643.930
311.022	20.386	828.598	642.610
312.037	20.261	828.116	641.714
313.052	20.004	827.622	640.324
314.066	19.199	825.934	635.993
315.081	18.932	825.487	634.606
316.095	19.734	825.863	637.799
317.110	20.155	825.540	639.046
318.125	19.365	824.044	634.925
319.139	18.541	822.408	630.579
320.154	18.599	822.465	630.779
321.168	19.330	822.384	633.347
322.183	19.918	822.549	635.578
323.197	20.043	822.402	635.867
324.212	20.282	821.726	636.164
325.227	20.177	821.434	635.499
326.241	20.233	820.341	634.802
327.256	20.083	820.089	634.001
328.270	20.068	819.223	633.221
329.285	19.755	818.599	631.540
330.300	19.655	817.981	630.640
331.314	20.039	816.986	631.216
332.329	20.163	817.362	631.903
333.343	20.234	816.262	631.257
334.358	20.329	816.211	631.508
335.373	20.307	816.004	631.211
336.387	20.611	815.935	632.206
337.402	20.711	815.568	632.232
338.416	20.566	814.928	631.153
339.431	20.690	814.835	631.474
340.446	20.772	814.551	631.497
341.460	20.600	813.714	630.166
342.475	20.526	813.259	629.491
343.489	20.549	813.344	629.586
344.504	20.797	812.857	630.049
345.519	20.905	812.574	630.166
346.533	21.087	811.984	630.311
347.548	21.201	811.165	630.028
348.562	20.927	811.155	628.979
349.577	21.000	810.252	628.482
350.592	21.059	809.683	628.199
351.606	21.043	808.952	627.521
352.621	20.869	808.329	626.355
353.635	20.829	807.278	625.341
354.650	20.203	805.868	621.952
355.665	19.312	804.430	617.595
356.679	19.587	804.494	618.572
357.694	20.057	804.164	619.948
358.708	20.165	803.326	619.632
359.723	20.515	803.209	620.739
360.738	20.774	802.772	621.269
361.752	20.747	802.448	620.867
362.767	21.198	801.736	621.867
363.781	21.245	801.743	621.985
364.796	21.350	801.084	621.792
365.810	21.371	800.654	621.477
366.825	21.214	800.546	620.784
367.840	20.987	799.428	619.054
368.854	20.759	798.718	617.640
369.869	20.910	798.188	617.713
370.883	20.853	797.891	617.226
371.898	20.694	796.902	615.844
372.913	20.811	797.254	616.476
373.927	20.990	796.616	616.560
374.942	21.029	796.087	616.234
375.956	21.155	795.977	616.538
376.971	21.364	795.330	616.719
377.986	21.301	795.208	616.348
379.000	21.325	794.472	615.808
380.015	21.081	794.064	614.578
381.029	21.219	793.764	614.778
382.044	21.243	793.367	614.500
383.059	21.272	792.491	613.870
384.073	21.260	792.144	613.503
385.088	21.484	791.316	613.594
386.102	21.130	790.988	612.045
387.117	21.146	790.027	611.303
388.132	20.830	789.233	609.530
389.146	20.312	788.453	607.062
390.161	20.662	788.404	608.195
391.175	20.986	787.823	608.822
392.190	20.741	786.725	607.065
393.205	19.624	785.454	602.142
394.219	18.323	783.581	596.125
395.234	18.503	783.107	596.338
396.248	19.840	784.657	602.120
397.263	21.077	785.179	606.775
398.278	21.089	785.073	606.680
399.292	20.951	784.129	605.417
400.307	20.736	783.948	604.479
401.321	20.970	783.523	604.910
402.336	21.119	783.749	605.547
403.350	21.360	783.374	606.040
404.365	21.798	782.804	607.063
405.380	21.957	782.373	607.224
406.394	21.833	781.907	606.379
407.409	21.919	781.344	606.188
408.423	21.842	781.196	605.752
409.438	21.755	781.117	605.338
410.453	22.029	780.354	605.638
411.467	22.127	779.799	605.489
412.482	21.919	779.358	604.378
413.496	21.992	779.077	604.358
414.511	21.972	778.891	604.091
415.526	21.970	778.012	603.351
416.540	21.852	777.448	602.455
417.555	21.774	776.447	601.357
418.569	21.738	776.209	600.997
419.584	21.379	776.351	599.822
420.599	21.289	775.493	598.797
421.613	158.465	1361.893	1796.491
422.628	136.812	1447.342	1796.566
