DTS Sentinel unit serial number:	SN413079Multiplexer serial number:	ORYXHardware model number:	OX4-SRSoftware version number:	ORYX F/W v4.00 Oryx Data Collector v3.7.2.0data status	okinstallation	princeton_trtdifferential loss correction	single-endedforward channel	channel 1reverse channel	N/Adate	2019/09/13time	10:18:35forward acquisition time	60.00reverse acquisition time	0.00gamma	496.2192k internal	0.2323k external	0.2323temperature offset calibration	1.0160default loss term (dB/km)	0.3790temperature slope calibration	1.0000multiplexer offset coefficient	1.0000multiplexer slope coefficient	1.0000fibre end	0.00T internal ref (°C)	30.80T ext. ref 1 (°C)	4.51T ext. ref 2 (°C)	28.07length (m)	temperature (°C)	Stokes	anti-Stokes-747.200	-15.007	-0.151	-0.098
-746.185	35.332	0.161	0.143
-745.171	-200.000	-0.008	-0.056
-744.156	-59.772	-0.293	0.126
-743.142	436.634	-0.022	-0.047
-742.127	-200.000	0.000	-0.053
-741.112	24.548	0.109	0.091
-740.098	-163.819	0.314	0.015
-739.083	597.710	0.109	0.272
-738.069	-200.000	-0.102	0.674
-737.054	11.939	-0.131	-0.102
-736.039	-200.000	-0.041	-0.217
-735.025	-104.438	0.185	-0.043
-734.010	-169.774	-0.289	0.011
-732.996	-71.607	-0.349	-0.131
-731.981	-86.997	-0.089	0.027
-730.966	60.886	-0.124	0.124
-729.952	22.989	-0.303	-0.251
-728.937	-200.000	-0.059	0.278
-727.923	-41.409	-0.234	0.122
-726.908	240.956	0.119	-0.200
-725.894	-200.000	-0.025	-0.311
-724.879	-47.909	-0.199	0.097
-723.864	-139.550	0.127	-0.014
-722.850	-56.921	-0.056	-0.025
-721.835	390.275	0.090	-0.188
-720.821	-97.044	-0.329	-0.087
-719.806	182.669	0.154	0.230
-718.791	57.515	-0.073	-0.072
-717.777	800.000	-0.091	0.391
-716.762	-81.817	0.273	-0.090
-715.748	-200.000	-0.030	-0.314
-714.733	-126.745	-0.055	0.008
-713.718	59.600	-0.201	0.200
-712.704	238.884	-0.156	0.262
-711.689	-188.410	-0.260	-0.003
-710.675	-194.892	-0.153	0.001
-709.660	75.664	0.134	-0.143
-708.645	-108.741	-0.117	0.025
-707.631	-131.797	-0.249	-0.033
-706.616	-45.353	-0.271	0.136
-705.602	800.000	-0.024	0.089
-704.587	800.000	-0.088	0.340
-703.572	-191.753	-0.047	-0.000
-702.558	85.859	0.130	0.144
-701.543	150.995	-0.035	-0.048
-700.529	-98.366	-0.228	0.059
-699.514	800.000	-0.090	-0.254
-698.499	800.000	0.013	0.041
-697.485	-143.198	-0.367	0.036
-696.470	-9.390	0.313	-0.211
-695.456	-200.000	0.005	-0.246
-694.441	196.022	0.040	-0.061
-693.426	238.756	-0.128	0.215
-692.412	576.724	0.077	-0.191
-691.397	-81.808	0.242	-0.080
-690.383	-200.000	0.029	0.130
-689.368	-131.928	-0.120	0.016
-688.354	-200.000	0.003	-0.144
-687.339	-34.165	-0.260	-0.144
-686.324	128.819	0.104	0.134
-685.310	-162.518	-0.471	0.023
-684.295	-130.570	-0.206	-0.028
-683.281	221.373	-0.187	-0.302
-682.266	-28.656	-0.316	0.183
-681.251	786.959	0.096	-0.266
-680.237	767.018	0.022	-0.061
-679.222	800.000	0.047	-0.154
-678.208	256.707	-0.056	0.097
-677.193	-61.174	-0.329	-0.140
-676.178	66.091	-0.256	-0.261
-675.164	800.000	-0.102	-0.375
-674.149	-84.096	-0.109	0.035
-673.135	156.951	-0.070	-0.097
-672.120	400.374	-0.098	0.207
-671.105	639.950	-0.135	0.345
-670.091	403.555	0.162	-0.344
-669.076	-28.638	-0.414	-0.240
-668.062	-117.491	-0.385	-0.070
-667.047	-200.000	0.018	-0.238
-666.032	94.377	0.221	-0.252
-665.018	-111.099	0.291	-0.060
-664.003	-90.041	0.112	-0.033
-662.989	-135.493	0.074	0.009
-661.974	-200.000	0.016	0.110
-660.959	-0.201	-0.359	-0.257
-659.945	3.113	0.163	-0.119
-658.930	-3.520	0.146	-0.102
-657.916	800.000	0.011	0.035
-656.901	800.000	0.031	-0.106
-655.886	265.670	-0.123	-0.217
-654.872	-127.113	-0.263	-0.039
-653.857	-200.000	0.005	-0.238
-652.843	-47.833	0.102	0.050
-651.828	93.111	-0.251	0.285
-650.814	285.711	0.105	-0.191
-649.799	-200.000	-0.055	-0.276
-648.784	-130.796	0.135	-0.018
-647.770	-177.637	0.237	0.006
-646.755	-137.253	0.069	0.008
-645.741	346.839	-0.074	-0.147
-644.726	-60.318	0.172	0.074
-643.711	34.823	0.112	0.099
-642.697	-120.404	-0.211	-0.036
-641.682	12.331	0.131	-0.102
-640.668	56.445	-0.255	0.250
-639.653	-38.363	0.197	-0.105
-638.638	273.692	0.121	-0.215
-637.624	-44.304	-0.301	-0.152
-636.609	-82.926	-0.153	-0.050
-635.595	-14.562	-0.173	-0.112
-634.580	2.326	0.094	-0.068
-633.565	105.440	0.107	0.127
-632.551	-175.725	0.246	0.007
-631.536	-200.000	-0.016	0.246
-630.522	-154.603	0.235	0.016
-629.507	238.002	0.171	0.285
-628.492	135.697	0.330	0.431
-627.478	50.098	-0.183	0.174
-626.463	-114.904	-0.155	0.030
-625.449	303.384	-0.110	-0.205
-624.434	-4.399	-0.219	-0.153
-623.419	-112.010	-0.105	-0.021
-622.405	-7.626	-0.057	0.038
-621.390	-26.835	0.442	0.260
-620.376	-52.669	0.164	-0.076
-619.361	-200.000	-0.039	-0.325
-618.346	529.350	0.005	-0.012
-617.332	-95.288	0.201	-0.054
-616.317	-95.909	0.139	-0.037
-615.303	-49.224	-0.499	-0.240
-614.288	239.550	-0.057	-0.096
-613.273	-108.522	0.355	-0.077
-612.259	-200.000	-0.010	0.162
-611.244	-65.339	0.122	0.049
-610.230	111.170	-0.227	-0.275
-609.215	-99.842	-0.086	-0.022
-608.201	-165.604	-0.122	0.005
-607.186	10.064	0.274	0.209
-606.171	-146.180	-0.177	-0.016
-605.157	-174.950	-0.116	0.003
-604.142	11.793	-0.087	-0.067
-603.128	460.578	-0.061	-0.137
-602.113	18.271	-0.182	-0.146
-601.098	100.118	-0.049	-0.057
-600.084	-200.000	-0.027	-0.145
-599.069	-174.559	0.223	0.006
-598.055	-102.828	-0.134	-0.032
-597.040	-159.139	-0.065	-0.004
-596.025	141.629	-0.046	0.061
-595.011	-134.082	-0.388	-0.048
-593.996	-40.077	-0.031	0.016
-592.982	-130.933	-0.244	0.033
-591.967	-200.000	0.002	0.051
-590.952	-125.904	-0.202	0.031
-589.938	21.183	0.133	-0.108
-588.923	-24.917	-0.072	-0.043
-587.909	44.499	-0.324	0.299
-586.894	46.981	-0.301	0.281
-585.879	-200.000	0.012	0.258
-584.865	800.000	0.049	0.177
-583.850	585.606	-0.102	0.252
-582.836	-154.454	0.272	0.018
-581.821	800.000	0.016	-0.068
-580.806	-84.742	-0.247	-0.078
-579.792	800.000	-0.088	-0.361
-578.777	88.700	0.224	0.249
-577.763	78.197	0.163	0.175
-576.748	103.598	0.179	0.211
-575.733	81.369	0.081	-0.088
-574.719	-14.816	0.364	-0.235
-573.704	102.745	-0.066	0.077
-572.690	-100.353	0.334	-0.083
-571.675	-200.000	-0.037	-0.176
-570.661	-186.617	0.376	-0.005
-569.646	25.230	0.196	-0.163
-568.631	-200.000	-0.007	-0.192
-567.617	-151.981	-0.104	-0.008
-566.602	383.045	-0.113	-0.234
-565.588	800.000	0.077	0.247
-564.573	261.575	-0.233	0.404
-563.558	-200.000	0.086	-0.410
-562.544	9.629	-0.098	-0.074
-561.529	800.000	0.075	0.323
-560.515	129.674	-0.061	-0.078
-559.500	800.000	0.076	0.237
-558.485	-89.864	0.322	0.094
-557.471	124.937	-0.172	0.218
-556.456	336.005	0.151	-0.293
-555.442	-115.172	0.260	-0.049
-554.427	-33.400	-0.197	-0.109
-553.412	-59.350	-0.302	-0.130
-552.398	-72.576	0.296	-0.109
-551.383	77.649	0.035	0.037
-550.369	18.576	-0.331	0.266
-549.354	239.158	-0.131	-0.218
-548.339	74.910	-0.177	0.187
-547.325	67.629	-0.102	-0.104
-546.310	-26.639	0.052	0.031
-545.296	-55.842	-0.207	-0.093
-544.281	347.631	0.090	0.178
-543.266	96.568	0.135	-0.155
-542.252	66.707	0.138	-0.141
-541.237	-127.456	0.259	-0.038
-540.223	418.697	-0.054	-0.116
-539.208	-200.000	-0.049	0.265
-538.193	70.577	0.115	0.120
-537.179	-200.000	0.028	0.363
-536.164	562.848	-0.100	0.243
-535.150	-124.037	-0.176	0.028
-534.135	122.195	-0.030	-0.037
-533.121	2.577	-0.058	0.042
-532.106	41.567	-0.257	0.233
-531.091	-13.278	0.318	0.207
-530.077	174.912	-0.042	-0.060
-529.062	-104.331	-0.283	-0.066
-528.048	316.733	0.097	0.184
-527.033	-127.505	0.184	-0.027
-526.018	-59.013	-0.387	0.167
-525.004	-86.454	0.240	0.074
-523.989	800.000	0.073	0.259
-522.975	36.148	0.125	0.110
-521.960	-200.000	0.034	0.191
-520.945	-47.600	-0.282	0.137
-519.931	-80.498	0.341	-0.114
-518.916	-200.000	-0.034	-0.443
-517.902	800.000	-0.069	-0.285
-516.887	-55.541	-0.270	0.121
-515.872	-200.000	0.020	-0.189
-514.858	-37.895	0.100	-0.053
-513.843	-200.000	0.021	-0.103
-512.829	-112.869	0.470	-0.093
-511.814	34.274	0.175	0.153
-510.799	410.085	-0.098	0.208
-509.785	-103.378	-0.214	0.050
-508.770	175.765	0.161	0.234
-507.756	-178.491	-0.115	0.003
-506.741	-80.627	-0.242	-0.081
-505.726	-57.959	-0.295	-0.129
-504.712	214.772	-0.068	0.107
-503.697	800.000	-0.062	-0.187
-502.683	-200.000	0.056	-0.300
-501.668	-200.000	0.036	-0.240
-500.653	-66.263	0.284	-0.113
-499.639	-37.315	-0.194	-0.103
-498.624	-103.809	0.288	-0.067
-497.610	-114.765	0.194	0.037
-496.595	28.926	-0.263	-0.223
-495.581	-26.071	-0.367	0.216
-494.566	-14.949	0.201	0.129
-493.551	-84.052	-0.262	0.083
-492.537	-67.560	0.277	0.109
-491.522	-162.910	0.153	0.007
-490.508	-166.289	0.398	0.017
-489.493	-24.662	-0.157	0.093
-488.478	112.712	0.064	0.077
-487.464	-200.000	0.008	-0.077
-486.449	213.684	-0.128	0.202
-485.435	-62.994	-0.136	-0.056
-484.420	-151.724	0.208	-0.015
-483.405	800.000	-0.090	-0.263
-482.391	-200.000	-0.018	-0.200
-481.376	339.250	-0.049	-0.095
-480.362	235.958	0.193	-0.318
-479.347	72.386	0.022	0.023
-478.332	-200.000	0.044	-0.196
-477.318	690.512	-0.015	0.040
-476.303	-99.555	0.181	-0.045
-475.289	-200.000	0.031	0.364
-474.274	-21.617	0.369	0.224
-473.259	277.731	-0.109	0.193
-472.245	-126.416	-0.225	0.034
-471.230	72.044	0.183	-0.190
-470.216	90.858	0.302	0.338
-469.201	-49.710	-0.327	-0.155
-468.186	-98.089	0.148	0.038
-467.172	-74.246	0.238	0.086
-466.157	-200.000	0.012	0.099
-465.143	-129.764	0.479	0.066
-464.128	800.000	0.101	-0.432
-463.113	-17.295	-0.157	0.099
-462.099	-62.549	-0.046	-0.019
-461.084	-20.370	0.193	-0.118
-460.070	-62.667	-0.155	-0.064
-459.055	49.067	0.108	0.101
-458.040	145.546	0.098	0.132
-457.026	800.000	-0.010	-0.036
-456.011	800.000	0.088	-0.265
-454.997	32.312	0.069	0.059
-453.982	-200.000	0.006	0.247
-452.968	-140.069	0.304	0.032
-451.953	-35.177	-0.243	0.132
-450.938	-178.378	-0.242	0.006
-449.924	282.942	0.096	-0.171
-448.909	299.535	-0.123	0.226
-447.895	-200.000	0.039	0.232
-446.880	-200.000	-0.039	0.170
-445.865	-102.275	0.196	-0.047
-444.851	21.169	0.124	0.100
-443.836	-200.000	-0.023	-0.157
-442.822	800.000	0.082	0.244
-441.807	800.000	-0.058	0.242
-440.792	44.980	-0.105	0.096
-439.778	172.251	-0.110	0.158
-438.763	17.121	-0.212	0.168
-437.749	-128.512	-0.015	-0.002
-436.734	785.622	0.041	-0.112
-435.719	-33.540	0.263	-0.145
-434.705	149.026	-0.122	0.165
-433.690	69.387	-0.123	-0.127
-432.676	-184.985	-0.104	-0.002
-431.661	-65.895	-0.328	-0.131
-430.646	168.106	-0.068	-0.096
-429.632	-200.000	0.071	0.329
-428.617	-74.554	0.317	0.114
-427.603	800.000	-0.093	-0.352
-426.588	-104.518	0.197	-0.045
-425.573	177.833	-0.260	-0.378
-424.559	6.279	0.174	-0.128
-423.544	11.136	-0.075	0.057
-422.530	79.764	-0.111	-0.119
-421.515	-94.617	0.193	0.052
-420.500	-155.585	-0.255	-0.016
-419.486	-124.239	0.110	-0.017
-418.471	-58.450	0.104	0.045
-417.457	-200.000	-0.067	-0.367
-416.442	-107.407	-0.237	0.052
-415.428	-24.468	0.400	-0.238
-414.413	200.842	-0.127	0.195
-413.398	5.608	0.353	-0.260
-412.384	800.000	-0.081	-0.227
-411.369	-73.540	0.130	-0.047
-410.355	-45.435	0.100	0.049
-409.340	237.485	-0.127	0.210
-408.325	287.164	0.086	-0.155
-407.311	-51.199	-0.355	0.166
-406.296	250.241	0.085	0.143
-405.282	177.756	-0.050	-0.072
-404.267	41.292	-0.134	-0.120
-403.252	-159.974	-0.418	-0.023
-402.238	114.075	0.139	0.168
-401.223	800.000	0.035	0.125
-400.209	-113.872	-0.337	0.065
-399.194	-200.000	0.049	-0.324
-398.179	-84.705	-0.178	-0.056
-397.165	-98.738	0.302	0.077
-396.150	525.927	0.077	-0.181
-395.136	-145.162	0.224	-0.020
-394.121	742.087	-0.012	-0.032
-393.106	800.000	-0.106	-0.340
-392.092	-90.942	0.317	-0.091
-391.077	800.000	-0.070	-0.216
-390.063	21.518	-0.396	0.320
-389.048	-110.965	-0.078	0.016
-388.033	73.691	-0.153	-0.160
-387.019	-105.003	0.359	-0.082
-386.004	-200.000	0.022	-0.141
-384.990	-133.227	0.265	-0.033
-383.975	169.629	0.072	-0.102
-382.960	-134.270	0.162	0.020
-381.946	366.629	-0.033	-0.066
-380.931	269.399	-0.121	-0.212
-379.917	-54.252	0.079	0.036
-378.902	397.062	-0.184	-0.382
-377.888	-133.390	0.432	0.054
-376.873	-101.138	-0.131	-0.032
-375.858	0.417	0.479	0.341
-374.844	-165.116	-0.262	0.012
-373.829	-64.624	-0.348	0.140
-372.815	-47.928	-0.215	0.104
-371.800	-142.072	0.287	-0.028
-370.785	-72.249	0.037	0.014
-369.771	379.802	0.084	-0.170
-368.756	7.917	-0.126	0.094
-367.742	708.831	-0.106	-0.278
-366.727	-78.828	-0.249	-0.084
-365.712	23.478	-0.383	-0.314
-364.698	398.792	0.022	-0.045
-363.683	800.000	0.151	-0.464
-362.669	-128.580	0.274	0.039
-361.654	-200.000	0.023	-0.109
-360.639	535.590	-0.041	-0.096
-359.625	-86.223	-0.205	0.063
-358.610	295.962	0.138	-0.251
-357.596	47.593	-0.093	0.086
-356.581	85.979	0.267	0.292
-355.566	226.207	0.117	0.189
-354.552	25.750	0.174	-0.144
-353.537	65.091	-0.182	0.183
-352.523	-200.000	-0.009	0.153
-351.508	-152.153	-0.086	-0.006
-350.493	800.000	0.010	-0.035
-349.479	437.601	-0.070	0.152
-348.464	-142.011	-0.363	0.036
-347.450	11.334	-0.143	0.109
-346.435	214.697	-0.084	-0.133
-345.420	313.657	-0.096	0.180
-344.406	800.000	-0.092	0.268
-343.391	72.983	0.242	-0.252
-342.377	48.143	0.055	-0.051
-341.362	-39.926	0.099	0.051
-340.348	-200.000	-0.024	0.358
-339.333	-78.040	0.099	-0.034
-338.318	-28.532	-0.190	-0.109
-337.304	800.000	-0.080	0.220
-336.289	-139.646	-0.400	0.042
-335.275	-165.456	0.086	0.004
-334.260	87.062	-0.069	0.076
-333.245	-200.000	0.022	0.122
-332.231	19.773	-0.177	-0.142
-331.216	32.937	-0.120	-0.104
-330.202	159.674	-0.083	0.115
-329.187	-200.000	0.019	0.237
-328.172	-200.000	-0.029	0.147
-327.158	103.817	-0.098	0.114
-326.143	635.239	-0.025	0.062
-325.129	144.791	0.203	-0.270
-324.114	328.617	0.168	-0.321
-323.099	437.504	-0.028	-0.060
-322.085	-200.000	-0.017	-0.149
-321.070	-200.000	-0.073	-0.321
-320.056	151.472	0.053	0.071
-319.041	38.083	0.252	-0.223
-318.026	278.531	-0.153	-0.271
-317.012	-200.000	0.019	-0.134
-315.997	34.613	0.082	-0.071
-314.983	-200.000	-0.061	0.305
-313.968	-150.140	0.201	-0.015
-312.953	-135.856	-0.198	-0.023
-311.939	417.314	-0.058	0.123
-310.924	-3.147	0.523	-0.362
-309.910	6.965	-0.353	-0.261
-308.895	-5.231	-0.140	0.096
-307.880	-200.000	-0.030	-0.355
-306.866	1.858	0.388	0.278
-305.851	-200.000	0.005	0.183
-304.837	-200.000	-0.044	-0.227
-303.822	-200.000	-0.008	0.094
-302.807	-36.555	-0.028	0.015
-301.793	800.000	0.045	-0.140
-300.778	800.000	0.071	-0.235
-299.764	-200.000	-0.041	0.260
-298.749	-39.984	-0.164	0.085
-297.735	-200.000	-0.011	-0.074
-296.720	323.166	0.049	-0.093
-295.705	143.781	0.103	0.136
-294.691	116.685	0.209	0.255
-293.676	-55.779	0.221	-0.098
-292.662	193.944	0.035	0.052
-291.647	-200.000	-0.005	0.050
-290.632	-200.000	0.042	0.234
-289.618	359.281	0.145	0.287
-288.603	-200.000	0.014	-0.095
-287.589	-200.000	-0.052	0.553
-286.574	343.099	0.083	0.160
-285.559	-59.186	0.097	0.041
-284.545	-121.814	-0.318	-0.052
-283.530	-50.149	0.189	-0.089
-282.516	-200.000	-0.009	-0.080
-281.501	-6.697	0.044	-0.030
-280.486	-52.261	0.070	-0.032
-279.472	800.000	-0.151	0.504
-278.457	67.855	-0.139	0.140
-277.443	-61.612	-0.153	-0.064
-276.428	524.422	0.025	-0.059
-275.413	766.331	-0.100	-0.270
-274.399	55.179	0.217	0.208
-273.384	-130.356	0.086	-0.012
-272.370	7.885	-0.194	-0.144
-271.355	-11.439	0.222	-0.145
-270.340	22.982	-0.205	-0.167
-269.326	800.000	-0.039	0.113
-268.311	139.814	-0.247	0.322
-267.297	43.825	0.198	-0.179
-266.282	-200.000	0.038	0.192
-265.267	-71.248	0.300	-0.112
-264.253	-38.774	-0.144	-0.075
-263.238	-80.934	-0.251	-0.083
-262.224	-29.690	-0.150	-0.085
-261.209	-34.131	-0.214	-0.116
-260.195	311.827	-0.087	-0.163
-259.180	248.680	0.093	-0.155
-258.165	-200.000	0.015	-0.380
-257.151	10.397	0.336	0.254
-256.136	95.939	-0.116	-0.131
-255.122	-106.694	0.128	0.028
-254.107	800.000	-0.065	0.215
-253.092	-37.857	-0.080	0.042
-252.078	297.971	-0.120	0.218
-251.063	-200.000	-0.005	0.046
-250.049	28.835	0.246	-0.207
-249.034	424.806	0.193	0.411
-248.019	-126.728	0.427	-0.063
-247.005	-93.004	0.014	-0.004
-245.990	-200.000	0.033	-0.234
-244.976	-22.142	0.099	0.060
-243.961	800.000	0.055	0.170
-242.946	-185.400	-0.158	-0.002
-241.932	-79.055	0.154	-0.052
-240.917	-117.014	0.211	0.038
-239.903	800.000	-0.099	-0.287
-238.888	-112.391	-0.055	0.011
-237.873	179.937	-0.159	-0.231
-236.859	201.151	-0.136	-0.207
-235.844	-200.000	0.031	-0.351
-234.830	-67.375	-0.319	-0.124
-233.815	-200.000	-0.003	0.122
-232.800	178.769	0.046	-0.066
-231.786	-11.536	-0.262	0.170
-230.771	-200.000	0.072	0.473
-229.757	800.000	-0.024	0.067
-228.742	75.681	-0.161	-0.168
-227.727	800.000	-0.050	0.199
-226.713	-125.134	-0.403	-0.061
-225.698	-133.388	-0.033	0.004
-224.684	-58.649	0.054	-0.023
-223.669	-132.620	-0.085	-0.011
-222.655	800.000	-0.068	-0.199
-221.640	4.790	-0.199	-0.144
-220.625	23.610	0.063	0.051
-219.611	-7.449	-0.195	0.130
-218.596	59.577	0.171	0.167
-217.582	-39.666	0.225	-0.116
-216.567	-200.000	-0.022	0.124
-215.552	-172.168	0.205	0.007
-214.538	-136.288	-0.166	-0.019
-213.523	141.811	0.144	-0.189
-212.509	14.348	-0.384	-0.296
-211.494	2.853	-0.064	-0.046
-210.479	-166.652	-0.134	-0.006
-209.465	-95.134	0.141	-0.038
-208.450	372.035	0.070	0.141
-207.436	800.000	-0.080	0.268
-206.421	1.122	-0.125	0.089
-205.406	-200.000	-0.017	0.234
-204.392	-14.872	-0.147	0.094
-203.377	-200.000	0.235	0.000
-202.363	13.435	0.041	-0.031
-201.348	-200.000	0.049	0.367
-200.333	-85.071	0.059	0.018
-199.319	-91.791	0.200	0.056
-198.304	-84.048	-0.227	-0.071
-197.290	641.175	0.058	-0.145
-196.275	-2.370	0.300	0.208
-195.260	-200.000	-0.004	0.128
-194.246	145.793	0.108	-0.143
-193.231	-81.698	0.212	-0.069
-192.217	800.000	0.169	0.462
-191.202	-72.677	-0.174	0.063
-190.187	100.240	-0.106	0.122
-189.173	-72.953	0.202	0.073
-188.158	-47.927	-0.252	0.121
-187.144	-200.000	0.057	-0.290
-186.129	-30.242	-0.159	-0.089
-185.114	-200.000	-0.021	0.107
-184.100	800.000	0.065	0.189
-183.085	-169.342	-0.020	0.001
-182.071	-149.705	-0.145	0.011
-181.056	248.383	0.127	-0.211
-180.042	800.000	0.051	-0.165
-179.027	163.609	0.174	0.242
-178.012	239.259	-0.034	-0.057
-176.998	-22.501	0.174	0.104
-175.983	-117.854	-0.183	0.032
-174.969	800.000	-0.103	-0.289
-173.954	-70.930	-0.181	-0.067
-172.939	800.000	-0.051	-0.208
-171.925	4.318	0.105	0.076
-170.910	-88.392	0.222	0.065
-169.896	81.244	-0.260	0.278
-168.881	720.056	0.008	-0.021
-167.866	-13.212	-0.154	0.099
-166.852	5.311	0.235	-0.171
-165.837	57.690	0.119	-0.115
-164.823	800.000	-0.062	-0.238
-163.808	-140.612	-0.188	0.019
-162.793	-162.275	-0.115	0.006
-161.779	220.149	0.090	-0.143
-160.764	-200.000	-0.020	0.264
-159.750	-200.000	0.048	0.396
-158.735	-130.538	-0.199	0.027
-157.720	-6.415	0.020	0.013
-156.706	-185.776	-0.261	-0.004
-155.691	97.911	0.155	0.175
-154.677	-148.461	-0.134	-0.011
-153.662	165.171	-0.095	-0.132
-152.647	-138.799	-0.193	-0.021
-151.633	-163.399	0.117	-0.006
-150.618	-29.121	0.184	0.104
-149.604	-44.161	-0.085	-0.042
-148.589	184.124	0.022	-0.033
-147.574	800.000	0.056	0.213
-146.560	20.540	0.164	0.131
-145.545	85.489	-0.255	-0.276
-144.531	-98.048	0.385	0.098
-143.516	7.911	-0.266	0.196
-142.502	-200.000	0.091	0.420
-141.487	237.341	0.192	0.315
-140.472	-77.224	-0.158	-0.054
-139.458	429.680	0.031	-0.067
-138.443	-108.378	-0.429	0.091
-137.429	800.000	-0.022	0.077
-136.414	109.026	0.279	0.329
-135.399	-200.000	-0.041	0.301
-134.385	-200.000	0.014	-0.077
-133.370	-200.000	0.011	-0.303
-132.356	-86.628	-0.250	-0.076
-131.341	-81.812	-0.298	-0.096
-130.326	-2.117	0.097	-0.067
-129.312	-124.959	0.374	0.057
-128.297	-139.093	-0.191	0.020
-127.283	-200.000	0.004	0.152
-126.268	63.759	-0.288	0.286
-125.253	-98.085	0.074	0.019
-124.239	136.829	-0.123	-0.158
-123.224	538.767	-0.066	-0.154
-122.210	483.140	0.057	0.127
-121.195	278.323	-0.148	0.261
-120.180	-150.857	0.515	-0.038
-119.166	-153.403	-0.083	-0.006
-118.151	-200.000	-0.009	0.088
-117.137	-50.854	-0.056	-0.026
-116.122	423.836	0.065	-0.138
-115.107	-200.000	0.004	-0.067
-114.093	18.343	0.058	0.045
-113.078	518.235	0.052	0.120
-112.064	150.549	-0.132	0.176
-111.049	63.650	0.235	0.232
-110.034	-32.400	0.185	-0.101
-109.020	84.323	0.247	-0.266
-108.005	-5.822	-0.211	0.142
-106.991	-176.918	0.204	-0.005
-105.976	80.367	0.096	0.102
-104.962	46.235	0.117	-0.107
-103.947	-96.200	-0.256	-0.067
-102.932	-200.000	-0.019	0.123
-101.918	-70.639	-0.387	0.144
-100.903	-200.000	0.005	-0.129
-99.889	319.918	-0.056	0.104
-98.874	61.578	-0.130	-0.128
-97.859	372.250	-0.062	0.124
-96.845	-78.904	0.089	0.030
-95.830	43.765	0.185	0.167
-94.816	-125.871	-0.125	-0.019
-93.801	800.000	-0.064	0.236
-92.786	43.481	-0.132	0.119
-91.772	-89.891	-0.286	-0.082
-90.757	-21.018	0.415	-0.250
-89.743	-10.198	0.130	0.085
-88.728	86.351	-0.075	0.082
-87.713	-37.228	0.327	0.172
-86.699	-200.000	-0.046	-0.239
-85.684	279.262	0.134	-0.235
-84.670	800.000	-0.047	-0.192
-83.655	669.587	-0.100	0.256
-82.640	-100.076	-0.127	0.031
-81.626	-73.916	0.367	-0.131
-80.611	-127.798	-0.285	-0.040
-79.597	111.488	-0.151	0.179
-78.582	-71.116	-0.084	-0.031
-77.567	123.473	-0.201	-0.248
-76.553	-200.000	-0.087	-0.448
-75.538	-69.488	0.065	-0.024
-74.524	800.000	-0.033	0.128
-73.509	168.759	0.073	0.103
-72.494	-90.680	0.040	-0.011
-71.480	283.888	0.033	0.059
-70.465	-28.791	-0.192	0.109
-69.451	118.388	0.111	-0.135
-68.436	-61.623	0.259	0.107
-67.422	800.000	0.070	0.217
-66.407	-133.859	-0.081	0.010
-65.392	-71.994	0.195	0.071
-64.378	133.196	0.212	-0.270
-63.363	196.147	-0.089	0.134
-62.349	78.521	0.199	0.209
-61.334	-17.369	-1.014	-0.628
-60.319	32.629	0.635	0.540
-59.305	-200.000	-0.139	-1.232
-58.290	214.464	0.821	1.279
-57.276	-200.000	0.180	1.472
-56.261	-200.000	98.032	589.884
-55.246	585.605	1412.461	3413.459
-54.232	188.445	2613.975	3842.222
-53.217	118.747	2165.418	2628.897
-52.203	43.186	1609.678	1444.117
-51.188	34.391	1342.066	1151.166
-50.173	31.245	1299.548	1096.214
-49.159	54.808	1348.781	1279.068
-48.144	55.887	1364.983	1300.824
-47.130	34.568	1322.821	1135.531
-46.115	30.996	1305.539	1099.626
-45.100	30.749	1300.730	1094.081
-44.086	30.628	1298.321	1091.301
-43.071	30.746	1296.184	1090.150
-42.057	30.660	1293.787	1087.590
-41.042	30.744	1291.907	1086.457
-40.027	30.813	1290.299	1085.464
-39.013	30.714	1288.496	1083.325
-37.998	30.727	1287.251	1082.314
-36.984	30.828	1285.278	1081.198
-35.969	30.802	1283.548	1079.547
-34.954	30.883	1281.853	1078.552
-33.940	30.746	1280.806	1076.834
-32.925	30.899	1279.254	1076.371
-31.911	30.810	1277.909	1074.685
-30.896	30.913	1276.381	1073.946
-29.881	30.892	1275.179	1072.771
-28.867	30.984	1273.653	1071.973
-27.852	30.831	1272.220	1069.849
-26.838	30.952	1270.744	1069.261
-25.823	30.835	1269.869	1067.809
-24.809	30.926	1268.588	1067.210
-23.794	30.869	1266.977	1065.488
-22.779	30.867	1266.203	1064.786
-21.765	30.975	1263.939	1063.456
-20.750	30.892	1263.324	1062.418
-19.736	30.738	1261.529	1059.989
-18.721	30.791	1260.423	1059.323
-17.706	30.828	1259.238	1058.494
-16.692	30.809	1258.292	1057.548
-15.677	30.655	1257.384	1055.870
-14.663	30.739	1256.169	1055.287
-13.648	30.723	1254.959	1054.133
-12.633	30.817	1253.722	1053.584
-11.619	30.685	1253.205	1052.360
-10.604	30.778	1252.160	1051.970
-9.590	30.758	1251.073	1050.899
-8.575	30.746	1250.795	1050.559
-7.560	30.718	1249.370	1049.161
-6.546	30.540	1248.662	1047.520
-5.531	30.648	1248.318	1047.802
-4.517	30.713	1246.738	1046.796
-3.502	30.644	1246.006	1045.755
-2.487	30.699	1244.955	1045.138
-1.473	30.757	1241.192	1042.266
-0.458	29.613	1226.800	1023.802
0.556	28.215	1209.095	987.101
1.571	24.456	1214.451	970.982
2.586	23.303	1228.267	975.594
3.600	22.210	1215.668	959.539
4.615	16.872	1143.916	875.331
5.629	8.498	1070.632	778.552
6.644	4.844	1051.663	747.187
7.659	4.385	1049.396	743.311
8.673	4.388	1047.354	741.815
9.688	4.443	1045.932	741.004
10.702	4.733	1045.239	741.831
11.717	10.208	1052.186	772.905
12.731	18.337	1063.555	820.285
13.746	22.002	1066.816	840.307
14.761	22.002	1066.855	840.260
15.775	21.002	1065.447	834.297
16.790	20.160	1063.484	828.665
17.804	19.374	1062.208	823.842
18.819	19.273	1060.662	822.089
19.834	19.178	1060.469	821.414
20.848	19.107	1059.697	820.406
21.863	18.932	1058.360	818.462
22.877	18.615	1057.852	816.491
23.892	18.686	1057.265	816.303
24.907	18.682	1056.334	815.492
25.921	18.724	1055.232	814.768
26.936	18.546	1054.446	813.248
27.950	18.734	1052.668	812.691
28.965	18.780	1051.424	811.879
29.980	18.899	1050.030	811.290
30.994	19.034	1048.792	810.897
32.009	19.095	1047.880	810.410
33.023	19.015	1047.209	809.441
34.038	18.946	1045.727	807.898
35.053	18.739	1044.869	806.194
36.067	18.779	1044.208	805.803
37.082	18.812	1043.582	805.403
38.096	18.892	1043.075	805.312
39.111	18.914	1042.197	804.670
40.126	18.799	1040.336	802.624
41.140	18.490	1038.671	799.827
42.155	18.338	1037.552	798.185
43.169	18.361	1036.662	797.537
44.184	18.336	1035.950	796.799
45.199	18.304	1034.986	795.838
46.213	18.498	1033.921	795.854
47.228	18.620	1033.347	795.906
48.242	18.845	1032.174	795.976
49.257	18.599	1031.949	794.593
50.271	18.758	1030.848	794.406
51.286	18.881	1029.997	794.252
52.301	18.879	1028.716	793.184
53.315	18.602	1027.849	791.166
54.330	18.464	1027.200	789.962
55.344	18.491	1026.065	789.144
56.359	18.496	1025.333	788.532
57.374	18.433	1024.330	787.403
58.388	18.239	1023.503	785.805
59.403	18.260	1022.848	785.333
60.417	18.168	1022.150	784.303
61.432	18.256	1021.159	783.876
62.447	18.198	1020.184	782.793
63.461	18.132	1019.226	781.689
64.476	18.182	1018.292	781.128
65.490	18.073	1017.279	779.787
66.505	18.234	1016.809	780.093
67.520	18.203	1016.556	779.690
68.534	18.198	1015.804	779.019
69.549	18.159	1014.813	778.011
70.563	18.070	1013.890	776.833
71.578	17.892	1013.155	775.391
72.593	17.895	1012.317	774.694
73.607	17.886	1011.651	774.077
74.622	17.976	1011.241	774.099
75.636	17.948	1010.546	773.374
76.651	18.050	1009.777	773.179
77.666	18.035	1009.424	772.773
78.680	17.964	1009.005	772.061
79.695	18.259	1007.952	772.519
80.709	18.326	1007.159	772.147
81.724	18.336	1007.067	772.050
82.739	18.634	1005.933	772.456
83.753	18.722	1005.945	772.794
84.768	19.058	1005.036	773.537
85.782	19.128	1004.426	773.315
86.797	19.115	1003.334	772.347
87.812	18.781	1002.464	770.109
88.826	18.814	1001.592	769.522
89.841	18.884	1000.896	769.233
90.855	19.014	999.949	769.017
91.870	18.989	999.376	768.398
92.884	19.057	998.356	767.847
93.899	19.027	997.435	766.938
94.914	19.076	996.722	766.542
95.928	18.971	996.203	765.606
96.943	18.953	994.817	764.390
97.957	18.917	993.782	763.369
98.972	18.799	993.646	762.673
99.987	18.895	992.470	762.130
101.001	18.980	991.366	761.592
102.016	18.828	990.809	760.424
103.030	19.011	989.495	760.155
104.045	19.039	988.659	759.572
105.060	18.908	987.603	758.112
106.074	18.573	986.780	755.940
107.089	18.363	985.702	754.122
108.103	18.282	984.787	752.997
109.118	18.301	983.277	751.859
110.133	18.086	982.804	750.488
111.147	18.121	982.092	750.031
112.162	18.285	981.162	749.973
113.176	18.416	980.641	750.081
114.191	18.383	980.349	749.648
115.206	18.335	979.550	748.762
116.220	18.317	978.181	747.571
117.235	18.424	977.431	747.397
118.249	18.241	976.715	745.985
119.264	18.169	976.288	745.280
120.279	18.179	975.136	744.376
121.293	18.088	974.246	743.238
122.308	17.972	973.421	742.039
123.322	18.007	972.280	741.256
124.337	18.072	971.173	740.626
125.352	18.005	970.024	739.398
126.366	18.094	968.961	738.905
127.381	18.083	968.414	738.374
128.395	18.123	967.238	737.586
129.410	18.183	966.289	737.056
130.424	18.183	965.946	736.729
131.439	18.267	965.179	736.439
132.454	18.366	964.680	736.419
133.468	18.466	963.992	736.259
134.483	18.411	963.057	735.245
135.497	18.522	961.821	734.709
136.512	18.472	960.995	733.802
137.527	18.380	960.443	732.919
138.541	18.418	959.897	732.603
139.556	18.651	958.447	732.423
140.570	18.654	958.940	732.749
141.585	18.901	957.626	732.732
142.600	18.875	957.035	732.108
143.614	18.954	956.071	731.640
144.629	19.047	955.778	731.745
145.643	18.853	954.842	730.142
146.658	18.818	953.265	728.720
147.673	18.684	951.960	727.094
148.687	18.604	951.384	726.250
149.702	18.610	950.132	725.254
150.716	18.554	949.496	724.469
151.731	18.550	948.762	723.826
152.746	18.622	948.012	723.494
153.760	18.589	947.924	723.226
154.775	18.756	947.209	723.317
155.789	18.801	946.686	723.045
156.804	18.835	945.810	722.454
157.819	18.945	945.556	722.657
158.833	18.942	944.867	722.054
159.848	19.227	944.049	722.560
160.862	18.809	943.172	720.074
161.877	18.681	941.812	718.436
162.892	18.457	940.518	716.452
163.906	18.437	939.114	715.233
164.921	18.442	938.889	715.020
165.935	18.636	937.946	715.046
166.950	18.778	936.888	714.768
167.964	18.709	936.027	713.762
168.979	18.554	935.443	712.609
169.994	18.582	934.816	712.184
171.008	18.690	934.133	712.049
172.023	18.812	933.907	712.320
173.037	18.973	933.069	712.282
174.052	18.798	932.210	710.841
175.067	18.506	931.217	708.815
176.081	18.519	930.312	708.118
177.096	18.322	930.130	707.101
178.110	18.485	929.545	707.266
179.125	18.632	928.682	707.155
180.140	18.752	928.171	707.198
181.154	18.782	928.196	707.275
182.169	18.962	927.568	707.474
183.183	18.840	927.449	706.821
184.198	19.069	926.050	706.634
185.213	19.118	925.072	706.023
186.227	19.136	924.504	705.602
187.242	19.191	924.176	705.514
188.256	19.336	923.754	705.726
189.271	19.263	922.824	704.652
190.286	18.849	921.804	702.121
191.300	18.425	920.987	699.706
192.315	18.375	919.994	698.682
193.329	18.452	919.632	698.660
194.344	18.632	918.950	698.815
195.359	18.763	918.552	698.981
196.373	19.024	917.680	699.318
197.388	19.098	918.033	699.828
198.402	19.226	917.489	699.869
199.417	19.370	916.903	699.945
200.432	19.464	916.175	699.709
201.446	19.547	915.805	699.703
202.461	19.488	915.532	699.190
203.475	19.564	914.635	698.755
204.490	19.103	913.921	696.280
205.504	19.057	912.918	695.272
206.519	18.988	911.884	694.144
207.534	19.126	911.514	694.356
208.548	19.185	910.755	693.954
209.563	19.185	910.188	693.462
210.577	19.152	909.724	692.911
211.592	19.445	909.129	693.576
212.607	19.468	908.281	692.962
213.621	19.289	907.706	691.742
214.636	19.421	906.902	691.598
215.650	19.276	906.517	690.660
216.665	19.408	905.630	690.454
217.680	19.550	904.728	690.272
218.694	19.591	904.234	689.997
219.709	19.585	903.480	689.337
220.723	19.394	903.196	688.298
221.738	19.443	901.956	687.489
222.753	19.521	901.573	687.444
223.767	19.607	901.318	687.534
224.782	19.630	901.012	687.327
225.796	19.812	900.198	687.369
226.811	19.645	899.236	685.911
227.826	19.459	898.861	684.830
228.840	19.416	897.976	683.922
229.855	19.503	897.053	683.501
230.869	19.536	896.480	683.138
231.884	19.398	895.683	681.923
232.899	19.369	894.574	680.904
233.913	19.226	894.628	680.318
234.928	19.129	893.708	679.176
235.942	18.989	893.043	678.059
236.957	19.254	892.241	678.436
237.972	19.211	891.456	677.608
238.986	19.043	891.417	676.858
240.001	19.172	890.741	676.792
241.015	19.295	889.937	676.606
242.030	19.462	889.343	676.749
243.045	19.394	888.754	675.973
244.059	19.383	888.754	675.870
245.074	19.368	888.120	675.269
246.088	19.609	887.300	675.530
247.103	19.699	887.193	675.740
248.117	19.973	886.255	676.034
249.132	20.085	886.355	676.490
250.147	20.323	885.593	676.776
251.161	20.434	884.936	676.648
252.176	20.375	884.402	675.947
253.190	20.494	883.744	675.851
254.205	20.451	883.512	675.445
255.220	20.399	882.289	674.249
256.234	20.480	881.792	674.124
257.249	20.352	881.188	673.104
258.263	20.268	880.852	672.464
259.278	20.341	879.920	671.973
260.293	20.437	879.618	672.057
261.307	20.529	879.001	671.883
262.322	20.619	878.404	671.714
263.336	20.547	877.366	670.582
264.351	20.651	876.556	670.305
265.366	20.672	876.246	670.088
266.380	20.453	875.879	668.907
267.395	20.411	874.509	667.638
268.409	20.382	873.849	666.966
269.424	20.225	873.657	666.156
270.439	20.286	872.326	665.317
271.453	20.202	871.649	664.419
272.468	20.183	871.237	663.973
273.482	20.178	870.696	663.484
274.497	20.210	870.386	663.311
275.512	20.189	869.953	662.843
276.526	20.164	869.419	662.282
277.541	20.302	868.962	662.403
278.555	20.391	868.870	662.610
279.570	20.762	868.003	663.305
280.585	20.592	867.045	661.870
281.599	20.426	866.314	660.621
282.614	20.369	864.888	659.258
283.628	20.320	864.967	659.074
284.643	20.510	864.446	659.340
285.657	20.323	864.020	658.248
286.672	20.430	863.417	658.136
287.687	20.462	862.289	657.336
288.701	20.421	862.049	656.941
289.716	20.387	861.295	656.180
290.730	20.391	860.832	655.786
291.745	20.633	860.322	656.252
292.760	20.621	859.942	655.857
293.774	20.761	859.679	656.127
294.789	20.679	858.713	655.022
295.803	20.554	857.592	653.639
296.818	20.348	857.088	652.424
297.833	20.472	856.157	652.122
298.847	20.520	855.548	651.782
299.862	20.660	855.079	651.890
300.876	20.775	854.523	651.839
301.891	20.860	854.468	652.060
302.906	20.905	853.685	651.571
303.920	21.025	853.692	651.967
304.935	21.156	853.044	651.905
305.949	21.136	852.016	650.986
306.964	20.610	851.954	648.919
307.979	20.808	851.212	649.036
308.993	20.946	850.822	649.195
310.008	21.035	849.696	648.609
311.022	20.891	849.093	647.556
312.037	20.784	848.753	646.840
313.052	20.548	847.939	645.289
314.066	20.427	847.344	644.331
315.081	20.414	846.699	643.734
316.095	20.461	846.279	643.532
317.110	20.468	845.831	643.162
318.125	20.550	845.050	642.813
319.139	20.440	844.513	641.940
320.154	20.596	844.079	642.132
321.168	20.486	843.794	641.450
322.183	20.603	843.203	641.376
323.197	20.652	842.752	641.156
324.212	20.588	842.420	640.613
325.227	20.656	841.558	640.152
326.241	20.735	840.741	639.764
327.256	20.571	840.404	638.848
328.270	20.497	839.854	638.099
329.285	20.568	838.901	637.581
330.300	20.534	838.556	637.136
331.314	20.639	837.844	636.925
332.329	20.946	837.670	637.861
333.343	20.988	837.280	637.661
334.358	20.852	836.883	636.805
335.373	20.916	836.540	636.721
336.387	21.038	836.023	636.715
337.402	21.147	836.126	637.135
338.416	21.348	835.596	637.407
339.431	21.393	835.343	637.323
340.446	21.379	835.083	637.018
341.460	21.471	834.797	637.076
342.475	21.495	834.224	636.673
343.489	21.517	833.966	636.499
344.504	21.590	833.596	636.425
345.519	21.720	833.191	636.530
346.533	21.644	832.374	635.576
347.548	21.262	831.872	633.751
348.562	21.265	830.822	632.906
349.577	21.021	830.192	631.487
350.592	21.133	829.531	631.333
351.606	21.009	828.616	630.133
352.621	21.077	828.285	630.072
353.635	21.068	827.936	629.715
354.650	21.267	826.879	629.573
355.665	21.293	826.544	629.356
356.679	21.323	826.332	629.249
357.694	21.298	825.627	628.564
358.708	21.332	824.569	627.825
359.723	21.231	824.241	627.159
360.738	21.313	823.690	626.978
361.752	21.542	823.148	627.332
362.767	21.442	822.984	626.791
363.781	21.618	822.197	626.767
364.796	21.909	821.942	627.557
365.810	21.833	821.663	627.017
366.825	21.885	821.343	626.905
367.840	21.803	820.446	625.871
368.854	21.684	820.040	625.082
369.869	21.777	819.370	624.847
370.883	21.731	818.791	624.188
371.898	21.799	819.053	624.573
372.913	21.828	818.779	624.412
373.927	21.768	817.999	623.547
374.942	21.856	817.509	623.432
375.956	21.848	816.963	622.932
376.971	21.930	817.333	623.451
377.986	22.009	816.363	622.935
379.000	21.987	815.854	622.414
380.015	22.014	815.152	621.921
381.029	22.110	814.257	621.521
382.044	22.031	814.026	621.011
383.059	22.131	813.759	621.106
384.073	21.871	813.058	619.598
385.088	21.790	812.184	618.592
386.102	21.713	811.724	617.914
387.117	21.709	810.848	617.180
388.132	21.630	810.273	616.408
389.146	21.809	809.731	616.572
390.161	21.914	809.844	616.972
391.175	21.958	809.598	616.886
392.190	21.858	808.517	615.656
393.205	21.655	807.856	614.386
394.219	21.679	807.683	614.282
395.234	21.753	807.044	614.001
396.248	21.529	806.885	613.043
397.263	21.547	805.885	612.290
398.278	21.659	805.335	612.212
399.292	21.670	805.006	611.946
400.307	21.577	804.954	611.528
401.321	21.529	804.566	611.009
402.336	21.735	804.064	611.293
403.350	21.789	804.190	611.524
404.365	21.977	803.524	611.617
405.380	22.119	802.922	611.599
406.394	22.313	802.215	611.683
407.409	22.303	802.234	611.607
408.423	22.439	801.620	611.558
409.438	22.377	801.626	611.291
410.453	22.415	801.036	610.920
411.467	22.393	800.951	610.724
412.482	22.687	800.187	611.109
413.496	22.789	799.980	611.248
414.511	22.514	799.807	610.112
415.526	22.417	799.416	609.421
416.540	22.385	798.555	608.602
417.555	22.232	798.516	607.988
418.569	22.438	797.743	608.057
419.584	22.584	796.898	607.863
420.599	22.477	796.807	607.372
421.613	163.780	1368.496	1794.970
422.628	142.218	1451.776	1795.028
