DTS Sentinel unit serial number:	SN413079Multiplexer serial number:	ORYXHardware model number:	OX4-SRSoftware version number:	ORYX F/W v4.00 Oryx Data Collector v3.7.2.0data status	okinstallation	princeton_trtdifferential loss correction	single-endedforward channel	channel 1reverse channel	N/Adate	2019/09/13time	22:58:35forward acquisition time	60.00reverse acquisition time	0.00gamma	496.2192k internal	0.2334k external	0.2334temperature offset calibration	1.0088default loss term (dB/km)	0.3790temperature slope calibration	1.0000multiplexer offset coefficient	1.0000multiplexer slope coefficient	1.0000fibre end	0.00T internal ref (°C)	27.37T ext. ref 1 (°C)	3.20T ext. ref 2 (°C)	21.36length (m)	temperature (°C)	Stokes	anti-Stokes-747.200	155.626	0.168	-0.233
-746.185	-50.580	-0.345	-0.164
-745.171	79.938	0.139	-0.151
-744.156	-165.613	0.274	0.012
-743.142	641.443	0.159	-0.406
-742.127	-118.724	-0.164	0.029
-741.112	800.000	0.122	-0.527
-740.098	-4.534	-0.288	-0.200
-739.083	-95.548	-0.062	-0.017
-738.069	-114.509	0.051	0.010
-737.054	8.377	-0.281	-0.212
-736.039	186.978	-0.128	0.192
-735.025	26.037	-0.221	-0.185
-734.010	197.492	-0.131	0.201
-732.996	-120.480	-0.124	-0.021
-731.981	15.414	-0.084	-0.067
-730.966	-125.999	-0.348	0.053
-729.952	424.975	-0.100	0.217
-728.937	-75.147	0.229	-0.082
-727.923	800.000	-0.048	-0.140
-726.908	-66.931	-0.267	-0.106
-725.894	66.191	-0.240	-0.245
-724.879	800.000	-0.053	-0.151
-723.864	16.498	0.070	-0.055
-722.850	440.247	-0.036	-0.080
-721.835	86.333	-0.047	-0.052
-720.821	33.438	-0.294	-0.257
-719.806	400.206	-0.146	-0.308
-718.791	-77.493	-0.257	-0.089
-717.777	-154.747	0.208	-0.014
-716.762	800.000	0.068	-0.210
-715.748	-158.575	-0.270	-0.016
-714.733	0.945	-0.161	0.116
-713.718	-40.929	0.102	-0.053
-712.704	-97.820	-0.295	-0.076
-711.689	-92.505	-0.108	0.030
-710.675	-83.591	-0.344	-0.110
-709.660	465.788	0.107	-0.240
-708.645	-80.777	0.267	0.089
-707.631	-200.000	-0.031	-0.146
-706.616	800.000	-0.061	-0.206
-705.602	-149.836	0.343	0.027
-704.587	-37.974	-0.240	-0.128
-703.572	-200.000	-0.013	-0.109
-702.558	800.000	0.116	-0.474
-701.543	800.000	0.069	0.210
-700.529	-200.000	-0.046	-0.287
-699.514	-46.343	0.103	-0.051
-698.499	-128.307	-0.370	-0.053
-697.485	28.576	0.126	-0.107
-696.470	-88.745	-0.267	-0.080
-695.456	85.960	0.065	0.072
-694.441	54.195	-0.264	-0.255
-693.426	-200.000	0.020	-0.180
-692.412	-200.000	-0.007	-0.055
-691.397	-200.000	0.018	-0.111
-690.383	-198.786	-0.087	0.000
-689.368	2.417	0.255	-0.185
-688.354	167.990	-0.172	0.246
-687.339	-11.644	-0.222	0.146
-686.324	-150.155	-0.181	-0.014
-685.310	-200.000	-0.024	-0.376
-684.295	-108.939	-0.166	-0.035
-683.281	-111.420	0.096	0.020
-682.266	427.154	-0.052	-0.112
-681.251	320.859	-0.064	0.121
-680.237	76.812	-0.140	-0.149
-679.222	206.215	-0.235	-0.366
-678.208	-80.331	-0.109	-0.036
-677.193	-64.091	-0.156	0.064
-676.178	-73.940	-0.243	-0.088
-675.164	161.196	-0.113	-0.158
-674.149	231.550	0.063	0.104
-673.135	-112.709	0.323	0.064
-672.120	313.484	-0.168	0.317
-671.105	-81.527	-0.060	-0.020
-670.091	70.928	0.206	0.214
-669.076	229.291	0.090	0.147
-668.062	800.000	0.058	0.208
-667.047	23.047	0.013	0.011
-666.032	-62.990	-0.315	0.131
-665.018	143.217	0.155	0.207
-664.003	-198.516	0.190	0.001
-662.989	231.536	0.202	-0.331
-661.974	800.000	-0.027	0.116
-660.959	67.434	0.178	-0.182
-659.945	298.550	-0.166	-0.307
-658.930	-46.895	-0.114	-0.056
-657.916	185.315	-0.121	-0.179
-656.901	513.293	0.039	0.090
-655.886	-104.361	0.121	-0.028
-654.872	-30.082	-0.102	0.058
-653.857	31.002	0.051	0.043
-652.843	694.436	-0.162	-0.425
-651.828	-39.266	-0.195	0.103
-650.814	-102.514	0.130	-0.031
-649.799	-2.449	0.176	-0.123
-648.784	-32.906	0.234	0.130
-647.770	21.580	0.210	-0.171
-646.755	52.857	0.146	0.139
-645.741	800.000	-0.101	0.291
-644.726	125.306	-0.183	-0.231
-643.711	252.373	-0.088	-0.150
-642.697	451.501	0.207	-0.459
-641.682	800.000	0.052	0.206
-640.668	392.951	0.043	-0.089
-639.653	96.010	-0.108	-0.123
-638.638	-200.000	0.006	0.036
-637.624	800.000	-0.098	-0.308
-636.609	768.040	-0.056	0.153
-635.595	-122.347	-0.088	0.014
-634.580	-108.127	-0.293	0.063
-633.565	110.984	-0.020	-0.025
-632.551	-200.000	-0.006	0.088
-631.536	-200.000	0.004	-0.153
-630.522	-200.000	-0.006	-0.280
-629.507	-72.671	0.065	-0.024
-628.492	56.228	0.095	-0.092
-627.478	-200.000	-0.023	0.185
-626.463	-200.000	0.006	0.154
-625.449	800.000	-0.077	0.239
-624.434	53.195	-0.262	0.251
-623.419	-86.824	-0.201	-0.061
-622.405	-82.966	-0.067	-0.022
-621.390	354.968	-0.093	0.184
-620.376	-35.894	0.148	-0.080
-619.361	-110.495	-0.393	0.082
-618.346	-200.000	-0.109	-0.496
-617.332	16.050	-0.098	0.077
-616.317	19.064	-0.155	-0.125
-615.303	-38.107	-0.085	0.045
-614.288	43.631	0.103	-0.094
-613.273	183.386	0.238	-0.351
-612.259	584.502	-0.051	0.125
-611.244	-200.000	0.010	-0.325
-610.230	-97.044	-0.126	-0.033
-609.215	295.203	0.186	-0.340
-608.201	-63.185	-0.227	-0.094
-607.186	619.645	0.032	-0.079
-606.171	-91.703	-0.295	-0.084
-605.157	269.639	0.073	0.129
-604.142	800.000	0.027	0.105
-603.128	-200.000	-0.031	0.280
-602.113	-200.000	0.020	0.406
-601.098	-50.099	-0.235	-0.111
-600.084	-200.000	0.002	0.231
-599.069	-150.226	-0.085	0.007
-598.055	80.450	0.300	-0.323
-597.040	800.000	0.042	0.131
-596.025	-182.329	0.117	0.002
-595.011	-6.361	0.153	0.104
-593.996	499.210	-0.027	0.061
-592.982	-200.000	0.019	0.332
-591.967	31.199	-0.457	0.392
-590.952	-0.729	-0.144	-0.102
-589.938	160.770	0.142	0.198
-588.923	319.224	0.184	0.349
-587.909	68.893	-0.050	-0.051
-586.894	-122.896	0.145	-0.023
-585.879	800.000	0.055	0.154
-584.865	800.000	-0.094	0.292
-583.850	-105.741	0.078	0.018
-582.836	-196.944	-0.519	-0.003
-581.821	-39.256	-0.251	0.132
-580.806	-129.686	0.232	0.032
-579.792	107.658	-0.060	0.071
-578.777	38.560	-0.195	-0.174
-577.763	38.014	-0.145	-0.129
-576.748	-138.921	0.368	0.040
-575.733	40.406	0.255	0.229
-574.719	342.069	-0.006	0.011
-573.704	85.649	0.050	-0.055
-572.690	800.000	0.059	-0.187
-571.675	-41.111	-0.215	0.111
-570.661	548.811	0.052	0.126
-569.646	110.718	-0.285	-0.342
-568.631	-200.000	-0.018	-0.399
-567.617	-75.323	0.194	-0.069
-566.602	-109.192	-0.129	-0.027
-565.588	199.673	-0.214	0.327
-564.573	129.158	-0.182	0.231
-563.558	100.032	0.157	0.182
-562.544	-15.757	-0.272	0.173
-561.529	-70.790	-0.261	-0.098
-560.515	-112.394	-0.372	0.074
-559.500	663.498	0.034	0.087
-558.485	800.000	0.006	-0.018
-557.471	-64.033	0.243	-0.099
-556.456	-149.507	0.373	0.029
-555.442	-76.919	-0.095	-0.033
-554.427	-72.855	-0.185	-0.068
-553.412	-161.473	0.271	0.014
-552.398	35.877	0.250	0.219
-551.383	800.000	0.022	0.063
-550.369	22.299	0.029	0.024
-549.354	119.802	0.143	-0.177
-548.339	-49.216	-0.222	0.106
-547.325	189.927	-0.078	0.116
-546.310	-15.976	0.164	-0.104
-545.296	-73.692	0.273	-0.099
-544.281	117.096	0.105	0.128
-543.266	117.858	-0.193	-0.237
-542.252	-32.023	0.434	-0.242
-541.237	-18.748	0.099	-0.061
-540.223	-121.250	0.244	0.041
-539.208	268.354	-0.025	0.044
-538.193	702.627	0.054	-0.142
-537.179	800.000	0.105	0.341
-536.164	-39.889	-0.040	0.021
-535.150	-131.868	0.086	-0.011
-534.135	63.741	0.096	0.096
-533.121	-200.000	-0.039	-0.265
-532.106	526.853	0.047	0.111
-531.091	-12.503	0.033	0.022
-530.077	-177.805	-0.153	-0.004
-529.062	800.000	0.067	0.249
-528.048	-54.973	0.058	0.026
-527.033	-83.200	-0.185	0.059
-526.018	-44.340	0.173	0.086
-525.004	9.489	0.179	-0.135
-523.989	102.246	0.122	-0.143
-522.975	800.000	-0.054	0.160
-521.960	-118.487	-0.131	-0.023
-520.945	271.129	0.105	-0.185
-519.931	-92.362	0.232	-0.065
-518.916	-200.000	-0.038	0.323
-517.902	-109.150	0.211	0.045
-516.887	156.435	0.112	-0.155
-515.872	-96.751	0.132	-0.035
-514.858	632.189	-0.075	0.190
-513.843	185.128	0.033	-0.049
-512.829	254.862	-0.099	0.169
-511.814	-2.088	0.089	-0.062
-510.799	-22.997	-0.142	0.085
-509.785	-57.623	-0.183	0.080
-508.770	67.921	0.241	-0.245
-507.756	-100.736	-0.133	0.033
-506.741	800.000	0.033	0.112
-505.726	198.148	0.054	0.082
-504.712	-24.412	-0.260	0.154
-503.697	206.657	0.121	-0.188
-502.683	-126.908	-0.250	-0.037
-501.668	-200.000	-0.014	-0.111
-500.653	-32.379	0.071	-0.040
-499.639	-50.473	0.073	0.034
-498.624	800.000	-0.083	-0.340
-497.610	-200.000	-0.001	0.151
-496.595	-200.000	0.038	-0.168
-495.581	-149.234	-0.291	-0.023
-494.566	-200.000	-0.031	0.135
-493.551	98.343	0.206	0.237
-492.537	674.215	-0.067	0.172
-491.522	-200.000	0.026	0.159
-490.508	45.807	0.162	-0.149
-489.493	-31.477	-0.167	0.094
-488.478	323.495	-0.032	-0.060
-487.464	88.142	-0.183	-0.202
-486.449	-200.000	-0.097	-0.501
-485.435	-10.389	0.168	0.111
-484.420	-200.000	-0.002	-0.263
-483.405	101.907	0.113	0.132
-482.391	553.805	0.034	0.081
-481.376	-20.056	-0.088	-0.054
-480.362	703.416	0.107	0.280
-479.347	621.327	0.068	0.170
-478.332	-200.000	-0.019	-0.208
-477.318	125.827	-0.093	-0.117
-476.303	31.634	0.306	0.262
-475.289	16.433	0.143	0.112
-474.274	37.619	0.018	-0.016
-473.259	-200.000	0.000	0.136
-472.245	-200.000	0.066	0.308
-471.230	41.507	-0.087	0.078
-470.216	-60.736	0.130	0.055
-469.201	-200.000	-0.009	0.082
-468.186	293.218	-0.158	-0.286
-467.172	236.704	-0.141	0.233
-466.157	207.650	0.146	0.227
-465.143	299.525	-0.129	0.237
-464.128	-1.543	0.071	-0.050
-463.113	-158.343	0.324	0.019
-462.099	72.725	-0.102	-0.106
-461.084	-200.000	0.011	0.075
-460.070	-107.202	0.232	0.051
-459.055	-70.127	-0.225	-0.085
-458.040	149.109	-0.063	0.085
-457.026	533.595	-0.075	-0.176
-456.011	151.957	0.192	0.260
-454.997	-136.607	-0.312	-0.036
-453.982	609.876	0.081	0.202
-452.968	-91.325	-0.131	0.037
-451.953	-200.000	0.003	-0.110
-450.938	-200.000	0.043	-0.409
-449.924	18.511	-0.178	-0.141
-448.909	-78.501	0.235	0.080
-447.895	-200.000	0.024	-0.115
-446.880	-4.863	0.376	0.257
-445.865	-200.000	-0.008	0.147
-444.851	-96.493	-0.656	0.172
-443.836	62.268	-0.159	-0.157
-442.822	-32.873	-0.203	-0.112
-441.807	-200.000	-0.025	-0.120
-440.792	-200.000	-0.017	0.075
-439.778	143.120	0.136	0.179
-438.763	-116.287	-0.173	0.032
-437.749	165.790	-0.054	0.075
-436.734	800.000	-0.056	-0.169
-435.719	800.000	0.072	0.263
-434.705	-200.000	-0.004	-0.105
-433.690	-128.518	0.385	0.054
-432.676	800.000	-0.078	0.243
-431.661	21.411	-0.301	-0.243
-430.646	301.249	-0.120	-0.220
-429.632	652.115	-0.087	-0.220
-428.617	800.000	-0.107	-0.398
-427.603	-200.000	0.021	0.107
-426.588	-144.934	-0.241	0.022
-425.573	-25.825	-0.213	0.125
-424.559	128.785	0.244	0.309
-423.544	-200.000	0.073	-0.437
-422.530	3.491	-0.066	-0.048
-421.515	163.368	0.101	0.141
-420.500	-200.000	-0.006	0.311
-419.486	-54.149	0.265	-0.120
-418.471	-200.000	-0.035	-0.244
-417.457	-200.000	0.057	-0.370
-416.442	703.002	0.036	-0.093
-415.428	208.076	0.169	0.262
-414.413	-200.000	0.002	-0.135
-413.398	-93.275	-0.226	0.062
-412.384	-85.602	0.303	0.093
-411.369	177.950	-0.109	-0.158
-410.355	361.396	0.175	0.349
-409.340	-28.755	-0.053	-0.030
-408.325	26.696	-0.246	0.204
-407.311	-200.000	-0.047	0.258
-406.296	-200.000	0.052	-0.339
-405.282	-148.758	0.181	-0.015
-404.267	-54.850	0.120	0.054
-403.252	-9.193	0.148	-0.098
-402.238	-95.822	0.103	-0.027
-401.223	-200.000	0.019	0.329
-400.209	104.828	0.089	-0.104
-399.194	-84.082	-0.248	0.078
-398.179	-99.384	0.120	0.030
-397.165	-116.787	0.133	-0.024
-396.150	214.027	0.117	0.183
-395.136	-30.115	-0.104	-0.058
-394.121	800.000	-0.081	-0.223
-393.106	41.681	0.077	-0.069
-392.092	189.630	0.048	0.072
-391.077	86.364	-0.169	0.184
-390.063	144.891	0.188	0.250
-389.048	120.632	-0.137	0.169
-388.033	380.229	0.108	0.220
-387.019	66.168	-0.245	0.246
-386.004	-34.522	-0.163	-0.088
-384.990	-200.000	-0.060	0.374
-383.975	-159.284	-0.336	-0.019
-382.960	777.363	-0.068	-0.185
-381.946	-78.357	-0.191	0.065
-380.931	-200.000	0.136	-0.000
-379.917	-54.507	-0.117	-0.053
-378.902	62.191	0.219	-0.216
-377.888	624.962	0.114	-0.284
-376.873	-200.000	-0.017	-0.218
-375.858	7.954	-0.097	0.072
-374.844	154.213	0.185	0.251
-373.829	-102.197	0.523	0.124
-372.815	-69.571	-0.367	-0.139
-371.800	129.228	0.082	-0.103
-370.785	800.000	-0.117	0.374
-369.771	-200.000	0.049	0.309
-368.756	139.360	-0.224	0.292
-367.742	-200.000	0.005	0.051
-366.727	49.459	-0.197	-0.184
-365.712	760.518	0.028	0.076
-364.698	-200.000	0.053	-0.260
-363.683	800.000	-0.053	-0.214
-362.669	1.243	0.236	-0.168
-361.654	800.000	0.062	-0.177
-360.639	58.185	0.190	-0.184
-359.625	280.899	0.109	-0.193
-358.610	113.979	-0.133	0.160
-357.596	49.152	0.087	-0.081
-356.581	-22.629	-0.218	0.130
-355.566	631.745	-0.054	-0.135
-354.552	-80.897	0.346	-0.113
-353.537	-149.308	0.013	-0.001
-352.523	-141.156	-0.042	-0.004
-351.508	101.224	-0.120	0.138
-350.493	-200.000	0.007	0.044
-349.479	-135.363	-0.121	0.014
-348.464	-140.879	-0.317	0.032
-347.450	46.817	0.228	-0.210
-346.435	-200.000	0.014	-0.113
-345.420	-200.000	-0.001	-0.266
-344.406	-81.778	-0.506	-0.164
-343.391	-200.000	-0.062	-0.312
-342.377	440.674	0.053	-0.115
-341.362	-40.739	0.036	-0.018
-340.348	-76.005	-0.236	-0.082
-339.333	-30.245	0.111	-0.063
-338.318	71.316	-0.102	0.104
-337.304	-1.723	-0.241	-0.168
-336.289	-110.821	-0.252	0.051
-335.275	-200.000	0.030	0.393
-334.260	543.807	0.055	-0.130
-333.245	-200.000	-0.026	-0.120
-332.231	800.000	0.037	0.114
-331.216	-200.000	-0.032	0.454
-330.202	299.868	-0.081	0.147
-329.187	-200.000	0.003	0.286
-328.172	542.862	-0.097	-0.230
-327.158	562.416	0.107	0.257
-326.143	698.468	-0.077	0.200
-325.129	-36.693	-0.378	-0.201
-324.114	115.913	-0.066	-0.079
-323.099	49.289	-0.021	-0.019
-322.085	86.812	-0.240	-0.262
-321.070	800.000	-0.083	0.328
-320.056	-84.389	-0.089	-0.028
-319.041	-82.035	-0.124	-0.040
-318.026	238.639	-0.064	0.105
-317.012	19.190	0.251	0.199
-315.997	800.000	0.022	0.068
-314.983	800.000	0.086	0.335
-313.968	115.603	-0.058	-0.070
-312.953	284.471	0.051	-0.091
-311.939	231.500	-0.202	0.328
-310.924	325.615	-0.020	0.038
-309.910	249.294	0.180	-0.301
-308.895	-200.000	-0.004	-0.375
-307.880	324.056	-0.141	-0.265
-306.866	319.971	-0.049	-0.092
-305.851	183.321	0.106	-0.154
-304.837	106.869	0.030	0.035
-303.822	-200.000	0.017	0.098
-302.807	-20.001	-0.211	-0.129
-301.793	800.000	0.086	0.262
-300.778	-200.000	-0.048	-0.393
-299.764	-30.484	-0.111	-0.062
-298.749	-14.941	-0.283	-0.179
-297.735	-200.000	-0.003	0.193
-296.720	302.762	0.096	0.176
-295.705	-32.012	0.102	-0.056
-294.691	800.000	-0.030	0.113
-293.676	71.011	0.110	0.113
-292.662	-135.541	0.219	0.026
-291.647	176.050	-0.093	-0.133
-290.632	-200.000	-0.025	-0.176
-289.618	466.253	-0.191	0.423
-288.603	-200.000	0.019	-0.236
-287.589	-75.113	-0.164	-0.058
-286.574	-200.000	0.050	0.448
-285.559	-142.791	-0.200	-0.019
-284.545	27.807	-0.093	-0.078
-283.530	800.000	-0.007	-0.019
-282.516	85.818	0.060	0.066
-281.501	-101.676	0.270	0.065
-280.486	-54.679	0.120	0.053
-279.472	-200.000	-0.016	0.084
-278.457	464.915	-0.065	-0.143
-277.443	-127.968	0.301	0.043
-276.428	121.517	-0.199	0.245
-275.413	10.161	-0.273	-0.205
-274.399	-37.964	-0.144	0.075
-273.384	72.441	0.121	0.125
-272.370	354.540	-0.138	-0.271
-271.355	-7.402	0.422	0.282
-270.340	-200.000	-0.043	-0.240
-269.326	116.581	-0.049	0.059
-268.311	60.471	-0.107	-0.105
-267.297	474.868	0.108	0.241
-266.282	-109.016	-0.252	0.053
-265.267	-107.535	0.211	0.046
-264.253	-200.000	-0.011	-0.097
-263.238	-200.000	-0.012	0.153
-262.224	800.000	0.108	-0.349
-261.209	800.000	0.104	-0.307
-260.195	-105.392	0.157	0.035
-259.180	-182.818	-0.081	0.001
-258.165	169.060	-0.120	0.169
-257.151	-166.671	0.286	0.012
-256.136	109.010	0.141	0.166
-255.122	240.505	-0.123	-0.203
-254.107	-200.000	-0.003	-0.128
-253.092	-22.167	0.216	-0.129
-252.078	-200.000	-0.023	-0.114
-251.063	-151.866	0.119	0.009
-250.049	-55.966	0.254	-0.111
-249.034	800.000	-0.018	-0.052
-248.019	-200.000	0.045	-0.251
-247.005	-0.137	-0.214	-0.150
-245.990	-110.175	0.261	-0.054
-244.976	32.965	0.204	0.174
-243.961	22.310	-0.256	0.206
-242.946	-200.000	-0.030	-0.251
-241.932	-157.944	0.091	-0.005
-240.917	542.949	0.087	-0.205
-239.903	-107.936	0.136	-0.029
-238.888	-32.029	0.202	0.111
-237.873	-200.000	-0.028	0.130
-236.859	-138.192	-0.145	-0.016
-235.844	33.399	0.022	0.019
-234.830	289.205	0.120	-0.214
-233.815	-96.129	-0.046	-0.012
-232.800	310.332	-0.076	0.140
-231.786	-106.512	0.214	0.047
-230.771	479.346	0.107	0.238
-229.757	-200.000	0.014	-0.175
-228.742	53.138	0.245	0.231
-227.727	800.000	-0.011	0.047
-226.713	-200.000	0.003	-0.035
-225.698	-66.472	-0.098	-0.038
-224.684	-79.643	0.053	-0.018
-223.669	106.444	0.201	-0.234
-222.655	-88.068	0.283	-0.084
-221.640	-200.000	-0.005	-0.461
-220.625	63.673	-0.136	-0.134
-219.611	97.194	0.179	-0.202
-218.596	-21.087	0.166	-0.100
-217.582	-200.000	-0.040	0.227
-216.567	800.000	0.021	-0.092
-215.552	50.445	0.094	-0.087
-214.538	-4.856	0.101	0.069
-213.523	-200.000	-0.010	0.206
-212.509	-43.269	-0.348	-0.173
-211.494	-125.521	0.177	0.026
-210.479	82.595	0.314	-0.336
-209.465	719.831	-0.214	0.560
-208.450	-200.000	0.021	-0.184
-207.436	800.000	-0.153	-0.423
-206.421	28.496	0.396	-0.329
-205.406	598.908	0.118	-0.287
-204.392	214.419	0.196	-0.305
-203.377	222.486	0.040	0.063
-202.363	4.855	0.110	-0.080
-201.348	149.430	-0.122	0.163
-200.333	-145.333	-0.387	-0.034
-199.319	-109.694	-0.091	0.019
-198.304	-140.146	-0.186	0.019
-197.290	-84.783	-0.085	-0.026
-196.275	-81.054	-0.215	0.070
-195.260	-124.832	0.229	0.035
-194.246	454.007	0.123	-0.268
-193.231	800.000	-0.010	-0.031
-192.217	70.086	0.146	-0.148
-191.202	-62.367	-0.306	-0.125
-190.187	-17.614	0.142	-0.088
-189.173	-200.000	-0.044	-0.378
-188.158	-78.105	-0.179	-0.061
-187.144	554.021	-0.112	-0.264
-186.129	-63.338	0.325	-0.131
-185.114	354.009	-0.055	-0.107
-184.100	-76.395	-0.222	-0.077
-183.085	136.437	0.120	0.154
-182.071	-37.413	-0.300	0.157
-181.056	248.801	-0.080	0.133
-180.042	374.384	0.160	0.320
-179.027	-114.792	-0.139	-0.026
-178.012	-23.205	0.189	0.112
-176.998	24.326	0.281	0.228
-175.983	-200.000	0.043	0.363
-174.969	-43.234	-0.151	0.075
-173.954	-88.772	0.268	0.078
-172.939	-29.030	-0.168	0.095
-171.925	800.000	-0.007	0.021
-170.910	7.052	-0.195	0.143
-169.896	98.879	-0.160	0.182
-168.881	800.000	0.052	-0.172
-167.866	172.193	0.141	-0.199
-166.852	29.723	0.315	-0.263
-165.837	47.648	-0.200	0.183
-164.823	3.293	0.097	-0.070
-163.808	800.000	-0.102	-0.305
-162.793	-79.984	0.291	0.096
-161.779	60.279	-0.132	0.128
-160.764	800.000	0.085	0.316
-159.750	-77.661	0.191	-0.065
-158.735	59.836	0.028	-0.027
-157.720	-151.069	0.098	0.007
-156.706	-87.276	0.262	-0.078
-155.691	93.336	-0.144	0.160
-154.677	-92.872	-0.267	0.073
-153.662	-35.610	0.197	0.105
-152.647	-89.602	0.207	0.060
-151.633	11.673	-0.070	0.053
-150.618	62.675	-0.198	0.194
-149.604	17.203	0.445	-0.346
-148.589	120.667	0.150	0.183
-147.574	276.996	-0.194	0.338
-146.560	783.775	0.049	0.133
-145.545	-76.623	-0.123	-0.042
-144.531	205.395	-0.070	-0.107
-143.516	800.000	0.071	0.213
-142.502	800.000	0.171	-0.481
-141.487	774.308	0.130	0.348
-140.472	-130.538	-0.286	0.038
-139.458	354.720	0.183	0.357
-138.443	524.766	0.113	0.260
-137.429	800.000	-0.083	-0.285
-136.414	-14.524	-0.247	0.156
-135.399	-122.261	0.184	0.029
-134.385	82.993	0.284	0.303
-133.370	-6.629	0.248	0.166
-132.356	-103.461	-0.178	-0.041
-131.341	-200.000	0.002	0.282
-130.326	171.150	-0.089	0.125
-129.312	-15.883	-0.068	0.042
-128.297	140.384	0.170	-0.221
-127.283	-200.000	-0.022	0.104
-126.268	107.805	-0.103	-0.121
-125.253	-25.819	-0.326	-0.189
-124.239	-181.276	0.232	0.004
-123.224	-24.215	-0.050	-0.029
-122.210	-200.000	0.012	0.216
-121.195	-200.000	-0.042	0.230
-120.180	-98.716	-0.183	0.046
-119.166	512.550	-0.091	0.208
-118.151	800.000	-0.111	0.374
-117.137	800.000	0.093	0.252
-116.122	-47.043	0.327	-0.156
-115.107	-56.544	-0.112	-0.049
-114.093	800.000	0.034	0.136
-113.078	-56.666	0.499	-0.217
-112.064	800.000	-0.016	0.048
-111.049	-200.000	-0.008	-0.250
-110.034	-106.826	-0.157	-0.034
-109.020	-45.492	-0.119	-0.058
-108.005	800.000	-0.133	0.369
-106.991	-85.079	0.158	-0.049
-105.976	-36.865	-0.263	0.139
-104.962	294.267	0.044	0.079
-103.947	800.000	-0.040	0.165
-102.932	198.129	0.018	-0.028
-101.918	-48.400	0.058	-0.028
-100.903	-9.637	0.231	-0.151
-99.889	69.877	0.143	-0.145
-98.874	229.417	0.162	0.260
-97.859	422.519	0.046	0.097
-96.845	19.172	0.269	0.212
-95.830	-200.000	0.010	0.182
-94.816	-88.177	-0.400	-0.118
-93.801	-27.598	-0.176	-0.100
-92.786	-51.460	-0.146	-0.067
-91.772	-34.201	0.156	-0.084
-90.757	-59.515	-0.216	-0.091
-89.743	-47.464	0.062	-0.030
-88.728	800.000	-0.145	-0.429
-87.713	-147.007	0.069	0.006
-86.699	-52.172	-0.225	0.102
-85.684	-90.618	0.295	0.084
-84.670	584.063	0.075	0.180
-83.655	-132.455	-0.365	0.046
-82.640	-182.673	-0.431	0.008
-81.626	-148.823	0.243	-0.019
-80.611	295.402	0.069	0.123
-79.597	-200.000	-0.050	0.243
-78.582	122.010	0.103	0.126
-77.567	-200.000	-0.011	-0.208
-76.553	-40.785	0.116	0.059
-75.538	800.000	-0.043	0.122
-74.524	-51.471	0.257	-0.118
-73.509	49.994	-0.129	0.119
-72.494	-200.000	-0.015	0.096
-71.480	60.666	-0.056	0.054
-70.465	800.000	-0.063	0.176
-69.451	-73.134	-0.116	-0.042
-68.436	-60.950	-0.213	-0.088
-67.422	-29.288	0.141	-0.079
-66.407	66.172	0.086	0.085
-65.392	-200.000	-0.008	0.193
-64.378	-153.930	-0.236	-0.016
-63.363	-200.000	0.010	0.290
-62.349	87.434	-0.192	0.208
-61.334	96.577	-1.061	-1.188
-60.319	140.619	0.460	0.594
-59.305	-200.000	-0.291	-1.298
-58.290	311.345	0.692	1.270
-57.276	800.000	0.511	1.620
-56.261	-200.000	115.882	670.628
-55.246	548.515	1518.882	3559.168
-54.232	179.006	2686.044	3842.222
-53.217	110.405	2147.068	2523.783
-52.203	39.176	1591.424	1392.632
-51.188	30.725	1338.760	1120.850
-50.173	27.846	1300.596	1071.979
-49.159	55.902	1357.363	1287.562
-48.144	53.937	1371.928	1289.589
-47.130	31.015	1326.810	1112.398
-46.115	27.443	1309.735	1076.957
-45.100	27.346	1304.028	1071.649
-44.086	27.212	1302.083	1069.218
-43.071	27.172	1299.609	1066.909
-42.057	27.153	1298.026	1065.460
-41.042	27.287	1295.753	1064.336
-40.027	27.276	1294.149	1062.909
-39.013	27.165	1292.454	1060.825
-37.998	27.324	1290.544	1060.148
-36.984	27.333	1288.929	1058.826
-35.969	27.464	1286.700	1057.717
-34.954	27.436	1285.173	1056.255
-33.940	27.356	1284.089	1054.860
-32.925	27.463	1282.987	1054.533
-31.911	27.418	1281.503	1053.011
-30.896	27.452	1280.097	1052.010
-29.881	27.495	1278.569	1050.962
-28.867	27.461	1277.492	1049.839
-27.852	27.585	1275.192	1048.619
-26.838	27.501	1274.622	1047.629
-25.823	27.491	1273.307	1046.445
-24.809	27.408	1271.793	1044.681
-23.794	27.414	1270.624	1043.714
-22.779	27.348	1269.382	1042.275
-21.765	27.553	1267.764	1042.077
-20.750	27.523	1266.466	1040.800
-19.736	27.259	1265.528	1038.482
-18.721	27.430	1264.042	1038.198
-17.706	27.355	1263.037	1036.900
-16.692	27.385	1262.052	1036.225
-15.677	27.378	1260.746	1035.068
-14.663	27.278	1260.066	1033.902
-13.648	27.373	1258.335	1032.978
-12.633	27.278	1257.767	1031.934
-11.619	27.276	1256.982	1031.239
-10.604	27.327	1256.295	1030.923
-9.590	27.414	1255.115	1030.405
-8.575	27.308	1254.220	1029.026
-7.560	27.243	1253.664	1028.164
-6.546	27.293	1252.460	1027.421
-5.531	27.197	1251.657	1026.176
-4.517	27.371	1250.986	1026.567
-3.502	27.404	1249.503	1025.494
-2.487	27.270	1248.710	1024.052
-1.473	27.191	1244.580	1020.178
-0.458	25.599	1229.636	999.055
0.556	22.365	1211.813	959.823
1.571	18.325	1218.076	942.505
2.586	17.505	1232.068	948.681
3.600	16.990	1219.832	936.331
4.615	12.788	1148.868	859.899
5.629	6.173	1078.360	774.557
6.644	3.369	1060.461	748.035
7.659	3.119	1058.277	745.219
8.673	3.140	1057.044	744.384
9.688	3.192	1056.076	743.888
10.702	3.441	1053.626	743.298
11.717	7.138	1058.301	764.406
12.731	14.481	1069.157	807.877
13.746	19.135	1074.640	834.563
14.761	19.773	1075.756	838.449
15.775	19.059	1073.499	833.162
16.790	18.085	1071.516	826.841
17.804	17.359	1070.398	822.397
18.819	17.031	1069.250	819.857
19.834	16.923	1068.411	818.618
20.848	16.874	1067.445	817.569
21.863	16.659	1066.650	815.853
22.877	16.393	1066.156	814.122
23.892	16.421	1065.457	813.651
24.907	16.433	1064.309	812.757
25.921	16.533	1063.423	812.489
26.936	16.498	1061.885	811.073
27.950	16.443	1061.286	810.283
28.965	16.662	1058.999	809.511
29.980	16.809	1057.888	809.294
30.994	16.886	1056.347	808.409
32.009	16.811	1055.928	807.660
33.023	16.817	1054.749	806.717
34.038	16.635	1054.301	805.437
35.053	16.603	1053.006	804.221
36.067	16.530	1052.271	803.245
37.082	16.594	1051.302	802.738
38.096	16.698	1050.945	802.888
39.111	16.664	1049.784	801.766
40.126	16.526	1048.477	800.048
41.140	16.483	1046.556	798.307
42.155	16.197	1046.230	796.639
43.169	16.279	1044.222	795.424
44.184	16.205	1043.574	794.511
45.199	16.272	1042.236	793.740
46.213	16.447	1041.696	794.076
47.228	16.523	1041.167	793.964
48.242	16.597	1040.064	793.396
49.257	16.523	1038.748	791.975
50.271	16.557	1038.300	791.724
51.286	16.609	1037.226	791.080
52.301	16.557	1036.171	789.959
53.315	16.435	1035.672	788.942
54.330	16.436	1033.678	787.356
55.344	16.295	1033.490	786.487
56.359	16.397	1032.234	785.938
57.374	16.390	1031.283	785.112
58.388	16.289	1030.370	783.876
59.403	16.142	1029.618	782.552
60.417	16.155	1029.113	782.161
61.432	16.163	1027.951	781.246
62.447	16.103	1027.304	780.409
63.461	16.040	1026.748	779.626
64.476	16.005	1025.442	778.401
65.490	16.007	1025.026	778.026
66.505	16.177	1023.455	777.547
67.520	16.142	1023.385	777.264
68.534	16.069	1022.861	776.463
69.549	16.059	1022.130	775.795
70.563	16.080	1020.762	774.781
71.578	15.908	1020.377	773.631
72.593	15.797	1019.559	772.435
73.607	15.873	1019.092	772.361
74.622	15.944	1018.008	771.795
75.636	15.950	1017.560	771.416
76.651	16.129	1016.701	771.512
77.666	16.073	1015.955	770.622
78.680	16.044	1015.298	769.925
79.695	16.167	1014.748	770.000
80.709	16.269	1013.916	769.769
81.724	16.306	1013.580	769.612
82.739	16.338	1012.912	769.181
83.753	16.599	1012.147	769.719
84.768	16.856	1011.417	770.267
85.782	16.935	1010.609	769.941
86.797	16.764	1009.961	768.606
87.812	16.628	1008.948	767.149
88.826	16.554	1008.180	766.162
89.841	16.714	1007.071	765.977
90.855	16.711	1006.464	765.432
91.870	16.747	1005.675	764.928
92.884	16.786	1004.406	764.071
93.899	16.738	1003.734	763.275
94.914	16.774	1003.200	762.962
95.928	16.923	1001.792	762.497
96.943	16.670	1001.282	760.901
97.957	16.613	1000.320	759.847
98.972	16.691	999.289	759.349
99.987	16.640	998.561	758.498
101.001	16.710	997.373	757.844
102.016	16.815	996.300	757.431
103.030	16.720	996.304	756.939
104.045	16.753	995.270	756.236
105.060	16.637	994.101	754.761
106.074	16.394	993.282	752.993
107.089	16.302	991.934	751.492
108.103	16.172	991.119	750.231
109.118	16.231	990.031	749.604
110.133	16.120	989.474	748.622
111.147	16.229	988.573	748.358
112.162	16.189	987.862	747.578
113.176	16.267	987.444	747.538
114.191	16.418	986.741	747.608
115.206	16.411	985.668	746.701
116.220	16.228	985.212	745.478
117.235	16.326	984.148	745.039
118.249	16.334	982.894	744.062
119.264	16.067	982.918	742.836
120.279	16.182	981.697	742.355
121.293	16.157	980.909	741.583
122.308	16.254	979.483	740.866
123.322	16.056	978.952	739.528
124.337	16.100	977.745	738.745
125.352	16.197	976.301	738.014
126.366	16.166	975.199	736.977
127.381	16.028	974.307	735.638
128.395	16.200	973.653	735.828
129.410	16.143	972.843	734.904
130.424	16.151	972.130	734.334
131.439	16.228	971.384	734.041
132.454	16.267	970.512	733.487
133.468	16.331	969.501	732.934
134.483	16.401	968.652	732.533
135.497	16.349	967.862	731.643
136.512	16.373	967.127	731.127
137.527	16.390	966.065	730.333
138.541	16.302	965.789	729.681
139.556	16.523	964.885	729.888
140.570	16.669	964.221	729.951
141.585	16.660	963.739	729.480
142.600	16.720	962.705	728.892
143.614	16.735	962.117	728.449
144.629	16.777	961.383	728.007
145.643	16.790	960.322	727.196
146.658	16.682	959.178	725.804
147.673	16.560	958.341	724.581
148.687	16.441	957.714	723.532
149.702	16.369	957.228	722.796
150.716	16.319	956.156	721.709
151.731	16.368	955.579	721.416
152.746	16.416	954.753	720.935
153.760	16.413	954.465	720.641
154.775	16.555	953.627	720.551
155.789	16.566	953.257	720.252
156.804	16.642	952.205	719.719
157.819	16.779	951.355	719.595
158.833	16.851	950.731	719.364
159.848	16.859	950.259	718.975
160.862	16.666	949.343	717.403
161.877	16.607	947.498	715.694
162.892	16.471	946.966	714.654
163.906	16.510	945.601	713.728
164.921	16.451	945.102	713.038
165.935	16.728	943.667	713.059
166.950	16.694	943.301	712.575
167.964	16.619	942.386	711.506
168.979	16.553	941.535	710.523
169.994	16.516	941.010	709.908
171.008	16.577	940.173	709.469
172.023	16.760	939.411	709.600
173.037	16.939	938.565	709.645
174.052	16.770	938.006	708.454
175.067	16.630	937.210	707.204
176.081	16.556	936.511	706.308
177.096	16.579	935.819	705.819
178.110	16.596	935.570	705.638
179.125	16.415	935.303	704.622
180.140	16.587	934.716	704.834
181.154	16.853	933.757	705.152
182.169	16.969	933.277	705.210
183.183	17.107	932.466	705.108
184.198	16.797	932.288	703.625
185.213	16.826	931.609	703.169
186.227	16.973	930.755	703.073
187.242	16.997	930.167	702.666
188.256	17.059	929.750	702.545
189.271	17.008	929.068	701.759
190.286	16.799	927.786	699.862
191.300	16.564	926.465	697.834
192.315	16.444	926.416	697.243
193.329	16.409	926.040	696.752
194.344	16.641	925.638	697.345
195.359	16.579	925.063	696.594
196.373	16.815	924.315	696.942
197.388	16.868	924.114	696.946
198.402	17.167	923.130	697.371
199.417	17.215	923.022	697.423
200.432	17.260	922.249	696.960
201.446	17.363	921.769	696.959
202.461	17.458	921.544	697.115
203.475	17.323	920.571	695.765
204.490	17.163	919.697	694.392
205.504	17.062	918.933	693.340
206.519	17.171	917.765	692.840
207.534	17.024	917.674	692.114
208.548	17.085	916.516	691.424
209.563	17.169	916.195	691.464
210.577	17.291	915.354	691.265
211.592	17.219	914.931	690.592
212.607	17.280	914.144	690.185
213.621	17.248	913.562	689.556
214.636	17.399	912.238	689.107
215.650	17.371	911.779	688.584
216.665	17.416	911.016	688.127
217.680	17.505	910.716	688.201
218.694	17.545	909.946	687.719
219.709	17.377	909.770	686.849
220.723	17.345	909.123	686.170
221.738	17.506	908.136	686.013
222.753	17.493	907.535	685.443
223.767	17.519	907.019	685.102
224.782	17.604	906.853	685.256
225.796	17.575	905.944	684.394
226.811	17.404	905.411	683.242
227.826	17.345	904.811	682.491
228.840	17.488	903.653	682.132
229.855	17.422	902.838	681.192
230.869	17.352	902.286	680.433
231.884	17.412	901.629	680.121
232.899	17.361	900.920	679.318
233.913	17.179	900.168	677.966
234.928	17.244	899.348	677.547
235.942	17.343	898.726	677.415
236.957	17.289	898.333	676.841
237.972	17.284	897.607	676.216
238.986	17.348	897.170	676.083
240.001	17.233	896.607	675.141
241.015	17.380	895.922	675.149
242.030	17.420	895.792	675.150
243.045	17.554	894.978	675.009
244.059	17.476	894.694	674.425
245.074	17.608	893.603	674.063
246.088	17.575	893.190	673.561
247.103	17.752	892.515	673.693
248.117	17.834	892.346	673.830
249.132	18.003	891.878	674.083
250.147	18.133	891.091	673.943
251.161	18.029	890.780	673.239
252.176	18.209	889.967	673.274
253.190	18.210	889.330	672.735
254.205	18.269	888.485	672.268
255.220	18.245	887.593	671.438
256.234	18.181	887.653	671.175
257.249	18.060	887.120	670.237
258.263	18.242	885.550	669.706
259.278	18.158	885.412	669.212
260.293	18.339	884.521	669.186
261.307	18.231	884.430	668.637
262.322	18.397	883.430	668.469
263.336	18.417	882.725	667.956
264.351	18.470	881.892	667.473
265.366	18.361	881.413	666.626
266.380	18.380	880.517	665.963
267.395	18.293	879.915	665.109
268.409	18.304	879.334	664.654
269.424	18.191	878.430	663.474
270.439	18.148	877.532	662.571
271.453	18.188	876.610	661.972
272.468	18.325	876.301	662.208
273.482	18.310	875.438	661.439
274.497	18.117	875.376	660.589
275.512	18.097	875.119	660.260
276.526	18.166	874.452	659.965
277.541	18.362	873.610	660.026
278.555	18.466	873.281	660.119
279.570	18.775	872.571	660.713
280.585	18.525	872.136	659.363
281.599	18.464	871.115	658.300
282.614	18.344	870.151	657.052
283.628	18.304	869.660	656.472
284.643	18.274	869.679	656.311
285.657	18.360	868.839	655.950
286.672	18.369	868.128	655.387
287.687	18.449	867.534	655.189
288.701	18.402	867.092	654.618
289.716	18.397	866.797	654.317
290.730	18.564	865.636	654.021
291.745	18.618	864.932	653.637
292.760	18.528	864.807	653.140
293.774	18.686	864.211	653.235
294.789	18.663	863.350	652.437
295.803	18.384	862.573	650.735
296.818	18.318	861.970	649.969
297.833	18.437	861.056	649.675
298.847	18.545	860.566	649.658
299.862	18.574	860.217	649.447
300.876	18.732	859.508	649.453
301.891	18.716	859.437	649.278
302.906	18.825	858.512	648.935
303.920	18.980	858.098	649.150
304.935	18.917	857.584	648.465
305.949	18.869	856.988	647.775
306.964	18.846	856.115	646.972
307.979	18.778	855.484	646.182
308.993	18.909	854.917	646.190
310.008	18.973	854.612	646.142
311.022	18.704	854.138	644.718
312.037	18.587	853.526	643.757
313.052	18.603	852.745	643.172
314.066	18.454	852.390	642.287
315.081	18.531	851.519	641.864
316.095	18.596	851.175	641.793
317.110	18.527	850.651	641.082
318.125	18.669	849.698	640.836
319.139	18.632	849.211	640.273
320.154	18.544	849.146	639.839
321.168	18.617	848.553	639.609
322.183	18.703	847.872	639.361
323.197	18.765	847.454	639.219
324.212	18.910	846.690	639.127
325.227	18.760	846.275	638.198
326.241	18.748	845.713	637.676
327.256	18.801	844.797	637.123
328.270	18.666	844.292	636.187
329.285	18.673	843.779	635.767
330.300	18.571	843.189	634.890
331.314	18.831	842.830	635.525
332.329	18.959	842.153	635.432
333.343	18.882	842.067	635.028
334.358	18.971	841.701	635.021
335.373	18.831	841.353	634.189
336.387	18.982	840.975	634.403
337.402	19.018	840.858	634.391
338.416	19.171	840.547	634.664
339.431	19.224	840.256	634.583
340.446	19.382	839.689	634.681
341.460	19.335	839.150	634.043
342.475	19.326	838.789	633.684
343.489	19.372	838.442	633.534
344.504	19.532	837.738	633.534
345.519	19.541	837.471	633.308
346.533	19.390	836.894	632.262
347.548	19.244	836.312	631.231
348.562	19.115	836.020	630.483
349.577	19.098	835.340	629.852
350.592	19.192	834.006	629.132
351.606	19.112	833.490	628.398
352.621	19.205	832.965	628.284
353.635	19.214	832.485	627.898
354.650	19.260	831.337	627.147
355.665	19.311	830.916	626.959
356.679	19.310	830.692	626.731
357.694	19.182	830.518	626.079
358.708	19.290	829.557	625.692
359.723	19.323	828.889	625.252
360.738	19.319	828.093	624.579
361.752	19.208	827.717	623.838
362.767	19.433	827.476	624.417
363.781	19.649	826.608	624.488
364.796	19.607	826.403	624.128
365.810	19.685	826.376	624.332
366.825	19.853	825.701	624.373
367.840	19.789	825.051	623.597
368.854	19.739	824.569	622.995
369.869	19.607	823.975	622.017
370.883	19.715	823.610	622.076
371.898	19.825	823.150	622.067
372.913	19.834	822.911	621.866
373.927	19.740	822.116	620.870
374.942	19.848	821.673	620.868
375.956	20.043	821.235	621.184
376.971	20.072	820.728	620.850
377.986	20.019	820.901	620.735
379.000	19.907	820.153	619.711
380.015	20.018	819.451	619.524
381.029	19.937	819.128	618.934
382.044	20.012	818.725	618.844
383.059	20.224	817.763	618.819
384.073	19.960	817.001	617.246
385.088	19.816	816.408	616.231
386.102	19.827	815.922	615.848
387.117	19.877	815.470	615.632
388.132	19.689	814.959	614.521
389.146	19.893	814.107	614.549
390.161	19.897	814.084	614.492
391.175	20.071	813.213	614.398
392.190	19.892	813.433	613.876
393.205	19.721	812.467	612.486
394.219	19.827	812.252	612.645
395.234	19.884	811.552	612.265
396.248	19.820	811.129	611.664
397.263	19.604	810.605	610.453
398.278	19.677	810.497	610.576
399.292	19.693	810.026	610.223
400.307	19.567	809.494	609.322
401.321	19.743	808.708	609.296
402.336	19.938	808.121	609.486
403.350	19.840	807.896	608.921
404.365	20.037	807.816	609.500
405.380	20.038	807.320	609.076
406.394	20.181	806.991	609.274
407.409	20.152	806.371	608.649
408.423	20.154	806.562	608.749
409.438	20.380	805.618	608.774
410.453	20.259	805.618	608.295
411.467	20.522	804.681	608.456
412.482	20.575	804.387	608.364
413.496	20.573	804.038	608.041
414.511	20.658	803.617	607.966
415.526	20.530	803.124	607.091
416.540	20.402	802.552	606.157
417.555	20.441	802.393	606.122
418.569	20.416	801.873	605.589
419.584	20.596	801.576	605.937
420.599	20.641	800.900	605.529
421.613	162.040	1372.271	1795.941
422.628	140.715	1455.514	1796.033
