DTS Sentinel unit serial number:	SN413079Multiplexer serial number:	ORYXHardware model number:	OX4-SRSoftware version number:	ORYX F/W v4.00 Oryx Data Collector v3.7.2.0data status	okinstallation	princeton_trtdifferential loss correction	single-endedforward channel	channel 1reverse channel	N/Adate	2019/09/19time	02:46:35forward acquisition time	60.00reverse acquisition time	0.00gamma	496.2192k internal	0.2344k external	0.2344temperature offset calibration	1.0016default loss term (dB/km)	0.3790temperature slope calibration	1.0000multiplexer offset coefficient	1.0000multiplexer slope coefficient	1.0000fibre end	0.00T internal ref (°C)	20.92T ext. ref 1 (°C)	0.66T ext. ref 2 (°C)	14.60length (m)	temperature (°C)	Stokes	anti-Stokes-747.200	-7.438	-0.128	0.087
-746.185	-200.000	0.016	0.235
-745.171	-200.000	-0.064	0.290
-744.156	-200.000	-0.063	0.345
-743.142	507.077	-0.073	-0.168
-742.127	-100.047	-0.521	0.130
-741.112	800.000	-0.148	0.416
-740.098	-200.000	0.022	0.150
-739.083	-200.000	0.011	-0.107
-738.069	-55.832	-0.063	0.028
-737.054	-13.835	-0.253	-0.163
-736.039	-200.000	-0.025	-0.126
-735.025	237.561	-0.080	0.133
-734.010	800.000	-0.051	-0.160
-732.996	155.153	-0.322	0.443
-731.981	-53.849	0.240	-0.109
-730.966	800.000	-0.078	-0.255
-729.952	-60.194	-0.040	-0.017
-728.937	392.464	0.016	0.034
-727.923	-69.879	0.139	-0.053
-726.908	183.329	0.182	0.268
-725.894	-75.018	-0.089	-0.032
-724.879	-200.000	-0.017	-0.148
-723.864	800.000	0.032	-0.137
-722.850	2.178	0.040	-0.029
-721.835	-200.000	-0.045	0.250
-720.821	14.123	-0.258	-0.201
-719.806	-24.075	0.389	-0.232
-718.791	800.000	0.020	-0.058
-717.777	-2.569	-0.288	0.202
-716.762	286.232	0.108	-0.195
-715.748	-90.230	-0.356	-0.104
-714.733	120.202	0.047	-0.059
-713.718	-47.078	-0.099	-0.049
-712.704	-64.465	0.287	-0.116
-711.689	800.000	-0.045	0.163
-710.675	-53.152	0.196	-0.090
-709.660	800.000	-0.098	-0.390
-708.645	136.273	0.204	-0.266
-707.631	-38.412	-0.079	0.042
-706.616	-54.778	0.103	-0.046
-705.602	-200.000	0.045	0.256
-704.587	-200.000	-0.013	0.074
-703.572	1.616	0.225	0.162
-702.558	-20.170	-0.242	0.149
-701.543	-150.817	0.108	0.008
-700.529	104.257	0.099	-0.116
-699.514	-200.000	-0.029	-0.243
-698.499	65.272	-0.133	0.134
-697.485	-93.902	-0.073	0.020
-696.470	77.542	-0.276	-0.294
-695.456	301.947	0.063	0.117
-694.441	70.820	0.302	0.313
-693.426	-147.138	-0.174	0.015
-692.412	-68.322	-0.261	-0.101
-691.397	41.391	0.136	-0.123
-690.383	21.475	-0.142	-0.115
-689.368	-92.962	-0.029	-0.008
-688.354	106.882	0.095	0.113
-687.339	22.624	-0.279	0.228
-686.324	13.095	-0.088	-0.068
-685.310	720.524	-0.087	0.232
-684.295	274.515	-0.197	0.349
-683.281	27.733	-0.151	0.127
-682.266	170.673	0.028	-0.040
-681.251	-7.935	-0.203	0.137
-680.237	-55.457	-0.259	0.116
-679.222	-0.914	-0.008	0.005
-678.208	-107.020	-0.221	-0.049
-677.193	-161.082	-0.179	0.009
-676.178	-83.738	-0.266	0.085
-675.164	-200.000	0.024	0.237
-674.149	-42.667	0.140	0.071
-673.135	-200.000	-0.010	0.060
-672.120	800.000	-0.068	-0.213
-671.105	-200.000	-0.006	0.442
-670.091	800.000	0.083	0.255
-669.076	-120.948	-0.510	-0.086
-668.062	-200.000	0.057	-0.514
-667.047	96.233	-0.192	0.219
-666.032	-120.014	-0.179	0.031
-665.018	-24.007	0.113	-0.068
-664.003	598.830	-0.121	-0.300
-662.989	-82.817	0.166	-0.053
-661.974	-3.739	-0.168	-0.116
-660.959	3.082	-0.141	-0.102
-659.945	219.187	0.305	-0.487
-658.930	186.100	-0.312	-0.463
-657.916	800.000	0.053	0.195
-656.901	-200.000	-0.020	0.345
-655.886	331.095	0.045	-0.086
-654.872	-73.050	0.211	-0.077
-653.857	2.260	-0.271	0.196
-652.843	123.310	0.141	0.176
-651.828	-46.651	0.242	0.118
-650.814	16.180	0.051	-0.040
-649.799	-156.682	-0.145	0.009
-648.784	-132.668	-0.214	0.027
-647.770	-200.000	0.043	-0.405
-646.755	111.131	0.173	-0.208
-645.741	654.818	-0.026	-0.066
-644.726	326.833	-0.084	0.161
-643.711	-29.634	-0.109	0.062
-642.697	800.000	0.044	-0.176
-641.682	-200.000	-0.021	-0.105
-640.668	162.648	-0.134	-0.188
-639.653	-1.828	-0.047	-0.033
-638.638	-46.076	-0.136	0.067
-637.624	353.817	0.059	-0.118
-636.609	134.709	0.073	0.094
-635.595	548.126	-0.143	0.342
-634.580	-60.609	-0.298	0.126
-633.565	-131.522	-0.296	-0.039
-632.551	-96.864	0.097	-0.025
-631.536	800.000	-0.030	-0.097
-630.522	-52.162	-0.280	0.129
-629.507	800.000	0.044	-0.134
-628.492	-76.371	-0.421	-0.148
-627.478	-102.991	-0.256	-0.060
-626.463	336.647	0.082	0.160
-625.449	-200.000	0.010	-0.275
-624.434	800.000	-0.051	0.148
-623.419	-32.196	-0.259	-0.144
-622.405	49.563	-0.108	-0.102
-621.390	9.031	0.322	-0.242
-620.376	800.000	-0.048	-0.209
-619.361	460.110	-0.153	0.340
-618.346	-56.551	0.277	0.122
-617.332	54.711	0.201	-0.193
-616.317	-147.680	-0.027	-0.002
-615.303	85.151	0.083	0.091
-614.288	526.411	-0.106	-0.248
-613.273	75.336	0.323	-0.339
-612.259	96.914	-0.226	0.258
-611.244	102.926	-0.218	-0.254
-610.230	-93.563	-0.277	-0.076
-609.215	136.844	-0.113	0.147
-608.201	365.215	0.080	-0.161
-607.186	248.800	-0.076	-0.129
-606.171	196.626	0.111	0.168
-605.157	33.906	0.085	-0.073
-604.142	635.437	-0.143	-0.361
-603.128	800.000	0.076	-0.303
-602.113	-200.000	-0.002	-0.041
-601.098	-39.242	-0.239	0.125
-600.084	83.331	-0.098	-0.107
-599.069	158.442	-0.064	0.088
-598.055	412.529	0.050	0.106
-597.040	216.945	-0.052	0.082
-596.025	-103.677	0.246	-0.057
-595.011	455.392	-0.041	0.091
-593.996	34.469	0.106	-0.092
-592.982	-138.233	-0.149	-0.016
-591.967	-60.196	-0.142	-0.060
-590.952	-200.000	0.000	0.028
-589.938	-200.000	-0.043	-0.414
-588.923	-26.772	0.167	0.097
-587.909	-25.858	-0.104	-0.061
-586.894	59.829	0.068	-0.067
-585.879	245.031	-0.067	-0.111
-584.865	59.445	0.068	0.067
-583.850	-177.265	-0.096	0.002
-582.836	32.705	-0.241	-0.207
-581.821	75.350	-0.153	-0.160
-580.806	-200.000	0.045	-0.393
-579.792	-69.228	-0.172	0.066
-578.777	-78.890	0.147	0.050
-577.763	50.887	-0.163	-0.153
-576.748	382.414	0.080	-0.164
-575.733	252.857	0.137	-0.233
-574.719	330.625	-0.075	0.143
-573.704	38.115	-0.403	-0.357
-572.690	-120.901	0.200	-0.034
-571.675	345.578	-0.091	0.178
-570.661	-200.000	0.014	-0.079
-569.646	625.965	-0.020	0.051
-568.631	-12.605	0.327	0.212
-567.617	27.449	0.108	-0.090
-566.602	-200.000	-0.083	0.000
-565.588	-36.059	-0.224	0.120
-564.573	-200.000	-0.101	0.459
-563.558	784.775	0.055	-0.149
-562.544	800.000	0.041	-0.151
-561.529	3.492	-0.094	0.068
-560.515	467.767	-0.153	0.342
-559.500	-200.000	0.007	0.037
-558.485	-147.525	0.179	-0.015
-557.471	595.111	0.063	0.154
-556.456	70.235	-0.046	0.048
-555.442	169.125	-0.124	0.176
-554.427	-36.366	0.213	-0.114
-553.412	277.935	0.165	-0.292
-552.398	63.775	-0.208	0.208
-551.383	441.988	-0.150	0.326
-550.369	800.000	0.094	0.409
-549.354	-121.203	0.118	0.020
-548.339	-34.607	-0.215	-0.117
-547.325	-127.656	-0.140	-0.020
-546.310	130.433	0.196	-0.249
-545.296	-97.016	0.145	0.038
-544.281	-200.000	-0.033	0.148
-543.266	800.000	-0.105	0.302
-542.252	424.469	-0.015	0.031
-541.237	-58.278	0.137	0.059
-540.223	689.134	0.087	0.226
-539.208	707.354	0.116	-0.304
-538.193	-17.726	-0.117	0.073
-537.179	-148.440	-0.128	0.010
-536.164	-130.781	0.081	0.011
-535.150	-138.618	0.175	0.019
-534.135	-173.744	-0.196	0.006
-533.121	140.210	0.059	-0.077
-532.106	620.979	0.066	-0.165
-531.091	-200.000	-0.014	-0.094
-530.077	25.723	0.093	-0.077
-529.062	-119.727	0.264	-0.045
-528.048	14.005	-0.279	0.215
-527.033	-15.501	-0.054	-0.034
-526.018	-8.611	-0.247	-0.165
-525.004	-196.258	0.325	-0.002
-523.989	247.253	0.175	0.293
-522.975	-200.000	-0.010	0.063
-521.960	82.972	-0.180	0.195
-520.945	96.824	0.330	-0.375
-519.931	-107.872	0.115	-0.025
-518.916	596.390	0.035	-0.085
-517.902	101.244	-0.113	0.131
-516.887	800.000	-0.029	-0.111
-515.872	-52.036	0.307	0.141
-514.858	55.225	-0.077	0.074
-513.843	-27.770	0.199	0.115
-512.829	-112.000	0.169	0.034
-511.814	800.000	0.050	-0.154
-510.799	-57.934	0.064	-0.028
-509.785	-105.816	0.183	-0.041
-508.770	12.384	-0.259	-0.198
-507.756	-6.072	0.048	0.033
-506.741	149.690	0.102	-0.137
-505.726	-165.149	-0.057	-0.003
-504.712	99.907	-0.015	-0.017
-503.697	800.000	-0.098	-0.297
-502.683	27.524	0.173	-0.144
-501.668	-166.201	0.067	0.003
-500.653	58.320	0.232	-0.226
-499.639	-111.346	-0.148	0.030
-498.624	143.153	-0.073	-0.096
-497.610	24.559	-0.082	-0.068
-496.595	-23.813	-0.144	0.085
-495.581	-200.000	-0.353	-0.001
-494.566	-27.038	-0.324	0.187
-493.551	800.000	0.121	0.386
-492.537	300.776	-0.094	0.171
-491.522	800.000	-0.022	0.064
-490.508	-104.800	-0.089	0.020
-489.493	800.000	-0.077	-0.222
-488.478	-65.718	-0.231	0.092
-487.464	800.000	-0.101	0.428
-486.449	-200.000	-0.011	0.291
-485.435	-99.114	-0.293	0.073
-484.420	-145.651	0.149	-0.013
-483.405	0.708	0.215	0.152
-482.391	47.409	-0.192	0.177
-481.376	-200.000	0.003	-0.404
-480.362	165.269	-0.092	0.128
-479.347	800.000	0.100	-0.339
-478.332	-113.047	-0.309	-0.060
-477.318	-115.783	0.202	-0.037
-476.303	-200.000	-0.010	0.177
-475.289	-124.040	-0.173	-0.027
-474.274	21.357	-0.562	0.452
-473.259	-133.512	-0.214	-0.027
-472.245	-58.041	0.334	0.144
-471.230	-200.000	0.039	0.346
-470.216	-62.387	0.111	0.046
-469.201	63.655	0.031	-0.031
-468.186	-100.812	-0.196	0.048
-467.172	108.917	0.111	0.131
-466.157	0.929	0.321	-0.228
-465.143	-133.984	-0.536	0.066
-464.128	-70.064	0.393	-0.148
-463.113	-33.849	-0.202	0.110
-462.099	-123.993	0.203	-0.032
-461.084	-200.000	0.014	0.308
-460.070	381.008	0.141	-0.287
-459.055	-168.869	-0.151	-0.006
-458.040	800.000	-0.118	0.372
-457.026	784.187	0.013	0.035
-456.011	800.000	0.056	0.179
-454.997	800.000	-0.100	-0.316
-453.982	-200.000	-0.002	0.147
-452.968	800.000	0.042	0.152
-451.953	-200.000	-0.027	0.171
-450.938	-26.275	0.291	0.169
-449.924	-173.644	-0.105	-0.003
-448.909	149.920	-0.050	-0.068
-447.895	800.000	0.014	0.057
-446.880	464.552	0.164	0.363
-445.865	-30.487	-0.149	-0.084
-444.851	56.961	-0.086	-0.083
-443.836	16.453	0.170	-0.133
-442.822	-125.014	-0.098	0.015
-441.807	-24.030	-0.246	0.145
-440.792	-137.323	-0.238	-0.027
-439.778	-200.000	0.036	-0.223
-438.763	-33.128	-0.027	0.015
-437.749	-88.084	-0.338	0.100
-436.734	81.291	-0.158	-0.169
-435.719	-83.423	0.179	0.057
-434.705	46.039	0.160	0.146
-433.690	235.541	-0.133	0.218
-432.676	-200.000	-0.015	-0.224
-431.661	-27.805	-0.054	0.031
-430.646	81.944	0.284	0.304
-429.632	-200.000	0.004	0.336
-428.617	107.253	-0.218	-0.256
-427.603	-56.727	-0.230	-0.101
-426.588	-44.224	-0.225	-0.112
-425.573	-200.000	0.001	-0.145
-424.559	716.245	-0.183	-0.479
-423.544	205.517	-0.079	0.121
-422.530	200.620	0.231	-0.351
-421.515	740.277	0.074	0.197
-420.500	-75.559	0.563	0.198
-419.486	-63.809	-0.265	-0.107
-418.471	116.710	0.022	0.027
-417.457	207.965	-0.029	0.045
-416.442	-16.068	0.179	-0.112
-415.428	21.501	0.243	0.195
-414.413	-41.069	0.164	-0.084
-413.398	-131.647	-0.229	0.030
-412.384	220.678	0.063	-0.100
-411.369	82.613	-0.400	-0.429
-410.355	-98.308	-0.241	-0.061
-409.340	673.971	-0.058	0.148
-408.325	86.643	0.311	0.338
-407.311	-193.168	0.322	0.003
-406.296	-200.000	0.008	-0.152
-405.282	735.481	0.120	-0.318
-404.267	-200.000	-0.025	-0.146
-403.252	1.474	-0.075	-0.053
-402.238	-21.191	-0.100	0.060
-401.223	-200.000	0.067	0.306
-400.209	-92.621	-0.064	0.018
-399.194	65.669	0.219	0.219
-398.179	-58.212	0.087	0.037
-397.165	375.658	0.073	-0.148
-396.150	800.000	0.055	0.199
-395.136	-37.767	0.112	0.059
-394.121	566.369	0.041	0.098
-393.106	-134.188	-0.243	-0.030
-392.092	-72.993	-0.086	-0.031
-391.077	-200.000	0.001	-0.044
-390.063	-98.931	-0.174	-0.044
-389.048	319.566	-0.129	0.241
-388.033	-72.280	0.322	-0.118
-387.019	-200.000	0.024	0.238
-386.004	291.560	0.045	0.080
-384.990	-200.000	-0.007	-0.064
-383.975	-43.122	-0.278	0.139
-382.960	-52.901	-0.057	0.026
-381.946	-49.417	0.240	0.113
-380.931	180.708	0.123	0.178
-379.917	10.100	-0.111	0.084
-378.902	-120.870	-0.282	-0.047
-377.888	144.734	0.165	0.217
-376.873	-200.000	-0.072	-0.484
-375.858	67.877	-0.152	-0.154
-374.844	-102.279	-0.230	0.054
-373.829	281.697	0.186	-0.328
-372.815	72.785	-0.213	-0.219
-371.800	-114.015	0.225	0.043
-370.785	80.612	-0.261	-0.277
-369.771	-5.419	-0.162	0.110
-368.756	60.111	-0.292	0.285
-367.742	375.182	0.129	0.259
-366.727	-28.412	0.198	0.113
-365.712	800.000	-0.088	-0.286
-364.698	38.085	-0.052	-0.046
-363.683	147.933	-0.063	-0.084
-362.669	-46.772	0.190	0.092
-361.654	569.481	-0.072	0.172
-360.639	-76.541	-0.117	0.041
-359.625	-64.369	0.212	0.085
-358.610	283.460	-0.111	0.196
-357.596	345.120	0.019	-0.037
-356.581	-60.663	-0.280	-0.117
-355.566	9.228	-0.143	-0.107
-354.552	-98.769	0.331	0.083
-353.537	71.473	0.266	0.272
-352.523	800.000	-0.074	0.283
-351.508	-76.818	-0.060	-0.021
-350.493	501.211	0.150	-0.342
-349.479	137.834	-0.042	0.055
-348.464	-103.031	0.201	-0.047
-347.450	246.106	-0.028	-0.046
-346.435	-200.000	0.012	0.218
-345.420	3.746	0.158	-0.114
-344.406	184.546	0.111	-0.163
-343.391	36.671	0.045	0.039
-342.377	800.000	-0.101	-0.342
-341.362	-169.096	0.194	-0.007
-340.348	281.796	-0.064	-0.114
-339.333	-105.478	0.159	-0.036
-338.318	45.807	0.154	-0.141
-337.304	134.037	-0.146	-0.187
-336.289	478.775	0.029	0.064
-335.275	92.443	0.201	-0.223
-334.260	-176.216	-0.299	-0.008
-333.245	30.159	0.239	-0.201
-332.231	-200.000	-0.003	-0.147
-331.216	-143.033	-0.271	0.026
-330.202	-184.134	0.326	0.005
-329.187	208.347	0.132	-0.204
-328.172	43.177	0.061	-0.055
-327.158	800.000	0.050	0.214
-326.143	441.206	-0.019	0.040
-325.129	800.000	-0.022	0.059
-324.114	-154.574	-0.215	-0.014
-323.099	121.098	-0.194	-0.238
-322.085	742.447	0.073	0.194
-321.070	92.564	0.091	0.101
-320.056	-87.798	0.316	-0.094
-319.041	-63.290	0.176	0.071
-318.026	-21.545	0.226	-0.135
-317.012	-85.792	0.305	0.093
-315.997	-90.063	0.124	0.036
-314.983	-131.066	-0.438	0.057
-313.968	-40.886	-0.321	-0.163
-312.953	-86.087	-0.186	0.056
-311.939	6.965	0.239	0.175
-310.924	73.251	0.085	-0.088
-309.910	124.027	0.038	-0.047
-308.895	800.000	-0.026	-0.087
-307.880	-200.000	-0.019	-0.168
-306.866	-200.000	-0.039	0.194
-305.851	34.151	0.196	0.168
-304.837	800.000	-0.031	-0.116
-303.822	-83.896	0.355	0.111
-302.807	-147.144	-0.329	-0.028
-301.793	-113.672	0.286	0.055
-300.778	201.783	0.127	-0.192
-299.764	-110.331	0.462	0.095
-298.749	-34.483	-0.225	-0.121
-297.735	8.361	-0.127	-0.094
-296.720	-131.910	0.187	-0.024
-295.705	33.181	0.044	0.038
-294.691	-2.568	0.139	-0.096
-293.676	73.313	-0.137	0.141
-292.662	800.000	0.038	0.147
-291.647	86.762	0.035	0.038
-290.632	73.074	-0.130	0.133
-289.618	-54.076	0.299	0.134
-288.603	289.579	-0.078	-0.139
-287.589	-89.144	0.281	0.082
-286.574	-200.000	-0.050	0.227
-285.559	-70.508	-0.328	0.122
-284.545	374.137	-0.182	0.364
-283.530	-146.030	-0.142	-0.012
-282.516	-62.556	-0.250	-0.102
-281.501	167.618	-0.076	0.106
-280.486	-200.000	0.003	-0.371
-279.472	-42.227	-0.089	-0.045
-278.457	59.267	-0.180	-0.174
-277.443	16.475	-0.102	0.079
-276.428	-50.382	0.226	0.105
-275.413	-200.000	0.017	0.197
-274.399	472.264	0.158	0.350
-273.384	-190.253	0.411	-0.004
-272.370	-148.815	-0.388	0.031
-271.355	-93.181	-0.054	0.015
-270.340	-200.000	0.018	-0.239
-269.326	800.000	0.053	-0.155
-268.311	184.270	-0.098	-0.142
-267.297	-103.200	-0.238	-0.055
-266.282	-27.079	-0.280	0.160
-265.267	53.014	-0.036	0.033
-264.253	-160.207	-0.187	0.010
-263.238	118.633	0.244	0.296
-262.224	-147.152	0.087	0.007
-261.209	-200.000	-0.024	0.220
-260.195	800.000	-0.070	-0.296
-259.180	204.802	-0.213	-0.325
-258.165	-200.000	0.047	-0.298
-257.151	-115.910	0.142	-0.026
-256.136	-52.801	-0.192	-0.087
-255.122	-97.781	0.263	0.067
-254.107	19.658	0.121	0.096
-253.092	148.337	0.193	-0.255
-252.078	33.222	-0.325	0.277
-251.063	-92.429	-0.172	-0.048
-250.049	800.000	0.037	-0.118
-249.034	-10.275	0.127	0.083
-248.019	-200.000	-0.006	0.188
-247.005	787.049	0.100	-0.268
-245.990	421.076	0.005	0.011
-244.976	800.000	-0.079	0.267
-243.961	-115.338	0.151	0.028
-242.946	124.326	0.105	-0.129
-241.932	-200.000	-0.058	0.250
-240.917	76.769	0.224	0.233
-239.903	17.836	-0.141	-0.110
-238.888	88.136	0.149	-0.163
-237.873	-57.232	0.611	-0.264
-236.859	-118.943	-0.220	0.038
-235.844	-139.375	-0.302	0.032
-234.830	-119.152	0.233	0.040
-233.815	-13.414	-0.419	0.267
-232.800	20.092	-0.213	-0.169
-231.786	192.431	0.154	0.228
-230.771	535.637	0.061	0.141
-229.757	353.773	-0.056	0.109
-228.742	49.610	0.153	-0.141
-227.727	800.000	-0.056	0.200
-226.713	197.899	0.344	-0.516
-225.698	75.839	-0.190	-0.197
-224.684	13.683	0.126	0.096
-223.669	-200.000	0.039	0.205
-222.655	-114.716	-0.356	-0.067
-221.640	-53.974	-0.172	0.077
-220.625	-200.000	0.029	-0.146
-219.611	502.180	-0.087	-0.197
-218.596	-137.845	-0.124	-0.014
-217.582	-99.554	0.220	-0.054
-216.567	1.042	-0.109	-0.076
-215.552	-200.000	0.020	-0.202
-214.538	105.179	0.139	-0.161
-213.523	-200.000	0.011	-0.138
-212.509	44.348	0.222	0.200
-211.494	-38.427	0.414	-0.215
-210.479	331.221	0.070	-0.133
-209.465	23.696	-0.311	0.251
-208.450	-47.977	0.405	-0.192
-207.436	275.257	-0.080	0.138
-206.421	14.456	0.103	-0.078
-205.406	147.903	0.122	0.161
-204.392	238.189	0.126	0.205
-203.377	-127.931	0.123	-0.017
-202.363	137.563	-0.152	0.194
-201.348	555.478	-0.056	0.133
-200.333	-200.000	-0.041	-0.365
-199.319	-62.767	-0.116	-0.047
-198.304	470.390	-0.050	-0.110
-197.290	-3.513	0.156	0.106
-196.275	-96.896	0.212	-0.055
-195.260	-10.925	0.161	-0.104
-194.246	-200.000	-0.004	0.126
-193.231	93.841	0.117	-0.130
-192.217	229.406	0.296	-0.474
-191.202	438.700	0.129	-0.276
-190.187	-104.439	-0.409	0.093
-189.173	-31.559	-0.201	0.111
-188.158	-200.000	-0.058	0.305
-187.144	85.813	0.158	-0.170
-186.129	-148.055	-0.245	0.020
-185.114	71.630	0.238	-0.242
-184.100	-97.418	0.305	-0.078
-183.085	79.666	0.162	0.171
-182.071	61.824	-0.290	-0.283
-181.056	47.871	-0.022	-0.020
-180.042	-111.347	-0.177	-0.035
-179.027	359.595	0.022	-0.044
-178.012	18.040	0.187	0.146
-176.998	-71.215	0.267	0.098
-175.983	-104.066	0.294	0.067
-174.969	800.000	-0.065	0.176
-173.954	-200.000	0.004	0.293
-172.939	788.733	0.102	0.274
-171.925	70.594	-0.259	0.262
-170.910	800.000	-0.026	-0.084
-169.896	-200.000	0.001	0.085
-168.881	-154.645	0.449	0.029
-167.866	-200.000	0.008	-0.077
-166.852	-15.976	0.126	-0.079
-165.837	62.996	0.085	0.083
-164.823	349.761	0.135	0.262
-163.808	156.146	0.192	0.259
-162.793	323.463	0.076	-0.141
-161.779	-86.650	0.158	0.047
-160.764	-200.000	0.005	-0.059
-159.750	85.363	-0.228	0.245
-158.735	-111.756	-0.345	0.068
-157.720	-200.000	0.013	0.196
-156.706	123.214	0.169	0.207
-155.691	-164.298	0.321	0.014
-154.677	59.658	0.174	-0.168
-153.662	-131.139	-0.117	-0.015
-152.647	-113.984	0.143	0.027
-151.633	1.117	0.063	0.044
-150.618	-83.849	-0.224	0.070
-149.604	30.525	-0.236	0.197
-148.589	800.000	-0.055	-0.149
-147.574	-0.572	-0.244	-0.170
-146.560	-113.176	-0.091	0.018
-145.545	183.725	-0.216	-0.312
-144.531	-44.367	0.115	0.056
-143.516	-200.000	-0.006	0.322
-142.502	-96.953	-0.130	-0.033
-141.487	-25.545	0.326	0.188
-140.472	800.000	-0.053	0.147
-139.458	266.852	-0.084	-0.143
-138.443	40.935	-0.214	0.189
-137.429	-66.827	-0.174	0.067
-136.414	-200.000	-0.049	-0.213
-135.399	174.209	0.217	-0.307
-134.385	-91.559	-0.116	-0.032
-133.370	-28.091	-0.101	-0.057
-132.356	-89.554	0.449	-0.129
-131.341	-200.000	0.011	-0.217
-130.326	332.795	0.274	0.517
-129.312	-121.402	0.154	-0.025
-128.297	69.484	-0.055	0.055
-127.283	-102.880	-0.143	-0.033
-126.268	162.557	0.113	-0.155
-125.253	-25.752	0.119	0.068
-124.239	-200.000	0.010	-0.091
-123.224	-27.858	-0.025	0.014
-122.210	-135.184	0.287	0.034
-121.195	-200.000	-0.032	-0.513
-120.180	-96.244	0.152	-0.039
-119.166	-9.980	0.201	0.131
-118.151	-200.000	0.053	0.345
-117.137	-87.730	-0.095	0.028
-116.122	-178.579	-0.218	0.005
-115.107	18.910	0.346	-0.270
-114.093	61.961	-0.122	-0.118
-113.078	19.008	-0.215	0.168
-112.064	5.629	0.193	0.139
-111.049	-200.000	0.054	0.274
-110.034	-189.249	0.436	-0.005
-109.020	-13.826	0.065	-0.041
-108.005	41.469	0.058	-0.051
-106.991	-200.000	0.039	0.323
-105.976	-57.162	0.171	0.073
-104.962	-87.802	0.027	0.008
-103.947	268.352	0.071	0.122
-102.932	-80.893	-0.311	-0.101
-101.918	252.465	-0.008	-0.013
-100.903	-200.000	-0.065	0.442
-99.889	-72.141	-0.272	-0.099
-98.874	-200.000	-0.004	0.090
-97.859	-200.000	0.005	-0.326
-96.845	-100.378	-0.337	0.081
-95.830	165.499	0.067	-0.092
-94.816	-200.000	0.022	0.129
-93.801	43.292	0.269	-0.239
-92.786	-40.659	-0.123	0.062
-91.772	-24.140	0.330	-0.192
-90.757	800.000	0.074	0.267
-89.743	219.370	-0.125	0.195
-88.728	-118.968	-0.443	0.076
-87.713	800.000	0.062	0.245
-86.699	-53.254	0.158	-0.071
-85.684	-125.080	-0.392	-0.059
-84.670	143.169	0.199	0.258
-83.655	-200.000	-0.014	-0.118
-82.640	-200.000	0.013	0.112
-81.626	172.384	-0.291	0.408
-80.611	-200.000	-0.007	-0.186
-79.597	800.000	0.130	-0.394
-78.582	-88.550	0.285	-0.083
-77.567	268.443	0.051	0.087
-76.553	-200.000	0.037	0.244
-75.538	-65.769	-0.223	0.087
-74.524	118.098	0.153	-0.184
-73.509	-107.050	0.259	0.056
-72.494	-133.029	-0.306	0.038
-71.480	244.068	-0.107	0.175
-70.465	-115.990	0.228	0.041
-69.451	-200.000	0.017	0.325
-68.436	-200.000	-0.004	-0.031
-67.422	-103.583	-0.183	-0.042
-66.407	-150.500	0.469	0.035
-65.392	-141.703	-0.364	0.036
-64.378	169.760	-0.093	0.129
-63.363	800.000	0.112	0.369
-62.349	-200.000	0.046	0.335
-61.334	111.817	-1.096	-1.290
-60.319	80.052	0.639	0.669
-59.305	361.063	-0.692	-1.351
-58.290	319.799	0.787	1.455
-57.276	800.000	0.459	1.575
-56.261	-200.000	135.348	682.197
-55.246	338.179	1678.295	3181.667
-54.232	134.036	2803.682	3538.034
-53.217	87.371	2172.168	2341.017
-52.203	32.008	1602.457	1345.341
-51.188	24.114	1351.754	1086.857
-50.173	21.926	1315.469	1044.626
-49.159	49.698	1389.320	1274.947
-48.144	45.884	1398.672	1260.107
-47.130	24.320	1345.661	1083.035
-46.115	21.096	1326.436	1048.186
-45.100	20.780	1321.519	1042.367
-44.086	20.801	1318.484	1040.059
-43.071	20.715	1316.261	1037.751
-42.057	20.803	1313.987	1036.438
-41.042	20.724	1312.642	1034.870
-40.027	20.817	1310.895	1034.003
-39.013	20.808	1309.311	1032.659
-37.998	20.841	1308.209	1031.942
-36.984	20.948	1305.737	1030.584
-35.969	20.886	1304.104	1028.890
-34.954	20.858	1302.477	1027.402
-33.940	20.944	1300.984	1026.690
-32.925	20.941	1299.482	1025.447
-31.911	20.894	1298.567	1024.404
-30.896	20.968	1296.864	1023.458
-29.881	21.041	1295.437	1022.718
-28.867	21.100	1293.802	1021.730
-27.852	21.121	1292.644	1020.897
-26.838	21.092	1291.481	1019.772
-25.823	21.001	1290.268	1018.239
-24.809	20.931	1288.783	1016.622
-23.794	21.032	1287.398	1016.078
-22.779	21.035	1286.245	1015.143
-21.765	20.992	1285.112	1013.958
-20.750	20.965	1283.677	1012.628
-19.736	20.978	1282.410	1011.667
-18.721	20.912	1281.115	1010.220
-17.706	20.856	1280.376	1009.270
-16.692	20.942	1279.367	1008.937
-15.677	20.889	1277.830	1007.375
-14.663	20.883	1276.871	1006.547
-13.648	20.811	1276.020	1005.422
-12.633	20.875	1274.620	1004.645
-11.619	20.867	1274.179	1004.213
-10.604	20.891	1273.057	1003.426
-9.590	20.919	1272.277	1002.934
-8.575	20.833	1271.469	1001.760
-7.560	20.751	1271.092	1000.953
-6.546	20.924	1269.454	1000.618
-5.531	20.827	1268.863	999.553
-4.517	20.831	1268.520	999.270
-3.502	20.872	1267.310	998.507
-2.487	20.711	1267.024	997.323
-1.473	20.792	1261.715	993.565
-0.458	19.144	1246.468	972.221
0.556	14.686	1231.409	935.469
1.571	11.337	1239.290	922.463
2.586	10.735	1255.200	930.772
3.600	10.877	1242.841	922.334
4.615	8.194	1171.173	854.709
5.629	3.130	1101.568	778.270
6.644	0.906	1085.091	755.470
7.659	0.605	1084.029	753.164
8.673	0.623	1082.958	752.443
9.688	0.506	1081.306	750.644
10.702	0.643	1079.307	749.872
11.717	3.906	1082.596	768.316
12.731	10.334	1091.094	806.372
13.746	15.540	1097.719	837.212
14.761	17.203	1099.132	846.503
15.775	16.534	1097.704	842.003
16.790	15.452	1096.130	835.336
17.804	14.721	1094.875	830.671
18.819	14.493	1093.415	828.359
19.834	14.287	1092.262	826.391
20.848	14.137	1091.296	824.844
21.863	13.731	1090.539	822.185
22.877	13.620	1089.474	820.760
23.892	13.570	1089.070	820.136
24.907	13.622	1088.705	820.042
25.921	13.649	1087.283	819.032
26.936	13.764	1086.378	818.848
27.950	13.589	1086.071	817.678
28.965	13.839	1084.473	817.639
29.980	13.835	1083.038	816.465
30.994	13.743	1082.397	815.456
32.009	13.888	1080.969	815.017
33.023	13.887	1080.367	814.487
34.038	13.857	1079.190	813.384
35.053	13.800	1078.845	812.772
36.067	13.775	1077.525	811.582
37.082	13.864	1076.716	811.337
38.096	13.796	1076.040	810.423
39.111	13.747	1075.637	809.809
40.126	13.758	1074.439	808.885
41.140	13.771	1072.713	807.578
42.155	13.694	1071.380	806.130
43.169	13.644	1070.633	805.254
44.184	13.724	1069.612	804.805
45.199	13.643	1068.596	803.575
46.213	13.619	1067.488	802.557
47.228	13.639	1066.762	802.032
48.242	13.685	1065.176	800.992
49.257	13.748	1064.332	800.593
50.271	13.815	1063.373	800.122
51.286	13.712	1063.127	799.371
52.301	13.815	1061.735	798.749
53.315	13.787	1060.509	797.623
54.330	13.726	1059.628	796.595
55.344	13.680	1058.975	795.812
56.359	13.741	1058.175	795.435
57.374	13.741	1057.226	794.650
58.388	13.722	1056.197	793.717
59.403	13.635	1055.787	792.924
60.417	13.574	1054.949	791.932
61.432	13.543	1053.995	790.996
62.447	13.482	1053.123	789.982
63.461	13.644	1051.843	789.723
64.476	13.584	1051.491	789.104
65.490	13.510	1050.615	788.021
66.505	13.568	1049.616	787.481
67.520	13.698	1048.876	787.472
68.534	13.610	1048.213	786.487
69.549	13.611	1047.253	785.700
70.563	13.580	1046.586	784.985
71.578	13.480	1045.940	783.958
72.593	13.508	1045.307	783.547
73.607	13.478	1044.585	782.793
74.622	13.507	1043.999	782.425
75.636	13.569	1043.029	781.917
76.651	13.569	1042.521	781.472
77.666	13.665	1041.681	781.222
78.680	13.544	1041.207	780.226
79.695	13.647	1040.365	780.014
80.709	13.624	1039.758	779.378
81.724	13.605	1039.059	778.700
82.739	13.803	1038.127	778.862
83.753	13.723	1037.912	778.254
84.768	13.717	1036.722	777.264
85.782	13.840	1035.433	776.807
86.797	13.773	1034.810	775.955
87.812	13.785	1033.721	775.130
88.826	13.810	1032.905	774.566
89.841	13.814	1031.680	773.596
90.855	13.764	1030.879	772.693
91.870	13.727	1029.998	771.792
92.884	13.793	1029.257	771.475
93.899	13.866	1028.533	771.202
94.914	13.905	1027.211	770.326
95.928	13.869	1026.653	769.673
96.943	13.841	1025.734	768.787
97.957	13.775	1025.298	768.085
98.972	13.900	1023.994	767.616
99.987	13.745	1023.362	766.359
101.001	13.742	1022.407	765.562
102.016	13.811	1021.658	765.252
103.030	13.911	1020.647	764.887
104.045	13.842	1019.767	763.845
105.060	13.812	1018.953	763.029
106.074	13.676	1018.413	761.932
107.089	13.719	1016.774	760.835
108.103	13.811	1015.713	760.397
109.118	13.662	1015.308	759.343
110.133	13.705	1014.423	758.812
111.147	13.735	1013.322	758.057
112.162	13.686	1012.719	757.316
113.176	13.800	1011.817	757.092
114.191	13.855	1011.150	756.778
115.206	13.806	1010.189	755.768
116.220	13.809	1009.470	755.177
117.235	13.771	1008.732	754.385
118.249	13.861	1007.762	754.004
119.264	13.803	1007.284	753.317
120.279	13.820	1006.607	752.821
121.293	13.786	1005.622	751.863
122.308	13.742	1004.669	750.887
123.322	13.755	1003.851	750.265
124.337	13.756	1002.156	748.936
125.352	13.662	1001.321	747.824
126.366	13.692	1000.379	747.190
127.381	13.776	998.797	746.317
128.395	13.757	998.196	745.716
129.410	13.821	997.064	745.094
130.424	13.789	996.172	744.216
131.439	13.692	995.728	743.386
132.454	13.739	995.164	743.109
133.468	13.775	994.632	742.809
134.483	13.717	993.282	741.472
135.497	13.845	992.562	741.443
136.512	13.765	991.774	740.431
137.527	13.758	991.108	739.836
138.541	13.778	989.828	738.905
139.556	13.861	989.098	738.666
140.570	13.795	988.395	737.781
141.585	13.927	987.713	737.794
142.600	13.894	986.829	736.921
143.614	14.027	985.271	736.281
144.629	13.951	985.085	735.739
145.643	13.928	984.134	734.862
146.658	13.812	983.181	733.573
147.673	13.882	981.909	732.868
148.687	13.945	981.181	732.538
149.702	13.911	980.455	731.780
150.716	13.779	979.958	730.766
151.731	13.927	978.559	730.308
152.746	13.999	977.978	730.126
153.760	13.964	977.523	729.567
154.775	14.129	976.996	729.833
155.789	14.131	976.058	729.078
156.804	14.095	975.449	728.401
157.819	13.996	974.846	727.454
158.833	14.057	974.357	727.290
159.848	14.142	973.167	726.710
160.862	14.052	972.431	725.701
161.877	14.179	971.223	725.291
162.892	13.996	970.404	723.818
163.906	14.085	969.291	723.309
164.921	14.121	968.209	722.593
165.935	14.023	967.792	721.794
166.950	14.044	966.897	721.155
167.964	14.010	966.398	720.569
168.979	14.119	965.217	720.099
169.994	14.076	964.454	719.279
171.008	14.200	963.904	719.342
172.023	14.252	963.006	718.831
173.037	14.187	962.358	718.006
174.052	14.252	961.585	717.646
175.067	14.203	960.984	716.920
176.081	14.173	960.337	716.244
177.096	14.335	959.731	716.427
178.110	14.170	959.347	715.367
179.125	14.288	958.569	715.233
180.140	14.180	958.297	714.502
181.154	14.317	957.384	714.346
182.169	14.334	957.112	714.153
183.183	14.391	956.250	713.692
184.198	14.356	955.422	712.858
185.213	14.448	954.481	712.488
186.227	14.368	954.035	711.749
187.242	14.387	953.399	711.295
188.256	14.408	952.736	710.824
189.271	14.507	951.565	710.310
190.286	14.354	951.065	709.224
191.300	14.298	950.515	708.513
192.315	14.226	950.259	707.954
193.329	14.305	949.939	707.985
194.344	14.382	948.576	707.236
195.359	14.440	948.269	707.190
196.373	14.463	947.242	706.460
197.388	14.467	947.263	706.430
198.402	14.606	946.123	706.104
199.417	14.650	945.569	705.813
200.432	14.572	945.286	705.212
201.446	14.702	944.761	705.308
202.461	14.678	944.188	704.714
203.475	14.627	943.656	704.041
204.490	14.673	942.578	703.366
205.504	14.711	941.781	702.872
206.519	14.657	941.233	702.173
207.534	14.584	940.824	701.500
208.548	14.697	939.866	701.197
209.563	14.750	938.960	700.681
210.577	14.784	938.174	700.176
211.592	14.853	937.724	700.064
212.607	14.780	936.993	699.153
213.621	14.798	936.336	698.677
214.636	14.709	935.585	697.681
215.650	14.852	934.702	697.559
216.665	14.898	934.249	697.351
217.680	14.802	933.794	696.549
218.694	14.812	933.122	696.030
219.709	14.864	932.360	695.614
220.723	14.842	931.686	694.957
221.738	14.902	930.634	694.361
222.753	14.834	930.421	693.860
223.767	14.910	929.816	693.661
224.782	14.879	929.535	693.263
225.796	14.990	928.646	692.998
226.811	15.098	927.545	692.562
227.826	15.022	927.102	691.855
228.840	14.879	926.310	690.612
229.855	15.042	925.320	690.486
230.869	14.996	924.785	689.835
231.884	15.058	924.042	689.475
232.899	14.954	923.552	688.621
233.913	15.032	922.752	688.283
234.928	14.937	921.635	687.001
235.942	14.943	921.358	686.757
236.957	14.962	920.961	686.478
237.972	15.057	920.043	686.124
238.986	14.918	919.535	685.112
240.001	14.871	918.909	684.394
241.015	15.073	918.249	684.667
242.030	15.190	917.249	684.341
243.045	15.090	917.000	683.684
244.059	15.163	916.238	683.355
245.074	15.279	915.710	683.372
246.088	15.096	914.980	682.022
247.103	15.232	914.067	681.834
248.117	15.281	913.719	681.713
249.132	15.249	913.214	681.146
250.147	15.227	912.734	680.639
251.161	15.372	911.978	680.604
252.176	15.378	911.305	680.068
253.190	15.491	910.672	679.992
254.205	15.489	910.072	679.473
255.220	15.444	909.006	678.439
256.234	15.362	909.258	678.234
257.249	15.410	908.090	677.496
258.263	15.553	907.171	677.325
259.278	15.542	906.615	676.807
260.293	15.653	905.993	676.732
261.307	15.567	905.550	675.992
262.322	15.627	904.567	675.442
263.336	15.626	903.981	674.939
264.351	15.717	903.056	674.556
265.366	15.733	902.568	674.194
266.380	15.650	902.377	673.658
267.395	15.738	901.381	673.210
268.409	15.670	900.371	672.121
269.424	15.725	899.745	671.816
270.439	15.660	899.436	671.264
271.453	15.688	898.324	670.488
272.468	15.645	898.345	670.272
273.482	15.643	897.405	669.504
274.497	15.679	896.969	669.261
275.512	15.736	896.446	669.040
276.526	15.884	895.906	669.166
277.541	15.778	895.523	668.400
278.555	15.754	894.950	667.817
279.570	15.945	893.703	667.586
280.585	15.913	892.853	666.764
281.599	15.897	892.167	666.131
282.614	15.961	891.710	665.983
283.628	15.914	891.168	665.335
284.643	15.777	890.748	664.419
285.657	16.113	889.719	664.921
286.672	16.089	889.078	664.287
287.687	15.988	888.531	663.421
288.701	15.888	888.115	662.657
289.716	16.020	887.439	662.616
290.730	16.083	886.714	662.261
291.745	16.050	885.833	661.418
292.760	15.992	885.884	661.167
293.774	16.151	884.704	660.854
294.789	16.286	883.732	660.598
295.803	16.285	883.042	660.019
296.818	16.085	882.361	658.667
297.833	16.174	881.806	658.542
298.847	16.179	881.227	658.075
299.862	16.174	881.155	657.941
300.876	16.240	880.241	657.457
301.891	16.149	879.910	656.798
302.906	16.195	879.411	656.547
303.920	16.367	878.739	656.657
304.935	16.324	877.913	655.811
305.949	16.451	876.936	655.520
306.964	16.343	876.734	654.888
307.979	16.287	876.084	654.128
308.993	16.391	875.315	653.900
310.008	16.410	874.760	653.499
311.022	16.390	874.263	652.995
312.037	16.435	873.782	652.753
313.052	16.322	873.565	652.097
314.066	16.120	873.434	651.159
315.081	16.377	872.409	651.327
316.095	16.284	872.138	650.711
317.110	16.333	871.107	650.071
318.125	16.281	870.617	649.449
319.139	16.374	870.100	649.366
320.154	16.349	869.480	648.746
321.168	16.379	868.965	648.421
322.183	16.351	868.166	647.658
323.197	16.498	867.840	647.924
324.212	16.540	866.652	647.140
325.227	16.553	866.333	646.894
326.241	16.766	865.778	647.236
327.256	16.579	865.362	646.153
328.270	16.384	865.338	645.335
329.285	16.564	863.826	644.835
330.300	16.489	863.507	644.256
331.314	16.641	862.912	644.333
332.329	16.454	862.537	643.281
333.343	16.476	862.197	643.058
334.358	16.595	861.576	642.990
335.373	16.683	861.359	643.104
336.387	16.576	861.641	642.850
337.402	16.640	860.583	642.248
338.416	16.592	860.739	642.126
339.431	16.753	859.666	641.879
340.446	16.874	859.232	641.957
341.460	16.879	858.875	641.650
342.475	16.768	858.636	640.997
343.489	16.922	857.856	640.940
344.504	16.796	857.876	640.418
345.519	16.964	857.040	640.375
346.533	16.822	856.739	639.556
347.548	16.970	856.205	639.659
348.562	16.831	855.850	638.813
349.577	16.905	854.952	638.365
350.592	16.927	854.488	638.046
351.606	16.912	853.660	637.316
352.621	16.939	852.712	636.651
353.635	16.864	852.269	635.985
354.650	17.018	851.702	636.082
355.665	17.097	850.952	635.761
356.679	17.098	850.272	635.200
357.694	16.867	850.127	634.170
358.708	17.143	848.871	634.209
359.723	17.220	848.029	633.811
360.738	17.085	847.378	632.765
361.752	17.063	847.319	632.584
362.767	17.206	846.423	632.390
363.781	17.129	846.253	631.923
364.796	17.187	845.801	631.742
365.810	17.200	845.626	631.606
366.825	17.255	845.055	631.327
367.840	17.189	844.738	630.790
368.854	17.225	844.123	630.409
369.869	17.354	843.393	630.284
370.883	17.251	843.268	629.753
371.898	17.210	842.750	629.160
372.913	17.129	842.809	628.847
373.927	17.450	841.654	629.118
374.942	17.374	841.353	628.555
375.956	17.421	840.580	628.096
376.971	17.442	840.640	628.162
377.986	17.496	839.908	627.760
379.000	17.444	839.562	627.253
380.015	17.539	838.795	626.974
381.029	17.698	838.292	627.130
382.044	17.685	837.730	626.604
383.059	17.608	837.101	625.798
384.073	17.559	836.771	625.314
385.088	17.461	836.361	624.593
386.102	17.682	835.365	624.604
387.117	17.645	834.604	623.843
388.132	17.667	834.209	623.575
389.146	17.555	833.730	622.750
390.161	17.556	833.155	622.271
391.175	17.698	832.702	622.395
392.190	17.658	831.984	621.657
393.205	17.527	831.800	620.990
394.219	17.561	831.579	620.890
395.234	17.633	831.000	620.667
396.248	17.614	830.581	620.229
397.263	17.452	830.400	619.448
398.278	17.561	829.788	619.337
399.292	17.459	829.722	618.860
400.307	17.668	828.952	618.992
401.321	17.694	828.084	618.381
402.336	17.748	827.698	618.235
403.350	17.750	827.375	617.944
404.365	17.674	827.150	617.448
405.380	17.748	826.617	617.263
406.394	17.836	826.050	617.102
407.409	17.812	825.492	616.547
408.423	17.943	825.382	616.884
409.438	17.953	824.790	616.421
410.453	18.044	823.990	616.098
411.467	18.106	823.422	615.842
412.482	18.007	823.053	615.155
413.496	18.019	823.210	615.259
414.511	17.993	822.939	614.911
415.526	18.090	822.188	614.643
416.540	18.165	821.467	614.318
417.555	18.019	821.086	613.455
418.569	18.140	820.721	613.561
419.584	18.140	820.529	613.365
420.599	18.155	819.301	612.445
421.613	115.899	1301.397	1492.313
422.628	100.549	1371.590	1492.393
