DTS Sentinel unit serial number:	SN413079Multiplexer serial number:	ORYXHardware model number:	OX4-SRSoftware version number:	ORYX F/W v4.00 Oryx Data Collector v3.7.2.0data status	okinstallation	princeton_trtdifferential loss correction	single-endedforward channel	channel 1reverse channel	N/Adate	2019/09/17time	13:38:35forward acquisition time	60.00reverse acquisition time	0.00gamma	496.2192k internal	0.2305k external	0.2305temperature offset calibration	0.9972default loss term (dB/km)	0.3790temperature slope calibration	1.0000multiplexer offset coefficient	1.0000multiplexer slope coefficient	1.0000fibre end	0.00T internal ref (°C)	34.83T ext. ref 1 (°C)	0.41T ext. ref 2 (°C)	31.94length (m)	temperature (°C)	Stokes	anti-Stokes-747.200	-104.180	0.139	0.033
-746.185	800.000	-0.075	0.237
-745.171	-200.000	-0.095	0.000
-744.156	-200.000	-0.002	0.291
-743.142	128.271	0.064	0.083
-742.127	-177.595	-0.163	-0.004
-741.112	541.960	0.085	0.207
-740.098	800.000	-0.055	-0.235
-739.083	-200.000	-0.056	-0.399
-738.069	-156.229	-0.114	-0.007
-737.054	-119.689	0.307	-0.054
-736.039	-86.322	-0.182	-0.057
-735.025	19.031	0.111	-0.090
-734.010	-98.087	-0.104	0.027
-732.996	499.651	-0.114	0.268
-731.981	-109.710	0.074	-0.016
-730.966	151.043	0.149	-0.206
-729.952	800.000	-0.101	-0.291
-728.937	373.079	-0.166	-0.343
-727.923	-15.707	-0.417	0.270
-726.908	800.000	-0.115	0.473
-725.894	256.798	-0.068	0.119
-724.879	794.519	0.031	-0.086
-723.864	-93.647	-0.175	-0.049
-722.850	-26.173	-0.160	-0.096
-721.835	-149.264	0.279	0.023
-720.821	594.519	-0.151	-0.380
-719.806	-24.913	0.165	-0.099
-718.791	-61.178	-0.115	0.049
-717.777	118.393	-0.136	0.170
-716.762	-91.707	0.080	-0.023
-715.748	-200.000	0.010	-0.149
-714.733	800.000	0.071	-0.276
-713.718	-27.485	0.122	-0.072
-712.704	36.065	-0.139	-0.125
-711.689	206.011	-0.084	-0.133
-710.675	-200.000	-0.003	-0.127
-709.660	70.128	-0.100	-0.105
-708.645	-49.420	0.168	-0.081
-707.631	76.846	0.076	-0.082
-706.616	-73.423	-0.123	0.046
-705.602	-4.307	0.303	-0.213
-704.587	178.496	0.044	-0.066
-703.572	-200.000	-0.023	-0.117
-702.558	800.000	-0.064	0.214
-701.543	-125.468	-0.017	0.003
-700.529	7.526	0.048	0.036
-699.514	47.064	0.319	0.302
-698.499	73.233	0.092	0.098
-697.485	110.479	-0.078	0.096
-696.470	-141.742	0.261	0.027
-695.456	-5.428	-0.139	0.097
-694.441	-103.067	-0.468	-0.113
-693.426	226.952	0.091	-0.149
-692.412	58.725	0.231	-0.231
-691.397	-179.962	0.289	-0.006
-690.383	584.870	-0.153	-0.382
-689.368	208.577	-0.079	-0.125
-688.354	-70.505	-0.096	-0.037
-687.339	8.171	-0.153	-0.117
-686.324	207.416	-0.221	-0.350
-685.310	121.402	-0.061	0.078
-684.295	39.814	-0.078	0.071
-683.281	-200.000	-0.007	0.365
-682.266	-54.238	0.253	-0.117
-681.251	800.000	-0.042	-0.125
-680.237	-200.000	0.080	-0.392
-679.222	-200.000	0.004	-0.110
-678.208	-65.429	-0.282	-0.115
-677.193	-200.000	0.009	-0.390
-676.178	278.533	-0.091	0.164
-675.164	112.636	0.322	0.396
-674.149	-78.088	0.053	-0.018
-673.135	-86.694	0.262	-0.081
-672.120	48.191	0.195	-0.185
-671.105	-200.000	-0.077	-0.382
-670.091	-39.459	0.122	-0.065
-669.076	159.091	0.107	0.151
-668.062	1.999	0.034	-0.025
-667.047	-200.000	-0.022	-0.143
-666.032	233.650	0.071	0.118
-665.018	516.197	0.051	-0.121
-664.003	-43.143	0.139	-0.072
-662.989	-200.000	0.047	-0.427
-661.974	174.313	-0.130	-0.191
-660.959	54.634	0.059	-0.057
-659.945	84.354	0.092	-0.102
-658.930	-200.000	-0.062	-0.370
-657.916	58.132	-0.230	-0.229
-656.901	149.440	-0.168	-0.231
-655.886	64.320	0.159	0.162
-654.872	800.000	-0.081	-0.231
-653.857	-183.266	-0.177	0.003
-652.843	800.000	-0.084	-0.267
-651.828	800.000	0.136	-0.391
-650.814	294.749	0.124	-0.229
-649.799	-73.182	-0.044	-0.016
-648.784	322.055	-0.107	0.206
-647.770	122.057	0.210	-0.265
-646.755	-16.180	0.082	0.053
-645.741	-57.845	-0.165	-0.073
-644.726	-137.260	0.195	-0.022
-643.711	127.812	-0.142	0.183
-642.697	-153.754	0.271	-0.019
-641.682	-50.164	-0.217	0.104
-640.668	-200.000	0.032	0.191
-639.653	496.499	0.165	-0.385
-638.638	67.164	-0.563	-0.582
-637.624	-142.101	-0.442	0.045
-636.609	-136.014	-0.122	0.015
-635.595	255.055	0.085	-0.148
-634.580	241.284	-0.154	0.261
-633.565	800.000	-0.032	-0.096
-632.551	733.370	0.033	-0.088
-631.536	800.000	-0.017	-0.063
-630.522	53.215	0.139	-0.135
-629.507	-94.021	0.212	-0.059
-628.492	-200.000	-0.032	-0.290
-627.478	-22.854	-0.137	-0.084
-626.463	-72.467	-0.261	0.098
-625.449	-61.485	-0.322	-0.137
-624.434	-118.162	0.255	0.046
-623.419	622.699	-0.042	0.107
-622.405	-13.139	0.071	-0.046
-621.390	293.151	-0.075	-0.139
-620.376	227.999	0.112	0.184
-619.361	-109.112	0.182	-0.039
-618.346	-22.288	0.113	0.069
-617.332	-24.853	0.104	-0.063
-616.317	-44.866	-0.118	0.059
-615.303	18.631	0.171	0.139
-614.288	-17.277	0.154	-0.098
-613.273	-172.816	-0.182	-0.006
-612.259	-98.614	-0.133	0.034
-611.244	117.001	0.226	0.281
-610.230	120.297	-0.051	-0.064
-609.215	-28.114	0.242	0.142
-608.201	5.132	-0.157	-0.117
-607.186	-96.107	-0.473	-0.127
-606.171	800.000	0.053	0.152
-605.157	-129.412	0.193	-0.027
-604.142	800.000	0.059	-0.182
-603.128	363.757	-0.155	0.314
-602.113	-28.513	-0.283	-0.165
-601.098	97.356	-0.221	0.256
-600.084	-200.000	-0.043	0.247
-599.069	-163.327	-0.156	-0.008
-598.055	-93.153	-0.170	-0.048
-597.040	5.382	-0.069	-0.051
-596.025	800.000	-0.073	0.209
-595.011	-200.000	0.027	-0.209
-593.996	78.827	0.069	-0.075
-592.982	-152.634	0.137	-0.010
-591.967	-75.133	0.071	-0.026
-590.952	-125.664	0.240	0.037
-589.938	145.436	-0.112	0.152
-588.923	626.266	0.015	0.037
-587.909	-126.566	-0.185	-0.028
-586.894	-200.000	-0.040	0.205
-585.879	135.862	-0.064	-0.084
-584.865	-149.133	0.282	-0.023
-583.850	268.248	-0.048	0.085
-582.836	-139.171	-0.275	0.030
-581.821	-190.142	0.214	-0.002
-580.806	800.000	-0.047	0.175
-579.792	-23.374	-0.111	-0.068
-578.777	-200.000	0.004	0.053
-577.763	102.845	0.175	0.207
-576.748	-67.595	0.260	-0.103
-575.733	212.377	-0.141	0.224
-574.719	572.448	-0.108	-0.265
-573.704	1.699	0.047	-0.034
-572.690	-144.007	-0.008	-0.001
-571.675	8.023	0.065	0.049
-570.661	-200.000	-0.023	0.122
-569.646	31.107	0.118	-0.102
-568.631	-200.000	-0.011	-0.101
-567.617	-83.251	-0.219	-0.071
-566.602	609.573	-0.027	-0.068
-565.588	800.000	-0.005	-0.018
-564.573	61.297	-0.078	-0.079
-563.558	-200.000	0.003	-0.036
-562.544	-200.000	-0.004	-0.197
-561.529	800.000	0.015	-0.042
-560.515	-97.175	0.074	-0.020
-559.500	289.260	-0.057	-0.105
-558.485	364.988	-0.192	0.390
-557.471	-193.104	0.145	0.001
-556.456	-34.395	0.255	-0.141
-555.442	-111.924	-0.313	-0.064
-554.427	-34.095	0.296	-0.164
-553.412	0.996	0.276	-0.200
-552.398	-49.647	0.115	0.055
-551.383	-19.142	0.420	0.263
-550.369	150.758	0.158	-0.217
-549.354	-200.000	0.023	-0.194
-548.339	320.277	0.014	0.026
-547.325	800.000	-0.035	-0.107
-546.310	323.634	0.059	-0.113
-545.296	201.831	0.055	0.086
-544.281	-25.106	-0.185	-0.111
-543.266	59.726	0.027	-0.027
-542.252	623.356	0.074	0.188
-541.237	-91.153	-0.203	0.059
-540.223	-69.098	0.115	-0.045
-539.208	474.594	-0.067	-0.153
-538.193	800.000	0.144	-0.523
-537.179	-60.435	0.254	-0.109
-536.164	5.920	-0.176	0.131
-535.150	-73.949	-0.100	-0.037
-534.135	20.649	0.097	0.080
-533.121	-100.283	-0.225	-0.056
-532.106	772.946	-0.067	0.184
-531.091	-55.765	-0.547	-0.247
-530.077	-200.000	0.048	-0.463
-529.062	121.865	0.074	0.093
-528.048	86.063	0.227	-0.252
-527.033	-130.375	0.398	-0.054
-526.018	-68.826	0.176	0.069
-525.004	-119.290	-0.188	-0.033
-523.989	-110.116	-0.379	-0.080
-522.975	-105.888	-0.306	-0.070
-521.960	-200.000	-0.011	-0.189
-520.945	-129.347	0.131	0.018
-519.931	-33.598	-0.207	-0.115
-518.916	-200.000	-0.002	-0.019
-517.902	800.000	-0.090	-0.274
-516.887	350.795	-0.167	0.334
-515.872	-43.931	-0.204	0.103
-514.858	578.363	0.048	-0.118
-513.843	-62.575	-0.108	-0.045
-512.829	-138.700	0.188	0.021
-511.814	-27.837	-0.149	0.087
-510.799	-16.514	0.124	0.079
-509.785	463.652	0.088	0.199
-508.770	6.299	-0.289	-0.217
-507.756	-200.000	-0.042	-0.383
-506.741	-200.000	0.003	-0.388
-505.726	355.994	-0.100	0.201
-504.712	335.496	-0.106	0.208
-503.697	-68.903	0.217	0.084
-502.683	361.922	0.155	0.314
-501.668	673.521	0.061	0.159
-500.653	-200.000	0.009	0.117
-499.639	-77.736	0.199	0.069
-498.624	122.131	0.112	0.142
-497.610	167.251	-0.110	-0.158
-496.595	-40.360	-0.162	-0.085
-495.581	590.192	-0.033	0.083
-494.566	142.589	-0.219	0.293
-493.551	9.383	-0.125	0.095
-492.537	67.117	0.183	-0.187
-491.522	289.475	0.006	0.010
-490.508	670.251	0.110	-0.288
-489.493	-200.000	-0.015	0.256
-488.478	800.000	0.061	-0.218
-487.464	703.823	-0.092	0.244
-486.449	800.000	-0.067	-0.209
-485.435	-200.000	-0.041	-0.285
-484.420	-143.936	0.224	-0.021
-483.405	800.000	0.056	-0.162
-482.391	597.253	0.051	-0.127
-481.376	-149.400	0.198	-0.016
-480.362	-200.000	-0.414	-0.001
-479.347	55.864	-0.187	0.182
-478.332	-170.680	0.357	0.012
-477.318	124.251	-0.125	0.159
-476.303	83.497	0.100	0.110
-475.289	-26.252	0.042	-0.025
-474.274	763.702	-0.114	0.312
-473.259	77.578	-0.048	-0.051
-472.245	-200.000	-0.043	-0.296
-471.230	44.062	-0.180	0.166
-470.216	800.000	-0.064	0.235
-469.201	18.095	0.078	0.062
-468.186	126.615	-0.171	0.218
-467.172	-51.342	0.352	0.166
-466.157	544.477	0.079	0.189
-465.143	-57.093	0.163	0.072
-464.128	241.110	-0.068	0.113
-463.113	-200.000	0.012	-0.217
-462.099	-171.067	0.116	0.004
-461.084	-200.000	-0.007	-0.176
-460.070	-60.883	-0.299	-0.128
-459.055	71.766	0.060	0.063
-458.040	-76.315	-0.052	0.019
-457.026	-20.878	0.367	-0.226
-456.011	1.475	-0.200	-0.145
-454.997	-121.633	-0.103	-0.017
-453.982	651.433	-0.114	-0.293
-452.968	-200.000	0.041	0.307
-451.953	681.580	0.109	0.285
-450.938	136.357	0.134	-0.176
-449.924	-55.744	0.234	-0.105
-448.909	-200.000	0.005	-0.371
-447.895	204.471	0.061	-0.095
-446.880	356.030	0.020	0.039
-445.865	-200.000	0.043	-0.347
-444.851	283.682	0.048	0.086
-443.836	33.620	-0.105	-0.092
-442.822	396.397	-0.200	0.420
-441.807	-200.000	0.031	-0.435
-440.792	-59.644	-0.270	-0.116
-439.778	-66.545	-0.216	0.086
-438.763	-60.794	0.175	0.075
-437.749	-200.000	-0.004	0.153
-436.734	-155.118	-0.359	0.024
-435.719	6.907	-0.118	0.089
-434.705	-200.000	-0.009	0.324
-433.690	-200.000	-0.033	0.233
-432.676	202.895	-0.036	-0.056
-431.661	800.000	-0.067	0.208
-430.646	211.870	-0.167	-0.265
-429.632	-200.000	0.028	-0.281
-428.617	270.584	0.106	0.187
-427.603	-22.774	0.208	-0.126
-426.588	221.149	0.072	0.117
-425.573	608.742	0.077	-0.194
-424.559	-200.000	-0.016	0.159
-423.544	66.505	-0.245	0.250
-422.530	157.934	-0.163	-0.226
-421.515	-200.000	-0.052	0.257
-420.500	-112.545	0.194	-0.039
-419.486	277.158	0.106	-0.190
-418.471	800.000	-0.041	-0.172
-417.457	800.000	0.020	0.074
-416.442	-11.599	-0.190	0.125
-415.428	-67.914	-0.113	0.044
-414.413	-140.005	0.087	-0.009
-413.398	-17.736	-0.064	-0.041
-412.384	17.622	-0.234	0.187
-411.369	-96.838	0.199	-0.052
-410.355	91.299	-0.113	0.128
-409.340	133.467	-0.170	-0.221
-408.325	205.046	-0.177	0.275
-407.311	-24.305	0.277	-0.166
-406.296	1.983	-0.227	-0.165
-405.282	-200.000	-0.037	0.249
-404.267	-7.629	0.160	0.109
-403.252	-177.765	0.369	-0.009
-402.238	-26.951	-0.149	0.087
-401.223	91.843	-0.194	0.219
-400.209	-200.000	0.008	0.065
-399.194	-200.000	0.023	-0.230
-398.179	-148.059	0.273	0.023
-397.165	-75.819	0.226	0.080
-396.150	245.158	0.091	-0.154
-395.136	-92.901	0.084	0.023
-394.121	102.540	-0.287	-0.337
-393.106	-200.000	-0.033	-0.282
-392.092	-114.554	-0.034	0.007
-391.077	254.194	-0.156	0.267
-390.063	-189.706	-0.274	0.003
-389.048	184.336	-0.147	-0.219
-388.033	-18.487	0.177	0.111
-387.019	758.887	-0.029	-0.079
-386.004	-40.246	0.104	-0.054
-384.990	-200.000	0.005	0.184
-383.975	345.312	-0.058	-0.114
-382.960	69.115	-0.102	0.105
-381.946	-51.208	-0.206	0.097
-380.931	31.618	-0.307	0.265
-379.917	394.891	0.088	-0.183
-378.902	46.265	-0.249	-0.231
-377.888	-53.110	0.254	-0.117
-376.873	-7.678	0.192	-0.130
-375.858	-106.798	-0.231	-0.051
-374.844	88.482	0.248	-0.277
-373.829	-200.000	-0.039	-0.231
-372.815	-200.000	0.010	0.215
-371.800	800.000	0.026	-0.113
-370.785	237.872	0.052	-0.087
-369.771	-41.968	0.092	0.047
-368.756	800.000	0.078	-0.275
-367.742	-95.089	0.122	0.033
-366.727	-200.000	-0.058	-0.296
-365.712	373.632	0.039	0.079
-364.698	372.625	0.119	0.243
-363.683	-90.292	-0.067	-0.020
-362.669	770.936	-0.042	0.114
-361.654	-200.000	0.016	-0.077
-360.639	800.000	0.048	0.147
-359.625	-94.957	-0.130	0.035
-358.610	56.298	-0.245	-0.238
-357.596	-48.207	0.384	0.186
-356.581	-44.030	-0.155	0.078
-355.566	115.422	0.245	0.300
-354.552	-102.238	0.251	-0.060
-353.537	725.058	0.081	0.216
-352.523	-154.298	-0.375	0.025
-351.508	-49.072	0.224	-0.107
-350.493	800.000	-0.099	0.276
-349.479	686.284	0.070	0.184
-348.464	15.727	-0.142	0.112
-347.450	-200.000	0.011	0.056
-346.435	-200.000	-0.012	-0.078
-345.420	-179.593	-0.053	-0.001
-344.406	800.000	0.028	0.117
-343.391	800.000	-0.096	-0.305
-342.377	-92.340	0.259	-0.073
-341.362	-108.411	-0.229	-0.049
-340.348	347.325	0.209	-0.412
-339.333	-144.323	0.242	-0.023
-338.318	800.000	0.012	-0.038
-337.304	337.012	-0.196	-0.381
-336.289	-200.000	0.010	-0.228
-335.275	173.310	-0.166	0.240
-334.260	-96.195	0.026	-0.007
-333.245	305.910	0.188	0.351
-332.231	-15.036	0.165	0.106
-331.216	-108.840	0.207	0.044
-330.202	-96.133	0.154	0.041
-329.187	264.253	-0.044	-0.077
-328.172	205.442	0.116	-0.180
-327.158	-200.000	-0.021	-0.368
-326.143	800.000	-0.079	-0.315
-325.129	-68.908	-0.296	0.114
-324.114	-189.572	0.092	-0.001
-323.099	-200.000	-0.251	-0.001
-322.085	-34.369	-0.208	0.114
-321.070	33.555	-0.274	-0.239
-320.056	4.052	-0.086	-0.063
-319.041	-100.945	-0.359	0.088
-318.026	67.942	0.100	0.102
-317.012	-200.000	-0.002	0.114
-315.997	194.727	-0.131	0.199
-314.983	-200.000	-0.018	0.314
-313.968	-57.455	0.283	-0.124
-312.953	-200.000	0.007	0.160
-311.939	-10.493	0.275	0.182
-310.924	110.009	0.112	0.135
-309.910	800.000	0.048	-0.208
-308.895	-139.296	0.198	-0.021
-307.880	-200.000	-0.034	0.158
-306.866	-200.000	-0.006	0.276
-305.851	673.424	-0.096	0.250
-304.837	115.310	0.236	-0.289
-303.822	800.000	0.028	-0.079
-302.807	-82.593	0.145	0.047
-301.793	-82.646	-0.056	-0.018
-300.778	-23.880	0.091	0.054
-299.764	-179.751	0.487	0.011
-298.749	-97.620	0.219	0.057
-297.735	251.798	-0.129	-0.220
-296.720	-200.000	-0.010	0.259
-295.705	61.373	-0.107	0.107
-294.691	379.866	-0.011	-0.022
-293.676	800.000	-0.048	-0.206
-292.662	800.000	0.073	-0.238
-291.647	153.029	0.244	0.334
-290.632	-101.087	0.323	-0.079
-289.618	-27.363	-0.468	0.272
-288.603	-119.267	-0.094	0.016
-287.589	717.916	-0.122	-0.324
-286.574	-149.284	-0.073	0.006
-285.559	-200.000	0.009	-0.170
-284.545	18.099	-0.124	-0.099
-283.530	-22.686	0.109	0.066
-282.516	463.242	-0.074	0.165
-281.501	-118.124	0.200	-0.036
-280.486	-129.144	0.253	0.035
-279.472	-200.000	0.050	-0.362
-278.457	-95.076	-0.083	0.022
-277.443	-200.000	0.017	-0.114
-276.428	-78.637	-0.230	-0.078
-275.413	546.325	0.068	0.163
-274.399	48.021	-0.342	-0.320
-273.384	800.000	0.157	0.518
-272.370	-120.764	0.159	0.027
-271.355	-70.321	-0.111	-0.042
-270.340	800.000	0.042	0.158
-269.326	89.068	0.153	0.170
-268.311	433.972	0.109	0.236
-267.297	800.000	-0.076	-0.277
-266.282	-200.000	0.034	-0.158
-265.267	800.000	-0.084	0.330
-264.253	-94.010	0.188	-0.052
-263.238	51.176	-0.130	-0.123
-262.224	631.137	-0.050	-0.126
-261.209	385.079	-0.082	0.169
-260.195	-200.000	-0.018	0.172
-259.180	177.602	-0.120	0.175
-258.165	458.913	0.087	0.194
-257.151	164.987	-0.121	0.171
-256.136	171.756	-0.076	0.109
-255.122	55.727	0.133	0.128
-254.107	-95.691	-0.259	-0.069
-253.092	28.821	0.309	-0.262
-252.078	-200.000	0.096	0.000
-251.063	-126.894	0.447	0.066
-250.049	-44.024	0.108	-0.054
-249.034	-108.044	-0.123	-0.027
-248.019	-83.953	-0.256	0.081
-247.005	-45.486	-0.183	0.091
-245.990	-146.590	0.081	0.007
-244.976	-95.816	-0.154	0.041
-243.961	-200.000	0.012	0.116
-242.946	-68.505	0.099	-0.038
-241.932	-103.969	-0.230	0.053
-240.917	-10.267	-0.201	-0.133
-239.903	-75.734	0.225	0.080
-238.888	800.000	0.096	0.267
-237.873	-126.624	-0.051	-0.008
-236.859	-3.889	0.182	-0.126
-235.844	-19.238	-0.162	-0.101
-234.830	123.356	-0.131	0.164
-233.815	395.031	-0.181	-0.377
-232.800	-200.000	-0.008	0.086
-231.786	-106.957	-0.026	0.006
-230.771	800.000	-0.021	0.071
-229.757	-128.698	0.142	-0.020
-228.742	-3.025	0.065	0.045
-227.727	-51.406	0.083	-0.039
-226.713	597.134	-0.157	-0.389
-225.698	-200.000	0.013	0.077
-224.684	-95.530	0.050	0.013
-223.669	108.056	0.184	-0.219
-222.655	-200.000	-0.006	0.131
-221.640	179.451	-0.099	-0.145
-220.625	-101.347	-0.130	0.032
-219.611	150.264	0.099	-0.134
-218.596	-144.696	0.543	0.050
-217.582	800.000	0.074	-0.319
-216.567	775.830	-0.076	0.207
-215.552	371.987	-0.019	0.038
-214.538	355.832	0.043	-0.085
-213.523	19.145	-0.131	-0.105
-212.509	-8.491	0.218	0.146
-211.494	231.792	-0.228	0.373
-210.479	11.441	-0.257	0.196
-209.465	-111.942	-0.095	0.019
-208.450	-84.034	0.122	-0.039
-207.436	-43.486	0.350	-0.176
-206.421	111.193	0.260	0.312
-205.406	16.606	-0.205	0.161
-204.392	-133.484	-0.210	-0.026
-203.377	-200.000	0.007	-0.041
-202.363	504.074	-0.121	-0.279
-201.348	523.173	0.143	0.334
-200.333	-103.104	0.482	0.114
-199.319	20.013	-0.042	-0.034
-198.304	100.931	-0.144	0.167
-197.290	378.571	0.147	-0.300
-196.275	46.509	0.031	0.029
-195.260	-137.676	-0.126	-0.014
-194.246	-18.251	-0.216	0.134
-193.231	14.715	0.387	0.301
-192.217	123.417	-0.250	0.312
-191.202	800.000	-0.104	-0.299
-190.187	-2.182	0.171	0.119
-189.173	-160.957	-0.065	-0.003
-188.158	41.988	-0.185	0.167
-187.144	271.252	0.084	0.147
-186.129	85.669	-0.048	0.053
-185.114	2.043	-0.161	0.115
-184.100	238.217	-0.080	-0.132
-183.085	-49.459	-0.254	0.121
-182.071	167.035	-0.090	-0.128
-181.056	12.713	0.248	0.191
-180.042	-200.000	0.038	-0.224
-179.027	2.894	-0.222	-0.160
-178.012	-8.564	-0.116	-0.078
-176.998	-200.000	-0.022	-0.166
-175.983	-50.850	0.202	-0.095
-174.969	-92.128	-0.135	-0.038
-173.954	180.680	0.107	0.156
-172.939	-200.000	0.013	-0.177
-171.925	-200.000	0.009	0.068
-170.910	-200.000	0.003	0.119
-169.896	77.590	-0.100	-0.106
-168.881	82.315	0.205	0.221
-167.866	-200.000	-0.067	-0.334
-166.852	107.387	0.059	-0.070
-165.837	-49.344	0.193	-0.091
-164.823	-36.167	0.156	0.084
-163.808	800.000	0.073	0.283
-162.793	-138.996	-0.099	-0.011
-161.779	-73.387	0.189	0.069
-160.764	-106.739	0.481	0.106
-159.750	170.744	0.119	0.169
-158.735	-47.524	0.239	0.115
-157.720	110.202	0.084	0.100
-156.706	-200.000	-0.037	0.228
-155.691	-119.192	0.295	-0.051
-154.677	-8.775	-0.260	-0.173
-153.662	-65.840	-0.138	0.055
-152.647	-26.123	0.420	0.245
-151.633	-23.378	-0.208	-0.124
-150.618	-39.787	-0.038	-0.020
-149.604	29.553	-0.220	-0.186
-148.589	800.000	0.144	0.402
-147.574	-200.000	0.040	0.652
-146.560	-113.851	-0.149	-0.029
-145.545	78.429	-0.096	-0.102
-144.531	800.000	0.025	0.077
-143.516	-200.000	-0.008	-0.190
-142.502	49.089	-0.182	0.170
-141.487	-31.991	-0.274	0.153
-140.472	-11.021	0.254	0.166
-139.458	800.000	0.046	-0.149
-138.443	-97.666	-0.214	-0.055
-137.429	800.000	0.126	0.370
-136.414	-200.000	-0.013	0.340
-135.399	-118.950	0.166	-0.029
-134.385	-135.056	0.374	0.045
-133.370	-144.865	-0.380	-0.035
-132.356	276.036	-0.202	0.357
-131.341	-200.000	-0.026	0.297
-130.326	800.000	0.072	0.306
-129.312	-200.000	-0.070	-0.342
-128.297	-10.633	0.130	0.085
-127.283	71.211	0.119	-0.123
-126.268	800.000	0.032	-0.112
-125.253	-200.000	-0.038	-0.293
-124.239	26.315	-0.109	0.090
-123.224	-46.163	-0.124	0.061
-122.210	800.000	0.036	0.120
-121.195	-27.565	-0.219	-0.126
-120.180	559.512	-0.029	0.069
-119.166	303.316	0.087	-0.159
-118.151	457.914	-0.188	0.414
-117.137	-200.000	0.062	0.421
-116.122	168.529	0.153	0.216
-115.107	305.144	-0.012	0.022
-114.093	54.063	0.452	-0.431
-113.078	-132.016	0.241	-0.031
-112.064	236.579	0.134	-0.221
-111.049	-111.180	-0.258	0.052
-110.034	-200.000	-0.024	0.115
-109.020	-107.109	0.246	0.054
-108.005	48.632	0.225	-0.210
-106.991	493.102	-0.075	0.170
-105.976	-65.320	-0.062	-0.025
-104.962	-114.792	-0.211	0.040
-103.947	-200.000	-0.006	-0.046
-102.932	-140.769	-0.427	0.044
-101.918	-58.110	-0.108	-0.047
-100.903	-91.187	-0.211	-0.060
-99.889	-139.917	0.174	0.018
-98.874	800.000	-0.057	0.181
-97.859	161.010	0.087	-0.120
-96.845	-131.510	-0.049	0.006
-95.830	-18.305	-0.205	0.127
-94.816	16.113	-0.300	-0.235
-93.801	-120.799	0.135	0.023
-92.786	-76.920	0.217	0.075
-91.772	62.474	-0.121	0.120
-90.757	355.467	-0.148	-0.291
-89.743	-83.043	-0.183	-0.059
-88.728	800.000	0.115	0.359
-87.713	-200.000	-0.062	0.274
-86.699	20.737	0.188	0.151
-85.684	-90.619	0.217	-0.062
-84.670	199.194	-0.098	-0.148
-83.655	31.310	0.240	0.204
-82.640	71.616	-0.205	0.211
-81.626	800.000	-0.054	-0.206
-80.611	-8.457	0.085	0.056
-79.597	-73.850	-0.106	-0.038
-78.582	531.969	-0.099	0.232
-77.567	-100.266	0.154	0.038
-76.553	40.427	-0.116	-0.103
-75.538	800.000	0.069	-0.283
-74.524	-137.140	0.268	-0.030
-73.509	-200.000	-0.079	-0.456
-72.494	430.256	-0.064	0.137
-71.480	-200.000	0.093	-0.433
-70.465	800.000	0.145	0.436
-69.451	576.977	0.135	0.326
-68.436	-200.000	0.074	0.360
-67.422	-129.844	-0.262	0.036
-66.407	174.811	0.289	-0.415
-65.392	-200.000	-0.003	-0.110
-64.378	540.144	-0.212	0.501
-63.363	6.291	0.301	0.221
-62.349	39.772	-0.462	0.411
-61.334	46.208	-0.920	-0.845
-60.319	-62.223	0.518	0.214
-59.305	719.213	-0.416	-1.095
-58.290	800.000	0.340	0.991
-57.276	354.123	0.691	1.360
-56.261	-200.000	94.389	548.379
-55.246	507.004	1406.737	3232.207
-54.232	146.970	2617.613	3486.969
-53.217	111.521	2219.314	2651.383
-52.203	46.377	1662.452	1526.746
-51.188	38.298	1394.313	1229.888
-50.173	34.918	1351.383	1171.318
-49.159	54.553	1398.615	1335.032
-48.144	58.058	1416.722	1374.102
-47.130	38.590	1372.068	1211.884
-46.115	35.067	1354.015	1174.326
-45.100	34.734	1349.489	1168.322
-44.086	34.715	1347.081	1166.072
-43.071	34.651	1344.705	1163.576
-42.057	34.538	1342.627	1161.045
-41.042	34.654	1340.928	1160.237
-40.027	34.649	1339.273	1158.728
-39.013	34.762	1336.993	1157.394
-37.998	34.786	1335.114	1155.869
-36.984	34.850	1333.433	1154.751
-35.969	34.862	1331.870	1153.426
-34.954	34.946	1329.645	1151.960
-33.940	34.876	1328.666	1150.641
-32.925	34.949	1326.913	1149.520
-31.911	35.031	1325.109	1148.404
-30.896	34.883	1324.327	1146.794
-29.881	34.868	1322.789	1145.323
-28.867	34.923	1321.505	1144.497
-27.852	34.887	1320.027	1142.952
-26.838	34.952	1318.402	1141.889
-25.823	34.950	1316.972	1140.595
-24.809	34.830	1315.877	1138.889
-23.794	34.915	1314.359	1138.035
-22.779	34.968	1313.056	1137.176
-21.765	34.915	1312.136	1136.018
-20.750	34.869	1311.016	1134.730
-19.736	34.853	1309.381	1133.175
-18.721	34.735	1308.110	1131.333
-17.706	34.770	1306.950	1130.491
-16.692	34.801	1305.382	1129.272
-15.677	34.807	1304.453	1128.461
-14.663	34.664	1303.830	1127.032
-13.648	34.820	1301.911	1126.251
-12.633	34.775	1301.026	1125.176
-11.619	34.681	1300.886	1124.454
-10.604	34.769	1299.542	1123.763
-9.590	34.800	1298.512	1123.015
-8.575	34.703	1297.530	1121.551
-7.560	34.714	1296.983	1121.096
-6.546	34.796	1295.783	1120.496
-5.531	34.672	1294.839	1118.909
-4.517	34.770	1293.898	1118.626
-3.502	34.819	1293.054	1118.138
-2.487	34.764	1291.767	1116.660
-1.473	34.764	1288.303	1113.621
-0.458	33.951	1274.164	1096.666
0.556	29.266	1255.640	1058.549
1.571	25.199	1260.692	1039.206
2.586	23.669	1274.185	1041.271
3.600	22.499	1262.837	1025.103
4.615	16.588	1186.150	930.359
5.629	6.056	1103.991	811.672
6.644	0.812	1081.571	768.526
7.659	0.295	1079.305	764.223
8.673	0.304	1077.937	763.233
9.688	0.241	1076.769	762.019
10.702	0.498	1074.989	761.993
11.717	6.510	1083.414	798.419
12.731	15.642	1095.326	853.706
13.746	18.527	1097.306	869.834
14.761	17.217	1095.807	861.929
15.775	16.331	1093.349	855.432
16.790	15.192	1091.571	848.204
17.804	14.583	1089.880	843.733
18.819	14.182	1088.893	840.870
19.834	13.782	1087.632	837.802
20.848	13.600	1086.731	836.115
21.863	13.360	1086.340	834.530
22.877	13.313	1085.315	833.434
23.892	13.249	1084.520	832.424
24.907	13.332	1083.800	832.218
25.921	13.304	1083.332	831.646
26.936	13.205	1082.362	830.330
27.950	13.426	1081.230	830.496
28.965	13.311	1080.467	829.258
29.980	13.405	1078.490	828.139
30.994	13.579	1077.062	827.840
32.009	13.525	1076.409	826.992
33.023	13.445	1075.540	825.852
34.038	13.443	1074.183	824.731
35.053	13.404	1073.472	823.914
36.067	13.377	1072.621	823.054
37.082	13.389	1071.852	822.454
38.096	13.421	1071.501	822.267
39.111	13.397	1070.748	821.499
40.126	13.340	1069.478	820.169
41.140	13.273	1068.149	818.749
42.155	13.245	1066.943	817.610
43.169	13.255	1065.627	816.578
44.184	13.229	1065.114	815.984
45.199	13.204	1064.149	815.050
46.213	13.289	1063.133	814.617
47.228	13.382	1061.751	813.944
48.242	13.435	1060.170	812.922
49.257	13.344	1059.813	812.128
50.271	13.422	1058.588	811.500
51.286	13.386	1057.786	810.641
52.301	13.386	1056.973	809.944
53.315	13.378	1055.800	808.935
54.330	13.204	1055.333	807.655
55.344	13.229	1054.471	807.048
56.359	13.313	1053.345	806.524
57.374	13.244	1052.762	805.669
58.388	13.250	1051.508	804.669
59.403	13.251	1050.554	803.871
60.417	13.252	1049.677	803.134
61.432	13.188	1049.134	802.337
62.447	13.080	1048.535	801.281
63.461	13.000	1048.073	800.469
64.476	13.154	1046.566	799.996
65.490	13.134	1045.712	799.175
66.505	13.185	1045.337	799.064
67.520	13.234	1044.603	798.669
68.534	13.214	1043.494	797.652
69.549	13.169	1043.145	797.098
70.563	13.136	1042.440	796.328
71.578	13.056	1041.438	795.110
72.593	13.106	1040.779	794.776
73.607	13.049	1039.955	793.803
74.622	13.087	1039.169	793.313
75.636	13.063	1038.518	792.635
76.651	13.123	1037.581	792.138
77.666	13.185	1037.150	792.035
78.680	13.130	1036.472	791.180
79.695	13.158	1035.830	790.755
80.709	13.209	1035.058	790.341
81.724	13.205	1034.359	789.717
82.739	13.386	1033.578	789.915
83.753	13.432	1032.681	789.382
84.768	13.443	1031.853	788.728
85.782	13.438	1030.620	787.693
86.797	13.373	1030.065	786.892
87.812	13.360	1029.230	786.119
88.826	13.289	1028.164	784.903
89.841	13.390	1027.343	784.686
90.855	13.425	1026.378	784.045
91.870	13.310	1026.058	783.182
92.884	13.444	1024.585	782.624
93.899	13.422	1024.050	782.040
94.914	13.564	1023.119	781.932
95.928	13.491	1022.474	781.026
96.943	13.566	1021.525	780.586
97.957	13.478	1020.357	779.207
98.972	13.501	1019.989	778.967
99.987	13.421	1018.906	777.695
101.001	13.464	1017.714	776.921
102.016	13.513	1016.638	776.258
103.030	13.499	1016.101	775.715
104.045	13.505	1015.165	774.957
105.060	13.359	1014.722	773.871
106.074	13.334	1013.948	773.095
107.089	13.253	1012.303	771.394
108.103	13.231	1011.472	770.591
109.118	13.309	1010.491	770.136
110.133	13.212	1009.890	769.162
111.147	13.320	1008.871	768.818
112.162	13.279	1007.845	767.776
113.176	13.402	1007.310	767.870
114.191	13.363	1006.653	767.123
115.206	13.341	1005.643	766.183
116.220	13.303	1004.965	765.421
117.235	13.354	1003.844	764.738
118.249	13.411	1002.944	764.246
119.264	13.229	1002.592	763.072
120.279	13.360	1001.493	762.774
121.293	13.328	1000.927	762.125
122.308	13.304	999.840	761.119
123.322	13.276	998.893	760.204
124.337	13.402	997.322	759.520
125.352	13.410	996.281	758.698
126.366	13.299	995.671	757.656
127.381	13.277	995.198	757.128
128.395	13.333	993.610	756.110
129.410	13.435	992.753	755.855
130.424	13.404	991.804	754.925
131.439	13.390	991.086	754.249
132.454	13.596	990.161	754.416
133.468	13.511	989.600	753.535
134.483	13.419	989.117	752.680
135.497	13.472	988.062	752.052
136.512	13.503	986.889	751.232
137.527	13.404	986.163	750.164
138.541	13.407	985.834	749.863
139.556	13.553	984.874	749.724
140.570	13.564	983.957	749.013
141.585	13.608	982.643	748.145
142.600	13.606	982.109	747.663
143.614	13.654	981.050	747.007
144.629	13.549	980.559	746.092
145.643	13.574	979.612	745.418
146.658	13.471	978.646	744.154
147.673	13.475	977.716	743.402
148.687	13.487	977.077	742.904
149.702	13.505	976.037	742.125
150.716	13.515	975.132	741.420
151.731	13.470	974.712	740.833
152.746	13.538	973.601	740.228
153.760	13.447	973.369	739.578
154.775	13.474	973.168	739.478
155.789	13.529	971.966	738.745
156.804	13.599	971.256	738.453
157.819	13.574	970.804	737.932
158.833	13.635	970.053	737.567
159.848	13.787	968.792	737.221
160.862	13.817	968.025	736.705
161.877	13.685	967.053	735.312
162.892	13.532	966.151	733.883
163.906	13.718	964.930	733.715
164.921	13.681	964.100	732.855
165.935	13.668	963.318	732.139
166.950	13.689	962.490	731.536
167.964	13.779	961.300	730.966
168.979	13.566	960.869	729.635
169.994	13.625	959.893	729.088
171.008	13.688	959.265	728.823
172.023	13.874	958.257	728.808
173.037	13.863	957.316	727.981
174.052	13.917	956.874	727.817
175.067	13.757	956.174	726.519
176.081	13.798	955.749	726.313
177.096	13.662	955.523	725.484
178.110	13.779	954.820	725.394
179.125	13.785	954.292	724.958
180.140	13.860	953.597	724.690
181.154	13.939	952.932	724.467
182.169	13.961	952.220	723.957
183.183	13.922	951.856	723.445
184.198	13.984	951.080	723.061
185.213	13.935	950.125	722.060
186.227	14.032	949.587	722.009
187.242	13.921	948.936	720.968
188.256	14.067	948.095	720.896
189.271	14.067	947.438	720.335
190.286	14.009	946.602	719.386
191.300	13.846	946.095	718.229
192.315	13.863	945.725	717.960
193.329	13.862	944.826	717.210
194.344	13.836	944.415	716.722
195.359	14.006	943.549	716.734
196.373	13.796	943.521	715.743
197.388	13.938	943.011	715.905
198.402	14.083	942.446	716.038
199.417	14.172	941.410	715.571
200.432	14.247	940.874	715.420
201.446	14.283	940.327	715.098
202.461	14.213	939.731	714.280
203.475	14.302	939.272	714.249
204.490	14.365	938.378	713.776
205.504	14.277	937.462	712.638
206.519	14.155	937.022	711.722
207.534	14.291	936.112	711.546
208.548	14.275	935.549	710.987
209.563	14.130	935.264	710.089
210.577	14.262	934.241	709.814
211.592	14.290	933.636	709.411
212.607	14.448	932.697	709.306
213.621	14.363	932.064	708.402
214.636	14.418	931.588	708.211
215.650	14.393	930.771	707.419
216.665	14.488	929.730	706.968
217.680	14.469	929.230	706.444
218.694	14.460	928.505	705.795
219.709	14.460	927.985	705.334
220.723	14.418	927.667	704.855
221.738	14.520	926.700	704.488
222.753	14.567	925.756	703.907
223.767	14.525	925.725	703.642
224.782	14.600	924.752	703.157
225.796	14.506	924.738	702.687
226.811	14.609	923.928	702.443
227.826	14.641	922.742	701.614
228.840	14.506	922.218	700.588
229.855	14.603	921.056	700.051
230.869	14.574	920.460	699.415
231.884	14.551	919.962	698.877
232.899	14.540	919.247	698.226
233.913	14.552	918.196	697.415
234.928	14.630	917.455	697.119
235.942	14.507	917.253	696.388
236.957	14.540	916.928	696.218
237.972	14.455	916.360	695.372
238.986	14.679	915.212	695.372
240.001	14.642	914.729	694.786
241.015	14.678	913.615	694.032
242.030	14.601	913.483	693.550
243.045	14.600	913.068	693.169
244.059	14.621	912.258	692.577
245.074	14.848	911.206	692.658
246.088	14.746	910.779	691.850
247.103	14.744	910.371	691.472
248.117	14.785	909.837	691.176
249.132	14.840	909.592	691.154
250.147	14.924	908.451	690.573
251.161	14.799	907.675	689.405
252.176	14.816	906.987	688.892
253.190	15.118	906.419	689.646
254.205	15.046	905.816	688.829
255.220	15.100	904.901	688.294
256.234	15.043	904.085	687.380
257.249	15.072	903.816	687.233
258.263	15.173	902.646	686.694
259.278	15.066	902.253	685.897
260.293	15.020	901.667	685.203
261.307	15.220	901.134	685.557
262.322	15.204	900.565	684.995
263.336	15.285	899.218	684.244
264.351	15.326	898.890	684.101
265.366	15.324	898.069	683.407
266.380	15.354	897.735	683.213
267.395	15.188	897.216	682.080
268.409	15.338	896.034	681.731
269.424	15.359	895.123	681.064
270.439	15.333	894.789	680.646
271.453	15.438	893.711	680.188
272.468	15.185	893.538	678.972
273.482	15.388	892.729	679.121
274.497	15.227	892.736	678.414
275.512	15.345	891.856	678.160
276.526	15.357	891.336	677.754
277.541	15.278	891.279	677.331
278.555	15.365	890.343	676.913
279.570	15.370	889.735	676.410
280.585	15.422	888.765	675.821
281.599	15.480	887.723	675.203
282.614	15.564	886.867	674.829
283.628	15.450	886.623	674.126
284.643	15.469	886.163	673.792
285.657	15.463	885.475	673.185
286.672	15.640	884.481	673.081
287.687	15.625	883.985	672.583
288.701	15.636	883.305	672.053
289.716	15.560	882.935	671.405
290.730	15.557	882.634	671.106
291.745	15.615	881.803	670.645
292.760	15.576	881.508	670.206
293.774	15.638	880.679	669.766
294.789	15.605	880.302	669.286
295.803	15.565	879.180	668.217
296.818	15.763	878.167	668.175
297.833	15.725	877.689	667.601
298.847	15.712	876.779	666.798
299.862	15.660	876.865	666.599
300.876	15.709	876.160	666.194
301.891	15.785	875.654	666.052
302.906	15.896	874.971	665.914
303.920	15.870	874.537	665.422
304.935	15.819	873.831	664.623
305.949	15.821	873.393	664.240
306.964	15.833	872.649	663.663
307.979	15.761	872.384	663.119
308.993	15.985	871.467	663.247
310.008	16.132	870.635	663.131
311.022	15.955	870.049	661.930
312.037	15.845	869.723	661.194
313.052	15.927	869.178	661.042
314.066	15.980	868.551	660.713
315.081	15.843	868.212	659.862
316.095	15.815	867.503	659.155
317.110	15.729	866.909	658.308
318.125	15.730	866.606	658.024
319.139	15.867	865.985	658.027
320.154	15.915	865.423	657.732
321.168	15.924	864.713	657.167
322.183	16.009	864.020	656.917
323.197	16.113	863.476	656.849
324.212	15.983	863.292	656.145
325.227	15.991	862.468	655.492
326.241	16.013	861.926	655.107
327.256	15.969	861.153	654.288
328.270	15.933	860.662	653.718
329.285	16.027	859.993	653.516
330.300	15.996	859.484	652.953
331.314	16.005	859.069	652.616
332.329	16.110	858.359	652.425
333.343	16.130	857.898	652.094
334.358	16.120	857.586	651.759
335.373	16.212	857.052	651.651
336.387	16.300	856.769	651.717
337.402	16.253	856.765	651.477
338.416	16.252	856.112	650.918
339.431	16.256	855.701	650.564
340.446	16.316	855.666	650.711
341.460	16.283	855.246	650.208
342.475	16.526	854.591	650.587
343.489	16.429	854.082	649.768
344.504	16.394	853.383	649.043
345.519	16.376	853.055	648.667
346.533	16.533	852.410	648.722
347.548	16.507	851.553	647.915
348.562	16.542	850.804	647.419
349.577	16.521	850.411	646.985
350.592	16.551	849.708	646.505
351.606	16.437	849.417	645.792
352.621	16.355	848.568	644.778
353.635	16.432	847.956	644.549
354.650	16.493	847.433	644.327
355.665	16.509	846.822	643.863
356.679	16.572	846.248	643.613
357.694	16.314	845.759	642.203
358.708	16.406	845.358	642.190
359.723	16.529	844.392	641.865
360.738	16.714	843.689	641.977
361.752	16.626	843.471	641.420
362.767	16.690	842.683	641.006
363.781	16.674	842.346	640.631
364.796	16.722	841.608	640.194
365.810	16.722	841.047	639.715
366.825	16.814	840.922	639.909
367.840	16.845	840.056	639.311
368.854	16.805	839.599	638.754
369.869	16.791	839.310	638.427
370.883	16.845	838.868	638.237
371.898	16.855	838.521	637.956
372.913	16.913	838.198	637.871
373.927	16.866	837.661	637.227
374.942	16.872	837.230	636.865
375.956	16.862	836.720	636.383
376.971	16.983	836.284	636.449
377.986	17.047	835.798	636.263
379.000	17.130	835.151	636.025
380.015	16.947	834.866	635.068
381.029	17.023	834.015	634.648
382.044	17.195	833.242	634.646
383.059	17.174	832.916	634.263
384.073	16.989	832.694	633.349
385.088	17.021	831.979	632.868
386.102	17.041	831.652	632.636
387.117	16.956	831.039	631.797
388.132	17.205	829.879	631.787
389.146	17.276	829.469	631.682
390.161	17.103	829.332	630.878
391.175	17.153	828.680	630.514
392.190	17.077	828.387	629.954
393.205	17.177	827.742	629.776
394.219	17.098	827.438	629.197
395.234	17.219	826.966	629.232
396.248	17.102	826.787	628.605
397.263	17.104	826.007	627.964
398.278	17.113	825.674	627.689
399.292	17.214	825.458	627.843
400.307	17.247	824.502	627.180
401.321	17.162	824.402	626.738
402.336	17.081	824.029	626.097
403.350	17.246	823.241	626.053
404.365	17.321	822.346	625.592
405.380	17.401	822.203	625.724
406.394	17.450	821.636	625.417
407.409	17.410	821.296	624.956
408.423	17.379	821.348	624.827
409.438	17.517	820.532	624.656
410.453	17.441	820.425	624.240
411.467	17.575	819.511	623.981
412.482	17.513	819.458	623.657
413.496	17.623	818.849	623.540
414.511	17.560	818.737	623.172
415.526	17.608	818.295	622.954
416.540	17.642	817.333	622.290
417.555	17.614	817.306	622.113
418.569	17.582	816.763	621.527
419.584	17.573	816.582	621.304
420.599	17.726	816.137	621.467
421.613	102.795	1284.625	1438.930
422.628	88.647	1352.877	1439.023
