DTS Sentinel unit serial number:	SN413079Multiplexer serial number:	ORYXHardware model number:	OX4-SRSoftware version number:	ORYX F/W v4.00 Oryx Data Collector v3.7.2.0data status	okinstallation	princeton_trtdifferential loss correction	single-endedforward channel	channel 1reverse channel	N/Adate	2019/09/16time	04:58:35forward acquisition time	60.00reverse acquisition time	0.00gamma	496.2192k internal	0.2332k external	0.2332temperature offset calibration	0.9986default loss term (dB/km)	0.3790temperature slope calibration	1.0000multiplexer offset coefficient	1.0000multiplexer slope coefficient	1.0000fibre end	0.00T internal ref (°C)	27.12T ext. ref 1 (°C)	10.98T ext. ref 2 (°C)	21.88length (m)	temperature (°C)	Stokes	anti-Stokes-747.200	83.805	-0.167	-0.184
-746.185	519.787	0.090	-0.213
-745.171	-63.158	0.032	0.013
-744.156	-200.000	-0.008	0.164
-743.142	-200.000	-0.023	0.112
-742.127	-157.421	-0.331	0.020
-741.112	800.000	-0.056	-0.218
-740.098	-138.950	0.262	0.029
-739.083	-153.200	0.181	-0.013
-738.069	-89.250	-0.126	0.037
-737.054	-10.124	-0.291	-0.194
-736.039	800.000	0.104	-0.319
-735.025	122.211	0.245	-0.307
-734.010	-159.017	-0.105	0.006
-732.996	4.842	-0.285	0.211
-731.981	69.513	-0.195	-0.202
-730.966	61.305	0.112	-0.112
-729.952	508.398	0.041	-0.097
-728.937	800.000	-0.028	-0.119
-727.923	-65.732	-0.257	-0.103
-726.908	-134.027	-0.185	-0.023
-725.894	800.000	0.043	-0.123
-724.879	-145.756	0.064	-0.006
-723.864	-133.812	-0.111	-0.014
-722.850	323.575	-0.113	0.216
-721.835	5.931	0.236	0.176
-720.821	139.901	-0.048	-0.063
-719.806	-45.132	0.227	-0.114
-718.791	74.252	-0.212	-0.224
-717.777	59.361	0.309	-0.306
-716.762	-54.880	-0.557	-0.253
-715.748	58.033	0.295	-0.291
-714.733	-200.000	-0.027	-0.205
-713.718	-101.964	0.381	-0.092
-712.704	800.000	0.040	-0.118
-711.689	-56.697	-0.141	0.062
-710.675	-200.000	0.009	-0.138
-709.660	169.283	0.247	0.354
-708.645	-200.000	-0.057	0.417
-707.631	-9.315	0.271	-0.182
-706.616	-6.824	0.099	0.068
-705.602	-5.111	-0.214	-0.148
-704.587	-176.814	-0.053	0.001
-703.572	43.461	0.246	-0.226
-702.558	66.832	-0.051	0.052
-701.543	-200.000	-0.041	0.350
-700.529	800.000	0.041	0.121
-699.514	126.159	-0.260	-0.330
-698.499	33.177	-0.150	0.130
-697.485	431.291	-0.133	0.290
-696.470	46.608	-0.130	-0.121
-695.456	-126.302	-0.239	0.036
-694.441	290.127	-0.136	-0.248
-693.426	-200.000	0.001	0.161
-692.412	-200.000	-0.020	-0.205
-691.397	-200.000	0.032	-0.166
-690.383	34.704	-0.036	0.031
-689.368	168.000	-0.051	0.073
-688.354	107.879	0.146	-0.175
-687.339	800.000	-0.007	-0.023
-686.324	-200.000	-0.031	0.332
-685.310	-200.000	-0.037	-0.299
-684.295	800.000	0.032	-0.126
-683.281	-79.870	-0.192	-0.065
-682.266	-35.490	-0.131	-0.071
-681.251	388.314	-0.196	-0.407
-680.237	141.180	-0.201	-0.267
-679.222	800.000	-0.018	0.060
-678.208	800.000	-0.032	-0.110
-677.193	378.585	0.038	-0.078
-676.178	-146.442	0.195	0.017
-675.164	-75.352	-0.448	0.160
-674.149	29.273	-0.200	-0.170
-673.135	57.173	-0.177	-0.174
-672.120	14.910	-0.246	-0.193
-671.105	103.930	-0.024	0.028
-670.091	-52.373	0.239	0.111
-669.076	-200.000	-0.012	-0.138
-668.062	-63.233	-0.256	0.106
-667.047	-200.000	0.033	-0.340
-666.032	692.180	-0.164	-0.431
-665.018	-158.862	-0.407	-0.023
-664.003	789.219	0.075	0.207
-662.989	-49.741	-0.212	0.101
-661.974	-200.000	-0.010	-0.052
-660.959	178.830	-0.096	-0.141
-659.945	134.345	0.140	-0.182
-658.930	361.955	-0.066	-0.133
-657.916	185.981	-0.148	-0.221
-656.901	-111.344	-0.158	-0.032
-655.886	328.593	-0.112	-0.216
-654.872	755.957	-0.116	-0.315
-653.857	-110.730	-0.024	-0.005
-652.843	-56.970	0.142	0.063
-651.828	-54.844	-0.354	-0.160
-650.814	-180.402	0.197	-0.004
-649.799	800.000	0.020	-0.079
-648.784	-121.608	0.102	-0.017
-647.770	-117.901	0.210	-0.038
-646.755	800.000	0.029	-0.083
-645.741	15.241	0.317	-0.249
-644.726	-200.000	-0.022	-0.142
-643.711	-200.000	0.020	-0.106
-642.697	683.943	0.062	-0.161
-641.682	-170.560	0.082	0.003
-640.668	-200.000	-0.055	0.316
-639.653	57.559	0.096	-0.094
-638.638	-2.961	-0.214	0.150
-637.624	106.379	0.208	0.247
-636.609	-122.276	0.431	-0.071
-635.595	800.000	0.065	0.196
-634.580	137.303	0.171	0.224
-633.565	108.492	-0.133	0.159
-632.551	-0.611	0.515	0.366
-631.536	-200.000	-0.013	0.362
-630.522	-87.418	0.268	-0.081
-629.507	-125.998	-0.233	0.035
-628.492	264.060	0.062	0.107
-627.478	3.263	0.105	-0.076
-626.463	-155.964	0.171	0.011
-625.449	-33.603	0.194	-0.107
-624.434	17.776	-0.133	-0.106
-623.419	195.036	-0.116	-0.176
-622.405	-200.000	-0.005	0.104
-621.390	-116.596	0.125	-0.023
-620.376	721.064	0.088	0.234
-619.361	-200.000	0.054	0.273
-618.346	-200.000	0.040	0.235
-617.332	800.000	0.110	0.362
-616.317	-0.683	0.152	-0.108
-615.303	-109.931	-0.423	-0.089
-614.288	33.634	0.001	-0.001
-613.273	-60.385	-0.120	0.051
-612.259	271.863	0.083	-0.147
-611.244	-200.000	0.018	0.100
-610.230	-58.370	0.196	0.085
-609.215	-111.623	-0.407	-0.083
-608.201	-200.000	0.044	0.456
-607.186	-200.000	0.000	0.067
-606.171	-16.306	0.235	0.149
-605.157	-200.000	-0.020	0.150
-604.142	327.325	-0.080	-0.153
-603.128	154.288	-0.067	-0.092
-602.113	488.605	-0.112	-0.256
-601.098	-59.589	0.046	-0.020
-600.084	-94.764	-0.240	-0.065
-599.069	258.576	-0.076	0.130
-598.055	224.428	0.163	-0.263
-597.040	246.326	-0.131	-0.221
-596.025	-49.208	0.266	-0.127
-595.011	-121.871	-0.307	-0.051
-593.996	101.901	0.040	0.046
-592.982	-200.000	0.061	-0.314
-591.967	800.000	0.004	-0.014
-590.952	173.384	-0.061	-0.088
-589.938	179.973	-0.137	0.200
-588.923	-158.657	0.080	0.005
-587.909	-188.756	-0.082	-0.001
-586.894	-67.095	-0.242	-0.096
-585.879	-107.739	0.027	0.006
-584.865	-69.718	0.207	0.079
-583.850	-200.000	0.002	-0.171
-582.836	-132.410	0.295	0.038
-581.821	-158.034	-0.316	0.019
-580.806	-145.058	-0.392	0.036
-579.792	-160.763	0.036	-0.002
-578.777	-77.524	0.071	0.025
-577.763	-72.432	0.163	-0.060
-576.748	-56.204	0.245	0.109
-575.733	800.000	0.089	-0.356
-574.719	-65.777	-0.155	-0.062
-573.704	395.213	-0.211	-0.439
-572.690	208.834	-0.116	0.182
-571.675	24.085	0.103	-0.085
-570.661	-100.538	0.222	0.055
-569.646	-200.000	-0.025	0.283
-568.631	22.196	-0.113	0.092
-567.617	60.028	0.154	0.152
-566.602	-107.113	0.159	-0.035
-565.588	-160.736	-0.284	0.015
-564.573	-108.495	0.411	-0.088
-563.558	77.999	-0.107	0.114
-562.544	-142.651	-0.153	-0.015
-561.529	395.638	0.081	-0.168
-560.515	-82.108	0.185	0.060
-559.500	743.371	0.129	-0.346
-558.485	329.392	0.137	0.264
-557.471	10.813	0.082	-0.063
-556.456	257.473	-0.060	-0.104
-555.442	-142.059	0.241	0.024
-554.427	-58.127	-0.275	-0.120
-553.412	74.105	-0.290	0.304
-552.398	-200.000	-0.006	-0.202
-551.383	-200.000	0.018	0.127
-550.369	800.000	-0.054	0.150
-549.354	-24.542	-0.251	0.149
-548.339	213.836	0.223	0.352
-547.325	-104.236	-0.308	-0.071
-546.310	800.000	0.031	-0.088
-545.296	-20.426	-0.110	-0.068
-544.281	62.690	0.119	-0.119
-543.266	-50.150	0.119	-0.056
-542.252	-95.072	0.057	0.015
-541.237	-200.000	0.020	0.091
-540.223	-59.256	0.160	0.069
-539.208	11.999	-0.199	-0.153
-538.193	-13.266	0.135	-0.087
-537.179	-97.306	0.476	-0.124
-536.164	-108.451	-0.203	-0.044
-535.150	-200.000	0.044	-0.419
-534.135	-200.000	0.041	-0.257
-533.121	-200.000	-0.016	0.246
-532.106	99.400	-0.318	-0.367
-531.091	-24.935	-0.368	0.218
-530.077	-200.000	0.023	-0.368
-529.062	-103.764	-0.160	0.037
-528.048	-89.808	0.251	0.073
-527.033	-0.403	-0.140	-0.099
-526.018	50.485	0.087	0.082
-525.004	-132.323	-0.204	0.026
-523.989	237.406	-0.126	0.208
-522.975	-89.517	-0.167	-0.049
-521.960	-200.000	0.047	0.316
-520.945	4.364	0.339	-0.248
-519.931	10.898	0.270	-0.205
-518.916	-87.512	-0.232	0.070
-517.902	-60.980	-0.060	0.025
-516.887	800.000	0.187	0.552
-515.872	722.489	0.052	0.137
-514.858	98.654	0.258	0.297
-513.843	123.473	-0.134	0.167
-512.829	-6.731	-0.180	0.122
-511.814	-175.582	0.318	-0.009
-510.799	-200.000	-0.038	0.177
-509.785	-133.217	-0.102	-0.013
-508.770	296.701	-0.076	0.138
-507.756	-96.459	-0.292	-0.077
-506.741	800.000	-0.073	0.244
-505.726	800.000	0.090	0.318
-504.712	-54.998	0.243	-0.109
-503.697	791.089	0.054	0.147
-502.683	206.948	-0.056	0.087
-501.668	800.000	0.006	0.017
-500.653	-200.000	-0.006	-0.147
-499.639	-45.022	-0.236	0.117
-498.624	-14.750	-0.222	0.142
-497.610	671.918	0.082	-0.210
-496.595	86.014	-0.032	0.035
-495.581	-50.673	0.288	-0.135
-494.566	118.908	0.123	0.151
-493.551	237.927	0.151	-0.250
-492.537	44.391	-0.088	-0.081
-491.522	-200.000	-0.067	-0.419
-490.508	103.651	0.325	-0.380
-489.493	427.740	0.164	-0.353
-488.478	675.360	0.116	0.300
-487.464	-40.822	-0.163	-0.084
-486.449	-134.502	0.351	0.043
-485.435	-64.506	0.263	0.107
-484.420	14.927	-0.306	-0.239
-483.405	43.801	-0.223	-0.203
-482.391	203.877	-0.107	-0.166
-481.376	800.000	0.030	-0.129
-480.362	800.000	-0.122	-0.338
-479.347	-63.120	-0.060	0.025
-478.332	-200.000	-0.004	0.034
-477.318	-200.000	0.004	0.031
-476.303	40.611	-0.115	-0.103
-475.289	89.851	0.158	0.175
-474.274	580.150	0.160	0.390
-473.259	800.000	-0.137	-0.419
-472.245	22.751	0.069	-0.056
-471.230	800.000	0.026	-0.095
-470.216	9.494	-0.147	-0.110
-469.201	99.042	0.212	0.244
-468.186	-70.067	-0.168	-0.063
-467.172	-148.890	-0.136	-0.011
-466.157	24.517	-0.118	-0.097
-465.143	800.000	-0.046	-0.127
-464.128	-183.051	-0.258	-0.005
-463.113	-5.259	0.157	0.107
-462.099	-10.121	-0.194	0.128
-461.084	-102.739	0.266	-0.063
-460.070	-134.900	-0.287	-0.035
-459.055	800.000	0.027	0.099
-458.040	102.733	0.074	0.086
-457.026	-47.133	-0.065	0.032
-456.011	-63.031	-0.076	-0.031
-454.997	-200.000	0.021	-0.182
-453.982	-200.000	-0.002	0.216
-452.968	-62.607	-0.281	0.116
-451.953	-119.072	0.199	0.035
-450.938	0.780	-0.305	-0.217
-449.924	308.733	-0.129	0.240
-448.909	118.176	-0.026	-0.032
-447.895	29.181	0.180	-0.152
-446.880	-75.332	-0.186	-0.066
-445.865	-81.226	0.204	0.067
-444.851	-200.000	0.093	-0.473
-443.836	187.277	0.078	0.116
-442.822	454.585	0.157	-0.345
-441.807	-67.217	0.082	0.032
-440.792	496.903	-0.126	-0.287
-439.778	562.114	-0.094	-0.225
-438.763	-197.811	-0.243	-0.001
-437.749	-79.655	-0.147	0.049
-436.734	-129.038	-0.353	0.049
-435.719	62.134	-0.036	0.036
-434.705	-100.039	-0.400	-0.099
-433.690	-200.000	-0.013	0.208
-432.676	-47.475	-0.237	0.114
-431.661	430.343	-0.036	-0.078
-430.646	-20.007	0.039	0.024
-429.632	150.513	0.137	-0.185
-428.617	106.061	0.124	0.146
-427.603	245.654	0.035	-0.058
-426.588	-148.950	-0.182	0.015
-425.573	-149.067	0.079	-0.006
-424.559	800.000	0.071	-0.205
-423.544	800.000	-0.148	-0.413
-422.530	95.363	0.175	0.198
-421.515	445.897	0.134	-0.292
-420.500	-200.000	-0.007	0.086
-419.486	800.000	-0.087	0.374
-418.471	55.812	-0.142	-0.137
-417.457	116.074	-0.152	-0.185
-416.442	-64.515	0.293	-0.118
-415.428	83.264	-0.179	0.193
-414.413	-102.898	-0.176	0.042
-413.398	0.665	-0.109	-0.077
-412.384	25.870	-0.063	0.052
-411.369	-49.212	-0.177	0.084
-410.355	-200.000	-0.054	0.341
-409.340	163.364	-0.136	0.189
-408.325	-135.262	0.136	-0.016
-407.311	-101.451	-0.069	0.017
-406.296	800.000	-0.048	0.205
-405.282	-200.000	-0.011	0.077
-404.267	-200.000	0.083	-0.558
-403.252	377.727	-0.081	-0.165
-402.238	-200.000	-0.019	-0.320
-401.223	-50.164	-0.216	-0.101
-400.209	-60.249	0.173	0.073
-399.194	-42.103	-0.078	0.040
-398.179	79.233	0.146	-0.155
-397.165	338.160	0.078	-0.151
-396.150	-200.000	-0.006	0.204
-395.136	-200.000	0.073	0.338
-394.121	74.214	0.109	0.113
-393.106	316.987	0.114	0.214
-392.092	-29.368	0.268	0.152
-391.077	-187.843	-0.141	0.002
-390.063	-164.072	0.103	-0.005
-389.048	-200.000	-0.003	0.053
-388.033	-200.000	-0.026	-0.259
-387.019	276.594	-0.078	-0.138
-386.004	245.959	0.070	-0.117
-384.990	-98.519	-0.091	0.023
-383.975	579.383	-0.023	0.056
-382.960	177.652	-0.150	0.218
-381.946	-200.000	-0.033	-0.218
-380.931	-200.000	-0.039	-0.407
-379.917	187.739	0.172	0.254
-378.902	-102.518	0.033	0.008
-377.888	1.131	-0.149	-0.106
-376.873	-0.182	0.288	0.203
-375.858	-68.380	-0.198	-0.076
-374.844	-200.000	0.003	-0.023
-373.829	102.056	-0.061	0.070
-372.815	85.765	-0.197	-0.214
-371.800	345.942	0.058	-0.114
-370.785	-134.336	-0.415	0.050
-369.771	-95.981	-0.256	-0.067
-368.756	64.064	-0.211	0.210
-367.742	800.000	-0.030	-0.095
-366.727	800.000	-0.075	0.261
-365.712	35.141	-0.085	0.074
-364.698	-200.000	-0.004	-0.131
-363.683	-38.259	-0.336	0.177
-362.669	47.593	0.161	0.149
-361.654	170.221	0.069	-0.098
-360.639	54.043	0.223	-0.212
-359.625	-200.000	0.019	0.226
-358.610	299.760	-0.133	0.242
-357.596	-200.000	0.004	-0.055
-356.581	-200.000	0.005	0.161
-355.566	800.000	-0.026	0.101
-354.552	-200.000	0.016	0.144
-353.537	53.133	-0.027	0.026
-352.523	-134.651	0.416	-0.050
-351.508	496.547	-0.130	-0.297
-350.493	9.336	0.040	-0.030
-349.479	139.796	0.184	-0.240
-348.464	164.441	-0.146	-0.203
-347.450	-174.335	-0.274	-0.008
-346.435	-200.000	-0.368	0.001
-345.420	206.148	0.087	-0.135
-344.406	800.000	-0.049	-0.170
-343.391	66.973	0.335	0.338
-342.377	96.184	-0.082	-0.093
-341.362	23.180	0.181	-0.147
-340.348	12.831	-0.156	-0.119
-339.333	-126.678	0.140	-0.020
-338.318	-200.000	0.018	0.168
-337.304	-186.830	0.309	-0.004
-336.289	-167.993	-0.300	0.012
-335.275	12.772	-0.128	-0.098
-334.260	800.000	0.008	0.025
-333.245	267.854	0.047	-0.081
-332.231	-51.882	0.209	-0.096
-331.216	-140.250	-0.137	-0.014
-330.202	800.000	-0.051	-0.191
-329.187	560.735	0.100	0.239
-328.172	-42.742	0.180	0.091
-327.158	-54.914	-0.228	0.102
-326.143	-69.908	-0.274	-0.103
-325.129	-152.948	-0.102	0.007
-324.114	150.005	0.090	-0.121
-323.099	-24.599	0.285	-0.168
-322.085	85.434	-0.042	-0.045
-321.070	-200.000	-0.005	0.257
-320.056	-200.000	-0.012	-0.062
-319.041	-200.000	-0.046	0.313
-318.026	-29.563	-0.259	0.147
-317.012	26.395	-0.068	0.056
-315.997	-200.000	0.040	0.243
-314.983	-57.538	-0.510	-0.221
-313.968	599.029	0.039	-0.096
-312.953	-20.299	-0.167	0.102
-311.939	17.773	-0.079	-0.062
-310.924	-172.594	-0.213	-0.007
-309.910	221.334	-0.018	0.028
-308.895	-200.000	0.015	0.294
-307.880	-180.208	-0.084	-0.002
-306.866	-95.005	0.143	-0.038
-305.851	-69.969	-0.206	-0.078
-304.837	330.505	0.112	-0.213
-303.822	-200.000	-0.023	-0.194
-302.807	-91.640	-0.138	0.039
-301.793	-78.486	0.244	-0.082
-300.778	800.000	-0.030	0.092
-299.764	47.095	-0.054	0.050
-298.749	-6.017	-0.045	0.031
-297.735	195.147	0.250	0.375
-296.720	-200.000	-0.022	0.327
-295.705	800.000	0.065	-0.200
-294.691	800.000	0.072	0.255
-293.676	-200.000	-0.033	-0.444
-292.662	-87.256	-0.236	0.071
-291.647	800.000	0.061	0.184
-290.632	-149.870	0.452	-0.035
-289.618	800.000	0.089	-0.372
-288.603	373.587	0.115	-0.231
-287.589	570.832	-0.073	-0.175
-286.574	-88.485	0.224	0.066
-285.559	-123.914	-0.151	-0.024
-284.545	83.171	-0.062	-0.066
-283.530	505.210	-0.024	-0.054
-282.516	128.775	-0.103	0.130
-281.501	410.654	-0.094	-0.196
-280.486	287.494	0.119	0.213
-279.472	-24.257	0.142	0.084
-278.457	-45.182	-0.252	0.124
-277.443	-133.545	-0.274	0.034
-276.428	-5.898	-0.094	0.064
-275.413	151.513	-0.182	0.244
-274.399	-151.858	0.174	-0.013
-273.384	-200.000	0.018	0.085
-272.370	390.790	0.117	-0.240
-271.355	-91.502	0.121	-0.034
-270.340	-200.000	-0.147	-0.000
-269.326	-200.000	0.006	0.140
-268.311	-56.043	0.170	0.075
-267.297	-200.000	-0.046	-0.283
-266.282	-39.124	0.120	0.062
-265.267	57.266	0.352	-0.340
-264.253	800.000	0.073	-0.287
-263.238	53.704	-0.061	-0.058
-262.224	-79.903	-0.438	-0.145
-261.209	107.049	0.130	0.153
-260.195	-144.916	-0.094	0.008
-259.180	41.860	-0.062	0.056
-258.165	800.000	-0.037	-0.156
-257.151	47.735	0.073	-0.067
-256.136	111.915	-0.220	0.262
-255.122	-200.000	-0.013	0.190
-254.107	-70.271	-0.202	-0.076
-253.092	-98.432	0.165	0.042
-252.078	-197.194	-0.185	-0.001
-251.063	139.347	0.053	0.069
-250.049	-200.000	-0.008	-0.202
-249.034	11.570	0.141	-0.107
-248.019	-50.574	0.062	0.029
-247.005	800.000	-0.085	0.328
-245.990	-50.543	-0.260	0.121
-244.976	138.751	0.074	-0.096
-243.961	67.321	0.126	-0.127
-242.946	97.890	-0.116	-0.132
-241.932	-160.188	-0.427	-0.023
-240.917	-95.360	0.141	0.037
-239.903	-200.000	-0.063	-0.285
-238.888	108.284	-0.152	-0.178
-237.873	800.000	-0.026	-0.089
-236.859	31.005	0.044	0.038
-235.844	-200.000	0.012	0.383
-234.830	-84.795	0.124	-0.038
-233.815	91.448	-0.179	0.198
-232.800	-86.801	0.401	0.121
-231.786	23.662	0.279	-0.226
-230.771	-37.264	0.208	0.110
-229.757	58.263	0.152	0.147
-228.742	800.000	-0.025	0.098
-227.727	-155.481	0.334	0.021
-226.713	-79.177	0.264	0.088
-225.698	-200.000	0.032	0.254
-224.684	-100.589	0.175	-0.043
-223.669	209.805	0.044	-0.068
-222.655	-200.000	-0.027	-0.128
-221.640	293.519	-0.046	0.082
-220.625	800.000	-0.025	-0.082
-219.611	-129.050	0.153	0.021
-218.596	-35.140	-0.305	0.164
-217.582	16.768	0.105	0.082
-216.567	56.032	0.023	-0.022
-215.552	-129.873	0.294	-0.040
-214.538	78.627	0.223	-0.235
-213.523	131.872	0.065	0.082
-212.509	-200.000	0.008	-0.057
-211.494	-169.469	0.157	0.006
-210.479	-130.123	0.364	-0.049
-209.465	800.000	0.028	-0.090
-208.450	41.337	0.268	0.239
-207.436	-166.500	0.414	-0.017
-206.421	-45.973	0.167	0.081
-205.406	800.000	-0.032	-0.094
-204.392	127.853	0.187	-0.234
-203.377	3.629	0.198	0.142
-202.363	-51.621	0.190	-0.087
-201.348	-126.364	-0.135	-0.020
-200.333	259.553	0.039	0.065
-199.319	-103.383	-0.159	-0.037
-198.304	-112.798	-0.335	-0.065
-197.290	28.716	0.119	0.099
-196.275	-145.076	-0.094	-0.008
-195.260	-200.000	-0.044	0.262
-194.246	8.739	-0.330	-0.245
-193.231	229.039	-0.091	0.146
-192.217	42.396	-0.106	-0.094
-191.202	800.000	0.013	-0.038
-190.187	-3.587	-0.273	0.187
-189.173	-49.518	-0.114	-0.054
-188.158	460.033	-0.026	0.057
-187.144	57.009	0.229	-0.220
-186.129	-1.770	-0.212	0.147
-185.114	34.354	-0.081	0.070
-184.100	201.363	0.192	0.291
-183.085	-4.062	-0.044	0.030
-182.071	-45.590	0.092	0.045
-181.056	319.967	-0.160	0.299
-180.042	304.792	0.047	-0.085
-179.027	53.167	-0.145	0.136
-178.012	-124.497	-0.121	0.019
-176.998	800.000	-0.093	0.287
-175.983	800.000	0.027	-0.089
-174.969	44.597	0.176	0.159
-173.954	-103.741	-0.237	-0.055
-172.939	-61.253	0.428	-0.177
-171.925	64.405	0.340	-0.337
-170.910	75.533	0.157	0.163
-169.896	-34.014	-0.345	0.187
-168.881	-183.266	0.222	-0.004
-167.866	-7.189	0.262	0.174
-166.852	-200.000	-0.054	0.314
-165.837	-101.534	0.210	0.050
-164.823	678.236	0.026	0.065
-163.808	-0.698	0.108	0.075
-162.793	-92.041	-0.534	0.149
-161.779	769.587	0.036	-0.097
-160.764	-169.622	0.057	-0.002
-159.750	134.753	0.157	-0.200
-158.735	800.000	-0.058	-0.159
-157.720	-200.000	-0.022	-0.253
-156.706	-200.000	0.032	-0.218
-155.691	800.000	0.006	-0.017
-154.677	317.886	0.111	0.207
-153.662	117.141	-0.038	0.046
-152.647	-26.455	-0.302	-0.174
-151.633	800.000	0.066	0.222
-150.618	-200.000	-0.026	0.271
-149.604	-29.401	0.320	-0.180
-148.589	800.000	0.019	-0.080
-147.574	78.702	0.171	0.180
-146.560	-87.383	0.157	-0.047
-145.545	800.000	-0.063	-0.174
-144.531	-77.500	0.337	-0.115
-143.516	318.137	-0.148	-0.276
-142.502	231.663	-0.123	-0.198
-141.487	761.029	0.040	0.105
-140.472	106.453	0.094	-0.109
-139.458	123.436	-0.026	-0.033
-138.443	-104.645	-0.361	-0.082
-137.429	70.922	0.133	0.135
-136.414	204.247	0.088	-0.134
-135.399	-14.522	0.098	0.062
-134.385	800.000	0.099	-0.291
-133.370	-64.966	-0.162	-0.064
-132.356	-200.000	0.028	-0.222
-131.341	-135.616	-0.400	-0.047
-130.326	-76.938	0.223	0.076
-129.312	-110.740	0.163	0.033
-128.297	800.000	0.050	-0.160
-127.283	363.197	0.138	-0.272
-126.268	-11.542	-0.146	0.094
-125.253	-151.090	-0.037	0.003
-124.239	95.507	0.063	0.070
-123.224	110.524	0.030	-0.035
-122.210	273.205	0.047	0.082
-121.195	-78.901	-0.268	0.090
-120.180	-101.058	0.477	0.115
-119.166	1.601	0.164	0.116
-118.151	165.339	0.071	-0.099
-117.137	-46.173	0.242	-0.117
-116.122	-119.242	-0.408	0.070
-115.107	349.800	-0.163	-0.316
-114.093	-56.652	-0.313	0.136
-113.078	172.316	0.103	0.146
-112.064	51.197	-0.120	-0.112
-111.049	-200.000	0.039	-0.280
-110.034	-200.000	-0.021	0.270
-109.020	-92.118	-0.234	0.065
-108.005	43.365	-0.211	-0.190
-106.991	25.555	-0.148	0.121
-105.976	-109.834	0.181	0.037
-104.962	-49.714	0.308	0.143
-103.947	-200.000	-0.027	0.462
-102.932	-71.224	-0.294	-0.108
-101.918	800.000	0.084	-0.236
-100.903	225.104	0.112	-0.178
-99.889	302.172	-0.053	0.097
-98.874	-129.864	-0.159	0.021
-97.859	-15.077	-0.186	0.117
-96.845	800.000	0.195	0.565
-95.830	800.000	0.058	-0.237
-94.816	96.731	0.184	0.206
-93.801	-66.051	0.086	0.034
-92.786	-37.297	0.243	0.127
-91.772	-110.922	0.094	0.019
-90.757	-18.466	0.145	-0.089
-89.743	-49.373	0.126	-0.059
-88.728	-130.897	-0.180	0.024
-87.713	488.701	0.064	-0.144
-86.699	-84.064	0.233	-0.072
-85.684	263.023	0.006	-0.009
-84.670	370.379	-0.056	-0.111
-83.655	-41.850	-0.174	-0.087
-82.640	-61.897	0.074	0.030
-81.626	-59.511	0.208	0.088
-80.611	-200.000	-0.005	-0.148
-79.597	-82.512	0.155	0.049
-78.582	-38.487	0.285	0.147
-77.567	-200.000	-0.009	0.230
-76.553	-200.000	-0.011	-0.538
-75.538	591.937	-0.092	-0.222
-74.524	-200.000	-0.054	0.339
-73.509	-90.947	0.262	0.074
-72.494	-143.064	0.261	-0.025
-71.480	125.828	-0.166	-0.206
-70.465	-200.000	0.053	0.276
-69.451	146.932	0.259	0.341
-68.436	800.000	-0.024	0.084
-67.422	33.143	-0.038	0.032
-66.407	-115.729	-0.285	0.052
-65.392	-129.798	-0.274	-0.037
-64.378	-177.278	-0.313	0.008
-63.363	-37.405	0.375	-0.196
-62.349	528.801	0.086	-0.198
-61.334	-8.012	-1.132	-0.748
-60.319	115.629	0.593	0.710
-59.305	800.000	-0.428	-1.381
-58.290	217.754	0.914	1.428
-57.276	800.000	0.526	1.560
-56.261	-200.000	115.047	648.470
-55.246	467.115	1513.876	3322.380
-54.232	146.646	2678.876	3524.170
-53.217	102.958	2152.597	2468.415
-52.203	38.439	1597.498	1393.910
-51.188	30.364	1342.020	1122.362
-50.173	27.624	1304.081	1074.467
-49.159	55.108	1360.691	1287.132
-48.144	53.372	1374.471	1289.704
-47.130	30.714	1330.103	1114.316
-46.115	27.242	1312.409	1078.894
-45.100	27.058	1306.930	1073.258
-44.086	26.984	1304.545	1070.822
-43.071	27.003	1302.549	1069.255
-42.057	26.913	1300.191	1066.749
-41.042	27.069	1297.970	1065.794
-40.027	27.014	1297.040	1064.669
-39.013	26.924	1295.410	1062.763
-37.998	27.049	1293.089	1061.548
-36.984	27.110	1291.264	1060.362
-35.969	27.127	1289.485	1058.956
-34.954	27.097	1288.152	1057.647
-33.940	27.099	1287.014	1056.680
-32.925	27.150	1285.493	1055.687
-31.911	27.272	1283.448	1054.674
-30.896	27.259	1282.651	1053.900
-29.881	27.278	1281.427	1052.964
-28.867	27.226	1279.413	1050.964
-27.852	27.310	1278.126	1050.355
-26.838	27.223	1277.385	1049.201
-25.823	27.166	1275.883	1047.598
-24.809	27.047	1274.134	1045.436
-23.794	27.173	1272.986	1045.172
-22.779	27.165	1271.661	1044.001
-21.765	27.201	1270.609	1043.298
-20.750	27.276	1268.849	1042.245
-19.736	27.118	1268.292	1040.839
-18.721	27.119	1267.060	1039.795
-17.706	27.074	1265.812	1038.469
-16.692	27.059	1264.887	1037.585
-15.677	27.226	1263.110	1037.041
-14.663	27.061	1262.226	1035.329
-13.648	27.140	1260.546	1034.363
-12.633	27.069	1260.114	1033.562
-11.619	27.077	1259.375	1032.962
-10.604	27.166	1258.234	1032.489
-9.590	27.071	1257.464	1031.279
-8.575	27.096	1256.583	1030.658
-7.560	26.993	1256.167	1029.687
-6.546	27.007	1254.950	1028.728
-5.531	27.056	1253.878	1028.090
-4.517	26.989	1253.251	1027.151
-3.502	27.073	1252.048	1026.603
-2.487	27.035	1251.038	1025.518
-1.473	26.942	1247.263	1021.862
-0.458	25.608	1231.756	1001.693
0.556	20.954	1216.334	966.316
1.571	17.538	1222.606	952.143
2.586	16.826	1237.559	959.672
3.600	16.927	1226.957	951.936
4.615	15.649	1159.904	893.048
5.629	12.598	1093.939	826.872
6.644	11.146	1077.394	807.104
7.659	10.947	1075.571	804.683
8.673	10.946	1074.321	803.673
9.688	10.892	1073.087	802.413
10.702	11.123	1070.392	801.464
11.717	12.968	1072.022	811.699
12.731	15.808	1075.994	828.636
13.746	17.586	1078.190	839.024
14.761	17.698	1077.194	838.722
15.775	16.689	1075.605	832.451
16.790	15.541	1073.672	825.247
17.804	14.869	1071.851	820.477
18.819	14.506	1070.280	817.424
19.834	14.204	1069.581	815.337
20.848	13.908	1069.078	813.431
21.863	13.654	1067.990	811.289
22.877	13.586	1067.206	810.288
23.892	13.541	1066.369	809.363
24.907	13.578	1065.646	808.922
25.921	13.638	1064.366	808.170
26.936	13.622	1063.171	807.114
27.950	13.680	1061.954	806.402
28.965	13.684	1060.258	805.060
29.980	13.805	1059.143	804.730
30.994	13.770	1058.249	803.810
32.009	13.839	1056.817	802.983
33.023	13.874	1055.609	802.166
34.038	13.727	1054.823	800.786
35.053	13.678	1054.150	799.968
36.067	13.800	1052.490	799.227
37.082	13.780	1051.999	798.688
38.096	13.781	1051.427	798.186
39.111	13.751	1050.969	797.621
40.126	13.676	1049.438	796.031
41.140	13.535	1048.310	794.428
42.155	13.422	1047.208	792.981
43.169	13.400	1046.104	791.969
44.184	13.460	1045.207	791.509
45.199	13.416	1044.151	790.427
46.213	13.654	1042.617	790.334
47.228	13.697	1041.913	789.932
48.242	13.670	1040.883	788.955
49.257	13.629	1039.705	787.796
50.271	13.726	1038.650	787.390
51.286	13.693	1038.248	786.857
52.301	13.642	1036.945	785.557
53.315	13.611	1035.959	784.596
54.330	13.484	1035.247	783.385
55.344	13.596	1033.808	782.757
56.359	13.576	1033.199	782.130
57.374	13.664	1032.249	781.757
58.388	13.550	1031.092	780.276
59.403	13.557	1030.473	779.771
60.417	13.491	1029.812	778.893
61.432	13.454	1029.138	778.138
62.447	13.340	1028.155	776.793
63.461	13.409	1027.026	776.193
64.476	13.424	1026.148	775.529
65.490	13.508	1025.418	775.303
66.505	13.353	1025.064	774.242
67.520	13.465	1024.164	774.017
68.534	13.568	1023.424	773.871
69.549	13.438	1023.039	772.904
70.563	13.468	1021.854	772.083
71.578	13.525	1020.632	771.355
72.593	13.490	1020.313	770.885
73.607	13.476	1019.715	770.300
74.622	13.427	1018.856	769.352
75.636	13.379	1018.274	768.622
76.651	13.432	1017.793	768.436
77.666	13.413	1017.039	767.715
78.680	13.479	1015.987	767.156
79.695	13.450	1015.943	766.919
80.709	13.549	1015.054	766.641
81.724	13.510	1014.336	765.849
82.739	13.556	1013.588	765.429
83.753	13.770	1012.764	765.727
84.768	13.722	1011.933	764.809
85.782	13.945	1010.713	764.846
86.797	13.804	1009.801	763.439
87.812	13.780	1008.807	762.512
88.826	13.722	1008.279	761.777
89.841	13.774	1007.310	761.218
90.855	13.798	1006.237	760.450
91.870	13.879	1005.547	760.232
92.884	13.850	1004.592	759.308
93.899	13.796	1003.838	758.426
94.914	13.888	1002.659	757.887
95.928	13.718	1002.593	756.996
96.943	13.832	1001.433	756.573
97.957	13.787	1000.760	755.793
98.972	13.820	999.650	755.039
99.987	13.897	998.871	754.730
101.001	13.956	997.539	753.927
102.016	13.736	996.968	752.429
103.030	13.678	996.315	751.605
104.045	13.773	995.459	751.326
105.060	13.709	994.631	750.346
106.074	13.615	994.077	749.434
107.089	13.541	992.482	747.833
108.103	13.622	991.942	747.727
109.118	13.468	990.891	746.173
110.133	13.514	990.151	745.758
111.147	13.548	989.146	745.088
112.162	13.649	988.191	744.756
113.176	13.664	987.401	744.161
114.191	13.682	986.859	743.767
115.206	13.674	985.709	742.798
116.220	13.613	985.069	741.978
117.235	13.711	984.023	741.563
118.249	13.692	982.860	740.535
119.264	13.703	982.365	740.148
120.279	13.796	981.176	739.601
121.293	13.635	980.433	738.258
122.308	13.587	979.980	737.638
123.322	13.635	978.467	736.646
124.337	13.491	977.877	735.498
125.352	13.597	976.727	735.036
126.366	13.631	975.418	734.140
127.381	13.594	974.874	733.502
128.395	13.532	973.966	732.480
129.410	13.670	972.699	732.071
130.424	13.580	972.170	731.211
131.439	13.737	971.616	731.422
132.454	13.686	971.062	730.713
133.468	13.714	969.734	729.771
134.483	13.711	969.079	729.204
135.497	13.664	968.024	728.140
136.512	13.747	966.947	727.625
137.527	13.787	966.230	727.197
138.541	13.705	965.810	726.460
139.556	13.677	965.156	725.781
140.570	13.786	964.343	725.580
141.585	13.807	963.618	725.062
142.600	13.895	962.698	724.691
143.614	13.786	962.349	723.890
144.629	13.978	961.138	723.750
145.643	13.917	960.053	722.603
146.658	13.918	958.964	721.726
147.673	13.868	957.748	720.527
148.687	13.782	957.184	719.668
149.702	13.792	956.160	718.876
150.716	13.676	955.563	717.864
151.731	13.766	955.127	717.859
152.746	13.821	954.265	717.386
153.760	13.877	953.655	717.106
154.775	13.800	953.147	716.329
155.789	13.946	952.686	716.548
156.804	13.895	951.769	715.576
157.819	14.001	951.068	715.443
158.833	14.087	950.096	715.017
159.848	14.116	949.349	714.518
160.862	14.063	948.575	713.643
161.877	13.920	947.370	712.060
162.892	13.783	946.862	711.028
163.906	13.824	945.819	710.358
164.921	13.979	944.949	710.306
165.935	13.965	944.098	709.540
166.950	14.022	942.327	708.394
167.964	13.862	942.056	707.443
168.979	13.847	941.392	706.817
169.994	13.971	940.210	706.395
171.008	14.010	939.848	706.226
172.023	14.090	938.809	705.724
173.037	14.079	938.424	705.325
174.052	14.166	937.633	705.036
175.067	14.102	936.835	704.102
176.081	13.845	936.681	702.838
177.096	13.983	936.137	702.952
178.110	13.993	935.418	702.392
179.125	14.094	934.620	702.155
180.140	14.206	934.077	702.160
181.154	14.141	933.739	701.569
182.169	14.202	933.032	701.233
183.183	14.172	932.670	700.772
184.198	14.155	931.812	699.994
185.213	14.200	931.058	699.552
186.227	14.336	930.387	699.561
187.242	14.317	929.877	699.035
188.256	14.527	928.577	698.874
189.271	14.275	928.390	697.618
190.286	14.188	927.596	696.593
191.300	14.091	926.984	695.665
192.315	14.047	926.371	694.964
193.329	14.044	925.885	694.525
194.344	14.093	925.131	694.099
195.359	14.176	924.378	693.821
196.373	14.171	924.107	693.534
197.388	14.344	923.182	693.499
198.402	14.441	923.216	693.867
199.417	14.395	922.504	693.079
200.432	14.606	921.430	693.086
201.446	14.532	921.184	692.534
202.461	14.593	920.903	692.515
203.475	14.520	920.521	691.864
204.490	14.475	919.332	690.721
205.504	14.427	918.552	689.877
206.519	14.510	917.792	689.589
207.534	14.449	917.366	688.953
208.548	14.544	916.657	688.752
209.563	14.517	915.727	687.884
210.577	14.504	915.085	687.286
211.592	14.637	914.711	687.494
212.607	14.595	913.892	686.642
213.621	14.692	912.898	686.234
214.636	14.689	912.406	685.792
215.650	14.749	911.612	685.379
216.665	14.931	910.638	685.333
217.680	14.681	910.284	683.981
218.694	14.849	909.568	684.071
219.709	14.738	908.964	683.102
220.723	14.721	908.359	682.517
221.738	14.763	908.026	682.377
222.753	14.652	907.049	681.131
223.767	14.831	906.381	681.299
224.782	14.983	905.801	681.423
225.796	14.897	905.610	680.869
226.811	14.923	904.914	680.389
227.826	14.858	904.225	679.548
228.840	14.886	903.012	678.690
229.855	14.933	902.286	678.272
230.869	14.881	901.454	677.379
231.884	14.850	901.026	676.870
232.899	14.758	900.313	675.904
233.913	14.844	899.476	675.564
234.928	14.793	898.760	674.761
235.942	14.653	898.671	674.069
236.957	14.759	897.687	673.696
237.972	14.839	897.265	673.645
238.986	14.851	896.292	672.901
240.001	14.916	895.870	672.786
241.015	14.883	895.266	672.140
242.030	14.960	894.501	671.815
243.045	14.902	894.051	671.185
244.059	14.953	893.802	671.143
245.074	14.950	892.904	670.397
246.088	15.071	892.219	670.310
247.103	15.001	891.644	669.539
248.117	15.188	891.183	669.879
249.132	15.061	890.812	669.036
250.147	15.270	889.932	669.149
251.161	15.248	889.290	668.521
252.176	15.382	888.782	668.611
253.190	15.387	887.889	667.900
254.205	15.429	887.060	667.384
255.220	15.330	887.070	666.939
256.234	15.374	886.196	666.399
257.249	15.388	885.523	665.890
258.263	15.418	884.786	665.394
259.278	15.439	884.105	664.908
260.293	15.423	883.664	664.452
261.307	15.549	882.953	664.357
262.322	15.585	882.366	664.000
263.336	15.589	881.410	663.239
264.351	15.534	881.199	662.802
265.366	15.641	880.435	662.594
266.380	15.585	880.070	662.038
267.395	15.561	879.141	661.185
268.409	15.538	878.299	660.404
269.424	15.549	877.350	659.676
270.439	15.587	876.480	659.111
271.453	15.636	875.921	658.826
272.468	15.617	875.513	658.388
273.482	15.570	875.222	657.923
274.497	15.612	874.314	657.348
275.512	15.494	874.222	656.758
276.526	15.651	873.182	656.535
277.541	15.722	872.864	656.512
278.555	15.701	872.381	656.010
279.570	15.767	871.575	655.603
280.585	15.729	870.942	654.923
281.599	15.725	870.091	654.206
282.614	15.629	869.465	653.306
283.628	15.695	869.116	653.243
284.643	15.691	868.317	652.569
285.657	15.853	867.428	652.471
286.672	15.641	867.051	651.307
287.687	15.775	866.497	651.353
288.701	15.874	866.111	651.386
289.716	15.818	865.438	650.608
290.730	15.977	864.521	650.476
291.745	15.987	863.593	649.758
292.760	15.956	863.278	649.342
293.774	16.044	862.695	649.187
294.789	16.000	862.089	648.505
295.803	15.881	861.937	647.876
296.818	15.864	860.875	646.953
297.833	15.868	860.340	646.510
298.847	15.922	859.583	646.089
299.862	15.953	859.363	645.986
300.876	16.084	858.479	645.768
301.891	16.038	858.324	645.419
302.906	16.072	857.467	644.846
303.920	16.185	856.837	644.748
304.935	16.234	856.413	644.558
305.949	16.107	855.923	643.648
306.964	16.124	854.804	642.814
307.979	16.276	854.142	642.838
308.993	16.292	853.744	642.543
310.008	16.144	853.382	641.649
311.022	16.144	852.943	641.262
312.037	16.344	852.237	641.436
313.052	16.041	851.474	639.654
314.066	16.130	850.917	639.519
315.081	16.082	850.724	639.132
316.095	16.118	849.740	638.474
317.110	16.142	849.036	637.979
318.125	16.144	848.928	637.848
319.139	16.292	848.293	637.873
320.154	16.237	847.759	637.209
321.168	16.325	847.300	637.138
322.183	16.237	846.652	636.263
323.197	16.260	846.309	636.038
324.212	16.267	845.497	635.396
325.227	16.282	845.287	635.237
326.241	16.278	844.401	634.502
327.256	16.260	843.895	634.000
328.270	16.358	843.205	633.790
329.285	16.359	842.695	633.354
330.300	16.247	842.138	632.461
331.314	16.183	841.549	631.722
332.329	16.369	841.083	632.013
333.343	16.393	841.137	632.088
334.358	16.375	840.376	631.391
335.373	16.529	840.048	631.666
336.387	16.487	839.750	631.230
337.402	16.609	839.589	631.506
338.416	16.385	839.298	630.396
339.431	16.582	838.969	630.827
340.446	16.539	838.578	630.318
341.460	16.601	837.815	629.921
342.475	16.832	837.256	630.304
343.489	16.760	837.023	629.806
344.504	16.646	836.524	628.951
345.519	16.846	836.034	629.270
346.533	16.742	835.520	628.440
347.548	16.759	834.718	627.842
348.562	16.514	834.644	626.827
349.577	16.614	833.830	626.527
350.592	16.711	832.903	626.136
351.606	16.713	832.773	625.989
352.621	16.692	831.851	625.162
353.635	16.639	831.704	624.803
354.650	16.661	830.900	624.225
355.665	16.732	829.874	623.661
356.679	16.812	829.132	623.341
357.694	16.841	828.514	622.929
358.708	16.856	828.281	622.752
359.723	16.838	827.593	622.114
360.738	16.978	826.858	622.019
361.752	16.935	826.441	621.493
362.767	16.984	825.550	620.949
363.781	17.045	825.563	621.124
364.796	17.025	825.252	620.765
365.810	17.144	824.592	620.646
366.825	17.089	824.326	620.191
367.840	17.031	823.757	619.495
368.854	17.180	823.123	619.510
369.869	17.259	822.465	619.246
370.883	17.097	822.508	618.633
371.898	17.164	822.196	618.587
372.913	17.273	821.673	618.536
373.927	17.201	821.040	617.743
374.942	17.145	820.520	617.093
375.956	17.284	819.995	617.151
376.971	17.335	819.533	616.932
377.986	17.439	819.116	616.940
379.000	17.325	818.499	616.008
380.015	17.400	818.315	616.087
381.029	17.193	818.215	615.209
382.044	17.273	817.497	614.902
383.059	17.188	816.591	613.860
384.073	17.430	815.420	613.799
385.088	17.303	815.483	613.335
386.102	17.372	814.977	613.149
387.117	17.303	814.140	612.213
388.132	17.340	813.643	611.922
389.146	17.403	813.039	611.636
390.161	17.436	812.916	611.611
391.175	17.349	812.354	610.819
392.190	17.402	811.643	610.423
393.205	17.416	811.252	610.125
394.219	17.390	810.766	609.612
395.234	17.301	810.686	609.180
396.248	17.391	810.258	609.127
397.263	17.317	809.630	608.335
398.278	17.395	809.026	608.107
399.292	17.386	808.780	607.833
400.307	17.333	808.254	607.195
401.321	17.570	807.763	607.620
402.336	17.507	807.504	607.145
403.350	17.629	806.889	607.065
404.365	17.626	806.514	606.718
405.380	17.621	806.014	606.272
406.394	17.609	805.473	605.767
407.409	17.633	805.148	605.556
408.423	17.738	805.085	605.828
409.438	17.757	804.584	605.464
410.453	17.804	803.635	604.863
411.467	17.834	803.261	604.633
412.482	17.853	803.127	604.546
413.496	17.842	802.399	603.906
414.511	18.080	802.009	604.400
415.526	17.975	802.121	604.060
416.540	17.916	801.464	603.303
417.555	17.853	800.882	602.589
418.569	17.793	800.509	602.045
419.584	17.998	799.813	602.190
420.599	17.955	799.828	601.996
421.613	111.833	1294.631	1476.479
422.628	96.351	1366.697	1476.589
