DTS Sentinel unit serial number:	SN413079Multiplexer serial number:	ORYXHardware model number:	OX4-SRSoftware version number:	ORYX F/W v4.00 Oryx Data Collector v3.7.2.0data status	okinstallation	princeton_trtdifferential loss correction	single-endedforward channel	channel 1reverse channel	N/Adate	2019/09/18time	06:06:35forward acquisition time	60.00reverse acquisition time	0.00gamma	496.2192k internal	0.2339k external	0.2339temperature offset calibration	0.9980default loss term (dB/km)	0.3790temperature slope calibration	1.0000multiplexer offset coefficient	1.0000multiplexer slope coefficient	1.0000fibre end	0.00T internal ref (°C)	23.19T ext. ref 1 (°C)	0.19T ext. ref 2 (°C)	17.61length (m)	temperature (°C)	Stokes	anti-Stokes-747.200	-44.613	0.142	0.071
-746.185	-73.852	-0.248	0.090
-745.171	-124.867	0.210	0.032
-744.156	-200.000	-0.003	0.399
-743.142	-123.058	-0.229	0.037
-742.127	-5.579	-0.081	-0.056
-741.112	-102.808	0.156	0.037
-740.098	-48.330	0.101	0.049
-739.083	-135.975	-0.094	-0.011
-738.069	-186.995	-0.109	0.002
-737.054	-133.423	-0.136	-0.017
-736.039	34.420	-0.309	0.270
-735.025	-118.758	0.100	0.018
-734.010	800.000	0.055	-0.183
-732.996	-27.727	-0.191	-0.111
-731.981	-140.192	0.170	0.018
-730.966	-56.429	-0.310	-0.138
-729.952	800.000	-0.013	-0.042
-728.937	57.514	-0.219	-0.214
-727.923	330.966	0.184	-0.355
-726.908	-82.474	0.142	-0.046
-725.894	-77.277	-0.420	-0.146
-724.879	-200.000	-0.001	0.208
-723.864	323.533	-0.159	0.304
-722.850	800.000	-0.097	0.332
-721.835	-107.355	-0.175	0.039
-720.821	78.292	-0.201	-0.215
-719.806	192.157	-0.238	-0.359
-718.791	-200.000	-0.174	0.000
-717.777	-194.905	0.208	-0.002
-716.762	-200.000	-0.002	-0.159
-715.748	-200.000	-0.039	0.196
-714.733	-1.329	0.124	0.088
-713.718	-113.265	-0.199	0.039
-712.704	-74.272	0.235	-0.085
-711.689	-16.191	0.089	-0.056
-710.675	52.290	-0.188	-0.179
-709.660	-200.000	-0.013	0.127
-708.645	-96.225	-0.118	0.031
-707.631	24.106	0.192	0.158
-706.616	425.494	0.029	-0.062
-705.602	800.000	-0.140	-0.407
-704.587	-69.469	-0.328	-0.126
-703.572	95.374	0.266	-0.303
-702.558	247.433	-0.162	-0.275
-701.543	84.133	0.131	-0.143
-700.529	-3.268	0.091	0.063
-699.514	-111.272	0.131	-0.027
-698.499	15.173	-0.093	-0.073
-697.485	-200.000	-0.027	-0.168
-696.470	-5.735	0.076	-0.052
-695.456	-8.243	-0.302	-0.204
-694.441	88.619	0.205	0.229
-693.426	112.484	0.111	-0.134
-692.412	800.000	-0.076	-0.215
-691.397	1.412	-0.063	-0.045
-690.383	-200.000	-0.047	0.214
-689.368	118.623	-0.097	-0.120
-688.354	-33.856	-0.206	-0.113
-687.339	-35.111	0.096	0.052
-686.324	338.852	-0.009	-0.017
-685.310	-16.262	-0.160	-0.102
-684.295	-200.000	-0.025	0.137
-683.281	-116.750	0.346	-0.064
-682.266	-44.077	-0.215	-0.108
-681.251	80.600	-0.154	-0.166
-680.237	52.860	-0.102	-0.097
-679.222	-84.336	0.298	0.094
-678.208	129.387	-0.218	-0.279
-677.193	379.514	0.206	-0.422
-676.178	800.000	-0.046	0.156
-675.164	-131.798	-0.061	-0.008
-674.149	111.784	-0.127	-0.153
-673.135	99.665	-0.122	-0.141
-672.120	65.184	-0.100	-0.101
-671.105	121.483	0.052	-0.065
-670.091	278.350	0.103	0.183
-669.076	56.326	0.016	-0.016
-668.062	-103.314	-0.089	-0.021
-667.047	32.362	0.105	0.091
-666.032	-131.797	0.131	0.017
-665.018	-168.767	0.263	-0.010
-664.003	-200.000	-0.006	0.047
-662.989	492.276	-0.084	0.192
-661.974	229.401	0.148	0.241
-660.959	35.964	-0.029	0.026
-659.945	129.817	-0.147	-0.188
-658.930	5.683	0.184	-0.136
-657.916	708.696	-0.098	0.258
-656.901	-123.751	0.020	0.003
-655.886	25.781	-0.299	0.249
-654.872	-98.574	0.255	0.065
-653.857	18.113	-0.079	-0.063
-652.843	35.810	0.133	-0.117
-651.828	-0.230	-0.200	-0.142
-650.814	-62.786	-0.109	0.045
-649.799	-200.000	-0.018	-0.164
-648.784	-27.183	0.095	0.055
-647.770	-6.950	-0.112	-0.076
-646.755	-171.170	0.184	-0.006
-645.741	642.787	0.044	-0.113
-644.726	112.197	0.036	-0.044
-643.711	-200.000	0.011	0.082
-642.697	-200.000	-0.034	0.388
-641.682	-200.000	-0.000	-0.040
-640.668	113.912	-0.110	0.133
-639.653	294.493	-0.190	-0.347
-638.638	-76.868	-0.076	-0.027
-637.624	-200.000	0.034	0.176
-636.609	130.501	0.204	-0.261
-635.595	525.915	-0.052	-0.121
-634.580	80.274	0.139	-0.149
-633.565	-60.706	-0.269	0.114
-632.551	800.000	0.027	0.106
-631.536	-151.637	0.138	-0.010
-630.522	-134.491	-0.273	0.033
-629.507	-23.341	-0.309	-0.186
-628.492	-101.010	-0.162	0.040
-627.478	121.930	0.144	0.180
-626.463	-94.401	0.206	-0.056
-625.449	-157.333	0.117	0.007
-624.434	-52.060	-0.185	0.086
-623.419	-115.457	-0.105	0.020
-622.405	-183.945	0.131	-0.002
-621.390	98.814	0.017	-0.020
-620.376	-48.522	-0.182	0.087
-619.361	-168.611	0.201	0.008
-618.346	16.070	-0.256	-0.201
-617.332	-22.580	-0.061	-0.037
-616.317	45.695	-0.131	0.121
-615.303	-183.153	-0.199	-0.004
-614.288	182.233	0.131	-0.192
-613.273	800.000	-0.040	0.153
-612.259	-200.000	0.001	-0.046
-611.244	-46.472	0.068	-0.033
-610.230	65.827	0.237	-0.240
-609.215	-36.439	0.204	-0.110
-608.201	800.000	0.153	-0.438
-607.186	-148.083	-0.195	-0.016
-606.171	-151.635	0.379	0.028
-605.157	306.492	-0.132	0.244
-604.142	-200.000	-0.044	-0.201
-603.128	211.380	0.143	0.225
-602.113	21.825	-0.094	0.076
-601.098	44.401	0.119	0.109
-600.084	-200.000	0.032	-0.386
-599.069	298.908	-0.046	-0.084
-598.055	800.000	-0.075	0.309
-597.040	17.383	-0.102	-0.081
-596.025	-41.280	0.077	0.039
-595.011	169.876	-0.232	-0.331
-593.996	-200.000	-0.089	-0.440
-592.982	-6.939	0.209	0.142
-591.967	-41.763	0.394	0.201
-590.952	22.925	-0.302	0.247
-589.938	-130.879	-0.375	-0.050
-588.923	800.000	-0.049	-0.177
-587.909	-22.776	0.032	0.019
-586.894	-200.000	-0.006	0.120
-585.879	589.698	-0.084	0.207
-584.865	-134.544	0.268	0.033
-583.850	800.000	0.107	-0.409
-582.836	302.111	0.137	0.252
-581.821	-16.535	0.121	-0.077
-580.806	-111.873	-0.041	0.008
-579.792	-161.417	-0.070	0.004
-578.777	800.000	0.072	-0.284
-577.763	-78.863	-0.020	0.007
-576.748	61.079	0.070	-0.069
-575.733	800.000	0.114	0.329
-574.719	-200.000	-0.013	-0.226
-573.704	-139.498	-0.301	0.032
-572.690	120.302	0.119	-0.147
-571.675	30.450	0.073	-0.062
-570.661	800.000	-0.119	0.391
-569.646	-200.000	0.004	-0.177
-568.631	800.000	0.057	0.192
-567.617	-200.000	0.030	0.221
-566.602	-103.332	-0.418	0.098
-565.588	-22.265	0.353	-0.213
-564.573	-200.000	-0.038	0.187
-563.558	386.822	0.060	-0.122
-562.544	-122.338	0.220	-0.036
-561.529	-95.866	-0.132	-0.035
-560.515	-59.172	-0.084	-0.036
-559.500	9.896	0.332	0.251
-558.485	359.047	-0.090	0.179
-557.471	-200.000	-0.051	0.288
-556.456	369.777	0.168	0.339
-555.442	-200.000	0.028	0.321
-554.427	800.000	0.074	-0.208
-553.412	-125.601	-0.046	-0.007
-552.398	118.704	0.169	0.208
-551.383	31.444	-0.129	0.110
-550.369	-200.000	-0.006	-0.196
-549.354	-200.000	0.081	0.556
-548.339	43.436	-0.246	0.224
-547.325	-200.000	-0.026	-0.232
-546.310	-2.568	0.081	-0.057
-545.296	223.262	-0.063	0.102
-544.281	-28.064	-0.312	-0.180
-543.266	-10.281	-0.495	-0.327
-542.252	-200.000	0.024	-0.434
-541.237	169.596	-0.084	0.119
-540.223	-54.130	0.278	-0.126
-539.208	-68.575	-0.261	-0.100
-538.193	99.728	0.081	-0.093
-537.179	-200.000	0.200	0.000
-536.164	364.354	-0.134	-0.269
-535.150	30.146	0.143	-0.122
-534.135	22.347	-0.088	0.071
-533.121	-18.057	-0.159	-0.099
-532.106	800.000	0.101	-0.348
-531.091	-200.000	0.012	-0.074
-530.077	-118.875	-0.188	-0.033
-529.062	484.339	-0.136	-0.309
-528.048	-197.569	-0.349	0.002
-527.033	-107.356	0.303	-0.066
-526.018	408.161	0.059	-0.125
-525.004	-200.000	-0.007	-0.402
-523.989	-20.252	-0.140	0.086
-522.975	-146.169	0.327	-0.029
-521.960	-138.046	0.251	0.028
-520.945	83.796	-0.016	0.017
-519.931	800.000	0.051	0.176
-518.916	39.021	0.164	-0.146
-517.902	-76.669	-0.307	0.107
-516.887	-98.143	-0.068	-0.017
-515.872	621.676	-0.156	0.390
-514.858	-48.556	0.063	0.030
-513.843	-79.509	-0.295	-0.099
-512.829	-104.454	-0.055	-0.013
-511.814	199.732	0.065	0.100
-510.799	-6.285	0.248	0.168
-509.785	-5.589	-0.233	0.159
-508.770	-68.680	0.134	0.052
-507.756	-68.268	0.216	0.083
-506.741	-87.949	0.175	-0.052
-505.726	800.000	0.047	0.149
-504.712	-116.077	0.354	-0.065
-503.697	-26.604	-0.377	-0.219
-502.683	-38.793	-0.382	-0.200
-501.668	229.721	-0.107	0.173
-500.653	255.892	-0.053	-0.090
-499.639	89.625	-0.272	-0.301
-498.624	-48.966	0.198	0.094
-497.610	-200.000	-0.006	0.043
-496.595	-51.069	0.099	0.046
-495.581	-102.888	0.314	-0.074
-494.566	-42.358	0.048	0.024
-493.551	-105.260	-0.170	-0.039
-492.537	247.574	-0.176	-0.295
-491.522	800.000	-0.084	-0.266
-490.508	-200.000	0.048	-0.367
-489.493	-64.568	-0.141	-0.057
-488.478	-36.572	-0.103	0.055
-487.464	800.000	0.098	-0.408
-486.449	512.594	-0.073	-0.169
-485.435	-150.705	-0.093	0.007
-484.420	212.959	0.163	-0.256
-483.405	-151.019	-0.187	0.014
-482.391	-45.725	-0.309	0.151
-481.376	247.893	-0.104	0.175
-480.362	-170.256	0.255	0.009
-479.347	-200.000	0.001	-0.417
-478.332	69.178	0.108	-0.110
-477.318	-105.054	0.216	0.049
-476.303	45.747	0.214	-0.196
-475.289	-109.735	-0.262	0.055
-474.274	800.000	0.077	0.248
-473.259	-184.270	0.178	-0.003
-472.245	-40.127	-0.094	0.048
-471.230	-64.758	0.106	0.043
-470.216	58.127	-0.139	-0.135
-469.201	800.000	0.053	-0.154
-468.186	-200.000	0.029	0.439
-467.172	25.891	-0.183	0.151
-466.157	-72.552	-0.101	0.037
-465.143	391.564	0.124	-0.255
-464.128	-200.000	0.062	-0.521
-463.113	-111.908	-0.080	-0.016
-462.099	-200.000	0.020	0.169
-461.084	-53.616	-0.336	0.152
-460.070	800.000	0.075	0.270
-459.055	145.222	0.056	-0.075
-458.040	327.987	0.049	-0.094
-457.026	757.684	-0.110	-0.296
-456.011	236.780	0.062	0.103
-454.997	88.353	0.087	-0.095
-453.982	800.000	-0.040	-0.131
-452.968	-51.385	-0.182	0.085
-451.953	-115.879	0.245	0.045
-450.938	112.119	-0.029	-0.034
-449.924	-97.940	-0.261	0.067
-448.909	-31.369	0.149	-0.083
-447.895	-40.457	-0.397	0.204
-446.880	-117.247	-0.181	-0.033
-445.865	-29.913	0.233	-0.131
-444.851	-116.567	0.035	-0.006
-443.836	268.504	-0.058	-0.101
-442.822	-123.334	-0.120	0.019
-441.807	205.116	0.099	0.152
-440.792	-6.480	-0.174	0.117
-439.778	-200.000	0.018	0.085
-438.763	455.175	0.097	0.212
-437.749	-200.000	-0.000	0.111
-436.734	74.984	-0.201	-0.210
-435.719	-200.000	0.041	0.359
-434.705	800.000	0.054	-0.184
-433.690	-200.000	-0.033	-0.161
-432.676	-137.000	0.332	-0.038
-431.661	-145.667	-0.329	0.029
-430.646	-95.102	0.492	-0.132
-429.632	70.678	-0.054	0.056
-428.617	8.653	-0.142	0.106
-427.603	217.923	0.235	0.371
-426.588	-45.576	0.229	0.112
-425.573	44.038	0.192	-0.174
-424.559	241.738	-0.099	-0.163
-423.544	800.000	-0.083	0.346
-422.530	-200.000	-0.004	-0.093
-421.515	38.869	0.129	-0.114
-420.500	67.519	-0.260	-0.263
-419.486	-110.183	0.168	0.035
-418.471	2.559	-0.211	-0.152
-417.457	541.133	-0.118	-0.279
-416.442	300.611	0.054	-0.098
-415.428	89.809	0.351	-0.387
-414.413	-118.800	0.357	0.062
-413.398	-200.000	-0.007	0.076
-412.384	176.812	0.123	0.178
-411.369	-173.951	0.118	0.003
-410.355	-200.000	0.000	-0.056
-409.340	-170.698	-0.196	0.007
-408.325	800.000	0.026	-0.103
-407.311	64.487	0.234	-0.233
-406.296	-200.000	0.007	-0.202
-405.282	305.813	0.052	0.095
-404.267	-200.000	0.010	0.135
-403.252	105.175	-0.167	-0.195
-402.238	-200.000	-0.047	0.326
-401.223	268.694	0.078	-0.135
-400.209	-129.383	-0.286	0.039
-399.194	-78.406	0.099	0.033
-398.179	-200.000	-0.002	-0.077
-397.165	554.545	0.077	0.183
-396.150	22.715	-0.040	-0.033
-395.136	-200.000	-0.016	-0.101
-394.121	-90.816	-0.084	-0.024
-393.106	19.951	-0.124	0.099
-392.092	-155.634	-0.209	0.013
-391.077	64.271	0.217	-0.216
-390.063	-132.677	-0.200	0.025
-389.048	-88.006	0.134	-0.040
-388.033	-106.379	0.061	-0.013
-387.019	-200.000	0.002	-0.012
-386.004	-120.850	0.146	-0.024
-384.990	-93.671	0.083	-0.023
-383.975	173.608	-0.151	-0.215
-382.960	770.106	0.032	0.087
-381.946	469.676	0.132	0.294
-380.931	230.264	-0.222	0.359
-379.917	-122.131	0.253	0.041
-378.902	577.474	0.143	0.345
-377.888	800.000	-0.044	0.176
-376.873	800.000	-0.028	-0.102
-375.858	-96.978	0.197	0.051
-374.844	100.150	-0.075	0.086
-373.829	69.314	-0.150	0.153
-372.815	548.980	-0.079	-0.186
-371.800	7.694	-0.214	0.158
-370.785	46.031	0.039	-0.035
-369.771	-200.000	0.030	0.177
-368.756	-98.780	-0.104	-0.026
-367.742	800.000	0.039	-0.155
-366.727	184.411	-0.073	0.107
-365.712	800.000	-0.036	0.107
-364.698	-200.000	-0.098	0.582
-363.683	301.330	-0.067	-0.122
-362.669	-49.948	-0.250	-0.117
-361.654	-200.000	0.040	-0.196
-360.639	66.433	0.158	0.158
-359.625	33.407	0.071	-0.061
-358.610	-119.513	0.227	-0.039
-357.596	473.219	0.034	-0.076
-356.581	800.000	0.098	0.299
-355.566	38.264	0.254	0.223
-354.552	-3.295	-0.274	-0.188
-353.537	-144.843	0.199	0.018
-352.523	-123.549	-0.211	-0.033
-351.508	158.753	0.081	-0.112
-350.493	-101.053	0.158	-0.038
-349.479	-80.127	0.171	0.056
-348.464	-164.072	-0.158	-0.007
-347.450	69.527	0.043	-0.044
-346.435	-57.327	0.078	0.034
-345.420	-200.000	0.059	-0.272
-344.406	22.185	-0.344	-0.277
-343.391	99.108	-0.237	0.270
-342.377	476.362	0.117	0.261
-341.362	82.649	0.236	0.253
-340.348	-150.317	-0.177	-0.013
-339.333	-200.000	-0.038	-0.259
-338.318	-75.047	0.267	-0.094
-337.304	-148.786	0.147	0.012
-336.289	18.419	-0.207	0.163
-335.275	76.681	-0.045	-0.047
-334.260	268.408	-0.147	0.253
-333.245	64.990	0.138	-0.138
-332.231	-125.797	-0.280	-0.042
-331.216	223.373	0.177	0.281
-330.202	571.852	-0.073	-0.176
-329.187	-68.145	-0.082	-0.032
-328.172	-113.096	-0.128	-0.025
-327.158	-114.664	0.312	0.059
-326.143	-200.000	-0.036	0.260
-325.129	-200.000	-0.019	-0.176
-324.114	-5.965	0.163	-0.110
-323.099	-65.810	0.087	0.034
-322.085	416.319	0.068	-0.143
-321.070	104.822	0.188	-0.218
-320.056	196.879	-0.168	0.252
-319.041	-200.000	-0.005	-0.395
-318.026	71.815	-0.065	0.067
-317.012	104.188	0.121	0.141
-315.997	-137.396	-0.372	0.042
-314.983	28.377	-0.023	0.019
-313.968	-200.000	-0.030	0.524
-312.953	79.547	0.375	0.397
-311.939	-59.979	-0.344	-0.145
-310.924	-19.977	0.338	-0.205
-309.910	57.821	0.226	0.218
-308.895	-125.029	0.372	0.056
-307.880	19.241	-0.118	0.093
-306.866	151.905	-0.100	-0.134
-305.851	-157.131	0.085	0.005
-304.837	-39.645	0.146	0.075
-303.822	70.394	-0.215	0.219
-302.807	-200.000	-0.027	0.260
-301.793	37.240	0.173	0.151
-300.778	-190.485	0.231	-0.002
-299.764	46.769	0.118	-0.108
-298.749	-35.463	0.158	0.085
-297.735	-82.341	-0.156	0.050
-296.720	157.066	-0.192	0.262
-295.705	539.707	0.111	-0.259
-294.691	-132.482	0.142	-0.018
-293.676	-77.940	-0.309	-0.105
-292.662	124.529	0.202	0.251
-291.647	-192.245	0.219	-0.002
-290.632	30.621	0.099	0.084
-289.618	-128.048	-0.193	0.027
-288.603	63.745	-0.180	-0.178
-287.589	-200.000	0.026	-0.128
-286.574	263.470	0.139	0.237
-285.559	-68.468	0.148	0.056
-284.545	-113.213	-0.596	0.116
-283.530	-63.124	-0.083	0.034
-282.516	327.239	0.036	0.068
-281.501	-200.000	0.037	0.167
-280.486	-40.147	0.092	0.047
-279.472	-200.000	-0.026	0.118
-278.457	433.100	0.053	0.113
-277.443	-200.000	0.009	0.299
-276.428	107.701	0.133	0.156
-275.413	9.052	-0.123	-0.091
-274.399	-200.000	-0.054	-0.373
-273.384	-114.738	-0.340	0.064
-272.370	800.000	-0.033	0.103
-271.355	-70.396	0.239	-0.089
-270.340	59.556	-0.095	-0.092
-269.326	-26.987	0.050	0.029
-268.311	60.717	0.172	0.168
-267.297	221.008	-0.162	0.256
-266.282	126.120	0.160	0.199
-265.267	-149.771	-0.075	0.006
-264.253	-143.159	0.110	0.010
-263.238	-91.361	-0.185	-0.052
-262.224	105.313	0.208	-0.241
-261.209	-40.163	-0.361	-0.185
-260.195	-200.000	-0.008	0.050
-259.180	153.701	-0.101	-0.137
-258.165	-61.754	0.220	-0.090
-257.151	64.509	-0.393	-0.390
-256.136	493.609	0.154	0.347
-255.122	-17.839	-0.176	-0.108
-254.107	-169.255	0.178	-0.006
-253.092	-54.198	0.202	-0.090
-252.078	-3.578	-0.285	0.195
-251.063	-4.803	-0.220	-0.149
-250.049	176.041	0.275	-0.392
-249.034	144.677	-0.232	0.304
-248.019	155.184	0.289	-0.391
-247.005	188.575	0.070	-0.103
-245.990	-101.639	-0.079	-0.019
-244.976	-200.000	-0.004	-0.295
-243.961	44.646	-0.240	0.217
-242.946	57.117	0.282	0.270
-241.932	0.893	0.230	-0.162
-240.917	203.900	0.279	0.424
-239.903	800.000	0.028	0.079
-238.888	133.307	0.140	-0.178
-237.873	425.500	-0.197	0.418
-236.859	311.391	0.049	0.090
-235.844	-200.000	0.001	0.071
-234.830	-52.549	0.263	-0.120
-233.815	-18.729	-0.031	-0.019
-232.800	-200.000	0.006	0.221
-231.786	-149.090	-0.263	-0.021
-230.771	800.000	-0.046	-0.139
-229.757	370.679	0.079	0.157
-228.742	-0.736	0.402	-0.280
-227.727	94.094	-0.186	-0.208
-226.713	146.418	-0.056	-0.074
-225.698	297.435	-0.289	0.522
-224.684	-71.606	0.228	0.084
-223.669	217.608	-0.125	-0.195
-222.655	-175.579	-0.406	-0.011
-221.640	800.000	-0.089	0.276
-220.625	-52.482	0.275	-0.125
-219.611	-154.123	-0.305	-0.020
-218.596	-38.667	-0.328	0.170
-217.582	-41.497	0.324	-0.164
-216.567	-94.717	0.197	0.052
-215.552	36.166	-0.259	0.224
-214.538	-189.834	0.309	0.003
-213.523	55.726	0.250	-0.238
-212.509	-85.419	-0.415	0.127
-211.494	291.413	0.224	0.399
-210.479	-147.071	-0.159	0.013
-209.465	2.146	0.100	0.071
-208.450	-111.278	-0.133	0.027
-207.436	-147.647	-0.281	0.023
-206.421	800.000	0.046	-0.149
-205.406	-166.202	0.206	-0.009
-204.392	-165.773	-0.136	-0.006
-203.377	-200.000	-0.015	-0.156
-202.363	-200.000	-0.018	-0.128
-201.348	258.768	0.095	-0.161
-200.333	-87.152	-0.149	-0.044
-199.319	-2.281	-0.109	-0.075
-198.304	-68.759	0.217	0.082
-197.290	-55.958	0.224	-0.098
-196.275	-139.128	0.191	0.020
-195.260	276.816	0.065	-0.113
-194.246	61.188	0.016	0.016
-193.231	11.242	-0.258	0.194
-192.217	58.734	-0.088	-0.085
-191.202	58.392	0.140	0.135
-190.187	-200.000	0.024	-0.145
-189.173	-13.547	0.252	-0.160
-188.158	214.028	-0.176	-0.273
-187.144	-20.252	-0.091	0.055
-186.129	-200.000	0.030	-0.360
-185.114	455.272	-0.025	-0.055
-184.100	253.651	0.073	-0.122
-183.085	-109.098	-0.558	0.116
-182.071	-103.068	0.129	0.030
-181.056	-21.540	-0.106	0.064
-180.042	-200.000	0.028	-0.148
-179.027	-121.717	-0.373	0.060
-178.012	-32.019	0.219	0.120
-176.998	-179.236	0.221	0.005
-175.983	261.428	-0.007	0.012
-174.969	-200.000	0.051	-0.223
-173.954	102.990	0.175	0.201
-172.939	800.000	-0.065	-0.236
-171.925	800.000	-0.113	-0.316
-170.910	39.521	0.125	0.110
-169.896	-49.383	-0.151	0.071
-168.881	-200.000	0.022	-0.102
-167.866	-200.000	-0.002	0.121
-166.852	538.810	-0.033	-0.077
-165.837	-200.000	0.004	0.178
-164.823	-60.596	0.145	-0.061
-163.808	-179.760	0.092	0.002
-162.793	-200.000	-0.015	-0.112
-161.779	-200.000	0.013	0.089
-160.764	14.834	0.105	-0.081
-159.750	800.000	0.011	-0.044
-158.735	-62.435	-0.502	0.205
-157.720	263.506	0.102	0.174
-156.706	-50.766	0.175	-0.081
-155.691	-93.127	0.053	0.015
-154.677	-200.000	0.008	0.410
-153.662	800.000	0.061	0.239
-152.647	-200.000	-0.001	-0.091
-151.633	-200.000	0.032	0.181
-150.618	-63.808	0.322	0.129
-149.604	-200.000	0.014	-0.096
-148.589	800.000	-0.110	-0.327
-147.574	-72.966	0.126	0.045
-146.560	324.786	-0.089	0.167
-145.545	800.000	0.036	0.133
-144.531	-28.820	-0.262	-0.148
-143.516	-8.850	-0.291	0.191
-142.502	43.672	-0.210	0.188
-141.487	628.128	0.034	0.083
-140.472	509.009	-0.096	0.219
-139.458	-26.420	-0.335	0.192
-138.443	-143.106	-0.159	0.015
-137.429	-48.928	-0.298	-0.140
-136.414	-53.150	-0.247	-0.111
-135.399	-169.921	0.122	-0.004
-134.385	800.000	0.056	-0.184
-133.370	-200.000	-0.012	-0.066
-132.356	-150.567	0.120	0.009
-131.341	61.093	0.227	0.221
-130.326	-161.490	0.048	0.002
-129.312	4.792	0.318	0.229
-128.297	-200.000	-0.010	-0.127
-127.283	218.739	0.077	-0.121
-126.268	20.767	-0.165	-0.130
-125.253	-49.756	0.319	0.148
-124.239	-150.731	-0.230	-0.017
-123.224	-57.364	-0.111	0.048
-122.210	46.883	0.122	0.111
-121.195	-152.947	-0.170	0.012
-120.180	668.950	0.033	0.083
-119.166	-200.000	-0.000	-0.106
-118.151	-200.000	0.011	-0.051
-117.137	-200.000	-0.018	0.263
-116.122	20.712	-0.213	-0.169
-115.107	800.000	0.104	0.398
-114.093	125.119	-0.369	0.455
-113.078	501.050	-0.199	-0.449
-112.064	-24.790	-0.309	0.180
-111.049	-200.000	-0.012	0.186
-110.034	-88.514	-0.229	0.067
-109.020	122.195	-0.085	-0.104
-108.005	76.083	0.033	-0.035
-106.991	-178.556	0.192	0.004
-105.976	-66.958	-0.298	0.115
-104.962	61.063	0.157	0.152
-103.947	-159.627	-0.193	0.010
-102.932	452.973	0.020	0.044
-101.918	-160.403	-0.219	0.011
-100.903	-128.773	-0.561	0.077
-99.889	9.776	-0.330	0.245
-98.874	-200.000	0.046	0.375
-97.859	-200.000	0.002	0.018
-96.845	164.592	-0.195	0.269
-95.830	-200.000	-0.010	-0.341
-94.816	-124.116	0.292	0.045
-93.801	-200.000	0.009	0.429
-92.786	460.490	-0.149	-0.325
-91.772	341.923	0.095	-0.182
-90.757	-93.429	-0.217	0.059
-89.743	-84.728	-0.195	-0.060
-88.728	223.229	0.100	0.158
-87.713	-200.000	-0.017	-0.392
-86.699	263.319	-0.026	-0.044
-85.684	37.864	0.155	0.135
-84.670	-135.132	0.079	0.009
-83.655	-61.992	-0.151	0.062
-82.640	415.500	-0.074	0.153
-81.626	29.893	-0.209	0.174
-80.611	-63.853	-0.035	0.014
-79.597	-5.682	0.148	0.099
-78.582	23.324	-0.280	-0.224
-77.567	-200.000	-0.017	0.260
-76.553	58.194	-0.153	0.146
-75.538	28.889	-0.219	-0.181
-74.524	800.000	-0.055	-0.233
-73.509	95.539	0.113	0.126
-72.494	800.000	0.020	0.057
-71.480	-132.542	-0.422	0.053
-70.465	120.520	0.241	0.292
-69.451	-200.000	-0.006	-0.042
-68.436	-140.953	-0.118	-0.012
-67.422	146.029	-0.101	0.132
-66.407	307.307	-0.132	-0.240
-65.392	800.000	-0.074	-0.279
-64.378	147.293	0.247	-0.325
-63.363	-118.503	-0.017	-0.003
-62.349	46.599	-0.103	-0.094
-61.334	18.890	-1.189	-0.930
-60.319	17.593	0.858	0.666
-59.305	330.451	-0.687	-1.292
-58.290	344.542	0.805	1.542
-57.276	-200.000	0.151	1.559
-56.261	-200.000	124.956	648.715
-55.246	404.468	1578.475	3245.983
-54.232	141.191	2738.337	3535.870
-53.217	94.828	2167.004	2406.131
-52.203	34.773	1596.611	1362.770
-51.188	26.303	1339.618	1092.425
-50.173	23.884	1302.369	1047.769
-49.159	51.937	1371.716	1274.637
-48.144	48.596	1382.835	1264.715
-47.130	26.552	1331.104	1086.800
-46.115	23.304	1312.546	1052.344
-45.100	23.126	1307.072	1046.859
-44.086	23.148	1304.076	1044.546
-43.071	23.082	1301.985	1042.442
-42.057	23.046	1300.121	1040.695
-41.042	23.085	1298.414	1039.517
-40.027	23.168	1296.890	1038.746
-39.013	23.070	1294.876	1036.515
-37.998	23.072	1293.301	1035.225
-36.984	23.197	1291.360	1034.360
-35.969	23.051	1289.789	1032.211
-34.954	23.129	1288.176	1031.336
-33.940	23.190	1286.645	1030.420
-32.925	23.201	1285.664	1029.658
-31.911	23.306	1283.796	1028.734
-30.896	23.245	1282.986	1027.687
-29.881	23.342	1281.459	1026.987
-28.867	23.231	1280.154	1025.261
-27.852	23.285	1278.834	1024.472
-26.838	23.350	1277.238	1023.529
-25.823	23.336	1275.908	1022.339
-24.809	23.243	1274.599	1020.717
-23.794	23.289	1273.026	1019.680
-22.779	23.304	1271.608	1018.593
-21.765	23.308	1270.656	1017.809
-20.750	23.251	1269.449	1016.477
-19.736	23.143	1268.229	1014.842
-18.721	23.181	1267.124	1014.133
-17.706	23.169	1265.535	1012.754
-16.692	23.123	1264.548	1011.657
-15.677	23.263	1263.138	1011.292
-14.663	23.053	1262.603	1009.622
-13.648	23.148	1261.267	1009.055
-12.633	23.029	1260.321	1007.582
-11.619	23.255	1259.386	1008.080
-10.604	23.162	1259.065	1007.253
-9.590	23.189	1257.988	1006.507
-8.575	23.134	1257.059	1005.408
-7.560	23.088	1255.936	1004.213
-6.546	23.106	1255.431	1003.871
-5.531	23.146	1254.152	1003.036
-4.517	23.068	1253.965	1002.401
-3.502	23.194	1252.860	1002.194
-2.487	23.171	1251.634	1001.043
-1.473	23.148	1247.624	997.665
-0.458	21.718	1232.488	977.552
0.556	16.866	1217.906	942.466
1.571	13.439	1225.325	928.919
2.586	12.915	1241.769	938.325
3.600	13.186	1229.673	930.629
4.615	9.725	1157.086	857.246
5.629	3.220	1086.681	772.452
6.644	0.353	1069.219	745.801
7.659	0.044	1067.780	743.203
8.673	0.185	1066.403	742.875
9.688	0.179	1065.316	742.023
10.702	0.279	1063.139	740.935
11.717	4.178	1067.497	763.131
12.731	11.146	1076.249	803.806
13.746	15.725	1081.961	830.670
14.761	16.661	1083.444	836.360
15.775	16.081	1081.412	831.859
16.790	15.035	1079.804	825.390
17.804	14.478	1077.818	821.056
18.819	14.078	1076.645	818.125
19.834	13.751	1076.104	816.030
20.848	13.588	1074.856	814.210
21.863	13.360	1074.287	812.587
22.877	13.275	1073.378	811.414
23.892	13.183	1072.634	810.329
24.907	13.079	1072.143	809.375
25.921	13.132	1071.468	809.052
26.936	13.267	1070.295	808.755
27.950	13.302	1069.706	808.411
28.965	13.284	1068.504	807.341
29.980	13.280	1067.112	806.200
30.994	13.465	1066.090	806.260
32.009	13.461	1064.663	805.089
33.023	13.492	1063.603	804.364
34.038	13.410	1062.976	803.421
35.053	13.372	1061.750	802.240
36.067	13.337	1061.107	801.515
37.082	13.234	1060.513	800.495
38.096	13.377	1059.390	800.271
39.111	13.393	1058.417	799.542
40.126	13.245	1057.590	798.131
41.140	13.172	1056.417	796.824
42.155	13.179	1054.962	795.690
43.169	13.098	1053.916	794.440
44.184	13.131	1053.200	793.987
45.199	13.120	1052.206	793.114
46.213	13.273	1050.949	792.832
47.228	13.183	1050.056	791.657
48.242	13.092	1049.022	790.374
49.257	13.221	1047.508	789.776
50.271	13.303	1047.326	789.963
51.286	13.254	1046.411	788.967
52.301	13.231	1045.037	787.751
53.315	13.228	1044.352	787.154
54.330	13.277	1043.148	786.407
55.344	13.276	1042.192	785.614
56.359	13.214	1041.748	784.913
57.374	13.167	1040.809	783.916
58.388	13.235	1039.540	783.214
59.403	13.110	1039.273	782.349
60.417	13.188	1038.370	781.967
61.432	13.142	1037.387	780.942
62.447	12.897	1036.991	779.416
63.461	12.996	1036.244	779.253
64.476	13.098	1035.245	778.916
65.490	13.107	1033.962	777.924
66.505	13.098	1033.335	777.340
67.520	13.187	1032.833	777.315
68.534	13.187	1031.936	776.568
69.549	13.118	1031.650	775.962
70.563	13.125	1030.306	774.912
71.578	13.081	1029.483	774.019
72.593	12.988	1028.917	773.091
73.607	13.050	1028.279	772.834
74.622	13.132	1027.498	772.560
75.636	13.108	1026.703	771.784
76.651	13.110	1025.988	771.186
77.666	13.009	1025.768	770.483
78.680	13.021	1024.928	769.841
79.695	12.979	1024.494	769.247
80.709	13.122	1023.856	769.369
81.724	13.239	1022.819	769.065
82.739	13.129	1022.079	767.929
83.753	13.229	1021.206	767.669
84.768	13.255	1020.370	767.095
85.782	13.310	1019.290	766.467
86.797	13.210	1018.738	765.523
87.812	13.289	1017.808	765.124
88.826	13.249	1016.799	764.109
89.841	13.230	1015.972	763.332
90.855	13.295	1015.116	762.924
91.870	13.426	1014.164	762.745
92.884	13.484	1013.240	762.250
93.899	13.402	1012.597	761.322
94.914	13.438	1012.014	760.979
95.928	13.486	1010.937	760.324
96.943	13.418	1010.217	759.403
97.957	13.427	1009.055	758.506
98.972	13.339	1008.421	757.555
99.987	13.329	1007.745	756.936
101.001	13.319	1006.883	756.178
102.016	13.438	1005.736	755.792
103.030	13.360	1005.145	754.924
104.045	13.429	1004.263	754.510
105.060	13.298	1003.309	753.128
106.074	13.299	1002.498	752.457
107.089	13.298	1001.795	751.861
108.103	13.147	1001.043	750.543
109.118	13.344	999.254	750.029
110.133	13.272	998.545	749.104
111.147	13.312	997.786	748.649
112.162	13.273	997.172	747.945
113.176	13.339	996.430	747.619
114.191	13.348	995.496	746.894
115.206	13.424	994.688	746.567
116.220	13.334	993.744	745.387
117.235	13.309	992.998	744.648
118.249	13.349	992.463	744.360
119.264	13.360	991.404	743.548
120.279	13.333	990.651	742.796
121.293	13.347	990.080	742.365
122.308	13.207	989.373	741.144
123.322	13.184	988.416	740.257
124.337	13.342	986.818	739.703
125.352	13.313	985.963	738.864
126.366	13.276	985.187	738.056
127.381	13.202	983.515	736.404
128.395	13.318	982.594	736.169
129.410	13.327	981.893	735.618
130.424	13.183	981.323	734.486
131.439	13.422	980.058	734.534
132.454	13.376	979.697	733.996
133.468	13.246	978.796	732.679
134.483	13.319	977.740	732.145
135.497	13.447	976.734	731.896
136.512	13.331	976.557	731.185
137.527	13.400	975.191	730.400
138.541	13.329	974.608	729.585
139.556	13.434	974.013	729.538
140.570	13.509	973.320	729.286
141.585	13.444	972.279	728.154
142.600	13.437	971.318	727.343
143.614	13.456	970.345	726.631
144.629	13.499	969.848	726.385
145.643	13.511	969.052	725.775
146.658	13.490	967.895	724.756
147.673	13.368	967.072	723.538
148.687	13.554	966.053	723.528
149.702	13.449	965.162	722.336
150.716	13.354	964.779	721.573
151.731	13.615	963.602	721.765
152.746	13.554	963.389	721.274
153.760	13.430	962.995	720.375
154.775	13.552	962.691	720.618
155.789	13.397	961.672	719.115
156.804	13.626	960.521	719.185
157.819	13.679	959.747	718.772
158.833	13.617	959.408	718.186
159.848	13.671	958.568	717.726
160.862	13.543	957.926	716.630
161.877	13.524	956.588	715.485
162.892	13.632	955.767	715.272
163.906	13.513	954.890	714.040
164.921	13.644	953.986	713.863
165.935	13.660	953.188	713.275
166.950	13.650	952.001	712.277
167.964	13.788	951.079	712.118
168.979	13.512	950.297	710.287
169.994	13.562	949.509	709.847
171.008	13.609	949.036	709.635
172.023	13.789	948.172	709.695
173.037	13.771	947.448	709.014
174.052	13.855	946.682	708.737
175.067	13.659	946.348	707.586
176.081	13.616	945.474	706.689
177.096	13.697	945.273	706.819
178.110	13.674	944.330	705.952
179.125	13.831	943.677	706.070
180.140	13.829	943.246	705.679
181.154	13.741	943.071	705.109
182.169	13.786	942.381	704.725
183.183	13.885	941.385	704.338
184.198	13.893	940.763	703.842
185.213	13.857	939.800	702.909
186.227	13.825	939.248	702.294
187.242	13.939	938.727	702.327
188.256	14.073	937.827	702.159
189.271	13.937	937.122	700.995
190.286	13.864	936.402	700.083
191.300	13.643	935.923	698.732
192.315	13.828	934.917	698.701
193.329	13.755	934.831	698.264
194.344	13.790	933.864	697.629
195.359	13.860	933.526	697.607
196.373	13.982	932.308	697.148
197.388	13.865	932.882	697.026
198.402	14.132	931.645	697.157
199.417	14.036	930.997	696.212
200.432	14.037	930.869	696.056
201.446	14.198	930.202	696.171
202.461	14.212	929.451	695.606
203.475	14.064	928.985	694.576
204.490	14.145	927.775	693.947
205.504	14.185	927.496	693.844
206.519	14.078	926.768	692.795
207.534	14.103	925.965	692.234
208.548	14.136	925.260	691.783
209.563	14.135	924.580	691.211
210.577	14.279	923.643	691.047
211.592	14.271	923.582	690.908
212.607	14.286	922.339	689.977
213.621	14.321	921.466	689.410
214.636	14.337	921.037	689.092
215.650	14.390	920.135	688.577
216.665	14.461	919.241	688.139
217.680	14.480	918.561	687.647
218.694	14.296	918.292	686.628
219.709	14.293	917.427	685.909
220.723	14.365	916.932	685.771
221.738	14.351	916.359	685.225
222.753	14.531	915.380	685.175
223.767	14.468	915.575	684.998
224.782	14.504	914.372	684.189
225.796	14.490	913.922	683.730
226.811	14.455	913.311	683.071
227.826	14.379	912.650	682.203
228.840	14.536	911.427	681.872
229.855	14.557	910.770	681.405
230.869	14.449	910.564	680.752
231.884	14.545	909.615	680.374
232.899	14.531	908.723	679.587
233.913	14.426	908.390	678.849
234.928	14.546	907.553	678.655
235.942	14.587	906.355	677.864
236.957	14.494	906.286	677.375
237.972	14.569	905.604	677.110
238.986	14.528	905.121	676.525
240.001	14.584	904.327	676.095
241.015	14.588	903.531	675.457
242.030	14.537	903.026	674.813
243.045	14.754	902.423	675.182
244.059	14.611	902.086	674.293
245.074	14.694	901.237	673.933
246.088	14.602	900.920	673.265
247.103	14.750	899.621	672.831
248.117	14.777	899.902	673.090
249.132	14.838	898.863	672.498
250.147	14.942	897.800	672.062
251.161	14.898	897.890	671.891
252.176	14.828	897.097	670.959
253.190	14.925	896.098	670.543
254.205	14.824	895.930	669.949
255.220	14.830	895.284	669.433
256.234	15.022	894.175	669.314
257.249	15.073	893.287	668.793
258.263	14.974	892.903	668.052
259.278	15.060	892.013	667.667
260.293	15.011	891.598	667.103
261.307	15.072	891.218	667.001
262.322	15.115	890.318	666.440
263.336	15.094	889.546	665.722
264.351	15.258	888.834	665.780
265.366	15.261	888.086	665.172
266.380	15.129	887.691	664.296
267.395	15.173	887.081	663.954
268.409	15.260	886.087	663.497
269.424	15.167	885.261	662.451
270.439	15.186	884.741	662.078
271.453	15.208	884.060	661.597
272.468	15.254	883.820	661.539
273.482	15.145	883.235	660.614
274.497	15.338	882.173	660.519
275.512	15.262	881.884	659.947
276.526	15.310	881.369	659.692
277.541	15.301	881.077	659.381
278.555	15.348	880.168	658.827
279.570	15.449	879.205	658.443
280.585	15.431	878.828	658.031
281.599	15.356	877.626	656.781
282.614	15.366	877.458	656.636
283.628	15.248	876.888	655.688
284.643	15.420	875.948	655.600
285.657	15.418	875.483	655.185
286.672	15.488	875.121	655.131
287.687	15.612	874.163	654.840
288.701	15.627	873.490	654.337
289.716	15.589	872.811	653.622
290.730	15.574	872.497	653.269
291.745	15.680	871.876	653.159
292.760	15.571	871.420	652.336
293.774	15.576	870.606	651.689
294.789	15.542	870.323	651.285
295.803	15.705	869.412	651.178
296.818	15.619	868.736	650.283
297.833	15.560	868.256	649.635
298.847	15.592	867.635	649.237
299.862	15.822	866.622	649.309
300.876	15.648	866.747	648.675
301.891	15.675	865.817	648.027
302.906	15.846	864.929	647.963
303.920	15.862	864.441	647.600
304.935	15.897	864.184	647.486
305.949	15.824	863.494	646.630
306.964	15.815	863.011	646.180
307.979	16.014	862.109	646.210
308.993	15.805	862.031	645.293
310.008	15.895	861.321	645.047
311.022	15.880	860.476	644.302
312.037	15.934	859.871	643.996
313.052	15.910	859.797	643.793
314.066	15.798	859.268	642.910
315.081	15.803	858.128	642.019
316.095	15.926	857.494	641.958
317.110	15.824	857.060	641.189
318.125	15.822	856.872	640.985
319.139	15.788	856.093	640.213
320.154	15.886	855.528	640.109
321.168	15.823	855.311	639.648
322.183	16.063	854.287	639.739
323.197	15.962	853.992	639.077
324.212	15.986	853.023	638.389
325.227	15.949	852.593	637.870
326.241	15.994	852.216	637.702
327.256	15.937	851.777	637.101
328.270	16.156	851.055	637.331
329.285	15.969	850.647	636.263
330.300	16.026	849.882	635.848
331.314	15.987	849.598	635.435
332.329	16.019	849.269	635.253
333.343	16.113	848.643	635.081
334.358	16.213	848.127	635.016
335.373	16.136	847.894	634.494
336.387	16.218	847.379	634.362
337.402	16.186	846.906	633.830
338.416	16.135	846.898	633.579
339.431	16.338	846.325	633.855
340.446	16.293	846.085	633.449
341.460	16.225	845.764	632.899
342.475	16.308	845.031	632.605
343.489	16.331	844.414	632.173
344.504	16.360	844.180	632.050
345.519	16.297	843.742	631.433
346.533	16.456	842.885	631.327
347.548	16.425	842.480	630.852
348.562	16.473	841.954	630.584
349.577	16.256	841.773	629.582
350.592	16.423	840.780	629.407
351.606	16.301	840.117	628.400
352.621	16.425	839.333	628.217
353.635	16.382	838.778	627.587
354.650	16.407	837.913	626.977
355.665	16.494	837.892	627.231
356.679	16.532	836.779	626.482
357.694	16.510	836.146	625.871
358.708	16.611	835.620	625.794
359.723	16.507	835.111	624.973
360.738	16.447	834.837	624.491
361.752	16.678	833.733	624.462
362.767	16.479	833.192	623.267
363.781	16.657	832.930	623.675
364.796	16.642	832.380	623.153
365.810	16.750	831.949	623.173
366.825	16.630	831.886	622.626
367.840	16.731	831.372	622.558
368.854	16.706	830.825	622.004
369.869	16.846	830.194	621.989
370.883	16.733	829.642	621.107
371.898	16.698	829.572	620.870
372.913	16.865	829.112	621.082
373.927	16.886	828.542	620.678
374.942	16.896	828.282	620.464
375.956	16.882	827.880	620.058
376.971	16.932	826.963	619.497
377.986	17.018	827.003	619.786
379.000	16.974	826.153	618.937
380.015	17.054	825.671	618.813
381.029	16.982	825.315	618.228
382.044	16.958	824.750	617.663
383.059	16.996	823.932	617.133
384.073	17.075	823.400	616.967
385.088	17.030	822.973	616.430
386.102	17.005	822.427	615.876
387.117	17.227	821.614	616.018
388.132	17.049	821.235	615.031
389.146	17.120	821.110	615.142
390.161	17.140	820.451	614.665
391.175	17.403	819.698	615.000
392.190	17.151	819.484	613.874
393.205	17.066	818.955	613.114
394.219	17.077	818.288	612.601
395.234	17.088	818.365	612.644
396.248	17.135	817.585	612.174
397.263	17.124	817.256	611.836
398.278	17.148	816.742	611.481
399.292	17.170	816.415	611.262
400.307	17.209	816.021	611.056
401.321	17.130	815.768	610.526
402.336	17.303	814.758	610.339
403.350	17.066	814.720	609.405
404.365	17.143	814.243	609.270
405.380	17.311	813.299	609.112
406.394	17.336	812.872	608.829
407.409	17.474	812.476	608.971
408.423	17.326	812.591	608.474
409.438	17.351	811.909	608.000
410.453	17.498	811.245	607.971
411.467	17.522	810.984	607.809
412.482	17.475	810.325	607.095
413.496	17.534	809.946	606.966
414.511	17.579	809.897	607.035
415.526	17.608	809.170	606.540
416.540	17.563	808.797	606.048
417.555	17.618	808.296	605.815
418.569	17.592	807.819	605.311
419.584	17.572	807.647	605.057
420.599	17.643	806.962	604.741
421.613	113.924	1299.685	1488.870
422.628	98.383	1371.453	1488.927
