DTS Sentinel unit serial number:	SN413079Multiplexer serial number:	ORYXHardware model number:	OX4-SRSoftware version number:	ORYX F/W v4.00 Oryx Data Collector v3.7.2.0data status	okinstallation	princeton_trtdifferential loss correction	single-endedforward channel	channel 1reverse channel	N/Adate	2019/09/16time	16:46:35forward acquisition time	60.00reverse acquisition time	0.00gamma	496.2192k internal	0.2296k external	0.2296temperature offset calibration	0.9963default loss term (dB/km)	0.3790temperature slope calibration	1.0000multiplexer offset coefficient	1.0000multiplexer slope coefficient	1.0000fibre end	0.00T internal ref (°C)	39.67T ext. ref 1 (°C)	15.19T ext. ref 2 (°C)	33.88length (m)	temperature (°C)	Stokes	anti-Stokes-747.200	9.980	0.123	0.095
-746.185	549.769	0.212	0.518
-745.171	46.088	-0.018	0.017
-744.156	-162.727	0.231	-0.012
-743.142	10.362	0.297	-0.231
-742.127	-200.000	-0.018	0.182
-741.112	381.173	-0.137	-0.288
-740.098	457.279	-0.164	0.372
-739.083	15.131	-0.196	0.157
-738.069	288.034	-0.114	0.210
-737.054	37.566	-0.220	0.200
-736.039	42.765	-0.268	-0.249
-735.025	287.969	0.079	-0.146
-734.010	-36.610	0.124	-0.068
-732.996	-48.220	-0.572	-0.282
-731.981	800.000	0.049	0.179
-730.966	-21.044	0.103	-0.064
-729.952	-80.880	-0.178	0.060
-728.937	270.173	0.010	0.018
-727.923	-111.647	-0.293	0.061
-726.908	-200.000	0.007	0.075
-725.894	115.432	0.103	-0.128
-724.879	800.000	-0.110	-0.420
-723.864	45.480	0.068	-0.064
-722.850	-200.000	0.017	0.118
-721.835	316.126	-0.068	-0.131
-720.821	104.181	-0.267	-0.320
-719.806	43.770	-0.064	-0.060
-718.791	149.004	-0.191	-0.264
-717.777	-200.000	-0.008	0.099
-716.762	-79.137	0.127	-0.044
-715.748	-128.388	-0.253	0.037
-714.733	-39.645	-0.148	0.079
-713.718	-155.534	0.319	0.021
-712.704	13.665	-0.222	0.176
-711.689	182.155	0.145	0.217
-710.675	88.819	0.202	-0.229
-709.660	254.699	0.092	0.161
-708.645	-67.441	0.367	0.147
-707.631	136.254	0.249	-0.331
-706.616	800.000	-0.050	-0.212
-705.602	-200.000	-0.052	0.277
-704.587	-108.670	0.269	0.059
-703.572	249.287	-0.111	0.191
-702.558	-200.000	-0.048	0.284
-701.543	29.455	-0.240	0.208
-700.529	-89.720	0.290	0.087
-699.514	-17.617	0.063	0.040
-698.499	565.939	-0.114	-0.282
-697.485	26.429	0.259	-0.221
-696.470	-108.954	0.246	-0.054
-695.456	-200.000	0.002	0.054
-694.441	128.870	-0.119	-0.155
-693.426	-133.402	0.238	0.030
-692.412	91.430	0.310	-0.355
-691.397	-63.856	-0.091	0.038
-690.383	113.556	0.242	0.300
-689.368	-91.125	-0.266	0.078
-688.354	-64.256	0.159	-0.066
-687.339	-200.000	0.013	0.114
-686.324	-200.000	-0.016	0.196
-685.310	-61.590	0.332	0.142
-684.295	42.964	0.343	0.319
-683.281	-93.455	0.216	-0.061
-682.266	-91.556	0.033	-0.009
-681.251	-122.107	-0.465	-0.078
-680.237	43.708	-0.063	-0.058
-679.222	254.718	-0.195	-0.341
-678.208	-155.800	-0.253	-0.016
-677.193	10.276	0.165	-0.128
-676.178	-35.679	0.224	-0.124
-675.164	194.374	0.243	0.376
-674.149	566.683	-0.046	-0.113
-673.135	64.173	-0.336	-0.344
-672.120	-139.394	0.231	-0.025
-671.105	800.000	-0.073	-0.265
-670.091	-77.293	0.278	0.098
-669.076	800.000	-0.122	0.522
-668.062	-76.346	0.258	0.092
-667.047	76.017	-0.071	0.077
-666.032	124.704	-0.041	0.052
-665.018	-200.000	-0.064	-0.420
-664.003	-39.521	-0.153	-0.082
-662.989	-200.000	0.008	-0.046
-661.974	50.659	0.109	-0.105
-660.959	-200.000	0.044	0.246
-659.945	-200.000	-0.012	0.161
-658.930	-21.602	0.294	-0.182
-657.916	44.830	0.044	-0.041
-656.901	-200.000	-0.029	0.176
-655.886	800.000	-0.021	0.090
-654.872	12.327	-0.416	0.326
-653.857	722.559	-0.005	0.013
-652.843	138.128	-0.080	0.107
-651.828	254.600	-0.118	0.206
-650.814	-200.000	0.028	0.227
-649.799	-58.576	-0.135	0.060
-648.784	-200.000	0.004	0.198
-647.770	-154.450	-0.280	-0.019
-646.755	17.242	0.080	0.065
-645.741	-200.000	-0.005	-0.141
-644.726	-94.159	-0.529	-0.148
-643.711	-13.837	-0.195	0.129
-642.697	183.973	0.111	0.168
-641.682	-200.000	-0.017	0.284
-640.668	76.553	0.228	0.246
-639.653	-81.924	-0.228	-0.076
-638.638	-200.000	0.020	-0.189
-637.624	-113.438	0.103	-0.021
-636.609	-186.232	0.052	0.001
-635.595	800.000	0.090	-0.375
-634.580	586.721	-0.055	0.138
-633.565	-105.468	-0.315	-0.073
-632.551	-10.619	-0.246	-0.165
-631.536	-189.009	-0.077	0.001
-630.522	63.665	-0.242	0.248
-629.507	3.229	0.033	0.024
-628.492	-104.136	-0.147	0.035
-627.478	336.450	-0.167	-0.331
-626.463	38.051	0.145	0.131
-625.449	-65.874	-0.277	0.113
-624.434	-58.270	0.172	0.076
-623.419	-66.921	-0.162	0.065
-622.405	-97.994	-0.304	0.080
-621.390	248.560	0.277	0.476
-620.376	89.552	0.126	-0.143
-619.361	331.112	-0.087	-0.170
-618.346	800.000	-0.083	-0.240
-617.332	-101.035	0.307	-0.076
-616.317	37.614	-0.053	0.048
-615.303	-200.000	0.033	-0.230
-614.288	357.106	0.066	0.134
-613.273	-151.161	-0.108	0.008
-612.259	-118.497	0.192	-0.035
-611.244	-67.894	-0.128	-0.051
-610.230	-200.000	-0.056	0.265
-609.215	-114.825	0.238	-0.046
-608.201	244.544	-0.109	0.186
-607.186	-65.506	0.184	0.075
-606.171	800.000	-0.134	-0.418
-605.157	-64.191	-0.171	-0.071
-604.142	76.508	-0.166	0.179
-603.128	-81.496	0.337	-0.113
-602.113	510.281	0.057	-0.136
-601.098	-53.806	0.203	-0.094
-600.084	-200.000	0.010	-0.293
-599.069	20.882	-0.249	-0.205
-598.055	-176.619	-0.130	-0.003
-597.040	-85.203	0.262	0.083
-596.025	-98.733	0.228	-0.059
-595.011	-42.317	-0.217	0.113
-593.996	-51.085	-0.172	-0.082
-592.982	176.159	-0.093	0.138
-591.967	-200.000	0.045	-0.593
-590.952	-19.440	-0.123	0.077
-589.938	233.706	0.032	0.053
-588.923	800.000	0.035	0.145
-587.909	-56.960	0.239	0.107
-586.894	-149.024	-0.138	-0.011
-585.879	414.681	0.093	-0.201
-584.865	-150.744	-0.130	-0.010
-583.850	-27.593	0.236	0.139
-582.836	69.072	0.053	-0.055
-581.821	129.884	0.171	0.222
-580.806	189.733	-0.221	-0.336
-579.792	25.765	-0.091	-0.077
-578.777	205.365	0.104	-0.164
-577.763	800.000	-0.063	-0.218
-576.748	99.366	0.050	0.058
-575.733	-200.000	0.038	0.369
-574.719	-8.129	0.246	-0.169
-573.704	-24.841	0.079	-0.048
-572.690	-162.768	-0.261	0.013
-571.675	800.000	-0.116	-0.357
-570.661	800.000	-0.096	-0.371
-569.646	800.000	0.017	-0.073
-568.631	-87.904	-0.139	0.043
-567.617	294.310	-0.043	0.079
-566.602	-87.889	-0.035	0.011
-565.588	-42.688	-0.143	0.074
-564.573	-200.000	0.003	0.051
-563.558	-200.000	0.023	0.116
-562.544	160.706	-0.090	-0.128
-561.529	112.893	0.081	-0.100
-560.515	-134.240	-0.188	0.024
-559.500	77.831	-0.108	0.117
-558.485	-53.833	-0.180	0.083
-557.471	63.588	-0.023	-0.023
-556.456	-200.000	-0.062	-0.410
-555.442	431.961	0.071	-0.156
-554.427	83.708	0.189	-0.209
-553.412	650.693	0.087	-0.227
-552.398	55.672	-0.271	0.266
-551.383	-200.000	-0.034	-0.233
-550.369	800.000	0.045	-0.178
-549.354	8.063	-0.095	-0.072
-548.339	800.000	0.010	0.045
-547.325	121.719	0.160	-0.203
-546.310	115.968	-0.053	0.065
-545.296	-58.737	0.254	-0.112
-544.281	639.611	-0.112	-0.290
-543.266	-134.799	0.288	-0.035
-542.252	-19.129	0.194	0.122
-541.237	309.895	0.152	0.289
-540.223	440.618	0.177	-0.392
-539.208	-200.000	0.042	0.228
-538.193	-47.245	0.028	0.014
-537.179	-92.308	-0.189	-0.054
-536.164	-60.472	-0.387	-0.167
-535.150	-163.721	-0.122	0.006
-534.135	-135.754	0.140	0.017
-533.121	-101.658	0.239	0.059
-532.106	-75.090	-0.281	-0.102
-531.091	379.533	-0.103	-0.214
-530.077	-96.119	-0.115	0.031
-529.062	-200.000	-0.016	-0.186
-528.048	49.048	-0.281	-0.268
-527.033	381.977	0.055	0.114
-526.018	-200.000	-0.009	0.060
-525.004	-132.116	-0.199	0.026
-523.989	0.088	-0.260	-0.188
-522.975	75.824	-0.169	-0.181
-521.960	-99.028	0.047	-0.012
-520.945	210.323	0.129	-0.204
-519.931	170.905	-0.108	0.157
-518.916	800.000	0.009	0.031
-517.902	141.073	0.080	0.107
-516.887	14.634	0.263	0.208
-515.872	-102.182	0.247	0.060
-514.858	269.047	-0.068	-0.121
-513.843	-119.306	0.133	0.024
-512.829	-60.590	0.459	0.197
-511.814	-135.831	-0.310	0.037
-510.799	-152.190	0.208	-0.015
-509.785	-23.206	0.096	-0.058
-508.770	-41.941	-0.263	0.137
-507.756	-67.530	-0.237	-0.094
-506.741	-200.000	0.010	0.079
-505.726	-100.256	-0.164	-0.041
-504.712	-200.000	0.008	0.131
-503.697	-7.075	0.211	-0.145
-502.683	-200.000	0.071	-0.475
-501.668	-120.157	-0.208	0.036
-500.653	280.295	-0.027	0.049
-499.639	-200.000	0.008	-0.118
-498.624	-200.000	-0.011	0.386
-497.610	259.199	-0.160	0.279
-496.595	800.000	-0.090	0.303
-495.581	773.095	0.081	0.225
-494.566	-155.435	-0.276	-0.018
-493.551	-99.622	0.225	0.057
-492.537	131.449	-0.073	0.095
-491.522	-81.420	0.050	-0.017
-490.508	25.732	-0.157	0.132
-489.493	64.798	0.172	0.176
-488.478	58.107	0.131	0.130
-487.464	-68.647	-0.086	0.034
-486.449	-200.000	0.014	-0.071
-485.435	-200.000	-0.000	0.019
-484.420	153.074	-0.047	-0.065
-483.405	-65.770	0.168	-0.068
-482.391	-57.062	-0.263	0.117
-481.376	-63.870	-0.329	-0.136
-480.362	284.597	-0.086	-0.157
-479.347	174.407	-0.126	0.185
-478.332	-13.565	-0.173	0.113
-477.318	6.402	-0.181	-0.136
-476.303	-148.532	0.256	0.021
-475.289	57.111	-0.211	0.208
-474.274	-28.813	-0.121	0.070
-473.259	186.428	-0.156	-0.235
-472.245	800.000	0.043	-0.158
-471.230	-170.569	0.082	0.003
-470.216	800.000	-0.032	-0.137
-469.201	-92.899	0.326	-0.092
-468.186	-33.577	0.085	0.047
-467.172	-200.000	-0.007	0.176
-466.157	383.691	0.061	0.127
-465.143	30.131	-0.051	-0.044
-464.128	461.172	-0.063	-0.141
-463.113	138.176	0.219	-0.291
-462.099	238.446	-0.112	-0.188
-461.084	-200.000	0.034	-0.276
-460.070	-20.249	-0.166	0.103
-459.055	87.184	0.112	-0.125
-458.040	154.706	-0.183	0.253
-457.026	234.380	0.267	0.444
-456.011	-127.828	-0.227	-0.033
-454.997	-146.766	-0.351	0.031
-453.982	800.000	-0.040	-0.165
-452.968	72.704	-0.192	0.203
-451.953	328.703	-0.140	0.272
-450.938	112.093	0.140	-0.170
-449.924	-54.575	-0.322	-0.147
-448.909	-200.000	0.041	0.278
-447.895	-200.000	-0.013	-0.268
-446.880	45.464	0.208	0.194
-445.865	91.680	0.155	0.175
-444.851	-45.930	-0.056	0.028
-443.836	-200.000	0.012	0.301
-442.822	93.052	-0.105	0.120
-441.807	-127.182	-0.163	0.024
-440.792	800.000	-0.146	0.469
-439.778	-78.173	-0.112	-0.039
-438.763	-98.634	-0.115	-0.030
-437.749	51.783	-0.243	-0.233
-436.734	-44.595	-0.028	0.014
-435.719	800.000	0.034	-0.119
-434.705	-3.689	-0.047	-0.033
-433.690	800.000	0.066	-0.220
-432.676	800.000	-0.051	0.216
-431.661	546.116	0.070	0.170
-430.646	71.778	0.107	-0.112
-429.632	800.000	0.055	-0.174
-428.617	47.890	-0.085	0.080
-427.603	-200.000	0.013	0.376
-426.588	-129.053	0.251	0.035
-425.573	445.638	0.106	0.235
-424.559	229.157	0.037	0.061
-423.544	-8.749	0.225	0.152
-422.530	-200.000	-0.023	-0.186
-421.515	325.927	-0.073	0.141
-420.500	25.187	-0.143	0.119
-419.486	800.000	-0.071	-0.224
-418.471	-200.000	0.013	-0.062
-417.457	800.000	0.016	-0.050
-416.442	-135.111	0.401	0.049
-415.428	524.242	0.019	-0.045
-414.413	-200.000	-0.027	-0.143
-413.398	32.292	0.113	-0.098
-412.384	-200.000	-0.000	-0.125
-411.369	47.137	-0.046	-0.044
-410.355	-129.111	0.349	0.049
-409.340	-114.179	0.342	-0.067
-408.325	-200.000	0.026	-0.347
-407.311	-101.648	0.108	0.026
-406.296	-164.867	0.267	0.012
-405.282	-94.521	0.161	-0.044
-404.267	41.410	-0.080	-0.073
-403.252	740.428	0.054	0.147
-402.238	-38.656	-0.220	0.117
-401.223	-9.261	-0.216	-0.146
-400.209	743.142	-0.046	0.125
-399.194	-123.364	0.357	0.057
-398.179	-51.394	-0.500	-0.236
-397.165	-200.000	-0.001	-0.119
-396.150	-101.704	-0.130	0.032
-395.136	46.001	0.175	0.163
-394.121	43.047	0.070	0.064
-393.106	-15.829	-0.021	0.013
-392.092	800.000	0.025	0.083
-391.077	-185.518	-0.114	-0.002
-390.063	-59.700	0.167	0.072
-389.048	-73.815	-0.094	-0.034
-388.033	169.706	-0.046	0.066
-387.019	330.193	0.099	0.191
-386.004	517.889	0.135	0.317
-384.990	76.474	-0.077	0.082
-383.975	-4.208	0.248	0.173
-382.960	-18.395	0.172	0.108
-381.946	514.018	-0.021	0.050
-380.931	-24.495	-0.129	0.077
-379.917	-53.315	0.099	-0.046
-378.902	-139.777	-0.279	-0.030
-377.888	-105.944	-0.167	-0.038
-376.873	-80.786	-0.213	-0.071
-375.858	-53.206	-0.220	-0.102
-374.844	800.000	-0.100	0.346
-373.829	-40.864	-0.043	-0.023
-372.815	-200.000	-0.032	-0.546
-371.800	207.822	-0.144	-0.227
-370.785	-200.000	-0.003	0.234
-369.771	4.179	0.170	-0.126
-368.756	-62.160	0.411	-0.173
-367.742	104.114	-0.122	0.145
-366.727	800.000	0.019	0.052
-365.712	-120.013	0.319	0.055
-364.698	-200.000	0.000	-0.146
-363.683	-54.489	-0.092	-0.042
-362.669	-47.898	-0.149	-0.073
-361.654	-11.660	-0.063	0.042
-360.639	-121.002	0.197	0.033
-359.625	-82.510	0.312	-0.102
-358.610	-16.848	-0.071	0.045
-357.596	263.581	-0.041	0.071
-356.581	138.911	-0.094	0.124
-355.566	-116.590	0.089	-0.016
-354.552	-164.076	-0.283	-0.013
-353.537	800.000	-0.055	0.215
-352.523	-104.947	0.524	0.121
-351.508	167.177	0.146	-0.208
-350.493	41.572	-0.213	-0.194
-349.479	222.551	-0.038	0.062
-348.464	54.066	0.277	-0.268
-347.450	-200.000	0.012	-0.158
-346.435	-200.000	0.025	-0.219
-345.420	-124.442	-0.087	0.014
-344.406	115.138	-0.147	-0.181
-343.391	-59.689	0.255	0.110
-342.377	75.246	-0.308	0.327
-341.362	-10.434	0.101	0.067
-340.348	-114.883	0.456	-0.087
-339.333	149.085	0.095	-0.130
-338.318	50.473	0.063	0.060
-337.304	42.926	-0.090	0.083
-336.289	47.883	-0.156	0.147
-335.275	800.000	0.041	0.176
-334.260	763.613	-0.074	-0.203
-333.245	297.381	-0.097	0.180
-332.231	-200.000	-0.004	0.065
-331.216	-38.575	0.246	0.131
-330.202	-32.753	-0.160	0.089
-329.187	217.800	-0.132	0.212
-328.172	-200.000	0.029	-0.171
-327.158	151.049	0.187	-0.255
-326.143	-112.339	-0.256	0.052
-325.129	-200.000	0.001	0.136
-324.114	36.261	-0.093	0.083
-323.099	24.330	0.181	0.150
-322.085	239.315	0.081	0.136
-321.070	-9.674	0.287	0.192
-320.056	45.648	0.243	0.226
-319.041	-100.268	-0.135	-0.034
-318.026	-138.263	-0.012	-0.001
-317.012	-80.040	0.116	-0.039
-315.997	18.008	-0.190	-0.153
-314.983	213.785	-0.209	0.332
-313.968	271.017	0.117	0.207
-312.953	196.509	0.081	-0.123
-311.939	160.406	-0.170	0.239
-310.924	558.141	-0.083	-0.201
-309.910	-200.000	0.035	0.289
-308.895	-149.713	0.366	-0.029
-307.880	147.324	0.060	-0.081
-306.866	-113.814	0.166	0.032
-305.851	353.721	0.035	-0.070
-304.837	-43.155	0.275	0.140
-303.822	448.704	0.141	-0.311
-302.807	4.487	0.251	-0.185
-301.793	6.236	0.069	0.052
-300.778	232.270	0.033	0.055
-299.764	234.579	0.096	-0.160
-298.749	94.937	0.158	-0.180
-297.735	116.573	0.053	0.066
-296.720	414.901	0.114	0.243
-295.705	-58.099	0.170	-0.075
-294.691	-16.052	0.123	-0.079
-293.676	64.246	-0.218	-0.220
-292.662	265.393	0.071	-0.125
-291.647	-121.900	0.288	0.048
-290.632	-200.000	-0.050	0.331
-289.618	-54.015	-0.087	0.040
-288.603	-200.000	0.013	0.156
-287.589	-48.262	0.054	-0.026
-286.574	19.314	0.274	0.221
-285.559	-200.000	0.019	0.189
-284.545	-87.493	-0.414	0.126
-283.530	-44.645	0.022	0.011
-282.516	24.075	-0.090	0.075
-281.501	-200.000	0.019	0.169
-280.486	280.159	0.102	0.183
-279.472	800.000	-0.108	0.303
-278.457	-85.783	0.176	-0.055
-277.443	164.554	-0.119	-0.169
-276.428	-30.980	-0.209	0.118
-275.413	16.512	0.451	-0.357
-274.399	800.000	0.020	-0.065
-273.384	-112.357	-0.109	-0.022
-272.370	-82.431	0.353	-0.115
-271.355	-53.333	0.232	-0.107
-270.340	-200.000	0.031	0.348
-269.326	-200.000	0.047	-0.383
-268.311	-56.397	-0.203	0.090
-267.297	-82.874	0.270	-0.087
-266.282	612.140	-0.103	-0.259
-265.267	59.073	0.206	-0.203
-264.253	-110.182	0.179	-0.037
-263.238	40.241	0.084	-0.076
-262.224	693.125	-0.153	-0.403
-261.209	424.181	0.047	-0.102
-260.195	447.584	0.124	0.273
-259.180	67.154	0.212	-0.217
-258.165	-200.000	0.018	-0.228
-257.151	-200.000	0.004	0.054
-256.136	-85.361	0.144	0.045
-255.122	-159.276	-0.151	0.009
-254.107	-97.377	-0.346	-0.090
-253.092	800.000	-0.088	-0.302
-252.078	21.283	0.268	0.219
-251.063	-149.690	0.145	-0.011
-250.049	291.704	0.018	-0.033
-249.034	513.898	-0.120	0.281
-248.019	-95.142	0.287	-0.078
-247.005	22.889	0.077	-0.063
-245.990	310.449	-0.135	-0.253
-244.976	-81.661	0.325	-0.107
-243.961	43.692	-0.092	0.085
-242.946	93.706	0.189	0.215
-241.932	-55.244	-0.099	0.045
-240.917	-200.000	0.106	-0.525
-239.903	84.027	0.119	0.130
-238.888	-9.575	-0.165	0.110
-237.873	155.934	0.061	-0.084
-236.859	35.399	0.130	-0.115
-235.844	-164.150	-0.317	-0.015
-234.830	-48.221	0.047	0.023
-233.815	-200.000	0.025	-0.222
-232.800	117.701	-0.173	0.213
-231.786	-200.000	0.050	-0.275
-230.771	20.679	-0.047	-0.038
-229.757	-200.000	-0.055	0.254
-228.742	243.190	-0.159	0.267
-227.727	800.000	-0.091	0.316
-226.713	172.131	-0.103	0.148
-225.698	301.320	0.219	0.405
-224.684	-200.000	-0.028	0.400
-223.669	800.000	-0.010	0.043
-222.655	-43.865	0.029	-0.015
-221.640	38.738	0.231	-0.207
-220.625	-100.307	0.295	-0.073
-219.611	-19.000	0.306	-0.190
-218.596	124.114	-0.146	0.184
-217.582	78.118	-0.246	-0.263
-216.567	-110.213	0.336	0.070
-215.552	399.193	0.023	0.049
-214.538	-60.181	-0.038	0.016
-213.523	-107.639	0.028	0.006
-212.509	723.289	0.070	-0.186
-211.494	-53.101	0.052	0.024
-210.479	223.128	-0.107	-0.173
-209.465	131.886	0.097	-0.125
-208.450	-200.000	-0.023	0.112
-207.436	800.000	-0.044	-0.178
-206.421	61.525	0.008	-0.008
-205.406	176.854	0.023	-0.034
-204.392	-172.528	-0.389	-0.012
-203.377	78.073	-0.197	0.211
-202.363	234.175	-0.154	0.255
-201.348	-12.148	0.218	-0.143
-200.333	2.750	-0.067	0.049
-199.319	-61.332	-0.310	-0.131
-198.304	589.546	0.137	0.337
-197.290	-200.000	0.012	0.469
-196.275	76.804	-0.345	-0.366
-195.260	87.113	0.121	-0.133
-194.246	-46.154	-0.230	0.113
-193.231	-200.000	0.009	0.374
-192.217	-200.000	-0.007	0.296
-191.202	800.000	-0.063	0.217
-190.187	-21.041	-0.214	-0.131
-189.173	-24.422	0.141	0.084
-188.158	81.895	-0.095	0.103
-187.144	19.183	-0.215	-0.173
-186.129	-58.032	-0.275	0.120
-185.114	-60.702	0.189	0.080
-184.100	-162.142	-0.142	-0.007
-183.085	-200.000	0.008	0.124
-182.071	-200.000	0.027	-0.304
-181.056	-200.000	-0.141	-0.000
-180.042	-95.600	0.226	0.060
-179.027	1.858	0.132	-0.095
-178.012	172.778	-0.194	-0.279
-176.998	-59.595	-0.138	-0.059
-175.983	63.510	0.009	0.009
-174.969	800.000	0.094	-0.289
-173.954	800.000	0.102	0.423
-172.939	31.357	0.327	-0.281
-171.925	-96.306	0.108	0.029
-170.910	-76.528	-0.416	-0.146
-169.896	-200.000	-0.004	0.403
-168.881	-125.093	0.157	-0.024
-167.866	184.984	-0.089	0.131
-166.852	-51.859	-0.253	0.117
-165.837	-200.000	-0.070	-0.494
-164.823	255.372	0.118	-0.202
-163.808	39.984	0.091	0.082
-162.793	-200.000	0.012	0.071
-161.779	-45.338	-0.213	0.106
-160.764	439.458	0.103	0.224
-159.750	-177.408	0.491	0.012
-158.735	-16.203	0.071	-0.045
-157.720	-155.528	-0.237	-0.015
-156.706	612.749	-0.049	-0.122
-155.691	800.000	0.029	-0.094
-154.677	217.969	-0.153	0.244
-153.662	-41.014	0.058	-0.030
-152.647	34.338	-0.126	-0.110
-151.633	228.862	-0.111	-0.181
-150.618	-33.866	0.260	0.143
-149.604	753.088	0.126	0.340
-148.589	-200.000	-0.080	-0.401
-147.574	800.000	-0.029	0.087
-146.560	149.847	0.083	-0.113
-145.545	675.409	0.053	-0.136
-144.531	-200.000	-0.019	0.319
-143.516	-200.000	-0.000	0.269
-142.502	333.453	0.142	0.273
-141.487	800.000	0.034	0.130
-140.472	-186.439	-0.152	-0.002
-139.458	-137.880	0.448	0.050
-138.443	-163.931	0.107	0.005
-137.429	18.790	0.212	0.169
-136.414	71.317	0.207	0.214
-135.399	800.000	-0.105	0.301
-134.385	-40.920	0.183	0.095
-133.370	454.236	-0.168	-0.370
-132.356	12.951	0.241	0.186
-131.341	336.403	0.131	0.254
-130.326	59.516	-0.123	0.121
-129.312	-184.172	0.223	-0.004
-128.297	56.986	-0.130	-0.127
-127.283	129.074	0.193	0.245
-126.268	-86.760	-0.191	-0.058
-125.253	636.982	0.067	-0.170
-124.239	-64.779	-0.113	0.046
-123.224	-131.978	-0.356	0.046
-122.210	-83.880	-0.170	0.054
-121.195	-48.112	0.194	0.093
-120.180	225.586	-0.164	0.264
-119.166	433.048	0.068	0.147
-118.151	365.966	-0.070	-0.140
-117.137	-109.175	0.125	0.026
-116.122	-200.000	-0.012	-0.121
-115.107	-104.072	0.512	0.119
-114.093	800.000	-0.096	0.294
-113.078	800.000	-0.079	0.257
-112.064	-140.202	-0.178	0.019
-111.049	-25.737	-0.234	0.137
-110.034	339.989	-0.033	-0.064
-109.020	-31.861	0.193	-0.108
-108.005	-26.169	0.253	-0.148
-106.991	-200.000	-0.041	-0.301
-105.976	543.225	-0.034	0.080
-104.962	-70.451	0.390	-0.147
-103.947	-200.000	0.003	-0.123
-102.932	-200.000	-0.029	-0.152
-101.918	-63.637	-0.171	0.070
-100.903	-112.197	0.370	-0.074
-99.889	-141.389	0.347	0.035
-98.874	-85.782	0.186	0.057
-97.859	-45.147	0.202	-0.100
-96.845	297.716	-0.077	0.141
-95.830	34.344	-0.120	-0.104
-94.816	45.138	0.169	-0.156
-93.801	-74.284	-0.182	-0.065
-92.786	281.118	0.232	-0.414
-91.772	127.240	0.198	-0.251
-90.757	-4.722	0.100	0.069
-89.743	-59.816	-0.061	0.026
-88.728	12.045	0.201	0.154
-87.713	-16.301	-0.191	0.121
-86.699	13.799	0.278	-0.215
-85.684	7.555	-0.128	0.096
-84.670	354.402	-0.205	-0.407
-83.655	-200.000	0.043	-0.251
-82.640	407.161	-0.099	0.208
-81.626	418.645	0.084	0.179
-80.611	-153.430	-0.226	0.016
-79.597	-97.271	-0.305	-0.079
-78.582	230.318	-0.037	0.061
-77.567	-139.705	-0.113	0.012
-76.553	-29.565	0.193	0.110
-75.538	-173.438	0.141	-0.004
-74.524	-200.000	0.021	0.236
-73.509	-200.000	0.007	0.097
-72.494	-69.129	0.254	-0.097
-71.480	-200.000	-0.025	0.304
-70.465	-126.169	-0.193	-0.029
-69.451	-96.723	0.218	-0.057
-68.436	-54.051	-0.147	0.067
-67.422	110.909	-0.071	0.085
-66.407	-88.994	0.175	0.051
-65.392	29.352	0.118	-0.099
-64.378	-95.193	0.185	0.050
-63.363	414.631	-0.102	0.215
-62.349	-36.944	0.112	-0.060
-61.334	55.652	-0.778	-0.750
-60.319	19.331	0.336	0.269
-59.305	-200.000	0.044	-0.913
-58.290	319.807	0.540	1.019
-57.276	800.000	0.615	1.784
-56.261	-200.000	80.235	514.605
-55.246	534.323	1318.429	3108.178
-54.232	152.292	2535.824	3442.672
-53.217	115.410	2217.354	2694.719
-52.203	50.830	1677.720	1580.611
-51.188	43.122	1410.602	1280.207
-50.173	39.747	1365.741	1218.649
-49.159	58.304	1404.998	1370.027
-48.144	63.948	1423.816	1423.562
-47.130	43.552	1384.124	1258.657
-46.115	39.722	1367.278	1219.669
-45.100	39.586	1362.407	1214.437
-44.086	39.425	1360.342	1211.559
-43.071	39.393	1358.357	1209.550
-42.057	39.383	1355.989	1207.329
-41.042	39.455	1354.403	1206.311
-40.027	39.528	1353.011	1205.469
-39.013	39.518	1351.126	1203.679
-37.998	39.539	1349.133	1201.985
-36.984	39.703	1346.660	1200.736
-35.969	39.694	1345.303	1199.420
-34.954	39.675	1343.288	1197.463
-33.940	39.771	1342.060	1196.903
-32.925	39.811	1340.809	1195.981
-31.911	39.855	1339.574	1195.096
-30.896	39.797	1337.736	1193.061
-29.881	39.730	1336.625	1191.617
-28.867	39.832	1335.083	1190.809
-27.852	39.878	1332.918	1189.112
-26.838	39.781	1331.743	1187.432
-25.823	39.711	1330.307	1185.681
-24.809	39.725	1329.183	1184.716
-23.794	39.706	1327.475	1183.032
-22.779	39.699	1326.309	1181.905
-21.765	39.753	1324.623	1180.678
-20.750	39.746	1323.043	1179.185
-19.736	39.680	1321.972	1177.788
-18.721	39.586	1321.271	1176.558
-17.706	39.691	1319.559	1175.613
-16.692	39.568	1318.619	1173.992
-15.677	39.671	1317.315	1173.397
-14.663	39.608	1316.771	1172.490
-13.648	39.600	1315.546	1171.309
-12.633	39.568	1314.500	1170.138
-11.619	39.538	1313.779	1169.276
-10.604	39.675	1313.010	1169.355
-9.590	39.519	1311.632	1167.158
-8.575	39.658	1310.458	1166.889
-7.560	39.655	1309.920	1166.347
-6.546	39.561	1309.425	1165.305
-5.531	39.580	1308.356	1164.419
-4.517	39.615	1307.210	1163.559
-3.502	39.665	1306.278	1162.979
-2.487	39.681	1305.124	1161.999
-1.473	39.675	1301.558	1158.742
-0.458	38.038	1285.761	1135.124
0.556	31.857	1266.819	1088.501
1.571	27.425	1269.529	1064.880
2.586	26.047	1284.349	1069.054
3.600	25.266	1274.532	1056.193
4.615	22.784	1206.229	985.660
5.629	18.134	1132.887	901.197
6.644	15.436	1112.108	870.614
7.659	15.167	1109.319	866.964
8.673	15.139	1108.143	865.821
9.688	14.999	1106.761	863.943
10.702	15.370	1105.062	864.451
11.717	18.265	1108.871	882.304
12.731	21.118	1112.949	900.210
13.746	20.092	1109.189	891.810
14.761	17.857	1105.726	877.471
15.775	16.586	1103.143	868.816
16.790	15.445	1100.989	861.194
17.804	14.693	1099.437	856.048
18.819	14.193	1097.837	852.167
19.834	13.807	1096.864	849.360
20.848	13.534	1096.201	847.379
21.863	13.401	1095.134	845.797
22.877	13.282	1093.999	844.239
23.892	13.248	1093.734	843.784
24.907	13.088	1093.209	842.488
25.921	13.238	1091.802	842.094
26.936	13.225	1090.403	840.877
27.950	13.233	1089.348	840.030
28.965	13.350	1087.357	839.012
29.980	13.451	1085.621	838.109
30.994	13.391	1084.819	837.114
32.009	13.374	1083.930	836.266
33.023	13.388	1082.623	835.255
34.038	13.310	1081.648	834.038
35.053	13.334	1080.727	833.372
36.067	13.348	1079.610	832.506
37.082	13.317	1079.222	831.980
38.096	13.385	1077.708	831.079
39.111	13.361	1077.595	830.799
40.126	13.347	1075.976	829.409
41.140	13.181	1074.736	827.548
42.155	13.090	1073.767	826.274
43.169	13.093	1072.467	825.212
44.184	13.168	1071.337	824.646
45.199	13.095	1070.358	823.457
46.213	13.142	1069.046	822.606
47.228	13.174	1068.423	822.212
48.242	13.332	1066.925	821.775
49.257	13.144	1066.472	820.419
50.271	13.255	1065.134	819.868
51.286	13.343	1064.500	819.743
52.301	13.337	1063.295	818.713
53.315	13.233	1062.409	817.445
54.330	13.197	1061.148	816.224
55.344	13.203	1060.146	815.408
56.359	13.275	1059.424	815.138
57.374	13.323	1058.305	814.439
58.388	13.158	1057.613	813.025
59.403	13.040	1056.848	811.785
60.417	13.153	1055.764	811.434
61.432	13.124	1055.197	810.786
62.447	13.125	1054.271	810.007
63.461	13.095	1053.478	809.178
64.476	13.026	1052.657	808.139
65.490	13.130	1051.421	807.628
66.505	13.033	1051.141	806.864
67.520	13.121	1050.066	806.401
68.534	13.141	1049.354	805.876
69.549	13.195	1048.802	805.647
70.563	13.034	1048.115	804.261
71.578	13.028	1046.952	803.270
72.593	13.052	1046.174	802.719
73.607	13.015	1045.771	802.157
74.622	12.979	1045.250	801.512
75.636	12.974	1044.361	800.737
76.651	13.055	1043.333	800.272
77.666	13.025	1043.222	799.970
78.680	13.073	1042.486	799.568
79.695	12.969	1041.725	798.409
80.709	13.001	1040.825	797.803
81.724	13.182	1040.214	798.137
82.739	13.175	1039.411	797.419
83.753	13.376	1038.248	797.426
84.768	13.383	1037.304	796.660
85.782	13.357	1036.900	796.154
86.797	13.346	1035.943	795.297
87.812	13.222	1035.198	794.061
88.826	13.240	1033.798	793.001
89.841	13.340	1033.282	793.014
90.855	13.348	1032.299	792.228
91.870	13.428	1031.457	791.897
92.884	13.353	1030.563	790.781
93.899	13.362	1029.926	790.267
94.914	13.450	1029.272	790.115
95.928	13.507	1027.617	789.046
96.943	13.531	1026.449	788.193
97.957	13.368	1026.221	787.173
98.972	13.409	1025.257	786.557
99.987	13.319	1024.327	785.346
101.001	13.353	1023.462	784.774
102.016	13.186	1022.824	783.425
103.030	13.302	1021.850	783.159
104.045	13.361	1020.997	782.716
105.060	13.212	1020.461	781.532
106.074	13.252	1019.093	780.603
107.089	13.165	1018.338	779.547
108.103	13.115	1017.366	778.497
109.118	13.215	1016.213	778.018
110.133	13.160	1015.396	777.062
111.147	13.158	1014.713	776.462
112.162	13.128	1013.863	775.601
113.176	13.251	1012.615	775.156
114.191	13.314	1012.194	775.059
115.206	13.249	1011.377	774.061
116.220	13.227	1010.370	773.121
117.235	13.332	1008.945	772.452
118.249	13.190	1008.720	771.546
119.264	13.158	1007.742	770.583
120.279	13.273	1007.060	770.527
121.293	13.302	1006.046	769.818
122.308	13.260	1005.171	768.886
123.322	13.175	1004.387	767.823
124.337	13.230	1003.384	767.243
125.352	13.112	1002.059	765.616
126.366	13.158	1001.431	765.281
127.381	13.255	999.992	764.561
128.395	13.368	998.765	764.077
129.410	13.186	998.633	763.072
130.424	13.274	997.553	762.582
131.439	13.254	996.791	761.842
132.454	13.409	995.631	761.601
133.468	13.417	995.209	761.247
134.483	13.468	994.157	760.608
135.497	13.448	993.276	759.774
136.512	13.400	992.550	758.934
137.527	13.305	991.878	757.917
138.541	13.461	990.978	757.876
139.556	13.413	990.190	756.987
140.570	13.461	989.465	756.585
141.585	13.511	988.447	755.971
142.600	13.448	987.469	754.867
143.614	13.670	986.520	755.084
144.629	13.534	986.266	754.206
145.643	13.458	985.125	752.919
146.658	13.557	983.854	752.330
147.673	13.463	983.166	751.312
148.687	13.352	982.514	750.245
149.702	13.343	981.358	749.254
150.716	13.420	980.789	749.104
151.731	13.436	979.947	748.467
152.746	13.506	979.382	748.286
153.760	13.574	978.347	747.736
154.775	13.519	977.833	747.029
155.789	13.517	976.898	746.240
156.804	13.530	976.442	745.882
157.819	13.639	975.417	745.524
158.833	13.567	975.557	745.239
159.848	13.516	974.637	744.241
160.862	13.650	973.102	743.605
161.877	13.505	972.489	742.420
162.892	13.486	971.199	741.284
163.906	13.418	970.332	740.252
164.921	13.518	969.591	740.069
165.935	13.579	968.650	739.557
166.950	13.526	967.646	738.490
167.964	13.727	966.273	738.274
168.979	13.615	965.555	737.160
169.994	13.467	965.162	736.137
171.008	13.535	964.392	735.789
172.023	13.657	963.779	735.795
173.037	13.735	963.032	735.507
174.052	13.668	962.526	734.756
175.067	13.563	961.802	733.676
176.081	13.490	961.364	732.950
177.096	13.762	960.211	733.212
178.110	13.636	959.854	732.318
179.125	13.670	959.075	731.809
180.140	13.676	958.680	731.466
181.154	13.757	958.437	731.575
182.169	13.733	958.249	731.262
183.183	13.787	957.468	730.839
184.198	13.737	956.430	729.763
185.213	13.840	955.773	729.646
186.227	13.843	955.121	729.098
187.242	13.913	954.307	728.721
188.256	13.980	953.676	728.468
189.271	13.842	953.449	727.627
190.286	13.693	952.120	725.893
191.300	13.583	951.362	724.773
192.315	13.719	950.672	724.777
193.329	13.706	950.569	724.575
194.344	13.821	949.433	724.148
195.359	13.737	949.349	723.654
196.373	13.735	948.761	723.134
197.388	14.021	947.785	723.571
198.402	14.022	947.311	723.148
199.417	14.078	947.023	723.108
200.432	14.056	946.454	722.514
201.446	14.182	945.404	722.194
202.461	14.164	945.313	721.986
203.475	14.139	944.530	721.212
204.490	14.114	943.825	720.503
205.504	14.044	942.817	719.365
206.519	14.106	942.110	719.032
207.534	14.012	941.360	717.991
208.548	14.177	940.581	718.043
209.563	14.134	940.162	717.476
210.577	14.176	938.898	716.629
211.592	14.205	938.676	716.520
212.607	14.208	937.909	715.883
213.621	14.093	937.358	714.904
214.636	14.241	936.339	714.702
215.650	14.266	935.792	714.327
216.665	14.206	934.885	713.314
217.680	14.277	934.334	713.137
218.694	14.261	933.991	712.743
219.709	14.310	933.457	712.481
220.723	14.295	932.567	711.674
221.738	14.250	931.658	710.726
222.753	14.317	930.906	710.376
223.767	14.328	930.806	710.283
224.782	14.487	929.877	710.190
225.796	14.431	929.272	709.423
226.811	14.436	928.952	709.139
227.826	14.556	927.746	708.666
228.840	14.396	927.232	707.531
229.855	14.434	926.130	706.790
230.869	14.406	925.481	706.112
231.884	14.443	924.813	705.696
232.899	14.485	923.968	705.168
233.913	14.405	923.242	704.212
234.928	14.387	922.390	703.426
235.942	14.348	922.441	703.236
236.957	14.396	922.020	703.056
237.972	14.359	920.906	701.988
238.986	14.446	920.265	701.804
240.001	14.433	919.570	701.156
241.015	14.422	919.248	700.804
242.030	14.551	918.461	700.683
243.045	14.556	917.752	700.100
244.059	14.550	917.015	699.452
245.074	14.413	916.683	698.561
246.088	14.511	915.781	698.222
247.103	14.645	915.068	698.178
248.117	14.640	914.686	697.806
249.132	14.757	914.281	697.921
250.147	14.702	913.645	697.144
251.161	14.758	913.114	696.911
252.176	14.803	912.271	696.397
253.190	14.911	911.496	696.190
254.205	14.919	910.831	695.657
255.220	14.915	910.263	695.142
256.234	14.933	909.965	694.927
257.249	14.824	909.206	693.837
258.263	14.864	908.707	693.557
259.278	14.966	907.800	693.229
260.293	14.983	906.972	692.606
261.307	14.943	906.705	692.174
262.322	15.106	905.790	692.087
263.336	15.173	904.683	691.459
264.351	15.122	904.178	690.800
265.366	15.069	903.646	690.112
266.380	15.120	903.278	689.981
267.395	15.070	902.352	689.007
268.409	15.136	901.221	688.356
269.424	15.054	900.740	687.588
270.439	15.058	899.724	686.769
271.453	15.024	899.030	686.039
272.468	15.052	898.865	685.968
273.482	15.115	898.446	685.847
274.497	15.113	897.742	685.241
275.512	15.108	896.805	684.441
276.526	15.169	896.173	684.149
277.541	15.145	895.753	683.669
278.555	15.282	895.371	683.877
279.570	15.263	894.934	683.406
280.585	15.357	893.310	682.488
281.599	15.266	892.957	681.786
282.614	15.173	892.715	681.163
283.628	15.218	891.972	680.720
284.643	15.230	891.570	680.399
285.657	15.348	890.998	680.384
286.672	15.304	890.454	679.728
287.687	15.405	889.306	679.202
288.701	15.461	888.739	678.934
289.716	15.535	888.152	678.724
290.730	15.398	887.712	677.778
291.745	15.498	887.279	677.789
292.760	15.399	887.034	677.141
293.774	15.481	885.695	676.390
294.789	15.592	884.868	676.145
295.803	15.423	884.595	675.197
296.818	15.483	883.837	674.799
297.833	15.423	883.082	673.923
298.847	15.591	882.246	673.900
299.862	15.552	881.939	673.450
300.876	15.640	881.098	673.101
301.891	15.594	880.947	672.741
302.906	15.676	880.340	672.546
303.920	15.736	880.000	672.466
304.935	15.825	879.051	672.035
305.949	15.672	878.657	671.067
306.964	15.623	877.906	670.238
307.979	15.791	877.334	670.411
308.993	15.706	876.684	669.517
310.008	15.804	876.391	669.623
311.022	15.680	875.323	668.255
312.037	15.729	874.787	667.982
313.052	15.670	873.893	667.004
314.066	15.692	874.073	667.173
315.081	15.590	873.410	666.203
316.095	15.679	872.671	665.932
317.110	15.647	872.037	665.263
318.125	15.811	871.428	665.389
319.139	15.785	870.764	664.720
320.154	15.692	870.247	663.900
321.168	15.782	869.868	663.905
322.183	15.875	869.127	663.646
323.197	15.800	868.775	663.025
324.212	15.895	868.063	662.796
325.227	15.878	867.919	662.560
326.241	15.867	866.825	661.626
327.256	15.886	866.226	661.182
328.270	15.996	865.620	661.092
329.285	15.725	865.085	659.564
330.300	15.883	864.310	659.534
331.314	15.897	864.088	659.363
332.329	15.924	863.694	659.108
333.343	15.887	863.256	658.570
334.358	15.713	863.258	657.832
335.373	15.958	862.544	658.188
336.387	16.069	862.144	658.260
337.402	16.081	861.856	658.028
338.416	16.241	861.248	658.130
339.431	16.110	861.104	657.451
340.446	16.141	860.703	657.208
341.460	16.251	860.177	657.173
342.475	16.170	859.835	656.541
343.489	16.213	859.467	656.366
344.504	16.371	858.804	656.419
345.519	16.227	858.416	655.504
346.533	16.334	857.552	655.203
347.548	16.234	857.223	654.505
348.562	16.197	856.903	654.059
349.577	16.038	856.105	652.774
350.592	16.240	855.160	652.779
351.606	16.250	854.509	652.261
352.621	16.340	853.618	651.873
353.635	16.226	853.348	651.170
354.650	16.144	852.967	650.505
355.665	16.227	852.477	650.393
356.679	16.394	851.254	650.045
357.694	16.364	850.587	649.363
358.708	16.378	850.070	648.963
359.723	16.335	849.693	648.452
360.738	16.384	849.096	648.127
361.752	16.440	848.190	647.592
362.767	16.490	847.710	647.363
363.781	16.496	847.428	647.110
364.796	16.588	847.048	647.115
365.810	16.631	846.368	646.703
366.825	16.597	845.860	646.130
367.840	16.646	845.697	646.135
368.854	16.440	845.235	644.938
369.869	16.782	844.658	645.745
370.883	16.679	844.064	644.839
371.898	16.622	843.920	644.457
372.913	16.734	843.218	644.292
373.927	16.723	842.883	643.935
374.942	16.693	842.443	643.430
375.956	16.764	841.970	643.280
376.971	16.769	841.658	643.004
377.986	16.770	841.231	642.623
379.000	16.925	840.347	642.478
380.015	16.894	840.261	642.237
381.029	16.804	839.651	641.375
382.044	16.983	838.759	641.314
383.059	16.999	838.102	640.815
384.073	16.860	837.750	639.966
385.088	16.953	837.255	639.882
386.102	16.905	836.663	639.192
387.117	16.949	835.847	638.678
388.132	17.030	835.426	638.603
389.146	16.933	834.755	637.667
390.161	17.005	834.207	637.465
391.175	16.925	833.940	636.904
392.190	17.001	833.153	636.530
393.205	16.845	832.793	635.616
394.219	16.870	832.245	635.234
395.234	16.929	831.973	635.191
396.248	16.953	831.749	635.054
397.263	16.937	831.334	634.621
398.278	17.017	830.611	634.311
399.292	16.726	830.872	633.366
400.307	16.881	829.915	633.159
401.321	16.957	829.109	632.774
402.336	17.020	828.557	632.529
403.350	17.004	828.222	632.158
404.365	17.120	828.031	632.391
405.380	17.214	827.173	632.028
406.394	17.259	826.579	631.684
407.409	17.296	826.145	631.436
408.423	17.341	826.123	631.529
409.438	17.308	825.751	631.069
410.453	17.286	825.482	630.723
411.467	17.339	825.104	630.576
412.482	17.422	824.574	630.424
413.496	17.203	824.466	629.474
414.511	17.388	823.831	629.618
415.526	17.364	823.509	629.225
416.540	17.299	823.168	628.668
417.555	17.476	822.307	628.611
418.569	17.435	821.855	628.057
419.584	17.485	821.384	627.828
420.599	17.638	820.806	627.894
421.613	94.970	1274.014	1394.657
422.628	81.708	1340.076	1394.777
