DTS Sentinel unit serial number:	SN413079Multiplexer serial number:	ORYXHardware model number:	OX4-SRSoftware version number:	ORYX F/W v4.00 Oryx Data Collector v3.7.2.0data status	okinstallation	princeton_trtdifferential loss correction	single-endedforward channel	channel 1reverse channel	N/Adate	2019/09/11time	21:24:11forward acquisition time	60.00reverse acquisition time	0.00gamma	496.2192k internal	0.2309k external	0.2309temperature offset calibration	1.0049default loss term (dB/km)	0.3790temperature slope calibration	1.0000multiplexer offset coefficient	1.0000multiplexer slope coefficient	1.0000fibre end	0.00T internal ref (°C)	36.12T ext. ref 1 (°C)	1.57T ext. ref 2 (°C)	30.06length (m)	temperature (°C)	Stokes	anti-Stokes-747.200	184.656	-0.115	0.174
-746.185	185.016	-0.323	0.487
-745.171	-200.000	0.019	0.259
-744.156	-22.812	-0.308	-0.189
-743.142	401.398	-0.023	-0.048
-742.127	-24.252	0.300	0.182
-741.112	148.268	0.100	-0.137
-740.098	293.187	0.328	0.607
-739.083	27.734	-0.043	-0.037
-738.069	91.098	0.083	0.094
-737.054	132.258	-0.091	-0.120
-736.039	77.561	-0.095	-0.103
-735.025	-36.055	0.282	0.155
-734.010	43.014	-0.106	0.098
-732.996	-24.191	-0.226	-0.137
-731.981	-200.000	0.029	0.151
-730.966	-45.005	-0.163	-0.083
-729.952	-200.000	0.001	-0.139
-728.937	39.207	0.107	-0.097
-727.923	408.798	0.137	-0.294
-726.908	127.292	-0.227	0.293
-725.894	16.481	-0.061	-0.049
-724.879	179.224	0.097	0.145
-723.864	-88.048	-0.185	-0.057
-722.850	46.631	0.281	0.265
-721.835	-10.432	-0.032	-0.022
-720.821	-200.000	-0.004	0.281
-719.806	800.000	0.014	0.052
-718.791	189.244	0.089	0.135
-717.777	93.874	0.156	-0.180
-716.762	-135.181	0.313	0.038
-715.748	-67.615	0.332	-0.132
-714.733	-200.000	0.018	-0.092
-713.718	-200.000	-0.016	-0.284
-712.704	-200.000	0.005	-0.405
-711.689	185.376	-0.099	0.149
-710.675	-157.028	0.249	-0.015
-709.660	34.677	-0.216	0.192
-708.645	-102.894	0.230	-0.055
-707.631	-110.748	-0.034	0.007
-706.616	-48.770	-0.294	-0.143
-705.602	-200.000	-0.029	-0.256
-704.587	-109.403	-0.057	-0.012
-703.572	-90.871	-0.153	0.045
-702.558	597.881	0.080	-0.201
-701.543	-56.089	0.135	-0.061
-700.529	-200.000	0.046	0.231
-699.514	-196.281	-0.040	-0.000
-698.499	759.468	0.048	0.132
-697.485	800.000	0.130	-0.432
-696.470	-79.627	0.378	-0.129
-695.456	800.000	-0.078	-0.315
-694.441	-169.259	0.456	0.017
-693.426	-130.219	0.385	-0.053
-692.412	43.644	0.230	0.213
-691.397	40.731	0.112	0.103
-690.383	237.396	0.166	0.280
-689.368	76.829	0.050	-0.054
-688.354	-33.732	0.120	0.067
-687.339	4.996	-0.320	-0.238
-686.324	54.867	-0.144	-0.141
-685.310	97.479	-0.064	0.075
-684.295	-161.215	-0.174	-0.009
-683.281	68.824	-0.135	-0.141
-682.266	-200.000	0.063	-0.347
-681.251	-104.248	-0.542	-0.127
-680.237	800.000	-0.040	-0.154
-679.222	-116.594	-0.382	-0.071
-678.208	486.677	-0.016	-0.037
-677.193	165.712	0.149	0.214
-676.178	-200.000	0.055	-0.299
-675.164	116.699	0.007	0.009
-674.149	95.862	0.150	0.174
-673.135	175.861	-0.180	0.264
-672.120	-97.533	-0.249	0.066
-671.105	237.435	0.076	-0.127
-670.091	-137.680	-0.184	-0.021
-669.076	40.563	-0.270	0.246
-668.062	335.178	-0.160	0.315
-667.047	-99.398	-0.211	-0.054
-666.032	800.000	-0.123	0.362
-665.018	-200.000	0.081	0.399
-664.003	-155.987	0.242	-0.016
-662.989	465.134	0.144	0.327
-661.974	309.674	-0.019	-0.036
-660.959	-96.226	-0.145	-0.039
-659.945	-44.957	0.222	0.112
-658.930	-6.509	0.119	0.082
-657.916	318.244	0.020	-0.039
-656.901	-117.189	0.446	-0.082
-655.886	-84.694	0.096	-0.031
-654.872	-6.968	0.155	0.107
-653.857	-200.000	-0.047	-0.337
-652.843	68.249	-0.082	0.085
-651.828	145.639	-0.117	-0.159
-650.814	-200.000	-0.002	0.079
-649.799	-200.000	-0.041	-0.293
-648.784	-76.149	-0.144	0.051
-647.770	-144.952	-0.127	0.012
-646.755	-130.284	-0.116	0.016
-645.741	414.140	0.079	0.169
-644.726	-200.000	-0.021	-0.102
-643.711	112.349	-0.015	0.018
-642.697	-161.335	-0.272	0.014
-641.682	-3.848	0.069	-0.048
-640.668	12.463	-0.087	-0.068
-639.653	-200.000	0.016	-0.192
-638.638	-161.602	-0.263	-0.014
-637.624	-63.809	0.433	0.179
-636.609	-9.582	-0.336	-0.227
-635.595	-28.314	-0.331	0.193
-634.580	471.396	0.024	0.055
-633.565	800.000	-0.048	-0.155
-632.551	-184.307	-0.322	0.005
-631.536	-55.364	0.102	-0.046
-630.522	-68.081	0.269	0.106
-629.507	-200.000	-0.009	0.135
-628.492	-200.000	0.010	0.112
-627.478	-200.000	-0.029	0.379
-626.463	-141.929	-0.401	0.041
-625.449	351.238	0.070	-0.140
-624.434	-200.000	0.004	0.120
-623.419	-56.969	-0.021	-0.009
-622.405	-155.811	0.253	0.016
-621.390	-101.050	0.419	0.104
-620.376	-200.000	0.004	0.154
-619.361	29.809	-0.200	-0.172
-618.346	-25.460	-0.226	-0.135
-617.332	8.280	-0.175	0.133
-616.317	-200.000	-0.024	0.139
-615.303	2.021	0.187	0.137
-614.288	-85.803	0.234	-0.073
-613.273	-97.863	0.139	-0.036
-612.259	-33.115	0.058	-0.033
-611.244	71.602	0.020	0.022
-610.230	800.000	-0.073	-0.256
-609.215	-200.000	0.078	-0.421
-608.201	714.443	0.079	0.212
-607.186	430.757	0.097	0.212
-606.171	-11.073	-0.056	-0.037
-605.157	800.000	0.086	-0.373
-604.142	-78.142	0.102	-0.036
-603.128	41.868	-0.154	-0.141
-602.113	-107.892	-0.231	-0.051
-601.098	-200.000	0.045	0.229
-600.084	-200.000	-0.056	0.333
-599.069	49.162	0.164	0.156
-598.055	36.146	0.196	-0.174
-597.040	782.580	-0.101	0.280
-596.025	-200.000	0.034	0.243
-595.011	78.979	0.089	-0.096
-593.996	-200.000	0.045	-0.332
-592.982	356.968	0.129	-0.260
-591.967	93.039	0.107	0.122
-590.952	44.812	-0.176	0.163
-589.938	65.102	0.150	-0.153
-588.923	104.477	0.178	0.212
-587.909	800.000	0.074	-0.231
-586.894	800.000	0.014	0.055
-585.879	-10.173	-0.223	-0.149
-584.865	800.000	0.051	-0.161
-583.850	-200.000	0.035	0.225
-582.836	20.348	-0.211	-0.172
-581.821	-100.780	0.338	-0.084
-580.806	65.618	-0.114	0.116
-579.792	465.510	-0.083	0.188
-578.777	-38.653	-0.126	0.067
-577.763	-107.884	-0.042	0.009
-576.748	-117.945	-0.235	-0.042
-575.733	-163.167	0.213	-0.010
-574.719	-200.000	0.022	-0.351
-573.704	800.000	-0.032	-0.118
-572.690	-174.293	-0.284	-0.008
-571.675	452.836	-0.046	-0.103
-570.661	526.312	0.052	-0.124
-569.646	413.801	0.067	0.145
-568.631	198.998	0.084	0.130
-567.617	227.783	-0.175	0.287
-566.602	-45.325	-0.124	0.062
-565.588	126.847	0.088	0.112
-564.573	651.132	-0.034	0.088
-563.558	511.731	0.130	0.305
-562.544	-57.142	0.095	0.042
-561.529	69.694	-0.191	-0.199
-560.515	-49.824	-0.230	-0.110
-559.500	107.401	0.043	0.052
-558.485	-200.000	-0.009	-0.053
-557.471	191.366	-0.031	0.047
-556.456	330.811	-0.093	0.181
-555.442	256.746	0.177	0.307
-554.427	-97.795	0.157	-0.041
-553.412	-17.490	-0.035	-0.022
-552.398	46.035	-0.113	-0.106
-551.383	-98.118	-0.278	0.072
-550.369	-22.182	0.270	-0.165
-549.354	-2.686	0.325	-0.229
-548.339	-42.768	0.324	0.166
-547.325	-200.000	-0.027	-0.149
-546.310	800.000	0.089	-0.260
-545.296	-2.099	-0.096	-0.068
-544.281	-200.000	0.013	-0.328
-543.266	317.200	-0.222	-0.422
-542.252	-101.023	-0.184	0.045
-541.237	303.714	-0.007	0.014
-540.223	-49.982	0.021	-0.010
-539.208	-200.000	-0.074	-0.358
-538.193	86.130	0.012	0.013
-537.179	-91.932	-0.394	-0.113
-536.164	203.954	-0.101	0.157
-535.150	-74.155	0.253	-0.092
-534.135	-9.285	0.199	0.134
-533.121	-127.103	0.263	-0.039
-532.106	-200.000	0.041	-0.253
-531.091	-83.761	0.176	-0.057
-530.077	-104.709	-0.224	-0.052
-529.062	3.368	-0.134	-0.098
-528.048	-144.766	-0.149	-0.014
-527.033	-200.000	0.018	-0.256
-526.018	-169.524	-0.246	0.009
-525.004	82.644	0.063	0.069
-523.989	519.758	0.177	0.418
-522.975	-26.911	-0.164	0.097
-521.960	148.904	-0.141	-0.192
-520.945	101.668	-0.090	0.106
-519.931	109.202	0.267	0.321
-518.916	-29.240	0.085	0.049
-517.902	-20.016	0.172	-0.107
-516.887	-200.000	0.048	0.434
-515.872	-76.364	0.128	-0.046
-514.858	5.815	0.175	-0.131
-513.843	39.702	0.342	0.309
-512.829	97.993	0.158	0.183
-511.814	29.747	-0.143	-0.123
-510.799	41.243	0.172	-0.157
-509.785	135.829	-0.087	0.115
-508.770	0.226	-0.109	-0.079
-507.756	489.236	-0.159	0.365
-506.741	268.469	-0.061	0.107
-505.726	-163.824	0.252	0.012
-504.712	-200.000	0.033	-0.172
-503.697	24.185	-0.201	0.167
-502.683	-157.637	0.289	0.017
-501.668	485.302	0.025	-0.058
-500.653	-176.791	0.121	-0.003
-499.639	800.000	-0.072	0.246
-498.624	-103.642	-0.192	-0.045
-497.610	5.881	0.270	0.201
-496.595	-112.534	0.259	-0.052
-495.581	-200.000	-0.029	0.240
-494.566	152.301	-0.108	-0.148
-493.551	118.751	-0.069	-0.085
-492.537	-200.000	0.027	-0.187
-491.522	-140.577	-0.271	0.028
-490.508	-200.000	0.016	0.118
-489.493	-8.659	-0.171	0.115
-488.478	32.151	0.063	0.054
-487.464	-127.597	0.184	0.027
-486.449	67.703	-0.107	-0.110
-485.435	-38.798	0.239	0.127
-484.420	16.964	0.118	-0.094
-483.405	341.913	-0.163	-0.321
-482.391	198.781	-0.221	-0.340
-481.376	800.000	0.028	-0.080
-480.362	-200.000	0.024	-0.288
-479.347	77.435	0.210	-0.225
-478.332	-122.023	-0.458	0.076
-477.318	-200.000	0.022	0.108
-476.303	220.079	-0.002	0.004
-475.289	37.810	0.185	-0.165
-474.274	354.211	-0.043	-0.085
-473.259	12.211	0.068	0.052
-472.245	56.692	-0.205	0.200
-471.230	800.000	-0.020	-0.072
-470.216	166.020	0.157	-0.224
-469.201	-79.711	0.072	-0.024
-468.186	218.522	0.075	-0.120
-467.172	224.226	0.193	0.314
-466.157	800.000	-0.051	0.194
-465.143	-200.000	-0.020	-0.221
-464.128	275.355	0.123	-0.219
-463.113	-178.513	-0.121	-0.003
-462.099	232.526	0.131	0.216
-461.084	-200.000	0.052	0.378
-460.070	-200.000	0.024	0.198
-459.055	341.630	0.084	-0.164
-458.040	63.300	-0.190	0.191
-457.026	-71.992	-0.337	-0.126
-456.011	88.498	0.066	-0.074
-454.997	563.946	-0.014	-0.034
-453.982	-149.725	0.189	-0.015
-452.968	-200.000	0.013	0.356
-451.953	-200.000	0.031	0.196
-450.938	67.340	-0.217	0.222
-449.924	25.681	0.166	0.139
-448.909	-105.002	0.132	0.030
-447.895	-28.011	-0.086	-0.050
-446.880	-134.811	-0.207	0.025
-445.865	525.727	-0.055	0.130
-444.851	-171.200	-0.245	0.008
-443.836	3.495	-0.141	-0.103
-442.822	-97.124	-0.175	-0.046
-441.807	183.993	-0.114	-0.169
-440.792	-200.000	0.017	-0.411
-439.778	-26.301	0.449	-0.265
-438.763	180.148	-0.166	0.244
-437.749	51.074	-0.099	-0.094
-436.734	800.000	-0.022	0.096
-435.719	-112.128	0.172	0.035
-434.705	244.233	-0.056	-0.095
-433.690	-119.772	-0.185	0.032
-432.676	-0.655	-0.139	0.099
-431.661	-95.867	0.158	0.042
-430.646	15.395	-0.131	0.103
-429.632	-10.831	-0.157	-0.104
-428.617	398.586	0.125	-0.262
-427.603	323.025	0.058	0.111
-426.588	148.106	-0.098	-0.132
-425.573	-200.000	0.027	-0.199
-424.559	118.864	0.236	-0.292
-423.544	800.000	0.060	0.214
-422.530	-66.935	-0.045	0.018
-421.515	302.706	-0.136	0.253
-420.500	800.000	0.050	-0.140
-419.486	196.658	-0.086	-0.132
-418.471	204.598	0.108	0.167
-417.457	56.024	-0.223	-0.217
-416.442	174.307	0.073	-0.106
-415.428	-137.968	-0.134	0.015
-414.413	-49.838	-0.115	0.055
-413.398	-200.000	-0.055	0.240
-412.384	-30.667	0.248	0.141
-411.369	-133.515	0.046	-0.006
-410.355	110.978	-0.136	-0.164
-409.340	2.996	-0.197	-0.143
-408.325	795.585	0.087	-0.241
-407.311	-13.898	0.140	0.091
-406.296	800.000	-0.016	-0.062
-405.282	289.304	-0.154	-0.280
-404.267	-63.155	-0.249	0.103
-403.252	45.347	0.128	0.119
-402.238	-200.000	-0.004	0.208
-401.223	414.880	0.138	0.294
-400.209	-39.734	0.273	-0.143
-399.194	-200.000	-0.018	-0.176
-398.179	800.000	-0.019	0.075
-397.165	251.644	0.164	0.280
-396.150	51.850	-0.186	-0.178
-395.136	163.659	-0.067	-0.094
-394.121	-200.000	0.003	-0.189
-393.106	123.516	0.124	0.155
-392.092	469.253	0.088	0.197
-391.077	-56.504	0.323	0.143
-390.063	-183.810	-0.314	-0.005
-389.048	505.704	-0.150	0.348
-388.033	-41.983	-0.119	-0.061
-387.019	58.290	-0.241	0.236
-386.004	46.063	-0.041	0.038
-384.990	-114.033	0.204	0.040
-383.975	251.390	-0.095	-0.162
-382.960	-169.674	0.123	0.004
-381.946	-130.799	0.358	-0.048
-380.931	-120.908	0.311	-0.052
-379.917	22.278	0.265	-0.216
-378.902	-200.000	-0.008	-0.271
-377.888	69.098	-0.031	-0.032
-376.873	536.058	0.100	-0.237
-375.858	-200.000	0.042	-0.250
-374.844	-200.000	0.003	0.143
-373.829	-146.029	-0.107	-0.009
-372.815	800.000	0.025	0.100
-371.800	-200.000	-0.012	-0.650
-370.785	52.336	0.163	-0.156
-369.771	428.595	-0.110	0.239
-368.756	-43.119	-0.297	0.151
-367.742	-46.496	-0.202	0.099
-366.727	-200.000	0.006	0.227
-365.712	-84.501	0.280	0.089
-364.698	-14.942	0.341	-0.219
-363.683	-200.000	0.000	0.092
-362.669	474.496	0.089	-0.200
-361.654	-93.953	-0.265	0.073
-360.639	800.000	-0.051	0.145
-359.625	148.623	0.251	0.339
-358.610	-153.691	0.235	-0.016
-357.596	25.114	-0.271	0.225
-356.581	800.000	0.132	0.371
-355.566	800.000	0.076	0.250
-354.552	86.463	0.096	0.106
-353.537	41.198	-0.099	-0.090
-352.523	-143.680	0.240	-0.023
-351.508	800.000	-0.097	-0.312
-350.493	61.043	0.172	0.171
-349.479	651.831	0.105	-0.270
-348.464	-163.369	0.159	0.008
-347.450	-3.508	-0.183	-0.127
-346.435	80.545	-0.014	0.015
-345.420	-12.717	-0.188	0.123
-344.406	-122.523	0.237	0.039
-343.391	800.000	-0.105	0.365
-342.377	317.875	0.173	0.327
-341.362	-142.934	-0.210	0.020
-340.348	-162.143	0.068	-0.003
-339.333	800.000	0.087	0.247
-338.318	-200.000	0.026	-0.253
-337.304	-90.756	0.162	0.047
-336.289	-117.246	-0.608	0.110
-335.275	800.000	0.045	0.159
-334.260	148.102	-0.254	0.343
-333.245	-83.158	-0.322	0.104
-332.231	217.471	0.056	0.088
-331.216	-200.000	0.010	-0.312
-330.202	-200.000	-0.026	0.240
-329.187	-104.513	0.133	-0.031
-328.172	-35.356	0.166	-0.090
-327.158	-139.388	0.176	-0.019
-326.143	-200.000	0.026	0.256
-325.129	800.000	0.014	-0.056
-324.114	145.126	0.289	-0.386
-323.099	-116.404	-0.324	0.060
-322.085	-129.561	0.282	-0.039
-321.070	-64.520	0.256	-0.104
-320.056	-138.839	-0.230	0.025
-319.041	800.000	0.044	-0.146
-318.026	-135.446	0.369	0.044
-317.012	663.813	-0.024	0.063
-315.997	-200.000	0.006	-0.361
-314.983	-200.000	-0.012	-0.204
-313.968	60.521	-0.135	0.134
-312.953	392.005	-0.169	0.350
-311.939	755.763	-0.040	-0.109
-310.924	-85.706	0.378	0.117
-309.910	256.047	-0.092	-0.158
-308.895	42.506	-0.239	0.217
-307.880	-200.000	0.061	0.453
-306.866	348.756	-0.099	0.195
-305.851	47.694	-0.250	0.233
-304.837	89.008	0.280	-0.311
-303.822	-200.000	0.030	0.154
-302.807	-116.428	-0.203	-0.037
-301.793	284.854	0.028	0.050
-300.778	-200.000	0.012	-0.430
-299.764	800.000	0.082	-0.329
-298.749	-49.478	0.077	0.037
-297.735	66.916	-0.179	0.182
-296.720	-2.147	0.194	-0.136
-295.705	302.680	-0.065	-0.120
-294.691	-155.953	-0.122	-0.008
-293.676	-106.821	0.214	-0.047
-292.662	-11.393	-0.127	-0.083
-291.647	-195.983	0.024	0.000
-290.632	-58.766	0.185	0.080
-289.618	55.614	-0.141	0.137
-288.603	15.800	0.033	-0.026
-287.589	800.000	-0.024	0.070
-286.574	-66.772	-0.097	0.038
-285.559	70.819	-0.140	0.144
-284.545	13.457	-0.205	0.159
-283.530	-73.895	-0.240	-0.087
-282.516	-45.610	0.241	0.119
-281.501	-200.000	0.039	0.196
-280.486	14.482	0.199	-0.155
-279.472	8.533	0.170	0.128
-278.457	30.462	-0.225	0.192
-277.443	-39.777	-0.465	-0.242
-276.428	-138.113	-0.185	-0.020
-275.413	-200.000	0.003	-0.244
-274.399	-9.417	-0.374	-0.249
-273.384	-154.308	-0.245	-0.016
-272.370	-172.280	-0.325	0.010
-271.355	800.000	-0.050	-0.138
-270.340	-200.000	-0.001	0.030
-269.326	71.625	-0.177	-0.183
-268.311	120.680	0.094	-0.117
-267.297	800.000	-0.067	-0.242
-266.282	-200.000	-0.007	0.251
-265.267	-200.000	0.012	-0.156
-264.253	-34.901	0.075	0.041
-263.238	-126.131	0.286	-0.043
-262.224	-189.706	-0.117	-0.001
-261.209	-55.945	0.121	0.054
-260.195	30.581	0.325	-0.277
-259.180	-96.846	-0.178	-0.047
-258.165	207.000	-0.138	-0.214
-257.151	-55.264	0.049	-0.022
-256.136	-139.113	0.063	0.007
-255.122	800.000	-0.140	0.508
-254.107	-200.000	-0.005	-0.210
-253.092	-108.193	0.146	-0.032
-252.078	-2.396	-0.155	0.109
-251.063	-186.322	0.383	0.006
-250.049	230.385	-0.052	-0.084
-249.034	291.092	-0.110	-0.200
-248.019	800.000	0.089	-0.302
-247.005	-91.359	-0.290	0.083
-245.990	-200.000	-0.002	-0.106
-244.976	-33.023	0.150	-0.083
-243.961	-57.951	-0.212	0.092
-242.946	323.979	-0.109	0.208
-241.932	75.258	0.058	-0.061
-240.917	152.263	0.162	0.220
-239.903	-200.000	0.018	-0.153
-238.888	106.432	-0.393	-0.464
-237.873	33.808	0.065	-0.056
-236.859	-87.607	-0.186	-0.056
-235.844	37.670	0.151	-0.134
-234.830	800.000	-0.051	0.149
-233.815	-152.922	0.188	0.013
-232.800	-143.083	0.156	-0.015
-231.786	-41.163	0.159	-0.082
-230.771	7.922	-0.087	-0.065
-229.757	-97.214	0.141	-0.037
-228.742	800.000	0.036	0.110
-227.727	-200.000	-0.058	0.320
-226.713	36.179	-0.072	-0.063
-225.698	-200.000	-0.027	-0.223
-224.684	545.748	0.074	0.176
-223.669	-200.000	0.057	0.261
-222.655	-59.056	0.136	-0.059
-221.640	662.601	0.075	-0.193
-220.625	44.875	0.115	0.105
-219.611	-105.731	0.134	-0.030
-218.596	98.273	0.073	0.084
-217.582	800.000	0.064	0.199
-216.567	-114.927	-0.243	-0.046
-215.552	-137.417	0.475	0.054
-214.538	800.000	-0.054	-0.225
-213.523	800.000	0.065	-0.213
-212.509	269.855	0.079	-0.137
-211.494	-200.000	0.035	0.172
-210.479	-80.379	0.085	0.028
-209.465	800.000	0.102	0.280
-208.450	53.761	0.266	0.255
-207.436	251.162	-0.074	-0.124
-206.421	224.316	-0.043	0.068
-205.406	-160.719	0.258	-0.014
-204.392	-200.000	-0.045	-0.392
-203.377	-112.362	0.169	-0.034
-202.363	-200.000	-0.046	-0.240
-201.348	-23.102	-0.106	0.064
-200.333	74.880	-0.195	-0.204
-199.319	-200.000	-0.013	-0.094
-198.304	24.736	0.063	-0.052
-197.290	199.309	-0.141	-0.215
-196.275	101.401	0.253	-0.293
-195.260	-200.000	-0.012	-0.109
-194.246	271.889	0.127	0.223
-193.231	71.444	0.170	0.175
-192.217	24.236	0.036	-0.030
-191.202	283.820	0.199	0.356
-190.187	-200.000	0.007	-0.111
-189.173	800.000	-0.121	-0.331
-188.158	-200.000	-0.038	0.414
-187.144	-40.033	-0.191	0.099
-186.129	-89.042	-0.086	0.025
-185.114	459.162	0.107	-0.237
-184.100	800.000	-0.088	-0.248
-183.085	-89.089	-0.349	0.103
-182.071	31.493	-0.088	0.075
-181.056	396.921	-0.037	0.078
-180.042	33.791	-0.159	-0.137
-179.027	789.933	-0.082	0.223
-178.012	96.244	0.219	0.248
-176.998	-166.223	0.251	-0.011
-175.983	-103.166	-0.283	-0.066
-174.969	800.000	0.089	-0.257
-173.954	-200.000	0.002	-0.018
-172.939	-200.000	0.003	0.352
-171.925	276.792	-0.082	-0.144
-170.910	-178.133	-0.095	0.002
-169.896	-47.636	-0.152	0.073
-168.881	-200.000	-0.028	-0.144
-167.866	-84.938	0.271	-0.084
-166.852	300.935	-0.109	0.199
-165.837	-74.231	-0.185	0.066
-164.823	550.078	0.142	0.339
-163.808	-46.455	-0.242	0.118
-162.793	-54.042	-0.369	0.167
-161.779	149.522	-0.084	0.113
-160.764	-134.884	-0.155	-0.019
-159.750	-200.000	0.047	-0.350
-158.735	51.601	0.106	0.100
-157.720	43.304	-0.148	0.134
-156.706	800.000	0.057	0.218
-155.691	111.048	0.161	-0.192
-154.677	800.000	0.070	-0.255
-153.662	249.649	-0.140	0.235
-152.647	123.130	0.078	-0.098
-151.633	-93.670	0.201	0.055
-150.618	56.965	0.319	0.309
-149.604	-47.927	-0.163	-0.078
-148.589	123.308	-0.206	0.256
-147.574	-78.552	0.176	0.060
-146.560	503.374	0.019	-0.045
-145.545	578.299	-0.040	-0.096
-144.531	182.010	0.190	0.278
-143.516	342.075	0.071	0.138
-142.502	-31.734	0.303	-0.169
-141.487	800.000	-0.059	0.179
-140.472	-91.633	0.310	0.088
-139.458	-10.647	0.108	0.071
-138.443	-200.000	-0.010	-0.153
-137.429	308.075	-0.077	-0.142
-136.414	-48.343	0.116	0.055
-135.399	149.724	0.118	0.159
-134.385	-128.859	0.285	0.040
-133.370	-161.000	-0.085	-0.004
-132.356	-200.000	-0.050	-0.701
-131.341	-86.174	0.262	0.080
-130.326	223.041	0.136	0.218
-129.312	-129.266	-0.129	-0.018
-128.297	691.159	0.034	-0.089
-127.283	-200.000	0.012	0.083
-126.268	106.321	-0.180	0.211
-125.253	-152.063	-0.226	-0.016
-124.239	-25.866	0.133	0.078
-123.224	800.000	0.085	0.261
-122.210	202.804	-0.176	-0.270
-121.195	-50.706	0.353	0.165
-120.180	145.999	0.091	-0.121
-119.166	-26.474	0.110	0.064
-118.151	-128.163	-0.382	-0.054
-117.137	-200.000	-0.044	-0.341
-116.122	-87.402	0.198	0.059
-115.107	-200.000	-0.026	-0.265
-114.093	-200.000	-0.036	0.224
-113.078	226.352	-0.117	-0.189
-112.064	-125.018	0.180	0.027
-111.049	48.097	-0.087	-0.081
-110.034	-51.786	-0.152	0.070
-109.020	-200.000	0.034	-0.228
-108.005	222.935	-0.136	0.218
-106.991	-11.893	-0.280	0.182
-105.976	248.064	-0.047	-0.078
-104.962	51.556	-0.254	0.239
-103.947	-58.512	-0.166	-0.071
-102.932	319.875	-0.054	0.101
-101.918	59.210	0.127	0.124
-100.903	800.000	0.040	0.155
-99.889	-62.574	0.238	0.098
-98.874	154.570	0.082	-0.111
-97.859	101.963	0.080	0.092
-96.845	-111.271	-0.144	0.029
-95.830	207.159	0.146	0.225
-94.816	452.903	-0.032	0.070
-93.801	206.404	-0.020	-0.031
-92.786	800.000	0.049	0.187
-91.772	17.102	0.207	-0.163
-90.757	-200.000	0.064	0.329
-89.743	-39.747	-0.017	0.009
-88.728	550.631	-0.062	-0.147
-87.713	205.938	-0.069	0.107
-86.699	800.000	0.079	0.302
-85.684	-12.215	0.192	-0.124
-84.670	-71.989	0.050	0.018
-83.655	-51.080	0.071	0.033
-82.640	800.000	0.030	0.130
-81.626	67.743	0.288	-0.291
-80.611	553.967	-0.082	-0.196
-79.597	800.000	0.054	-0.201
-78.582	236.994	0.146	0.239
-77.567	-61.050	-0.123	0.051
-76.553	-200.000	-0.004	-0.175
-75.538	-0.913	0.342	-0.240
-74.524	800.000	0.101	0.284
-73.509	-161.378	0.186	0.009
-72.494	446.176	-0.132	0.286
-71.480	380.334	0.096	0.194
-70.465	308.974	-0.078	0.144
-69.451	800.000	-0.071	-0.251
-68.436	800.000	0.121	0.509
-67.422	-200.000	0.037	0.272
-66.407	-26.674	-0.126	-0.073
-65.392	-40.304	-0.209	0.108
-64.378	-200.000	-0.030	-0.155
-63.363	123.203	0.105	-0.130
-62.349	22.954	-0.244	0.198
-61.334	136.928	-0.643	-0.831
-60.319	422.899	0.263	0.558
-59.305	800.000	-0.234	-0.790
-58.290	499.669	0.366	0.835
-57.276	800.000	0.393	1.492
-56.261	-200.000	92.415	555.011
-55.246	547.549	1363.319	3227.198
-54.232	153.515	2571.801	3482.916
-53.217	116.944	2167.394	2631.936
-52.203	47.775	1627.766	1502.600
-51.188	39.557	1364.250	1209.152
-50.173	36.192	1321.625	1151.278
-49.159	58.038	1368.925	1325.524
-48.144	62.453	1387.162	1369.867
-47.130	39.965	1342.430	1192.086
-46.115	36.339	1324.198	1154.216
-45.100	36.128	1319.769	1149.051
-44.086	35.977	1317.470	1146.105
-43.071	35.983	1315.323	1144.231
-42.057	35.929	1312.975	1141.820
-41.042	35.971	1311.149	1140.439
-40.027	36.079	1309.727	1139.793
-39.013	35.996	1308.143	1137.878
-37.998	36.113	1305.726	1136.419
-36.984	36.113	1304.240	1135.085
-35.969	36.156	1302.298	1133.603
-34.954	36.005	1301.278	1131.783
-33.940	36.135	1299.251	1130.738
-32.925	36.246	1297.846	1130.120
-31.911	36.244	1296.416	1128.817
-30.896	36.234	1295.304	1127.743
-29.881	36.355	1293.520	1126.855
-28.867	36.200	1292.405	1124.931
-27.852	36.223	1291.058	1123.848
-26.838	36.297	1289.125	1122.551
-25.823	36.234	1287.678	1120.883
-24.809	36.179	1286.778	1119.733
-23.794	36.088	1285.463	1118.022
-22.779	36.201	1283.808	1117.191
-21.765	36.194	1282.795	1116.227
-20.750	36.266	1281.327	1115.318
-19.736	36.094	1280.186	1113.286
-18.721	36.116	1278.587	1111.981
-17.706	36.109	1277.478	1110.933
-16.692	36.107	1276.488	1110.012
-15.677	36.062	1275.157	1108.553
-14.663	36.139	1273.968	1107.917
-13.648	36.062	1273.206	1106.770
-12.633	36.073	1272.274	1105.980
-11.619	36.071	1271.347	1105.118
-10.604	36.029	1270.425	1104.034
-9.590	35.998	1269.317	1102.847
-8.575	35.987	1268.740	1102.241
-7.560	36.044	1268.077	1101.947
-6.546	36.123	1266.680	1101.140
-5.531	36.002	1266.149	1099.941
-4.517	35.999	1265.235	1099.090
-3.502	36.095	1263.898	1098.433
-2.487	36.136	1263.123	1097.945
-1.473	35.966	1259.135	1093.473
-0.458	34.513	1244.185	1072.287
0.556	30.865	1225.368	1032.336
1.571	26.925	1230.383	1014.491
2.586	25.929	1245.688	1021.383
3.600	25.006	1234.799	1007.174
4.615	18.042	1160.936	909.900
5.629	6.853	1080.863	791.307
6.644	1.974	1058.396	750.816
7.659	1.491	1056.449	746.997
8.673	1.388	1054.500	745.047
9.688	1.418	1052.951	744.033
10.702	1.903	1052.158	745.780
11.717	8.768	1062.285	786.705
12.731	19.142	1076.737	848.736
13.746	23.791	1082.234	875.968
14.761	24.439	1082.621	879.401
15.775	24.432	1082.374	879.087
16.790	24.153	1081.651	877.049
17.804	24.086	1081.347	876.393
18.819	24.200	1080.596	876.267
19.834	24.465	1080.048	877.046
20.848	24.533	1079.455	876.823
21.863	24.392	1079.290	875.919
22.877	24.334	1078.271	874.730
23.892	24.293	1077.817	874.084
24.907	24.292	1077.296	873.579
25.921	24.309	1076.179	872.681
26.936	24.314	1074.669	871.403
27.950	24.210	1072.988	869.452
28.965	24.147	1071.486	867.854
29.980	24.305	1069.265	866.747
30.994	24.380	1068.793	866.653
32.009	24.362	1067.855	865.727
33.023	24.183	1066.584	863.750
34.038	24.228	1066.053	863.462
35.053	24.404	1065.678	863.934
36.067	24.509	1064.069	863.064
37.082	24.450	1063.723	862.417
38.096	24.548	1063.047	862.267
39.111	24.647	1062.407	862.150
40.126	24.458	1060.931	859.964
41.140	24.184	1058.999	857.006
42.155	23.974	1057.755	854.917
43.169	24.053	1056.842	854.480
44.184	24.037	1056.005	853.650
45.199	23.869	1054.879	851.862
46.213	23.952	1053.983	851.462
47.228	24.149	1053.498	851.933
48.242	24.334	1052.508	851.942
49.257	24.341	1051.503	851.086
50.271	24.419	1051.141	851.092
51.286	24.543	1049.785	850.510
52.301	24.411	1049.387	849.484
53.315	24.334	1048.242	848.115
54.330	24.169	1047.661	846.782
55.344	24.353	1046.558	846.690
56.359	24.333	1045.527	845.689
57.374	24.111	1044.878	844.037
58.388	24.196	1044.038	843.684
59.403	24.041	1043.497	842.438
60.417	23.985	1042.446	841.250
61.432	24.003	1041.649	840.622
62.447	24.168	1041.212	840.971
63.461	24.138	1040.473	840.159
64.476	24.052	1039.565	838.947
65.490	24.079	1038.030	837.758
66.505	24.016	1038.051	837.406
67.520	24.145	1036.993	837.085
68.534	23.876	1036.281	835.173
69.549	23.585	1034.958	832.668
70.563	23.626	1034.285	832.242
71.578	23.651	1033.167	831.390
72.593	23.542	1032.662	830.398
73.607	23.596	1032.334	830.313
74.622	23.928	1031.712	831.292
75.636	23.976	1030.667	830.599
76.651	23.841	1029.935	829.309
77.666	23.726	1028.837	827.815
78.680	23.711	1028.849	827.682
79.695	23.908	1027.883	827.746
80.709	23.980	1027.385	827.609
81.724	23.927	1026.106	826.257
82.739	23.895	1026.052	825.993
83.753	24.427	1025.396	827.858
84.768	24.719	1024.234	828.202
85.782	24.818	1023.378	827.894
86.797	24.545	1022.743	826.044
87.812	24.452	1021.919	824.879
88.826	24.423	1021.395	824.245
89.841	24.586	1020.022	823.817
90.855	24.665	1019.175	823.423
91.870	24.689	1018.071	822.569
92.884	24.536	1016.846	820.805
93.899	24.428	1015.806	819.396
94.914	24.666	1015.873	820.469
95.928	24.469	1014.494	818.381
96.943	24.147	1012.996	815.627
97.957	24.008	1011.554	813.759
98.972	23.874	1010.956	812.592
99.987	24.040	1010.380	812.815
101.001	24.357	1009.363	813.369
102.016	24.389	1008.419	812.686
103.030	24.219	1007.942	811.454
104.045	24.171	1006.805	810.249
105.060	23.895	1005.911	808.205
106.074	24.159	1005.093	808.671
107.089	24.387	1004.786	809.391
108.103	24.254	1003.589	807.748
109.118	24.033	1002.442	805.755
110.133	24.153	1001.120	805.165
111.147	23.878	999.703	802.714
112.162	23.817	999.074	801.859
113.176	24.060	998.451	802.385
114.191	23.963	997.390	801.023
115.206	23.600	996.363	798.498
116.220	23.754	995.483	798.411
117.235	23.741	994.930	797.837
118.249	23.793	993.977	797.239
119.264	23.754	993.207	796.377
120.279	23.831	992.486	796.072
121.293	23.903	991.703	795.697
122.308	23.821	990.973	794.672
123.322	23.817	989.778	793.624
124.337	23.642	988.589	791.824
125.352	23.146	986.997	788.269
126.366	23.213	985.308	787.147
127.381	23.782	985.798	789.998
128.395	24.132	985.654	791.371
129.410	24.238	984.793	791.080
130.424	24.372	983.528	790.588
131.439	24.333	982.521	789.536
132.454	24.208	981.646	788.208
133.468	24.375	980.889	788.267
134.483	24.386	980.247	787.731
135.497	24.508	979.729	787.783
136.512	24.623	978.964	787.608
137.527	24.541	977.800	786.240
138.541	24.586	976.999	785.723
139.556	24.609	976.393	785.270
140.570	24.708	975.767	785.128
141.585	24.730	974.700	784.298
142.600	24.542	973.455	782.404
143.614	24.809	972.773	782.956
144.629	24.927	972.022	782.799
145.643	24.610	970.787	780.347
146.658	24.506	969.681	778.938
147.673	24.615	968.341	778.267
148.687	24.314	967.595	776.289
149.702	24.316	966.446	775.305
150.716	24.284	964.972	773.914
151.731	24.478	965.335	774.983
152.746	24.626	964.431	774.830
153.760	24.722	964.078	774.891
154.775	24.728	962.890	773.897
155.789	24.806	962.133	773.556
156.804	24.745	961.236	772.502
157.819	24.684	960.681	771.724
158.833	24.870	959.938	771.863
159.848	24.789	959.035	770.716
160.862	24.676	957.728	769.115
161.877	24.723	956.732	768.448
162.892	24.789	955.640	767.784
163.906	24.650	955.028	766.631
164.921	24.567	954.049	765.420
165.935	24.851	953.198	765.888
166.950	24.705	952.236	764.420
167.964	24.841	951.220	764.119
168.979	24.582	950.058	762.013
169.994	24.591	949.150	761.256
171.008	24.751	948.783	761.575
172.023	24.752	948.119	760.978
173.037	24.495	946.761	758.731
174.052	24.273	946.343	757.384
175.067	24.437	945.451	757.301
176.081	24.565	944.563	757.066
177.096	24.487	944.107	756.300
178.110	24.202	943.539	754.574
179.125	24.137	942.481	753.385
180.140	24.234	941.816	753.198
181.154	24.218	941.591	752.882
182.169	24.643	941.590	754.608
183.183	24.838	941.291	755.128
184.198	24.516	940.498	753.068
185.213	24.590	939.298	752.350
186.227	24.592	939.221	752.231
187.242	24.714	938.439	752.051
188.256	24.803	937.755	751.809
189.271	24.914	936.789	751.435
190.286	24.503	935.774	748.830
191.300	23.940	934.356	745.270
192.315	23.195	932.742	740.802
193.329	23.120	931.960	739.799
194.344	24.039	932.503	744.010
195.359	24.686	932.322	746.502
196.373	24.715	931.689	746.049
197.388	24.449	932.006	745.128
198.402	24.509	931.195	744.663
199.417	24.624	930.014	744.134
200.432	24.273	929.632	742.300
201.446	24.185	928.558	741.011
202.461	24.181	927.824	740.344
203.475	23.402	926.110	735.679
204.490	22.458	924.968	730.790
205.504	23.575	924.959	735.352
206.519	24.178	925.161	737.944
207.534	24.279	924.497	737.766
208.548	24.643	924.131	738.917
209.563	24.344	923.608	737.197
210.577	24.423	922.528	736.594
211.592	24.771	922.569	738.000
212.607	24.664	921.590	736.710
213.621	24.779	920.543	736.279
214.636	24.792	920.260	736.044
215.650	24.849	918.991	735.196
216.665	24.910	918.503	734.990
217.680	24.788	917.926	733.965
218.694	24.248	916.751	730.747
219.709	24.191	915.930	729.794
220.723	24.469	915.587	730.595
221.738	24.457	915.547	730.449
222.753	24.560	914.405	729.894
223.767	24.677	914.014	729.993
224.782	24.977	913.335	730.610
225.796	24.836	913.066	729.758
226.811	24.199	911.695	726.003
227.826	23.585	910.265	722.299
228.840	23.809	909.995	722.934
229.855	23.928	909.019	722.577
230.869	23.487	907.958	719.880
231.884	23.911	907.926	721.512
232.899	24.663	907.860	724.447
233.913	24.545	907.448	723.576
234.928	24.457	907.143	722.911
235.942	24.386	906.410	721.977
236.957	24.033	905.423	719.696
237.972	24.171	904.823	719.717
238.986	24.455	903.954	720.106
240.001	24.212	903.846	718.977
241.015	24.294	903.205	718.734
242.030	24.519	902.543	719.050
243.045	24.697	902.388	719.579
244.059	24.737	901.787	719.195
245.074	24.654	900.742	717.965
246.088	24.356	899.387	715.627
247.103	24.605	899.243	716.447
248.117	24.876	899.726	717.854
249.132	25.204	899.469	718.901
250.147	25.263	899.043	718.733
251.161	25.526	898.122	718.985
252.176	25.487	897.521	718.284
253.190	25.519	897.434	718.281
254.205	25.649	896.656	718.115
255.220	25.472	896.113	716.909
256.234	25.425	895.562	716.217
257.249	25.393	894.637	715.286
258.263	25.330	893.852	714.346
259.278	25.483	893.447	714.565
260.293	25.511	892.574	713.914
261.307	25.337	891.896	712.622
262.322	25.348	890.792	711.719
263.336	24.572	888.582	706.819
264.351	23.299	887.619	700.959
265.366	23.646	887.017	701.791
266.380	24.625	887.807	706.226
267.395	25.059	887.412	707.564
268.409	24.973	886.754	706.636
269.424	25.223	886.342	707.233
270.439	25.382	885.643	707.238
271.453	25.255	885.478	706.544
272.468	25.617	884.310	706.974
273.482	25.698	883.957	706.945
274.497	25.113	882.929	703.766
275.512	24.928	881.968	702.212
276.526	24.994	882.319	702.688
277.541	25.368	881.814	703.689
278.555	25.240	880.640	702.190
279.570	25.081	879.739	700.787
280.585	25.305	879.161	701.140
281.599	25.125	878.676	699.986
282.614	24.637	876.919	696.622
283.628	24.514	876.879	696.054
284.643	24.869	876.741	697.263
285.657	24.431	875.517	694.525
286.672	24.052	874.884	692.486
287.687	24.711	875.206	695.243
288.701	24.757	874.508	694.808
289.716	24.603	873.062	692.997
290.730	24.383	872.786	691.865
291.745	24.211	871.969	690.489
292.760	24.544	871.994	691.740
293.774	25.558	872.130	695.711
294.789	25.743	872.070	696.316
295.803	25.822	871.134	695.814
296.818	25.845	870.281	695.161
297.833	25.436	869.290	692.730
298.847	25.247	868.368	691.205
299.862	25.702	868.660	693.128
300.876	25.880	868.118	693.320
301.891	25.610	867.341	691.601
302.906	25.436	866.382	690.105
303.920	25.499	866.144	690.098
304.935	25.829	865.800	691.028
305.949	25.798	864.986	690.201
306.964	25.652	864.462	689.159
307.979	25.502	864.162	688.288
308.993	26.055	863.974	690.193
310.008	25.980	863.121	689.163
311.022	25.687	862.306	687.332
312.037	25.452	862.064	686.183
313.052	25.338	860.595	684.518
314.066	24.454	859.171	679.959
315.081	24.078	858.711	678.102
316.095	24.956	859.116	681.704
317.110	25.471	858.648	683.232
318.125	24.680	856.798	678.699
319.139	23.558	855.786	673.580
320.154	23.473	855.535	672.998
321.168	24.473	855.955	677.066
322.183	25.220	855.898	679.790
323.197	25.407	855.632	680.227
324.212	25.608	855.038	680.458
325.227	25.608	854.681	680.112
326.241	25.436	854.087	678.930
327.256	25.168	853.642	677.505
328.270	25.350	852.590	677.296
329.285	25.147	851.604	675.689
330.300	24.846	850.654	673.741
331.314	25.210	850.722	675.104
332.329	25.600	850.590	676.407
333.343	25.698	849.848	676.125
334.358	25.727	849.471	675.875
335.373	25.647	849.522	675.554
336.387	25.990	849.557	676.809
337.402	26.165	849.226	677.144
338.416	26.023	848.880	676.276
339.431	26.106	848.322	676.080
340.446	26.228	848.276	676.442
341.460	26.180	847.258	675.391
342.475	25.984	847.207	674.558
343.489	26.088	846.710	674.492
344.504	26.356	846.690	675.418
345.519	26.480	845.849	675.150
346.533	26.469	845.679	674.911
347.548	26.508	845.164	674.588
348.562	26.470	844.629	673.957
349.577	26.446	843.757	673.115
350.592	26.290	843.493	672.261
351.606	26.455	842.359	671.912
352.621	26.299	841.623	670.686
353.635	26.156	840.824	669.462
354.650	25.459	839.335	665.638
355.665	24.688	837.439	661.224
356.679	24.943	837.854	662.434
357.694	25.447	837.083	663.630
358.708	25.319	836.791	662.866
359.723	25.698	836.703	664.138
360.738	26.207	836.070	665.453
361.752	26.196	835.917	665.232
362.767	26.547	835.410	666.059
363.781	26.822	834.803	666.527
364.796	26.791	835.007	666.519
365.810	27.039	834.431	666.910
366.825	26.815	833.938	665.634
367.840	26.656	832.947	664.202
368.854	26.132	832.221	661.645
369.869	26.155	832.085	661.560
370.883	26.224	831.150	661.012
371.898	26.064	830.671	659.988
372.913	26.147	830.710	660.263
373.927	26.244	830.156	660.118
374.942	26.478	829.756	660.600
375.956	26.509	829.568	660.502
376.971	26.666	829.038	660.593
377.986	26.831	828.667	660.841
379.000	26.825	828.024	660.250
380.015	26.650	827.118	658.831
381.029	26.597	827.137	658.597
382.044	26.810	826.346	658.681
383.059	26.954	825.576	658.534
384.073	26.855	825.146	657.772
385.088	26.800	824.610	657.085
386.102	26.572	823.985	655.707
387.117	26.372	823.558	654.585
388.132	26.199	821.760	652.472
389.146	25.611	821.120	649.781
390.161	26.020	821.263	651.315
391.175	26.457	820.805	652.472
392.190	26.115	820.074	650.600
393.205	24.693	818.240	643.970
394.219	23.442	816.372	637.943
395.234	23.312	815.970	637.103
396.248	24.941	817.318	643.963
397.263	26.416	817.844	649.624
398.278	26.239	817.812	648.906
399.292	25.895	816.937	646.920
400.307	26.198	816.252	647.405
401.321	26.260	816.481	647.753
402.336	26.544	816.142	648.443
403.350	27.059	816.292	650.349
404.365	27.267	815.815	650.656
405.380	27.447	815.610	651.081
406.394	27.491	815.167	650.823
407.409	27.438	814.391	649.960
408.423	27.407	813.918	649.413
409.438	27.412	813.712	649.210
410.453	27.528	813.179	649.141
411.467	27.474	812.516	648.361
412.482	27.547	812.040	648.183
413.496	27.653	811.591	648.144
414.511	27.494	811.701	647.609
415.526	27.687	811.138	647.790
416.540	27.472	810.115	646.152
417.555	27.125	809.418	644.309
418.569	27.200	809.454	644.547
419.584	27.206	808.384	643.660
420.599	26.868	808.294	642.333
421.613	105.955	1278.808	1434.853
422.628	91.459	1347.333	1434.956
