DTS Sentinel unit serial number:	SN413079Multiplexer serial number:	ORYXHardware model number:	OX4-SRSoftware version number:	ORYX F/W v4.00 Oryx Data Collector v3.7.2.0data status	okinstallation	princeton_trtdifferential loss correction	single-endedforward channel	channel 1reverse channel	N/Adate	2019/09/11time	10:40:11forward acquisition time	60.00reverse acquisition time	0.00gamma	496.2192k internal	0.2298k external	0.2298temperature offset calibration	0.9949default loss term (dB/km)	0.3790temperature slope calibration	1.0000multiplexer offset coefficient	1.0000multiplexer slope coefficient	1.0000fibre end	0.00T internal ref (°C)	36.67T ext. ref 1 (°C)	0.14T ext. ref 2 (°C)	34.19length (m)	temperature (°C)	Stokes	anti-Stokes-747.200	-200.000	0.015	0.075
-746.185	-200.000	0.013	0.098
-745.171	-200.000	0.007	0.152
-744.156	344.476	-0.047	-0.095
-743.142	115.859	-0.190	0.237
-742.127	800.000	-0.144	0.457
-741.112	-173.414	-0.156	-0.005
-740.098	32.668	0.121	-0.106
-739.083	800.000	-0.044	0.163
-738.069	-200.000	-0.023	-0.256
-737.054	-86.602	-0.199	-0.062
-736.039	-13.250	0.004	-0.003
-735.025	79.087	0.241	0.264
-734.010	800.000	-0.061	0.254
-732.996	69.781	-0.079	-0.083
-731.981	147.254	-0.063	-0.086
-730.966	-179.980	-0.201	-0.004
-729.952	-200.000	0.023	-0.222
-728.937	-100.551	0.087	-0.022
-727.923	-55.776	-0.235	-0.107
-726.908	-200.000	0.001	-0.304
-725.894	-148.495	-0.274	0.023
-724.879	34.065	0.144	0.128
-723.864	5.666	0.144	-0.109
-722.850	-171.147	-0.110	0.004
-721.835	-61.455	-0.406	-0.174
-720.821	55.644	-0.328	-0.324
-719.806	542.382	0.082	-0.200
-718.791	-71.310	-0.073	-0.028
-717.777	800.000	-0.014	0.040
-716.762	20.243	0.239	0.197
-715.748	166.524	0.049	0.071
-714.733	-136.479	0.071	-0.008
-713.718	688.979	-0.053	-0.141
-712.704	-153.975	0.281	-0.020
-711.689	-200.000	0.053	-0.240
-710.675	-63.865	0.025	-0.010
-709.660	800.000	-0.030	0.129
-708.645	-47.596	-0.235	-0.116
-707.631	-15.620	-0.237	0.154
-706.616	-129.263	-0.084	0.012
-705.602	-102.891	-0.242	0.059
-704.587	-200.000	-0.002	-0.129
-703.572	255.086	0.123	0.214
-702.558	-164.193	-0.219	-0.010
-701.543	30.238	-0.195	0.170
-700.529	-29.131	0.439	0.257
-699.514	-88.597	0.339	-0.103
-698.499	71.337	-0.186	0.196
-697.485	-200.000	-0.334	0.002
-696.470	-200.000	0.000	0.312
-695.456	-200.000	0.006	0.162
-694.441	28.835	0.140	-0.121
-693.426	-27.305	0.094	-0.056
-692.412	-132.557	0.279	-0.037
-691.397	-200.000	-0.018	-0.303
-690.383	-118.600	-0.298	0.054
-689.368	-62.650	-0.140	-0.059
-688.354	367.807	0.099	-0.204
-687.339	211.644	0.205	-0.329
-686.324	-143.948	0.224	0.021
-685.310	153.484	0.126	0.175
-684.295	-73.456	-0.319	-0.119
-683.281	48.023	-0.108	0.103
-682.266	-167.884	-0.102	0.004
-681.251	118.003	0.011	-0.014
-680.237	170.207	-0.158	-0.230
-679.222	41.383	-0.236	-0.217
-678.208	116.147	-0.158	-0.198
-677.193	800.000	0.034	-0.107
-676.178	361.939	-0.042	-0.086
-675.164	57.157	-0.085	0.084
-674.149	108.008	-0.101	0.122
-673.135	143.795	0.048	0.065
-672.120	-92.241	-0.320	-0.092
-671.105	12.871	-0.203	0.160
-670.091	-200.000	0.037	-0.194
-669.076	-115.975	-0.388	0.074
-668.062	800.000	0.031	-0.098
-667.047	282.881	-0.095	0.174
-666.032	-47.319	-0.205	0.102
-665.018	800.000	0.091	-0.255
-664.003	-104.275	-0.177	-0.042
-662.989	-200.000	-0.030	-0.200
-661.974	151.560	-0.221	-0.307
-660.959	109.520	-0.121	-0.147
-659.945	800.000	-0.013	0.049
-658.930	-85.940	0.166	-0.052
-657.916	128.676	-0.151	-0.196
-656.901	216.071	-0.113	0.182
-655.886	800.000	0.036	0.149
-654.872	-200.000	0.021	0.113
-653.857	-31.881	0.047	0.027
-652.843	-195.358	-0.080	0.001
-651.828	65.836	-0.132	-0.136
-650.814	-114.922	0.280	0.054
-649.799	-200.000	-0.013	-0.365
-648.784	-200.000	0.028	-0.365
-647.770	233.336	-0.138	-0.230
-646.755	-22.455	0.139	0.085
-645.741	-125.409	0.184	-0.029
-644.726	-200.000	-0.020	0.182
-643.711	800.000	-0.012	0.051
-642.697	29.851	-0.186	0.162
-641.682	800.000	-0.013	0.056
-640.668	213.196	-0.073	-0.117
-639.653	-98.397	-0.085	-0.022
-638.638	-122.260	0.083	0.014
-637.624	-34.437	-0.215	-0.120
-636.609	198.504	0.172	-0.267
-635.595	-183.573	0.158	0.003
-634.580	-153.715	-0.013	0.001
-633.565	-157.382	-0.045	0.003
-632.551	-0.054	-0.238	0.172
-631.536	686.231	0.107	0.285
-630.522	49.332	-0.091	-0.087
-629.507	343.709	0.177	-0.352
-628.492	238.864	0.080	0.135
-627.478	-29.341	0.182	0.106
-626.463	-200.000	0.028	0.220
-625.449	91.245	0.151	0.172
-624.434	76.885	0.354	0.382
-623.419	800.000	-0.109	0.356
-622.405	-34.329	-0.161	-0.090
-621.390	800.000	-0.112	0.330
-620.376	670.044	0.144	-0.378
-619.361	-101.655	-0.087	-0.021
-618.346	127.266	0.137	0.176
-617.332	-200.000	-0.063	0.281
-616.317	99.874	0.131	-0.154
-615.303	-100.411	-0.282	-0.071
-614.288	-94.680	0.237	0.065
-613.273	179.337	0.103	0.153
-612.259	800.000	-0.004	0.013
-611.244	-144.655	0.047	0.004
-610.230	110.730	0.041	-0.051
-609.215	732.338	-0.111	-0.301
-608.201	-85.998	-0.220	-0.069
-607.186	-200.000	0.027	0.202
-606.171	-50.236	-0.231	-0.111
-605.157	-200.000	-0.028	0.436
-604.142	28.963	-0.317	-0.273
-603.128	247.538	0.063	0.108
-602.113	-95.981	0.052	0.014
-601.098	800.000	-0.053	-0.151
-600.084	-85.622	-0.142	-0.045
-599.069	238.952	-0.227	0.383
-598.055	-200.000	-0.016	0.090
-597.040	-84.318	-0.077	0.025
-596.025	-87.642	0.231	-0.071
-595.011	60.437	-0.152	0.153
-593.996	800.000	0.042	0.172
-592.982	-200.000	0.009	-0.200
-591.967	800.000	0.060	-0.225
-590.952	-132.149	0.121	-0.016
-589.938	50.458	0.195	-0.187
-588.923	-144.904	-0.156	0.014
-587.909	-200.000	0.009	0.239
-586.894	-83.494	-0.250	0.081
-585.879	455.433	0.049	0.110
-584.865	800.000	-0.006	-0.024
-583.850	-105.698	-0.231	-0.053
-582.836	218.251	0.240	0.388
-581.821	-200.000	-0.003	0.060
-580.806	162.793	0.129	-0.184
-579.792	-54.120	0.174	0.080
-578.777	58.118	-0.192	0.191
-577.763	-200.000	0.046	-0.454
-576.748	-6.455	0.229	-0.158
-575.733	-30.788	-0.332	0.190
-574.719	17.711	0.135	-0.109
-573.704	101.918	0.090	0.106
-572.690	-2.888	0.186	-0.132
-571.675	-200.000	0.025	-0.212
-570.661	-126.441	-0.232	-0.035
-569.646	224.474	-0.096	0.158
-568.631	-188.817	0.235	0.003
-567.617	-86.459	0.175	0.055
-566.602	-200.000	0.017	-0.270
-565.588	-7.605	0.316	-0.217
-564.573	-1.909	0.299	0.213
-563.558	-175.570	-0.081	-0.002
-562.544	73.750	-0.244	-0.259
-561.529	-200.000	-0.001	0.014
-560.515	341.813	0.107	0.213
-559.500	-200.000	0.028	0.158
-558.485	-200.000	0.176	0.000
-557.471	800.000	-0.076	0.332
-556.456	-200.000	-0.023	-0.230
-555.442	26.161	-0.203	-0.171
-554.427	41.716	-0.268	-0.246
-553.412	692.960	0.062	-0.166
-552.398	-18.524	0.309	0.196
-551.383	-200.000	0.025	-0.211
-550.369	-15.266	0.167	-0.108
-549.354	366.948	0.036	0.074
-548.339	-48.417	-0.067	-0.033
-547.325	196.818	-0.213	0.329
-546.310	-42.322	0.340	0.176
-545.296	-139.203	-0.182	-0.020
-544.281	-114.011	-0.095	0.019
-543.266	109.501	-0.072	-0.088
-542.252	172.488	-0.071	0.104
-541.237	-200.000	-0.006	-0.375
-540.223	-8.035	-0.231	0.158
-539.208	106.710	0.154	-0.185
-538.193	-4.506	0.146	-0.102
-537.179	-97.073	0.199	0.053
-536.164	-34.556	0.262	0.145
-535.150	-133.572	-0.275	0.035
-534.135	90.485	0.116	-0.131
-533.121	-158.430	0.109	0.006
-532.106	-200.000	-0.013	-0.226
-531.091	55.119	-0.062	-0.061
-530.077	86.744	0.066	0.074
-529.062	136.922	-0.221	0.293
-528.048	800.000	-0.048	0.199
-527.033	-200.000	0.009	-0.123
-526.018	-138.724	0.058	-0.006
-525.004	-200.000	-0.030	0.140
-523.989	-43.638	0.170	0.087
-522.975	-176.873	-0.284	-0.007
-521.960	-163.944	-0.187	-0.009
-520.945	-200.000	-0.055	0.461
-519.931	155.325	0.096	-0.133
-518.916	-26.207	-0.146	-0.087
-517.902	-3.031	-0.336	-0.237
-516.887	44.905	0.211	-0.196
-515.872	-200.000	-0.004	-0.074
-514.858	35.156	-0.326	-0.289
-513.843	19.677	0.134	-0.109
-512.829	28.469	-0.133	-0.113
-511.814	273.586	-0.071	0.127
-510.799	-32.056	0.253	-0.143
-509.785	347.466	-0.079	-0.158
-508.770	63.232	-0.108	0.110
-507.756	-24.356	-0.075	-0.045
-506.741	-112.680	0.186	-0.037
-505.726	-200.000	0.023	0.210
-504.712	-200.000	-0.032	-0.362
-503.697	253.293	-0.064	0.110
-502.683	-2.631	0.211	-0.150
-501.668	-104.163	-0.177	-0.042
-500.653	282.867	-0.140	0.255
-499.639	497.274	-0.057	-0.133
-498.624	32.713	0.231	-0.202
-497.610	-200.000	0.015	0.096
-496.595	37.143	-0.194	0.174
-495.581	104.639	-0.236	0.281
-494.566	-200.000	-0.026	-0.230
-493.551	-103.236	0.358	-0.085
-492.537	140.801	-0.106	0.141
-491.522	-200.000	0.061	-0.345
-490.508	189.896	0.031	0.047
-489.493	-200.000	-0.087	0.421
-488.478	-23.377	0.150	-0.091
-487.464	-99.040	-0.065	0.017
-486.449	231.180	0.049	0.081
-485.435	-200.000	0.012	-0.195
-484.420	-137.621	0.195	0.022
-483.405	-134.850	0.249	-0.030
-482.391	-5.636	-0.422	-0.292
-481.376	357.102	-0.063	0.126
-480.362	-107.946	0.240	-0.053
-479.347	-200.000	-0.055	0.265
-478.332	489.235	-0.073	0.168
-477.318	31.383	0.154	-0.134
-476.303	-176.022	-0.344	-0.009
-475.289	-80.435	-0.197	0.066
-474.274	-59.399	-0.149	0.065
-473.259	-200.000	-0.036	0.198
-472.245	9.327	-0.287	0.219
-471.230	213.589	0.136	0.217
-470.216	72.177	0.235	0.247
-469.201	7.478	0.336	-0.254
-468.186	476.617	0.058	0.133
-467.172	-156.692	0.094	0.006
-466.157	448.926	-0.062	-0.139
-465.143	13.503	-0.070	-0.055
-464.128	386.070	0.130	-0.271
-463.113	40.868	-0.142	-0.130
-462.099	-71.340	0.326	-0.123
-461.084	238.541	-0.140	-0.236
-460.070	800.000	0.075	0.307
-459.055	-131.270	0.237	-0.032
-458.040	-158.134	-0.264	0.016
-457.026	513.517	0.067	-0.157
-456.011	-92.462	0.220	0.062
-454.997	-116.548	-0.110	0.020
-453.982	-69.138	0.117	-0.046
-452.968	-200.000	0.053	-0.277
-451.953	119.369	0.094	0.118
-450.938	16.205	0.171	-0.136
-449.924	2.515	-0.167	0.122
-448.909	800.000	-0.044	0.164
-447.895	-136.906	-0.102	-0.012
-446.880	-200.000	-0.012	0.183
-445.865	-122.010	-0.375	-0.062
-444.851	365.379	0.167	-0.340
-443.836	-135.013	0.516	0.063
-442.822	-200.000	0.023	-0.119
-441.807	310.747	0.137	0.260
-440.792	-94.416	-0.129	-0.036
-439.778	340.482	-0.100	0.197
-438.763	-200.000	0.002	0.046
-437.749	166.197	0.283	-0.405
-436.734	422.892	0.138	0.299
-435.719	-200.000	-0.017	0.095
-434.705	73.276	0.213	-0.225
-433.690	81.380	0.051	0.056
-432.676	287.142	0.071	-0.129
-431.661	-137.197	-0.175	0.020
-430.646	16.206	0.097	0.077
-429.632	-136.009	0.074	-0.009
-428.617	156.348	0.008	0.011
-427.603	183.576	-0.105	-0.156
-426.588	629.879	0.007	0.017
-425.573	800.000	-0.069	0.277
-424.559	62.112	-0.051	0.052
-423.544	-200.000	0.026	-0.386
-422.530	-120.011	0.104	0.018
-421.515	800.000	0.011	0.036
-420.500	105.798	0.217	0.259
-419.486	52.958	-0.246	0.237
-418.471	-85.264	-0.313	0.099
-417.457	-200.000	-0.053	-0.262
-416.442	-200.000	0.055	0.337
-415.428	-145.748	0.066	0.006
-414.413	228.714	-0.185	0.304
-413.398	-200.000	0.021	0.196
-412.384	170.501	0.030	-0.044
-411.369	114.620	-0.245	0.301
-410.355	30.638	0.233	-0.200
-409.340	-5.918	0.360	0.249
-408.325	50.960	0.132	-0.126
-407.311	106.438	-0.087	-0.104
-406.296	392.833	-0.041	0.085
-405.282	352.509	-0.054	-0.108
-404.267	-31.251	0.106	-0.060
-403.252	-38.420	-0.191	-0.102
-402.238	-68.104	0.038	0.015
-401.223	-31.406	0.465	0.264
-400.209	624.406	-0.046	-0.117
-399.194	-88.527	0.225	-0.068
-398.179	-200.000	0.009	-0.162
-397.165	-182.120	0.361	0.007
-396.150	800.000	0.091	0.270
-395.136	100.216	0.019	0.022
-394.121	257.138	-0.092	-0.160
-393.106	31.080	-0.095	0.082
-392.092	23.049	0.095	-0.078
-391.077	-88.670	-0.298	0.089
-390.063	-200.000	0.003	-0.146
-389.048	-200.000	-0.021	-0.165
-388.033	-105.040	-0.214	0.049
-387.019	-54.690	-0.076	0.034
-386.004	2.137	0.011	0.008
-384.990	800.000	0.102	0.325
-383.975	46.220	0.304	0.283
-382.960	76.721	0.179	-0.191
-381.946	-200.000	0.025	0.158
-380.931	-196.346	-0.171	-0.001
-379.917	-109.827	-0.224	-0.047
-378.902	35.715	-0.220	-0.194
-377.888	732.304	-0.060	-0.162
-376.873	250.673	0.291	0.498
-375.858	-147.309	0.196	0.017
-374.844	-57.009	-0.194	0.086
-373.829	-134.948	0.195	0.024
-372.815	-200.000	-0.012	0.194
-371.800	-139.597	-0.479	-0.051
-370.785	-90.940	0.059	-0.017
-369.771	390.404	-0.027	-0.057
-368.756	-118.790	-0.070	-0.012
-367.742	-200.000	-0.036	-0.190
-366.727	-200.000	-0.032	0.233
-365.712	-200.000	0.008	0.125
-364.698	-77.769	-0.139	0.048
-363.683	800.000	-0.125	-0.354
-362.669	-81.971	-0.062	0.021
-361.654	-59.123	-0.161	0.070
-360.639	24.971	-0.200	0.167
-359.625	800.000	0.037	-0.105
-358.610	105.783	0.363	0.431
-357.596	800.000	-0.099	-0.423
-356.581	-100.800	-0.161	0.040
-355.566	-191.890	-0.172	-0.002
-354.552	-98.463	0.075	-0.019
-353.537	24.597	-0.058	0.049
-352.523	-132.406	0.141	-0.018
-351.508	-80.617	0.054	0.018
-350.493	-145.334	0.108	0.010
-349.479	-200.000	-0.010	-0.170
-348.464	411.578	0.084	-0.179
-347.450	298.208	-0.111	0.205
-346.435	136.401	-0.166	-0.218
-345.420	206.212	-0.021	0.033
-344.406	91.679	-0.397	-0.449
-343.391	-49.940	-0.301	-0.143
-342.377	800.000	0.082	-0.230
-341.362	-130.593	-0.187	0.025
-340.348	-200.000	0.015	0.159
-339.333	-103.656	-0.200	0.047
-338.318	74.416	-0.170	0.179
-337.304	12.313	0.349	-0.270
-336.289	-88.783	0.214	-0.064
-335.275	263.982	0.081	0.141
-334.260	257.940	0.151	0.262
-333.245	-102.220	0.217	0.052
-332.231	-93.253	-0.081	0.023
-331.216	-38.865	0.168	-0.089
-330.202	-29.409	0.028	-0.016
-329.187	-74.812	0.364	0.131
-328.172	-72.562	-0.346	0.128
-327.158	-25.660	-0.101	-0.060
-326.143	-200.000	0.030	-0.152
-325.129	140.376	-0.056	0.074
-324.114	-200.000	-0.032	0.222
-323.099	0.721	0.097	0.070
-322.085	-128.350	-0.139	0.020
-321.070	152.695	-0.093	0.128
-320.056	-98.504	-0.263	-0.068
-319.041	-34.780	-0.214	0.118
-318.026	-200.000	0.015	-0.071
-317.012	631.308	-0.122	-0.310
-315.997	-200.000	-0.011	-0.227
-314.983	-200.000	-0.029	0.179
-313.968	165.684	-0.154	0.218
-312.953	172.207	-0.199	-0.287
-311.939	-200.000	-0.014	0.127
-310.924	52.911	0.071	-0.068
-309.910	-76.441	0.074	0.026
-308.895	800.000	-0.053	-0.197
-307.880	535.843	-0.107	-0.255
-306.866	-200.000	0.030	0.298
-305.851	-200.000	-0.006	-0.201
-304.837	-32.971	0.151	0.084
-303.822	4.177	0.311	-0.228
-302.807	241.586	-0.169	0.283
-301.793	771.976	0.175	-0.480
-300.778	-200.000	0.001	-0.100
-299.764	-200.000	-0.012	-0.173
-298.749	-68.908	0.138	0.054
-297.735	207.817	-0.180	-0.282
-296.720	-77.510	-0.092	0.032
-295.705	-134.312	0.313	0.039
-294.691	800.000	0.101	-0.288
-293.676	-200.000	-0.020	0.133
-292.662	69.723	0.202	-0.209
-291.647	-94.888	0.105	0.029
-290.632	800.000	-0.018	-0.054
-289.618	800.000	0.074	0.288
-288.603	496.186	-0.158	-0.364
-287.589	-117.367	0.335	0.061
-286.574	800.000	0.056	-0.192
-285.559	-111.557	-0.175	0.036
-284.545	165.631	0.074	-0.104
-283.530	-74.664	0.081	-0.029
-282.516	134.735	0.075	-0.097
-281.501	-107.054	0.257	-0.057
-280.486	86.216	0.115	-0.127
-279.472	51.884	0.133	0.127
-278.457	238.546	-0.164	0.273
-277.443	-6.414	-0.156	0.107
-276.428	-117.317	0.240	0.044
-275.413	85.136	-0.021	0.023
-274.399	111.475	-0.205	0.248
-273.384	232.402	0.033	0.054
-272.370	800.000	-0.054	0.205
-271.355	195.666	-0.196	-0.299
-270.340	5.023	-0.360	-0.266
-269.326	-183.036	-0.334	0.006
-268.311	97.379	-0.158	0.181
-267.297	399.542	-0.021	0.044
-266.282	-112.342	-0.587	0.118
-265.267	-70.825	-0.256	0.097
-264.253	-48.360	-0.158	0.076
-263.238	-121.849	-0.094	-0.016
-262.224	800.000	-0.055	0.168
-261.209	-61.103	-0.273	0.115
-260.195	-126.815	0.062	-0.009
-259.180	198.698	0.082	0.126
-258.165	114.257	-0.089	-0.109
-257.151	-84.427	-0.150	0.047
-256.136	10.466	0.268	-0.205
-255.122	-163.805	-0.086	0.004
-254.107	-33.950	0.321	0.177
-253.092	-17.539	-0.188	-0.118
-252.078	-86.347	-0.100	0.031
-251.063	265.597	0.070	0.123
-250.049	-55.645	0.311	0.139
-249.034	-65.130	0.326	-0.132
-248.019	434.250	-0.180	-0.392
-247.005	60.446	-0.052	-0.051
-245.990	-145.125	-0.247	0.023
-244.976	-41.578	-0.171	-0.088
-243.961	-38.432	-0.079	0.042
-242.946	213.696	0.092	-0.145
-241.932	-200.000	0.015	0.223
-240.917	509.489	0.038	0.088
-239.903	-166.816	-0.268	-0.011
-238.888	784.393	0.040	0.110
-237.873	-57.897	-0.115	-0.050
-236.859	800.000	-0.115	0.378
-235.844	-71.569	-0.297	0.111
-234.830	0.391	0.291	0.208
-233.815	-103.452	-0.329	0.077
-232.800	-91.298	0.247	-0.071
-231.786	-4.840	-0.153	0.105
-230.771	-200.000	0.024	-0.122
-229.757	-112.694	0.391	-0.078
-228.742	-149.958	-0.247	0.019
-227.727	452.741	0.081	0.179
-226.713	142.673	-0.067	0.089
-225.698	96.024	-0.167	0.191
-224.684	800.000	-0.049	-0.184
-223.669	-200.000	-0.068	0.338
-222.655	-185.178	-0.181	-0.003
-221.640	-81.650	-0.276	-0.091
-220.625	-200.000	-0.006	0.105
-219.611	799.642	-0.051	-0.141
-218.596	16.025	0.070	-0.055
-217.582	-85.556	-0.078	0.024
-216.567	-200.000	-0.018	-0.085
-215.552	-89.546	0.198	0.058
-214.538	-200.000	0.051	-0.297
-213.523	48.465	-0.059	-0.055
-212.509	103.084	-0.182	-0.213
-211.494	463.269	0.101	-0.226
-210.479	353.478	0.058	0.115
-209.465	125.986	0.057	-0.072
-208.450	-44.854	0.470	-0.234
-207.436	211.241	0.056	-0.088
-206.421	133.358	0.132	-0.171
-205.406	712.850	0.153	-0.404
-204.392	63.425	0.102	-0.103
-203.377	-152.352	0.183	0.013
-202.363	-160.969	-0.333	-0.018
-201.348	221.333	0.078	0.126
-200.333	-6.917	-0.129	0.087
-199.319	-200.000	0.017	0.159
-198.304	423.583	0.096	0.207
-197.290	131.249	-0.157	-0.201
-196.275	-134.517	0.192	-0.023
-195.260	196.336	0.059	0.090
-194.246	-133.921	-0.119	0.015
-193.231	26.165	0.158	-0.131
-192.217	17.084	-0.034	-0.027
-191.202	-200.000	0.010	0.550
-190.187	-125.024	0.135	-0.021
-189.173	-18.909	0.126	-0.078
-188.158	-200.000	0.086	-0.394
-187.144	173.286	-0.112	-0.162
-186.129	26.206	0.209	0.175
-185.114	-97.188	-0.184	0.048
-184.100	-24.539	0.127	0.076
-183.085	19.367	0.134	0.107
-182.071	-31.073	0.105	0.059
-181.056	-200.000	0.042	-0.246
-180.042	-63.206	0.182	-0.075
-179.027	220.129	0.075	-0.121
-178.012	-80.716	0.232	-0.077
-176.998	273.190	-0.122	0.215
-175.983	-185.328	-0.202	-0.003
-174.969	-123.062	0.160	0.026
-173.954	-200.000	0.014	-0.087
-172.939	-57.177	0.147	-0.065
-171.925	-127.545	0.220	0.032
-170.910	800.000	0.021	-0.070
-169.896	800.000	0.065	-0.251
-168.881	95.208	-0.058	-0.066
-167.866	57.596	-0.127	0.124
-166.852	800.000	0.070	0.237
-165.837	-168.485	-0.160	0.006
-164.823	-61.908	0.072	0.030
-163.808	40.601	0.156	-0.141
-162.793	376.980	0.134	-0.274
-161.779	-141.401	0.188	0.019
-160.764	-56.266	0.127	-0.056
-159.750	-26.368	-0.104	-0.061
-158.735	-94.512	0.284	-0.077
-157.720	123.254	-0.170	0.212
-156.706	111.840	0.201	0.242
-155.691	-149.435	0.251	0.020
-154.677	-70.251	-0.422	-0.160
-153.662	345.319	-0.065	0.128
-152.647	-29.430	-0.199	0.114
-151.633	50.438	-0.211	0.199
-150.618	-200.000	-0.002	-0.254
-149.604	-110.756	0.048	0.010
-148.589	-200.000	-0.021	0.157
-147.574	-200.000	-0.034	0.358
-146.560	-200.000	0.007	0.182
-145.545	-13.096	-0.043	-0.028
-144.531	375.898	0.064	-0.130
-143.516	-133.467	-0.129	-0.016
-142.502	530.165	-0.063	-0.147
-141.487	-136.668	0.147	-0.017
-140.472	-200.000	0.049	-0.239
-139.458	64.533	-0.324	-0.325
-138.443	43.596	-0.102	-0.093
-137.429	-32.527	-0.126	0.070
-136.414	233.553	0.133	0.218
-135.399	121.662	-0.029	0.036
-134.385	-200.000	0.029	-0.186
-133.370	800.000	-0.046	-0.187
-132.356	-101.074	0.108	-0.026
-131.341	533.400	-0.041	0.096
-130.326	-6.804	0.063	0.043
-129.312	-53.524	-0.144	-0.065
-128.297	-38.824	-0.079	-0.042
-127.283	-38.460	-0.137	-0.072
-126.268	99.477	0.085	-0.097
-125.253	475.498	-0.094	-0.212
-124.239	147.982	0.331	-0.444
-123.224	80.196	0.045	0.049
-122.210	-171.413	0.274	-0.009
-121.195	37.037	-0.162	0.143
-120.180	-78.441	-0.106	0.036
-119.166	364.194	-0.038	-0.076
-118.151	-97.406	0.141	-0.037
-117.137	800.000	-0.015	0.041
-116.122	91.174	-0.117	-0.130
-115.107	235.348	-0.082	-0.135
-114.093	64.741	-0.262	-0.263
-113.078	74.419	0.076	0.080
-112.064	149.433	-0.106	0.144
-111.049	71.592	-0.138	0.143
-110.034	800.000	0.095	0.337
-109.020	164.259	0.294	0.413
-108.005	-36.122	0.202	0.109
-106.991	-104.595	0.463	0.106
-105.976	3.646	0.017	0.012
-104.962	301.845	-0.117	0.216
-103.947	-200.000	-0.002	0.050
-102.932	-200.000	-0.012	0.096
-101.918	102.125	-0.138	0.160
-100.903	-200.000	-0.043	0.234
-99.889	113.856	0.044	-0.053
-98.874	-200.000	-0.033	-0.456
-97.859	16.011	0.034	0.027
-96.845	-107.502	0.163	-0.036
-95.830	29.970	-0.124	-0.105
-94.816	108.176	0.198	-0.235
-93.801	-25.083	-0.003	0.002
-92.786	-116.034	-0.242	0.045
-91.772	257.570	-0.066	-0.114
-90.757	83.055	-0.033	0.035
-89.743	68.719	0.238	-0.243
-88.728	40.991	-0.184	-0.166
-87.713	-108.605	0.223	0.048
-86.699	111.523	0.063	-0.076
-85.684	203.954	-0.069	0.107
-84.670	17.389	-0.100	-0.079
-83.655	-0.226	0.184	-0.130
-82.640	-158.013	0.081	-0.005
-81.626	-200.000	-0.025	-0.191
-80.611	125.465	-0.082	0.102
-79.597	-75.432	0.158	-0.056
-78.582	800.000	0.134	0.504
-77.567	-33.342	0.150	0.083
-76.553	-79.465	0.064	-0.021
-75.538	372.696	-0.113	-0.228
-74.524	-138.709	-0.287	-0.031
-73.509	228.298	-0.125	-0.202
-72.494	-35.421	-0.274	-0.148
-71.480	52.508	-0.139	-0.132
-70.465	-90.078	-0.118	-0.034
-69.451	-200.000	0.011	0.145
-68.436	-48.311	0.100	0.048
-67.422	60.698	0.254	-0.250
-66.407	-104.911	-0.185	-0.042
-65.392	315.435	-0.147	0.275
-64.378	163.305	-0.142	0.198
-63.363	245.032	-0.130	0.217
-62.349	-200.000	-0.015	0.373
-61.334	-4.587	-0.908	-0.623
-60.319	-200.000	0.004	0.631
-59.305	-200.000	0.065	-0.799
-58.290	214.638	0.579	0.911
-57.276	461.699	0.659	1.461
-56.261	-200.000	86.837	500.734
-55.246	540.022	1377.067	3257.405
-54.232	183.114	2612.867	3834.502
-53.217	116.615	2233.858	2722.979
-52.203	47.535	1680.007	1556.610
-51.188	40.074	1408.913	1258.137
-50.173	36.826	1364.732	1198.571
-49.159	56.218	1407.099	1357.865
-48.144	60.652	1426.083	1403.945
-47.130	40.425	1384.878	1238.667
-46.115	36.815	1367.578	1200.814
-45.100	36.639	1362.664	1195.359
-44.086	36.489	1360.061	1192.103
-43.071	36.504	1357.934	1190.288
-42.057	36.405	1355.598	1187.582
-41.042	36.538	1353.704	1186.692
-40.027	36.622	1352.058	1185.718
-39.013	36.520	1350.342	1183.544
-37.998	36.657	1348.123	1182.390
-36.984	36.716	1346.026	1180.861
-35.969	36.660	1344.268	1178.931
-34.954	36.602	1342.719	1177.174
-33.940	36.749	1340.925	1176.443
-32.925	36.749	1339.645	1175.276
-31.911	36.751	1338.480	1174.223
-30.896	36.794	1337.040	1173.172
-29.881	36.856	1335.373	1172.039
-28.867	36.659	1334.307	1169.866
-27.852	36.829	1332.580	1169.328
-26.838	36.763	1331.042	1167.538
-25.823	36.710	1329.620	1165.921
-24.809	36.719	1328.264	1164.743
-23.794	36.762	1326.888	1163.747
-22.779	36.719	1325.296	1162.050
-21.765	36.848	1324.152	1161.773
-20.750	36.724	1323.007	1159.976
-19.736	36.782	1321.171	1158.666
-18.721	36.629	1320.448	1157.071
-17.706	36.704	1318.869	1156.091
-16.692	36.582	1317.477	1154.094
-15.677	36.727	1316.493	1154.057
-14.663	36.691	1315.234	1152.691
-13.648	36.686	1314.063	1151.590
-12.633	36.571	1313.496	1150.361
-11.619	36.582	1312.329	1149.357
-10.604	36.518	1311.729	1148.409
-9.590	36.635	1310.597	1148.069
-8.575	36.500	1309.857	1146.573
-7.560	36.528	1309.386	1146.277
-6.546	36.542	1308.329	1145.392
-5.531	36.611	1307.252	1144.815
-4.517	36.597	1306.043	1143.627
-3.502	36.608	1305.048	1142.773
-2.487	36.582	1304.018	1141.671
-1.473	36.684	1300.066	1138.770
-0.458	35.747	1286.151	1121.073
0.556	30.803	1267.634	1083.634
1.571	27.488	1272.575	1068.352
2.586	26.566	1287.841	1075.596
3.600	25.311	1276.112	1058.315
4.615	17.548	1196.956	949.476
5.629	5.606	1113.079	820.602
6.644	0.388	1090.293	776.899
7.659	0.159	1087.133	773.402
8.673	0.025	1086.455	772.164
9.688	-0.021	1084.603	770.543
10.702	0.462	1083.147	771.913
11.717	7.872	1094.604	818.213
12.731	18.150	1109.901	882.905
13.746	21.997	1114.028	906.005
14.761	22.134	1113.829	906.470
15.775	21.982	1113.461	905.307
16.790	21.859	1112.533	903.838
17.804	21.731	1112.157	902.790
18.819	21.815	1111.676	902.755
19.834	21.866	1111.488	902.784
20.848	21.815	1110.717	901.813
21.863	21.981	1110.113	902.101
22.877	21.887	1109.210	900.800
23.892	21.867	1108.647	900.161
24.907	21.840	1107.717	899.189
25.921	21.806	1106.604	898.033
26.936	21.794	1105.690	897.152
27.950	21.815	1103.804	895.648
28.965	21.695	1101.680	893.232
29.980	21.587	1100.254	891.448
30.994	21.946	1099.184	892.325
32.009	21.884	1098.059	891.023
33.023	21.786	1096.577	889.240
34.038	21.781	1096.088	888.742
35.053	21.950	1095.318	888.894
36.067	21.843	1094.787	887.843
37.082	21.922	1093.972	887.503
38.096	22.009	1093.380	887.385
39.111	22.137	1092.203	886.997
40.126	21.924	1090.916	884.798
41.140	21.656	1088.789	881.648
42.155	21.465	1087.590	879.639
43.169	21.450	1086.437	878.551
44.184	21.532	1085.740	878.324
45.199	21.502	1084.182	876.833
46.213	21.455	1083.783	876.198
47.228	21.636	1083.100	876.473
48.242	21.773	1081.660	875.915
49.257	21.872	1080.756	875.603
50.271	21.870	1080.356	875.190
51.286	21.920	1079.589	874.738
52.301	21.876	1078.670	873.697
53.315	21.882	1077.263	872.513
54.330	21.833	1076.331	871.435
55.344	21.780	1075.905	870.752
56.359	21.882	1074.699	870.203
57.374	21.549	1074.011	867.917
58.388	21.711	1073.120	867.924
59.403	21.511	1071.998	865.953
60.417	21.548	1070.931	865.193
61.432	21.531	1070.729	864.871
62.447	21.671	1069.688	864.645
63.461	21.670	1069.133	864.116
64.476	21.513	1068.102	862.432
65.490	21.557	1066.933	861.627
66.505	21.556	1066.575	861.256
67.520	21.726	1065.392	861.062
68.534	21.465	1064.214	858.750
69.549	21.150	1062.947	856.108
70.563	21.121	1062.559	855.579
71.578	21.116	1061.458	854.592
72.593	21.009	1060.633	853.329
73.607	21.190	1059.879	853.531
74.622	21.439	1059.714	854.542
75.636	21.417	1058.837	853.647
76.651	21.219	1058.222	852.115
77.666	21.248	1057.275	851.413
78.680	21.278	1056.559	850.911
79.695	21.384	1055.851	850.781
80.709	21.546	1055.205	850.972
81.724	21.394	1054.232	849.374
82.739	21.477	1053.709	849.280
83.753	21.801	1053.390	850.520
84.768	22.187	1052.162	851.322
85.782	22.249	1051.116	850.704
86.797	22.104	1050.378	849.329
87.812	21.983	1049.162	847.687
88.826	22.001	1048.320	847.016
89.841	22.177	1047.169	846.859
90.855	22.225	1046.410	846.401
91.870	22.064	1045.328	844.677
92.884	21.913	1044.372	843.107
93.899	21.838	1043.386	841.873
94.914	22.060	1042.703	842.313
95.928	21.945	1041.358	840.604
96.943	21.639	1040.201	838.130
97.957	21.492	1038.857	836.270
98.972	21.370	1037.715	834.696
99.987	21.496	1037.271	834.867
101.001	21.822	1036.333	835.589
102.016	21.799	1035.813	834.987
103.030	21.853	1034.018	833.721
104.045	21.511	1033.507	831.611
105.060	21.493	1032.137	830.348
106.074	21.615	1031.800	830.582
107.089	21.830	1031.542	831.321
108.103	21.785	1030.132	829.902
109.118	21.535	1029.333	828.000
110.133	21.454	1027.477	826.054
111.147	21.506	1026.129	825.139
112.162	21.358	1025.537	823.893
113.176	21.548	1024.959	824.251
114.191	21.437	1024.160	823.016
115.206	21.124	1022.788	820.368
116.220	21.146	1021.971	819.743
117.235	21.254	1020.856	819.283
118.249	21.127	1020.520	818.343
119.264	21.253	1019.314	817.896
120.279	21.300	1018.699	817.547
121.293	21.489	1017.567	817.452
122.308	21.373	1016.845	816.257
123.322	21.197	1015.775	814.503
124.337	21.182	1014.296	813.180
125.352	20.701	1012.940	809.779
126.366	20.669	1011.853	808.691
127.381	21.362	1011.991	811.951
128.395	21.730	1011.647	813.312
129.410	21.942	1010.288	813.127
130.424	21.950	1008.889	811.969
131.439	21.810	1008.679	811.081
132.454	21.753	1007.682	809.944
133.468	21.776	1006.810	809.275
134.483	22.027	1005.790	809.542
135.497	22.066	1004.836	808.882
136.512	22.040	1004.351	808.301
137.527	22.024	1003.665	807.601
138.541	22.256	1002.478	807.641
139.556	22.101	1001.769	806.289
140.570	22.094	1001.190	805.717
141.585	21.996	1000.056	804.288
142.600	22.042	998.700	803.334
143.614	22.285	998.162	803.941
144.629	22.282	997.309	803.171
145.643	22.151	996.212	801.616
146.658	22.078	994.697	799.994
147.673	21.965	993.604	798.530
148.687	21.942	992.573	797.529
149.702	21.894	991.146	796.095
150.716	21.835	990.300	795.077
151.731	21.840	990.101	794.867
152.746	22.181	989.492	795.855
153.760	22.110	989.238	795.257
154.775	22.355	988.190	795.449
155.789	22.211	987.464	794.148
156.804	22.142	986.048	792.628
157.819	22.150	985.731	792.337
158.833	22.333	984.567	792.157
159.848	22.402	983.549	791.577
160.862	22.091	982.617	789.358
161.877	22.052	981.638	788.330
162.892	22.176	980.361	787.788
163.906	22.205	979.606	787.243
164.921	22.155	978.636	786.169
165.935	22.178	977.388	785.202
166.950	22.373	976.329	785.151
167.964	22.154	975.940	783.792
168.979	22.122	974.500	782.422
169.994	21.977	973.930	781.252
171.008	22.184	973.573	781.816
172.023	22.334	972.376	781.453
173.037	22.091	970.933	779.147
174.052	21.987	969.754	777.668
175.067	21.926	969.793	777.362
176.081	22.042	968.820	777.027
177.096	21.995	968.100	776.173
178.110	21.806	967.358	774.675
179.125	21.591	966.594	773.045
180.140	21.638	966.213	772.879
181.154	21.686	965.803	772.695
182.169	21.991	966.014	774.140
183.183	22.161	965.617	774.501
184.198	22.024	964.350	772.816
185.213	21.964	963.842	772.076
186.227	21.992	963.245	771.651
187.242	22.104	962.340	771.350
188.256	22.187	961.548	771.012
189.271	22.233	960.765	770.515
190.286	21.875	959.638	767.979
191.300	21.441	957.990	764.692
192.315	20.770	956.280	760.332
193.329	20.702	955.921	759.682
194.344	21.455	956.597	763.440
195.359	21.968	956.433	765.479
196.373	22.221	955.599	765.846
197.388	21.951	955.197	764.282
198.402	21.851	954.784	763.449
199.417	22.055	953.598	763.316
200.432	21.885	952.608	761.721
201.446	21.709	952.142	760.515
202.461	21.815	951.242	760.191
203.475	20.926	949.675	755.020
204.490	20.155	947.875	750.188
205.504	20.968	948.538	754.166
206.519	21.592	948.650	756.887
207.534	21.747	948.271	757.184
208.548	22.040	947.772	757.985
209.563	21.873	946.955	756.543
210.577	21.821	946.346	755.766
211.592	22.337	945.810	757.493
212.607	22.242	944.317	755.826
213.621	22.332	944.035	755.917
214.636	22.324	943.332	755.251
215.650	22.197	942.695	754.133
216.665	22.333	941.967	754.067
217.680	22.295	940.728	752.844
218.694	21.860	939.621	750.032
219.709	21.602	939.458	748.731
220.723	22.033	938.823	750.000
221.738	22.127	938.072	749.738
222.753	22.101	937.460	749.069
223.767	22.161	937.150	749.013
224.782	22.409	936.650	749.601
225.796	22.403	936.056	749.036
226.811	21.669	934.434	744.550
227.826	21.170	932.787	741.056
228.840	21.230	932.488	741.007
229.855	21.370	931.713	740.920
230.869	21.012	930.779	738.594
231.884	21.376	930.723	740.028
232.899	22.129	930.779	743.194
233.913	22.002	929.902	741.888
234.928	22.038	929.665	741.785
235.942	21.945	929.132	740.905
236.957	21.642	928.293	738.891
237.972	21.621	927.767	738.317
238.986	21.866	926.787	738.503
240.001	21.901	925.896	737.876
241.015	21.952	925.467	737.685
242.030	22.069	925.159	737.866
243.045	22.122	924.744	737.689
244.059	22.097	924.459	737.294
245.074	22.040	923.040	735.855
246.088	21.615	922.339	733.451
247.103	22.010	921.830	734.635
248.117	22.457	921.755	736.383
249.132	22.786	921.215	737.262
250.147	22.794	920.915	736.989
251.161	23.020	920.291	737.365
252.176	22.825	919.728	736.036
253.190	22.939	919.178	736.005
254.205	23.065	918.508	735.929
255.220	23.038	917.892	735.259
256.234	22.851	917.302	733.943
257.249	22.758	916.383	732.757
258.263	22.795	915.727	732.320
259.278	22.862	915.326	732.214
260.293	22.929	914.612	731.854
261.307	22.841	913.807	730.781
262.322	22.819	912.443	729.536
263.336	21.996	910.830	724.786
264.351	20.989	908.834	718.984
265.366	20.981	908.566	718.674
266.380	22.155	909.212	723.961
267.395	22.515	908.814	725.062
268.409	22.396	908.485	724.245
269.424	22.800	907.450	725.015
270.439	22.751	906.921	724.329
271.453	22.813	906.453	724.143
272.468	23.058	906.104	724.807
273.482	22.936	906.032	724.185
274.497	22.533	904.531	721.272
275.512	22.363	903.199	719.451
276.526	22.637	903.503	720.749
277.541	22.699	903.441	720.887
278.555	22.587	902.365	719.509
279.570	22.381	901.607	718.000
280.585	22.720	900.828	718.700
281.599	22.628	899.849	717.481
282.614	22.058	898.790	714.254
283.628	22.149	898.084	714.000
284.643	22.407	897.850	714.798
285.657	22.060	896.409	712.182
286.672	21.604	895.965	709.917
287.687	22.312	895.574	712.413
288.701	22.326	895.409	712.276
289.716	22.043	894.238	710.137
290.730	21.997	893.420	709.238
291.745	21.797	892.334	707.504
292.760	21.892	892.732	708.143
293.774	22.987	893.022	712.727
294.789	23.133	893.009	713.245
295.803	23.297	892.407	713.362
296.818	23.453	891.215	712.972
297.833	22.881	889.761	709.448
298.847	22.776	889.316	708.610
299.862	23.064	889.169	709.584
300.876	23.155	889.020	709.769
301.891	23.303	888.055	709.528
302.906	22.831	887.116	706.825
303.920	22.859	886.869	706.679
304.935	23.328	886.443	708.151
305.949	23.084	885.912	706.692
306.964	22.978	885.163	705.606
307.979	23.127	884.350	705.491
308.993	23.401	884.390	706.552
310.008	23.323	883.919	705.803
311.022	22.977	883.160	703.756
312.037	23.106	882.152	703.406
313.052	22.730	881.433	701.273
314.066	21.782	880.100	696.388
315.081	21.720	879.006	695.216
316.095	22.540	879.409	698.725
317.110	22.863	879.136	699.728
318.125	22.005	877.830	695.229
319.139	21.119	875.897	690.134
320.154	21.140	875.745	690.038
321.168	21.982	876.048	693.544
322.183	22.720	875.760	696.165
323.197	22.842	875.564	696.433
324.212	22.997	875.297	696.769
325.227	23.059	874.517	696.331
326.241	22.870	874.216	695.285
327.256	22.907	873.440	694.750
328.270	22.631	872.769	693.071
329.285	22.621	871.982	692.345
330.300	22.449	870.843	690.704
331.314	22.578	871.074	691.333
332.329	22.918	870.762	692.357
333.343	23.157	870.222	692.801
334.358	22.973	870.116	691.937
335.373	23.249	869.679	692.610
336.387	23.342	869.609	692.853
337.402	23.565	869.216	693.354
338.416	23.522	868.627	692.654
339.431	23.570	868.228	692.462
340.446	23.682	868.382	692.958
341.460	23.462	867.684	691.484
342.475	23.421	866.917	690.650
343.489	23.383	866.574	690.167
344.504	23.580	866.485	690.804
345.519	23.925	865.932	691.645
346.533	23.897	865.433	691.075
347.548	23.979	864.707	690.753
348.562	23.974	864.073	690.165
349.577	24.029	863.355	689.742
350.592	23.909	863.076	688.996
351.606	23.811	862.216	687.869
352.621	23.766	861.027	686.683
353.635	23.677	860.385	685.766
354.650	23.020	858.699	681.831
355.665	22.083	857.385	677.117
356.679	22.552	857.205	678.722
357.694	22.861	856.991	679.681
358.708	22.841	856.140	678.872
359.723	23.352	856.082	680.728
360.738	23.690	855.263	681.314
361.752	23.728	854.841	681.062
362.767	23.751	854.848	681.097
363.781	24.109	854.638	682.239
364.796	24.171	854.201	682.067
365.810	24.227	853.600	681.743
366.825	24.072	853.354	680.892
367.840	23.939	852.405	679.566
368.854	23.681	851.277	677.623
369.869	23.677	851.310	677.576
370.883	23.677	850.637	676.977
371.898	23.436	850.607	675.977
372.913	23.675	849.956	676.309
373.927	23.753	849.644	676.297
374.942	23.949	848.919	676.408
375.956	23.934	848.509	675.964
376.971	24.155	848.332	676.604
377.986	24.276	847.720	676.514
379.000	24.166	847.318	675.716
380.015	23.989	846.747	674.529
381.029	24.108	846.279	674.548
382.044	24.214	845.892	674.580
383.059	24.143	845.286	673.768
384.073	24.201	844.438	673.252
385.088	24.243	843.812	672.852
386.102	23.971	843.117	671.214
387.117	23.955	842.373	670.503
388.132	23.718	841.158	668.582
389.146	23.057	840.252	665.316
390.161	23.536	839.871	666.758
391.175	23.950	840.130	668.460
392.190	23.729	839.039	666.704
393.205	22.292	837.020	659.657
394.219	20.824	835.080	652.572
395.234	20.788	834.769	652.137
396.248	22.556	835.903	659.588
397.263	23.820	836.602	664.812
398.278	23.857	836.541	664.843
399.292	23.676	835.994	663.675
400.307	23.639	835.283	662.913
401.321	23.609	835.130	662.621
402.336	24.127	834.821	664.250
403.350	24.500	835.059	665.771
404.365	24.669	834.827	666.158
405.380	24.893	834.494	666.665
406.394	24.933	833.505	665.967
407.409	24.832	833.043	665.164
408.423	24.896	832.615	664.999
409.438	24.913	832.294	664.750
410.453	25.050	831.911	664.891
411.467	24.913	831.423	663.934
412.482	24.804	830.922	663.071
413.496	24.888	830.439	662.938
414.511	24.934	830.165	662.833
415.526	25.176	829.600	663.216
416.540	24.763	828.853	661.035
417.555	24.495	828.180	659.451
418.569	24.625	827.660	659.457
419.584	24.612	827.338	659.096
420.599	24.460	826.369	657.705
421.613	150.908	1366.253	1787.603
422.628	131.602	1444.916	1787.739
