DTS Sentinel unit serial number:	SN413079Multiplexer serial number:	ORYXHardware model number:	OX4-SRSoftware version number:	ORYX F/W v4.00 Oryx Data Collector v3.7.2.0data status	okinstallation	princeton_trtdifferential loss correction	single-endedforward channel	channel 1reverse channel	N/Adate	2019/09/19time	06:38:35forward acquisition time	60.00reverse acquisition time	0.00gamma	496.2192k internal	0.2343k external	0.2343temperature offset calibration	1.0017default loss term (dB/km)	0.3790temperature slope calibration	1.0000multiplexer offset coefficient	1.0000multiplexer slope coefficient	1.0000fibre end	0.00T internal ref (°C)	19.03T ext. ref 1 (°C)	0.56T ext. ref 2 (°C)	12.81length (m)	temperature (°C)	Stokes	anti-Stokes-747.200	-164.929	0.032	-0.001
-746.185	-200.000	0.004	0.236
-745.171	12.050	-0.173	0.133
-744.156	-108.368	-0.324	-0.070
-743.142	63.307	0.135	-0.135
-742.127	184.715	-0.064	-0.095
-741.112	620.430	-0.063	-0.160
-740.098	-200.000	-0.016	-0.102
-739.083	-52.024	-0.329	-0.153
-738.069	800.000	-0.040	-0.141
-737.054	144.812	0.195	0.261
-736.039	-19.977	-0.422	-0.261
-735.025	-200.000	-0.020	0.323
-734.010	-152.660	-0.338	-0.024
-732.996	-84.046	-0.503	-0.160
-731.981	-125.019	-0.270	-0.041
-730.966	28.925	-0.208	0.176
-729.952	-85.630	-0.044	0.014
-728.937	40.877	-0.048	-0.043
-727.923	-127.152	-0.410	0.060
-726.908	-200.000	-0.013	0.272
-725.894	-55.972	-0.175	0.078
-724.879	89.984	0.032	-0.036
-723.864	800.000	0.101	-0.389
-722.850	124.046	-0.099	0.125
-721.835	264.419	-0.114	0.199
-720.821	-126.118	-0.162	-0.024
-719.806	800.000	-0.037	0.162
-718.791	181.674	0.100	0.148
-717.777	216.402	-0.082	-0.131
-716.762	-111.704	0.241	-0.049
-715.748	-181.057	-0.242	0.005
-714.733	89.103	-0.168	-0.187
-713.718	-200.000	-0.012	0.165
-712.704	37.381	-0.265	0.235
-711.689	234.450	0.120	-0.197
-710.675	-75.190	-0.124	-0.044
-709.660	-90.795	0.081	0.023
-708.645	-92.195	-0.087	0.025
-707.631	-131.224	0.296	-0.039
-706.616	352.818	0.077	0.153
-705.602	385.810	0.040	-0.082
-704.587	-200.000	-0.026	0.228
-703.572	625.588	-0.135	-0.341
-702.558	-99.720	-0.181	-0.045
-701.543	-33.868	0.105	-0.058
-700.529	-4.740	-0.130	-0.090
-699.514	-160.174	-0.155	-0.008
-698.499	384.770	0.184	-0.379
-697.485	-200.000	0.011	-0.276
-696.470	-200.000	0.018	0.223
-695.456	251.560	-0.084	-0.144
-694.441	-7.091	0.277	-0.188
-693.426	420.143	-0.039	0.084
-692.412	-54.074	0.073	-0.033
-691.397	-200.000	0.024	-0.230
-690.383	278.412	-0.169	-0.301
-689.368	141.365	-0.054	-0.072
-688.354	-18.725	-0.080	0.050
-687.339	-2.921	-0.112	-0.078
-686.324	-60.936	0.117	-0.049
-685.310	50.214	0.167	0.158
-684.295	204.020	-0.080	-0.123
-683.281	375.373	0.069	-0.141
-682.266	-200.000	-0.047	0.365
-681.251	-50.049	0.217	0.103
-680.237	-200.000	0.002	-0.141
-679.222	12.081	0.232	0.179
-678.208	186.821	-0.072	0.108
-677.193	-200.000	-0.006	0.198
-676.178	142.788	0.124	0.165
-675.164	-154.372	-0.399	-0.027
-674.149	-168.367	0.343	-0.013
-673.135	50.544	0.176	0.166
-672.120	122.888	0.173	-0.216
-671.105	-106.520	-0.220	0.049
-670.091	431.181	-0.072	0.155
-669.076	14.974	-0.131	0.102
-668.062	-200.000	-0.008	-0.175
-667.047	800.000	-0.020	0.079
-666.032	79.629	-0.047	0.050
-665.018	29.001	-0.252	0.213
-664.003	-11.270	0.169	0.111
-662.989	424.038	-0.126	-0.270
-661.974	-200.000	-0.053	0.284
-660.959	-113.160	0.119	-0.023
-659.945	-151.393	-0.233	0.017
-658.930	-200.000	0.036	-0.215
-657.916	482.167	0.113	-0.257
-656.901	-200.000	0.018	-0.123
-655.886	288.295	0.058	-0.105
-654.872	-61.169	-0.226	0.095
-653.857	-112.145	0.057	-0.012
-652.843	-73.092	0.260	0.095
-651.828	-173.777	0.528	0.016
-650.814	211.788	0.115	-0.181
-649.799	-56.515	0.428	0.190
-648.784	-200.000	0.045	0.240
-647.770	94.717	-0.130	0.147
-646.755	-112.096	-0.282	0.057
-645.741	36.985	0.101	0.089
-644.726	70.044	-0.251	-0.258
-643.711	22.724	-0.333	-0.272
-642.697	-200.000	-0.002	0.167
-641.682	122.522	-0.148	-0.185
-640.668	-200.000	0.012	-0.144
-639.653	-80.595	0.198	0.066
-638.638	-69.893	-0.244	-0.093
-637.624	-92.632	0.177	-0.050
-636.609	-96.071	-0.206	0.055
-635.595	98.177	0.268	0.308
-634.580	-104.690	0.253	0.058
-633.565	396.214	0.223	0.463
-632.551	548.073	0.110	-0.263
-631.536	331.489	-0.129	0.248
-630.522	-200.000	-0.032	-0.396
-629.507	268.899	0.139	-0.242
-628.492	-166.277	0.393	-0.017
-627.478	92.035	0.150	-0.168
-626.463	-73.864	0.063	0.023
-625.449	169.192	-0.163	-0.231
-624.434	-4.315	-0.408	0.281
-623.419	-132.657	-0.329	0.042
-622.405	-103.991	0.271	-0.063
-621.390	800.000	0.019	0.062
-620.376	-200.000	0.025	0.120
-619.361	105.256	-0.113	-0.133
-618.346	48.181	0.065	0.060
-617.332	-89.481	0.146	0.043
-616.317	-138.374	0.203	0.022
-615.303	-200.000	0.003	0.091
-614.288	-148.689	-0.419	-0.034
-613.273	800.000	-0.075	0.275
-612.259	81.016	0.115	-0.124
-611.244	176.997	-0.186	0.270
-610.230	-49.220	-0.060	0.029
-609.215	800.000	-0.052	-0.165
-608.201	-45.134	0.191	-0.095
-607.186	800.000	-0.056	0.206
-606.171	375.469	0.108	0.219
-605.157	449.944	0.026	0.056
-604.142	800.000	0.048	-0.183
-603.128	-200.000	-0.049	0.227
-602.113	651.119	-0.031	-0.078
-601.098	-200.000	-0.009	-0.117
-600.084	542.732	-0.071	0.168
-599.069	-200.000	-0.017	0.106
-598.055	352.795	-0.064	0.125
-597.040	-7.633	0.036	-0.024
-596.025	-200.000	0.008	-0.083
-595.011	54.870	0.345	0.331
-593.996	-44.388	0.235	0.117
-592.982	122.519	0.188	0.234
-591.967	-61.331	-0.249	-0.104
-590.952	460.870	0.172	-0.382
-589.938	195.173	-0.160	0.242
-588.923	24.473	-0.238	0.196
-587.909	-113.578	0.246	0.048
-586.894	-200.000	-0.074	0.343
-585.879	178.829	-0.158	0.230
-584.865	-200.000	-0.028	0.215
-583.850	-78.765	0.206	0.070
-582.836	265.637	0.100	0.173
-581.821	-200.000	0.053	-0.260
-580.806	68.713	0.053	-0.054
-579.792	-200.000	0.034	-0.430
-578.777	377.283	0.069	0.139
-577.763	-200.000	0.011	-0.168
-576.748	235.528	-0.072	0.119
-575.733	800.000	-0.071	-0.262
-574.719	117.885	-0.202	-0.247
-573.704	697.372	-0.036	-0.095
-572.690	-29.607	0.159	-0.091
-571.675	-99.962	0.314	-0.078
-570.661	37.675	-0.092	-0.081
-569.646	-84.741	0.393	-0.123
-568.631	-200.000	0.004	0.033
-567.617	-5.983	0.224	-0.152
-566.602	147.427	-0.076	0.102
-565.588	-6.503	0.117	-0.079
-564.573	350.449	0.021	0.042
-563.558	-200.000	-0.015	-0.242
-562.544	-35.430	-0.106	-0.057
-561.529	50.092	-0.172	0.161
-560.515	178.504	-0.125	0.181
-559.500	-11.141	-0.081	-0.053
-558.485	-53.581	-0.164	-0.075
-557.471	399.780	0.128	0.268
-556.456	16.530	-0.125	0.098
-555.442	-200.000	-0.017	0.249
-554.427	208.509	0.128	-0.199
-553.412	419.720	-0.057	0.121
-552.398	48.210	0.099	0.092
-551.383	-137.771	-0.139	-0.016
-550.369	21.037	0.047	-0.038
-549.354	800.000	-0.056	-0.184
-548.339	-116.403	0.226	0.041
-547.325	-200.000	0.008	-0.213
-546.310	779.024	-0.039	-0.105
-545.296	-85.841	0.094	0.029
-544.281	-102.871	-0.618	0.146
-543.266	-137.813	0.117	0.013
-542.252	-200.000	0.014	-0.112
-541.237	-49.179	-0.139	-0.066
-540.223	-2.965	-0.186	0.129
-539.208	-200.000	-0.007	-0.368
-538.193	-170.186	0.222	-0.008
-537.179	671.570	0.183	-0.471
-536.164	-53.783	-0.210	-0.095
-535.150	202.221	-0.101	0.155
-534.135	-49.119	0.154	-0.073
-533.121	-200.000	0.025	-0.157
-532.106	192.505	0.084	-0.126
-531.091	-200.000	-0.017	0.173
-530.077	94.193	-0.061	-0.068
-529.062	103.390	-0.114	-0.133
-528.048	-145.916	0.195	-0.017
-527.033	20.628	-0.225	-0.180
-526.018	-200.000	-0.084	-0.418
-525.004	36.540	-0.192	0.168
-523.989	-120.099	0.401	-0.068
-522.975	8.566	-0.202	0.151
-521.960	-186.772	0.092	-0.001
-520.945	551.775	-0.117	0.280
-519.931	-37.544	0.043	-0.023
-518.916	-200.000	-0.019	-0.137
-517.902	-200.000	-0.030	-0.234
-516.887	-35.398	-0.192	-0.104
-515.872	319.569	0.052	0.097
-514.858	-200.000	-0.009	-0.234
-513.843	-36.031	0.192	-0.103
-512.829	10.142	-0.113	0.085
-511.814	191.765	-0.223	-0.334
-510.799	117.497	-0.152	-0.185
-509.785	288.728	0.085	-0.152
-508.770	-30.901	0.034	0.019
-507.756	-25.376	0.123	-0.072
-506.741	-200.000	-0.002	0.019
-505.726	53.871	0.294	0.280
-504.712	-200.000	0.043	-0.192
-503.697	64.886	0.134	0.135
-502.683	137.301	0.138	0.178
-501.668	103.689	0.293	0.342
-500.653	-147.655	-0.325	-0.027
-499.639	800.000	0.012	0.054
-498.624	-200.000	-0.054	0.258
-497.610	31.186	-0.111	0.094
-496.595	301.507	-0.066	0.122
-495.581	800.000	0.083	0.262
-494.566	608.843	-0.099	-0.246
-493.551	-128.709	-0.278	0.039
-492.537	-48.497	-0.244	-0.116
-491.522	-121.763	-0.088	-0.014
-490.508	-200.000	-0.014	0.118
-489.493	-29.969	0.141	0.080
-488.478	-200.000	-0.070	-0.325
-487.464	-200.000	-0.004	0.031
-486.449	-135.907	-0.336	0.039
-485.435	138.006	0.267	-0.347
-484.420	-200.000	0.008	0.125
-483.405	80.086	-0.105	0.112
-482.391	-200.000	0.011	0.093
-481.376	-123.940	-0.369	0.058
-480.362	-19.631	-0.035	0.021
-479.347	-63.689	0.319	0.130
-478.332	-1.771	0.142	0.099
-477.318	-200.000	0.024	-0.128
-476.303	-116.240	0.289	0.053
-475.289	263.464	0.025	0.042
-474.274	-43.334	-0.171	0.086
-473.259	800.000	0.145	0.397
-472.245	183.209	0.238	0.348
-471.230	-200.000	-0.018	-0.098
-470.216	94.584	-0.117	0.131
-469.201	-145.329	-0.265	0.024
-468.186	178.955	0.365	0.528
-467.172	716.453	-0.072	0.190
-466.157	-167.812	-0.086	0.003
-465.143	221.261	-0.022	0.035
-464.128	319.226	0.024	0.045
-463.113	-88.612	-0.183	-0.054
-462.099	-71.030	-0.201	0.075
-461.084	-200.000	-0.003	-0.079
-460.070	155.114	-0.019	-0.026
-459.055	426.523	-0.064	-0.136
-458.040	-88.591	-0.106	0.031
-457.026	-102.908	-0.202	0.047
-456.011	704.923	-0.029	0.077
-454.997	34.704	-0.189	0.164
-453.982	-200.000	0.058	0.312
-452.968	113.703	-0.097	-0.117
-451.953	137.881	0.072	0.094
-450.938	-200.000	-0.090	0.000
-449.924	557.994	-0.029	-0.069
-448.909	-167.778	0.158	-0.006
-447.895	-45.198	0.135	0.067
-446.880	156.459	-0.106	0.145
-445.865	56.833	-0.203	0.195
-444.851	494.135	0.141	-0.320
-443.836	-33.337	-0.257	-0.141
-442.822	280.376	0.239	0.422
-441.807	800.000	0.093	0.315
-440.792	800.000	-0.084	-0.333
-439.778	-152.279	-0.240	-0.017
-438.763	348.578	0.171	-0.333
-437.749	-96.562	-0.145	-0.038
-436.734	-200.000	0.055	-0.254
-435.719	-182.268	0.126	0.002
-434.705	561.714	0.060	-0.143
-433.690	-116.714	-0.123	-0.022
-432.676	342.380	-0.154	-0.299
-431.661	-153.985	0.367	0.025
-430.646	800.000	0.053	-0.147
-429.632	61.975	0.216	0.213
-428.617	70.677	0.192	0.196
-427.603	768.669	-0.041	0.111
-426.588	73.943	0.136	0.141
-425.573	-65.276	-0.188	-0.075
-424.559	42.138	0.216	-0.194
-423.544	-66.422	-0.157	-0.062
-422.530	-109.186	0.185	0.039
-421.515	-30.267	0.225	-0.126
-420.500	-144.591	-0.294	-0.027
-419.486	113.353	0.176	-0.212
-418.471	-161.858	0.262	0.013
-417.457	33.748	-0.225	-0.194
-416.442	199.317	-0.098	0.148
-415.428	-160.143	0.117	-0.006
-414.413	-131.108	-0.218	-0.029
-413.398	-90.652	0.243	-0.069
-412.384	-36.629	0.059	-0.032
-411.369	234.157	-0.110	0.179
-410.355	704.751	0.094	-0.245
-409.340	35.345	0.246	-0.213
-408.325	166.726	-0.207	0.290
-407.311	37.865	0.079	0.069
-406.296	800.000	-0.012	0.039
-405.282	129.317	0.127	0.161
-404.267	93.443	-0.257	-0.287
-403.252	518.001	0.157	-0.363
-402.238	-155.812	-0.284	-0.018
-401.223	734.599	0.123	-0.326
-400.209	-43.697	0.085	0.042
-399.194	-22.475	-0.147	-0.088
-398.179	-14.162	-0.162	-0.103
-397.165	-200.000	0.001	0.150
-396.150	-200.000	-0.056	-0.365
-395.136	411.204	0.056	-0.117
-394.121	266.617	0.236	0.406
-393.106	-23.070	-0.338	-0.201
-392.092	526.376	0.036	-0.084
-391.077	-200.000	-0.083	-0.461
-390.063	27.201	-0.219	-0.182
-389.048	800.000	-0.026	0.071
-388.033	259.511	0.062	0.106
-387.019	-22.683	-0.224	-0.134
-386.004	-105.429	0.141	-0.032
-384.990	-64.036	0.227	-0.092
-383.975	206.409	0.099	0.152
-382.960	800.000	-0.211	0.579
-381.946	-6.605	-0.075	0.050
-380.931	-87.893	-0.071	0.021
-379.917	13.073	-0.082	0.063
-378.902	731.453	-0.042	0.112
-377.888	62.687	-0.173	-0.170
-376.873	-156.334	-0.265	-0.016
-375.858	-115.979	0.173	0.032
-374.844	800.000	0.080	0.224
-373.829	-80.118	-0.319	0.105
-372.815	21.118	-0.173	-0.139
-371.800	-200.000	-0.002	0.080
-370.785	25.941	-0.282	-0.232
-369.771	800.000	-0.058	-0.171
-368.756	114.321	0.136	-0.163
-367.742	-200.000	0.052	0.403
-366.727	-120.768	-0.036	0.006
-365.712	66.085	0.063	-0.064
-364.698	420.081	-0.079	0.167
-363.683	-94.165	0.045	0.012
-362.669	13.955	0.103	0.079
-361.654	49.170	-0.173	-0.161
-360.639	800.000	0.166	-0.608
-359.625	-200.000	-0.015	-0.203
-358.610	-67.715	0.267	-0.103
-357.596	800.000	-0.055	0.209
-356.581	89.002	-0.039	-0.043
-355.566	47.760	0.102	-0.094
-354.552	4.766	-0.190	0.138
-353.537	104.731	0.143	-0.167
-352.523	-200.000	0.005	-0.383
-351.508	54.002	-0.046	-0.044
-350.493	-44.420	-0.149	-0.074
-349.479	-49.887	-0.116	0.054
-348.464	63.044	-0.215	-0.213
-347.450	800.000	-0.042	-0.126
-346.435	800.000	-0.137	-0.479
-345.420	-36.275	-0.262	0.139
-344.406	32.847	0.118	0.101
-343.391	375.340	0.148	-0.297
-342.377	-200.000	-0.031	0.270
-341.362	155.567	0.100	0.136
-340.348	-36.473	0.218	0.116
-339.333	-22.323	0.142	-0.085
-338.318	106.130	-0.242	0.282
-337.304	633.760	0.044	0.110
-336.289	-19.647	0.105	-0.064
-335.275	-200.000	0.039	0.372
-334.260	-15.693	0.307	0.193
-333.245	-70.432	-0.256	-0.096
-332.231	-195.105	0.349	0.003
-331.216	-74.547	-0.281	0.100
-330.202	-57.500	0.079	-0.034
-329.187	-200.000	0.022	-0.276
-328.172	-145.530	0.306	-0.027
-327.158	107.070	-0.048	0.057
-326.143	290.921	0.170	0.305
-325.129	-200.000	0.034	0.263
-324.114	129.793	-0.126	0.158
-323.099	188.073	0.249	-0.366
-322.085	800.000	0.093	0.293
-321.070	-9.533	-0.206	0.135
-320.056	313.853	0.089	0.164
-319.041	-200.000	-0.002	-0.337
-318.026	107.389	-0.146	-0.171
-317.012	-54.911	-0.217	-0.096
-315.997	-24.352	-0.139	0.082
-314.983	-131.846	-0.247	0.032
-313.968	-200.000	-0.003	0.026
-312.953	-9.443	0.120	0.079
-311.939	-100.950	0.304	-0.074
-310.924	-163.173	-0.353	-0.017
-309.910	-200.000	-0.015	0.392
-308.895	-200.000	0.036	0.243
-307.880	225.029	-0.140	0.223
-306.866	-200.000	-0.020	-0.419
-305.851	678.052	-0.042	-0.108
-304.837	63.820	0.091	0.090
-303.822	-30.087	0.330	0.185
-302.807	-89.494	-0.131	0.038
-301.793	-90.547	-0.075	0.021
-300.778	-144.849	-0.121	0.011
-299.764	-136.539	0.315	0.036
-298.749	-171.407	0.247	-0.008
-297.735	13.325	-0.155	0.118
-296.720	-77.060	-0.191	0.066
-295.705	-123.666	0.140	0.022
-294.691	-62.218	0.175	0.072
-293.676	20.050	-0.246	0.195
-292.662	601.007	0.086	-0.210
-291.647	-200.000	0.022	-0.152
-290.632	-96.979	0.231	0.060
-289.618	400.549	-0.126	-0.260
-288.603	2.519	-0.087	-0.062
-287.589	292.554	-0.149	0.267
-286.574	-122.495	0.193	-0.031
-285.559	345.253	0.132	0.255
-284.545	-49.901	-0.204	-0.095
-283.530	800.000	0.078	0.223
-282.516	519.858	0.079	0.182
-281.501	224.381	0.151	-0.240
-280.486	20.676	0.200	-0.159
-279.472	386.225	0.104	-0.212
-278.457	-31.207	-0.198	0.109
-277.443	106.963	-0.103	0.121
-276.428	-116.603	0.116	0.021
-275.413	263.024	0.140	0.239
-274.399	-102.703	-0.210	-0.049
-273.384	220.802	-0.084	-0.133
-272.370	-4.537	0.111	0.076
-271.355	435.863	0.159	0.341
-270.340	-111.148	-0.225	0.045
-269.326	-81.777	-0.097	0.031
-268.311	92.210	-0.265	0.293
-267.297	-108.289	0.312	-0.066
-266.282	314.832	0.083	-0.153
-265.267	-161.033	0.284	-0.015
-264.253	-200.000	-0.015	-0.359
-263.238	20.400	-0.193	0.153
-262.224	800.000	0.070	-0.239
-261.209	64.647	-0.166	0.164
-260.195	-129.253	0.101	0.014
-259.180	453.328	0.078	0.169
-258.165	74.160	-0.023	-0.023
-257.151	19.270	0.108	0.085
-256.136	800.000	0.067	0.201
-255.122	-200.000	-0.019	0.128
-254.107	113.752	-0.118	0.141
-253.092	110.495	-0.274	-0.324
-252.078	-61.968	0.385	0.158
-251.063	-200.000	-0.002	-0.163
-250.049	-137.091	0.164	-0.018
-249.034	80.117	-0.140	0.147
-248.019	800.000	0.084	0.267
-247.005	521.419	-0.123	-0.283
-245.990	260.803	-0.128	0.217
-244.976	198.940	-0.016	0.024
-243.961	-117.764	-0.372	-0.066
-242.946	81.915	-0.179	-0.191
-241.932	-200.000	0.031	-0.242
-240.917	32.235	-0.152	0.129
-239.903	800.000	0.051	-0.158
-238.888	62.623	0.197	-0.193
-237.873	-41.394	0.286	-0.144
-236.859	800.000	-0.071	-0.248
-235.844	800.000	0.034	0.093
-234.830	-98.601	-0.176	0.044
-233.815	-200.000	0.021	0.143
-232.800	-200.000	0.053	0.527
-231.786	129.461	0.155	0.195
-230.771	-44.799	0.183	0.090
-229.757	174.129	-0.121	0.172
-228.742	-110.197	0.179	-0.037
-227.727	445.795	0.194	-0.419
-226.713	66.904	-0.035	0.035
-225.698	-41.022	0.225	-0.114
-224.684	22.492	-0.227	0.182
-223.669	-110.691	-0.077	0.016
-222.655	241.234	-0.148	0.243
-221.640	-16.817	0.074	0.046
-220.625	-137.921	-0.493	-0.054
-219.611	800.000	-0.069	0.229
-218.596	-118.419	-0.172	0.030
-217.582	82.546	0.129	-0.137
-216.567	-30.492	0.172	0.096
-215.552	-200.000	-0.035	-0.277
-214.538	582.123	0.108	0.261
-213.523	-106.726	0.149	0.032
-212.509	-6.339	-0.117	-0.078
-211.494	-119.984	-0.029	-0.005
-210.479	87.340	0.022	0.024
-209.465	800.000	0.013	0.048
-208.450	-21.104	-0.090	0.054
-207.436	-73.990	0.271	0.096
-206.421	-22.534	0.150	0.089
-205.406	-145.864	-0.088	0.008
-204.392	-138.245	-0.270	-0.029
-203.377	-128.601	0.223	0.031
-202.363	-119.250	0.289	-0.049
-201.348	52.975	0.062	0.058
-200.333	193.450	0.088	0.131
-199.319	800.000	0.032	0.103
-198.304	-80.054	0.151	-0.050
-197.290	83.416	-0.325	0.347
-196.275	800.000	-0.030	-0.113
-195.260	185.900	-0.038	0.055
-194.246	78.245	-0.137	-0.144
-193.231	-67.878	-0.127	-0.049
-192.217	106.434	0.168	-0.195
-191.202	249.962	-0.030	-0.051
-190.187	210.801	0.090	-0.138
-189.173	-80.533	-0.435	0.142
-188.158	-200.000	0.034	-0.259
-187.144	-119.518	-0.278	0.047
-186.129	100.739	0.230	0.262
-185.114	-155.644	0.181	-0.011
-184.100	315.885	-0.054	0.100
-183.085	-41.595	0.259	-0.131
-182.071	607.878	0.126	-0.307
-181.056	-145.246	0.391	-0.035
-180.042	-107.216	0.126	-0.027
-179.027	-111.308	-0.026	0.005
-178.012	-200.000	-0.017	-0.337
-176.998	8.594	-0.226	0.167
-175.983	-42.182	0.197	-0.099
-174.969	241.978	-0.080	-0.132
-173.954	21.901	0.047	0.037
-172.939	184.073	-0.220	-0.319
-171.925	-43.827	-0.426	-0.210
-170.910	380.914	0.205	-0.412
-169.896	2.221	-0.196	-0.139
-168.881	-42.385	0.134	-0.067
-167.866	-56.980	0.199	-0.086
-166.852	116.236	-0.087	-0.104
-165.837	-200.000	-0.028	-0.138
-164.823	-120.304	0.074	-0.012
-163.808	-200.000	0.091	0.442
-162.793	800.000	-0.092	0.287
-161.779	1.129	0.183	-0.128
-160.764	-200.000	0.023	-0.325
-159.750	-200.000	0.016	-0.196
-158.735	463.219	-0.071	-0.155
-157.720	-61.309	0.283	0.117
-156.706	226.222	-0.144	-0.229
-155.691	800.000	0.049	-0.175
-154.677	61.734	0.101	-0.098
-153.662	106.052	0.077	0.089
-152.647	272.331	-0.119	0.205
-151.633	-200.000	-0.036	0.224
-150.618	800.000	0.095	-0.364
-149.604	35.338	0.250	-0.214
-148.589	-22.669	-0.099	-0.058
-147.574	-77.789	-0.131	-0.044
-146.560	-122.813	0.177	-0.028
-145.545	66.951	0.032	-0.032
-144.531	-134.969	-0.333	-0.039
-143.516	57.422	-0.176	0.168
-142.502	-24.709	-0.091	0.053
-141.487	98.528	-0.168	-0.190
-140.472	58.000	0.376	-0.360
-139.458	-14.074	0.051	0.032
-138.443	-137.825	0.090	0.010
-137.429	42.334	-0.095	-0.085
-136.414	-137.678	-0.188	0.021
-135.399	-128.112	0.113	-0.016
-134.385	-200.000	0.034	-0.208
-133.370	-200.000	0.007	-0.543
-132.356	-184.167	-0.141	0.002
-131.341	-73.690	0.289	0.103
-130.326	-131.207	-0.115	-0.015
-129.312	-36.790	0.232	-0.122
-128.297	45.959	-0.159	0.144
-127.283	-200.000	0.006	0.044
-126.268	-200.000	0.001	-0.026
-125.253	800.000	0.042	0.133
-124.239	-19.968	0.376	-0.227
-123.224	800.000	0.020	0.073
-122.210	-26.348	0.064	-0.037
-121.195	-101.395	-0.239	-0.057
-120.180	721.979	0.087	0.225
-119.166	800.000	-0.090	0.296
-118.151	-200.000	-0.031	0.241
-117.137	-68.463	0.171	0.065
-116.122	22.257	0.412	0.328
-115.107	344.792	0.176	0.338
-114.093	38.991	-0.149	0.130
-113.078	-109.417	0.240	-0.050
-112.064	495.147	0.162	-0.364
-111.049	-152.179	0.345	0.024
-110.034	44.788	0.188	-0.169
-109.020	-140.195	0.247	-0.025
-108.005	-200.000	0.004	-0.060
-106.991	800.000	0.067	-0.187
-105.976	-100.663	-0.273	0.066
-104.962	-200.000	-0.016	0.076
-103.947	-101.412	0.067	-0.016
-102.932	-200.000	-0.019	-0.192
-101.918	31.049	-0.298	0.249
-100.903	31.608	0.130	0.109
-99.889	-200.000	-0.053	0.375
-98.874	-121.471	-0.403	-0.065
-97.859	-124.930	0.184	0.028
-96.845	-54.215	0.361	0.160
-95.830	231.591	-0.170	0.271
-94.816	-125.204	0.282	-0.042
-93.801	-105.061	0.256	0.057
-92.786	-200.000	-0.006	0.071
-91.772	32.184	-0.114	0.096
-90.757	800.000	0.068	0.265
-89.743	256.952	0.179	0.300
-88.728	-58.555	-0.085	-0.036
-87.713	-151.442	0.145	-0.010
-86.699	55.173	-0.171	-0.161
-85.684	-200.000	-0.078	-0.376
-84.670	-200.000	0.058	0.534
-83.655	-93.990	-0.158	-0.042
-82.640	-75.418	0.153	-0.053
-81.626	800.000	0.041	-0.141
-80.611	-43.227	-0.177	0.087
-79.597	-178.855	-0.219	-0.005
-78.582	187.053	0.122	0.178
-77.567	-115.754	-0.132	0.024
-76.553	60.258	0.201	0.194
-75.538	-200.000	0.021	0.255
-74.524	-197.551	-0.305	-0.002
-73.509	-200.000	0.023	-0.267
-72.494	-4.652	-0.108	0.073
-71.480	-200.000	-0.064	-0.459
-70.465	-130.736	0.387	0.051
-69.451	-126.995	0.158	-0.023
-68.436	-19.917	0.408	0.246
-67.422	-200.000	-0.039	0.240
-66.407	143.638	0.118	-0.153
-65.392	-152.796	0.381	-0.026
-64.378	66.658	0.124	-0.123
-63.363	253.751	0.090	0.150
-62.349	-200.000	0.058	0.324
-61.334	11.424	-1.369	-1.023
-60.319	94.288	1.053	1.166
-59.305	603.203	-0.662	-1.605
-58.290	141.465	1.103	1.424
-57.276	800.000	0.427	1.807
-56.261	-200.000	136.041	628.921
-55.246	345.000	1633.691	3126.277
-54.232	138.047	2767.837	3536.045
-53.217	80.992	2151.800	2263.218
-52.203	29.627	1588.234	1317.003
-51.188	22.054	1341.505	1066.569
-50.173	20.111	1307.569	1028.034
-49.159	46.925	1381.460	1251.485
-48.144	42.195	1390.540	1230.708
-47.130	22.022	1339.392	1064.524
-46.115	19.194	1320.231	1032.329
-45.100	18.960	1315.316	1027.050
-44.086	18.955	1312.703	1024.934
-43.071	18.942	1310.272	1022.922
-42.057	18.970	1308.102	1021.351
-41.042	18.960	1306.324	1019.866
-40.027	18.923	1305.217	1018.743
-39.013	18.956	1302.977	1017.147
-37.998	18.920	1301.303	1015.589
-36.984	18.985	1299.857	1014.804
-35.969	18.980	1298.052	1013.323
-34.954	19.002	1296.278	1012.027
-33.940	19.103	1294.470	1011.169
-32.925	19.147	1293.507	1010.636
-31.911	19.140	1292.134	1009.484
-30.896	19.017	1291.046	1007.871
-29.881	19.135	1289.413	1007.244
-28.867	19.127	1287.606	1005.746
-27.852	19.085	1286.366	1004.494
-26.838	19.242	1284.457	1003.876
-25.823	19.270	1283.289	1003.089
-24.809	19.031	1282.249	1000.849
-23.794	19.024	1280.926	999.732
-22.779	19.084	1279.932	999.268
-21.765	19.105	1278.660	998.355
-20.750	19.121	1277.078	997.175
-19.736	19.106	1275.842	996.079
-18.721	19.071	1274.133	994.502
-17.706	19.049	1273.328	993.712
-16.692	19.041	1272.347	992.861
-15.677	18.990	1271.279	991.692
-14.663	18.905	1270.154	990.286
-13.648	18.864	1269.416	989.435
-12.633	18.939	1267.857	988.612
-11.619	18.968	1267.297	988.302
-10.604	19.001	1266.274	987.658
-9.590	18.943	1265.256	986.490
-8.575	19.011	1264.732	986.432
-7.560	18.876	1263.924	984.988
-6.546	19.026	1262.969	985.064
-5.531	19.009	1261.781	984.003
-4.517	19.038	1260.839	983.394
-3.502	19.044	1260.239	982.918
-2.487	19.160	1259.023	982.597
-1.473	18.994	1254.897	978.392
-0.458	17.337	1239.944	957.373
0.556	12.960	1224.521	920.913
1.571	9.495	1232.458	907.302
2.586	8.965	1247.955	915.601
3.600	9.296	1234.910	907.819
4.615	7.004	1164.169	843.530
5.629	2.671	1096.647	772.729
6.644	0.682	1080.940	751.707
7.659	0.578	1079.354	750.020
8.673	0.487	1078.427	748.859
9.688	0.504	1077.470	748.214
10.702	0.615	1074.194	746.422
11.717	3.407	1076.017	761.429
12.731	9.228	1084.657	796.394
13.746	14.936	1092.188	830.264
14.761	17.029	1094.778	842.561
15.775	16.352	1093.911	838.460
16.790	15.363	1091.939	831.968
17.804	14.894	1089.835	827.972
18.819	14.378	1088.654	824.448
19.834	14.215	1088.054	823.117
20.848	14.078	1086.564	821.236
21.863	13.879	1086.039	819.788
22.877	13.766	1084.968	818.350
23.892	13.568	1084.337	816.826
24.907	13.623	1083.638	816.498
25.921	13.625	1083.298	816.177
26.936	13.699	1081.989	815.481
27.950	13.623	1081.419	814.609
28.965	13.723	1079.870	813.861
29.980	13.742	1078.479	812.832
30.994	13.798	1077.707	812.452
32.009	13.780	1076.754	811.573
33.023	13.844	1075.270	810.698
34.038	13.795	1074.745	809.990
35.053	13.730	1073.859	808.935
36.067	13.741	1072.789	808.109
37.082	13.818	1071.813	807.679
38.096	13.775	1071.508	807.168
39.111	13.926	1069.937	806.647
40.126	13.623	1069.266	804.599
41.140	13.637	1068.401	803.942
42.155	13.497	1067.269	802.343
43.169	13.606	1065.557	801.513
44.184	13.661	1064.534	800.934
45.199	13.484	1064.242	799.791
46.213	13.714	1062.652	799.633
47.228	13.614	1061.966	798.568
48.242	13.663	1060.806	797.857
49.257	13.666	1059.608	796.903
50.271	13.664	1058.921	796.303
51.286	13.677	1058.018	795.620
52.301	13.699	1056.542	794.544
53.315	13.762	1055.671	794.121
54.330	13.577	1054.739	792.464
55.344	13.611	1054.158	792.118
56.359	13.641	1052.692	791.090
57.374	13.578	1052.245	790.383
58.388	13.511	1051.523	789.453
59.403	13.576	1050.789	789.140
60.417	13.604	1049.746	788.423
61.432	13.550	1049.204	787.687
62.447	13.630	1048.134	787.195
63.461	13.547	1047.041	785.909
64.476	13.499	1046.142	784.940
65.490	13.554	1045.522	784.663
66.505	13.605	1044.861	784.341
67.520	13.543	1044.290	783.550
68.534	13.496	1043.694	782.812
69.549	13.527	1042.696	782.137
70.563	13.447	1042.107	781.250
71.578	13.563	1041.186	781.036
72.593	13.510	1040.545	780.238
73.607	13.436	1040.017	779.423
74.622	13.482	1038.868	778.710
75.636	13.390	1038.415	777.869
76.651	13.510	1037.417	777.616
77.666	13.530	1036.760	777.149
78.680	13.474	1036.317	776.489
79.695	13.493	1035.483	775.882
80.709	13.485	1035.235	775.591
81.724	13.595	1034.244	775.296
82.739	13.587	1033.292	774.472
83.753	13.690	1032.359	774.186
84.768	13.813	1031.453	774.012
85.782	13.734	1030.438	772.816
86.797	13.835	1029.563	772.559
87.812	13.658	1028.635	770.974
88.826	13.678	1027.649	770.255
89.841	13.729	1026.636	769.667
90.855	13.814	1025.757	769.332
91.870	13.873	1025.236	769.148
92.884	13.814	1024.409	768.188
93.899	13.857	1023.710	767.795
94.914	13.882	1022.497	766.931
95.928	13.764	1022.048	765.981
96.943	13.812	1020.832	765.223
97.957	13.779	1020.126	764.477
98.972	13.717	1018.975	763.258
99.987	13.776	1018.375	763.016
101.001	13.801	1017.052	762.072
102.016	13.853	1016.468	761.805
103.030	13.787	1015.796	760.932
104.045	13.737	1015.150	760.150
105.060	13.856	1013.804	759.621
106.074	13.681	1013.412	758.457
107.089	13.560	1012.749	757.344
108.103	13.684	1011.645	757.016
109.118	13.697	1010.616	756.237
110.133	13.721	1009.420	755.386
111.147	13.672	1008.421	754.349
112.162	13.705	1007.681	753.877
113.176	13.677	1007.224	753.340
114.191	13.763	1006.574	753.180
115.206	13.772	1005.146	752.086
116.220	13.678	1004.730	751.280
117.235	13.751	1003.828	750.871
118.249	13.659	1002.948	749.729
119.264	13.916	1001.707	749.895
120.279	13.713	1001.296	748.606
121.293	13.741	1000.475	748.051
122.308	13.696	999.609	747.135
123.322	13.744	998.500	746.457
124.337	13.623	997.284	744.936
125.352	13.699	996.119	744.344
126.366	13.647	995.518	743.597
127.381	13.685	994.168	742.692
128.395	13.727	993.448	742.275
129.410	13.701	992.387	741.303
130.424	13.618	992.087	740.640
131.439	13.725	990.695	740.014
132.454	13.671	990.376	739.469
133.468	13.695	989.536	738.881
134.483	13.665	988.803	738.137
135.497	13.611	987.734	737.032
136.512	13.655	986.783	736.455
137.527	13.727	985.957	736.090
138.541	13.697	985.193	735.323
139.556	13.885	984.159	735.319
140.570	13.875	983.730	734.890
141.585	13.796	983.101	734.007
142.600	13.938	982.299	733.970
143.614	13.878	981.066	732.719
144.629	14.022	980.137	732.595
145.643	13.938	979.272	731.512
146.658	13.866	978.462	730.526
147.673	13.831	977.537	729.618
148.687	13.883	976.849	729.265
149.702	13.837	975.683	728.130
150.716	13.886	975.045	727.806
151.731	13.910	974.313	727.297
152.746	13.868	973.877	726.727
153.760	14.016	973.077	726.712
154.775	13.904	972.892	726.019
155.789	13.929	971.819	725.264
156.804	14.084	970.645	724.999
157.819	14.092	970.110	724.568
158.833	14.066	969.585	724.001
159.848	14.130	968.549	723.440
160.862	14.082	968.379	723.041
161.877	14.008	967.354	721.892
162.892	14.041	966.085	721.025
163.906	13.971	965.321	720.087
164.921	13.924	964.898	719.501
165.935	14.058	963.612	719.059
166.950	14.124	962.712	718.611
167.964	14.017	961.719	717.345
168.979	14.014	960.903	716.657
169.994	14.094	960.097	716.337
171.008	14.177	959.087	715.880
172.023	14.189	958.320	715.296
173.037	14.081	957.819	714.395
174.052	14.207	956.931	714.208
175.067	13.958	957.057	713.170
176.081	14.018	956.177	712.710
177.096	14.121	955.132	712.306
178.110	14.230	954.742	712.422
179.125	14.138	954.300	711.636
180.140	14.180	953.357	711.047
181.154	14.163	953.305	710.875
182.169	14.386	952.405	711.091
183.183	14.346	951.402	710.107
184.198	14.334	950.706	709.473
185.213	14.249	950.372	708.804
186.227	14.395	949.537	708.735
187.242	14.351	949.315	708.323
188.256	14.380	948.514	707.786
189.271	14.300	947.969	706.977
190.286	14.268	946.756	705.874
191.300	14.091	946.466	704.842
192.315	14.354	945.358	705.068
193.329	14.209	945.461	704.472
194.344	14.289	944.549	704.068
195.359	14.331	943.807	703.627
196.373	14.255	943.280	702.853
197.388	14.453	942.142	702.776
198.402	14.517	941.721	702.672
199.417	14.520	941.089	702.151
200.432	14.534	940.691	701.851
201.446	14.555	940.260	701.553
202.461	14.481	939.793	700.833
203.475	14.532	939.067	700.443
204.490	14.606	938.522	700.286
205.504	14.503	937.605	699.108
206.519	14.681	936.716	699.128
207.534	14.515	936.545	698.243
208.548	14.484	935.971	697.625
209.563	14.602	935.184	697.468
210.577	14.617	933.833	696.461
211.592	14.754	933.567	696.774
212.607	14.759	932.346	695.821
213.621	14.623	932.015	694.945
214.636	14.894	931.086	695.320
215.650	14.726	930.252	693.937
216.665	14.740	929.636	693.474
217.680	14.825	928.816	693.155
218.694	14.894	928.025	692.787
219.709	14.787	927.860	692.161
220.723	14.964	926.570	691.871
221.738	14.906	925.997	691.143
222.753	14.829	925.692	690.535
223.767	14.911	925.184	690.432
224.782	14.962	924.685	690.208
225.796	14.945	923.904	689.496
226.811	14.832	923.404	688.595
227.826	14.834	922.859	688.135
228.840	15.054	921.354	687.859
229.855	14.969	920.737	686.988
230.869	14.739	920.433	685.753
231.884	15.008	919.409	686.036
232.899	14.858	918.806	684.910
233.913	14.912	918.427	684.786
234.928	14.895	917.509	683.973
235.942	14.803	917.014	683.165
236.957	14.892	916.543	683.117
237.972	14.973	915.645	682.718
238.986	15.117	914.465	682.368
240.001	14.878	914.534	681.386
241.015	14.875	913.911	680.846
242.030	14.968	913.258	680.681
243.045	15.112	912.839	680.894
244.059	14.920	912.019	679.439
245.074	14.972	911.474	679.184
246.088	15.195	910.539	679.333
247.103	15.204	910.046	678.940
248.117	15.243	909.151	678.371
249.132	15.243	908.652	677.940
250.147	15.321	908.426	678.027
251.161	15.358	907.456	677.391
252.176	15.318	906.851	676.717
253.190	15.399	906.209	676.506
254.205	15.456	905.681	676.282
255.220	15.297	904.505	674.702
256.234	15.417	904.224	674.916
257.249	15.373	903.447	674.101
258.263	15.487	902.555	673.832
259.278	15.357	901.851	672.728
260.293	15.436	901.539	672.751
261.307	15.410	901.029	672.208
262.322	15.394	900.641	671.794
263.336	15.558	899.358	671.431
264.351	15.568	898.573	670.826
265.366	15.682	897.997	670.794
266.380	15.588	897.129	669.710
267.395	15.602	896.620	669.329
268.409	15.843	895.403	669.316
269.424	15.583	895.288	668.138
270.439	15.532	894.504	667.294
271.453	15.552	894.118	667.024
272.468	15.657	893.256	666.738
273.482	15.528	892.839	665.858
274.497	15.763	891.671	665.858
275.512	15.594	891.583	665.063
276.526	15.651	891.403	665.098
277.541	15.730	890.121	664.395
278.555	15.669	889.692	663.773
279.570	15.829	889.289	664.045
280.585	15.840	888.617	663.527
281.599	15.872	887.262	662.584
282.614	15.755	886.984	661.856
283.628	15.792	886.331	661.455
284.643	15.728	886.163	661.020
285.657	15.825	885.489	660.840
286.672	15.874	884.792	660.454
287.687	15.854	883.844	659.610
288.701	15.946	883.214	659.441
289.716	16.025	882.738	659.336
290.730	15.899	882.341	658.489
291.745	15.952	881.661	658.131
292.760	15.982	880.814	657.559
293.774	16.101	880.110	657.438
294.789	15.983	879.596	656.538
295.803	16.066	878.702	656.132
296.818	15.984	878.086	655.295
297.833	16.123	877.249	655.155
298.847	16.145	876.783	654.833
299.862	16.045	876.502	654.175
300.876	16.104	875.744	653.782
301.891	16.095	875.610	653.588
302.906	16.237	874.737	653.430
303.920	16.264	873.959	652.896
304.935	16.209	873.735	652.460
305.949	16.182	873.411	652.053
306.964	16.297	872.515	651.772
307.979	16.395	871.505	651.336
308.993	16.207	871.230	650.348
310.008	16.334	870.366	650.137
311.022	16.273	870.099	649.644
312.037	16.257	869.725	649.246
313.052	16.271	868.768	648.528
314.066	16.301	868.478	648.370
315.081	16.305	867.799	647.819
316.095	16.369	866.973	647.391
317.110	16.308	866.570	646.799
318.125	16.142	866.406	645.985
319.139	16.289	865.363	645.709
320.154	16.443	865.124	646.067
321.168	16.272	864.769	645.090
322.183	16.315	863.966	644.598
323.197	16.360	863.768	644.563
324.212	16.344	863.056	643.917
325.227	16.411	862.320	643.563
326.241	16.544	861.274	643.232
327.256	16.341	861.382	642.485
328.270	16.408	860.694	642.169
329.285	16.392	859.996	641.530
330.300	16.587	859.307	641.698
331.314	16.459	858.993	640.922
332.329	16.404	858.647	640.398
333.343	16.611	857.818	640.506
334.358	16.620	857.606	640.326
335.373	16.509	857.091	639.467
336.387	16.564	856.927	639.496
337.402	16.706	856.573	639.711
338.416	16.666	855.837	638.952
339.431	16.669	855.860	638.926
340.446	16.637	855.560	638.524
341.460	16.615	855.264	638.162
342.475	16.758	854.462	638.047
343.489	16.895	853.700	637.936
344.504	16.755	853.448	637.166
345.519	16.837	853.492	637.452
346.533	16.874	852.604	636.872
347.548	16.919	852.265	636.730
348.562	16.710	851.301	635.169
349.577	16.859	850.825	635.315
350.592	16.737	850.252	634.376
351.606	16.796	849.416	633.917
352.621	17.022	848.868	634.298
353.635	16.780	848.381	632.973
354.650	16.975	847.407	632.917
355.665	16.800	847.041	631.933
356.679	16.758	846.790	631.535
357.694	16.851	845.310	630.723
358.708	16.930	844.928	630.677
359.723	16.868	844.802	630.295
360.738	17.047	843.771	630.135
361.752	17.099	843.130	629.792
362.767	17.126	842.639	629.469
363.781	17.104	841.891	628.776
364.796	17.179	841.326	628.573
365.810	17.302	841.131	628.829
366.825	17.138	841.136	628.169
367.840	17.136	840.575	627.686
368.854	17.152	839.753	627.078
369.869	17.182	839.418	626.881
370.883	17.293	838.929	626.870
371.898	17.224	838.647	626.351
372.913	17.342	838.394	626.541
373.927	17.290	837.895	625.921
374.942	17.203	837.347	625.134
375.956	17.308	836.709	624.989
376.971	17.405	836.397	625.057
377.986	17.509	835.725	624.884
379.000	17.507	835.328	624.525
380.015	17.384	835.092	623.841
381.029	17.375	834.453	623.276
382.044	17.388	833.791	622.774
383.059	17.612	832.878	622.857
384.073	17.403	832.733	621.927
385.088	17.368	832.227	621.366
386.102	17.497	831.588	621.305
387.117	17.539	830.764	620.788
388.132	17.513	830.437	620.393
389.146	17.577	829.821	620.112
390.161	17.548	829.231	619.511
391.175	17.809	828.557	619.901
392.190	17.553	828.019	618.515
393.205	17.620	827.825	618.557
394.219	17.550	827.609	618.086
395.234	17.515	827.199	617.601
396.248	17.497	826.682	617.092
397.263	17.381	826.485	616.473
398.278	17.493	826.212	616.620
399.292	17.581	825.508	616.356
400.307	17.634	825.001	616.116
401.321	17.589	824.310	615.383
402.336	17.588	823.974	615.074
403.350	17.630	823.498	614.816
404.365	17.720	823.161	614.833
405.380	17.781	822.649	614.616
406.394	17.773	821.930	613.996
407.409	17.724	821.377	613.354
408.423	17.734	821.540	613.456
409.438	17.814	821.087	613.353
410.453	17.917	820.516	613.242
411.467	18.055	819.533	612.946
412.482	17.826	819.752	612.235
413.496	17.951	819.130	612.165
414.511	17.801	819.165	611.598
415.526	17.964	818.434	611.580
416.540	17.967	817.907	611.145
417.555	18.016	817.288	610.804
418.569	17.924	817.103	610.283
419.584	17.894	816.835	609.922
420.599	18.038	816.009	609.766
421.613	116.266	1300.827	1493.934
422.628	100.793	1371.424	1493.984
