DTS Sentinel unit serial number:	SN413079Multiplexer serial number:	ORYXHardware model number:	OX4-SRSoftware version number:	ORYX F/W v4.00 Oryx Data Collector v3.7.2.0data status	okinstallation	princeton_trtdifferential loss correction	single-endedforward channel	channel 1reverse channel	N/Adate	2019/09/10time	20:40:11forward acquisition time	60.00reverse acquisition time	0.00gamma	496.2192k internal	0.2327k external	0.2327temperature offset calibration	0.9937default loss term (dB/km)	0.3790temperature slope calibration	1.0000multiplexer offset coefficient	1.0000multiplexer slope coefficient	1.0000fibre end	0.00T internal ref (°C)	31.89T ext. ref 1 (°C)	-0.30T ext. ref 2 (°C)	25.24length (m)	temperature (°C)	Stokes	anti-Stokes-747.200	49.212	-0.159	-0.151
-746.185	481.385	0.135	0.310
-745.171	157.336	-0.214	-0.299
-744.156	-58.360	-0.477	0.209
-743.142	16.273	-0.347	0.276
-742.127	528.553	0.049	0.116
-741.112	357.662	-0.153	-0.308
-740.098	-200.000	-0.004	0.173
-739.083	800.000	-0.043	0.169
-738.069	36.384	-0.252	-0.224
-737.054	-114.520	0.297	-0.057
-736.039	-74.089	-0.257	-0.094
-735.025	114.154	0.179	-0.220
-734.010	79.031	0.128	-0.138
-732.996	-62.871	-0.339	0.142
-731.981	-59.417	-0.198	-0.086
-730.966	-200.000	0.006	-0.128
-729.952	-176.253	-0.382	0.010
-728.937	210.733	-0.131	0.207
-727.923	69.220	0.226	-0.234
-726.908	-148.942	-0.175	0.014
-725.894	-200.000	0.031	-0.241
-724.879	-200.000	-0.072	-0.325
-723.864	-105.241	-0.400	0.092
-722.850	286.867	0.069	0.126
-721.835	68.844	-0.042	-0.044
-720.821	26.010	-0.263	-0.221
-719.806	-68.396	-0.157	-0.062
-718.791	800.000	0.040	-0.142
-717.777	-200.000	-0.054	0.247
-716.762	-156.100	-0.104	-0.007
-715.748	-200.000	-0.001	0.260
-714.733	-200.000	0.013	0.260
-713.718	-200.000	0.002	-0.085
-712.704	-200.000	-0.053	-0.275
-711.689	171.067	-0.118	0.170
-710.675	-57.037	-0.406	0.180
-709.660	-103.261	-0.273	-0.065
-708.645	105.123	0.085	-0.101
-707.631	800.000	-0.060	-0.206
-706.616	800.000	-0.059	0.192
-705.602	37.064	-0.266	-0.237
-704.587	800.000	-0.061	0.205
-703.572	-200.000	0.083	0.431
-702.558	800.000	-0.036	0.114
-701.543	122.358	-0.155	-0.195
-700.529	-65.654	0.282	-0.114
-699.514	213.051	0.209	-0.332
-698.499	800.000	-0.086	-0.258
-697.485	-31.175	0.273	0.155
-696.470	-200.000	0.004	-0.086
-695.456	-200.000	-0.008	-0.284
-694.441	-105.000	-0.250	-0.058
-693.426	-200.000	0.072	0.498
-692.412	-188.341	-0.346	0.004
-691.397	-200.000	0.006	-0.129
-690.383	800.000	-0.068	-0.193
-689.368	34.507	-0.175	-0.154
-688.354	-200.000	-0.012	0.412
-687.339	-182.020	-0.534	-0.010
-686.324	7.369	0.377	-0.283
-685.310	-200.000	-0.004	-0.163
-684.295	21.770	0.088	0.072
-683.281	116.488	0.280	-0.346
-682.266	-200.000	0.028	-0.156
-681.251	125.122	-0.139	-0.176
-680.237	327.902	-0.122	0.235
-679.222	332.789	0.066	-0.128
-678.208	-76.751	0.403	0.142
-677.193	395.412	-0.145	0.303
-676.178	82.544	0.217	0.237
-675.164	-200.000	-0.065	-0.347
-674.149	-107.944	0.308	-0.067
-673.135	-31.043	0.279	0.158
-672.120	255.304	0.102	0.175
-671.105	-149.479	-0.471	0.038
-670.091	800.000	0.051	-0.144
-669.076	800.000	0.007	-0.028
-668.062	159.788	-0.142	0.199
-667.047	246.459	0.126	0.214
-666.032	-68.352	-0.187	-0.073
-665.018	161.740	0.116	0.164
-664.003	800.000	0.082	0.327
-662.989	68.807	0.189	0.195
-661.974	46.976	0.095	0.089
-660.959	-200.000	0.001	0.114
-659.945	-149.281	-0.092	-0.007
-658.930	-25.342	0.213	0.127
-657.916	166.142	0.135	0.192
-656.901	613.379	0.131	-0.331
-655.886	800.000	-0.093	0.323
-654.872	-200.000	0.032	-0.354
-653.857	44.008	0.286	-0.264
-652.843	-110.509	-0.191	0.040
-651.828	468.678	-0.110	0.248
-650.814	16.270	-0.248	-0.196
-649.799	-59.260	0.126	0.054
-648.784	91.424	-0.101	-0.113
-647.770	209.481	-0.210	0.330
-646.755	-200.000	0.018	0.140
-645.741	-200.000	-0.031	0.344
-644.726	436.738	-0.176	-0.384
-643.711	70.059	0.086	0.089
-642.697	-76.391	-0.254	-0.090
-641.682	800.000	-0.060	-0.183
-640.668	279.201	-0.069	0.123
-639.653	-3.154	-0.181	-0.127
-638.638	91.075	-0.077	0.086
-637.624	329.375	-0.027	0.052
-636.609	-200.000	0.054	0.296
-635.595	-200.000	-0.071	0.378
-634.580	257.219	-0.098	-0.170
-633.565	692.971	-0.190	-0.501
-632.551	49.464	0.233	-0.220
-631.536	75.439	0.121	-0.128
-630.522	800.000	-0.042	-0.139
-629.507	30.788	0.299	-0.257
-628.492	-44.431	-0.224	0.113
-627.478	800.000	0.066	0.226
-626.463	106.995	0.233	0.277
-625.449	-48.816	-0.404	0.195
-624.434	262.635	-0.112	0.194
-623.419	-104.447	0.158	0.037
-622.405	49.602	0.204	0.193
-621.390	-151.260	0.070	0.005
-620.376	593.032	-0.046	-0.115
-619.361	75.624	-0.180	0.190
-618.346	182.785	-0.038	-0.056
-617.332	117.817	0.290	-0.358
-616.317	-166.676	-0.156	0.006
-615.303	251.904	0.181	0.310
-614.288	-62.642	0.286	0.119
-613.273	-200.000	0.017	0.094
-612.259	-126.407	0.089	0.013
-611.244	-165.020	-0.131	-0.006
-610.230	84.772	-0.059	0.065
-609.215	24.739	-0.203	0.169
-608.201	-138.479	-0.171	0.019
-607.186	-200.000	0.047	0.388
-606.171	41.981	0.116	0.106
-605.157	-85.094	0.456	-0.143
-604.142	-145.259	0.058	0.005
-603.128	272.368	-0.046	0.081
-602.113	-95.992	-0.198	-0.053
-601.098	54.614	-0.204	-0.197
-600.084	85.241	-0.193	-0.212
-599.069	-3.545	0.198	-0.138
-598.055	-143.199	0.174	0.017
-597.040	800.000	0.113	0.315
-596.025	-200.000	0.048	0.342
-595.011	53.915	-0.101	0.097
-593.996	262.603	-0.034	-0.058
-592.982	-92.127	0.296	0.084
-591.967	-48.719	0.335	-0.161
-590.952	3.367	-0.245	0.179
-589.938	-61.665	0.288	-0.121
-588.923	497.956	-0.032	0.074
-587.909	-140.305	-0.510	-0.053
-586.894	103.371	-0.241	0.283
-585.879	116.615	0.180	0.221
-584.865	-200.000	0.004	0.191
-583.850	-200.000	0.051	0.280
-582.836	-96.910	0.298	0.078
-581.821	498.934	-0.049	0.113
-580.806	-93.767	-0.089	-0.025
-579.792	-114.129	-0.302	-0.058
-578.777	-37.633	0.379	0.202
-577.763	800.000	-0.068	-0.268
-576.748	-102.114	-0.116	-0.028
-575.733	-38.232	0.129	-0.068
-574.719	-119.152	0.179	0.031
-573.704	-84.072	0.325	-0.103
-572.690	554.690	0.039	0.093
-571.675	224.980	-0.138	0.224
-570.661	16.031	0.070	-0.055
-569.646	-200.000	-0.072	0.401
-568.631	9.590	-0.076	-0.058
-567.617	-41.704	0.224	-0.115
-566.602	-200.000	-0.028	-0.155
-565.588	-57.794	0.160	0.070
-564.573	-125.677	0.150	0.023
-563.558	-61.189	-0.158	0.067
-562.544	-200.000	0.008	0.180
-561.529	33.644	0.092	0.080
-560.515	699.838	0.070	0.184
-559.500	-8.747	-0.149	0.100
-558.485	-200.000	-0.052	-0.534
-557.471	-69.672	-0.135	-0.052
-556.456	616.376	-0.077	-0.194
-555.442	15.570	0.107	0.085
-554.427	28.441	-0.217	-0.184
-553.412	326.773	0.022	0.042
-552.398	315.175	-0.074	-0.139
-551.383	-100.566	0.117	0.029
-550.369	218.579	0.204	0.326
-549.354	800.000	-0.133	-0.417
-548.339	-21.760	-0.137	-0.083
-547.325	443.505	0.034	-0.075
-546.310	-142.122	-0.056	-0.006
-545.296	56.642	-0.167	0.162
-544.281	-125.163	0.169	-0.026
-543.266	277.844	0.065	-0.115
-542.252	86.420	0.247	-0.272
-541.237	45.804	-0.041	0.038
-540.223	-140.545	0.098	-0.010
-539.208	-200.000	0.033	-0.221
-538.193	-200.000	-0.010	0.061
-537.179	94.901	0.174	0.198
-536.164	24.546	-0.270	-0.224
-535.150	800.000	0.098	0.295
-534.135	-146.560	0.109	-0.009
-533.121	164.676	0.169	-0.239
-532.106	-154.660	0.169	-0.011
-531.091	-75.926	-0.149	0.053
-530.077	162.009	-0.141	0.198
-529.062	300.969	-0.124	0.230
-528.048	89.712	0.116	0.129
-527.033	184.439	0.160	-0.237
-526.018	-114.286	-0.228	0.044
-525.004	-122.403	0.034	0.006
-523.989	-200.000	0.052	0.291
-522.975	-82.534	0.202	0.065
-521.960	-200.000	0.034	0.209
-520.945	248.328	-0.182	-0.307
-519.931	-200.000	-0.007	0.102
-518.916	-92.892	-0.248	0.069
-517.902	-102.426	0.297	-0.071
-516.887	69.052	0.094	-0.096
-515.872	-38.493	0.277	0.147
-514.858	-51.066	0.471	-0.221
-513.843	150.565	0.156	0.212
-512.829	-18.271	-0.145	-0.091
-511.814	104.571	-0.213	0.250
-510.799	132.117	-0.116	-0.149
-509.785	152.809	-0.157	-0.215
-508.770	491.332	0.138	-0.316
-507.756	-200.000	-0.301	0.000
-506.741	-109.119	0.289	-0.061
-505.726	-38.308	0.122	-0.065
-504.712	270.396	-0.146	-0.256
-503.697	-200.000	0.029	-0.424
-502.683	12.311	-0.080	-0.062
-501.668	-68.948	0.111	0.043
-500.653	-200.000	0.025	0.197
-499.639	247.458	0.187	-0.315
-498.624	-147.365	-0.236	-0.020
-497.610	-200.000	0.084	0.376
-496.595	33.398	-0.171	0.148
-495.581	106.313	-0.268	-0.317
-494.566	-200.000	-0.016	0.104
-493.551	-122.169	-0.238	0.039
-492.537	-5.037	-0.278	-0.191
-491.522	800.000	-0.039	-0.136
-490.508	-100.656	0.117	0.029
-489.493	-17.500	0.171	0.108
-488.478	184.126	0.156	-0.231
-487.464	-200.000	-0.027	-0.236
-486.449	58.301	-0.158	0.155
-485.435	-65.403	-0.134	0.054
-484.420	99.760	0.111	0.128
-483.405	98.131	0.257	0.295
-482.391	-85.751	0.078	-0.024
-481.376	-117.429	0.305	0.055
-480.362	57.285	-0.279	-0.272
-479.347	-3.463	-0.274	-0.190
-478.332	204.167	-0.117	-0.181
-477.318	-200.000	-0.014	-0.063
-476.303	-37.856	-0.280	-0.149
-475.289	-200.000	-0.033	0.182
-474.274	-61.051	0.480	-0.202
-473.259	218.831	-0.102	-0.163
-472.245	0.720	-0.180	-0.129
-471.230	-174.381	-0.240	-0.007
-470.216	-171.038	0.209	0.007
-469.201	-118.820	-0.460	0.081
-468.186	800.000	0.032	-0.113
-467.172	-66.754	-0.261	-0.103
-466.157	-200.000	-0.039	0.449
-465.143	95.196	0.118	-0.134
-464.128	800.000	0.103	-0.284
-463.113	-110.006	-0.234	0.049
-462.099	-0.898	0.094	-0.066
-461.084	800.000	-0.080	0.248
-460.070	294.663	0.102	0.187
-459.055	-35.601	0.305	-0.165
-458.040	-102.355	0.107	0.026
-457.026	-77.781	0.151	-0.052
-456.011	-123.112	0.294	0.047
-454.997	-200.000	0.058	0.304
-453.982	13.700	-0.138	-0.107
-452.968	-200.000	-0.119	0.618
-451.953	-75.096	-0.153	-0.054
-450.938	-10.727	-0.186	0.122
-449.924	577.682	0.069	0.168
-448.909	156.085	0.172	-0.236
-447.895	-200.000	-0.017	0.138
-446.880	-48.230	0.222	-0.107
-445.865	-3.717	-0.233	0.161
-444.851	132.710	-0.093	0.119
-443.836	-200.000	-0.002	0.149
-442.822	193.262	0.100	0.151
-441.807	-102.330	-0.114	0.027
-440.792	800.000	0.112	0.443
-439.778	-167.404	0.196	0.008
-438.763	191.880	-0.177	-0.266
-437.749	800.000	-0.095	0.357
-436.734	-127.426	0.210	0.030
-435.719	-136.610	-0.175	0.020
-434.705	700.773	-0.102	0.268
-433.690	332.961	0.034	-0.066
-432.676	401.183	0.029	0.060
-431.661	107.067	0.286	0.338
-430.646	-80.341	-0.084	-0.028
-429.632	-200.000	-0.005	-0.205
-428.617	-129.935	-0.338	0.046
-427.603	-146.336	-0.173	0.015
-426.588	42.117	0.153	-0.138
-425.573	-106.768	0.153	-0.034
-424.559	-200.000	0.065	-0.375
-423.544	800.000	0.076	-0.213
-422.530	-191.338	0.037	-0.000
-421.515	-200.000	-0.012	0.063
-420.500	-77.606	0.182	0.063
-419.486	-200.000	-0.015	-0.090
-418.471	-123.173	0.060	-0.010
-417.457	-23.597	0.288	0.172
-416.442	110.324	-0.204	0.244
-415.428	-200.000	-0.009	0.054
-414.413	-200.000	0.024	-0.223
-413.398	210.611	0.131	0.204
-412.384	-24.431	-0.422	-0.250
-411.369	-104.426	-0.277	-0.064
-410.355	-200.000	0.002	-0.141
-409.340	-33.189	-0.077	-0.042
-408.325	-66.133	-0.156	0.062
-407.311	-137.383	0.221	0.025
-406.296	-200.000	0.017	-0.497
-405.282	146.517	-0.066	0.089
-404.267	-105.935	0.287	-0.064
-403.252	-113.984	-0.201	-0.039
-402.238	48.114	-0.108	-0.101
-401.223	337.742	-0.078	0.151
-400.209	-200.000	0.003	0.178
-399.194	-173.623	0.286	-0.009
-398.179	-150.360	0.137	-0.010
-397.165	720.510	0.076	0.202
-396.150	800.000	-0.064	0.179
-395.136	-5.428	0.115	-0.078
-394.121	-85.556	-0.309	0.096
-393.106	-200.000	-0.038	0.204
-392.092	-200.000	0.010	0.144
-391.077	-27.373	-0.300	0.174
-390.063	512.857	0.190	-0.439
-389.048	-128.950	-0.113	0.016
-388.033	373.399	0.079	-0.159
-387.019	800.000	0.135	-0.371
-386.004	800.000	-0.056	-0.163
-384.990	-125.918	-0.486	0.073
-383.975	-79.345	0.218	0.073
-382.960	431.577	0.138	-0.297
-381.946	135.741	0.068	0.088
-380.931	442.194	0.152	0.330
-379.917	-161.116	-0.408	0.021
-378.902	286.081	0.255	0.457
-377.888	-175.744	-0.120	0.003
-376.873	700.507	0.045	0.117
-375.858	-4.314	0.292	-0.201
-374.844	-190.525	-0.120	0.001
-373.829	-5.269	0.161	-0.110
-372.815	-4.127	0.260	0.179
-371.800	199.761	-0.056	0.086
-370.785	-38.840	0.082	0.043
-369.771	800.000	-0.119	-0.452
-368.756	-172.398	-0.227	-0.007
-367.742	-200.000	-0.020	-0.143
-366.727	33.987	0.073	0.064
-365.712	-154.106	0.275	0.019
-364.698	291.201	0.056	-0.100
-363.683	475.726	-0.093	0.208
-362.669	202.240	-0.168	-0.258
-361.654	-15.400	-0.196	-0.124
-360.639	-200.000	0.001	0.163
-359.625	-200.000	-0.025	-0.132
-358.610	252.824	0.141	-0.239
-357.596	-200.000	-0.085	0.504
-356.581	-114.260	-0.319	0.061
-355.566	19.537	0.153	0.122
-354.552	109.963	-0.226	0.269
-353.537	113.558	-0.028	0.034
-352.523	800.000	0.084	-0.310
-351.508	139.146	-0.113	0.147
-350.493	-41.294	0.115	0.059
-349.479	800.000	-0.056	0.172
-348.464	-79.196	0.110	-0.037
-347.450	-151.234	0.205	0.015
-346.435	-200.000	-0.002	-0.036
-345.420	-98.368	0.256	0.065
-344.406	-200.000	-0.066	0.293
-343.391	329.984	0.035	0.067
-342.377	-40.423	0.138	0.071
-341.362	800.000	-0.048	0.161
-340.348	110.839	0.149	-0.178
-339.333	-91.291	0.339	0.096
-338.318	-79.282	0.250	-0.084
-337.304	-103.733	0.353	-0.082
-336.289	-179.422	-0.039	0.001
-335.275	580.432	0.097	-0.235
-334.260	406.243	-0.078	0.164
-333.245	-115.001	0.119	0.023
-332.231	183.790	-0.091	-0.133
-331.216	-32.990	0.224	0.124
-330.202	-69.232	-0.162	0.062
-329.187	11.015	-0.131	-0.100
-328.172	-200.000	0.264	0.001
-327.158	148.761	0.214	0.287
-326.143	-59.372	0.299	-0.128
-325.129	800.000	0.053	0.153
-324.114	-49.413	-0.411	-0.194
-323.099	204.753	-0.110	-0.169
-322.085	-58.183	0.387	0.167
-321.070	-33.904	-0.145	0.079
-320.056	93.613	0.139	-0.156
-319.041	90.680	-0.064	-0.072
-318.026	-200.000	0.008	0.200
-317.012	-54.845	-0.210	-0.094
-315.997	62.274	0.239	-0.236
-314.983	17.952	-0.162	0.128
-313.968	649.400	0.115	0.292
-312.953	226.746	0.072	0.115
-311.939	800.000	0.031	0.132
-310.924	-200.000	0.052	-0.233
-309.910	178.836	-0.133	-0.193
-308.895	66.849	-0.099	0.100
-307.880	-159.741	-0.494	0.027
-306.866	409.042	-0.045	-0.094
-305.851	-34.575	0.167	-0.090
-304.837	-12.355	0.362	-0.235
-303.822	31.373	0.074	-0.063
-302.807	-34.507	-0.190	0.103
-301.793	-200.000	-0.031	-0.402
-300.778	79.479	-0.026	-0.028
-299.764	570.399	0.070	0.169
-298.749	-50.763	0.047	0.022
-297.735	120.646	-0.068	-0.084
-296.720	-200.000	0.051	-0.246
-295.705	800.000	-0.119	-0.379
-294.691	135.430	0.101	-0.129
-293.676	-37.869	-0.103	0.054
-292.662	-200.000	-0.036	-0.234
-291.647	248.449	0.166	0.278
-290.632	-141.731	-0.255	-0.025
-289.618	-200.000	-0.036	-0.249
-288.603	-200.000	0.069	-0.383
-287.589	-200.000	-0.015	0.171
-286.574	800.000	-0.030	-0.090
-285.559	800.000	0.148	-0.458
-284.545	69.617	0.246	0.251
-283.530	81.668	0.069	-0.073
-282.516	319.442	-0.078	0.147
-281.501	-118.048	0.368	0.065
-280.486	118.936	0.019	-0.023
-279.472	-59.582	-0.209	-0.089
-278.457	-67.073	-0.097	-0.038
-277.443	-19.979	0.077	0.047
-276.428	-59.751	-0.229	0.097
-275.413	751.078	-0.129	0.346
-274.399	-108.454	0.131	-0.028
-273.384	306.631	-0.141	-0.261
-272.370	-119.683	-0.373	-0.064
-271.355	-200.000	-0.016	0.237
-270.340	177.610	-0.172	0.249
-269.326	-2.126	-0.332	-0.231
-268.311	-129.529	0.279	-0.038
-267.297	-200.000	0.010	-0.177
-266.282	88.985	-0.059	-0.065
-265.267	-106.128	-0.474	-0.105
-264.253	-200.000	0.034	-0.210
-263.238	8.858	-0.098	-0.073
-262.224	113.409	0.167	0.200
-261.209	102.588	-0.065	-0.075
-260.195	54.959	-0.172	0.165
-259.180	-200.000	0.024	0.132
-258.165	203.409	-0.178	-0.272
-257.151	53.495	0.246	-0.233
-256.136	-102.899	0.115	0.027
-255.122	-200.000	0.041	-0.276
-254.107	-200.000	-0.016	-0.097
-253.092	142.733	-0.203	0.266
-252.078	-200.000	-0.049	-0.266
-251.063	-144.996	-0.280	0.025
-250.049	-19.319	0.118	0.073
-249.034	-123.265	-0.134	0.021
-248.019	-200.000	-0.026	0.209
-247.005	-85.172	-0.670	0.207
-245.990	-56.209	0.301	-0.132
-244.976	-200.000	-0.029	0.309
-243.961	-200.000	0.059	0.511
-242.946	78.594	-0.103	0.108
-241.932	224.913	0.077	-0.123
-240.917	23.324	0.165	-0.134
-239.903	39.727	-0.198	0.176
-238.888	7.293	0.231	0.171
-237.873	452.437	0.029	-0.064
-236.859	-200.000	-0.016	0.237
-235.844	45.342	-0.185	0.169
-234.830	21.723	0.197	-0.159
-233.815	-152.757	-0.179	0.013
-232.800	450.294	0.107	-0.234
-231.786	146.253	-0.120	0.160
-230.771	12.642	-0.076	0.058
-229.757	268.311	0.107	-0.186
-228.742	288.225	-0.066	-0.118
-227.727	-92.321	-0.212	0.059
-226.713	800.000	0.022	-0.072
-225.698	97.945	-0.066	-0.075
-224.684	48.678	-0.257	0.238
-223.669	8.092	-0.302	-0.224
-222.655	-106.975	-0.268	0.059
-221.640	-200.000	-0.003	-0.068
-220.625	-200.000	0.033	-0.168
-219.611	-98.945	-0.079	-0.020
-218.596	-39.423	0.210	-0.109
-217.582	-200.000	-0.018	-0.135
-216.567	38.942	0.245	-0.216
-215.552	58.221	-0.383	-0.371
-214.538	76.736	-0.203	0.213
-213.523	-3.053	-0.019	-0.013
-212.509	119.058	0.214	-0.261
-211.494	78.963	-0.185	-0.196
-210.479	-200.000	0.004	0.098
-209.465	-78.194	0.281	0.095
-208.450	-39.415	-0.228	-0.118
-207.436	57.894	0.026	0.025
-206.421	-35.884	0.339	0.181
-205.406	-200.000	0.009	-0.081
-204.392	-79.025	0.078	-0.026
-203.377	35.867	0.187	0.162
-202.363	1.331	0.347	0.246
-201.348	121.334	0.047	0.057
-200.333	36.496	0.076	-0.066
-199.319	-72.939	0.058	0.021
-198.304	-3.661	-0.223	-0.153
-197.290	800.000	-0.018	-0.061
-196.275	367.770	0.025	0.050
-195.260	-32.577	-0.170	-0.094
-194.246	347.705	0.062	-0.121
-193.231	80.768	-0.119	0.126
-192.217	231.029	0.079	-0.128
-191.202	-111.269	-0.130	-0.026
-190.187	35.725	-0.075	-0.065
-189.173	480.702	0.176	-0.394
-188.158	-83.410	0.399	-0.126
-187.144	-90.976	0.044	0.012
-186.129	-200.000	0.033	0.168
-185.114	48.859	-0.235	0.218
-184.100	52.664	0.139	-0.131
-183.085	-138.367	0.222	0.024
-182.071	-51.337	0.231	0.106
-181.056	-200.000	0.041	-0.320
-180.042	403.988	-0.090	-0.187
-179.027	-48.471	0.215	0.102
-178.012	140.969	0.192	0.250
-176.998	239.036	0.129	-0.212
-175.983	-89.818	-0.387	0.112
-174.969	-67.557	-0.216	0.083
-173.954	136.985	-0.155	-0.200
-172.939	-49.959	-0.107	-0.050
-171.925	-200.000	-0.009	0.225
-170.910	800.000	-0.092	0.258
-169.896	-84.094	-0.108	0.034
-168.881	-126.894	0.139	0.020
-167.866	-200.000	-0.006	-0.183
-166.852	-200.000	-0.063	0.341
-165.837	481.867	0.095	0.214
-164.823	131.775	-0.209	-0.265
-163.808	-112.279	-0.060	-0.012
-162.793	-87.311	0.091	-0.027
-161.779	37.746	-0.110	-0.096
-160.764	-30.053	0.117	-0.066
-159.750	800.000	0.017	0.066
-158.735	-55.850	0.289	-0.127
-157.720	800.000	0.075	0.235
-156.706	800.000	0.110	-0.306
-155.691	-163.830	-0.272	-0.013
-154.677	336.985	-0.116	-0.223
-153.662	174.421	0.170	-0.242
-152.647	800.000	0.059	-0.168
-151.633	87.806	-0.164	0.179
-150.618	-33.020	-0.308	0.168
-149.604	23.997	0.101	-0.082
-148.589	-11.243	0.341	0.221
-147.574	-3.050	-0.187	-0.129
-146.560	-200.000	0.005	-0.405
-145.545	-150.922	0.236	-0.018
-144.531	-79.541	-0.247	0.082
-143.516	24.461	-0.177	0.144
-142.502	32.470	0.154	0.131
-141.487	-50.983	0.124	0.057
-140.472	-105.859	0.322	-0.072
-139.458	205.483	-0.042	-0.065
-138.443	-62.660	-0.173	-0.071
-137.429	452.361	-0.119	-0.259
-136.414	131.055	0.152	-0.192
-135.399	-110.855	0.240	0.049
-134.385	-200.000	-0.049	0.277
-133.370	-200.000	0.066	0.424
-132.356	387.700	-0.124	0.253
-131.341	-200.000	-0.033	0.296
-130.326	-200.000	0.057	0.370
-129.312	-132.546	0.090	0.011
-128.297	-104.149	0.378	0.086
-127.283	120.746	0.069	-0.085
-126.268	-17.795	-0.218	0.135
-125.253	-200.000	0.032	0.252
-124.239	-41.048	0.230	0.117
-123.224	119.515	-0.117	0.143
-122.210	-200.000	-0.021	-0.345
-121.195	800.000	0.086	0.241
-120.180	151.553	0.140	0.188
-119.166	-200.000	-0.003	0.571
-118.151	182.589	-0.069	-0.100
-117.137	-86.126	-0.230	-0.070
-116.122	63.789	0.125	-0.124
-115.107	89.350	-0.290	0.318
-114.093	-26.417	-0.286	0.165
-113.078	-200.000	0.001	-0.013
-112.064	-47.063	-0.220	0.106
-111.049	-101.823	-0.126	0.030
-110.034	-184.486	-0.098	-0.002
-109.020	-8.233	0.378	-0.250
-108.005	96.748	0.145	0.163
-106.991	-66.911	-0.264	-0.103
-105.976	97.397	-0.020	0.022
-104.962	84.464	-0.076	-0.082
-103.947	-200.000	-0.002	0.198
-102.932	705.436	0.157	0.406
-101.918	-200.000	-0.013	0.123
-100.903	-78.474	-0.305	0.103
-99.889	129.697	0.161	0.202
-98.874	156.588	0.228	-0.310
-97.859	-200.000	0.011	-0.080
-96.845	83.282	0.032	0.035
-95.830	54.557	0.070	-0.067
-94.816	54.348	0.056	-0.053
-93.801	-59.338	0.125	0.053
-92.786	131.618	0.099	-0.125
-91.772	-25.924	0.047	0.027
-90.757	-200.000	0.012	-0.064
-89.743	14.662	0.047	-0.036
-88.728	-26.900	-0.177	0.101
-87.713	-156.340	0.279	0.017
-86.699	273.825	0.102	0.177
-85.684	91.007	-0.168	-0.185
-84.670	-54.090	-0.128	-0.057
-83.655	252.844	0.057	0.095
-82.640	-15.485	0.204	0.128
-81.626	216.778	-0.169	-0.264
-80.611	30.583	0.052	0.043
-79.597	157.187	-0.180	-0.245
-78.582	43.895	-0.089	-0.080
-77.567	373.592	0.098	0.196
-76.553	-200.000	0.007	-0.076
-75.538	34.868	-0.054	-0.046
-74.524	2.539	0.316	-0.224
-73.509	800.000	0.097	-0.279
-72.494	800.000	0.082	-0.251
-71.480	34.208	-0.118	-0.101
-70.465	-18.147	0.248	-0.152
-69.451	800.000	0.065	0.177
-68.436	-164.161	0.117	0.005
-67.422	-102.318	0.089	0.021
-66.407	-106.356	0.173	-0.038
-65.392	111.507	0.074	0.088
-64.378	-41.530	-0.275	0.139
-63.363	42.619	-0.298	0.267
-62.349	275.693	0.205	0.357
-61.334	80.007	-0.736	-0.777
-60.319	-11.837	0.597	0.384
-59.305	-200.000	-0.127	-1.109
-58.290	60.849	0.949	0.923
-57.276	359.597	0.663	1.301
-56.261	-200.000	97.072	606.493
-55.246	620.262	1399.351	3452.338
-54.232	193.308	2589.384	3842.182
-53.217	118.463	2146.393	2598.817
-52.203	44.026	1602.441	1441.062
-51.188	35.510	1340.223	1154.290
-50.173	32.233	1299.368	1099.916
-49.159	54.362	1348.492	1273.913
-48.144	56.511	1364.207	1301.497
-47.130	35.467	1322.848	1138.887
-46.115	32.122	1304.921	1103.792
-45.100	31.932	1299.807	1098.310
-44.086	31.831	1297.637	1095.840
-43.071	31.886	1294.473	1093.444
-42.057	31.683	1292.949	1090.932
-41.042	31.703	1291.429	1089.720
-40.027	31.763	1289.976	1088.805
-39.013	31.861	1287.561	1087.289
-37.998	31.796	1286.375	1085.870
-36.984	31.930	1284.157	1084.730
-35.969	31.938	1282.376	1083.229
-34.954	31.842	1281.160	1081.603
-33.940	31.938	1279.448	1080.668
-32.925	31.887	1278.883	1079.854
-31.911	31.950	1276.771	1078.390
-30.896	31.983	1275.554	1077.507
-29.881	31.952	1274.221	1076.161
-28.867	32.060	1272.663	1075.420
-27.852	32.129	1270.844	1074.239
-26.838	32.070	1269.870	1073.034
-25.823	31.988	1268.645	1071.485
-24.809	31.945	1267.158	1069.946
-23.794	31.991	1265.840	1069.050
-22.779	32.072	1264.047	1067.954
-21.765	32.066	1262.477	1066.551
-20.750	31.935	1261.623	1065.045
-19.736	31.865	1260.241	1063.438
-18.721	31.832	1259.290	1062.405
-17.706	31.833	1257.989	1061.274
-16.692	31.836	1256.859	1060.296
-15.677	31.868	1255.877	1059.605
-14.663	31.831	1254.793	1058.437
-13.648	31.859	1253.630	1057.573
-12.633	31.856	1252.752	1056.775
-11.619	31.821	1251.735	1055.676
-10.604	31.752	1251.093	1054.707
-9.590	31.773	1249.807	1053.700
-8.575	31.755	1249.047	1052.914
-7.560	31.762	1248.415	1052.376
-6.546	31.765	1247.169	1051.306
-5.531	31.772	1246.465	1050.709
-4.517	31.837	1244.994	1049.789
-3.502	31.900	1244.446	1049.638
-2.487	31.839	1243.769	1048.684
-1.473	31.705	1239.781	1044.536
-0.458	30.222	1224.751	1023.654
0.556	24.631	1206.891	985.891
1.571	20.779	1212.335	968.861
2.586	19.871	1226.956	975.341
3.600	19.496	1216.114	964.541
4.615	14.072	1144.519	879.071
5.629	4.557	1068.242	773.260
6.644	0.049	1047.755	736.329
7.659	-0.357	1045.574	732.749
8.673	-0.416	1044.038	731.321
9.688	-0.475	1043.092	730.304
10.702	-0.159	1040.946	730.273
11.717	5.608	1049.154	764.172
12.731	14.657	1062.249	818.172
13.746	18.612	1066.552	840.841
14.761	18.852	1066.424	841.842
15.775	18.723	1066.069	840.852
16.790	18.439	1065.128	838.649
17.804	18.401	1064.488	837.881
18.819	18.462	1063.821	837.581
19.834	18.465	1063.610	837.355
20.848	18.524	1062.971	837.066
21.863	18.472	1062.246	836.167
22.877	18.412	1061.967	835.581
23.892	18.483	1060.635	834.805
24.907	18.393	1060.635	834.294
25.921	18.500	1058.960	833.426
26.936	18.372	1057.828	831.838
27.950	18.426	1055.822	830.447
28.965	18.230	1054.450	828.346
29.980	18.477	1052.009	827.551
30.994	18.565	1051.501	827.501
32.009	18.428	1050.607	826.061
33.023	18.329	1049.273	824.466
34.038	18.345	1048.645	823.978
35.053	18.613	1047.860	824.571
36.067	18.541	1047.014	823.492
37.082	18.663	1046.412	823.528
38.096	18.859	1044.948	823.244
39.111	18.751	1044.592	822.370
40.126	18.635	1043.059	820.535
41.140	18.439	1041.140	818.018
42.155	18.163	1039.732	815.527
43.169	18.305	1038.911	815.487
44.184	18.318	1038.115	814.850
45.199	18.053	1037.233	812.827
46.213	18.131	1036.204	812.317
47.228	18.314	1035.253	812.369
48.242	18.473	1033.807	811.917
49.257	18.451	1033.100	811.183
50.271	18.569	1032.359	811.090
51.286	18.461	1031.285	809.662
52.301	18.497	1030.112	808.842
53.315	18.559	1029.271	808.401
54.330	18.446	1028.292	807.029
55.344	18.566	1027.543	806.932
56.359	18.424	1026.527	805.400
57.374	18.255	1025.415	803.662
58.388	18.403	1024.275	803.392
59.403	18.388	1023.447	802.597
60.417	18.105	1023.102	800.931
61.432	18.380	1022.221	801.458
62.447	18.313	1021.855	800.786
63.461	18.395	1020.777	800.256
64.476	18.437	1019.781	799.601
65.490	18.343	1018.630	798.187
66.505	18.495	1017.725	798.114
67.520	18.312	1017.656	797.140
68.534	18.234	1016.184	795.551
69.549	17.963	1014.888	793.209
70.563	17.908	1014.113	792.279
71.578	17.995	1013.379	792.037
72.593	17.850	1012.648	790.727
73.607	18.079	1011.902	791.132
74.622	18.315	1011.576	791.898
75.636	18.331	1011.074	791.512
76.651	18.191	1009.216	789.337
77.666	18.089	1008.793	788.470
78.680	18.198	1008.523	788.692
79.695	18.262	1007.860	788.398
80.709	18.291	1007.378	788.082
81.724	18.278	1005.918	786.810
82.739	18.221	1005.740	786.343
83.753	18.508	1004.436	786.568
84.768	18.640	1003.894	786.679
85.782	18.719	1002.382	785.787
86.797	18.758	1001.464	785.179
87.812	18.671	1000.339	783.829
88.826	18.659	999.732	783.228
89.841	18.741	998.690	782.715
90.855	18.780	997.463	781.861
91.870	18.699	996.603	780.751
92.884	18.654	995.766	779.820
93.899	18.520	994.834	778.413
94.914	18.698	993.920	778.438
95.928	18.575	992.807	776.940
96.943	18.434	991.345	775.089
97.957	18.234	990.482	773.444
98.972	18.080	989.015	771.536
99.987	18.238	988.564	771.825
101.001	18.578	987.543	772.494
102.016	18.424	987.367	771.591
103.030	18.418	985.845	770.310
104.045	18.224	984.768	768.529
105.060	18.120	983.529	767.025
106.074	18.404	983.277	768.033
107.089	18.682	982.632	768.708
108.103	18.523	981.639	767.151
109.118	18.380	980.168	765.295
110.133	18.456	979.623	765.140
111.147	18.151	978.536	762.865
112.162	18.213	976.885	761.785
113.176	18.449	976.096	762.154
114.191	18.335	975.306	760.962
115.206	18.031	973.941	758.481
116.220	18.026	973.115	757.749
117.235	18.292	972.155	758.113
118.249	18.234	971.665	757.405
119.264	18.125	971.009	756.346
120.279	18.198	970.071	755.872
121.293	18.246	969.268	755.392
122.308	18.426	968.020	755.145
123.322	18.277	966.950	753.585
124.337	17.990	965.813	751.371
125.352	17.860	963.645	749.050
126.366	17.586	963.009	747.284
127.381	18.352	962.822	750.434
128.395	18.656	961.879	750.963
129.410	18.660	961.420	750.554
130.424	18.567	959.984	748.959
131.439	18.507	959.108	747.948
132.454	18.584	958.310	747.596
133.468	18.541	957.310	746.562
134.483	18.774	956.684	747.021
135.497	18.889	955.812	746.778
136.512	18.797	954.718	745.458
137.527	18.834	953.777	744.814
138.541	18.776	952.993	743.885
139.556	18.933	951.987	743.715
140.570	18.922	951.144	742.942
141.585	18.830	950.696	742.128
142.600	18.650	949.308	740.202
143.614	19.032	948.512	741.161
144.629	18.923	947.555	739.881
145.643	18.918	946.328	738.835
146.658	18.908	944.565	737.350
147.673	18.833	943.815	736.381
148.687	18.626	943.522	735.199
149.702	18.662	942.557	734.536
150.716	18.658	941.572	733.687
151.731	18.742	941.320	733.781
152.746	18.949	940.453	733.925
153.760	18.910	939.826	733.204
154.775	19.111	938.508	732.969
155.789	18.858	938.239	731.615
156.804	18.934	937.204	731.068
157.819	19.016	936.385	730.713
158.833	18.980	935.758	730.004
159.848	18.977	934.520	728.965
160.862	18.961	933.226	727.821
161.877	18.933	932.610	727.157
162.892	18.824	932.144	726.271
163.906	18.968	930.486	725.520
164.921	18.903	929.593	724.485
165.935	19.011	928.604	724.105
166.950	19.035	927.669	723.417
167.964	18.969	927.008	722.559
168.979	18.848	925.704	720.970
169.994	18.905	925.024	720.617
171.008	18.934	924.233	720.057
172.023	18.819	923.718	719.110
173.037	18.679	922.325	717.376
174.052	18.526	921.648	716.146
175.067	18.852	920.653	716.673
176.081	18.942	920.660	716.987
177.096	18.820	920.065	715.952
178.110	18.529	918.705	713.621
179.125	18.410	918.315	712.758
180.140	18.535	917.563	712.632
181.154	18.658	917.177	712.782
182.169	18.764	917.102	713.102
183.183	19.044	916.365	713.626
184.198	19.011	915.030	712.383
185.213	18.848	914.310	711.086
186.227	19.047	913.666	711.346
187.242	18.925	912.970	710.238
188.256	18.948	912.585	709.970
189.271	19.006	911.688	709.451
190.286	18.723	910.568	707.349
191.300	18.251	909.501	704.513
192.315	17.666	908.167	701.016
193.329	17.623	907.519	700.273
194.344	18.431	907.587	703.586
195.359	18.946	907.235	705.364
196.373	18.949	907.080	705.191
197.388	18.727	906.224	703.553
198.402	18.838	905.406	703.312
199.417	18.860	904.444	702.594
200.432	18.482	903.632	700.355
201.446	18.315	903.220	699.292
202.461	18.215	902.644	698.377
203.475	17.601	900.771	694.363
204.490	17.085	899.558	691.267
205.504	17.959	899.716	694.883
206.519	18.508	899.869	697.173
207.534	18.601	899.728	697.379
208.548	19.123	898.731	698.667
209.563	18.790	897.622	696.391
210.577	18.812	897.175	696.071
211.592	19.054	897.044	696.890
212.607	18.973	895.871	695.588
213.621	19.026	895.366	695.349
214.636	19.132	894.573	695.102
215.650	19.079	893.488	693.983
216.665	19.075	893.654	694.033
217.680	18.985	892.350	692.598
218.694	18.471	891.323	689.672
219.709	18.484	890.134	688.742
220.723	18.788	890.287	690.020
221.738	18.965	889.407	689.988
222.753	18.823	889.258	689.242
223.767	18.923	888.585	689.058
224.782	19.023	888.210	689.109
225.796	19.078	887.481	688.704
226.811	18.584	885.548	685.167
227.826	17.791	885.025	681.535
228.840	18.234	884.077	682.511
229.855	18.249	883.396	681.988
230.869	18.000	882.333	680.114
231.884	18.320	882.559	681.502
232.899	18.916	882.794	683.994
233.913	18.854	881.907	683.003
234.928	18.923	881.368	682.798
235.942	19.019	880.272	682.270
236.957	18.745	879.504	680.526
237.972	18.819	878.709	680.146
238.986	18.843	878.373	679.919
240.001	18.782	877.478	678.927
241.015	18.856	876.858	678.679
242.030	18.847	877.016	678.704
243.045	19.041	876.371	678.912
244.059	19.119	875.690	678.631
245.074	18.849	874.479	676.569
246.088	18.523	873.883	674.768
247.103	18.805	873.004	675.138
248.117	19.353	872.837	677.098
249.132	19.425	872.357	676.952
250.147	19.579	871.537	676.858
251.161	19.536	871.584	676.668
252.176	19.474	870.711	675.683
253.190	19.721	869.754	675.851
254.205	19.813	869.653	676.071
255.220	19.700	868.870	674.963
256.234	19.606	868.109	673.942
257.249	19.464	867.202	672.626
258.263	19.571	866.450	672.399
259.278	19.692	865.967	672.435
260.293	19.872	865.012	672.337
261.307	19.687	864.373	671.060
262.322	19.358	863.247	668.852
263.336	18.673	861.163	664.525
264.351	17.628	859.299	658.990
265.366	17.754	859.162	659.313
266.380	18.787	859.982	663.879
267.395	19.399	859.542	665.841
268.409	19.348	858.906	665.095
269.424	19.426	858.562	665.069
270.439	19.497	857.781	664.679
271.453	19.722	857.045	664.915
272.468	19.877	856.990	665.410
273.482	19.823	856.203	664.533
274.497	19.443	854.849	661.966
275.512	19.061	854.212	659.951
276.526	19.437	854.123	661.263
277.541	19.650	853.219	661.321
278.555	19.313	852.319	659.276
279.570	19.188	851.528	658.128
280.585	19.373	850.767	658.190
281.599	19.352	850.211	657.619
282.614	18.931	849.108	655.107
283.628	18.924	848.356	654.440
284.643	19.240	848.447	655.657
285.657	18.756	847.435	652.976
286.672	18.490	846.658	651.309
287.687	19.223	846.368	653.808
288.701	19.192	845.746	653.156
289.716	18.963	844.692	651.415
290.730	18.937	843.710	650.503
291.745	18.513	843.192	648.443
292.760	18.965	842.911	649.877
293.774	19.675	843.351	652.840
294.789	20.088	842.686	653.826
295.803	20.190	842.313	653.867
296.818	20.207	841.422	653.178
297.833	19.782	840.438	650.760
298.847	19.561	839.886	649.442
299.862	19.928	839.491	650.459
300.876	20.059	839.129	650.612
301.891	19.938	838.021	649.245
302.906	19.411	837.179	646.560
303.920	19.745	836.820	647.474
304.935	19.939	836.529	647.919
305.949	19.949	835.808	647.341
306.964	19.821	835.517	646.578
307.979	19.939	835.184	646.706
308.993	20.212	834.659	647.260
310.008	20.133	834.336	646.658
311.022	20.042	833.322	645.477
312.037	19.893	833.037	644.641
313.052	19.638	832.106	642.919
314.066	18.927	830.847	639.245
315.081	18.666	829.769	637.390
316.095	19.526	830.182	640.845
317.110	19.755	830.359	641.773
318.125	19.068	828.605	637.817
319.139	18.266	827.084	633.620
320.154	18.167	826.862	633.028
321.168	19.028	827.304	636.499
322.183	19.820	827.175	639.270
323.197	19.753	826.839	638.707
324.212	19.989	826.587	639.328
325.227	19.940	825.918	638.570
326.241	19.908	825.228	637.864
327.256	19.878	824.201	636.903
328.270	19.715	823.635	635.812
329.285	19.610	823.000	634.879
330.300	19.496	822.346	633.897
331.314	19.625	821.815	633.906
332.329	19.846	821.492	634.414
333.343	20.094	821.211	635.048
334.358	19.877	821.237	634.217
335.373	20.013	820.356	633.977
336.387	20.347	820.522	635.272
337.402	20.323	820.404	635.038
338.416	20.327	819.623	634.389
339.431	20.316	819.418	634.136
340.446	20.451	818.808	634.101
341.460	20.313	818.414	633.236
342.475	20.011	817.743	631.559
343.489	20.399	817.011	632.353
344.504	20.459	817.118	632.595
345.519	20.653	816.335	632.638
346.533	20.639	816.428	632.607
347.548	20.782	815.782	632.568
348.562	20.645	815.711	631.961
349.577	20.572	814.944	631.042
350.592	20.700	813.947	630.681
351.606	20.622	813.337	629.870
352.621	20.575	812.492	628.990
353.635	20.383	811.716	627.641
354.650	19.854	810.240	624.534
355.665	19.151	808.553	620.646
356.679	19.372	808.583	621.409
357.694	19.889	807.969	622.743
358.708	19.742	807.444	621.756
359.723	20.264	807.308	623.470
360.738	20.429	807.215	623.938
361.752	20.620	806.496	624.013
362.767	20.878	806.272	624.707
363.781	20.970	805.646	624.499
364.796	21.083	805.625	624.832
365.810	21.060	804.643	623.932
366.825	20.986	804.699	623.655
367.840	20.673	803.698	621.706
368.854	20.446	802.999	620.299
369.869	20.498	802.502	620.045
370.883	20.554	802.085	619.871
371.898	20.244	801.920	618.581
372.913	20.465	801.507	618.997
373.927	20.681	800.977	619.302
374.942	20.801	800.482	619.291
375.956	20.772	800.180	618.900
376.971	20.805	799.813	618.677
377.986	21.002	799.511	619.087
379.000	20.860	798.807	617.986
380.015	20.907	798.147	617.587
381.029	20.867	797.390	616.803
382.044	21.014	797.140	617.077
383.059	21.016	796.541	616.565
384.073	21.038	796.244	616.359
385.088	21.111	796.088	616.439
386.102	21.045	795.228	615.486
387.117	20.976	794.384	614.536
388.132	20.579	793.623	612.494
389.146	20.147	792.405	609.981
390.161	20.420	792.266	610.779
391.175	20.635	792.168	611.407
392.190	20.463	791.041	609.880
393.205	19.199	789.428	604.153
394.219	17.974	787.651	598.450
395.234	18.128	787.553	598.861
396.248	19.741	788.620	605.269
397.263	21.067	789.139	610.258
398.278	20.782	789.053	609.140
399.292	20.687	788.454	608.290
400.307	20.756	787.716	607.909
401.321	20.635	787.755	607.461
402.336	20.880	787.567	608.119
403.350	21.301	787.391	609.398
404.365	21.518	787.060	609.844
405.380	21.603	786.597	609.727
406.394	21.683	785.882	609.397
407.409	21.654	785.377	608.851
408.423	21.607	785.042	608.376
409.438	21.632	784.592	608.057
410.453	21.684	784.390	608.030
411.467	21.646	783.565	607.204
412.482	21.702	783.334	607.165
413.496	21.780	782.936	607.072
414.511	21.699	782.463	606.371
415.526	21.746	782.164	606.248
416.540	21.568	781.341	604.944
417.555	21.219	781.010	603.429
418.569	21.430	780.608	603.793
419.584	21.432	780.188	603.420
420.599	21.318	779.233	602.235
421.613	158.234	1360.831	1795.327
422.628	136.757	1445.568	1795.417
