DTS Sentinel unit serial number:	SN413079Multiplexer serial number:	ORYXHardware model number:	OX4-SRSoftware version number:	ORYX F/W v4.00 Oryx Data Collector v3.7.2.0data status	okinstallation	princeton_trtdifferential loss correction	single-endedforward channel	channel 1reverse channel	N/Adate	2019/09/11time	07:40:11forward acquisition time	60.00reverse acquisition time	0.00gamma	496.2192k internal	0.2324k external	0.2324temperature offset calibration	0.9909default loss term (dB/km)	0.3790temperature slope calibration	1.0000multiplexer offset coefficient	1.0000multiplexer slope coefficient	1.0000fibre end	0.00T internal ref (°C)	31.42T ext. ref 1 (°C)	-0.02T ext. ref 2 (°C)	27.77length (m)	temperature (°C)	Stokes	anti-Stokes-747.200	-19.809	-0.351	-0.219
-746.185	153.612	-0.257	0.355
-745.171	-96.330	0.105	0.028
-744.156	81.167	-0.178	-0.194
-743.142	-76.777	-0.263	-0.093
-742.127	32.931	-0.202	0.176
-741.112	-62.402	0.105	0.044
-740.098	250.775	-0.149	0.255
-739.083	800.000	0.119	-0.355
-738.069	800.000	-0.072	0.245
-737.054	207.457	-0.201	-0.316
-736.039	180.008	-0.156	-0.231
-735.025	13.890	0.129	0.101
-734.010	-200.000	-0.008	-0.282
-732.996	800.000	-0.063	-0.188
-731.981	-127.910	-0.030	-0.004
-730.966	-120.464	-0.119	-0.020
-729.952	-26.171	-0.274	-0.162
-728.937	800.000	0.083	-0.270
-727.923	-43.984	-0.171	-0.087
-726.908	-53.452	0.254	-0.117
-725.894	-46.069	-0.134	0.067
-724.879	-102.333	-0.096	0.023
-723.864	-121.281	-0.213	-0.036
-722.850	31.294	-0.236	0.205
-721.835	-200.000	-0.009	-0.110
-720.821	192.425	0.135	-0.205
-719.806	191.464	-0.035	-0.054
-718.791	325.374	-0.061	-0.117
-717.777	-5.226	0.228	-0.158
-716.762	-200.000	-0.052	0.294
-715.748	164.732	0.144	-0.204
-714.733	-3.656	-0.156	-0.109
-713.718	-39.541	0.277	-0.146
-712.704	-200.000	-0.005	-0.105
-711.689	-62.657	-0.117	0.049
-710.675	406.804	-0.115	-0.244
-709.660	148.634	0.161	-0.219
-708.645	509.012	0.045	0.105
-707.631	-200.000	-0.021	0.148
-706.616	-128.493	-0.192	0.027
-705.602	800.000	-0.015	0.046
-704.587	-113.232	-0.153	-0.030
-703.572	403.682	-0.075	0.159
-702.558	-200.000	-0.034	-0.171
-701.543	-200.000	0.059	-0.263
-700.529	-20.733	0.047	-0.029
-699.514	-200.000	-0.025	-0.280
-698.499	39.433	0.335	-0.303
-697.485	222.055	0.052	-0.084
-696.470	-18.270	-0.082	0.052
-695.456	115.431	-0.181	0.223
-694.441	28.776	-0.247	0.211
-693.426	208.162	-0.142	-0.223
-692.412	-17.408	0.112	-0.071
-691.397	-41.900	-0.366	-0.189
-690.383	-200.000	-0.076	-0.394
-689.368	-200.000	0.010	-0.124
-688.354	800.000	0.013	0.038
-687.339	354.243	0.128	-0.257
-686.324	-50.318	-0.136	0.065
-685.310	55.428	-0.235	-0.229
-684.295	-54.308	-0.199	-0.091
-683.281	-35.788	-0.375	0.205
-682.266	-55.140	-0.290	-0.131
-681.251	593.869	-0.062	0.154
-680.237	-129.170	-0.155	-0.022
-679.222	-113.623	-0.394	0.078
-678.208	-69.676	-0.110	0.042
-677.193	-104.000	0.090	0.021
-676.178	567.878	0.057	-0.140
-675.164	-35.089	-0.244	0.134
-674.149	-200.000	-0.006	-0.037
-673.135	-200.000	0.095	-0.485
-672.120	-77.878	-0.083	0.029
-671.105	-176.854	-0.206	-0.005
-670.091	127.698	0.055	-0.070
-669.076	388.478	-0.048	-0.101
-668.062	-200.000	-0.001	0.214
-667.047	319.020	0.083	0.159
-666.032	-99.709	-0.084	-0.021
-665.018	-200.000	-0.294	-0.001
-664.003	-92.467	-0.203	0.058
-662.989	-200.000	-0.020	-0.243
-661.974	11.587	-0.115	0.089
-660.959	800.000	-0.102	0.337
-659.945	175.018	0.217	0.316
-658.930	-65.832	0.004	-0.002
-657.916	-140.576	0.128	-0.013
-656.901	67.392	0.265	0.272
-655.886	212.933	0.065	0.104
-654.872	-200.000	0.046	-0.282
-653.857	316.581	-0.128	-0.243
-652.843	41.680	-0.109	-0.099
-651.828	254.354	-0.093	0.161
-650.814	-53.338	-0.195	-0.090
-649.799	192.972	0.108	0.164
-648.784	-143.374	0.144	-0.014
-647.770	214.195	-0.014	0.022
-646.755	-4.132	-0.177	-0.123
-645.741	-137.871	0.020	-0.002
-644.726	-200.000	-0.032	-0.192
-643.711	326.421	0.113	-0.218
-642.697	-200.000	0.025	-0.322
-641.682	-200.000	0.008	0.161
-640.668	800.000	-0.122	0.386
-639.653	-160.049	0.188	-0.010
-638.638	578.086	0.049	0.122
-637.624	-200.000	-0.026	0.341
-636.609	-19.617	-0.180	0.112
-635.595	-41.668	0.115	-0.059
-634.580	33.110	0.211	0.183
-633.565	-121.540	0.157	0.026
-632.551	-200.000	0.051	-0.252
-631.536	86.795	-0.105	-0.116
-630.522	-22.334	0.257	0.157
-629.507	-6.565	0.186	0.127
-628.492	4.307	-0.363	-0.268
-627.478	800.000	-0.083	-0.317
-626.463	-36.770	0.216	0.116
-625.449	-200.000	-0.039	-0.190
-624.434	-108.759	-0.234	-0.050
-623.419	-200.000	0.027	-0.252
-622.405	36.135	-0.059	0.052
-621.390	-37.360	-0.158	0.085
-620.376	-200.000	-0.025	0.247
-619.361	-137.259	-0.255	-0.029
-618.346	-200.000	-0.037	-0.183
-617.332	-124.999	-0.117	0.018
-616.317	-0.149	0.286	-0.204
-615.303	112.026	-0.131	0.159
-614.288	69.331	0.112	-0.115
-613.273	-48.106	0.218	-0.106
-612.259	471.488	0.044	0.099
-611.244	-140.764	-0.216	0.022
-610.230	467.076	0.214	0.483
-609.215	-99.771	0.337	0.085
-608.201	-27.393	-0.158	-0.092
-607.186	-106.567	0.162	0.036
-606.171	61.604	-0.298	0.298
-605.157	-66.316	-0.237	-0.095
-604.142	172.760	-0.118	-0.171
-603.128	58.098	0.213	0.209
-602.113	220.731	0.174	0.280
-601.098	-200.000	-0.041	0.235
-600.084	8.789	0.212	-0.160
-599.069	194.206	-0.112	-0.171
-598.055	-200.000	-0.062	0.380
-597.040	-4.707	-0.177	0.122
-596.025	30.559	-0.101	-0.086
-595.011	-200.000	-0.052	-0.432
-593.996	-200.000	0.054	-0.299
-592.982	-158.375	0.409	0.024
-591.967	140.468	-0.098	-0.129
-590.952	768.216	-0.078	0.214
-589.938	88.468	-0.128	0.143
-588.923	-135.695	-0.294	-0.035
-587.909	800.000	-0.044	0.124
-586.894	800.000	-0.064	0.242
-585.879	-198.062	-0.365	0.002
-584.865	-200.000	-0.020	0.105
-583.850	-200.000	-0.028	0.205
-582.836	-88.776	-0.048	0.014
-581.821	54.933	-0.287	0.278
-580.806	800.000	-0.058	-0.177
-579.792	-29.176	0.447	-0.257
-578.777	17.423	-0.311	0.248
-577.763	-200.000	-0.011	0.105
-576.748	-83.675	-0.217	0.069
-575.733	123.892	0.036	0.045
-574.719	-106.003	-0.105	0.024
-573.704	-200.000	0.021	0.219
-572.690	-200.000	0.005	0.149
-571.675	800.000	0.071	-0.295
-570.661	-142.046	0.136	0.014
-569.646	-200.000	0.014	0.149
-568.631	255.521	0.189	0.325
-567.617	-200.000	0.034	-0.184
-566.602	503.869	-0.106	-0.245
-565.588	-155.004	0.103	0.007
-564.573	-200.000	0.037	0.179
-563.558	59.370	-0.060	0.059
-562.544	-187.006	0.240	-0.003
-561.529	128.645	-0.238	-0.303
-560.515	260.743	0.102	0.177
-559.500	-200.000	0.070	-0.339
-558.485	-79.281	-0.164	-0.056
-557.471	-75.970	-0.294	-0.104
-556.456	-127.102	-0.398	0.058
-555.442	-78.073	-0.194	-0.067
-554.427	476.474	-0.159	-0.360
-553.412	-200.000	-0.032	0.163
-552.398	-200.000	0.009	0.334
-551.383	-28.981	-0.337	-0.194
-550.369	800.000	0.055	0.180
-549.354	800.000	0.090	-0.337
-548.339	800.000	-0.136	-0.430
-547.325	527.590	-0.087	-0.206
-546.310	-61.737	-0.238	0.100
-545.296	-104.689	-0.327	0.075
-544.281	44.245	-0.265	-0.244
-543.266	599.125	0.094	-0.233
-542.252	800.000	-0.100	-0.333
-541.237	800.000	0.089	0.259
-540.223	-200.000	-0.026	-0.377
-539.208	-200.000	0.021	-0.114
-538.193	124.396	0.164	-0.206
-537.179	95.442	-0.144	0.164
-536.164	75.596	0.205	0.216
-535.150	-102.128	-0.059	0.014
-534.135	1.742	-0.182	-0.131
-533.121	3.596	0.225	0.164
-532.106	-200.000	0.038	-0.559
-531.091	2.566	0.020	0.015
-530.077	-200.000	0.020	0.093
-529.062	31.872	0.232	-0.200
-528.048	-142.172	0.062	0.006
-527.033	-120.805	0.278	-0.047
-526.018	183.557	0.110	0.163
-525.004	800.000	-0.014	-0.054
-523.989	-46.041	0.113	0.056
-522.975	1.854	-0.101	-0.073
-521.960	-159.547	-0.049	-0.003
-520.945	281.539	0.030	-0.054
-519.931	704.367	0.138	0.364
-518.916	-200.000	-0.001	0.029
-517.902	156.968	0.127	-0.176
-516.887	124.585	-0.114	-0.144
-515.872	-200.000	-0.010	0.109
-514.858	711.589	0.085	0.225
-513.843	-107.018	0.036	0.008
-512.829	800.000	0.059	-0.179
-511.814	49.297	-0.074	0.070
-510.799	-200.000	0.002	0.155
-509.785	-53.981	0.108	-0.049
-508.770	-74.610	0.109	0.039
-507.756	20.714	0.263	0.213
-506.741	-36.909	0.331	0.177
-505.726	-200.000	0.047	0.250
-504.712	-122.434	-0.387	0.063
-503.697	781.964	-0.052	-0.144
-502.683	307.819	0.066	0.123
-501.668	-101.069	0.172	0.042
-500.653	-200.000	-0.030	-0.140
-499.639	66.724	0.224	0.227
-498.624	-27.356	0.141	0.082
-497.610	380.647	-0.049	-0.100
-496.595	-200.000	0.009	0.193
-495.581	-29.915	0.329	-0.187
-494.566	-200.000	-0.002	0.129
-493.551	116.334	0.049	0.061
-492.537	218.028	-0.094	-0.150
-491.522	141.261	0.123	-0.163
-490.508	-151.793	-0.216	0.016
-489.493	-86.511	-0.205	0.063
-488.478	-7.097	0.050	-0.034
-487.464	203.979	-0.264	0.409
-486.449	368.300	0.134	0.270
-485.435	800.000	-0.031	0.086
-484.420	-131.236	0.138	-0.018
-483.405	99.389	-0.083	-0.096
-482.391	118.622	-0.190	-0.235
-481.376	248.410	-0.095	0.161
-480.362	272.778	-0.070	0.123
-479.347	307.906	0.160	0.298
-478.332	-95.367	-0.104	-0.028
-477.318	-39.380	0.252	-0.132
-476.303	28.819	-0.155	-0.131
-475.289	-67.373	0.108	-0.042
-474.274	-68.048	-0.104	0.041
-473.259	434.232	-0.134	0.290
-472.245	177.347	-0.163	-0.237
-471.230	682.118	-0.126	-0.328
-470.216	-200.000	0.010	-0.310
-469.201	764.138	-0.024	0.065
-468.186	-200.000	-0.008	0.036
-467.172	563.683	0.067	-0.162
-466.157	316.804	-0.013	0.024
-465.143	-8.911	0.149	0.099
-464.128	465.555	-0.063	0.142
-463.113	313.743	-0.093	-0.175
-462.099	-98.406	-0.242	0.062
-461.084	133.635	0.336	-0.434
-460.070	676.606	0.074	-0.191
-459.055	800.000	-0.058	0.248
-458.040	-60.166	-0.170	-0.072
-457.026	13.657	0.237	0.184
-456.011	-23.098	0.246	0.148
-454.997	-29.142	-0.213	-0.122
-453.982	-200.000	-0.006	-0.087
-452.968	-9.789	0.160	0.106
-451.953	78.099	-0.110	0.117
-450.938	-200.000	0.054	-0.250
-449.924	800.000	0.014	0.062
-448.909	-128.425	-0.213	0.030
-447.895	203.755	0.091	0.140
-446.880	-64.759	0.087	0.035
-445.865	627.137	0.057	0.143
-444.851	800.000	-0.090	-0.252
-443.836	-114.250	-0.235	0.045
-442.822	173.004	-0.119	0.171
-441.807	39.731	0.096	0.086
-440.792	328.104	-0.126	-0.241
-439.778	4.017	-0.058	-0.042
-438.763	-17.740	-0.306	-0.192
-437.749	207.600	0.068	0.106
-436.734	191.555	-0.075	0.112
-435.719	800.000	-0.078	-0.334
-434.705	118.730	0.078	-0.096
-433.690	198.616	0.241	-0.368
-432.676	584.373	-0.102	-0.249
-431.661	-74.230	-0.255	-0.092
-430.646	375.032	-0.168	0.341
-429.632	-200.000	-0.011	-0.093
-428.617	112.604	-0.091	0.109
-427.603	578.727	0.082	0.199
-426.588	113.042	0.215	0.260
-425.573	76.415	-0.161	0.170
-424.559	-40.087	-0.173	-0.090
-423.544	-115.178	0.025	-0.005
-422.530	-200.000	-0.066	0.382
-421.515	-200.000	0.005	-0.089
-420.500	707.038	0.066	0.173
-419.486	406.993	0.076	0.160
-418.471	428.393	0.170	0.365
-417.457	-61.660	-0.247	0.103
-416.442	-140.985	0.201	-0.021
-415.428	-87.890	-0.209	-0.063
-414.413	-200.000	-0.014	-0.406
-413.398	269.346	0.156	0.272
-412.384	14.029	-0.037	0.029
-411.369	-2.075	-0.072	0.051
-410.355	434.933	-0.110	0.238
-409.340	800.000	0.135	0.406
-408.325	-200.000	-0.004	0.069
-407.311	-130.458	-0.343	0.046
-406.296	-200.000	0.001	-0.200
-405.282	6.990	-0.266	0.198
-404.267	-24.028	-0.282	-0.168
-403.252	-33.003	-0.038	-0.021
-402.238	-72.650	0.043	0.016
-401.223	518.656	-0.116	0.269
-400.209	36.313	-0.086	0.075
-399.194	-200.000	0.033	0.238
-398.179	-49.805	-0.256	0.121
-397.165	313.932	0.159	0.297
-396.150	-31.560	0.046	0.026
-395.136	-200.000	-0.029	0.236
-394.121	59.250	-0.250	-0.245
-393.106	-90.770	-0.297	0.085
-392.092	-59.812	-0.152	-0.065
-391.077	-200.000	0.021	0.156
-390.063	274.680	0.103	-0.181
-389.048	60.251	0.298	-0.293
-388.033	-84.429	-0.033	0.010
-387.019	617.473	0.078	-0.195
-386.004	-75.166	-0.139	-0.049
-384.990	-170.595	0.200	0.007
-383.975	-200.000	-0.018	0.083
-382.960	-200.000	0.019	-0.153
-381.946	248.334	-0.064	0.108
-380.931	1.262	0.109	0.078
-379.917	-200.000	-0.027	0.365
-378.902	-164.116	-0.288	-0.013
-377.888	671.636	0.050	0.130
-376.873	-11.156	-0.074	-0.049
-375.858	-17.651	0.443	0.277
-374.844	186.906	0.088	0.130
-373.829	-27.130	0.422	0.245
-372.815	-200.000	0.043	0.248
-371.800	206.162	-0.290	0.449
-370.785	-94.548	0.260	-0.071
-369.771	55.256	0.070	0.067
-368.756	-200.000	-0.039	-0.285
-367.742	275.596	0.037	-0.065
-366.727	-200.000	0.028	-0.333
-365.712	-85.680	0.410	-0.127
-364.698	422.601	-0.081	0.174
-363.683	-4.315	0.079	-0.054
-362.669	565.867	0.035	-0.085
-361.654	437.514	-0.066	0.144
-360.639	800.000	0.064	0.239
-359.625	66.717	0.175	-0.177
-358.610	-71.496	-0.417	-0.155
-357.596	42.396	-0.298	-0.269
-356.581	-67.288	-0.144	-0.056
-355.566	-58.175	0.265	-0.115
-354.552	111.080	0.128	-0.153
-353.537	-118.142	-0.203	0.036
-352.523	-113.572	-0.396	-0.077
-351.508	-11.807	0.202	-0.132
-350.493	-200.000	0.017	-0.238
-349.479	191.591	-0.139	-0.209
-348.464	-200.000	-0.060	-0.325
-347.450	-35.926	0.191	0.102
-346.435	-10.072	-0.156	-0.103
-345.420	-200.000	-0.033	0.399
-344.406	-89.298	0.305	-0.089
-343.391	-200.000	-0.009	0.211
-342.377	-165.062	0.314	0.014
-341.362	-61.366	0.120	0.050
-340.348	-104.818	0.205	-0.047
-339.333	96.046	-0.115	-0.131
-338.318	800.000	-0.033	-0.133
-337.304	-200.000	-0.015	0.173
-336.289	-113.875	-0.243	0.047
-335.275	-78.181	0.062	0.021
-334.260	800.000	0.041	-0.155
-333.245	-37.451	0.197	-0.105
-332.231	-138.647	0.403	-0.044
-331.216	-13.318	0.092	-0.059
-330.202	212.537	0.021	-0.033
-329.187	-61.324	0.190	0.080
-328.172	-200.000	-0.027	-0.175
-327.158	-104.827	0.357	-0.082
-326.143	-200.000	0.019	0.145
-325.129	-46.124	-0.058	-0.029
-324.114	800.000	0.055	-0.229
-323.099	710.589	-0.106	0.278
-322.085	228.881	0.065	-0.105
-321.070	-27.033	0.166	-0.096
-320.056	220.277	0.207	0.329
-319.041	-109.465	-0.250	0.052
-318.026	-112.377	0.178	0.035
-317.012	-200.000	0.001	-0.222
-315.997	216.426	-0.106	-0.167
-314.983	-113.496	0.311	0.060
-313.968	26.451	-0.224	0.186
-312.953	-200.000	0.005	0.351
-311.939	-154.178	0.225	0.015
-310.924	800.000	-0.072	-0.250
-309.910	-45.675	0.171	0.084
-308.895	455.590	-0.024	-0.053
-307.880	-200.000	0.002	-0.048
-306.866	725.707	-0.053	-0.141
-305.851	114.782	-0.110	0.133
-304.837	-125.835	0.293	-0.044
-303.822	-88.268	-0.066	-0.019
-302.807	386.543	0.107	-0.219
-301.793	-24.310	0.147	-0.087
-300.778	-200.000	-0.034	0.202
-299.764	101.759	-0.112	0.129
-298.749	50.662	-0.092	-0.087
-297.735	736.980	0.128	-0.340
-296.720	28.357	0.170	0.142
-295.705	740.311	0.071	0.188
-294.691	-34.811	0.330	-0.179
-293.676	454.209	0.108	0.237
-292.662	-2.636	-0.077	-0.053
-291.647	800.000	0.080	0.227
-290.632	-157.404	0.238	0.014
-289.618	142.931	-0.157	0.207
-288.603	-65.248	0.248	-0.099
-287.589	-200.000	0.015	0.108
-286.574	-77.172	-0.303	-0.105
-285.559	270.534	0.149	0.261
-284.545	-34.976	-0.181	-0.098
-283.530	-116.104	-0.291	0.054
-282.516	-101.771	-0.056	-0.013
-281.501	483.109	-0.070	0.157
-280.486	-200.000	-0.004	0.181
-279.472	-111.012	0.233	-0.047
-278.457	-183.547	-0.220	-0.004
-277.443	485.380	0.146	-0.330
-276.428	-30.858	0.236	-0.132
-275.413	283.064	0.099	-0.176
-274.399	121.265	0.011	-0.013
-273.384	265.888	0.026	-0.046
-272.370	800.000	-0.031	-0.094
-271.355	139.323	-0.140	0.182
-270.340	1.062	-0.069	0.049
-269.326	3.510	0.146	0.106
-268.311	800.000	-0.062	-0.172
-267.297	448.378	-0.027	-0.059
-266.282	539.781	0.059	-0.139
-265.267	-196.701	0.370	-0.002
-264.253	-53.508	-0.167	0.076
-263.238	-184.041	-0.256	0.004
-262.224	67.230	0.114	-0.115
-261.209	800.000	0.088	-0.279
-260.195	-42.378	-0.129	-0.065
-259.180	-122.704	-0.172	0.028
-258.165	-129.345	-0.249	0.034
-257.151	-97.119	-0.182	0.047
-256.136	-31.569	-0.315	-0.175
-255.122	-62.278	-0.218	0.090
-254.107	-200.000	-0.009	-0.191
-253.092	59.249	-0.150	-0.146
-252.078	30.229	-0.244	-0.207
-251.063	-15.050	0.186	-0.118
-250.049	35.606	-0.163	-0.141
-249.034	205.197	-0.199	-0.306
-248.019	-118.387	0.221	-0.039
-247.005	93.529	0.194	-0.218
-245.990	595.773	0.084	-0.205
-244.976	73.147	-0.059	-0.061
-243.961	-19.971	-0.266	-0.162
-242.946	109.364	-0.078	-0.092
-241.932	347.144	-0.058	0.113
-240.917	-75.104	0.280	-0.099
-239.903	800.000	-0.063	-0.236
-238.888	106.936	0.111	-0.130
-237.873	-200.000	-0.020	0.191
-236.859	-97.809	0.273	0.070
-235.844	337.822	0.063	-0.120
-234.830	507.821	-0.086	0.197
-233.815	-154.253	0.212	-0.014
-232.800	-103.905	0.287	-0.066
-231.786	-200.000	0.010	0.163
-230.771	-11.924	-0.107	-0.069
-229.757	43.616	0.154	0.140
-228.742	55.197	0.102	-0.097
-227.727	-99.023	0.192	0.048
-226.713	27.648	-0.190	0.158
-225.698	226.103	0.196	0.314
-224.684	238.142	0.140	0.229
-223.669	-200.000	-0.039	0.352
-222.655	-110.643	-0.431	0.088
-221.640	-94.421	0.095	0.026
-220.625	-200.000	-0.001	-0.042
-219.611	-91.014	-0.395	-0.112
-218.596	-62.139	0.357	-0.147
-217.582	800.000	-0.059	-0.231
-216.567	-200.000	-0.012	-0.211
-215.552	-87.443	0.275	0.082
-214.538	-104.098	0.287	0.066
-213.523	-48.419	-0.108	-0.051
-212.509	-200.000	-0.218	0.001
-211.494	-18.613	-0.210	0.129
-210.479	429.069	-0.044	-0.093
-209.465	-200.000	-0.010	-0.242
-208.450	109.883	-0.107	-0.127
-207.436	654.083	-0.069	0.175
-206.421	642.550	-0.077	-0.195
-205.406	-66.614	0.237	-0.093
-204.392	-200.000	-0.070	-0.356
-203.377	270.508	0.049	0.085
-202.363	-178.468	0.114	0.003
-201.348	127.968	0.054	0.068
-200.333	800.000	-0.028	0.088
-199.319	-200.000	-0.057	0.342
-198.304	-200.000	0.029	0.472
-197.290	-3.374	0.088	-0.061
-196.275	-48.664	0.145	-0.069
-195.260	38.874	0.107	0.095
-194.246	-106.684	-0.152	-0.033
-193.231	193.540	0.098	-0.146
-192.217	75.184	0.051	0.053
-191.202	-200.000	0.019	-0.128
-190.187	800.000	0.072	0.260
-189.173	-200.000	0.020	-0.189
-188.158	266.082	-0.030	-0.052
-187.144	64.807	0.175	0.174
-186.129	-88.387	0.083	-0.024
-185.114	-49.202	0.166	-0.078
-184.100	-106.920	0.055	-0.012
-183.085	-121.081	0.153	0.025
-182.071	-92.549	0.432	-0.120
-181.056	74.921	-0.067	-0.070
-180.042	-102.410	0.173	-0.041
-179.027	-200.000	0.020	0.130
-178.012	-7.903	-0.247	0.164
-176.998	-18.458	-0.223	-0.138
-175.983	-200.000	-0.034	0.262
-174.969	214.799	-0.248	-0.389
-173.954	148.661	0.343	-0.457
-172.939	-89.414	-0.389	0.113
-171.925	-125.327	0.367	-0.055
-170.910	63.582	0.127	0.126
-169.896	-82.537	-0.460	0.147
-168.881	800.000	0.032	-0.109
-167.866	102.104	0.117	0.135
-166.852	-84.830	-0.393	0.122
-165.837	180.761	-0.058	-0.085
-164.823	39.269	-0.067	0.059
-163.808	-113.304	-0.062	-0.012
-162.793	800.000	0.023	0.097
-161.779	-42.237	0.088	0.044
-160.764	-101.739	-0.078	-0.019
-159.750	-5.878	0.102	-0.069
-158.735	51.480	0.185	-0.173
-157.720	24.041	0.021	0.017
-156.706	723.387	0.093	-0.244
-155.691	800.000	-0.050	0.209
-154.677	-136.730	-0.400	-0.045
-153.662	72.666	0.119	0.122
-152.647	800.000	-0.047	-0.145
-151.633	800.000	-0.036	0.144
-150.618	292.913	0.166	0.298
-149.604	-91.896	0.350	0.098
-148.589	-200.000	0.014	-0.141
-147.574	-99.508	0.092	0.023
-146.560	195.661	0.207	0.311
-145.545	-63.806	0.283	0.114
-144.531	190.468	-0.026	-0.038
-143.516	-157.783	0.229	-0.013
-142.502	-200.000	-0.034	-0.171
-141.487	407.759	0.126	-0.264
-140.472	-200.000	0.005	-0.328
-139.458	305.531	-0.061	0.111
-138.443	-1.273	0.181	-0.126
-137.429	-200.000	0.037	-0.312
-136.414	800.000	-0.022	0.087
-135.399	-106.270	0.148	-0.033
-134.385	-104.197	0.267	-0.061
-133.370	-192.303	-0.153	0.001
-132.356	335.679	-0.050	0.096
-131.341	-200.000	0.025	-0.148
-130.326	-41.452	-0.321	0.163
-129.312	449.871	-0.068	-0.149
-128.297	800.000	0.071	-0.220
-127.283	86.034	-0.219	-0.238
-126.268	237.083	0.338	0.552
-125.253	249.489	-0.060	0.101
-124.239	-71.216	0.102	-0.038
-123.224	-34.375	0.259	-0.140
-122.210	68.307	0.227	0.229
-121.195	75.501	-0.242	0.251
-120.180	-88.486	0.197	0.058
-119.166	19.045	0.260	0.205
-118.151	800.000	0.091	0.324
-117.137	-166.293	-0.270	0.011
-116.122	391.637	0.023	-0.048
-115.107	-182.824	0.254	-0.005
-114.093	800.000	-0.072	0.302
-113.078	-200.000	-0.075	0.351
-112.064	283.553	0.116	0.204
-111.049	-129.803	0.292	0.040
-110.034	-200.000	-0.007	-0.058
-109.020	-200.000	-0.052	0.374
-108.005	-15.446	0.178	-0.112
-106.991	-9.190	0.215	-0.141
-105.976	18.437	-0.205	-0.161
-104.962	339.680	-0.121	0.232
-103.947	-200.000	-0.012	-0.112
-102.932	145.800	-0.143	-0.189
-101.918	-136.539	0.283	0.032
-100.903	-89.602	0.181	0.052
-99.889	313.934	-0.138	0.256
-98.874	-65.973	0.085	0.033
-97.859	114.175	-0.159	0.190
-96.845	-162.883	-0.100	-0.005
-95.830	-83.741	-0.180	0.056
-94.816	-132.329	0.164	-0.021
-93.801	-144.068	-0.292	-0.027
-92.786	-133.897	-0.253	-0.031
-91.772	469.032	0.167	-0.369
-90.757	-146.555	0.337	-0.029
-89.743	-39.498	-0.169	-0.087
-88.728	-184.763	-0.034	0.001
-87.713	-21.436	-0.273	-0.164
-86.699	-182.466	0.364	-0.007
-85.684	-200.000	-0.018	0.148
-84.670	211.865	-0.089	0.138
-83.655	-125.883	0.242	0.036
-82.640	700.441	0.064	0.166
-81.626	800.000	-0.096	0.285
-80.611	425.108	-0.067	0.143
-79.597	800.000	-0.050	-0.195
-78.582	93.116	-0.234	0.260
-77.567	-40.687	0.266	0.136
-76.553	38.375	0.297	0.260
-75.538	220.246	0.118	0.186
-74.524	-200.000	-0.053	0.287
-73.509	-23.689	-0.223	0.132
-72.494	-109.734	0.682	-0.141
-71.480	36.403	-0.455	-0.395
-70.465	-105.786	0.154	-0.034
-69.451	114.241	-0.169	0.203
-68.436	-74.719	-0.201	0.071
-67.422	-24.997	0.178	0.104
-66.407	-14.483	0.116	-0.073
-65.392	17.193	0.191	0.149
-64.378	197.122	-0.199	-0.298
-63.363	394.515	0.045	0.091
-62.349	-200.000	-0.004	0.340
-61.334	67.521	-0.785	-0.788
-60.319	800.000	0.203	0.783
-59.305	-200.000	-0.230	-1.070
-58.290	-200.000	0.226	1.280
-57.276	364.193	0.668	1.321
-56.261	-200.000	99.471	620.538
-55.246	615.500	1436.333	3537.574
-54.232	184.693	2639.541	3843.910
-53.217	118.286	2172.473	2632.262
-52.203	43.783	1616.682	1453.990
-51.188	34.912	1352.060	1162.341
-50.173	31.733	1310.232	1107.578
-49.159	55.312	1359.964	1292.051
-48.144	57.077	1376.041	1317.870
-47.130	35.199	1332.521	1147.085
-46.115	31.708	1314.952	1111.247
-45.100	31.270	1311.068	1105.325
-44.086	31.245	1308.468	1102.946
-43.071	31.315	1305.798	1101.061
-42.057	31.263	1303.462	1098.741
-41.042	31.340	1301.857	1097.800
-40.027	31.338	1300.360	1096.481
-39.013	31.342	1298.334	1094.754
-37.998	31.314	1297.018	1093.435
-36.984	31.374	1294.844	1091.910
-35.969	31.513	1292.803	1090.955
-34.954	31.507	1291.319	1089.624
-33.940	31.545	1290.165	1088.828
-32.925	31.483	1289.100	1087.527
-31.911	31.510	1287.268	1086.094
-30.896	31.481	1286.007	1084.819
-29.881	31.472	1284.592	1083.531
-28.867	31.654	1283.076	1083.263
-27.852	31.492	1282.346	1081.668
-26.838	31.585	1280.134	1080.294
-25.823	31.500	1279.022	1078.824
-24.809	31.473	1277.395	1077.256
-23.794	31.567	1275.753	1076.366
-22.779	31.539	1274.708	1075.280
-21.765	31.483	1273.568	1073.954
-20.750	31.410	1272.229	1072.364
-19.736	31.282	1271.340	1070.839
-18.721	31.395	1269.331	1069.749
-17.706	31.399	1268.565	1069.084
-16.692	31.388	1266.947	1067.616
-15.677	31.357	1265.794	1066.427
-14.663	31.336	1264.973	1065.574
-13.648	31.439	1263.711	1065.054
-12.633	31.390	1262.656	1063.846
-11.619	31.329	1262.356	1063.201
-10.604	31.337	1261.637	1062.601
-9.590	31.370	1260.260	1061.586
-8.575	31.336	1258.765	1060.088
-7.560	31.324	1258.728	1059.948
-6.546	31.279	1257.542	1058.652
-5.531	31.364	1256.261	1058.015
-4.517	31.375	1255.242	1057.178
-3.502	31.363	1254.499	1056.442
-2.487	31.296	1254.016	1055.616
-1.473	31.431	1249.825	1052.802
-0.458	30.380	1236.117	1035.358
0.556	24.671	1218.792	999.977
1.571	21.502	1224.770	986.949
2.586	20.880	1240.180	995.727
3.600	20.153	1229.359	982.832
4.615	15.162	1157.128	898.303
5.629	5.389	1080.132	789.322
6.644	0.376	1058.542	748.628
7.659	-0.057	1055.363	744.171
8.673	-0.232	1054.216	742.432
9.688	-0.175	1052.652	741.546
10.702	0.373	1051.752	743.548
11.717	6.666	1060.430	780.836
12.731	15.678	1074.099	835.823
13.746	20.028	1078.859	861.126
14.761	20.765	1080.428	865.971
15.775	20.937	1079.514	866.013
16.790	20.613	1078.677	863.658
17.804	20.677	1077.876	863.258
18.819	20.629	1077.822	862.902
19.834	20.836	1077.301	863.432
20.848	20.859	1076.997	863.228
21.863	20.858	1076.124	862.445
22.877	20.726	1075.506	861.219
23.892	20.738	1074.784	860.627
24.907	20.741	1074.350	860.219
25.921	20.739	1072.999	859.052
26.936	20.703	1071.910	857.924
27.950	20.619	1070.125	856.007
28.965	20.581	1068.066	854.096
29.980	20.702	1066.487	853.353
30.994	20.972	1065.228	853.590
32.009	20.834	1064.769	852.475
33.023	20.674	1063.104	850.282
34.038	20.606	1062.395	849.310
35.053	20.838	1061.784	849.875
36.067	20.797	1061.446	849.330
37.082	20.952	1060.173	848.990
38.096	21.103	1059.374	849.013
39.111	20.956	1059.281	848.149
40.126	21.000	1057.211	846.629
41.140	20.733	1054.838	843.358
42.155	20.462	1054.136	841.410
43.169	20.498	1053.124	840.703
44.184	20.508	1052.201	839.941
45.199	20.427	1051.459	838.883
46.213	20.430	1050.449	838.016
47.228	20.616	1049.450	838.043
48.242	20.494	1048.996	837.020
49.257	20.704	1047.954	837.122
50.271	20.848	1046.901	836.899
51.286	20.959	1045.704	836.401
52.301	20.872	1045.200	835.507
53.315	20.852	1044.294	834.612
54.330	20.746	1043.529	833.421
55.344	20.832	1042.592	833.009
56.359	20.619	1041.933	831.393
57.374	20.546	1040.764	830.037
58.388	20.648	1040.032	829.864
59.403	20.531	1038.885	828.319
60.417	20.400	1038.270	827.135
61.432	20.548	1037.641	827.262
62.447	20.494	1037.607	826.904
63.461	20.680	1036.286	826.663
64.476	20.613	1035.069	825.302
65.490	20.488	1034.138	823.895
66.505	20.571	1033.441	823.657
67.520	20.476	1033.214	822.953
68.534	20.273	1031.710	820.725
69.549	19.986	1030.751	818.532
70.563	20.166	1029.592	818.390
71.578	20.077	1028.868	817.322
72.593	19.974	1028.195	816.227
73.607	20.138	1027.407	816.303
74.622	20.520	1026.947	817.665
75.636	20.396	1026.500	816.652
76.651	20.347	1025.182	815.299
77.666	20.191	1024.708	814.119
78.680	20.238	1024.052	813.747
79.695	20.288	1023.538	813.500
80.709	20.475	1022.883	813.782
81.724	20.491	1021.587	812.753
82.739	20.565	1020.805	812.408
83.753	20.873	1020.184	813.279
84.768	21.106	1019.276	813.570
85.782	21.177	1018.486	813.199
86.797	20.998	1017.259	811.314
87.812	20.918	1016.240	810.060
88.826	20.926	1015.460	809.401
89.841	21.061	1014.459	809.156
90.855	21.117	1013.336	808.450
91.870	20.965	1012.743	807.203
92.884	20.978	1011.326	806.061
93.899	20.755	1010.729	804.485
94.914	20.912	1010.051	804.596
95.928	20.792	1008.654	802.863
96.943	20.528	1007.385	800.565
97.957	20.426	1006.294	799.157
98.972	20.412	1004.702	797.755
99.987	20.577	1004.487	798.273
101.001	20.821	1003.822	798.796
102.016	20.745	1002.667	797.456
103.030	20.678	1001.999	796.548
104.045	20.475	1000.514	794.367
105.060	20.211	999.733	792.472
106.074	20.517	999.215	793.387
107.089	20.841	998.421	794.163
108.103	20.731	997.816	793.114
109.118	20.597	995.973	790.969
110.133	20.622	994.807	790.084
111.147	20.368	993.755	788.028
112.162	20.253	993.133	786.940
113.176	20.464	992.416	787.263
114.191	20.366	991.435	785.971
115.206	20.185	990.069	783.998
116.220	20.036	989.712	782.972
117.235	20.314	988.804	783.440
118.249	20.300	987.766	782.488
119.264	20.150	987.084	781.201
120.279	20.129	986.387	780.484
121.293	20.297	985.308	780.316
122.308	20.314	984.566	779.736
123.322	20.339	982.824	778.400
124.337	20.102	981.758	776.427
125.352	19.632	980.378	773.164
126.366	19.632	979.338	772.276
127.381	20.313	979.353	775.264
128.395	20.689	978.812	776.444
129.410	20.830	977.580	776.026
130.424	20.679	977.039	774.855
131.439	20.734	976.139	774.318
132.454	20.684	975.197	773.277
133.468	20.765	973.884	772.530
134.483	20.837	973.554	772.517
135.497	20.887	972.815	772.084
136.512	21.170	971.291	772.061
137.527	20.990	970.694	770.722
138.541	21.080	969.899	770.418
139.556	20.988	969.447	769.584
140.570	21.077	968.534	769.185
141.585	21.118	967.315	768.330
142.600	21.010	966.430	767.086
143.614	21.110	965.668	766.850
144.629	21.271	965.741	767.549
145.643	21.247	963.677	765.734
146.658	20.788	963.011	763.126
147.673	20.993	961.277	762.580
148.687	20.843	960.498	761.242
149.702	20.710	959.627	759.903
150.716	20.780	958.693	759.401
151.731	20.866	957.918	759.093
152.746	21.013	957.694	759.488
153.760	21.220	956.688	759.524
154.775	21.249	956.126	759.137
155.789	21.182	955.263	758.096
156.804	21.157	954.350	757.195
157.819	21.203	953.520	756.668
158.833	21.161	952.889	755.921
159.848	21.246	951.437	755.068
160.862	21.215	950.372	754.023
161.877	21.264	949.347	753.351
162.892	21.240	948.709	752.680
163.906	21.094	947.899	751.338
164.921	21.085	946.973	750.502
165.935	21.188	945.770	749.925
166.950	21.164	945.072	749.200
167.964	21.213	943.983	748.482
168.979	20.953	943.019	746.536
169.994	20.949	942.019	745.662
171.008	21.161	941.521	746.108
172.023	21.205	940.768	745.634
173.037	20.906	939.490	743.277
174.052	20.872	938.312	742.137
175.067	20.888	937.937	741.842
176.081	21.063	937.231	741.963
177.096	21.065	936.690	741.476
178.110	20.701	935.960	739.289
179.125	20.601	934.797	737.878
180.140	20.565	934.646	737.543
181.154	20.773	934.724	738.420
182.169	21.044	934.430	739.272
183.183	21.232	933.546	739.302
184.198	21.065	932.995	738.095
185.213	21.110	932.143	737.545
186.227	21.223	931.558	737.493
187.242	21.178	930.553	736.442
188.256	21.310	929.800	736.341
189.271	21.389	928.866	735.867
190.286	20.943	928.242	733.431
191.300	20.382	926.369	729.531
192.315	19.557	925.503	725.319
193.329	19.652	924.871	725.157
194.344	20.452	925.389	728.859
195.359	20.901	925.672	730.900
196.373	21.073	924.407	730.560
197.388	20.898	923.721	729.217
198.402	21.075	922.813	729.177
199.417	20.943	922.779	728.534
200.432	20.785	921.212	726.575
201.446	20.459	920.643	724.698
202.461	20.508	920.475	724.709
203.475	19.735	918.418	719.809
204.490	19.130	916.958	716.085
205.504	20.069	917.607	720.432
206.519	20.688	917.133	722.569
207.534	20.661	917.126	722.387
208.548	21.343	916.443	724.612
209.563	20.821	915.639	721.752
210.577	20.832	914.907	721.156
211.592	21.168	914.793	722.394
212.607	21.284	913.642	721.900
213.621	21.311	913.021	721.456
214.636	21.253	912.467	720.717
215.650	21.137	911.727	719.591
216.665	21.316	910.961	719.659
217.680	21.218	910.222	718.607
218.694	20.771	908.880	715.647
219.709	20.603	908.367	714.489
220.723	20.970	908.488	716.029
221.738	21.085	907.452	715.623
222.753	21.100	906.436	714.817
223.767	21.107	906.428	714.779
224.782	21.424	905.837	715.546
225.796	21.289	905.290	714.499
226.811	20.766	903.500	710.889
227.826	20.008	902.626	707.045
228.840	20.366	901.959	707.920
229.855	20.285	901.338	707.037
230.869	20.032	900.528	705.310
231.884	20.364	900.707	706.738
232.899	21.095	900.603	709.571
233.913	20.964	899.821	708.358
234.928	20.931	898.877	707.418
235.942	20.896	898.556	706.961
236.957	20.697	897.630	705.362
237.972	20.745	896.801	704.847
238.986	20.838	896.303	704.766
240.001	20.986	895.734	704.856
241.015	20.864	895.545	704.150
242.030	20.931	895.103	704.013
243.045	21.083	894.397	704.010
244.059	21.199	894.031	704.124
245.074	21.120	893.007	702.938
246.088	20.636	891.848	700.017
247.103	20.951	891.546	700.985
248.117	21.341	891.897	702.766
249.132	21.722	891.140	703.638
250.147	21.825	890.130	703.193
251.161	21.926	890.080	703.495
252.176	21.750	889.598	702.346
253.190	21.953	889.172	702.760
254.205	22.074	888.535	702.679
255.220	22.184	887.419	702.174
256.234	21.878	887.126	700.659
257.249	21.724	886.327	699.353
258.263	21.832	885.487	699.057
259.278	21.904	884.791	698.733
260.293	22.000	884.165	698.559
261.307	21.790	883.650	697.256
262.322	21.528	882.910	695.569
263.336	20.861	880.411	690.895
264.351	19.949	878.581	685.785
265.366	19.851	878.517	685.288
266.380	21.016	879.375	690.509
267.395	21.519	878.583	691.818
268.409	21.466	877.829	690.953
269.424	21.691	877.527	691.543
270.439	21.714	877.387	691.460
271.453	21.804	876.588	691.126
272.468	21.792	877.006	691.348
273.482	22.100	875.614	691.402
274.497	21.639	874.520	688.664
275.512	21.170	873.456	685.921
276.526	21.691	873.426	687.881
277.541	21.812	873.234	688.147
278.555	21.508	872.375	686.216
279.570	21.326	871.689	684.901
280.585	21.582	871.082	685.368
281.599	21.503	870.281	684.367
282.614	20.906	868.790	680.803
283.628	20.995	868.532	680.888
284.643	21.281	868.092	681.599
285.657	21.038	866.718	679.515
286.672	20.732	866.279	677.918
287.687	21.382	866.263	680.375
288.701	21.369	865.510	679.672
289.716	21.191	864.482	678.115
290.730	21.067	863.828	677.060
291.745	20.664	863.141	674.897
292.760	21.044	862.967	676.176
293.774	21.815	863.560	679.570
294.789	22.234	862.927	680.633
295.803	22.364	862.691	680.893
296.818	22.209	862.058	679.733
297.833	21.872	860.721	677.316
298.847	21.711	860.068	676.123
299.862	21.984	859.866	676.957
300.876	22.358	859.759	678.253
301.891	22.125	858.596	676.382
302.906	21.679	858.110	674.220
303.920	21.910	857.595	674.644
304.935	22.246	857.251	675.606
305.949	22.205	856.622	674.895
306.964	21.978	856.023	673.490
307.979	22.106	855.194	673.269
308.993	22.440	854.923	674.275
310.008	22.294	854.570	673.377
311.022	22.172	854.063	672.451
312.037	21.880	853.376	670.738
313.052	21.631	852.577	669.097
314.066	20.937	850.622	664.856
315.081	20.681	849.995	663.334
316.095	21.477	850.225	666.488
317.110	21.885	849.913	667.737
318.125	21.100	848.328	663.449
319.139	20.090	847.196	658.671
320.154	20.037	846.899	658.179
321.168	20.961	847.225	661.885
322.183	21.764	847.276	664.913
323.197	21.738	846.814	664.394
324.212	21.924	846.592	664.865
325.227	22.042	845.983	664.775
326.241	22.020	845.056	663.903
327.256	21.733	844.714	662.492
328.270	21.716	844.134	661.914
329.285	21.588	843.104	660.565
330.300	21.353	842.697	659.300
331.314	21.705	841.601	659.710
332.329	21.951	841.821	660.750
333.343	22.174	841.225	661.064
334.358	22.012	841.141	660.330
335.373	22.201	840.462	660.447
336.387	22.485	840.753	661.686
337.402	22.573	840.174	661.500
338.416	22.479	840.010	660.962
339.431	22.524	839.886	660.976
340.446	22.616	839.544	660.989
341.460	22.615	838.826	660.364
342.475	22.305	838.398	658.807
343.489	22.485	837.574	658.776
344.504	22.623	837.940	659.520
345.519	22.892	837.058	659.771
346.533	22.915	836.877	659.658
347.548	22.914	836.106	658.988
348.562	22.893	835.734	658.557
349.577	22.794	835.150	657.671
350.592	22.849	834.324	657.166
351.606	22.823	833.399	656.284
352.621	22.705	832.587	655.149
353.635	22.518	832.318	654.183
354.650	21.960	830.492	650.623
355.665	20.993	829.092	645.889
356.679	21.391	829.083	647.300
357.694	22.023	828.431	649.067
358.708	21.784	827.985	647.779
359.723	22.217	828.157	649.456
360.738	22.691	827.445	650.589
361.752	22.638	826.839	649.858
362.767	23.127	826.684	651.481
363.781	23.177	826.311	651.315
364.796	23.302	825.899	651.390
365.810	23.206	825.631	650.769
366.825	23.229	825.240	650.489
367.840	23.068	824.013	648.873
368.854	22.603	823.103	646.395
369.869	22.576	823.194	646.311
370.883	22.777	822.527	646.465
371.898	22.574	822.291	645.478
372.913	22.541	822.063	645.120
373.927	22.774	821.692	645.627
374.942	22.942	821.109	645.726
375.956	22.863	820.907	645.220
376.971	23.143	820.333	645.735
377.986	23.207	819.870	645.545
379.000	23.107	819.447	644.792
380.015	22.971	818.380	643.401
381.029	23.021	818.503	643.622
382.044	23.230	817.717	643.707
383.059	23.427	816.797	643.639
384.073	23.403	816.132	642.974
385.088	23.085	816.031	641.682
386.102	23.054	815.102	640.783
387.117	23.026	814.531	640.176
388.132	22.571	813.530	637.688
389.146	22.163	812.677	635.488
390.161	22.534	812.853	636.911
391.175	22.949	812.303	637.921
392.190	22.681	811.018	635.890
393.205	21.281	809.273	629.424
394.219	19.907	807.440	623.003
395.234	19.900	807.378	622.873
396.248	21.329	809.204	629.376
397.263	22.816	810.024	635.316
398.278	22.669	809.221	634.100
399.292	22.469	808.595	632.837
400.307	22.641	808.124	633.029
401.321	22.681	807.890	632.934
402.336	23.076	807.467	633.962
403.350	23.332	807.493	634.843
404.365	23.611	807.627	635.892
405.380	23.887	807.155	636.451
406.394	23.778	806.653	635.611
407.409	23.739	806.070	634.954
408.423	23.973	805.164	635.020
409.438	23.807	805.310	634.489
410.453	23.869	804.856	634.295
411.467	23.978	804.240	634.142
412.482	23.713	804.101	633.030
413.496	23.992	803.444	633.450
414.511	23.929	802.956	632.787
415.526	23.954	802.321	632.319
416.540	23.743	801.829	631.124
417.555	23.647	800.878	629.980
418.569	23.642	800.726	629.789
419.584	23.528	800.668	629.282
420.599	23.334	799.963	627.984
421.613	155.762	1365.419	1796.922
422.628	135.133	1447.827	1797.032
