DTS Sentinel unit serial number:	SN413079Multiplexer serial number:	ORYXHardware model number:	OX4-SRSoftware version number:	ORYX F/W v4.00 Oryx Data Collector v3.7.2.0data status	okinstallation	princeton_trtdifferential loss correction	single-endedforward channel	channel 1reverse channel	N/Adate	2019/09/15time	00:46:35forward acquisition time	60.00reverse acquisition time	0.00gamma	496.2192k internal	0.2320k external	0.2320temperature offset calibration	0.9989default loss term (dB/km)	0.3790temperature slope calibration	1.0000multiplexer offset coefficient	1.0000multiplexer slope coefficient	1.0000fibre end	0.00T internal ref (°C)	32.06T ext. ref 1 (°C)	4.57T ext. ref 2 (°C)	27.04length (m)	temperature (°C)	Stokes	anti-Stokes-747.200	-18.443	-0.085	0.053
-746.185	71.298	-0.109	0.114
-745.171	800.000	0.028	-0.113
-744.156	-103.787	0.119	0.028
-743.142	-103.329	0.213	-0.051
-742.127	-200.000	-0.005	0.157
-741.112	-200.000	0.021	0.122
-740.098	-29.429	-0.213	-0.123
-739.083	707.859	0.129	0.346
-738.069	-200.000	-0.006	0.518
-737.054	58.952	-0.374	0.371
-736.039	-200.000	-0.009	-0.271
-735.025	800.000	-0.054	-0.227
-734.010	0.624	-0.266	-0.192
-732.996	-200.000	-0.019	-0.124
-731.981	-137.150	-0.423	0.049
-730.966	-85.549	0.157	0.049
-729.952	800.000	-0.151	-0.432
-728.937	24.813	-0.109	-0.091
-727.923	-168.532	-0.304	-0.012
-726.908	671.968	-0.073	-0.191
-725.894	-133.075	0.121	0.015
-724.879	-1.511	-0.381	0.272
-723.864	-84.846	0.172	-0.054
-722.850	-200.000	-0.006	-0.049
-721.835	800.000	0.061	-0.181
-720.821	20.408	0.221	0.181
-719.806	-51.785	-0.385	0.181
-718.791	177.667	-0.073	-0.107
-717.777	-95.786	-0.368	0.099
-716.762	-200.000	0.020	0.153
-715.748	-200.000	0.035	-0.355
-714.733	-115.091	0.162	-0.031
-713.718	127.231	0.111	0.143
-712.704	172.018	0.028	0.040
-711.689	-50.262	-0.073	-0.035
-710.675	220.063	0.039	-0.063
-709.660	-109.422	-0.592	-0.127
-708.645	273.212	0.102	0.183
-707.631	-147.351	0.253	0.022
-706.616	112.559	-0.278	-0.340
-705.602	-3.678	-0.184	0.129
-704.587	-30.970	-0.084	0.048
-703.572	264.492	0.070	0.123
-702.558	-200.000	0.014	-0.099
-701.543	-164.237	0.041	-0.002
-700.529	403.420	0.093	-0.198
-699.514	255.172	-0.143	0.247
-698.499	-21.898	-0.269	-0.165
-697.485	-151.306	0.197	0.015
-696.470	604.753	0.093	-0.234
-695.456	-146.691	-0.087	-0.008
-694.441	220.488	0.122	0.197
-693.426	611.759	-0.036	-0.091
-692.412	121.370	-0.062	0.078
-691.397	455.641	-0.065	-0.145
-690.383	-103.671	0.026	0.006
-689.368	-102.847	0.085	-0.020
-688.354	-127.654	0.353	0.051
-687.339	247.935	-0.150	0.256
-686.324	-200.000	0.034	0.230
-685.310	36.680	-0.285	-0.254
-684.295	-200.000	-0.019	-0.092
-683.281	-59.986	0.157	-0.068
-682.266	-34.275	-0.039	0.021
-681.251	274.784	0.053	0.094
-680.237	-200.000	0.037	0.295
-679.222	-200.000	-0.005	-0.027
-678.208	800.000	0.088	-0.275
-677.193	-21.795	-0.226	-0.139
-676.178	-200.000	-0.000	-0.071
-675.164	-32.792	0.148	-0.083
-674.149	-145.654	0.035	-0.003
-673.135	-59.107	-0.160	0.070
-672.120	246.422	-0.388	0.659
-671.105	-200.000	0.040	0.181
-670.091	-128.105	0.202	-0.029
-669.076	161.990	0.053	-0.075
-668.062	46.900	-0.151	-0.142
-667.047	-200.000	0.050	0.270
-666.032	304.189	0.081	-0.152
-665.018	3.468	0.176	-0.129
-664.003	-59.417	-0.196	0.085
-662.989	95.818	-0.075	-0.086
-661.974	-200.000	-0.004	-0.177
-660.959	91.864	-0.117	0.133
-659.945	-78.852	-0.078	-0.027
-658.930	-89.537	0.181	-0.053
-657.916	134.513	0.048	0.062
-656.901	-67.889	0.218	0.086
-655.886	-93.427	-0.369	0.103
-654.872	-118.886	0.343	0.061
-653.857	-70.253	0.238	-0.091
-652.843	-9.124	-0.267	0.180
-651.828	-121.832	-0.224	0.037
-650.814	-154.000	0.054	-0.004
-649.799	-200.000	0.002	-0.087
-648.784	260.976	0.060	-0.105
-647.770	-164.919	-0.545	-0.025
-646.755	31.422	-0.146	-0.126
-645.741	-118.196	-0.095	0.017
-644.726	-145.315	-0.085	-0.008
-643.711	298.026	0.084	-0.155
-642.697	147.410	0.329	0.447
-641.682	-132.530	-0.080	0.010
-640.668	757.017	-0.133	-0.362
-639.653	-10.446	-0.188	-0.125
-638.638	386.962	0.110	-0.230
-637.624	46.494	-0.248	-0.232
-636.609	-200.000	0.052	0.470
-635.595	246.515	0.161	-0.273
-634.580	-92.650	0.053	0.015
-633.565	-146.271	-0.214	0.019
-632.551	166.367	-0.201	-0.287
-631.536	-200.000	-0.011	-0.234
-630.522	107.170	-0.171	0.204
-629.507	288.321	-0.071	-0.130
-628.492	-60.963	-0.072	-0.031
-627.478	-200.000	0.004	-0.111
-626.463	268.665	0.051	0.090
-625.449	-109.245	-0.189	-0.040
-624.434	-75.068	-0.212	0.076
-623.419	137.418	-0.087	-0.114
-622.405	-63.759	0.241	-0.099
-621.390	-36.825	-0.107	-0.058
-620.376	-13.963	0.172	-0.112
-619.361	-152.483	-0.421	-0.030
-618.346	-71.737	-0.218	-0.082
-617.332	800.000	-0.041	0.152
-616.317	687.407	0.065	0.172
-615.303	-5.240	-0.037	-0.026
-614.288	108.982	-0.074	0.089
-613.273	107.888	-0.079	-0.094
-612.259	323.322	-0.086	-0.165
-611.244	65.535	0.062	-0.063
-610.230	91.403	0.112	0.127
-609.215	-158.964	-0.225	0.013
-608.201	-87.753	-0.309	0.094
-607.186	-200.000	-0.006	0.223
-606.171	161.551	0.072	0.101
-605.157	155.531	-0.061	-0.084
-604.142	51.818	0.097	0.092
-603.128	-46.060	0.198	-0.098
-602.113	532.900	-0.069	0.163
-601.098	-142.514	0.174	0.017
-600.084	-15.396	0.086	-0.056
-599.069	-91.509	-0.417	-0.120
-598.055	21.507	0.186	-0.152
-597.040	139.462	-0.179	-0.236
-596.025	-200.000	-0.001	0.449
-595.011	800.000	-0.021	0.088
-593.996	-21.903	-0.222	-0.135
-592.982	200.538	0.250	-0.386
-591.967	99.447	-0.364	-0.423
-590.952	63.258	0.135	0.136
-589.938	39.047	0.224	-0.201
-588.923	-46.947	-0.093	0.046
-587.909	-196.851	-0.113	0.001
-586.894	-200.000	-0.034	-0.290
-585.879	216.107	-0.073	0.117
-584.865	120.929	0.319	-0.399
-583.850	-46.559	0.083	-0.041
-582.836	38.584	0.335	0.300
-581.821	-28.331	0.260	0.151
-580.806	-128.632	-0.117	0.017
-579.792	800.000	-0.047	0.138
-578.777	-200.000	0.006	0.130
-577.763	246.231	-0.061	0.103
-576.748	-83.239	-0.323	-0.104
-575.733	253.723	-0.101	0.173
-574.719	-200.000	-0.027	0.146
-573.704	-109.246	-0.258	-0.055
-572.690	433.552	-0.205	0.448
-571.675	800.000	-0.109	0.341
-570.661	209.933	-0.055	0.087
-569.646	510.008	-0.118	0.276
-568.631	255.894	-0.069	0.118
-567.617	18.112	-0.248	-0.199
-566.602	-63.510	0.282	0.117
-565.588	800.000	-0.028	0.093
-564.573	512.958	0.062	0.144
-563.558	-147.525	0.319	-0.027
-562.544	147.518	0.200	0.270
-561.529	-66.477	0.267	0.106
-560.515	519.553	0.109	0.256
-559.500	-200.000	0.002	0.168
-558.485	800.000	0.033	0.096
-557.471	-200.000	-0.011	0.299
-556.456	-200.000	0.033	-0.165
-555.442	-200.000	-0.006	0.042
-554.427	-173.963	-0.329	-0.010
-553.412	800.000	0.123	-0.509
-552.398	-118.149	0.200	-0.036
-551.383	800.000	0.035	0.142
-550.369	-59.711	-0.117	0.050
-549.354	-100.276	0.052	-0.013
-548.339	-140.060	-0.189	-0.020
-547.325	11.672	-0.128	0.098
-546.310	1.407	-0.070	0.050
-545.296	-74.307	0.336	0.122
-544.281	200.010	0.169	0.261
-543.266	41.667	-0.246	-0.224
-542.252	-153.777	0.251	-0.017
-541.237	91.878	0.057	0.064
-540.223	-200.000	0.003	0.047
-539.208	-25.819	-0.288	0.170
-538.193	12.399	-0.158	0.122
-537.179	-176.587	0.075	0.002
-536.164	77.629	-0.324	0.346
-535.150	800.000	-0.021	-0.083
-534.135	-76.858	0.197	-0.069
-533.121	-64.336	-0.130	-0.053
-532.106	-200.000	0.015	0.123
-531.091	671.105	0.117	0.304
-530.077	168.458	-0.104	-0.148
-529.062	142.265	0.199	-0.265
-528.048	800.000	-0.090	0.254
-527.033	12.417	-0.170	0.131
-526.018	-120.024	-0.133	-0.023
-525.004	561.835	0.106	-0.258
-523.989	-117.034	0.393	0.072
-522.975	-138.513	0.116	0.013
-521.960	-3.664	0.211	-0.147
-520.945	800.000	-0.024	0.096
-519.931	2.434	0.264	0.192
-518.916	-145.998	0.275	0.024
-517.902	-12.816	0.161	0.105
-516.887	800.000	0.084	0.309
-515.872	84.774	-0.119	-0.130
-514.858	-164.733	0.355	0.016
-513.843	800.000	-0.109	-0.317
-512.829	-112.141	0.187	-0.038
-511.814	62.437	0.131	-0.131
-510.799	-200.000	-0.084	0.375
-509.785	67.754	-0.039	0.040
-508.770	-200.000	0.026	-0.296
-507.756	-126.864	-0.514	0.076
-506.741	358.158	0.095	0.191
-505.726	-58.104	-0.219	-0.096
-504.712	-172.933	-0.100	-0.003
-503.697	78.220	-0.026	-0.028
-502.683	-200.000	-0.012	-0.076
-501.668	-162.701	-0.340	-0.017
-500.653	-139.039	0.223	-0.024
-499.639	-200.000	0.015	-0.171
-498.624	800.000	-0.078	-0.229
-497.610	-200.000	0.043	0.345
-496.595	-60.988	-0.076	-0.032
-495.581	-200.000	-0.033	-0.152
-494.566	384.483	0.136	-0.282
-493.551	-38.475	-0.366	0.194
-492.537	9.095	-0.136	0.103
-491.522	84.893	0.311	-0.341
-490.508	-200.000	-0.018	0.159
-489.493	43.525	0.167	-0.153
-488.478	211.817	-0.122	0.192
-487.464	108.342	0.205	0.245
-486.449	184.849	-0.106	-0.158
-485.435	-200.000	0.046	-0.256
-484.420	800.000	-0.107	-0.369
-483.405	59.390	0.056	0.055
-482.391	233.410	0.189	0.312
-481.376	36.457	-0.127	0.112
-480.362	338.355	0.045	-0.089
-479.347	59.852	0.014	0.014
-478.332	44.447	0.049	0.045
-477.318	344.893	-0.080	0.156
-476.303	-78.147	-0.123	0.042
-475.289	61.872	0.109	-0.109
-474.274	-139.060	0.051	0.006
-473.259	103.988	-0.145	-0.171
-472.245	-134.244	-0.207	0.026
-471.230	280.737	-0.034	0.061
-470.216	-100.111	0.075	0.019
-469.201	524.537	-0.066	-0.154
-468.186	15.256	0.165	0.130
-467.172	-116.156	-0.115	-0.021
-466.157	-157.444	0.262	0.016
-465.143	800.000	-0.065	-0.275
-464.128	-63.696	-0.301	-0.123
-463.113	16.497	0.231	0.182
-462.099	-200.000	0.007	-0.119
-461.084	501.786	0.132	-0.305
-460.070	22.927	0.146	-0.120
-459.055	-154.482	0.183	0.012
-458.040	-154.455	0.137	-0.009
-457.026	-20.937	0.166	-0.101
-456.011	122.228	0.095	-0.119
-454.997	-110.403	0.093	0.019
-453.982	-87.230	0.209	-0.063
-452.968	-84.288	-0.182	0.058
-451.953	-13.943	-0.229	-0.148
-450.938	800.000	0.084	-0.242
-449.924	-200.000	-0.022	0.294
-448.909	697.079	0.024	-0.062
-447.895	156.503	-0.105	-0.144
-446.880	-200.000	-0.009	-0.136
-445.865	-114.356	-0.035	0.007
-444.851	670.956	0.066	0.170
-443.836	-141.349	-0.075	0.008
-442.822	-174.376	0.219	-0.006
-441.807	591.330	-0.020	0.050
-440.792	-181.247	0.102	0.002
-439.778	27.541	-0.100	-0.084
-438.763	-116.570	0.068	-0.013
-437.749	-200.000	-0.050	0.273
-436.734	-90.666	0.041	0.012
-435.719	-5.426	-0.221	0.151
-434.705	-200.000	0.008	-0.062
-433.690	-92.440	0.298	0.084
-432.676	-119.163	0.263	-0.046
-431.661	-195.489	-0.142	0.001
-430.646	-200.000	0.053	-0.415
-429.632	-17.442	-0.094	0.059
-428.617	168.443	-0.223	0.317
-427.603	-4.968	-0.179	-0.123
-426.588	-200.000	0.027	0.163
-425.573	800.000	0.043	-0.144
-424.559	-200.000	-0.001	-0.104
-423.544	-200.000	-0.034	-0.337
-422.530	-85.947	0.334	0.103
-421.515	-13.649	-0.304	0.196
-420.500	-10.471	0.282	-0.187
-419.486	512.306	0.065	-0.151
-418.471	-38.022	0.181	0.096
-417.457	-200.000	0.010	0.153
-416.442	-200.000	-0.071	0.372
-415.428	141.106	0.177	0.234
-414.413	57.078	-0.111	-0.108
-413.398	104.614	-0.311	-0.365
-412.384	-83.396	0.223	0.071
-411.369	596.418	0.080	0.199
-410.355	800.000	-0.039	-0.138
-409.340	-175.105	-0.322	0.009
-408.325	-200.000	0.016	0.120
-407.311	-74.190	-0.152	0.055
-406.296	-55.085	-0.030	-0.013
-405.282	-6.228	0.135	-0.092
-404.267	-28.565	0.202	-0.116
-403.252	-43.307	-0.204	0.103
-402.238	-190.651	0.356	0.004
-401.223	800.000	0.090	-0.248
-400.209	-200.000	-0.006	-0.237
-399.194	-18.863	0.185	0.115
-398.179	2.186	-0.065	-0.047
-397.165	-200.000	-0.023	0.347
-396.150	-97.867	-0.268	-0.069
-395.136	71.255	-0.136	-0.141
-394.121	-200.000	0.032	0.220
-393.106	141.229	0.046	-0.061
-392.092	-120.147	-0.252	0.043
-391.077	211.225	0.170	0.266
-390.063	-139.301	0.186	0.020
-389.048	-10.410	-0.029	-0.019
-388.033	80.908	-0.157	-0.169
-387.019	405.614	0.140	0.294
-386.004	-200.000	0.027	0.172
-384.990	-200.000	0.002	-0.097
-383.975	-131.398	0.119	0.016
-382.960	-200.000	0.016	-0.212
-381.946	-19.381	0.122	0.076
-380.931	-142.679	-0.066	-0.006
-379.917	65.079	0.117	-0.118
-378.902	552.816	0.041	-0.098
-377.888	-200.000	-0.030	0.202
-376.873	317.638	-0.049	0.093
-375.858	421.218	0.040	-0.086
-374.844	693.108	0.049	0.129
-373.829	57.525	0.171	0.166
-372.815	-3.626	-0.362	-0.251
-371.800	52.524	-0.257	0.244
-370.785	-15.291	-0.081	0.052
-369.771	136.393	0.221	0.287
-368.756	-62.219	0.294	-0.122
-367.742	-200.000	0.007	-0.065
-366.727	800.000	0.044	-0.170
-365.712	-151.653	0.094	-0.007
-364.698	-200.000	0.001	0.080
-363.683	184.755	0.123	0.181
-362.669	-48.002	0.114	-0.055
-361.654	446.729	-0.040	0.089
-360.639	328.515	0.044	-0.085
-359.625	306.247	-0.222	-0.412
-358.610	75.150	0.226	-0.237
-357.596	171.894	-0.092	-0.131
-356.581	-200.000	0.006	-0.069
-355.566	-115.280	-0.299	-0.056
-354.552	-200.000	0.060	0.327
-353.537	-150.001	-0.169	0.013
-352.523	170.096	-0.108	0.154
-351.508	98.697	-0.066	0.076
-350.493	-90.073	-0.459	-0.133
-349.479	267.232	-0.089	0.154
-348.464	-200.000	0.004	-0.031
-347.450	14.803	-0.131	-0.102
-346.435	310.132	0.095	0.178
-345.420	6.558	-0.101	-0.075
-344.406	215.427	0.089	0.140
-343.391	-200.000	-0.107	-0.477
-342.377	29.070	0.114	-0.096
-341.362	582.541	0.034	-0.084
-340.348	-200.000	0.016	-0.101
-339.333	525.244	-0.201	-0.471
-338.318	-200.000	-0.011	0.177
-337.304	-200.000	0.000	0.169
-336.289	-113.756	-0.087	0.017
-335.275	107.804	-0.121	0.144
-334.260	-77.584	-0.208	0.072
-333.245	40.624	0.146	0.130
-332.231	169.355	0.172	-0.244
-331.216	-61.649	0.040	0.017
-330.202	512.248	0.123	-0.284
-329.187	436.663	-0.125	-0.272
-328.172	-122.980	-0.208	-0.033
-327.158	-200.000	-0.001	-0.052
-326.143	800.000	0.026	-0.073
-325.129	-70.141	-0.236	-0.089
-324.114	-136.931	0.213	-0.024
-323.099	660.409	-0.020	-0.051
-322.085	26.941	-0.179	0.149
-321.070	140.102	-0.054	0.070
-320.056	36.018	-0.137	-0.120
-319.041	494.553	0.044	-0.101
-318.026	-154.257	0.128	-0.009
-317.012	-200.000	0.020	0.272
-315.997	-200.000	0.023	0.286
-314.983	-41.560	-0.103	-0.052
-313.968	240.050	-0.011	0.018
-312.953	212.212	0.172	0.270
-311.939	39.077	0.130	-0.115
-310.924	-68.414	0.111	0.043
-309.910	-200.000	-0.002	-0.135
-308.895	-42.630	0.054	0.027
-307.880	427.327	0.115	0.247
-306.866	278.236	0.076	-0.134
-305.851	240.659	-0.036	0.059
-304.837	800.000	-0.087	-0.359
-303.822	-69.600	0.115	0.044
-302.807	-92.336	-0.316	-0.089
-301.793	-200.000	-0.004	-0.064
-300.778	75.337	-0.108	-0.113
-299.764	200.124	-0.102	0.156
-298.749	-142.092	0.124	-0.012
-297.735	135.554	0.063	0.082
-296.720	189.921	0.110	-0.164
-295.705	-2.476	0.183	-0.128
-294.691	166.328	0.087	-0.122
-293.676	-3.360	-0.221	-0.153
-292.662	-200.000	0.003	-0.234
-291.647	23.783	0.255	-0.209
-290.632	800.000	0.115	0.374
-289.618	738.175	0.116	0.310
-288.603	466.882	0.048	0.107
-287.589	-29.768	0.180	-0.102
-286.574	27.142	0.159	0.133
-285.559	113.707	-0.085	-0.103
-284.545	-140.121	0.164	-0.017
-283.530	800.000	-0.112	-0.383
-282.516	-200.000	0.020	0.118
-281.501	-104.705	-0.114	-0.026
-280.486	-151.200	0.422	-0.031
-279.472	163.534	-0.164	-0.229
-278.457	289.171	0.071	0.128
-277.443	800.000	-0.017	0.067
-276.428	800.000	-0.026	0.079
-275.413	-127.328	0.221	-0.032
-274.399	-137.723	0.187	-0.021
-273.384	-200.000	-0.029	-0.442
-272.370	-200.000	0.043	0.208
-271.355	-128.956	-0.465	-0.065
-270.340	-36.205	0.130	0.070
-269.326	-17.009	0.054	-0.034
-268.311	-69.554	0.180	-0.068
-267.297	-182.494	-0.171	0.003
-266.282	-55.026	0.310	-0.138
-265.267	230.748	-0.030	-0.048
-264.253	111.718	-0.174	0.208
-263.238	-80.937	0.314	0.103
-262.224	-48.013	0.150	-0.072
-261.209	-6.754	0.132	0.089
-260.195	133.704	0.141	-0.181
-259.180	-200.000	-0.003	-0.082
-258.165	-44.509	-0.185	-0.092
-257.151	197.262	-0.165	-0.249
-256.136	-13.263	0.048	0.031
-255.122	-52.987	0.064	0.029
-254.107	-200.000	-0.019	0.326
-253.092	210.238	0.167	-0.259
-252.078	-98.067	-0.401	-0.102
-251.063	90.780	-0.072	-0.080
-250.049	476.774	0.069	0.154
-249.034	26.609	-0.216	0.179
-248.019	698.926	0.171	0.447
-247.005	-21.531	-0.079	-0.048
-245.990	63.989	0.122	-0.122
-244.976	-44.990	0.224	-0.111
-243.961	58.300	-0.230	-0.223
-242.946	-12.866	-0.087	0.056
-241.932	220.773	-0.131	-0.208
-240.917	-85.755	-0.228	0.070
-239.903	613.690	-0.097	-0.240
-238.888	31.898	0.371	-0.317
-237.873	-135.198	-0.211	-0.025
-236.859	-200.000	0.021	0.288
-235.844	243.872	0.184	0.307
-234.830	-93.987	0.208	-0.057
-233.815	17.934	-0.050	0.039
-232.800	-200.000	-0.026	0.153
-231.786	-200.000	0.044	0.335
-230.771	-127.019	0.282	-0.041
-229.757	-172.491	0.315	0.010
-228.742	-81.458	-0.321	-0.105
-227.727	-112.000	0.194	0.039
-226.713	-108.567	-0.459	0.098
-225.698	-62.733	0.219	-0.090
-224.684	1.049	-0.185	0.132
-223.669	-200.000	-0.044	-0.315
-222.655	-143.263	0.348	0.033
-221.640	-21.344	-0.085	-0.051
-220.625	-200.000	0.020	-0.113
-219.611	-200.000	0.056	-0.258
-218.596	800.000	0.093	0.299
-217.582	-200.000	-0.037	0.341
-216.567	-64.907	0.274	-0.110
-215.552	55.839	0.083	0.080
-214.538	110.609	0.124	0.147
-213.523	-200.000	-0.047	0.373
-212.509	497.244	0.155	-0.353
-211.494	-80.256	-0.121	-0.040
-210.479	251.126	-0.167	0.282
-209.465	-62.364	0.097	0.040
-208.450	14.983	0.019	-0.015
-207.436	-125.854	0.161	-0.024
-206.421	-200.000	-0.010	0.281
-205.406	-200.000	0.005	-0.316
-204.392	411.124	-0.106	0.223
-203.377	-0.392	0.464	0.327
-202.363	-82.642	-0.208	-0.067
-201.348	224.611	-0.336	-0.537
-200.333	800.000	-0.094	-0.273
-199.319	-189.060	-0.055	-0.001
-198.304	-89.237	-0.111	0.033
-197.290	143.509	-0.244	-0.322
-196.275	800.000	-0.072	0.236
-195.260	-82.232	-0.158	-0.051
-194.246	18.982	0.251	0.199
-193.231	413.771	-0.074	0.157
-192.217	-40.876	-0.340	0.174
-191.202	-42.871	0.041	0.020
-190.187	-112.427	-0.281	0.056
-189.173	44.655	-0.283	-0.257
-188.158	-42.900	-0.026	-0.013
-187.144	800.000	0.119	0.343
-186.129	-74.247	0.260	0.093
-185.114	71.966	0.212	-0.218
-184.100	-200.000	-0.023	-0.290
-183.085	-200.000	-0.013	0.178
-182.071	-78.006	-0.184	0.063
-181.056	58.872	-0.149	0.145
-180.042	332.544	0.031	0.060
-179.027	280.530	0.119	-0.210
-178.012	800.000	0.074	-0.204
-176.998	-74.493	0.344	0.123
-175.983	-124.470	-0.046	0.007
-174.969	-200.000	-0.009	0.341
-173.954	185.726	-0.144	0.211
-172.939	-11.432	-0.188	0.122
-171.925	800.000	0.020	-0.057
-170.910	-200.000	-0.011	0.260
-169.896	-191.994	0.295	0.003
-168.881	800.000	-0.045	0.186
-167.866	-200.000	0.023	-0.322
-166.852	-64.096	-0.227	-0.092
-165.837	395.031	0.054	0.111
-164.823	-128.711	-0.231	0.032
-163.808	-144.820	0.472	0.043
-162.793	-91.178	-0.122	-0.035
-161.779	683.542	-0.195	-0.503
-160.764	159.922	-0.048	0.066
-159.750	-90.638	-0.293	-0.084
-158.735	-200.000	0.028	0.335
-157.720	-84.822	0.364	-0.113
-156.706	744.471	0.071	0.188
-155.691	0.779	-0.024	-0.017
-154.677	-97.012	-0.139	0.036
-153.662	-200.000	0.015	0.110
-152.647	-60.493	0.377	0.158
-151.633	-30.480	0.163	-0.091
-150.618	131.199	0.245	0.311
-149.604	-182.844	0.201	0.004
-148.589	-200.000	0.015	-0.528
-147.574	-158.382	0.168	0.010
-146.560	800.000	0.039	0.127
-145.545	-200.000	-0.039	0.440
-144.531	-74.956	0.018	-0.006
-143.516	-48.528	0.580	0.276
-142.502	-36.970	0.051	-0.027
-141.487	189.352	0.100	-0.148
-140.472	800.000	0.103	0.344
-139.458	643.731	0.014	0.034
-138.443	79.848	-0.047	0.050
-137.429	-46.690	0.168	-0.081
-136.414	-200.000	-0.028	-0.384
-135.399	-200.000	-0.029	0.306
-134.385	136.991	0.125	-0.161
-133.370	-140.593	0.183	-0.019
-132.356	-60.698	-0.420	-0.176
-131.341	613.074	0.228	-0.564
-130.326	153.430	0.158	-0.214
-129.312	19.437	-0.314	0.249
-128.297	61.753	0.124	-0.122
-127.283	800.000	-0.029	-0.123
-126.268	168.715	0.044	-0.062
-125.253	-200.000	0.022	0.104
-124.239	-200.000	0.002	0.266
-123.224	800.000	0.057	-0.237
-122.210	-103.056	0.106	-0.025
-121.195	-45.367	0.091	0.045
-120.180	-200.000	-0.008	0.094
-119.166	107.953	0.089	-0.104
-118.151	241.425	-0.133	-0.219
-117.137	800.000	-0.074	-0.288
-116.122	32.834	0.092	-0.078
-115.107	-73.795	-0.361	0.129
-114.093	141.169	-0.311	0.406
-113.078	-55.289	-0.111	-0.049
-112.064	-200.000	0.014	0.163
-111.049	-134.409	-0.255	-0.031
-110.034	343.758	-0.031	0.061
-109.020	22.646	0.093	0.075
-108.005	239.789	-0.076	0.124
-106.991	17.814	-0.091	-0.072
-105.976	-75.073	-0.221	0.078
-104.962	773.493	-0.102	0.274
-103.947	-157.482	-0.295	0.017
-102.932	64.987	0.036	-0.036
-101.918	-129.634	0.276	-0.038
-100.903	669.009	0.055	0.141
-99.889	545.355	0.137	0.323
-98.874	-26.556	0.037	0.021
-97.859	142.473	-0.075	-0.099
-96.845	800.000	-0.067	0.228
-95.830	618.134	0.093	-0.230
-94.816	800.000	-0.058	-0.178
-93.801	174.883	-0.094	0.135
-92.786	102.012	-0.064	0.074
-91.772	-69.096	0.120	0.046
-90.757	122.368	-0.153	0.188
-89.743	-133.008	0.163	-0.020
-88.728	-200.000	-0.021	-0.128
-87.713	-200.000	-0.011	-0.355
-86.699	-200.000	-0.015	-0.101
-85.684	-49.513	-0.359	-0.169
-84.670	-200.000	0.008	-0.136
-83.655	562.012	-0.139	-0.332
-82.640	-200.000	0.274	0.001
-81.626	-48.932	0.084	0.040
-80.611	-2.645	-0.093	0.064
-79.597	-200.000	0.028	-0.226
-78.582	109.650	0.192	-0.227
-77.567	87.853	-0.117	0.128
-76.553	-69.417	0.390	0.147
-75.538	-69.787	0.176	-0.066
-74.524	-32.319	-0.104	0.057
-73.509	43.766	-0.284	0.256
-72.494	136.607	-0.140	0.180
-71.480	-200.000	-0.010	-0.092
-70.465	375.776	0.087	0.175
-69.451	800.000	0.081	-0.301
-68.436	800.000	0.094	-0.293
-67.422	-81.413	0.408	0.132
-66.407	-6.042	0.191	0.128
-65.392	-120.520	-0.072	-0.012
-64.378	24.535	0.158	-0.129
-63.363	-45.381	-0.244	0.119
-62.349	-11.400	-0.103	0.067
-61.334	-7.766	-1.170	-0.778
-60.319	-40.918	0.599	0.305
-59.305	-200.000	-0.101	-0.720
-58.290	226.035	0.578	0.922
-57.276	297.488	0.794	1.436
-56.261	-200.000	95.732	594.023
-55.246	658.770	1367.877	3463.942
-54.232	199.961	2542.244	3841.188
-53.217	120.288	2139.104	2613.489
-52.203	44.125	1602.771	1446.617
-51.188	35.623	1341.180	1159.442
-50.173	32.447	1299.443	1104.711
-49.159	54.983	1345.949	1279.192
-48.144	57.163	1362.592	1307.945
-47.130	35.728	1322.140	1143.423
-46.115	32.292	1304.566	1107.979
-45.100	32.106	1299.196	1102.285
-44.086	31.784	1297.821	1099.182
-43.071	31.972	1294.661	1097.561
-42.057	31.885	1292.794	1095.427
-41.042	32.003	1290.814	1094.392
-40.027	31.913	1289.865	1093.025
-39.013	31.917	1287.827	1091.275
-37.998	32.003	1285.475	1089.736
-36.984	32.007	1283.994	1088.463
-35.969	31.969	1282.476	1086.914
-34.954	32.066	1280.480	1085.740
-33.940	32.180	1278.794	1084.923
-32.925	32.221	1277.743	1084.228
-31.911	32.220	1276.416	1083.055
-30.896	32.139	1274.865	1081.224
-29.881	32.166	1273.489	1080.170
-28.867	32.246	1271.937	1079.270
-27.852	32.206	1270.529	1077.803
-26.838	32.199	1269.428	1076.787
-25.823	32.277	1267.989	1075.971
-24.809	32.144	1266.988	1074.317
-23.794	32.116	1265.982	1073.264
-22.779	32.118	1264.505	1071.979
-21.765	32.016	1263.352	1070.379
-20.750	32.093	1261.646	1069.326
-19.736	32.063	1260.264	1067.942
-18.721	31.998	1258.989	1066.450
-17.706	31.969	1258.202	1065.581
-16.692	32.002	1256.658	1064.414
-15.677	32.041	1255.631	1063.727
-14.663	32.096	1254.522	1063.052
-13.648	32.128	1252.887	1061.811
-12.633	31.941	1252.976	1060.786
-11.619	31.948	1251.826	1059.809
-10.604	31.933	1250.936	1058.928
-9.590	31.990	1249.765	1058.218
-8.575	31.923	1248.608	1056.818
-7.560	31.855	1248.232	1056.072
-6.546	32.100	1247.001	1056.369
-5.531	32.058	1246.054	1055.289
-4.517	32.019	1245.508	1054.564
-3.502	31.913	1244.710	1053.251
-2.487	31.960	1243.286	1052.267
-1.473	31.990	1239.105	1048.858
-0.458	30.615	1224.349	1028.726
0.556	25.914	1207.258	991.251
1.571	22.270	1212.478	975.282
2.586	21.296	1227.087	981.478
3.600	20.591	1216.337	968.870
4.615	15.746	1145.391	886.791
5.629	8.047	1071.748	791.584
6.644	4.719	1052.339	760.931
7.659	4.483	1049.831	757.899
8.673	4.632	1048.709	757.747
9.688	4.465	1047.436	755.948
10.702	4.601	1045.514	755.153
11.717	9.119	1050.995	781.064
12.731	15.941	1061.701	822.368
13.746	18.755	1064.124	837.924
14.761	18.063	1062.693	833.348
15.775	16.934	1060.797	826.289
16.790	15.925	1058.592	819.590
17.804	15.270	1056.500	814.718
18.819	14.824	1056.024	812.113
19.834	14.632	1055.005	810.322
20.848	14.372	1054.205	808.374
21.863	14.202	1053.214	806.718
22.877	14.133	1052.687	805.909
23.892	13.970	1052.117	804.615
24.907	14.106	1051.307	804.581
25.921	14.166	1049.912	803.730
26.936	14.014	1048.893	802.149
27.950	14.024	1047.396	800.979
28.965	14.194	1045.963	800.630
29.980	14.350	1044.483	800.177
30.994	14.393	1043.177	799.312
32.009	14.393	1042.167	798.469
33.023	14.384	1040.981	797.443
34.038	14.248	1040.477	796.337
35.053	14.261	1039.038	795.227
36.067	14.258	1038.294	794.572
37.082	14.249	1037.356	793.742
38.096	14.264	1037.033	793.497
39.111	14.217	1036.036	792.441
40.126	14.181	1035.067	791.459
41.140	14.086	1033.401	789.661
42.155	13.923	1032.484	788.119
43.169	13.972	1031.136	787.252
44.184	14.011	1030.255	786.695
45.199	13.939	1029.349	785.594
46.213	14.114	1028.183	785.461
47.228	14.154	1027.566	785.107
48.242	14.284	1025.848	784.339
49.257	14.107	1025.259	782.983
50.271	14.089	1025.029	782.656
51.286	14.157	1024.169	782.251
52.301	14.258	1023.158	781.882
53.315	14.061	1021.988	779.994
54.330	14.104	1020.921	779.314
55.344	14.107	1020.057	778.599
56.359	14.080	1019.344	777.860
57.374	14.094	1017.875	776.733
58.388	13.984	1017.082	775.546
59.403	13.926	1016.625	774.859
60.417	13.860	1015.935	773.958
61.432	13.985	1014.669	773.505
62.447	13.893	1013.963	772.472
63.461	13.923	1013.067	771.859
64.476	13.772	1012.374	770.561
65.490	13.823	1011.611	770.153
66.505	13.851	1011.078	769.808
67.520	13.973	1010.469	769.842
68.534	13.929	1009.593	768.902
69.549	13.880	1009.337	768.411
70.563	13.878	1007.994	767.313
71.578	13.868	1007.154	766.560
72.593	13.895	1006.416	766.051
73.607	13.808	1005.587	764.955
74.622	13.777	1005.389	764.594
75.636	13.780	1004.387	763.776
76.651	13.819	1003.975	763.573
77.666	13.982	1002.984	763.505
78.680	13.850	1002.730	762.634
79.695	13.788	1002.292	761.950
80.709	13.979	1001.366	762.054
81.724	13.973	1000.688	761.444
82.739	14.007	1000.192	761.157
83.753	14.228	999.425	761.513
84.768	14.291	998.657	761.151
85.782	14.482	997.400	760.995
86.797	14.307	996.428	759.390
87.812	14.303	995.657	758.720
88.826	14.238	994.690	757.617
89.841	14.287	993.769	757.071
90.855	14.376	993.219	756.989
91.870	14.289	992.519	755.996
92.884	14.305	991.503	755.229
93.899	14.310	990.817	754.659
94.914	14.317	989.885	753.915
95.928	14.273	988.761	752.795
96.943	14.305	988.010	752.298
97.957	14.365	987.433	752.063
98.972	14.381	986.066	751.028
99.987	14.363	985.971	750.811
101.001	14.264	984.783	749.393
102.016	14.240	984.158	748.742
103.030	14.417	982.888	748.506
104.045	14.357	982.080	747.553
105.060	14.132	981.839	746.295
106.074	14.077	980.621	745.058
107.089	14.076	979.508	744.142
108.103	13.934	978.698	742.823
109.118	13.981	977.445	742.017
110.133	14.006	976.642	741.454
111.147	14.021	975.554	740.627
112.162	14.008	975.451	740.426
113.176	14.076	974.219	739.728
114.191	14.093	974.042	739.604
115.206	14.097	972.846	738.651
116.220	14.033	972.150	737.770
117.235	14.225	970.951	737.648
118.249	14.164	970.441	736.926
119.264	14.045	969.903	735.925
120.279	14.018	969.106	735.133
121.293	13.964	967.970	733.970
122.308	13.962	967.297	733.383
123.322	13.990	966.269	732.663
124.337	13.890	965.438	731.530
125.352	13.912	963.980	730.458
126.366	13.821	963.863	729.903
127.381	13.989	962.623	729.636
128.395	13.924	961.474	728.416
129.410	13.955	960.558	727.794
130.424	14.020	960.209	727.751
131.439	14.223	958.890	727.573
132.454	14.159	958.393	726.854
133.468	14.238	957.677	726.590
134.483	14.207	956.635	725.602
135.497	14.222	955.463	724.711
136.512	14.179	955.327	724.359
137.527	14.252	954.167	723.731
138.541	14.217	953.783	723.222
139.556	14.255	952.981	722.718
140.570	14.290	952.859	722.713
141.585	14.205	952.090	721.695
142.600	14.377	951.053	721.591
143.614	14.495	949.584	720.924
144.629	14.381	949.039	719.952
145.643	14.285	948.231	718.863
146.658	14.259	947.270	717.956
147.673	14.283	946.220	717.203
148.687	14.189	945.242	715.994
149.702	14.167	944.326	715.143
150.716	14.187	943.714	714.700
151.731	14.207	943.129	714.281
152.746	14.187	942.338	713.532
153.760	14.284	941.599	713.324
154.775	14.384	941.521	713.632
155.789	14.467	940.542	713.181
156.804	14.436	939.662	712.316
157.819	14.539	938.923	712.133
158.833	14.444	938.667	711.473
159.848	14.532	937.615	710.985
160.862	14.507	936.823	710.218
161.877	14.417	935.753	708.959
162.892	14.227	935.113	707.606
163.906	14.248	934.071	706.841
164.921	14.252	933.313	706.225
165.935	14.367	932.319	705.894
166.950	14.326	931.505	705.045
167.964	14.384	930.820	704.706
168.979	14.293	929.730	703.435
169.994	14.438	928.684	703.194
171.008	14.419	928.249	702.724
172.023	14.539	927.534	702.624
173.037	14.425	926.950	701.643
174.052	14.402	926.262	700.961
175.067	14.455	925.534	700.570
176.081	14.296	924.987	699.428
177.096	14.230	924.634	698.823
178.110	14.428	923.207	698.512
179.125	14.499	922.777	698.422
180.140	14.534	922.814	698.534
181.154	14.485	922.071	697.704
182.169	14.644	921.499	697.874
183.183	14.627	920.881	697.275
184.198	14.488	920.584	696.408
185.213	14.586	919.440	695.890
186.227	14.634	918.819	695.556
187.242	14.774	918.105	695.539
188.256	14.696	917.964	695.045
189.271	14.716	916.702	694.109
190.286	14.575	915.558	692.598
191.300	14.473	914.935	691.640
192.315	14.339	914.388	690.613
193.329	14.468	914.342	691.049
194.344	14.526	913.584	690.656
195.359	14.517	912.814	689.976
196.373	14.630	912.428	690.090
197.388	14.682	912.287	690.138
198.402	14.893	911.531	690.377
199.417	14.873	910.912	689.765
200.432	14.913	910.528	689.577
201.446	15.030	910.112	689.682
202.461	15.123	909.365	689.438
203.475	14.925	908.939	688.242
204.490	14.980	907.584	687.379
205.504	14.942	907.022	686.736
206.519	14.788	906.304	685.500
207.534	14.862	905.558	685.179
208.548	14.785	905.303	684.611
209.563	14.929	904.413	684.468
210.577	14.955	903.561	683.866
211.592	15.071	903.053	683.896
212.607	15.076	902.757	683.631
213.621	14.968	902.081	682.619
214.636	15.091	901.036	682.268
215.650	15.071	900.335	681.597
216.665	15.154	899.651	681.357
217.680	15.248	899.142	681.290
218.694	15.208	898.486	680.571
219.709	15.119	897.974	679.762
220.723	15.290	896.900	679.582
221.738	15.225	896.119	678.666
222.753	15.130	896.054	678.172
223.767	15.274	895.299	678.125
224.782	15.321	894.904	677.957
225.796	15.311	894.521	677.563
226.811	15.322	893.312	676.632
227.826	15.119	893.029	675.539
228.840	15.221	892.240	675.297
229.855	15.245	891.376	674.679
230.869	15.247	890.386	673.877
231.884	15.244	889.809	673.370
232.899	15.204	889.096	672.610
233.913	15.085	888.565	671.671
234.928	15.154	887.822	671.325
235.942	15.241	887.340	671.251
236.957	15.206	886.623	670.508
237.972	15.046	886.036	669.363
238.986	15.206	885.306	669.396
240.001	15.264	884.558	668.999
241.015	15.174	884.558	668.584
242.030	15.396	883.734	668.784
243.045	15.157	883.227	667.390
244.059	15.224	882.520	667.063
245.074	15.205	881.869	666.437
246.088	15.289	881.392	666.354
247.103	15.417	880.919	666.446
248.117	15.537	880.266	666.366
249.132	15.475	880.117	665.950
250.147	15.692	879.107	665.985
251.161	15.851	878.339	665.974
252.176	15.867	877.624	665.437
253.190	15.784	877.192	664.722
254.205	15.743	876.817	664.217
255.220	15.839	875.999	663.917
256.234	15.777	875.581	663.296
257.249	15.920	874.599	663.056
258.263	15.915	873.481	662.130
259.278	15.863	872.965	661.476
260.293	15.844	872.791	661.213
261.307	16.054	872.092	661.448
262.322	16.018	871.659	660.920
263.336	15.965	870.811	660.011
264.351	15.871	870.139	659.076
265.366	15.861	869.488	658.485
266.380	15.904	869.233	658.401
267.395	16.004	868.225	657.969
268.409	15.940	867.261	656.931
269.424	15.957	866.603	656.441
270.439	15.949	866.224	656.065
271.453	15.871	865.335	655.031
272.468	16.009	864.677	655.012
273.482	16.021	864.483	654.853
274.497	15.924	863.652	653.789
275.512	16.044	862.952	653.668
276.526	15.927	862.824	653.059
277.541	16.082	862.009	652.985
278.555	16.188	861.636	653.053
279.570	16.296	860.919	652.870
280.585	16.294	859.844	651.989
281.599	16.205	858.977	650.932
282.614	16.035	858.812	650.094
283.628	16.021	858.507	649.752
284.643	16.105	857.670	649.385
285.657	16.277	856.770	649.306
286.672	16.164	856.484	648.597
287.687	16.200	855.824	648.177
288.701	16.269	855.100	647.839
289.716	16.207	854.582	647.151
290.730	16.221	854.213	646.865
291.745	16.186	853.921	646.453
292.760	16.313	853.010	646.194
293.774	16.461	852.292	646.157
294.789	16.247	852.132	645.160
295.803	16.251	850.942	644.221
296.818	16.313	850.395	643.986
297.833	16.375	849.443	643.443
298.847	16.334	849.065	642.944
299.862	16.338	848.617	642.564
300.876	16.330	848.575	642.445
301.891	16.456	847.425	641.994
302.906	16.556	847.162	642.118
303.920	16.578	846.790	641.864
304.935	16.587	846.422	641.562
305.949	16.693	845.427	641.151
306.964	16.507	844.633	639.790
307.979	16.503	844.252	639.430
308.993	16.619	843.769	639.444
310.008	16.638	843.298	639.104
311.022	16.669	842.705	638.714
312.037	16.592	841.769	637.658
313.052	16.485	841.527	637.016
314.066	16.496	840.849	636.485
315.081	16.335	840.615	635.647
316.095	16.534	839.478	635.479
317.110	16.450	839.092	634.815
318.125	16.538	838.712	634.801
319.139	16.643	838.107	634.683
320.154	16.628	837.799	634.336
321.168	16.742	836.998	634.100
322.183	16.607	836.986	633.530
323.197	16.542	836.530	632.885
324.212	16.585	835.703	632.364
325.227	16.488	834.909	631.345
326.241	16.491	834.380	630.900
327.256	16.585	833.630	630.628
328.270	16.483	833.280	629.928
329.285	16.604	832.616	629.821
330.300	16.680	832.064	629.630
331.314	16.574	831.689	628.895
332.329	16.623	831.275	628.708
333.343	16.697	831.054	628.763
334.358	16.919	829.973	628.711
335.373	16.702	830.021	627.887
336.387	16.776	829.849	627.977
337.402	16.931	829.748	628.417
338.416	16.844	829.448	627.812
339.431	16.905	828.617	627.353
340.446	16.863	828.473	627.035
341.460	17.086	827.737	627.245
342.475	17.140	827.593	627.281
343.489	17.123	826.920	626.652
344.504	17.254	826.559	626.808
345.519	17.246	826.170	626.427
346.533	17.024	826.008	625.432
347.548	17.095	825.082	624.934
348.562	16.868	824.713	623.764
349.577	17.043	823.863	623.710
350.592	17.094	822.979	623.172
351.606	16.956	822.549	622.287
352.621	17.085	821.648	622.023
353.635	17.017	821.419	621.544
354.650	16.994	820.771	620.914
355.665	17.056	820.018	620.517
356.679	17.269	819.270	620.676
357.694	17.208	818.887	620.105
358.708	17.211	818.440	619.724
359.723	17.105	817.744	618.757
360.738	17.091	817.483	618.454
361.752	17.255	816.780	618.462
362.767	17.343	815.858	618.031
363.781	17.370	815.328	617.671
364.796	17.396	815.352	617.730
365.810	17.566	814.752	617.838
366.825	17.589	814.542	617.705
367.840	17.480	814.028	616.867
368.854	17.454	813.601	616.396
369.869	17.434	813.071	615.867
370.883	17.454	812.618	615.541
371.898	17.454	812.457	615.364
372.913	17.515	811.857	615.075
373.927	17.571	811.609	615.038
374.942	17.460	811.016	614.132
375.956	17.641	810.344	614.221
376.971	17.637	810.276	614.100
377.986	17.632	810.143	613.926
379.000	17.796	809.104	613.677
380.015	17.727	808.762	613.114
381.029	17.709	808.257	612.613
382.044	17.770	807.503	612.205
383.059	17.796	806.608	611.565
384.073	17.734	806.318	611.070
385.088	17.733	805.507	610.399
386.102	17.662	805.222	609.875
387.117	17.652	804.672	609.368
388.132	17.712	803.934	608.968
389.146	17.757	803.861	609.022
390.161	17.757	803.208	608.473
391.175	17.861	802.213	608.036
392.190	17.639	802.435	607.359
393.205	17.742	801.656	607.081
394.219	17.596	801.401	606.315
395.234	17.702	801.031	606.358
396.248	17.582	800.400	605.400
397.263	17.598	800.221	605.268
398.278	17.671	799.192	604.696
399.292	17.672	799.101	604.577
400.307	17.748	798.735	604.517
401.321	17.570	798.241	603.459
402.336	17.705	798.009	603.708
403.350	17.752	797.487	603.424
404.365	17.850	796.866	603.250
405.380	17.910	796.373	603.034
406.394	17.873	796.123	602.663
407.409	17.976	795.901	602.804
408.423	18.086	795.280	602.666
409.438	18.195	794.972	602.764
410.453	18.252	794.294	602.398
411.467	18.209	793.971	601.949
412.482	18.255	794.023	602.098
413.496	18.221	793.350	601.412
414.511	18.234	793.134	601.242
415.526	18.174	792.511	600.506
416.540	18.085	792.659	600.251
417.555	18.110	791.780	599.619
418.569	18.315	791.275	599.905
419.584	18.163	791.072	599.165
420.599	18.320	790.453	599.192
421.613	156.218	1369.964	1794.000
422.628	135.136	1454.416	1794.100
