DTS Sentinel unit serial number:	SN413079Multiplexer serial number:	ORYXHardware model number:	OX4-SRSoftware version number:	ORYX F/W v4.00 Oryx Data Collector v3.7.2.0data status	okinstallation	princeton_trtdifferential loss correction	single-endedforward channel	channel 1reverse channel	N/Adate	2019/09/17time	08:50:35forward acquisition time	60.00reverse acquisition time	0.00gamma	496.2192k internal	0.2328k external	0.2328temperature offset calibration	0.9964default loss term (dB/km)	0.3790temperature slope calibration	1.0000multiplexer offset coefficient	1.0000multiplexer slope coefficient	1.0000fibre end	0.00T internal ref (°C)	27.87T ext. ref 1 (°C)	0.14T ext. ref 2 (°C)	23.47length (m)	temperature (°C)	Stokes	anti-Stokes-747.200	-200.000	0.028	-0.458
-746.185	38.383	-0.061	0.055
-745.171	247.705	-0.095	-0.162
-744.156	136.835	-0.215	0.283
-743.142	39.867	-0.195	-0.177
-742.127	-20.240	0.335	-0.208
-741.112	800.000	-0.108	0.308
-740.098	-75.035	0.134	0.048
-739.083	-3.341	-0.289	-0.203
-738.069	25.079	-0.145	0.121
-737.054	-3.751	0.200	-0.140
-736.039	315.287	0.099	-0.188
-735.025	8.022	0.143	0.108
-734.010	-136.228	-0.176	-0.021
-732.996	-88.367	-0.114	-0.034
-731.981	800.000	-0.122	-0.369
-730.966	0.670	-0.177	0.128
-729.952	-94.168	-0.160	-0.044
-728.937	-64.686	0.167	-0.068
-727.923	47.726	-0.122	-0.115
-726.908	-136.979	-0.175	-0.020
-725.894	800.000	-0.039	-0.124
-724.879	-133.740	0.245	0.031
-723.864	-114.695	-0.300	-0.058
-722.850	-91.603	0.150	-0.043
-721.835	66.846	0.054	0.055
-720.821	-200.000	-0.048	-0.325
-719.806	-57.080	0.224	-0.099
-718.791	2.141	-0.210	-0.153
-717.777	773.636	0.098	0.269
-716.762	-200.000	0.009	-0.176
-715.748	-148.913	-0.155	0.013
-714.733	-200.000	-0.003	-0.103
-713.718	-200.000	0.005	-0.242
-712.704	-200.000	0.040	-0.178
-711.689	-200.000	-0.014	-0.236
-710.675	-15.340	0.299	-0.193
-709.660	84.756	0.181	0.200
-708.645	-30.023	0.367	-0.211
-707.631	0.022	0.169	0.121
-706.616	-22.985	0.245	-0.148
-705.602	-70.760	0.264	0.100
-704.587	-131.234	0.251	0.034
-703.572	-192.289	0.061	-0.001
-702.558	-200.000	0.039	0.174
-701.543	-200.000	-0.021	-0.227
-700.529	376.199	-0.030	0.061
-699.514	-2.209	-0.128	-0.091
-698.499	102.327	0.180	0.212
-697.485	-78.749	0.155	0.053
-696.470	6.218	0.123	-0.092
-695.456	-200.000	0.006	0.225
-694.441	723.082	-0.061	0.163
-693.426	-124.164	-0.307	-0.048
-692.412	-200.000	0.090	0.478
-691.397	800.000	-0.033	0.107
-690.383	-63.575	-0.486	-0.201
-689.368	-38.786	-0.155	-0.082
-688.354	800.000	-0.057	-0.173
-687.339	144.877	-0.124	0.166
-686.324	-33.794	-0.199	-0.110
-685.310	519.594	-0.093	-0.220
-684.295	-105.608	-0.105	-0.024
-683.281	170.287	0.123	0.178
-682.266	295.589	0.028	-0.051
-681.251	-152.656	-0.294	0.021
-680.237	-0.380	0.159	-0.113
-679.222	650.485	-0.225	0.579
-678.208	-200.000	0.054	-0.285
-677.193	-200.000	-0.012	-0.242
-676.178	17.092	-0.317	-0.253
-675.164	-98.576	0.152	0.039
-674.149	20.759	-0.062	0.051
-673.135	-116.911	0.039	-0.007
-672.120	76.858	-0.186	0.198
-671.105	41.171	-0.042	0.038
-670.091	39.459	-0.140	0.126
-669.076	-86.369	-0.128	0.039
-668.062	-8.764	-0.127	0.085
-667.047	-13.864	0.230	0.149
-666.032	-49.603	-0.123	0.059
-665.018	-50.890	0.294	-0.139
-664.003	98.327	0.059	0.068
-662.989	86.305	0.069	-0.077
-661.974	-158.816	-0.121	-0.007
-660.959	15.861	-0.104	0.082
-659.945	183.619	0.139	0.206
-658.930	-144.634	0.227	-0.021
-657.916	-61.821	-0.267	-0.112
-656.901	-129.661	-0.172	-0.024
-655.886	-152.527	0.142	0.010
-654.872	500.240	0.074	-0.173
-653.857	220.787	0.034	-0.055
-652.843	-200.000	-0.110	-0.584
-651.828	-29.018	-0.091	0.053
-650.814	-200.000	-0.032	0.462
-649.799	-200.000	0.046	0.330
-648.784	-200.000	-0.015	-0.092
-647.770	-32.888	0.261	0.146
-646.755	-134.052	-0.251	-0.031
-645.741	33.947	-0.044	-0.038
-644.726	-113.523	0.223	0.044
-643.711	-126.645	-0.417	-0.062
-642.697	19.587	0.286	-0.231
-641.682	164.141	-0.099	-0.140
-640.668	-200.000	-0.022	0.141
-639.653	-200.000	-0.015	-0.314
-638.638	3.127	0.153	-0.112
-637.624	-80.882	0.089	0.030
-636.609	800.000	0.021	-0.064
-635.595	-200.000	0.043	-0.392
-634.580	-196.017	-0.187	-0.001
-633.565	-21.062	0.363	0.223
-632.551	800.000	-0.012	0.033
-631.536	-128.509	-0.302	0.043
-630.522	65.228	0.278	0.282
-629.507	-132.742	-0.388	-0.050
-628.492	-44.686	0.216	-0.108
-627.478	38.921	-0.242	-0.217
-626.463	-200.000	0.029	-0.279
-625.449	788.938	-0.044	0.121
-624.434	55.364	0.155	0.151
-623.419	-200.000	-0.001	-0.125
-622.405	-113.271	0.223	-0.044
-621.390	-167.118	-0.309	0.013
-620.376	-63.482	0.159	0.066
-619.361	-103.107	-0.210	0.050
-618.346	-68.183	-0.172	-0.067
-617.332	348.889	0.089	0.176
-616.317	126.885	-0.132	0.168
-615.303	-200.000	0.012	0.053
-614.288	800.000	-0.049	-0.173
-613.273	-96.243	-0.222	0.059
-612.259	183.910	-0.242	-0.359
-611.244	-93.166	-0.087	0.024
-610.230	-139.603	0.047	0.005
-609.215	-200.000	-0.023	-0.163
-608.201	-11.091	0.491	-0.324
-607.186	-200.000	0.057	-0.663
-606.171	-167.490	-0.152	0.006
-605.157	-136.253	0.223	-0.026
-604.142	-51.948	0.278	-0.129
-603.128	-107.775	-0.134	-0.029
-602.113	800.000	0.172	-0.489
-601.098	127.888	-0.119	-0.151
-600.084	49.345	0.231	-0.217
-599.069	589.642	-0.048	0.118
-598.055	800.000	-0.042	0.153
-597.040	-36.978	-0.153	-0.082
-596.025	-67.649	0.263	0.103
-595.011	27.595	-0.149	-0.125
-593.996	-137.003	0.215	0.025
-592.982	-142.973	0.425	-0.041
-591.967	-200.000	-0.007	-0.092
-590.952	-200.000	-0.038	-0.348
-589.938	-200.000	0.015	-0.164
-588.923	-149.776	0.072	0.006
-587.909	800.000	0.039	-0.148
-586.894	-200.000	0.003	-0.136
-585.879	-78.899	0.182	-0.062
-584.865	54.454	0.241	0.232
-583.850	-15.569	0.302	-0.193
-582.836	35.264	-0.037	-0.032
-581.821	-161.809	-0.245	0.012
-580.806	-200.000	0.026	0.189
-579.792	52.014	-0.245	0.233
-578.777	-130.607	-0.248	0.034
-577.763	-200.000	0.301	0.001
-576.748	-64.141	0.266	0.108
-575.733	743.365	-0.066	0.177
-574.719	642.374	0.106	-0.271
-573.704	84.228	-0.220	-0.241
-572.690	244.751	-0.126	0.212
-571.675	-163.919	0.226	0.011
-570.661	-81.002	0.194	-0.064
-569.646	-127.066	-0.147	0.022
-568.631	258.341	-0.128	-0.220
-567.617	-200.000	0.026	-0.286
-566.602	-29.808	0.328	-0.187
-565.588	41.626	0.098	-0.089
-564.573	-191.877	-0.592	0.006
-563.558	735.811	0.023	0.061
-562.544	151.870	-0.085	0.116
-561.529	6.789	-0.064	-0.047
-560.515	800.000	0.049	0.212
-559.500	-75.141	0.176	-0.063
-558.485	3.392	-0.147	-0.107
-557.471	278.368	-0.180	0.321
-556.456	7.094	0.254	-0.189
-555.442	-45.470	0.173	0.086
-554.427	99.514	0.159	0.184
-553.412	-167.534	-0.234	0.009
-552.398	51.649	-0.171	0.163
-551.383	83.129	-0.117	-0.127
-550.369	199.017	0.003	-0.005
-549.354	99.410	-0.120	-0.139
-548.339	302.094	0.081	0.149
-547.325	295.574	-0.147	0.269
-546.310	187.602	0.167	0.249
-545.296	8.782	-0.138	-0.104
-544.281	800.000	-0.093	-0.283
-543.266	-18.850	-0.205	0.128
-542.252	-158.268	0.028	-0.002
-541.237	-43.027	-0.132	-0.067
-540.223	-100.058	-0.094	0.023
-539.208	349.223	-0.189	-0.373
-538.193	-53.669	-0.156	0.071
-537.179	225.318	0.146	0.237
-536.164	-53.675	0.160	0.073
-535.150	194.794	-0.081	-0.123
-534.135	-143.720	0.229	0.022
-533.121	426.493	0.069	0.149
-532.106	77.666	-0.165	0.176
-531.091	364.193	-0.123	-0.247
-530.077	150.058	-0.073	0.099
-529.062	-45.636	-0.289	-0.143
-528.048	69.307	0.121	-0.125
-527.033	514.006	0.078	0.182
-526.018	-42.031	-0.166	0.085
-525.004	52.316	-0.279	0.266
-523.989	-200.000	0.050	-0.227
-522.975	-76.365	-0.185	-0.065
-521.960	-200.000	0.008	0.119
-520.945	5.498	-0.045	0.033
-519.931	800.000	-0.072	-0.283
-518.916	800.000	0.040	0.134
-517.902	800.000	0.035	0.118
-516.887	13.410	0.025	0.019
-515.872	-25.947	0.183	-0.108
-514.858	-27.248	0.120	-0.070
-513.843	-200.000	-0.022	0.229
-512.829	800.000	-0.053	-0.162
-511.814	-162.266	-0.244	-0.012
-510.799	-99.601	-0.061	0.015
-509.785	-120.537	-0.372	-0.063
-508.770	-120.935	0.328	-0.055
-507.756	52.197	0.135	0.129
-506.741	-138.018	-0.236	0.026
-505.726	-14.366	0.104	-0.067
-504.712	-50.728	-0.249	0.117
-503.697	-200.000	-0.054	-0.317
-502.683	-101.870	-0.210	0.051
-501.668	119.554	-0.090	0.111
-500.653	-200.000	0.017	0.459
-499.639	-3.407	0.119	-0.083
-498.624	-200.000	-0.030	-0.380
-497.610	-30.128	-0.114	-0.065
-496.595	-118.023	-0.469	-0.084
-495.581	164.086	-0.115	0.161
-494.566	-174.856	-0.169	-0.005
-493.551	148.746	0.050	0.068
-492.537	257.613	-0.011	-0.019
-491.522	-200.000	-0.027	-0.127
-490.508	-90.537	0.183	0.053
-489.493	0.478	-0.155	0.111
-488.478	464.294	-0.097	-0.217
-487.464	-6.915	-0.121	0.082
-486.449	60.516	-0.140	-0.138
-485.435	-121.763	-0.328	0.054
-484.420	800.000	0.082	-0.277
-483.405	800.000	0.092	-0.259
-482.391	-200.000	0.016	0.334
-481.376	-79.758	0.571	-0.192
-480.362	-134.975	0.255	0.031
-479.347	763.787	-0.101	0.274
-478.332	374.672	0.154	-0.313
-477.318	1.306	-0.166	-0.119
-476.303	-85.713	0.254	-0.079
-475.289	-200.000	-0.014	0.124
-474.274	-93.155	-0.296	0.082
-473.259	418.956	-0.080	-0.170
-472.245	-200.000	-0.014	-0.091
-471.230	-82.399	0.249	0.081
-470.216	-133.288	-0.525	0.066
-469.201	-65.032	-0.412	-0.166
-468.186	-200.000	-0.003	-0.043
-467.172	109.774	-0.407	0.487
-466.157	-52.775	0.196	0.090
-465.143	59.288	-0.042	0.041
-464.128	-59.562	-0.060	-0.026
-463.113	282.321	0.083	0.148
-462.099	17.770	0.303	0.240
-461.084	329.019	-0.128	0.244
-460.070	216.573	-0.115	0.183
-459.055	51.130	0.098	-0.092
-458.040	-140.093	-0.098	0.010
-457.026	152.140	0.117	-0.159
-456.011	-113.142	0.097	-0.019
-454.997	-61.439	-0.056	0.023
-453.982	-87.082	-0.110	0.033
-452.968	-200.000	0.003	0.091
-451.953	-37.039	-0.106	0.056
-450.938	800.000	-0.088	0.310
-449.924	-7.671	0.276	-0.186
-448.909	101.942	-0.049	-0.057
-447.895	148.795	0.206	-0.278
-446.880	-111.728	0.373	-0.075
-445.865	307.839	-0.017	0.031
-444.851	55.084	0.071	-0.068
-443.836	-144.989	0.414	-0.038
-442.822	-79.410	-0.104	-0.035
-441.807	-200.000	-0.096	-0.457
-440.792	800.000	0.159	-0.515
-439.778	-167.846	-0.170	-0.007
-438.763	37.326	-0.152	-0.134
-437.749	800.000	0.055	0.187
-436.734	-98.008	-0.203	-0.052
-435.719	306.846	-0.079	0.146
-434.705	-200.000	-0.016	0.108
-433.690	-200.000	0.057	0.318
-432.676	40.058	0.033	0.030
-431.661	800.000	-0.027	0.104
-430.646	62.540	0.169	-0.168
-429.632	-70.452	0.197	0.074
-428.617	-200.000	0.024	0.123
-427.603	167.521	-0.126	-0.178
-426.588	-22.304	-0.189	-0.114
-425.573	-40.053	0.189	0.098
-424.559	-86.080	0.230	-0.071
-423.544	-116.168	0.383	-0.071
-422.530	415.241	-0.018	0.038
-421.515	180.011	-0.087	0.126
-420.500	2.625	-0.210	0.151
-419.486	-150.787	0.334	0.025
-418.471	-15.487	-0.031	-0.020
-417.457	-25.353	-0.367	0.216
-416.442	93.673	0.302	0.341
-415.428	-200.000	-0.010	-0.068
-414.413	-166.357	-0.365	-0.015
-413.398	64.608	0.146	0.146
-412.384	218.575	-0.172	-0.273
-411.369	-135.224	0.377	0.045
-410.355	-109.640	0.147	0.031
-409.340	-200.000	-0.001	0.062
-408.325	64.955	0.302	0.303
-407.311	103.928	-0.240	0.281
-406.296	-101.477	-0.171	-0.041
-405.282	800.000	-0.025	0.078
-404.267	100.623	0.145	0.168
-403.252	-7.038	0.153	0.103
-402.238	788.831	-0.035	0.096
-401.223	-64.724	-0.133	-0.054
-400.209	-173.982	0.198	-0.006
-399.194	49.446	0.120	0.112
-398.179	800.000	0.052	-0.216
-397.165	800.000	-0.069	0.252
-396.150	108.844	-0.312	0.370
-395.136	800.000	0.074	0.262
-394.121	31.550	0.332	-0.284
-393.106	375.530	-0.196	-0.396
-392.092	409.205	-0.057	0.121
-391.077	-133.560	0.119	0.015
-390.063	-11.253	0.277	-0.181
-389.048	-91.772	0.488	0.138
-388.033	152.797	-0.157	-0.213
-387.019	-18.278	-0.115	0.071
-386.004	-200.000	-0.104	-0.000
-384.990	63.168	-0.184	-0.183
-383.975	-200.000	-0.021	0.405
-382.960	800.000	0.066	0.191
-381.946	598.005	0.096	-0.235
-380.931	93.548	-0.162	0.183
-379.917	-87.648	0.117	-0.035
-378.902	246.725	0.021	-0.035
-377.888	9.852	-0.306	0.231
-376.873	-96.737	-0.149	-0.039
-375.858	800.000	-0.040	0.164
-374.844	-22.948	-0.367	0.220
-373.829	-149.500	0.320	-0.025
-372.815	-6.629	-0.149	0.101
-371.800	-175.245	0.281	-0.008
-370.785	-47.243	0.222	-0.107
-369.771	800.000	0.050	-0.149
-368.756	107.877	-0.101	0.120
-367.742	20.080	0.263	-0.210
-366.727	-200.000	-0.007	0.224
-365.712	-71.235	-0.256	0.096
-364.698	-175.081	-0.387	0.011
-363.683	-200.000	0.021	-0.361
-362.669	72.112	-0.122	-0.127
-361.654	97.941	-0.262	0.300
-360.639	30.841	0.058	-0.049
-359.625	122.305	0.162	0.201
-358.610	-17.664	-0.120	-0.075
-357.596	-14.210	0.090	0.058
-356.581	85.534	0.134	-0.146
-355.566	171.307	0.127	0.180
-354.552	-159.009	-0.295	-0.017
-353.537	57.221	0.206	0.200
-352.523	493.595	-0.049	0.112
-351.508	-200.000	-0.001	0.070
-350.493	800.000	-0.045	-0.176
-349.479	-156.969	0.069	0.004
-348.464	-200.000	-0.001	-0.151
-347.450	392.505	0.076	0.157
-346.435	-136.168	-0.170	-0.020
-345.420	-200.000	0.076	-0.334
-344.406	85.393	0.312	-0.340
-343.391	27.596	0.069	-0.058
-342.377	-75.311	0.023	-0.008
-341.362	800.000	0.012	-0.032
-340.348	-4.949	0.088	-0.060
-339.333	-59.070	0.339	-0.145
-338.318	-72.592	-0.258	0.095
-337.304	-131.154	0.263	-0.035
-336.289	-60.211	0.237	0.100
-335.275	-125.620	-0.344	0.052
-334.260	-200.000	0.017	0.077
-333.245	800.000	-0.048	-0.190
-332.231	-165.773	-0.166	-0.007
-331.216	-99.002	-0.137	-0.035
-330.202	3.299	0.192	0.139
-329.187	-163.110	-0.276	-0.013
-328.172	-8.964	-0.272	0.180
-327.158	-60.276	0.385	0.163
-326.143	-200.000	-0.008	0.158
-325.129	800.000	0.059	0.208
-324.114	-98.201	-0.471	0.120
-323.099	-54.856	-0.295	0.132
-322.085	-37.983	0.168	0.088
-321.070	-200.000	-0.050	-0.255
-320.056	-200.000	-0.004	0.047
-319.041	101.223	-0.064	0.074
-318.026	226.069	0.191	-0.307
-317.012	51.604	0.125	0.118
-315.997	-86.089	0.077	0.024
-314.983	143.041	0.160	0.211
-313.968	1.036	-0.259	-0.184
-312.953	149.382	0.162	0.217
-311.939	233.875	-0.129	0.211
-310.924	-56.684	-0.272	0.119
-309.910	-101.541	0.165	-0.040
-308.895	-65.799	0.204	0.081
-307.880	-169.965	-0.138	-0.005
-306.866	-200.000	0.044	0.275
-305.851	266.003	0.164	0.284
-304.837	-191.624	0.301	0.003
-303.822	-93.057	-0.106	0.029
-302.807	-157.584	-0.331	0.020
-301.793	-127.985	-0.352	0.050
-300.778	298.348	0.125	0.228
-299.764	-118.108	0.272	0.048
-298.749	-200.000	-0.033	-0.242
-297.735	-200.000	-0.025	0.280
-296.720	42.611	-0.225	0.203
-295.705	800.000	-0.041	0.156
-294.691	95.573	0.087	0.099
-293.676	624.678	0.042	-0.106
-292.662	64.032	0.028	0.028
-291.647	800.000	-0.048	0.156
-290.632	-200.000	-0.040	-0.212
-289.618	-109.556	-0.267	-0.056
-288.603	54.666	-0.119	0.113
-287.589	102.165	0.212	0.245
-286.574	270.731	0.044	0.077
-285.559	800.000	-0.055	-0.192
-284.545	203.997	-0.170	-0.261
-283.530	29.060	-0.046	-0.039
-282.516	-133.429	0.285	-0.035
-281.501	-70.767	0.227	-0.085
-280.486	800.000	-0.101	-0.428
-279.472	282.505	-0.068	0.121
-278.457	-32.296	0.224	-0.124
-277.443	352.692	0.094	0.184
-276.428	-98.948	-0.081	-0.020
-275.413	-179.174	-0.236	0.005
-274.399	-107.621	-0.106	-0.023
-273.384	-22.475	0.227	-0.136
-272.370	-44.976	0.465	-0.229
-271.355	-200.000	0.005	-0.378
-270.340	171.082	0.023	0.033
-269.326	-66.096	-0.274	-0.108
-268.311	247.106	0.012	-0.019
-267.297	251.957	-0.179	0.302
-266.282	-26.307	0.024	-0.014
-265.267	-124.943	-0.167	0.025
-264.253	-26.757	0.142	0.082
-263.238	25.273	0.156	-0.129
-262.224	-200.000	-0.013	-0.120
-261.209	800.000	-0.053	-0.192
-260.195	155.969	0.188	-0.257
-259.180	612.851	0.135	0.335
-258.165	86.651	0.248	0.271
-257.151	15.816	0.337	-0.262
-256.136	-73.816	-0.043	-0.015
-255.122	259.059	0.077	0.132
-254.107	-200.000	0.012	0.413
-253.092	27.238	0.265	-0.220
-252.078	800.000	0.048	-0.168
-251.063	83.054	0.176	-0.190
-250.049	-151.882	-0.129	0.009
-249.034	-200.000	-0.008	0.057
-248.019	-86.327	0.089	0.027
-247.005	-113.135	0.440	-0.086
-245.990	444.154	-0.038	0.081
-244.976	262.507	0.255	0.438
-243.961	-77.784	-0.210	0.072
-242.946	-44.100	-0.340	-0.169
-241.932	136.116	0.125	-0.161
-240.917	-105.642	0.111	0.025
-239.903	151.059	0.062	-0.083
-238.888	-125.211	0.112	-0.017
-237.873	-200.000	0.005	-0.167
-236.859	660.030	-0.062	0.158
-235.844	-166.549	0.191	0.008
-234.830	380.536	0.247	-0.501
-233.815	751.840	-0.061	-0.164
-232.800	66.954	-0.118	0.119
-231.786	-43.000	0.132	-0.066
-230.771	-173.716	-0.177	0.005
-229.757	525.641	-0.144	-0.334
-228.742	-50.767	-0.146	-0.068
-227.727	800.000	-0.054	0.198
-226.713	-160.643	0.121	-0.006
-225.698	49.297	0.162	0.150
-224.684	-200.000	0.028	-0.122
-223.669	-79.504	-0.275	0.092
-222.655	-200.000	0.005	0.037
-221.640	11.785	-0.239	0.181
-220.625	-165.115	-0.115	-0.005
-219.611	162.865	0.113	-0.157
-218.596	155.812	0.054	-0.074
-217.582	800.000	0.085	-0.232
-216.567	-61.545	0.054	-0.022
-215.552	-64.154	-0.088	0.035
-214.538	57.703	0.201	0.194
-213.523	-134.635	-0.148	-0.018
-212.509	-91.953	0.178	-0.050
-211.494	-180.117	-0.171	0.004
-210.479	800.000	0.040	0.136
-209.465	-64.586	0.283	0.113
-208.450	800.000	-0.109	-0.318
-207.436	21.104	-0.202	-0.162
-206.421	-200.000	0.048	0.305
-205.406	-61.586	0.225	-0.093
-204.392	36.083	-0.081	-0.070
-203.377	-59.256	-0.257	-0.109
-202.363	-62.924	-0.306	-0.125
-201.348	-101.929	0.312	-0.074
-200.333	90.737	-0.133	-0.147
-199.319	-115.042	-0.078	0.015
-198.304	122.073	0.093	-0.115
-197.290	78.262	-0.108	0.114
-196.275	187.591	-0.180	0.265
-195.260	-200.000	-0.020	-0.102
-194.246	-200.000	0.027	0.184
-193.231	-140.444	0.139	0.014
-192.217	800.000	0.039	-0.117
-191.202	-7.529	-0.278	0.186
-190.187	-200.000	-0.025	0.170
-189.173	-43.854	0.035	0.017
-188.158	291.902	-0.289	-0.519
-187.144	-139.406	0.053	0.006
-186.129	-200.000	0.047	0.229
-185.114	315.957	0.141	0.263
-184.100	38.163	-0.095	0.083
-183.085	-200.000	-0.003	-0.158
-182.071	505.772	-0.055	0.126
-181.056	-7.641	-0.093	0.062
-180.042	-200.000	0.009	0.057
-179.027	388.111	0.185	0.377
-178.012	-79.828	-0.425	-0.141
-176.998	129.513	-0.249	0.313
-175.983	105.665	0.318	0.371
-174.969	-200.000	0.017	0.223
-173.954	150.616	-0.003	-0.005
-172.939	-139.491	-0.118	-0.012
-171.925	800.000	-0.050	0.159
-170.910	2.073	-0.455	-0.324
-169.896	-28.573	0.104	0.059
-168.881	-64.548	0.382	0.153
-167.866	93.933	0.263	-0.294
-166.852	800.000	0.091	-0.373
-165.837	8.887	0.166	-0.123
-164.823	-200.000	-0.012	0.247
-163.808	60.956	-0.121	-0.118
-162.793	800.000	0.032	0.109
-161.779	-81.944	-0.232	-0.075
-160.764	-5.086	-0.225	-0.152
-159.750	-104.501	0.070	-0.016
-158.735	17.671	0.289	-0.226
-157.720	138.774	0.119	0.154
-156.706	-136.930	0.278	-0.031
-155.691	33.159	-0.151	0.129
-154.677	44.250	-0.116	-0.105
-153.662	-17.037	-0.099	0.061
-152.647	-200.000	0.017	0.197
-151.633	-61.923	0.325	0.134
-150.618	356.311	-0.284	-0.557
-149.604	-170.341	0.223	-0.008
-148.589	-32.992	-0.119	-0.065
-147.574	-61.331	0.122	0.051
-146.560	78.121	-0.167	0.175
-145.545	178.711	-0.037	-0.053
-144.531	-39.399	0.224	0.116
-143.516	-76.973	0.134	0.046
-142.502	-21.295	0.165	0.099
-141.487	-162.694	0.159	-0.008
-140.472	800.000	-0.037	0.129
-139.458	-198.609	-0.297	0.002
-138.443	800.000	0.047	0.141
-137.429	-170.385	0.103	-0.004
-136.414	95.330	0.117	-0.131
-135.399	180.594	0.061	0.088
-134.385	-200.000	0.036	0.406
-133.370	-200.000	-0.021	0.138
-132.356	38.737	-0.212	0.187
-131.341	-10.607	0.291	-0.190
-130.326	800.000	-0.032	-0.110
-129.312	136.061	-0.074	0.094
-128.297	-79.035	0.224	0.075
-127.283	800.000	-0.087	0.291
-126.268	800.000	0.053	0.157
-125.253	233.493	-0.036	0.059
-124.239	-106.398	0.386	0.085
-123.224	76.351	0.268	-0.279
-122.210	-123.732	0.251	0.039
-121.195	587.289	0.120	0.290
-120.180	20.139	0.104	0.083
-119.166	15.613	0.134	-0.104
-118.151	216.608	-0.071	0.111
-117.137	190.383	-0.057	-0.084
-116.122	-140.108	0.251	-0.026
-115.107	-98.430	0.288	0.073
-114.093	-97.580	0.171	-0.044
-113.078	-93.613	0.061	-0.017
-112.064	-200.000	0.018	0.180
-111.049	-98.327	-0.062	-0.016
-110.034	122.871	0.147	0.181
-109.020	-200.000	-0.008	-0.238
-108.005	-121.124	0.786	0.130
-106.991	-200.000	0.020	0.189
-105.976	-49.402	-0.165	-0.077
-104.962	800.000	0.098	-0.293
-103.947	-57.638	-0.118	-0.051
-102.932	-59.250	0.154	0.065
-101.918	-18.518	-0.072	0.044
-100.903	800.000	0.082	0.256
-99.889	-91.890	0.414	0.115
-98.874	171.157	-0.109	-0.154
-97.859	-79.653	-0.238	-0.079
-96.845	-121.247	0.203	0.033
-95.830	113.896	-0.200	0.239
-94.816	58.943	0.298	0.288
-93.801	38.720	-0.187	-0.164
-92.786	-111.284	0.347	-0.070
-91.772	-124.251	0.391	-0.060
-90.757	-200.000	-0.048	-0.303
-89.743	457.815	-0.017	-0.036
-88.728	182.413	-0.190	0.275
-87.713	-175.205	0.175	0.005
-86.699	564.751	0.035	-0.083
-85.684	747.964	-0.105	-0.277
-84.670	-159.793	0.211	-0.011
-83.655	800.000	0.040	0.167
-82.640	-200.000	0.071	0.321
-81.626	-53.843	0.122	-0.055
-80.611	-81.086	-0.344	0.112
-79.597	-31.907	-0.053	0.029
-78.582	-40.861	-0.437	0.222
-77.567	800.000	-0.032	-0.136
-76.553	-127.954	-0.225	-0.032
-75.538	-200.000	-0.003	-0.129
-74.524	328.689	0.061	-0.116
-73.509	-42.630	-0.111	-0.055
-72.494	-29.790	0.267	0.149
-71.480	-61.279	0.307	0.127
-70.465	-200.000	0.006	-0.281
-69.451	-155.858	0.408	-0.026
-68.436	-200.000	0.028	0.134
-67.422	-200.000	0.060	0.258
-66.407	118.770	-0.128	0.156
-65.392	231.156	-0.057	0.091
-64.378	177.154	-0.108	-0.154
-63.363	-200.000	-0.005	-0.225
-62.349	-200.000	-0.039	0.227
-61.334	71.654	-1.221	-1.245
-60.319	-65.334	0.787	0.311
-59.305	328.799	-0.559	-1.053
-58.290	262.175	0.873	1.486
-57.276	138.744	0.995	1.283
-56.261	-200.000	112.013	622.410
-55.246	456.378	1506.317	3279.976
-54.232	146.660	2672.731	3523.345
-53.217	103.625	2158.083	2485.523
-52.203	39.137	1606.876	1409.942
-51.188	31.226	1352.850	1138.977
-50.173	28.301	1314.595	1089.359
-49.159	53.995	1369.620	1291.543
-48.144	53.463	1384.282	1302.098
-47.130	31.426	1340.086	1129.260
-46.115	28.082	1322.672	1094.563
-45.100	27.818	1317.716	1088.847
-44.086	27.842	1315.053	1086.748
-43.071	27.781	1312.770	1084.455
-42.057	27.815	1310.745	1082.939
-41.042	27.753	1309.076	1081.152
-40.027	27.735	1308.264	1080.332
-39.013	27.792	1305.767	1078.560
-37.998	27.704	1303.986	1076.531
-36.984	27.934	1301.932	1076.148
-35.969	27.852	1300.817	1074.698
-34.954	27.910	1298.511	1073.090
-33.940	27.857	1297.547	1071.938
-32.925	27.907	1296.330	1071.185
-31.911	27.957	1294.580	1069.989
-30.896	27.869	1293.228	1068.314
-29.881	28.051	1291.961	1068.290
-28.867	28.042	1290.369	1066.880
-27.852	27.896	1289.516	1065.280
-26.838	28.067	1287.482	1064.556
-25.823	27.881	1286.909	1062.954
-24.809	27.971	1285.264	1062.074
-23.794	27.801	1284.250	1060.208
-22.779	27.856	1282.896	1059.368
-21.765	27.997	1281.331	1058.849
-20.750	27.996	1279.771	1057.517
-19.736	27.894	1278.663	1055.965
-18.721	27.856	1277.167	1054.467
-17.706	27.987	1276.133	1054.328
-16.692	27.956	1274.929	1053.117
-15.677	27.932	1273.923	1052.103
-14.663	27.820	1272.546	1050.280
-13.648	27.819	1271.816	1049.633
-12.633	27.839	1271.076	1049.093
-11.619	27.840	1270.090	1048.243
-10.604	27.829	1268.961	1047.209
-9.590	27.840	1267.899	1046.355
-8.575	27.696	1267.443	1045.109
-7.560	27.775	1266.602	1044.830
-6.546	27.800	1265.627	1044.122
-5.531	27.766	1264.586	1043.028
-4.517	27.745	1263.939	1042.336
-3.502	27.814	1262.976	1041.896
-2.487	27.856	1261.912	1041.212
-1.473	27.855	1257.846	1037.812
-0.458	26.575	1243.121	1018.427
0.556	21.636	1226.389	982.233
1.571	18.035	1232.864	966.989
2.586	17.097	1247.696	973.163
3.600	16.833	1235.922	962.395
4.615	12.341	1162.600	881.175
5.629	4.312	1087.198	783.533
6.644	0.473	1068.107	750.635
7.659	0.116	1065.934	747.267
8.673	0.005	1065.062	746.041
9.688	-0.053	1063.820	744.816
10.702	0.308	1061.588	744.971
11.717	5.074	1067.832	772.946
12.731	13.204	1078.814	821.381
13.746	17.001	1082.636	843.125
14.761	16.941	1082.087	842.321
15.775	15.935	1080.682	836.164
16.790	14.926	1078.195	829.166
17.804	14.379	1076.423	825.020
18.819	14.016	1075.449	822.405
19.834	13.702	1074.132	819.773
20.848	13.479	1073.741	818.298
21.863	13.267	1072.731	816.411
22.877	13.216	1071.738	815.331
23.892	13.162	1070.872	814.334
24.907	13.041	1070.598	813.458
25.921	13.092	1069.609	812.884
26.936	13.261	1069.143	813.291
27.950	13.196	1068.168	812.157
28.965	13.373	1066.747	811.875
29.980	13.387	1065.226	810.711
30.994	13.421	1064.388	810.171
32.009	13.320	1063.229	808.722
33.023	13.320	1062.162	807.837
34.038	13.202	1061.134	806.409
35.053	13.249	1060.253	805.900
36.067	13.277	1059.299	805.240
37.082	13.306	1058.901	805.003
38.096	13.265	1057.959	804.017
39.111	13.266	1057.030	803.247
40.126	13.112	1056.458	801.991
41.140	13.054	1054.564	800.201
42.155	13.103	1053.484	799.551
43.169	13.022	1052.629	798.438
44.184	13.060	1051.687	797.835
45.199	12.997	1050.981	796.929
46.213	13.177	1049.093	796.294
47.228	13.161	1048.517	795.709
48.242	13.231	1047.086	794.887
49.257	13.180	1046.492	794.121
50.271	13.156	1045.530	793.205
51.286	13.256	1044.550	792.874
52.301	13.144	1043.769	791.671
53.315	13.154	1042.567	790.741
54.330	13.118	1041.932	790.017
55.344	13.220	1040.591	789.414
56.359	13.216	1039.499	788.498
57.374	13.117	1038.982	787.567
58.388	12.993	1038.083	786.221
59.403	13.077	1036.823	785.598
60.417	13.009	1036.225	784.754
61.432	12.981	1035.708	784.158
62.447	12.965	1034.430	783.044
63.461	12.988	1033.958	782.727
64.476	13.120	1032.673	782.311
65.490	13.005	1032.399	781.488
66.505	13.041	1031.673	781.041
67.520	12.985	1031.178	780.331
68.534	13.103	1030.094	780.000
69.549	13.112	1029.349	779.410
70.563	12.966	1028.693	778.155
71.578	12.950	1028.146	777.597
72.593	12.885	1027.158	776.473
73.607	12.943	1026.777	776.390
74.622	12.873	1025.884	775.317
75.636	12.870	1025.414	774.880
76.651	13.011	1024.166	774.529
77.666	12.939	1023.636	773.725
78.680	13.011	1023.153	773.628
79.695	13.050	1022.299	773.096
80.709	13.013	1021.522	772.268
81.724	12.943	1021.298	771.704
82.739	13.034	1020.588	771.523
83.753	13.143	1019.470	771.120
84.768	13.200	1018.743	770.767
85.782	13.196	1017.854	770.009
86.797	13.129	1016.947	768.941
87.812	13.197	1015.900	768.397
88.826	13.187	1014.974	767.580
89.841	13.218	1013.924	766.865
90.855	13.173	1013.305	766.120
91.870	13.197	1012.275	765.384
92.884	13.271	1011.124	764.790
93.899	13.413	1010.231	764.702
94.914	13.419	1009.720	764.273
95.928	13.326	1008.880	763.141
96.943	13.250	1008.077	762.119
97.957	13.300	1007.068	761.517
98.972	13.373	1006.042	761.010
99.987	13.332	1004.984	759.952
101.001	13.210	1004.579	759.020
102.016	13.230	1003.874	758.512
103.030	13.295	1002.890	757.999
104.045	13.264	1002.052	757.157
105.060	13.308	1000.837	756.374
106.074	13.237	1000.405	755.656
107.089	13.133	999.376	754.334
108.103	13.096	998.725	753.610
109.118	13.206	996.801	752.590
110.133	13.073	996.279	751.523
111.147	13.082	995.722	751.080
112.162	13.271	994.822	751.192
113.176	13.238	993.833	750.231
114.191	13.166	993.390	749.500
115.206	13.236	992.616	749.167
116.220	13.268	991.590	748.476
117.235	13.241	990.580	747.525
118.249	13.316	989.877	747.266
119.264	13.129	989.317	745.930
120.279	13.144	988.219	745.106
121.293	13.124	987.479	744.392
122.308	13.117	986.730	743.728
123.322	13.068	985.541	742.549
124.337	13.239	984.254	742.279
125.352	13.156	983.199	741.044
126.366	13.062	982.386	739.946
127.381	13.158	981.437	739.596
128.395	13.127	980.657	738.806
129.410	13.147	979.712	738.116
130.424	13.193	978.660	737.464
131.439	13.237	978.331	737.346
132.454	13.226	977.466	736.579
133.468	13.265	976.127	735.682
134.483	13.261	975.655	735.241
135.497	13.220	974.620	734.217
136.512	13.275	973.560	733.596
137.527	13.296	972.791	733.045
138.541	13.250	972.359	732.452
139.556	13.313	971.480	732.001
140.570	13.334	970.833	731.542
141.585	13.393	969.902	731.035
142.600	13.454	968.997	730.561
143.614	13.473	968.238	730.003
144.629	13.473	967.240	729.190
145.643	13.431	966.705	728.537
146.658	13.340	965.619	727.253
147.673	13.256	964.663	726.099
148.687	13.274	964.056	725.657
149.702	13.374	963.023	725.255
150.716	13.382	962.255	724.649
151.731	13.429	961.452	724.186
152.746	13.411	960.446	723.285
153.760	13.337	960.363	722.833
154.775	13.301	960.063	722.388
155.789	13.318	959.336	721.849
156.804	13.396	958.292	721.338
157.819	13.448	957.306	720.760
158.833	13.492	956.865	720.556
159.848	13.540	956.379	720.335
160.862	13.525	955.050	719.207
161.877	13.525	954.236	718.529
162.892	13.401	953.111	717.081
163.906	13.382	952.626	716.571
164.921	13.424	951.461	715.811
165.935	13.547	950.523	715.574
166.950	13.414	949.856	714.433
167.964	13.412	948.862	713.615
168.979	13.605	947.432	713.310
169.994	13.578	946.802	712.656
171.008	13.593	946.203	712.203
172.023	13.558	946.002	711.839
173.037	13.667	944.900	711.417
174.052	13.538	944.516	710.511
175.067	13.565	943.360	709.692
176.081	13.537	942.590	708.930
177.096	13.490	942.574	708.657
178.110	13.534	941.311	707.833
179.125	13.503	941.101	707.480
180.140	13.566	940.669	707.362
181.154	13.710	939.590	707.100
182.169	13.882	939.051	707.366
183.183	13.802	938.943	706.879
184.198	13.745	937.917	705.802
185.213	13.829	937.607	705.865
186.227	13.811	936.730	705.066
187.242	13.769	936.088	704.342
188.256	13.825	935.278	703.906
189.271	13.749	934.761	703.133
190.286	13.715	933.545	702.013
191.300	13.708	932.908	701.442
192.315	13.599	932.268	700.437
193.329	13.680	932.107	700.596
194.344	13.654	931.485	699.957
195.359	13.770	930.568	699.698
196.373	13.826	929.682	699.205
197.388	13.899	929.624	699.404
198.402	13.973	929.230	699.359
199.417	13.964	928.718	698.873
200.432	14.100	927.795	698.690
201.446	14.027	927.328	697.969
202.461	14.116	926.699	697.806
203.475	14.150	926.541	697.771
204.490	14.146	925.280	696.741
205.504	14.110	924.574	695.996
206.519	14.023	923.876	695.049
207.534	14.039	923.314	694.628
208.548	13.977	922.504	693.700
209.563	14.107	921.785	693.640
210.577	14.017	921.267	692.815
211.592	14.137	920.618	692.764
212.607	14.170	920.014	692.386
213.621	14.218	919.060	691.807
214.636	14.076	918.535	690.761
215.650	14.217	917.475	690.485
216.665	14.204	916.975	689.996
217.680	14.325	916.138	689.804
218.694	14.271	915.468	689.018
219.709	14.120	914.808	687.832
220.723	14.331	913.988	688.029
221.738	14.293	913.409	687.374
222.753	14.293	912.749	686.817
223.767	14.199	912.441	686.136
224.782	14.463	911.767	686.656
225.796	14.394	911.029	685.756
226.811	14.384	910.422	685.198
227.826	14.339	910.003	684.638
228.840	14.263	908.954	683.474
229.855	14.417	908.107	683.408
230.869	14.418	907.294	682.740
231.884	14.285	906.560	681.583
232.899	14.379	905.828	681.358
233.913	14.325	905.197	680.601
234.928	14.358	904.700	680.304
235.942	14.379	904.041	679.833
236.957	14.382	903.332	679.254
237.972	14.396	903.181	679.135
238.986	14.544	902.129	678.888
240.001	14.423	901.613	677.946
241.015	14.407	901.540	677.768
242.030	14.397	900.750	677.070
243.045	14.350	900.225	676.427
244.059	14.615	898.858	676.411
245.074	14.507	898.533	675.671
246.088	14.544	898.019	675.376
247.103	14.505	897.619	674.859
248.117	14.699	896.712	674.897
249.132	14.685	896.551	674.663
250.147	14.756	895.561	674.143
251.161	14.772	894.519	673.365
252.176	14.779	894.345	673.200
253.190	14.857	893.287	672.660
254.205	14.841	892.622	672.037
255.220	14.886	892.504	672.068
256.234	14.876	891.700	671.361
257.249	14.958	890.991	671.100
258.263	14.949	889.896	670.178
259.278	14.825	889.847	669.584
260.293	14.912	889.022	669.253
261.307	14.898	888.248	668.557
262.322	14.984	887.740	668.457
263.336	14.988	887.029	667.879
264.351	15.025	886.289	667.410
265.366	14.959	885.868	666.772
266.380	15.022	884.940	666.264
267.395	15.181	883.989	666.121
268.409	15.243	882.977	665.547
269.424	15.077	882.904	664.772
270.439	15.063	882.265	664.177
271.453	15.039	881.620	663.538
272.468	15.130	881.204	663.529
273.482	15.148	880.264	662.831
274.497	15.172	879.764	662.494
275.512	15.144	879.506	662.128
276.526	15.049	878.875	661.220
277.541	15.149	878.480	661.257
278.555	15.187	877.872	660.892
279.570	15.333	876.757	660.570
280.585	15.260	876.124	659.745
281.599	15.201	875.331	658.859
282.614	15.186	874.855	658.383
283.628	15.289	874.289	658.305
284.643	15.245	873.688	657.622
285.657	15.271	873.328	657.393
286.672	15.387	872.334	657.042
287.687	15.324	871.641	656.215
288.701	15.446	871.322	656.393
289.716	15.275	870.801	655.274
290.730	15.371	870.181	655.126
291.745	15.240	869.838	654.297
292.760	15.246	868.887	653.550
293.774	15.422	868.426	653.829
294.789	15.460	867.562	653.268
295.803	15.386	866.706	652.278
296.818	15.418	866.550	652.227
297.833	15.625	865.216	651.969
298.847	15.409	865.061	650.958
299.862	15.582	864.433	651.097
300.876	15.543	863.993	650.559
301.891	15.494	863.514	649.948
302.906	15.593	862.876	649.795
303.920	15.551	862.395	649.214
304.935	15.667	861.824	649.173
305.949	15.751	860.972	648.799
306.964	15.692	860.366	648.056
307.979	15.702	860.025	647.782
308.993	15.776	859.021	647.251
310.008	15.744	858.398	646.603
311.022	15.587	858.434	645.968
312.037	15.755	857.943	646.188
313.052	15.624	857.296	645.140
314.066	15.704	856.347	644.676
315.081	15.732	856.089	644.534
316.095	15.737	855.005	643.677
317.110	15.688	854.672	643.184
318.125	15.713	853.947	642.677
319.139	15.714	853.816	642.525
320.154	15.717	853.607	642.319
321.168	15.835	852.749	642.068
322.183	15.824	852.247	641.593
323.197	15.743	851.850	640.928
324.212	15.858	850.842	640.550
325.227	15.862	850.386	640.167
326.241	15.833	849.665	639.456
327.256	15.849	849.020	638.974
328.270	15.805	848.777	638.570
329.285	15.871	848.090	638.247
330.300	15.873	847.480	637.736
331.314	15.934	847.013	637.562
332.329	16.013	846.487	637.405
333.343	15.996	846.316	637.158
334.358	16.041	845.950	636.994
335.373	15.965	845.427	636.258
336.387	16.040	845.116	636.252
337.402	16.001	845.182	636.098
338.416	16.260	844.152	636.242
339.431	16.141	843.658	635.366
340.446	16.160	843.353	635.152
341.460	16.226	842.957	635.045
342.475	16.229	842.801	634.884
343.489	16.159	842.244	634.142
344.504	16.137	841.870	633.725
345.519	16.198	841.531	633.642
346.533	16.152	840.696	632.782
347.548	16.300	840.031	632.784
348.562	16.336	839.739	632.639
349.577	16.193	839.215	631.656
350.592	16.224	838.563	631.224
351.606	16.245	837.895	630.742
352.621	16.211	836.981	629.871
353.635	16.271	836.367	629.580
354.650	16.239	836.173	629.258
355.665	16.311	835.525	628.981
356.679	16.362	834.578	628.404
357.694	16.434	833.984	628.168
358.708	16.389	833.124	627.297
359.723	16.387	832.925	627.086
360.738	16.365	832.527	626.648
361.752	16.448	831.791	626.346
362.767	16.494	831.216	626.028
363.781	16.472	830.489	625.346
364.796	16.579	830.221	625.482
365.810	16.630	829.621	625.166
366.825	16.542	829.426	624.637
367.840	16.732	828.862	624.860
368.854	16.681	828.266	624.167
369.869	16.494	828.283	623.433
370.883	16.528	828.030	623.315
371.898	16.632	827.455	623.207
372.913	16.615	826.628	622.468
373.927	16.668	826.164	622.257
374.942	16.614	826.329	622.131
375.956	16.736	825.441	621.854
376.971	16.802	824.559	621.376
377.986	16.813	824.402	621.244
379.000	16.920	823.958	621.245
380.015	16.930	823.573	620.935
381.029	17.109	822.807	620.960
382.044	16.834	822.224	619.457
383.059	16.920	821.636	619.274
384.073	16.791	821.287	618.486
385.088	16.777	820.393	617.707
386.102	16.905	820.138	617.929
387.117	16.981	819.271	617.495
388.132	16.890	818.886	616.822
389.146	16.927	818.465	616.584
390.161	16.927	818.058	616.223
391.175	16.963	817.441	615.833
392.190	16.826	817.020	614.964
393.205	16.828	816.934	614.853
394.219	16.904	816.537	614.773
395.234	16.983	815.480	614.210
396.248	16.957	815.611	614.161
397.263	16.873	814.940	613.297
398.278	16.973	814.347	613.158
399.292	16.892	814.055	612.591
400.307	16.868	813.874	612.314
401.321	16.944	813.224	612.046
402.336	16.962	812.952	611.851
403.350	17.019	812.145	611.394
404.365	17.098	811.598	611.215
405.380	17.091	811.592	611.129
406.394	17.299	810.415	610.939
407.409	17.179	810.557	610.558
408.423	17.092	810.185	609.911
409.438	17.334	809.459	610.178
410.453	17.277	809.393	609.870
411.467	17.353	808.487	609.408
412.482	17.364	808.633	609.505
413.496	17.416	807.784	608.995
414.511	17.285	807.987	608.624
415.526	17.397	807.177	608.361
416.540	17.261	806.855	607.580
417.555	17.398	806.138	607.476
418.569	17.464	805.565	607.227
419.584	17.516	805.095	607.002
420.599	17.625	804.520	606.902
421.613	110.544	1294.040	1475.616
422.628	95.304	1365.353	1475.712
