DTS Sentinel unit serial number:	SN413079Multiplexer serial number:	ORYXHardware model number:	OX4-SRSoftware version number:	ORYX F/W v4.00 Oryx Data Collector v3.7.2.0data status	okinstallation	princeton_trtdifferential loss correction	single-endedforward channel	channel 1reverse channel	N/Adate	2019/09/12time	17:48:11forward acquisition time	60.00reverse acquisition time	0.00gamma	496.2192k internal	0.2317k external	0.2317temperature offset calibration	1.0102default loss term (dB/km)	0.3790temperature slope calibration	1.0000multiplexer offset coefficient	1.0000multiplexer slope coefficient	1.0000fibre end	0.00T internal ref (°C)	34.09T ext. ref 1 (°C)	2.84T ext. ref 2 (°C)	28.23length (m)	temperature (°C)	Stokes	anti-Stokes-747.200	-200.000	-0.005	-0.266
-746.185	-200.000	-0.063	0.429
-745.171	55.448	0.111	-0.109
-744.156	-125.442	-0.352	0.054
-743.142	257.744	0.109	-0.190
-742.127	-141.157	-0.186	-0.019
-741.112	64.512	-0.056	-0.057
-740.098	140.203	-0.184	0.246
-739.083	88.192	0.061	0.068
-738.069	86.938	-0.107	0.120
-737.054	346.229	0.070	0.140
-736.039	180.292	-0.184	-0.274
-735.025	169.261	-0.335	0.485
-734.010	-200.000	0.016	0.198
-732.996	-200.000	-0.037	0.373
-731.981	30.841	-0.125	-0.108
-730.966	-133.691	0.326	0.041
-729.952	265.030	-0.047	-0.083
-728.937	-3.125	-0.291	0.206
-727.923	-1.814	-0.326	0.232
-726.908	276.835	-0.061	-0.109
-725.894	800.000	-0.077	-0.274
-724.879	-200.000	0.033	0.210
-723.864	-67.709	-0.444	0.176
-722.850	68.841	-0.184	0.191
-721.835	-39.983	-0.137	-0.072
-720.821	800.000	-0.030	-0.110
-719.806	-110.712	-0.163	0.034
-718.791	800.000	-0.086	-0.335
-717.777	-130.974	0.170	0.023
-716.762	-189.675	-0.232	0.003
-715.748	-145.460	0.139	-0.013
-714.733	-200.000	0.021	0.247
-713.718	508.597	-0.079	0.185
-712.704	61.221	0.197	-0.198
-711.689	-86.622	-0.193	-0.060
-710.675	140.742	-0.095	-0.127
-709.660	95.043	0.143	-0.164
-708.645	207.770	-0.096	-0.152
-707.631	382.103	-0.064	-0.132
-706.616	-200.000	0.017	-0.196
-705.602	-43.503	0.223	-0.114
-704.587	-94.931	0.201	0.055
-703.572	800.000	0.021	-0.087
-702.558	-87.279	-0.227	-0.070
-701.543	-65.116	-0.259	-0.106
-700.529	283.830	0.079	0.144
-699.514	193.345	0.090	-0.137
-698.499	491.847	-0.074	-0.172
-697.485	124.754	0.074	0.095
-696.470	-82.982	0.141	0.046
-695.456	133.290	0.353	-0.461
-694.441	-200.000	-0.065	-0.312
-693.426	-62.157	0.441	0.186
-692.412	-123.789	-0.179	0.029
-691.397	59.805	-0.056	0.056
-690.383	-102.957	0.045	0.011
-689.368	-93.124	-0.225	-0.063
-688.354	-200.000	0.012	-0.254
-687.339	-200.000	0.007	-0.200
-686.324	800.000	0.113	-0.396
-685.310	-48.925	-0.102	-0.050
-684.295	263.492	-0.042	0.074
-683.281	800.000	-0.061	0.248
-682.266	-200.000	-0.086	0.395
-681.251	65.519	0.174	0.178
-680.237	87.057	0.058	0.065
-679.222	-184.606	-0.258	-0.004
-678.208	46.213	-0.019	-0.018
-677.193	45.866	-0.088	0.082
-676.178	59.804	-0.107	-0.107
-675.164	158.736	-0.180	-0.253
-674.149	194.780	-0.126	-0.192
-673.135	-65.886	0.210	-0.085
-672.120	189.124	-0.157	0.237
-671.105	800.000	-0.090	0.352
-670.091	800.000	0.071	0.200
-669.076	-90.614	0.148	-0.043
-668.062	482.170	-0.123	0.281
-667.047	-57.911	-0.316	-0.139
-666.032	-114.470	0.324	-0.063
-665.018	-200.000	-0.001	0.253
-664.003	800.000	0.042	0.146
-662.989	260.223	-0.173	-0.302
-661.974	-136.537	-0.128	-0.015
-660.959	800.000	-0.031	-0.102
-659.945	13.459	-0.191	-0.150
-658.930	-117.001	-0.191	-0.035
-657.916	261.269	-0.208	0.363
-656.901	-200.000	0.028	-0.145
-655.886	-33.590	-0.235	-0.131
-654.872	42.766	-0.176	0.162
-653.857	-9.602	-0.233	0.157
-652.843	-16.908	0.159	0.101
-651.828	50.000	0.209	0.199
-650.814	-200.000	0.012	0.055
-649.799	-200.000	-0.037	-0.173
-648.784	-26.449	0.072	0.042
-647.770	-200.000	-0.014	0.275
-646.755	800.000	0.087	0.340
-645.741	-62.572	0.240	-0.101
-644.726	-200.000	-0.010	0.059
-643.711	180.128	0.030	-0.045
-642.697	-119.410	-0.233	0.041
-641.682	-96.341	-0.332	-0.089
-640.668	-71.171	0.091	0.035
-639.653	-20.301	-0.237	-0.147
-638.638	42.509	0.177	0.163
-637.624	-164.725	0.281	-0.013
-636.609	218.239	0.112	-0.180
-635.595	-100.508	0.146	-0.036
-634.580	-57.968	0.041	0.018
-633.565	50.059	0.082	-0.078
-632.551	-200.000	0.054	-0.241
-631.536	-27.196	-0.268	-0.158
-630.522	32.945	0.373	0.326
-629.507	-125.922	-0.161	0.024
-628.492	-46.777	-0.179	0.088
-627.478	20.562	0.227	0.185
-626.463	-148.650	-0.187	-0.015
-625.449	-41.759	-0.275	-0.142
-624.434	236.393	-0.057	-0.095
-623.419	-63.944	-0.243	-0.100
-622.405	-85.093	0.384	-0.121
-621.390	51.052	0.240	-0.229
-620.376	356.089	-0.163	-0.327
-619.361	575.811	-0.108	-0.265
-618.346	-11.619	-0.163	0.108
-617.332	49.606	-0.091	-0.086
-616.317	143.012	0.122	-0.163
-615.303	-115.818	-0.199	-0.038
-614.288	-79.872	-0.281	-0.095
-613.273	101.778	-0.245	0.288
-612.259	800.000	-0.035	-0.144
-611.244	-200.000	0.023	0.139
-610.230	-101.379	0.275	-0.067
-609.215	800.000	-0.037	-0.106
-608.201	108.307	-0.273	0.328
-607.186	-200.000	-0.076	0.350
-606.171	155.842	0.134	0.186
-605.157	-7.266	-0.247	0.168
-604.142	-1.127	0.108	0.077
-603.128	-70.329	-0.258	-0.098
-602.113	-200.000	0.042	0.369
-601.098	800.000	-0.017	0.052
-600.084	745.745	-0.026	0.070
-599.069	-91.829	0.148	-0.042
-598.055	21.118	-0.092	0.076
-597.040	-200.000	0.013	0.134
-596.025	-200.000	-0.084	0.376
-595.011	1.139	-0.089	-0.064
-593.996	146.905	-0.023	-0.032
-592.982	181.144	-0.028	-0.042
-591.967	-83.460	-0.215	0.069
-590.952	-30.308	-0.233	0.133
-589.938	-56.198	-0.116	0.052
-588.923	88.000	-0.041	-0.045
-587.909	86.823	-0.304	-0.337
-586.894	43.887	0.197	-0.182
-585.879	-45.932	-0.258	0.128
-584.865	536.992	0.033	-0.078
-583.850	333.750	-0.105	-0.204
-582.836	800.000	0.042	-0.149
-581.821	-61.825	-0.435	0.183
-580.806	800.000	-0.041	-0.124
-579.792	-131.356	0.144	-0.019
-578.777	800.000	0.039	-0.148
-577.763	-135.793	0.471	0.056
-576.748	170.328	-0.091	0.131
-575.733	-59.810	-0.517	0.222
-574.719	-167.681	-0.246	0.010
-573.704	-102.618	0.143	-0.034
-572.690	187.824	-0.073	0.110
-571.675	155.396	0.235	-0.325
-570.661	-60.769	0.230	0.098
-569.646	23.720	-0.092	0.077
-568.631	-2.830	-0.097	0.069
-567.617	-200.000	-0.031	0.237
-566.602	-200.000	0.036	-0.292
-565.588	-72.116	-0.293	0.109
-564.573	-16.474	0.221	-0.141
-563.558	-119.765	0.028	0.005
-562.544	-200.000	-0.052	0.335
-561.529	640.397	-0.120	-0.306
-560.515	-200.000	-0.009	-0.086
-559.500	-16.377	-0.112	0.071
-558.485	-130.483	0.257	-0.035
-557.471	800.000	0.039	0.173
-556.456	162.510	-0.070	-0.098
-555.442	486.546	-0.092	0.211
-554.427	-12.591	0.131	-0.086
-553.412	-200.000	-0.057	-0.409
-552.398	95.869	-0.216	0.248
-551.383	-135.210	-0.055	-0.007
-550.369	-200.000	0.021	-0.443
-549.354	1.831	0.150	0.109
-548.339	-200.000	-0.082	0.412
-547.325	-66.275	0.131	0.053
-546.310	-200.000	0.010	-0.140
-545.296	478.716	0.063	0.142
-544.281	-200.000	0.011	-0.307
-543.266	106.947	-0.239	0.285
-542.252	-14.129	-0.180	-0.117
-541.237	392.725	-0.126	0.263
-540.223	163.450	-0.163	-0.231
-539.208	-41.030	0.017	-0.009
-538.193	126.576	-0.208	-0.265
-537.179	228.677	0.137	0.224
-536.164	29.226	0.260	0.222
-535.150	-38.491	0.021	0.011
-534.135	800.000	0.096	-0.367
-533.121	721.835	-0.110	0.294
-532.106	-0.859	0.156	-0.111
-531.091	-120.411	0.245	-0.042
-530.077	-200.000	0.008	0.095
-529.062	-200.000	0.031	0.188
-528.048	-82.784	0.093	0.030
-527.033	189.929	-0.194	-0.292
-526.018	-21.592	-0.239	0.146
-525.004	-125.537	-0.267	-0.041
-523.989	-200.000	-0.013	0.290
-522.975	116.884	0.108	-0.133
-521.960	-200.000	0.014	0.282
-520.945	669.085	-0.027	-0.070
-519.931	-16.816	0.236	-0.150
-518.916	-200.000	0.040	0.187
-517.902	-108.051	-0.132	0.029
-516.887	-148.322	-0.377	0.031
-515.872	-65.043	-0.180	-0.073
-514.858	64.938	0.048	0.049
-513.843	165.411	-0.152	0.215
-512.829	7.597	0.292	0.220
-511.814	597.582	-0.047	0.117
-510.799	-32.028	-0.140	0.079
-509.785	-35.035	-0.056	-0.031
-508.770	102.156	0.171	-0.201
-507.756	501.295	0.083	0.193
-506.741	137.512	-0.122	-0.160
-505.726	800.000	-0.086	0.288
-504.712	-17.216	0.125	-0.079
-503.697	-77.452	0.220	0.077
-502.683	-140.438	0.093	0.010
-501.668	-200.000	0.041	-0.193
-500.653	-147.861	0.155	-0.013
-499.639	-52.784	-0.299	0.138
-498.624	31.653	0.106	-0.091
-497.610	-119.237	-0.042	-0.007
-496.595	13.909	-0.086	0.067
-495.581	-84.447	-0.256	-0.081
-494.566	-32.466	-0.140	-0.078
-493.551	800.000	-0.081	-0.305
-492.537	800.000	0.060	0.178
-491.522	138.938	-0.095	0.125
-490.508	-99.482	-0.462	-0.117
-489.493	221.810	0.023	0.037
-488.478	-45.727	0.128	-0.063
-487.464	800.000	-0.075	-0.248
-486.449	-200.000	-0.027	-0.145
-485.435	-67.523	-0.186	0.073
-484.420	665.597	0.049	-0.126
-483.405	-77.530	-0.085	-0.030
-482.391	-180.361	-0.251	-0.005
-481.376	63.397	0.176	-0.177
-480.362	304.330	0.056	-0.105
-479.347	-80.369	-0.271	-0.091
-478.332	-104.534	0.215	0.050
-477.318	-200.000	0.039	0.221
-476.303	-6.003	-0.284	0.194
-475.289	-125.039	-0.141	0.022
-474.274	-200.000	-0.013	0.380
-473.259	293.732	0.126	0.230
-472.245	800.000	-0.013	-0.047
-471.230	-200.000	0.020	0.139
-470.216	306.058	-0.039	0.072
-469.201	63.159	-0.362	-0.363
-468.186	-78.727	-0.100	0.034
-467.172	80.392	0.232	0.250
-466.157	15.027	-0.080	0.063
-465.143	-1.070	0.152	-0.108
-464.128	-200.000	-0.016	0.217
-463.113	416.371	0.107	0.229
-462.099	-200.000	-0.054	0.260
-461.084	-200.000	-0.054	-0.250
-460.070	-4.165	0.236	-0.163
-459.055	-92.814	0.210	-0.059
-458.040	-81.612	0.293	0.096
-457.026	-200.000	-0.017	-0.117
-456.011	36.469	0.173	0.153
-454.997	55.627	-0.025	0.024
-453.982	109.687	-0.072	-0.086
-452.968	-39.283	0.266	0.140
-451.953	-39.483	0.062	-0.032
-450.938	3.729	0.201	-0.147
-449.924	160.056	0.194	0.271
-448.909	8.116	0.178	0.134
-447.895	800.000	-0.081	0.299
-446.880	64.350	0.456	0.460
-445.865	249.092	-0.247	-0.419
-444.851	-156.614	-0.371	-0.023
-443.836	613.704	0.052	-0.129
-442.822	-162.032	-0.112	-0.006
-441.807	123.210	-0.128	0.160
-440.792	-77.169	0.181	0.063
-439.778	69.458	-0.073	-0.075
-438.763	281.729	0.126	-0.225
-437.749	-29.563	0.248	-0.142
-436.734	164.863	-0.183	-0.259
-435.719	-115.826	0.114	-0.021
-434.705	309.616	-0.119	-0.222
-433.690	-43.652	-0.276	-0.139
-432.676	-35.716	-0.163	-0.089
-431.661	-31.081	0.056	-0.032
-430.646	223.749	0.121	0.195
-429.632	1.023	0.128	-0.092
-428.617	161.621	0.026	-0.037
-427.603	-88.323	-0.181	0.054
-426.588	133.804	-0.160	-0.208
-425.573	-118.777	-0.376	0.066
-424.559	-200.000	0.024	0.136
-423.544	-162.121	0.108	0.005
-422.530	-165.032	-0.290	-0.013
-421.515	-55.491	-0.256	-0.115
-420.500	-200.000	0.013	0.098
-419.486	-80.125	0.227	0.076
-418.471	800.000	-0.059	0.250
-417.457	-102.577	-0.220	-0.052
-416.442	227.430	0.214	0.348
-415.428	-200.000	0.007	-0.204
-414.413	-62.596	-0.111	0.046
-413.398	150.941	0.017	-0.022
-412.384	-40.708	0.218	0.113
-411.369	-200.000	-0.002	-0.119
-410.355	-70.121	0.268	-0.102
-409.340	-200.000	0.025	0.281
-408.325	-200.000	0.274	-0.000
-407.311	-57.402	0.211	-0.093
-406.296	-82.519	0.169	-0.055
-405.282	-78.136	-0.283	0.097
-404.267	-52.064	0.174	0.081
-403.252	50.606	0.321	-0.303
-402.238	-200.000	0.051	-0.371
-401.223	-83.399	0.353	0.113
-400.209	5.824	-0.417	0.308
-399.194	-200.000	0.034	-0.384
-398.179	800.000	0.048	-0.164
-397.165	-118.616	0.240	-0.042
-396.150	-107.140	-0.191	-0.042
-395.136	-200.000	-0.002	-0.189
-394.121	688.785	0.019	0.050
-393.106	-200.000	-0.073	-0.439
-392.092	74.665	-0.031	-0.033
-391.077	-200.000	-0.045	0.255
-390.063	-58.587	-0.147	-0.064
-389.048	-94.406	0.119	-0.032
-388.033	12.384	0.348	0.268
-387.019	-104.851	-0.265	-0.061
-386.004	800.000	0.058	-0.224
-384.990	-7.587	0.095	-0.064
-383.975	-44.291	-0.262	0.131
-382.960	-200.000	0.019	0.153
-381.946	78.675	0.316	0.337
-380.931	65.026	-0.090	0.091
-379.917	800.000	0.097	0.272
-378.902	800.000	0.112	-0.422
-377.888	-200.000	0.048	-0.406
-376.873	-37.651	-0.093	0.049
-375.858	-200.000	0.000	-0.259
-374.844	800.000	0.090	-0.340
-373.829	507.570	-0.052	-0.121
-372.815	-141.118	0.174	-0.018
-371.800	464.458	0.035	0.078
-370.785	-53.206	0.224	-0.103
-369.771	-136.745	0.230	0.026
-368.756	-200.000	0.006	-0.092
-367.742	-150.149	-0.155	-0.012
-366.727	-4.638	0.187	0.129
-365.712	-89.663	-0.065	-0.019
-364.698	17.534	-0.299	-0.237
-363.683	306.699	0.153	-0.284
-362.669	-200.000	0.016	-0.162
-361.654	139.009	0.091	-0.119
-360.639	-170.138	0.380	-0.013
-359.625	-200.000	-0.039	-0.190
-358.610	795.223	0.024	0.065
-357.596	-12.470	-0.047	-0.031
-356.581	394.328	-0.038	-0.080
-355.566	-186.765	0.235	0.003
-354.552	-131.427	-0.215	-0.028
-353.537	-38.088	0.285	-0.151
-352.523	-22.333	0.216	0.131
-351.508	-129.755	-0.314	0.043
-350.493	-13.656	0.058	0.037
-349.479	-0.840	0.269	-0.190
-348.464	236.838	0.134	0.222
-347.450	-33.808	-0.084	0.046
-346.435	-121.353	0.417	-0.069
-345.420	-200.000	0.014	-0.103
-344.406	-120.888	-0.177	0.030
-343.391	-166.719	-0.417	-0.017
-342.377	153.380	0.106	0.145
-341.362	-136.218	0.301	0.035
-340.348	298.259	-0.073	-0.133
-339.333	59.089	0.206	-0.202
-338.318	-138.940	-0.371	-0.040
-337.304	162.996	-0.036	0.051
-336.289	-121.869	-0.181	-0.030
-335.275	-200.000	0.070	0.343
-334.260	13.672	0.254	-0.196
-333.245	50.943	-0.101	0.096
-332.231	65.463	0.257	0.259
-331.216	-79.725	0.147	-0.049
-330.202	800.000	0.081	0.311
-329.187	-200.000	-0.080	0.395
-328.172	32.070	0.162	0.139
-327.158	800.000	-0.059	-0.178
-326.143	277.849	-0.019	-0.034
-325.129	-63.423	0.202	0.083
-324.114	-153.906	-0.185	0.013
-323.099	696.287	-0.062	0.162
-322.085	-137.445	0.112	0.013
-321.070	-200.000	0.010	-0.094
-320.056	92.215	-0.185	0.208
-319.041	50.794	-0.245	0.231
-318.026	59.616	-0.025	0.024
-317.012	-102.549	0.063	-0.015
-315.997	17.638	0.217	-0.172
-314.983	140.668	0.257	0.338
-313.968	-169.311	-0.516	-0.019
-312.953	230.491	0.066	0.107
-311.939	377.856	-0.014	0.029
-310.924	-57.353	0.371	-0.162
-309.910	-200.000	-0.021	-0.395
-308.895	171.074	0.082	0.117
-307.880	-200.000	0.032	-0.221
-306.866	-25.039	0.205	0.121
-305.851	1.808	0.246	-0.177
-304.837	-82.067	-0.297	-0.096
-303.822	67.127	-0.165	0.168
-302.807	-69.518	-0.209	-0.080
-301.793	-74.271	-0.302	-0.108
-300.778	-35.161	0.090	-0.049
-299.764	-108.808	-0.242	-0.052
-298.749	652.498	0.092	-0.235
-297.735	800.000	0.046	-0.177
-296.720	-32.571	0.187	0.104
-295.705	-200.000	-0.024	-0.154
-294.691	160.930	0.138	0.192
-293.676	151.958	0.130	-0.176
-292.662	37.476	-0.273	-0.241
-291.647	-200.000	-0.192	0.001
-290.632	-2.574	0.173	0.120
-289.618	245.961	-0.077	0.129
-288.603	172.553	0.233	0.333
-287.589	-200.000	-0.013	-0.076
-286.574	308.441	-0.074	-0.137
-285.559	-200.000	0.000	-0.239
-284.545	135.863	0.351	0.455
-283.530	-63.093	-0.134	0.055
-282.516	-200.000	-0.003	0.343
-281.501	275.629	0.210	0.371
-280.486	41.091	-0.239	0.215
-279.472	133.789	-0.067	-0.086
-278.457	68.330	-0.117	-0.119
-277.443	-41.680	0.218	0.111
-276.428	168.342	0.041	-0.058
-275.413	-172.622	-0.184	0.006
-274.399	-200.000	0.060	-0.389
-273.384	-200.000	0.029	0.166
-272.370	-200.000	-0.019	0.139
-271.355	42.766	-0.157	-0.143
-270.340	85.292	-0.154	0.168
-269.326	32.506	-0.150	-0.129
-268.311	72.667	-0.064	0.067
-267.297	-49.769	0.091	0.043
-266.282	-50.190	0.332	-0.156
-265.267	176.900	0.216	0.313
-264.253	226.113	0.071	0.114
-263.238	800.000	-0.044	-0.141
-262.224	-165.338	-0.415	-0.018
-261.209	-200.000	-0.002	0.058
-260.195	219.212	-0.174	-0.276
-259.180	146.333	-0.073	0.097
-258.165	138.583	0.148	0.193
-257.151	-200.000	-0.016	-0.094
-256.136	-62.506	-0.199	-0.082
-255.122	120.808	-0.269	0.333
-254.107	695.421	-0.045	-0.117
-253.092	-21.936	0.303	-0.183
-252.078	-200.000	-0.011	-0.120
-251.063	800.000	-0.010	0.035
-250.049	30.687	0.125	-0.106
-249.034	-7.713	-0.100	0.067
-248.019	239.165	-0.054	-0.089
-247.005	-8.711	0.398	-0.265
-245.990	121.417	0.167	-0.207
-244.976	100.542	-0.291	-0.335
-243.961	107.721	-0.185	-0.218
-242.946	314.330	0.030	0.055
-241.932	-34.897	0.148	0.080
-240.917	156.877	0.138	-0.190
-239.903	-130.139	-0.187	-0.025
-238.888	-106.606	-0.074	0.016
-237.873	-53.387	-0.099	-0.045
-236.859	-200.000	-0.061	0.365
-235.844	800.000	-0.059	-0.248
-234.830	800.000	0.054	0.210
-233.815	-103.602	0.075	0.017
-232.800	800.000	0.054	-0.170
-231.786	-200.000	-0.018	0.184
-230.771	323.903	0.133	0.252
-229.757	179.126	0.113	0.164
-228.742	800.000	0.038	0.157
-227.727	61.416	-0.235	-0.232
-226.713	236.810	0.056	-0.092
-225.698	-42.811	0.193	-0.097
-224.684	-30.881	0.151	0.084
-223.669	242.580	-0.104	0.173
-222.655	-123.062	0.204	0.032
-221.640	-53.081	0.254	0.116
-220.625	-6.131	0.167	0.113
-219.611	-200.000	-0.075	0.376
-218.596	-6.127	0.172	0.117
-217.582	-200.000	0.161	0.001
-216.567	800.000	-0.098	-0.289
-215.552	-104.574	0.112	-0.026
-214.538	67.200	0.173	-0.175
-213.523	800.000	-0.142	0.495
-212.509	-60.308	0.190	0.080
-211.494	-36.309	0.143	0.076
-210.479	581.709	0.072	0.175
-209.465	-38.152	-0.059	-0.031
-208.450	-105.270	-0.137	-0.031
-207.436	2.985	-0.036	0.026
-206.421	-26.276	0.072	0.042
-205.406	-145.282	0.099	-0.009
-204.392	78.211	-0.094	-0.099
-203.377	-47.526	-0.185	0.089
-202.363	-114.506	-0.417	0.079
-201.348	-100.326	0.076	0.019
-200.333	-142.172	-0.318	0.031
-199.319	263.405	-0.116	-0.200
-198.304	264.593	-0.188	-0.325
-197.290	-87.820	0.095	-0.029
-196.275	-30.826	0.032	0.018
-195.260	509.551	-0.069	0.159
-194.246	-101.140	0.278	0.067
-193.231	800.000	-0.024	0.085
-192.217	-37.476	0.235	0.124
-191.202	241.748	0.050	0.083
-190.187	-130.038	-0.258	-0.035
-189.173	173.167	-0.067	0.096
-188.158	280.700	0.059	-0.104
-187.144	37.709	-0.248	-0.218
-186.129	148.798	-0.109	-0.145
-185.114	-200.000	0.007	0.145
-184.100	-118.608	0.159	0.028
-183.085	22.527	0.194	-0.157
-182.071	800.000	0.086	-0.358
-181.056	100.094	-0.267	-0.307
-180.042	800.000	0.009	-0.034
-179.027	-8.012	-0.103	-0.069
-178.012	-9.407	0.051	-0.034
-176.998	109.363	0.228	-0.270
-175.983	-200.000	-0.016	-0.184
-174.969	-117.539	-0.347	0.062
-173.954	-22.482	0.130	-0.078
-172.939	-64.031	0.280	0.113
-171.925	-34.352	0.190	0.103
-170.910	-86.255	0.215	-0.065
-169.896	162.130	0.065	-0.090
-168.881	-200.000	-0.035	-0.183
-167.866	-90.048	0.146	-0.042
-166.852	-163.607	0.280	0.013
-165.837	8.524	0.178	0.133
-164.823	100.104	0.194	0.222
-163.808	-200.000	-0.027	-0.216
-162.793	-200.000	0.048	-0.308
-161.779	6.546	-0.155	0.114
-160.764	65.106	-0.249	0.249
-159.750	-200.000	0.002	-0.147
-158.735	231.579	-0.100	-0.163
-157.720	-200.000	0.002	-0.200
-156.706	-200.000	-0.002	0.250
-155.691	359.836	0.058	0.116
-154.677	37.881	0.110	0.097
-153.662	242.449	0.104	0.172
-152.647	92.969	-0.025	-0.028
-151.633	46.038	-0.217	0.199
-150.618	78.879	0.324	-0.343
-149.604	-184.183	0.359	0.006
-148.589	46.809	-0.100	-0.092
-147.574	-64.684	-0.106	-0.043
-146.560	-45.396	-0.207	-0.101
-145.545	26.869	-0.279	0.231
-144.531	319.123	0.044	-0.082
-143.516	143.784	0.173	0.228
-142.502	-200.000	-0.007	0.066
-141.487	-92.767	0.095	0.026
-140.472	-4.048	-0.136	-0.093
-139.458	-10.743	0.149	-0.098
-138.443	-200.000	0.039	0.302
-137.429	105.985	-0.217	-0.254
-136.414	-88.828	-0.312	0.092
-135.399	-200.000	-0.028	-0.123
-134.385	-83.734	0.280	-0.088
-133.370	-90.061	-0.056	0.016
-132.356	5.891	0.160	-0.117
-131.341	-200.000	-0.013	0.102
-130.326	22.157	0.212	-0.171
-129.312	-157.201	-0.162	-0.010
-128.297	-200.000	0.043	0.302
-127.283	-200.000	0.007	-0.087
-126.268	52.853	-0.060	-0.057
-125.253	10.805	-0.075	0.057
-124.239	754.421	0.039	0.105
-123.224	-42.521	-0.190	-0.096
-122.210	724.591	-0.147	-0.387
-121.195	-112.311	0.449	0.089
-120.180	-39.817	0.314	0.162
-119.166	215.547	-0.176	0.276
-118.151	80.797	-0.138	0.148
-117.137	63.357	-0.016	0.016
-116.122	-33.992	0.364	0.198
-115.107	-143.189	-0.136	-0.013
-114.093	-30.553	0.109	-0.061
-113.078	-65.463	0.071	0.028
-112.064	37.289	0.050	0.043
-111.049	-200.000	0.084	-0.463
-110.034	-51.999	0.378	-0.174
-109.020	-200.000	-0.046	0.242
-108.005	2.361	-0.316	0.226
-106.991	-52.878	-0.345	-0.157
-105.976	-41.124	0.239	0.122
-104.962	-79.220	0.277	-0.093
-103.947	-29.835	-0.109	0.061
-102.932	525.020	0.033	0.076
-101.918	290.362	0.090	-0.161
-100.903	-55.900	-0.264	-0.116
-99.889	17.973	0.064	0.050
-98.874	-10.312	0.057	-0.037
-97.859	546.076	0.020	0.046
-96.845	-47.321	0.148	-0.071
-95.830	-101.367	0.209	-0.050
-94.816	-4.825	-0.414	0.282
-93.801	168.296	0.148	-0.208
-92.786	-131.382	0.303	0.040
-91.772	-47.720	0.248	0.119
-90.757	-94.889	-0.154	-0.041
-89.743	-200.000	-0.021	-0.162
-88.728	-200.000	0.034	-0.341
-87.713	181.316	-0.172	0.249
-86.699	198.274	0.166	0.251
-85.684	-176.973	0.304	-0.008
-84.670	-106.237	0.212	0.047
-83.655	-113.607	-0.069	-0.013
-82.640	800.000	0.067	0.287
-81.626	445.784	-0.118	-0.256
-80.611	-43.584	-0.271	0.135
-79.597	-127.724	-0.308	-0.044
-78.582	432.637	0.027	-0.058
-77.567	-36.093	-0.188	0.100
-76.553	157.384	0.081	0.110
-75.538	-200.000	0.000	0.197
-74.524	-121.220	-0.232	0.038
-73.509	-200.000	0.011	0.300
-72.494	-200.000	-0.092	0.405
-71.480	-68.714	0.252	-0.096
-70.465	-116.071	0.235	-0.043
-69.451	127.477	-0.064	-0.080
-68.436	-200.000	-0.033	0.158
-67.422	99.929	0.239	0.273
-66.407	-200.000	0.037	-0.346
-65.392	-99.380	-0.530	0.132
-64.378	800.000	0.035	-0.135
-63.363	-58.923	0.232	-0.099
-62.349	87.043	-0.245	0.267
-61.334	205.376	-0.556	-0.851
-60.319	-43.015	0.400	0.200
-59.305	-200.000	-0.045	-1.095
-58.290	349.438	0.515	1.002
-57.276	257.704	0.914	1.551
-56.261	-200.000	95.479	572.060
-55.246	547.747	1378.620	3252.550
-54.232	157.001	2565.832	3495.545
-53.217	113.229	2150.373	2570.553
-52.203	45.599	1610.356	1465.809
-51.188	37.552	1348.459	1178.869
-50.173	34.356	1305.881	1122.803
-49.159	57.040	1354.007	1300.622
-48.144	59.993	1371.353	1334.895
-47.130	37.923	1327.831	1162.863
-46.115	34.179	1310.825	1125.830
-45.100	34.099	1305.530	1120.769
-44.086	33.939	1303.728	1118.236
-43.071	33.999	1301.163	1116.339
-42.057	33.956	1299.327	1114.473
-41.042	33.999	1297.666	1113.252
-40.027	33.930	1296.978	1112.217
-39.013	34.018	1294.303	1110.393
-37.998	33.983	1292.684	1108.756
-36.984	34.102	1290.770	1107.761
-35.969	34.197	1289.029	1106.773
-34.954	34.091	1287.612	1104.897
-33.940	34.155	1286.137	1103.961
-32.925	34.167	1284.886	1102.912
-31.911	34.305	1283.104	1102.139
-30.896	34.112	1282.363	1100.342
-29.881	34.116	1280.707	1098.901
-28.867	34.210	1279.610	1098.456
-27.852	34.255	1277.975	1097.270
-26.838	34.231	1276.559	1095.872
-25.823	34.209	1275.309	1094.629
-24.809	34.164	1274.044	1093.240
-23.794	34.125	1272.826	1091.929
-22.779	34.140	1271.651	1090.963
-21.765	34.036	1270.633	1089.449
-20.750	34.221	1268.426	1088.573
-19.736	34.052	1267.782	1087.010
-18.721	33.951	1266.589	1085.369
-17.706	34.080	1264.898	1084.610
-16.692	34.062	1264.154	1083.827
-15.677	34.072	1262.978	1082.833
-14.663	34.033	1262.053	1081.779
-13.648	34.146	1260.486	1081.035
-12.633	34.077	1260.108	1080.272
-11.619	34.041	1259.344	1079.373
-10.604	34.041	1258.213	1078.362
-9.590	33.968	1257.429	1077.229
-8.575	34.056	1256.305	1076.723
-7.560	33.996	1255.431	1075.590
-6.546	34.032	1254.863	1075.266
-5.531	33.979	1253.904	1074.101
-4.517	34.018	1252.600	1073.161
-3.502	34.027	1252.542	1073.124
-2.487	33.997	1251.407	1071.937
-1.473	33.924	1247.243	1067.920
-0.458	32.299	1231.415	1045.299
0.556	29.206	1213.253	1004.227
1.571	25.154	1217.617	985.534
2.586	24.081	1232.417	991.454
3.600	23.316	1221.504	978.365
4.615	17.101	1149.724	888.372
5.629	7.592	1072.481	781.996
6.644	3.244	1052.714	746.466
7.659	2.890	1049.481	742.398
8.673	2.615	1048.363	740.214
9.688	2.603	1047.242	739.298
10.702	2.964	1045.771	739.935
11.717	8.763	1053.942	773.728
12.731	18.853	1068.765	833.740
13.746	24.726	1076.380	868.214
14.761	26.309	1077.243	876.518
15.775	26.314	1076.747	876.060
16.790	26.153	1075.891	874.509
17.804	26.019	1075.693	873.620
18.819	26.167	1075.200	873.857
19.834	26.325	1074.655	874.103
20.848	26.385	1074.399	874.105
21.863	26.160	1074.239	872.813
22.877	26.353	1072.650	872.374
23.892	26.230	1072.134	871.284
24.907	26.362	1071.124	871.024
25.921	26.379	1070.385	870.428
26.936	26.291	1069.000	868.799
27.950	26.332	1067.219	867.474
28.965	26.098	1065.928	865.225
29.980	26.219	1064.276	864.386
30.994	26.337	1064.045	864.689
32.009	26.382	1062.239	863.356
33.023	26.168	1061.613	861.752
34.038	26.229	1060.683	861.210
35.053	26.477	1060.213	861.937
36.067	26.400	1059.571	860.970
37.082	26.407	1058.758	860.268
38.096	26.455	1058.320	860.065
39.111	26.640	1057.525	860.221
40.126	26.464	1055.848	857.946
41.140	26.180	1054.483	855.415
42.155	26.014	1052.435	852.893
43.169	25.832	1052.318	851.861
44.184	25.921	1051.232	851.328
45.199	25.915	1050.172	850.366
46.213	25.947	1049.360	849.785
47.228	26.103	1049.011	850.160
48.242	26.302	1047.717	849.974
49.257	26.325	1047.413	849.759
50.271	26.372	1046.774	849.389
51.286	26.425	1046.193	849.088
52.301	26.360	1045.185	847.889
53.315	26.351	1044.198	846.973
54.330	26.275	1043.103	845.655
55.344	26.311	1042.534	845.288
56.359	26.261	1041.667	844.274
57.374	25.998	1040.846	842.306
58.388	26.161	1039.582	841.969
59.403	26.125	1038.570	840.909
60.417	25.881	1038.264	839.451
61.432	25.874	1037.711	838.896
62.447	25.976	1037.022	838.738
63.461	26.099	1036.202	838.574
64.476	26.141	1034.831	837.583
65.490	25.914	1034.195	835.944
66.505	26.062	1033.483	835.977
67.520	26.134	1032.813	835.697
68.534	25.642	1032.448	833.051
69.549	25.496	1030.820	830.989
70.563	25.622	1029.645	830.547
71.578	25.596	1028.989	829.827
72.593	25.406	1027.993	828.075
73.607	25.649	1027.515	828.735
74.622	25.910	1027.277	829.672
75.636	25.890	1026.364	828.770
76.651	25.730	1025.803	827.507
77.666	25.676	1025.061	826.586
78.680	25.665	1024.828	826.276
79.695	25.771	1024.097	826.100
80.709	25.912	1023.200	825.950
81.724	25.858	1022.711	825.233
82.739	26.045	1021.460	825.008
83.753	26.436	1020.958	826.314
84.768	26.622	1020.640	826.835
85.782	26.644	1019.985	826.330
86.797	26.642	1018.705	825.211
87.812	26.362	1017.683	823.038
88.826	26.588	1016.854	823.318
89.841	26.558	1016.333	822.687
90.855	26.576	1015.074	821.680
91.870	26.468	1014.537	820.681
92.884	26.344	1013.157	818.930
93.899	26.323	1012.419	818.167
94.914	26.570	1011.274	818.284
95.928	26.390	1010.428	816.718
96.943	26.148	1009.425	814.742
97.957	25.973	1007.896	812.646
98.972	25.803	1006.794	810.920
99.987	26.048	1006.719	811.893
101.001	26.275	1005.484	811.846
102.016	26.301	1004.785	811.324
103.030	26.238	1003.911	810.266
104.045	26.115	1002.616	808.594
105.060	25.940	1001.785	807.072
106.074	25.977	1001.708	807.102
107.089	26.281	1001.322	808.080
108.103	26.313	999.661	806.813
109.118	25.963	999.001	804.644
110.133	25.954	997.764	803.539
111.147	25.752	996.752	801.751
112.162	25.663	995.641	800.393
113.176	26.069	995.255	801.816
114.191	25.926	994.498	800.498
115.206	25.583	993.246	797.901
116.220	25.705	992.461	797.739
117.235	25.705	991.475	796.876
118.249	25.696	990.898	796.303
119.264	25.470	990.431	794.855
120.279	25.696	989.656	795.164
121.293	25.680	989.140	794.608
122.308	25.630	988.050	793.440
123.322	25.672	987.044	792.749
124.337	25.448	985.420	790.387
125.352	25.093	983.995	787.616
126.366	25.011	983.118	786.485
127.381	25.635	983.647	789.576
128.395	26.154	982.651	790.981
129.410	26.114	982.283	790.441
130.424	26.286	980.704	789.854
131.439	26.245	980.109	789.124
132.454	26.302	979.481	788.796
133.468	26.028	978.413	786.673
134.483	26.334	977.613	787.293
135.497	26.346	977.372	787.083
136.512	26.520	975.989	786.656
137.527	26.500	975.337	785.974
138.541	26.543	974.381	785.319
139.556	26.391	974.079	784.348
140.570	26.527	973.246	784.198
141.585	26.607	972.181	783.617
142.600	26.598	970.758	782.362
143.614	26.822	970.230	782.833
144.629	26.817	969.773	782.375
145.643	26.604	968.703	780.523
146.658	26.541	967.162	778.940
147.673	26.383	966.261	777.466
148.687	26.156	965.119	775.504
149.702	26.169	963.768	774.406
150.716	26.244	962.909	773.970
151.731	26.340	962.427	773.925
152.746	26.615	962.238	774.881
153.760	26.577	961.618	774.151
154.775	26.667	960.754	773.772
155.789	26.547	960.139	772.695
156.804	26.494	959.273	771.701
157.819	26.795	958.030	771.919
158.833	26.649	957.417	770.734
159.848	26.779	956.568	770.533
160.862	26.592	955.567	768.865
161.877	26.595	954.171	767.688
162.892	26.586	953.181	766.786
163.906	26.471	952.592	765.755
164.921	26.601	951.041	764.991
165.935	26.611	950.170	764.264
166.950	26.548	949.953	763.757
167.964	26.628	948.844	763.137
168.979	26.407	947.444	761.012
169.994	26.417	946.869	760.526
171.008	26.628	946.442	760.999
172.023	26.728	945.829	760.860
173.037	26.549	944.268	758.788
174.052	26.392	943.538	757.475
175.067	26.458	942.586	756.922
176.081	26.545	942.205	756.912
177.096	26.275	942.103	755.633
178.110	26.021	940.727	753.402
179.125	25.981	940.011	752.595
180.140	26.145	939.420	752.742
181.154	26.250	939.186	752.922
182.169	26.488	939.735	754.287
183.183	26.728	938.865	754.522
184.198	26.555	937.987	753.033
185.213	26.452	937.405	752.069
186.227	26.590	936.905	752.175
187.242	26.694	936.113	751.904
188.256	26.684	935.358	751.192
189.271	26.829	934.624	751.133
190.286	26.341	933.793	748.380
191.300	25.640	932.119	744.075
192.315	24.902	930.157	739.397
193.329	24.752	930.037	738.617
194.344	25.893	930.686	743.776
195.359	26.327	930.877	745.653
196.373	26.511	930.144	745.760
197.388	26.484	929.069	744.721
198.402	26.482	928.971	744.568
199.417	26.540	928.330	744.228
200.432	26.386	927.046	742.501
201.446	26.027	926.708	740.692
202.461	26.138	925.975	740.493
203.475	25.338	923.983	735.561
204.490	24.557	922.960	731.481
205.504	25.517	922.883	735.286
206.519	26.131	923.126	737.927
207.534	26.272	922.255	737.740
208.548	26.629	922.444	739.283
209.563	26.276	921.385	736.929
210.577	26.394	920.860	736.924
211.592	26.756	920.861	738.338
212.607	26.668	919.724	737.002
213.621	26.832	919.025	737.042
214.636	26.853	918.368	736.538
215.650	26.577	917.362	734.544
216.665	26.698	917.579	735.141
217.680	26.767	916.226	734.275
218.694	26.375	915.208	731.807
219.709	26.024	914.774	729.977
220.723	26.310	914.614	730.939
221.738	26.588	913.681	731.254
222.753	26.491	912.560	729.898
223.767	26.688	912.620	730.679
224.782	26.836	912.647	731.233
225.796	26.801	911.769	730.322
226.811	26.034	910.191	725.907
227.826	25.406	908.885	722.279
228.840	25.712	908.985	723.526
229.855	25.748	907.341	722.295
230.869	25.331	906.814	720.139
231.884	25.713	907.059	721.802
232.899	26.657	906.692	725.228
233.913	26.435	906.149	723.841
234.928	26.398	905.619	723.206
235.942	26.463	904.927	722.850
236.957	26.174	904.093	720.964
237.972	26.086	903.720	720.256
238.986	25.946	903.806	719.700
240.001	26.097	902.503	719.202
241.015	26.267	901.998	719.409
242.030	26.478	901.786	720.018
243.045	26.434	901.392	719.465
244.059	26.683	900.661	719.808
245.074	26.320	900.227	717.954
246.088	26.138	898.990	716.184
247.103	26.439	898.599	716.999
248.117	26.939	899.265	719.453
249.132	27.168	898.518	719.696
250.147	27.410	897.810	720.024
251.161	27.448	897.747	720.059
252.176	27.440	896.771	719.183
253.190	27.561	896.515	719.388
254.205	27.692	895.745	719.226
255.220	27.547	895.231	718.177
256.234	27.351	894.568	716.811
257.249	27.340	893.921	716.184
258.263	27.436	892.861	715.651
259.278	27.475	892.172	715.188
260.293	27.493	892.007	715.061
261.307	27.433	891.371	714.253
262.322	27.249	890.442	712.727
263.336	26.449	888.771	708.194
264.351	25.439	886.700	702.535
265.366	25.625	886.535	703.069
266.380	26.570	887.512	707.476
267.395	26.933	887.019	708.437
268.409	27.064	885.987	708.060
269.424	27.213	885.939	708.540
270.439	27.227	884.852	707.663
271.453	27.375	884.538	707.926
272.468	27.514	884.251	708.173
273.482	27.501	883.881	707.764
274.497	27.094	882.349	704.898
275.512	26.732	881.641	702.864
276.526	27.046	882.174	704.445
277.541	27.327	881.291	704.765
278.555	27.185	880.377	703.424
279.570	26.961	879.509	701.801
280.585	27.099	879.126	701.967
281.599	27.265	878.377	701.947
282.614	26.513	877.027	697.908
283.628	26.584	876.389	697.612
284.643	26.893	876.400	698.751
285.657	26.364	875.340	695.806
286.672	26.133	874.471	694.166
287.687	26.692	874.342	696.150
288.701	26.735	873.988	695.974
289.716	26.481	873.124	694.248
290.730	26.478	872.229	693.465
291.745	26.160	871.548	691.642
292.760	26.488	871.523	692.819
293.774	27.395	872.259	696.818
294.789	27.747	871.750	697.695
295.803	27.859	870.952	697.424
296.818	27.935	870.159	697.014
297.833	27.238	869.388	693.679
298.847	27.260	868.333	692.858
299.862	27.596	868.203	693.974
300.876	27.859	868.159	694.879
301.891	27.629	867.612	693.503
302.906	27.278	866.294	691.056
303.920	27.584	865.770	691.737
304.935	27.723	865.713	692.160
305.949	27.656	865.321	691.529
306.964	27.416	864.300	689.744
307.979	27.650	863.831	690.196
308.993	27.999	863.787	691.418
310.008	27.793	863.410	690.276
311.022	27.695	862.311	688.967
312.037	27.429	861.842	687.529
313.052	27.226	860.947	685.987
314.066	26.249	859.468	681.064
315.081	25.965	858.474	679.148
316.095	26.913	858.745	682.874
317.110	27.378	858.469	684.341
318.125	26.490	857.215	679.945
319.139	25.402	855.776	674.661
320.154	25.681	855.010	675.043
321.168	26.410	855.582	678.170
322.183	27.202	855.717	681.187
323.197	27.304	855.583	681.399
324.212	27.482	855.139	681.653
325.227	27.438	854.809	681.166
326.241	27.419	854.079	680.455
327.256	27.230	853.283	679.054
328.270	27.354	852.289	678.664
329.285	26.953	851.883	676.786
330.300	26.730	850.819	675.052
331.314	27.058	850.614	676.048
332.329	27.563	850.384	677.684
333.343	27.617	850.468	677.893
334.358	27.634	849.929	677.466
335.373	27.636	849.788	677.301
336.387	28.119	849.491	678.796
337.402	28.077	849.514	678.601
338.416	28.101	849.066	678.272
339.431	28.178	848.859	678.330
340.446	28.210	848.473	678.081
341.460	28.127	847.641	677.047
342.475	27.926	847.384	676.041
343.489	28.111	846.892	676.272
344.504	28.414	846.508	677.025
345.519	28.602	846.241	677.445
346.533	28.354	845.934	676.225
347.548	28.316	845.556	675.721
348.562	28.308	844.923	675.126
349.577	28.384	844.069	674.665
350.592	28.295	843.593	673.896
351.606	28.437	842.419	673.423
352.621	28.278	841.673	672.181
353.635	28.112	841.459	671.343
354.650	27.500	839.614	667.569
355.665	26.517	838.106	662.712
356.679	26.956	838.123	664.275
357.694	27.433	837.378	665.371
358.708	27.401	836.876	664.795
359.723	27.750	837.214	666.280
360.738	28.095	836.797	667.147
361.752	28.161	836.123	666.791
362.767	28.502	836.039	667.907
363.781	28.794	835.330	668.346
364.796	28.861	835.171	668.400
365.810	28.846	834.949	668.109
366.825	28.797	834.481	667.500
367.840	28.379	833.572	665.194
368.854	28.169	832.560	663.565
369.869	28.063	832.565	663.127
370.883	28.175	832.212	663.194
371.898	28.115	831.188	662.102
372.913	28.116	831.085	661.965
373.927	28.287	830.629	662.162
374.942	28.478	830.278	662.515
375.956	28.591	829.959	662.610
376.971	28.581	829.798	662.386
377.986	28.734	829.352	662.523
379.000	28.783	828.682	662.104
380.015	28.674	827.952	661.070
381.029	28.586	827.394	660.251
382.044	28.828	826.833	660.617
383.059	28.710	826.496	659.863
384.073	28.803	825.975	659.722
385.088	28.709	825.279	658.771
386.102	28.641	824.547	657.886
387.117	28.490	823.727	656.631
388.132	28.202	822.456	654.530
389.146	27.614	821.664	651.741
390.161	28.128	821.719	653.562
391.175	28.613	821.315	654.915
392.190	28.108	820.417	652.340
393.205	26.841	818.544	646.284
394.219	25.326	816.594	639.296
395.234	25.223	816.394	638.715
396.248	26.826	817.722	645.407
397.263	28.422	818.388	651.558
398.278	28.257	818.310	650.849
399.292	27.897	817.424	648.811
400.307	28.117	816.968	649.171
401.321	28.150	816.639	648.968
402.336	28.441	816.841	650.104
403.350	29.088	816.367	651.962
404.365	29.192	816.431	652.325
405.380	29.558	816.048	653.256
406.394	29.549	815.530	652.751
407.409	29.420	815.076	651.875
408.423	29.521	814.711	651.880
409.438	29.299	814.486	650.859
410.453	29.529	813.845	651.101
411.467	29.493	813.356	650.524
412.482	29.547	812.412	649.902
413.496	29.706	812.230	650.258
414.511	29.520	812.321	649.619
415.526	29.589	811.717	649.322
416.540	29.392	810.755	647.802
417.555	29.133	810.382	646.539
418.569	29.246	809.600	646.255
419.584	29.085	809.387	645.462
420.599	28.922	809.092	644.598
421.613	109.376	1286.300	1447.588
422.628	94.508	1355.816	1447.711
