DTS Sentinel unit serial number:	SN413079Multiplexer serial number:	ORYXHardware model number:	OX4-SRSoftware version number:	ORYX F/W v4.00 Oryx Data Collector v3.7.2.0data status	okinstallation	princeton_trtdifferential loss correction	single-endedforward channel	channel 1reverse channel	N/Adate	2019/09/13time	13:34:35forward acquisition time	60.00reverse acquisition time	0.00gamma	496.2192k internal	0.2304k external	0.2304temperature offset calibration	1.0161default loss term (dB/km)	0.3790temperature slope calibration	1.0000multiplexer offset coefficient	1.0000multiplexer slope coefficient	1.0000fibre end	0.00T internal ref (°C)	35.06T ext. ref 1 (°C)	4.57T ext. ref 2 (°C)	31.23length (m)	temperature (°C)	Stokes	anti-Stokes-747.200	98.048	0.195	-0.229
-746.185	337.448	-0.145	0.286
-745.171	16.761	-0.144	0.116
-744.156	78.191	-0.063	0.068
-743.142	-200.000	0.009	-0.132
-742.127	0.382	0.249	-0.181
-741.112	-200.000	0.025	-0.157
-740.098	800.000	0.053	-0.150
-739.083	285.909	0.168	-0.309
-738.069	3.024	-0.073	-0.054
-737.054	14.278	0.262	-0.208
-736.039	-200.000	-0.004	0.194
-735.025	-104.284	0.493	0.116
-734.010	381.929	-0.123	0.257
-732.996	-152.904	-0.540	-0.039
-731.981	-135.764	-0.265	0.032
-730.966	800.000	-0.017	0.051
-729.952	800.000	-0.042	-0.173
-728.937	-150.739	0.251	0.019
-727.923	800.000	-0.072	-0.248
-726.908	25.051	-0.038	-0.032
-725.894	800.000	-0.047	-0.167
-724.879	800.000	0.057	-0.213
-723.864	-68.789	-0.483	-0.190
-722.850	-121.275	-0.169	-0.029
-721.835	1.590	0.048	0.035
-720.821	-8.480	-0.150	-0.102
-719.806	-129.161	-0.076	0.011
-718.791	-141.282	-0.159	0.016
-717.777	800.000	0.094	-0.361
-716.762	285.148	0.103	-0.189
-715.748	-200.000	-0.025	-0.345
-714.733	751.159	0.036	-0.100
-713.718	800.000	-0.092	-0.287
-712.704	-200.000	-0.036	-0.285
-711.689	-136.564	-0.236	0.028
-710.675	-200.000	0.014	-0.095
-709.660	-83.148	-0.189	-0.062
-708.645	-102.266	0.319	-0.078
-707.631	-200.000	-0.012	0.341
-706.616	-124.817	0.067	0.011
-705.602	-61.185	0.178	0.076
-704.587	800.000	-0.041	0.139
-703.572	-200.000	0.168	0.000
-702.558	-200.000	-0.012	-0.136
-701.543	104.372	-0.135	0.162
-700.529	-181.872	-0.375	-0.007
-699.514	238.081	0.125	-0.211
-698.499	-37.136	-0.251	-0.136
-697.485	-200.000	0.005	0.049
-696.470	-77.596	0.264	-0.093
-695.456	112.287	0.308	-0.379
-694.441	26.227	-0.038	-0.033
-693.426	-57.677	-0.034	-0.015
-692.412	-129.893	-0.246	-0.034
-691.397	-1.145	0.218	-0.157
-690.383	-200.000	-0.034	0.246
-689.368	-200.000	0.000	-0.151
-688.354	-121.846	-0.279	0.047
-687.339	48.396	0.177	-0.168
-686.324	42.930	0.094	-0.087
-685.310	-94.508	-0.216	-0.060
-684.295	-83.553	0.282	-0.092
-683.281	493.105	0.044	-0.101
-682.266	-200.000	-0.033	-0.162
-681.251	-63.708	0.321	-0.134
-680.237	66.796	0.076	-0.078
-679.222	-200.000	-0.009	-0.093
-678.208	-200.000	0.020	0.246
-677.193	201.332	-0.113	-0.177
-676.178	-200.000	0.016	-0.107
-675.164	-200.000	0.002	0.205
-674.149	775.068	-0.079	0.219
-673.135	703.427	-0.075	-0.200
-672.120	-35.537	0.170	0.093
-671.105	65.571	-0.078	0.081
-670.091	-58.038	0.124	0.055
-669.076	-40.253	-0.059	-0.031
-668.062	-26.747	0.098	0.058
-667.047	15.387	-0.121	0.097
-666.032	-64.078	0.034	-0.014
-665.018	-140.389	0.330	0.035
-664.003	-200.000	-0.007	-0.083
-662.989	-0.788	0.310	0.223
-661.974	-128.367	-0.167	0.024
-660.959	-142.684	0.145	-0.014
-659.945	800.000	-0.140	-0.429
-658.930	457.885	-0.076	0.172
-657.916	-74.551	0.400	0.146
-656.901	291.029	0.096	-0.178
-655.886	-2.702	-0.201	-0.143
-654.872	1.405	0.054	0.040
-653.857	189.177	-0.138	-0.210
-652.843	-22.684	-0.175	0.107
-651.828	-72.144	0.323	-0.122
-650.814	-54.746	0.165	0.076
-649.799	166.840	-0.134	0.193
-648.784	-159.058	-0.291	-0.017
-647.770	-200.000	-0.001	-0.105
-646.755	84.158	-0.175	-0.194
-645.741	646.783	0.183	-0.474
-644.726	-200.000	0.001	-0.133
-643.711	-22.487	-0.070	-0.043
-642.697	-170.417	0.283	-0.010
-641.682	81.005	0.058	-0.064
-640.668	365.463	-0.036	-0.074
-639.653	-200.000	-0.068	-0.307
-638.638	94.822	0.135	0.156
-637.624	20.577	-0.075	0.062
-636.609	-34.308	-0.226	-0.126
-635.595	-135.511	0.119	0.014
-634.580	800.000	0.128	0.457
-633.565	157.009	0.127	0.178
-632.551	111.215	0.196	-0.240
-631.536	46.718	-0.308	-0.290
-630.522	-200.000	-0.084	0.428
-629.507	-200.000	0.001	-0.232
-628.492	17.238	-0.165	-0.132
-627.478	-56.699	0.138	-0.062
-626.463	244.580	-0.122	0.208
-625.449	164.151	0.175	-0.250
-624.434	-145.746	0.287	-0.026
-623.419	74.968	0.200	-0.214
-622.405	87.608	0.069	-0.078
-621.390	-110.967	0.140	0.029
-620.376	422.588	-0.089	-0.194
-619.361	-200.000	-0.039	0.199
-618.346	-21.088	-0.313	0.194
-617.332	207.431	-0.075	-0.118
-616.317	-200.000	0.006	0.118
-615.303	19.623	-0.182	-0.149
-614.288	80.646	0.094	-0.103
-613.273	86.653	0.185	0.207
-612.259	-3.568	-0.081	-0.057
-611.244	800.000	-0.031	0.099
-610.230	99.344	-0.146	-0.172
-609.215	-194.847	-0.472	0.004
-608.201	-188.595	-0.208	-0.003
-607.186	-112.392	-0.297	-0.060
-606.171	154.374	0.120	-0.167
-605.157	50.205	-0.055	-0.053
-604.142	-197.941	-0.236	-0.001
-603.128	-200.000	-0.021	0.274
-602.113	-56.929	0.231	0.103
-601.098	222.402	0.128	-0.209
-600.084	47.525	-0.120	0.113
-599.069	-159.612	-0.286	0.016
-598.055	-200.000	0.024	0.170
-597.040	-77.468	0.248	0.087
-596.025	81.308	-0.041	-0.045
-595.011	256.117	0.049	-0.086
-593.996	-70.065	-0.430	-0.166
-592.982	-200.000	0.020	0.123
-591.967	-130.129	-0.272	-0.037
-590.952	-165.720	0.227	-0.010
-589.938	1.990	-0.111	0.081
-588.923	-127.971	0.193	0.028
-587.909	-200.000	0.007	0.139
-586.894	800.000	0.061	-0.190
-585.879	137.525	-0.017	0.022
-584.865	-45.703	-0.158	-0.079
-583.850	411.526	-0.063	-0.135
-582.836	-200.000	0.043	0.205
-581.821	-200.000	-0.090	-0.475
-580.806	108.815	-0.300	0.362
-579.792	644.566	0.054	0.139
-578.777	-57.707	0.157	0.070
-577.763	203.019	0.123	0.192
-576.748	800.000	0.080	-0.342
-575.733	-151.828	0.291	0.022
-574.719	26.715	0.411	0.348
-573.704	-50.181	0.299	0.143
-572.690	182.468	-0.258	-0.385
-571.675	-119.311	-0.096	0.017
-570.661	-99.332	0.138	0.035
-569.646	114.089	-0.078	0.096
-568.631	-200.000	-0.022	0.230
-567.617	-65.243	-0.338	0.138
-566.602	-200.000	-0.014	0.366
-565.588	85.538	0.108	0.120
-564.573	527.568	-0.043	0.103
-563.558	-12.937	0.064	-0.042
-562.544	-179.248	0.442	0.010
-561.529	-106.974	-0.225	-0.050
-560.515	34.080	0.274	0.241
-559.500	-157.937	-0.332	0.020
-558.485	-74.760	-0.096	-0.035
-557.471	-200.000	0.001	0.140
-556.456	-200.000	0.013	0.095
-555.442	357.835	0.081	0.163
-554.427	-10.878	0.164	-0.109
-553.412	-53.664	-0.045	-0.021
-552.398	-94.965	-0.135	-0.037
-551.383	-58.027	0.219	-0.097
-550.369	307.582	-0.130	-0.245
-549.354	-200.000	-0.029	-0.300
-548.339	-200.000	0.008	-0.059
-547.325	-200.000	0.006	-0.394
-546.310	-10.667	0.146	-0.098
-545.296	-70.673	-0.050	-0.019
-544.281	-181.057	0.404	-0.008
-543.266	470.654	0.087	0.198
-542.252	279.130	-0.107	-0.193
-541.237	800.000	0.057	-0.219
-540.223	24.025	0.088	-0.073
-539.208	-27.527	0.161	-0.094
-538.193	800.000	-0.079	0.310
-537.179	50.689	-0.112	0.107
-536.164	243.411	-0.012	0.021
-535.150	128.099	-0.153	-0.196
-534.135	-9.172	0.240	-0.162
-533.121	800.000	-0.044	-0.157
-532.106	-65.301	-0.145	-0.059
-531.091	-135.923	-0.094	0.011
-530.077	-200.000	0.011	0.262
-529.062	-0.183	0.211	0.152
-528.048	117.603	-0.156	-0.194
-527.033	32.399	0.146	-0.127
-526.018	-35.748	0.238	0.130
-525.004	33.432	-0.099	0.087
-523.989	-200.000	0.074	0.348
-522.975	800.000	-0.068	0.216
-521.960	91.023	-0.165	-0.186
-520.945	-14.985	-0.140	-0.090
-519.931	-200.000	-0.000	-0.089
-518.916	-107.020	0.258	-0.058
-517.902	-92.244	-0.125	0.035
-516.887	-200.000	-0.002	0.074
-515.872	-113.227	0.066	0.013
-514.858	-172.960	0.130	0.004
-513.843	-22.369	-0.246	0.151
-512.829	-200.000	-0.001	0.202
-511.814	178.851	0.060	-0.089
-510.799	52.711	-0.170	-0.164
-509.785	-8.017	-0.216	-0.147
-508.770	-41.023	0.378	-0.197
-507.756	-163.708	0.222	0.011
-506.741	-124.188	-0.378	-0.060
-505.726	763.103	-0.062	-0.170
-504.712	-95.034	0.184	-0.050
-503.697	104.214	-0.138	0.164
-502.683	800.000	0.156	0.448
-501.668	-86.276	0.013	0.004
-500.653	266.759	-0.125	-0.221
-499.639	-200.000	0.014	0.062
-498.624	98.361	-0.163	0.189
-497.610	-48.829	-0.133	-0.064
-496.595	-200.000	0.017	0.080
-495.581	-136.167	-0.338	0.040
-494.566	-67.136	0.205	0.082
-493.551	-62.624	-0.327	-0.137
-492.537	-48.538	-0.150	-0.073
-491.522	-78.202	-0.189	0.066
-490.508	-200.000	0.017	0.249
-489.493	73.968	-0.180	-0.190
-488.478	8.162	0.280	-0.212
-487.464	-101.496	0.189	0.046
-486.449	151.084	-0.256	0.351
-485.435	-179.954	-0.165	0.004
-484.420	-200.000	-0.024	0.164
-483.405	10.060	0.277	0.212
-482.391	-200.000	-0.050	0.228
-481.376	-133.391	0.112	0.014
-480.362	-86.603	-0.094	-0.029
-479.347	-71.099	-0.431	0.163
-478.332	0.746	0.108	0.078
-477.318	-200.000	0.002	-0.015
-476.303	-10.151	0.193	-0.129
-475.289	-60.469	-0.313	0.134
-474.274	-49.905	-0.386	-0.184
-473.259	-42.998	-0.179	-0.091
-472.245	-148.467	-0.119	0.010
-471.230	-200.000	0.070	0.436
-470.216	-60.568	-0.101	-0.043
-469.201	220.142	0.061	0.099
-468.186	-168.492	-0.217	0.008
-467.172	800.000	-0.063	0.252
-466.157	-54.055	-0.136	-0.062
-465.143	-19.549	0.140	-0.087
-464.128	144.277	-0.203	0.273
-463.113	-200.000	0.083	0.391
-462.099	34.215	0.102	0.090
-461.084	730.433	-0.069	-0.185
-460.070	76.563	0.265	-0.283
-459.055	-200.000	0.006	0.031
-458.040	604.815	0.065	0.163
-457.026	-179.320	0.180	0.004
-456.011	89.013	0.065	0.073
-454.997	-152.367	0.127	-0.009
-453.982	-60.982	-0.309	-0.131
-452.968	-200.000	0.006	-0.208
-451.953	105.659	-0.139	0.165
-450.938	-169.876	-0.160	0.006
-449.924	-200.000	-0.027	0.226
-448.909	-200.000	-0.014	0.157
-447.895	-30.479	-0.085	-0.048
-446.880	30.854	0.135	0.117
-445.865	49.683	0.278	0.264
-444.851	91.939	-0.184	0.209
-443.836	-53.388	-0.110	0.051
-442.822	-4.035	-0.106	0.074
-441.807	136.258	-0.068	0.089
-440.792	-41.791	0.119	0.061
-439.778	-110.282	-0.286	0.060
-438.763	50.249	-0.208	-0.197
-437.749	222.391	0.231	-0.374
-436.734	198.215	-0.116	0.178
-435.719	-73.013	-0.105	-0.039
-434.705	339.573	-0.094	-0.184
-433.690	-154.542	0.282	-0.019
-432.676	50.818	-0.155	-0.148
-431.661	-200.000	0.025	-0.160
-430.646	800.000	0.063	0.185
-429.632	287.782	0.089	0.161
-428.617	-129.735	0.372	0.051
-427.603	688.520	-0.113	0.296
-426.588	-74.088	-0.236	-0.086
-425.573	732.654	0.065	0.174
-424.559	202.681	0.075	0.116
-423.544	62.637	0.166	0.167
-422.530	370.509	-0.200	-0.408
-421.515	157.462	-0.118	-0.165
-420.500	690.720	0.047	-0.124
-419.486	88.072	-0.071	0.079
-418.471	800.000	-0.024	0.093
-417.457	800.000	0.023	-0.068
-416.442	800.000	0.095	-0.268
-415.428	-200.000	0.001	0.092
-414.413	92.235	0.167	-0.189
-413.398	-50.407	0.232	-0.110
-412.384	46.954	0.313	-0.292
-411.369	-200.000	-0.022	-0.102
-410.355	800.000	0.048	0.206
-409.340	91.523	-0.075	0.085
-408.325	41.857	-0.102	-0.093
-407.311	118.032	-0.213	0.264
-406.296	-70.418	-0.160	-0.061
-405.282	-28.089	-0.264	0.154
-404.267	216.188	0.120	0.191
-403.252	800.000	-0.055	0.155
-402.238	-200.000	-0.075	0.385
-401.223	36.362	0.184	0.163
-400.209	-150.863	0.127	-0.010
-399.194	67.956	0.171	0.175
-398.179	-26.897	-0.236	0.139
-397.165	800.000	-0.030	0.107
-396.150	-111.865	0.170	0.034
-395.136	-94.342	-0.192	0.053
-394.121	788.492	-0.020	0.055
-393.106	35.961	-0.438	-0.387
-392.092	-87.280	0.159	-0.049
-391.077	619.084	0.058	0.147
-390.063	-200.000	0.022	-0.145
-389.048	800.000	0.072	0.218
-388.033	800.000	-0.125	0.350
-387.019	-200.000	0.042	0.278
-386.004	-200.000	0.001	-0.130
-384.990	-200.000	-0.011	-0.191
-383.975	-188.096	0.311	0.004
-382.960	-200.000	0.010	-0.378
-381.946	67.470	-0.059	-0.060
-380.931	233.958	0.166	-0.275
-379.917	800.000	0.053	-0.226
-378.902	442.114	-0.069	-0.153
-377.888	-30.590	0.194	0.110
-376.873	800.000	-0.036	0.149
-375.858	-200.000	-0.002	0.255
-374.844	86.599	-0.020	-0.022
-373.829	-200.000	0.006	-0.061
-372.815	-30.816	0.200	-0.113
-371.800	124.610	-0.068	0.085
-370.785	-151.862	0.149	-0.011
-369.771	-91.498	0.361	-0.103
-368.756	-105.827	0.139	-0.032
-367.742	-145.632	0.180	-0.016
-366.727	-55.235	0.084	0.038
-365.712	287.177	0.051	0.092
-364.698	800.000	-0.007	0.028
-363.683	66.040	-0.239	-0.243
-362.669	302.186	-0.047	-0.087
-361.654	201.372	-0.113	0.175
-360.639	-200.000	0.003	0.397
-359.625	-200.000	-0.005	0.095
-358.610	-1.995	0.298	-0.210
-357.596	-56.038	0.161	0.072
-356.581	-63.598	0.135	-0.056
-355.566	41.548	-0.144	0.131
-354.552	-200.000	0.013	0.295
-353.537	654.018	-0.092	-0.238
-352.523	226.016	0.255	-0.415
-351.508	800.000	-0.102	-0.363
-350.493	703.544	0.079	-0.209
-349.479	-102.506	-0.267	-0.064
-348.464	-134.508	-0.226	0.028
-347.450	158.930	0.007	0.010
-346.435	287.878	-0.077	-0.140
-345.420	596.262	-0.043	0.107
-344.406	-200.000	0.016	0.208
-343.391	282.922	0.081	0.146
-342.377	148.739	-0.117	-0.158
-341.362	-200.000	0.017	0.229
-340.348	106.506	0.272	-0.324
-339.333	-200.000	-0.031	-0.452
-338.318	-74.096	0.322	0.117
-337.304	-44.157	0.160	-0.080
-336.289	-85.437	-0.149	0.047
-335.275	53.643	-0.059	-0.057
-334.260	-23.219	0.166	-0.100
-333.245	-200.000	-0.025	0.212
-332.231	-164.856	0.177	-0.008
-331.216	34.199	0.326	0.285
-330.202	-133.503	0.231	-0.029
-329.187	-138.924	-0.323	-0.035
-328.172	48.410	0.228	0.214
-327.158	-200.000	0.047	0.306
-326.143	800.000	-0.085	0.277
-325.129	-146.758	-0.204	-0.018
-324.114	49.733	-0.079	-0.075
-323.099	800.000	0.013	0.051
-322.085	-3.388	0.111	0.078
-321.070	-200.000	0.074	-0.333
-320.056	-200.000	-0.010	-0.094
-319.041	-36.026	-0.118	0.064
-318.026	-200.000	-0.012	-0.243
-317.012	-17.065	-0.146	-0.092
-315.997	785.799	0.047	-0.128
-314.983	-200.000	-0.006	0.119
-313.968	-73.203	0.139	0.051
-312.953	-97.098	0.061	-0.016
-311.939	-86.610	0.223	-0.069
-310.924	-74.146	-0.266	0.096
-309.910	130.609	0.288	-0.370
-308.895	-32.655	-0.337	-0.188
-307.880	-146.384	-0.192	0.017
-306.866	-15.235	-0.110	-0.071
-305.851	285.269	0.031	-0.056
-304.837	800.000	0.033	-0.131
-303.822	176.350	0.220	0.319
-302.807	711.260	-0.027	-0.072
-301.793	489.101	0.088	-0.202
-300.778	-174.735	0.246	-0.007
-299.764	51.070	-0.207	-0.196
-298.749	-17.502	-0.043	0.027
-297.735	13.854	-0.129	-0.100
-296.720	-200.000	0.019	-0.438
-295.705	274.358	-0.092	0.163
-294.691	-165.209	0.235	0.010
-293.676	-93.580	-0.271	0.075
-292.662	-137.952	-0.194	0.022
-291.647	-200.000	-0.005	-0.209
-290.632	2.730	-0.214	0.155
-289.618	451.441	-0.075	-0.166
-288.603	-12.804	-0.367	-0.239
-287.589	-66.763	0.189	0.075
-286.574	800.000	-0.079	-0.294
-285.559	800.000	0.065	-0.189
-284.545	-200.000	-0.028	-0.264
-283.530	-200.000	-0.051	0.266
-282.516	-16.237	-0.327	0.208
-281.501	-89.729	0.013	-0.004
-280.486	-200.000	-0.004	-0.045
-279.472	352.609	0.097	-0.192
-278.457	-200.000	-0.056	-0.263
-277.443	-37.408	-0.240	-0.128
-276.428	-200.000	-0.027	0.150
-275.413	-12.703	0.129	0.084
-274.399	-127.206	0.133	0.019
-273.384	110.611	-0.106	0.127
-272.370	201.500	-0.080	0.124
-271.355	-200.000	-0.030	-0.236
-270.340	485.834	-0.052	0.117
-269.326	353.751	0.071	-0.141
-268.311	-96.215	0.406	-0.108
-267.297	440.763	0.187	-0.409
-266.282	104.846	-0.107	-0.126
-265.267	800.000	0.166	0.556
-264.253	413.459	0.113	-0.240
-263.238	800.000	-0.082	-0.279
-262.224	800.000	-0.095	-0.290
-261.209	-95.949	-0.255	-0.068
-260.195	-47.107	-0.085	0.041
-259.180	730.190	-0.101	-0.270
-258.165	-196.085	0.084	0.001
-257.151	800.000	-0.048	0.151
-256.136	-78.877	0.101	-0.034
-255.122	-90.772	-0.120	0.034
-254.107	-171.175	0.202	0.007
-253.092	-42.879	-0.139	-0.070
-252.078	127.499	0.064	0.081
-251.063	-124.596	0.228	0.035
-250.049	39.854	-0.140	0.125
-249.034	0.570	0.280	0.200
-248.019	167.142	-0.150	0.212
-247.005	-200.000	-0.039	-0.217
-245.990	232.701	0.070	-0.115
-244.976	10.002	0.210	-0.159
-243.961	-123.889	-0.070	-0.011
-242.946	-200.000	-0.042	0.299
-241.932	800.000	0.100	0.304
-240.917	-56.860	0.103	0.045
-239.903	-35.170	-0.157	0.085
-238.888	-200.000	-0.046	0.328
-237.873	-4.268	-0.080	0.056
-236.859	-111.345	-0.131	0.027
-235.844	144.413	0.130	0.174
-234.830	-72.119	0.152	0.056
-233.815	800.000	0.068	0.193
-232.800	154.271	0.110	-0.151
-231.786	121.827	-0.056	0.069
-230.771	-200.000	0.052	-0.303
-229.757	93.238	0.126	-0.142
-228.742	-78.050	0.217	-0.074
-227.727	-89.918	-0.331	0.097
-226.713	800.000	0.021	-0.072
-225.698	-34.007	0.252	-0.138
-224.684	13.499	-0.240	-0.186
-223.669	-200.000	-0.052	-0.351
-222.655	-70.789	-0.184	-0.069
-221.640	36.379	-0.198	-0.174
-220.625	-200.000	-0.075	0.566
-219.611	-111.097	0.278	-0.057
-218.596	634.103	0.044	0.110
-217.582	-145.930	0.154	0.014
-216.567	-26.996	-0.123	-0.071
-215.552	-2.150	0.045	-0.031
-214.538	416.463	-0.063	0.134
-213.523	731.548	-0.062	-0.165
-212.509	-62.374	-0.113	-0.047
-211.494	-39.911	0.080	-0.042
-210.479	86.589	0.048	-0.052
-209.465	218.481	0.065	0.104
-208.450	-200.000	0.003	0.301
-207.436	289.998	-0.036	-0.064
-206.421	747.875	0.125	-0.335
-205.406	-43.373	0.222	0.112
-204.392	-119.526	0.102	-0.018
-203.377	140.946	0.088	0.116
-202.363	-200.000	-0.055	0.317
-201.348	517.934	0.055	0.128
-200.333	-165.348	0.436	-0.019
-199.319	45.734	-0.140	0.129
-198.304	-79.498	-0.147	-0.049
-197.290	-200.000	-0.038	0.276
-196.275	-40.370	-0.212	-0.110
-195.260	-51.124	-0.323	0.151
-194.246	-163.645	0.446	0.021
-193.231	-167.874	0.099	-0.004
-192.217	-200.000	0.087	-0.000
-191.202	52.962	-0.122	0.116
-190.187	-57.811	-0.224	-0.097
-189.173	-114.576	0.169	0.032
-188.158	9.923	0.052	-0.040
-187.144	43.212	0.096	-0.088
-186.129	-106.600	0.158	-0.035
-185.114	-200.000	-0.030	0.331
-184.100	5.162	-0.132	-0.097
-183.085	6.213	0.287	-0.212
-182.071	-34.963	-0.159	0.086
-181.056	800.000	-0.149	0.628
-180.042	-48.617	0.330	-0.158
-179.027	71.026	0.323	0.334
-178.012	701.489	-0.074	-0.194
-176.998	-159.732	-0.146	0.008
-175.983	64.530	-0.033	0.033
-174.969	39.545	0.037	0.033
-173.954	-80.268	0.065	0.022
-172.939	738.905	0.106	-0.282
-171.925	-97.006	-0.062	0.016
-170.910	800.000	0.102	-0.410
-169.896	-114.634	-0.383	0.073
-168.881	-200.000	0.003	-0.120
-167.866	800.000	0.018	-0.077
-166.852	-115.171	0.057	0.011
-165.837	-46.541	-0.313	-0.153
-164.823	188.768	0.096	-0.144
-163.808	-109.972	0.269	0.056
-162.793	-200.000	0.005	-0.196
-161.779	128.893	-0.084	-0.106
-160.764	-34.540	0.310	-0.169
-159.750	359.852	0.057	-0.113
-158.735	512.095	-0.050	-0.116
-157.720	202.044	-0.254	0.390
-156.706	629.766	-0.060	0.152
-155.691	493.643	-0.169	0.386
-154.677	-95.143	0.204	-0.055
-153.662	-85.373	0.447	-0.139
-152.647	-200.000	0.039	0.211
-151.633	463.358	0.058	-0.128
-150.618	40.480	0.272	0.244
-149.604	-120.454	-0.049	0.008
-148.589	93.450	0.118	0.133
-147.574	-16.228	0.181	0.115
-146.560	200.743	-0.243	-0.372
-145.545	13.443	0.131	0.101
-144.531	-63.852	0.053	-0.022
-143.516	-200.000	0.034	-0.155
-142.502	-157.958	-0.498	-0.029
-141.487	67.973	-0.270	0.275
-140.472	800.000	-0.070	0.244
-139.458	800.000	0.081	0.341
-138.443	467.399	0.058	0.130
-137.429	281.089	0.142	0.253
-136.414	-106.188	0.172	-0.038
-135.399	-84.374	-0.311	-0.098
-134.385	-82.931	0.164	-0.053
-133.370	-200.000	0.003	-0.107
-132.356	10.710	0.149	-0.113
-131.341	-135.062	0.273	0.033
-130.326	-133.935	0.238	-0.029
-129.312	800.000	-0.136	0.390
-128.297	-200.000	-0.015	-0.343
-127.283	-200.000	0.022	0.265
-126.268	-133.152	-0.258	-0.033
-125.253	-200.000	0.045	0.273
-124.239	315.890	-0.104	0.196
-123.224	176.011	-0.126	-0.182
-122.210	157.637	0.106	0.146
-121.195	176.601	0.155	0.224
-120.180	-200.000	0.011	0.131
-119.166	-68.525	0.193	0.074
-118.151	110.496	-0.110	0.131
-117.137	800.000	-0.072	-0.280
-116.122	271.716	0.056	-0.098
-115.107	117.372	-0.092	0.113
-114.093	-101.964	-0.133	0.032
-113.078	175.925	0.054	-0.078
-112.064	-200.000	-0.067	0.378
-111.049	-200.000	-0.027	0.134
-110.034	-121.600	-0.126	-0.021
-109.020	800.000	-0.050	-0.214
-108.005	800.000	-0.044	-0.171
-106.991	-200.000	0.239	0.001
-105.976	437.571	0.124	0.270
-104.962	118.995	-0.164	-0.201
-103.947	41.689	-0.122	0.110
-102.932	25.379	0.238	0.197
-101.918	39.841	-0.136	0.121
-100.903	70.151	-0.065	-0.067
-99.889	-182.138	-0.230	0.004
-98.874	-200.000	0.041	0.509
-97.859	-200.000	-0.037	0.295
-96.845	40.776	-0.119	-0.107
-95.830	-77.386	-0.111	-0.038
-94.816	-200.000	0.029	-0.160
-93.801	652.711	-0.082	0.208
-92.786	-169.822	-0.202	-0.007
-91.772	-200.000	-0.049	-0.248
-90.757	-98.070	-0.326	-0.083
-89.743	800.000	-0.040	0.168
-88.728	-180.378	0.103	0.002
-87.713	219.369	-0.140	0.222
-86.699	-134.426	0.263	-0.032
-85.684	-200.000	-0.041	-0.379
-84.670	-49.240	0.247	-0.117
-83.655	-103.651	0.158	-0.037
-82.640	-200.000	-0.018	0.181
-81.626	-47.899	0.211	0.101
-80.611	-83.776	-0.157	-0.050
-79.597	-32.293	0.055	0.031
-78.582	2.780	-0.107	-0.077
-77.567	276.418	0.162	0.286
-76.553	-100.635	0.211	-0.052
-75.538	107.643	-0.143	-0.169
-74.524	-8.722	0.293	0.195
-73.509	800.000	0.107	-0.414
-72.494	-200.000	0.045	-0.367
-71.480	175.114	0.047	0.068
-70.465	131.528	0.243	0.310
-69.451	-54.215	-0.194	-0.087
-68.436	-200.000	0.009	-0.163
-67.422	23.461	0.127	0.104
-66.407	-35.126	0.036	-0.020
-65.392	-200.000	-0.029	-0.306
-64.378	-102.846	0.298	0.070
-63.363	317.731	-0.058	0.109
-62.349	94.917	-0.214	0.241
-61.334	75.595	-0.904	-0.947
-60.319	140.187	0.355	0.465
-59.305	800.000	-0.202	-0.814
-58.290	-200.000	0.291	1.284
-57.276	475.348	0.617	1.382
-56.261	-200.000	94.757	558.088
-55.246	629.430	1383.647	3467.988
-54.232	185.497	2606.306	3836.669
-53.217	122.233	2197.920	2721.077
-52.203	47.051	1647.313	1518.840
-51.188	38.621	1381.027	1221.014
-50.173	35.288	1338.206	1162.934
-49.159	55.557	1386.791	1330.795
-48.144	59.851	1405.421	1375.127
-47.130	38.927	1359.786	1203.923
-46.115	35.159	1342.117	1165.367
-45.100	35.059	1336.869	1160.156
-44.086	34.952	1334.250	1157.193
-43.071	34.855	1332.311	1154.875
-42.057	34.860	1329.867	1152.741
-41.042	34.918	1328.156	1151.564
-40.027	35.046	1326.327	1150.701
-39.013	34.921	1324.903	1148.672
-37.998	34.937	1322.647	1146.764
-36.984	35.022	1320.572	1145.425
-35.969	35.063	1318.831	1144.115
-34.954	34.995	1317.554	1142.561
-33.940	35.056	1316.377	1141.854
-32.925	35.110	1314.595	1140.585
-31.911	35.187	1313.258	1139.837
-30.896	35.078	1312.032	1138.080
-29.881	35.129	1310.878	1137.339
-28.867	35.192	1308.764	1135.833
-27.852	35.283	1307.303	1135.059
-26.838	35.271	1305.644	1133.504
-25.823	35.196	1304.779	1132.264
-24.809	35.138	1303.227	1130.532
-23.794	35.156	1301.685	1129.253
-22.779	35.123	1300.850	1128.287
-21.765	35.205	1298.937	1127.066
-20.750	35.102	1298.286	1125.852
-19.736	35.116	1296.379	1124.237
-18.721	34.991	1295.500	1122.695
-17.706	35.018	1294.091	1121.592
-16.692	35.097	1292.629	1120.739
-15.677	35.103	1292.137	1120.302
-14.663	35.005	1290.546	1118.305
-13.648	34.970	1289.702	1117.324
-12.633	34.843	1288.882	1115.831
-11.619	34.931	1288.215	1115.720
-10.604	35.099	1286.792	1115.425
-9.590	35.082	1285.722	1114.357
-8.575	35.072	1284.848	1113.493
-7.560	35.093	1284.012	1112.845
-6.546	34.907	1283.731	1111.477
-5.531	34.868	1282.651	1110.271
-4.517	34.893	1281.378	1109.272
-3.502	35.042	1280.745	1109.542
-2.487	34.982	1279.415	1107.998
-1.473	35.016	1275.679	1104.920
-0.458	33.740	1260.332	1084.300
0.556	31.890	1240.665	1041.791
1.571	27.416	1244.781	1020.151
2.586	25.849	1258.876	1022.725
3.600	24.182	1245.887	1002.709
4.615	18.085	1172.449	911.124
5.629	9.251	1094.768	806.528
6.644	4.903	1073.534	769.382
7.659	4.569	1070.923	765.797
8.673	4.392	1069.216	763.638
9.688	4.418	1067.684	762.607
10.702	5.014	1067.177	765.101
11.717	10.991	1075.074	800.166
12.731	19.203	1087.041	849.674
13.746	22.310	1090.599	867.732
14.761	21.875	1089.503	864.639
15.775	20.994	1087.780	858.854
16.790	19.946	1085.736	852.015
17.804	19.285	1083.852	847.208
18.819	18.873	1083.217	844.616
19.834	18.811	1082.162	843.413
20.848	18.731	1081.797	842.658
21.863	18.573	1080.524	840.821
22.877	18.452	1080.122	839.838
23.892	18.523	1078.634	838.956
24.907	18.327	1078.616	837.909
25.921	18.391	1077.456	837.247
26.936	18.356	1076.418	836.192
27.950	18.309	1074.789	834.624
28.965	18.494	1073.524	834.469
29.980	18.681	1071.757	833.935
30.994	18.786	1070.600	833.466
32.009	18.853	1070.039	833.284
33.023	18.824	1068.645	831.985
34.038	18.617	1067.408	829.946
35.053	18.557	1066.753	829.069
36.067	18.564	1065.460	828.028
37.082	18.437	1065.245	827.173
38.096	18.685	1064.815	827.962
39.111	18.725	1064.022	827.464
40.126	18.456	1062.467	824.889
41.140	18.113	1061.172	822.160
42.155	18.149	1059.485	820.952
43.169	18.015	1058.425	819.418
44.184	17.994	1057.591	818.599
45.199	18.068	1056.839	818.297
46.213	18.093	1055.896	817.615
47.228	18.334	1055.133	818.106
48.242	18.467	1054.125	817.886
49.257	18.525	1052.850	817.099
50.271	18.580	1052.339	816.894
51.286	18.577	1051.233	815.947
52.301	18.547	1050.304	815.011
53.315	18.450	1049.596	813.931
54.330	18.338	1047.935	812.038
55.344	18.179	1047.309	810.727
56.359	18.323	1046.375	810.616
57.374	18.149	1046.125	809.528
58.388	18.108	1044.375	807.905
59.403	18.025	1044.137	807.261
60.417	18.109	1043.234	806.887
61.432	17.965	1042.753	805.764
62.447	18.079	1041.554	805.301
63.461	17.887	1040.938	803.852
64.476	17.745	1039.858	802.278
65.490	17.909	1038.929	802.260
66.505	18.024	1038.025	802.032
67.520	17.932	1037.727	801.299
68.534	18.022	1036.497	800.701
69.549	18.021	1035.665	799.981
70.563	17.828	1035.086	798.562
71.578	17.744	1034.134	797.361
72.593	17.695	1033.009	796.198
73.607	17.651	1032.937	795.865
74.622	17.793	1031.700	795.502
75.636	17.846	1031.025	795.160
76.651	17.874	1030.312	794.670
77.666	17.924	1030.275	794.802
78.680	17.858	1029.338	793.705
79.695	17.776	1029.187	793.136
80.709	17.977	1028.178	793.220
81.724	17.969	1027.991	792.970
82.739	18.117	1027.240	793.008
83.753	18.462	1025.951	793.538
84.768	18.717	1025.441	794.255
85.782	18.688	1025.158	793.832
86.797	18.685	1024.402	793.163
87.812	18.517	1023.142	791.338
88.826	18.580	1022.187	790.824
89.841	18.595	1021.126	790.001
90.855	18.738	1020.270	789.925
91.870	18.748	1019.580	789.369
92.884	18.793	1018.648	788.782
93.899	18.744	1017.547	787.635
94.914	18.882	1016.857	787.664
95.928	18.812	1016.223	786.783
96.943	18.722	1014.938	785.308
97.957	18.520	1014.303	783.824
98.972	18.657	1013.472	783.739
99.987	18.710	1012.337	783.032
101.001	18.747	1011.285	782.319
102.016	18.766	1010.068	781.392
103.030	18.688	1009.790	780.754
104.045	18.668	1009.065	780.034
105.060	18.634	1007.820	778.849
106.074	18.310	1006.959	776.643
107.089	18.168	1005.664	774.936
108.103	18.008	1004.798	773.474
109.118	17.984	1004.070	772.736
110.133	17.923	1002.636	771.287
111.147	17.980	1001.716	770.771
112.162	18.157	1001.151	771.066
113.176	18.219	1000.833	771.030
114.191	18.146	1000.076	770.051
115.206	18.172	999.111	769.358
116.220	18.050	998.539	768.301
117.235	18.144	997.221	767.641
118.249	18.146	996.477	767.006
119.264	17.985	995.364	765.361
120.279	17.972	994.350	764.457
121.293	17.950	993.763	763.838
122.308	17.919	992.631	762.764
123.322	17.932	991.753	762.080
124.337	17.791	990.741	760.607
125.352	17.826	989.974	760.106
126.366	17.877	988.265	758.952
127.381	17.932	987.374	758.445
128.395	17.781	987.216	757.585
129.410	17.800	986.190	756.816
130.424	17.986	985.210	756.819
131.439	18.132	984.521	756.871
132.454	18.135	984.087	756.484
133.468	18.260	982.712	755.913
134.483	18.270	981.844	755.221
135.497	18.308	980.992	754.669
136.512	18.299	980.244	753.987
137.527	18.271	979.894	753.525
138.541	18.228	979.428	752.914
139.556	18.305	978.507	752.475
140.570	18.435	978.221	752.760
141.585	18.589	977.321	752.679
142.600	18.681	976.101	752.074
143.614	18.766	975.304	751.766
144.629	18.844	974.453	751.383
145.643	18.613	973.673	749.709
146.658	18.594	972.251	748.462
147.673	18.318	971.186	746.372
148.687	18.244	970.582	745.523
149.702	18.172	969.520	744.324
150.716	18.245	968.474	743.775
151.731	18.286	968.088	743.589
152.746	18.431	967.437	743.656
153.760	18.230	967.126	742.476
154.775	18.400	966.267	742.491
155.789	18.623	964.924	742.358
156.804	18.519	964.895	741.819
157.819	18.677	963.750	741.553
158.833	18.696	963.899	741.685
159.848	18.768	962.850	741.122
160.862	18.621	961.878	739.675
161.877	18.528	959.905	737.692
162.892	18.294	958.972	735.907
163.906	18.214	958.358	735.028
164.921	18.368	957.399	734.885
165.935	18.356	956.887	734.377
166.950	18.506	955.999	734.275
167.964	18.447	955.310	733.425
168.979	18.398	954.127	732.243
169.994	18.210	953.393	730.812
171.008	18.461	952.524	731.152
172.023	18.686	952.128	731.744
173.037	18.807	951.225	731.500
174.052	18.535	950.445	729.679
175.067	18.279	949.686	727.943
176.081	18.286	949.256	727.577
177.096	18.300	948.281	726.824
178.110	18.439	947.739	726.938
179.125	18.386	947.107	726.162
180.140	18.322	946.637	725.466
181.154	18.525	946.173	725.907
182.169	18.776	945.855	726.660
183.183	18.722	945.189	725.856
184.198	18.651	944.440	724.918
185.213	18.848	943.665	725.091
186.227	18.727	943.084	724.068
187.242	18.838	942.773	724.235
188.256	19.104	941.761	724.513
189.271	19.044	941.282	723.827
190.286	18.709	940.513	721.764
191.300	18.224	939.073	718.557
192.315	18.022	938.933	717.539
193.329	18.267	937.800	717.638
194.344	18.579	937.128	718.367
195.359	18.535	936.831	717.891
196.373	18.614	936.826	718.155
197.388	18.920	935.936	718.686
198.402	18.970	935.777	718.709
199.417	19.124	935.316	718.936
200.432	19.267	934.724	719.014
201.446	19.188	934.671	718.580
202.461	19.321	933.322	718.035
203.475	19.170	933.159	717.216
204.490	19.011	931.870	715.500
205.504	18.899	931.249	714.495
206.519	18.831	930.382	713.485
207.534	18.848	929.888	713.112
208.548	18.975	929.059	712.939
209.563	18.870	928.252	711.824
210.577	18.947	927.727	711.677
211.592	19.149	927.444	712.231
212.607	19.251	926.441	711.819
213.621	19.069	925.887	710.581
214.636	19.029	925.138	709.776
215.650	19.151	924.174	709.475
216.665	19.317	923.481	709.567
217.680	19.308	923.144	709.207
218.694	19.508	922.065	709.138
219.709	19.363	921.574	708.100
220.723	19.214	921.224	707.159
221.738	19.084	920.553	706.049
222.753	19.298	919.829	706.307
223.767	19.306	919.376	705.928
224.782	19.534	918.880	706.419
225.796	19.502	918.167	705.676
226.811	19.375	917.343	704.463
227.826	19.242	916.777	703.422
228.840	19.306	915.534	702.666
229.855	19.199	914.792	701.600
230.869	19.104	914.785	701.148
231.884	19.211	913.734	700.715
232.899	19.089	912.956	699.560
233.913	18.988	912.088	698.424
234.928	19.041	911.260	697.940
235.942	19.076	910.937	697.773
236.957	19.059	910.182	697.065
237.972	18.940	910.065	696.433
238.986	18.996	908.975	695.763
240.001	19.018	908.450	695.388
241.015	19.056	908.241	695.321
242.030	19.171	907.575	695.213
243.045	19.180	907.108	694.830
244.059	19.230	905.956	694.087
245.074	19.293	905.622	694.023
246.088	19.406	905.124	694.034
247.103	19.670	904.707	694.715
248.117	19.665	904.347	694.359
249.132	19.897	903.722	694.749
250.147	20.105	903.267	695.172
251.161	20.101	902.829	694.757
252.176	19.981	902.340	693.838
253.190	20.246	901.536	694.218
254.205	20.110	900.975	693.182
255.220	20.173	900.103	692.703
256.234	20.037	899.681	691.773
257.249	20.219	898.697	691.679
258.263	20.004	898.243	690.412
259.278	20.057	897.216	689.775
260.293	20.134	897.134	689.955
261.307	20.250	896.505	689.871
262.322	20.324	895.777	689.547
263.336	20.294	894.714	688.548
264.351	20.368	894.168	688.359
265.366	20.259	893.693	687.500
266.380	20.250	893.212	687.035
267.395	20.094	892.497	685.804
268.409	20.059	891.719	685.009
269.424	20.014	891.013	684.227
270.439	20.175	889.956	683.992
271.453	19.866	889.398	682.284
272.468	19.956	888.768	682.096
273.482	20.084	887.909	681.878
274.497	20.074	887.288	681.302
275.512	19.957	887.017	680.573
276.526	20.080	886.609	680.683
277.541	20.032	885.836	679.843
278.555	20.382	885.723	681.067
279.570	20.472	884.823	680.668
280.585	20.290	884.586	679.711
281.599	20.284	883.315	678.655
282.614	20.271	882.238	677.717
283.628	20.210	881.660	676.974
284.643	20.127	881.424	676.408
285.657	20.282	880.289	676.083
286.672	20.271	879.977	675.737
287.687	20.163	879.626	674.987
288.701	20.133	879.081	674.394
289.716	20.356	878.142	674.483
290.730	20.134	877.965	673.424
291.745	20.316	876.832	673.199
292.760	20.498	876.442	673.547
293.774	20.602	876.335	673.806
294.789	20.483	875.547	672.682
295.803	20.219	874.767	671.003
296.818	20.156	874.241	670.295
297.833	20.289	873.127	669.896
298.847	20.224	873.106	669.570
299.862	20.368	872.228	669.391
300.876	20.491	871.825	669.495
301.891	20.612	871.260	669.471
302.906	20.651	870.970	669.338
303.920	20.820	870.713	669.730
304.935	20.888	869.965	669.359
305.949	20.826	869.145	668.429
306.964	20.613	868.344	666.936
307.979	20.678	867.756	666.676
308.993	20.577	868.006	666.422
310.008	20.818	866.684	666.270
311.022	20.712	866.203	665.435
312.037	20.525	865.519	664.138
313.052	20.287	865.150	662.888
314.066	20.305	864.212	662.179
315.081	20.311	863.723	661.766
316.095	20.270	862.974	660.979
317.110	20.357	862.421	660.829
318.125	20.411	861.799	660.498
319.139	20.324	861.166	659.623
320.154	20.370	861.294	659.838
321.168	20.321	860.884	659.279
322.183	20.449	860.003	659.031
323.197	20.585	859.559	659.151
324.212	20.471	858.944	658.189
325.227	20.437	858.016	657.291
326.241	20.467	857.442	656.906
327.256	20.508	857.033	656.688
328.270	20.503	856.425	656.146
329.285	20.399	856.015	655.379
330.300	20.465	855.006	654.801
331.314	20.595	854.950	655.189
332.329	20.780	854.221	655.269
333.343	20.692	854.130	654.809
334.358	20.780	853.555	654.641
335.373	20.668	853.664	654.244
336.387	20.899	852.985	654.536
337.402	20.920	852.593	654.256
338.416	21.062	852.585	654.723
339.431	21.083	852.303	654.530
340.446	21.388	851.431	654.943
341.460	21.095	851.661	653.964
342.475	21.382	850.922	654.415
343.489	21.359	850.357	653.837
344.504	21.305	849.881	653.210
345.519	21.438	849.603	653.434
346.533	21.355	848.900	652.525
347.548	21.061	848.184	650.823
348.562	20.948	847.734	649.999
349.577	20.789	847.128	648.882
350.592	20.740	846.360	648.057
351.606	20.807	845.580	647.650
352.621	20.883	844.690	647.194
353.635	20.929	844.134	646.882
354.650	20.942	843.703	646.541
355.665	21.133	842.771	646.479
356.679	21.167	842.549	646.377
357.694	21.141	841.944	645.760
358.708	21.158	841.259	645.238
359.723	21.127	840.676	644.621
360.738	21.072	840.352	644.111
361.752	21.220	839.529	643.968
362.767	21.350	839.227	644.159
363.781	21.481	838.440	643.983
364.796	21.528	838.495	644.140
365.810	21.565	838.339	644.100
366.825	21.676	837.850	644.074
367.840	21.576	837.325	643.248
368.854	21.428	836.442	641.969
369.869	21.423	835.969	641.530
370.883	21.575	835.545	641.703
371.898	21.635	835.270	641.657
372.913	21.583	835.052	641.243
373.927	21.660	834.139	640.765
374.942	21.522	834.119	640.187
375.956	21.764	833.408	640.471
376.971	21.734	833.230	640.167
377.986	21.708	833.084	639.905
379.000	21.814	832.377	639.692
380.015	21.874	831.605	639.261
381.029	21.868	830.773	638.542
382.044	21.888	830.418	638.285
383.059	21.960	829.685	637.926
384.073	21.847	828.957	636.899
385.088	21.521	828.812	635.548
386.102	21.612	827.576	634.875
387.117	21.403	827.447	633.964
388.132	21.638	826.463	634.004
389.146	21.593	826.314	633.671
390.161	21.761	826.245	634.170
391.175	21.710	825.123	633.068
392.190	21.746	824.370	632.562
393.205	21.663	824.284	632.142
394.219	21.585	824.020	631.604
395.234	21.510	823.331	630.746
396.248	21.335	823.009	629.815
397.263	21.437	822.213	629.517
398.278	21.416	821.793	629.063
399.292	21.313	821.667	628.540
400.307	21.428	820.883	628.300
401.321	21.523	820.582	628.353
402.336	21.557	820.316	628.216
403.350	21.707	819.605	628.154
404.365	21.777	819.640	628.376
405.380	21.957	818.987	628.466
406.394	22.088	818.050	628.159
407.409	22.185	817.851	628.298
408.423	22.078	817.987	627.964
409.438	22.091	817.483	627.569
410.453	22.198	816.961	627.494
411.467	22.371	816.603	627.779
412.482	22.341	816.181	627.292
413.496	22.413	816.044	627.390
414.511	22.429	815.692	627.121
415.526	22.310	814.653	625.844
416.540	22.148	814.329	624.963
417.555	22.352	813.451	624.957
418.569	22.438	813.156	624.980
419.584	22.379	812.813	624.454
420.599	22.325	812.458	623.933
421.613	158.911	1370.083	1789.013
422.628	138.318	1451.355	1789.116
