DTS Sentinel unit serial number:	SN413079Multiplexer serial number:	ORYXHardware model number:	OX4-SRSoftware version number:	ORYX F/W v4.00 Oryx Data Collector v3.7.2.0data status	okinstallation	princeton_trtdifferential loss correction	single-endedforward channel	channel 1reverse channel	N/Adate	2019/09/18time	22:58:35forward acquisition time	60.00reverse acquisition time	0.00gamma	496.2192k internal	0.2341k external	0.2341temperature offset calibration	1.0015default loss term (dB/km)	0.3790temperature slope calibration	1.0000multiplexer offset coefficient	1.0000multiplexer slope coefficient	1.0000fibre end	0.00T internal ref (°C)	24.06T ext. ref 1 (°C)	0.79T ext. ref 2 (°C)	18.06length (m)	temperature (°C)	Stokes	anti-Stokes-747.200	128.479	0.160	0.204
-746.185	-200.000	-0.041	0.205
-745.171	-167.599	0.221	-0.009
-744.156	56.313	0.187	0.182
-743.142	-107.983	0.173	-0.038
-742.127	499.810	-0.122	0.281
-741.112	577.239	0.060	0.147
-740.098	-200.000	-0.049	0.295
-739.083	13.653	0.117	0.091
-738.069	65.802	-0.178	0.180
-737.054	800.000	0.076	-0.312
-736.039	28.855	-0.072	0.061
-735.025	652.088	0.115	0.295
-734.010	57.740	0.087	0.086
-732.996	800.000	0.062	-0.259
-731.981	-200.000	-0.032	0.404
-730.966	-141.481	0.247	0.025
-729.952	-88.011	0.084	-0.025
-728.937	-200.000	-0.006	-0.163
-727.923	588.302	0.163	0.403
-726.908	-121.673	-0.154	-0.026
-725.894	-91.384	-0.211	-0.060
-724.879	-127.251	-0.342	-0.050
-723.864	28.411	-0.242	0.205
-722.850	6.738	0.199	-0.148
-721.835	-200.000	0.053	-0.245
-720.821	-71.433	0.035	-0.013
-719.806	8.047	0.123	0.092
-718.791	-200.000	-0.002	-0.466
-717.777	-90.771	-0.128	0.037
-716.762	224.407	-0.091	-0.148
-715.748	5.249	0.120	0.088
-714.733	800.000	-0.050	-0.161
-713.718	-200.000	0.060	0.387
-712.704	800.000	-0.032	0.109
-711.689	41.442	0.165	0.150
-710.675	-18.602	0.139	0.087
-709.660	-95.959	0.206	0.055
-708.645	-200.000	-0.036	-0.285
-707.631	221.392	-0.081	0.130
-706.616	25.851	-0.117	-0.097
-705.602	25.421	0.050	0.042
-704.587	-112.665	-0.259	0.052
-703.572	254.056	0.207	0.353
-702.558	-2.893	-0.098	0.069
-701.543	329.080	-0.026	-0.050
-700.529	373.486	-0.152	-0.309
-699.514	-200.000	0.086	0.000
-698.499	517.305	0.173	0.404
-697.485	-105.379	-0.188	0.043
-696.470	-119.469	0.198	-0.034
-695.456	-115.468	-0.126	-0.024
-694.441	-28.198	0.152	0.088
-693.426	-200.000	-0.014	-0.094
-692.412	294.737	-0.100	-0.183
-691.397	494.384	0.080	0.183
-690.383	16.833	-0.146	-0.115
-689.368	203.909	0.163	0.253
-688.354	322.344	0.084	0.159
-687.339	3.052	-0.256	-0.186
-686.324	-100.178	-0.215	0.053
-685.310	-200.000	-0.002	-0.078
-684.295	105.042	-0.055	-0.065
-683.281	27.235	0.333	0.279
-682.266	106.442	-0.273	-0.324
-681.251	39.294	0.115	-0.103
-680.237	233.445	0.092	-0.151
-679.222	387.187	-0.178	0.369
-678.208	-82.844	-0.183	-0.059
-677.193	145.068	0.209	-0.279
-676.178	800.000	-0.025	-0.101
-675.164	37.889	-0.191	0.169
-674.149	157.732	-0.077	0.107
-673.135	245.335	-0.133	-0.223
-672.120	-128.216	-0.231	0.033
-671.105	-151.438	-0.072	-0.005
-670.091	538.191	-0.068	-0.162
-669.076	164.065	0.093	0.131
-668.062	800.000	0.093	0.273
-667.047	102.640	0.120	-0.140
-666.032	469.724	-0.047	-0.105
-665.018	61.624	-0.064	0.064
-664.003	-138.148	-0.188	0.021
-662.989	23.666	0.382	0.314
-661.974	245.181	0.082	0.138
-660.959	-137.234	0.259	-0.029
-659.945	141.102	0.083	-0.110
-658.930	800.000	0.029	0.106
-657.916	97.330	0.228	0.262
-656.901	-200.000	0.013	0.109
-655.886	800.000	0.080	-0.245
-654.872	-200.000	-0.007	-0.172
-653.857	-200.000	-0.063	-0.284
-652.843	800.000	-0.122	-0.404
-651.828	174.212	0.158	0.229
-650.814	-131.017	-0.265	0.035
-649.799	8.846	-0.229	-0.173
-648.784	800.000	-0.076	-0.278
-647.770	523.503	0.181	0.426
-646.755	-118.674	-0.517	-0.091
-645.741	107.615	-0.208	-0.247
-644.726	20.124	0.255	0.205
-643.711	131.040	-0.096	-0.124
-642.697	502.049	-0.062	-0.144
-641.682	402.423	-0.237	-0.498
-640.668	-67.197	0.263	-0.103
-639.653	-76.252	-0.216	-0.076
-638.638	-39.273	-0.313	0.164
-637.624	-200.000	-0.011	0.079
-636.609	-1.839	0.411	0.289
-635.595	-200.000	0.008	0.213
-634.580	28.196	0.117	0.098
-633.565	-103.127	-0.232	0.055
-632.551	57.794	0.229	0.224
-631.536	18.712	0.136	-0.108
-630.522	384.209	-0.037	-0.075
-629.507	-89.889	0.050	0.015
-628.492	344.445	-0.180	0.353
-627.478	54.153	-0.116	-0.111
-626.463	355.296	0.079	-0.157
-625.449	-160.689	-0.124	-0.007
-624.434	405.736	-0.025	0.052
-623.419	800.000	-0.113	-0.387
-622.405	-162.799	0.198	0.010
-621.390	-200.000	-0.005	0.489
-620.376	-75.732	-0.208	-0.074
-619.361	249.743	-0.083	-0.141
-618.346	-1.220	0.064	-0.045
-617.332	51.689	0.187	-0.177
-616.317	-200.000	0.018	-0.119
-615.303	-158.372	0.232	0.013
-614.288	83.932	-0.176	-0.192
-613.273	-133.143	-0.251	-0.032
-612.259	-200.000	0.006	0.093
-611.244	800.000	0.107	0.300
-610.230	-200.000	0.021	-0.100
-609.215	52.631	0.176	0.168
-608.201	32.960	0.119	0.102
-607.186	157.494	-0.139	-0.192
-606.171	-92.334	-0.161	-0.045
-605.157	-200.000	0.008	0.174
-604.142	-200.000	-0.019	-0.109
-603.128	-35.126	-0.172	0.093
-602.113	613.552	0.205	0.512
-601.098	-55.392	-0.049	0.022
-600.084	-34.265	-0.373	0.204
-599.069	56.798	-0.217	0.211
-598.055	-2.867	-0.274	-0.191
-597.040	-200.000	-0.001	0.181
-596.025	44.982	0.176	-0.161
-595.011	99.770	0.133	-0.154
-593.996	-200.000	-0.013	0.311
-592.982	-53.836	0.032	-0.014
-591.967	117.065	-0.159	-0.194
-590.952	-41.310	-0.239	-0.123
-589.938	-178.060	0.290	-0.007
-588.923	241.027	-0.216	0.360
-587.909	-139.748	0.119	0.013
-586.894	-74.444	0.099	0.035
-585.879	-7.889	-0.208	-0.140
-584.865	-200.000	-0.030	-0.340
-583.850	-59.689	0.072	-0.031
-582.836	-200.000	-0.003	-0.020
-581.821	179.182	-0.081	0.118
-580.806	725.888	0.200	-0.530
-579.792	223.859	0.076	0.121
-578.777	228.598	0.153	-0.249
-577.763	-75.722	0.346	0.122
-576.748	-41.591	-0.152	-0.078
-575.733	800.000	0.055	0.168
-574.719	800.000	-0.088	-0.265
-573.704	-200.000	0.017	0.285
-572.690	317.039	0.135	0.254
-571.675	112.313	0.176	0.212
-570.661	-52.773	-0.319	0.147
-569.646	-34.989	-0.234	-0.127
-568.631	702.940	0.086	-0.225
-567.617	-57.814	0.199	-0.087
-566.602	65.406	0.047	-0.047
-565.588	-9.791	0.487	0.323
-564.573	-70.494	-0.244	-0.092
-563.558	230.811	-0.109	-0.177
-562.544	-3.117	0.114	0.079
-561.529	-133.626	-0.059	-0.007
-560.515	250.729	-0.257	-0.434
-559.500	-104.777	0.288	-0.066
-558.485	-50.573	-0.098	-0.046
-557.471	31.651	0.119	0.102
-556.456	-200.000	0.006	-0.069
-555.442	-91.188	-0.190	-0.054
-554.427	478.179	-0.086	0.193
-553.412	-200.000	-0.020	-0.156
-552.398	55.386	0.102	-0.098
-551.383	-44.175	-0.281	0.140
-550.369	348.829	-0.147	-0.289
-549.354	272.901	-0.215	-0.377
-548.339	-10.186	-0.205	-0.135
-547.325	207.753	0.158	0.246
-546.310	-196.944	-0.243	0.002
-545.296	-128.525	-0.197	0.028
-544.281	800.000	-0.010	-0.036
-543.266	439.335	0.136	-0.295
-542.252	800.000	0.088	0.332
-541.237	99.059	-0.172	-0.197
-540.223	800.000	-0.012	-0.034
-539.208	-128.321	-0.222	-0.031
-538.193	-44.983	-0.265	-0.131
-537.179	356.825	0.109	0.216
-536.164	800.000	-0.041	-0.126
-535.150	-200.000	-0.024	0.205
-534.135	-200.000	0.040	-0.190
-533.121	56.273	0.175	-0.169
-532.106	140.002	-0.132	0.173
-531.091	-200.000	-0.002	-0.141
-530.077	6.521	-0.133	0.098
-529.062	-28.690	0.334	-0.191
-528.048	-138.338	-0.054	0.006
-527.033	-187.158	0.122	-0.002
-526.018	-64.170	0.354	-0.143
-525.004	-26.517	0.052	-0.030
-523.989	194.965	-0.088	0.133
-522.975	-200.000	0.022	-0.099
-521.960	150.598	-0.268	0.362
-520.945	-101.203	-0.197	-0.048
-519.931	576.221	0.064	0.155
-518.916	-81.853	-0.225	-0.073
-517.902	800.000	0.067	-0.221
-516.887	492.535	0.044	-0.100
-515.872	57.955	-0.109	0.106
-514.858	117.423	-0.122	0.149
-513.843	165.844	0.302	0.425
-512.829	-200.000	0.031	-0.242
-511.814	800.000	-0.053	-0.155
-510.799	103.190	0.200	-0.232
-509.785	-110.254	0.125	-0.026
-508.770	-28.794	-0.178	0.102
-507.756	153.781	-0.197	-0.268
-506.741	800.000	-0.022	0.079
-505.726	34.388	0.178	-0.154
-504.712	-178.746	0.204	-0.005
-503.697	266.873	0.051	-0.088
-502.683	-200.000	0.042	-0.224
-501.668	-57.907	0.158	0.069
-500.653	-170.452	-0.108	-0.004
-499.639	800.000	-0.109	0.339
-498.624	-200.000	-0.004	0.035
-497.610	-200.000	-0.025	0.177
-496.595	-26.690	0.108	-0.063
-495.581	-134.448	0.335	-0.041
-494.566	-200.000	0.013	-0.059
-493.551	11.466	-0.029	-0.022
-492.537	-94.400	0.220	0.060
-491.522	-73.963	0.355	0.128
-490.508	-65.508	-0.266	-0.106
-489.493	625.094	0.073	0.182
-488.478	55.181	-0.117	-0.112
-487.464	175.426	-0.249	0.358
-486.449	-200.000	0.047	0.346
-485.435	149.254	-0.176	0.237
-484.420	-71.727	-0.084	-0.031
-483.405	-19.618	-0.118	0.073
-482.391	-99.552	0.213	-0.053
-481.376	-200.000	-0.002	-0.399
-480.362	-200.000	0.030	-0.368
-479.347	-153.875	0.268	-0.018
-478.332	23.179	0.068	-0.056
-477.318	59.993	-0.187	-0.184
-476.303	0.978	-0.073	-0.052
-475.289	-57.105	0.056	-0.024
-474.274	-200.000	-0.015	-0.487
-473.259	-171.081	0.276	-0.009
-472.245	-200.000	-0.041	0.194
-471.230	-12.441	-0.109	0.071
-470.216	190.761	-0.153	0.229
-469.201	258.548	0.181	0.310
-468.186	-38.419	-0.288	-0.151
-467.172	119.757	0.231	0.284
-466.157	-200.000	0.002	0.106
-465.143	-102.219	-0.061	-0.014
-464.128	-89.496	0.118	0.034
-463.113	800.000	0.014	-0.056
-462.099	193.455	0.102	-0.154
-461.084	-13.737	-0.011	-0.007
-460.070	144.759	0.030	-0.040
-459.055	800.000	-0.063	0.181
-458.040	-200.000	0.000	0.074
-457.026	9.866	0.165	-0.124
-456.011	-100.310	-0.161	-0.040
-454.997	535.305	0.085	-0.199
-453.982	-69.276	-0.223	-0.085
-452.968	83.643	-0.134	-0.145
-451.953	-200.000	0.010	-0.103
-450.938	5.795	0.234	-0.171
-449.924	340.887	-0.050	0.096
-448.909	164.947	-0.052	0.073
-447.895	366.379	-0.054	0.107
-446.880	800.000	0.067	-0.192
-445.865	800.000	-0.086	-0.336
-444.851	180.843	0.178	0.259
-443.836	-165.610	0.300	0.013
-442.822	54.136	-0.023	-0.022
-441.807	-44.537	0.129	-0.064
-440.792	217.256	0.062	-0.097
-439.778	-47.965	0.203	-0.097
-438.763	-200.000	0.082	0.404
-437.749	-58.480	-0.278	0.119
-436.734	-78.721	0.169	-0.057
-435.719	698.308	0.062	-0.163
-434.705	-200.000	0.053	0.249
-433.690	-99.265	0.134	-0.033
-432.676	594.469	0.095	-0.234
-431.661	-77.100	-0.051	-0.018
-430.646	46.751	-0.425	0.391
-429.632	-39.768	0.109	-0.057
-428.617	-165.590	0.012	-0.001
-427.603	-200.000	-0.003	0.097
-426.588	800.000	0.066	-0.218
-425.573	97.552	0.061	-0.070
-424.559	-116.266	0.242	-0.044
-423.544	35.277	-0.107	-0.093
-422.530	-74.725	0.195	-0.069
-421.515	-9.001	-0.269	0.178
-420.500	800.000	0.061	-0.182
-419.486	424.817	-0.095	-0.202
-418.471	-30.376	0.287	-0.161
-417.457	-200.000	0.014	0.148
-416.442	-200.000	0.021	-0.184
-415.428	44.014	-0.160	-0.145
-414.413	-89.104	-0.262	-0.077
-413.398	132.559	-0.163	-0.208
-412.384	86.915	-0.327	-0.357
-411.369	-200.000	0.022	0.322
-410.355	437.020	-0.030	0.064
-409.340	-200.000	0.000	0.080
-408.325	52.599	-0.057	0.054
-407.311	-33.555	-0.122	-0.067
-406.296	244.628	0.050	-0.083
-405.282	364.248	-0.062	-0.122
-404.267	140.192	0.148	-0.194
-403.252	405.236	-0.135	0.281
-402.238	522.308	-0.073	0.170
-401.223	581.116	-0.053	0.129
-400.209	-80.318	-0.558	0.184
-399.194	-109.264	-0.142	-0.030
-398.179	76.581	-0.116	0.122
-397.165	-139.927	0.080	-0.008
-396.150	489.665	0.064	0.145
-395.136	368.693	0.139	0.278
-394.121	-200.000	-0.023	0.189
-393.106	437.973	0.023	-0.049
-392.092	-200.000	-0.017	-0.329
-391.077	-127.559	-0.306	-0.044
-390.063	303.177	-0.168	0.307
-389.048	7.502	0.069	-0.051
-388.033	336.953	0.050	-0.096
-387.019	-104.456	0.231	0.053
-386.004	800.000	0.084	-0.332
-384.990	90.163	-0.051	-0.056
-383.975	123.232	0.158	-0.196
-382.960	-138.521	0.208	-0.023
-381.946	-131.478	0.325	0.042
-380.931	-64.661	-0.303	0.121
-379.917	9.709	0.164	0.123
-378.902	259.688	0.143	-0.244
-377.888	-69.906	0.276	-0.104
-376.873	800.000	-0.141	-0.455
-375.858	-91.337	-0.051	-0.014
-374.844	-200.000	-0.015	-0.161
-373.829	-105.501	-0.032	-0.007
-372.815	800.000	0.028	-0.081
-371.800	273.096	0.069	-0.120
-370.785	766.981	-0.165	0.443
-369.771	-112.445	-0.232	-0.046
-368.756	-56.494	0.122	0.054
-367.742	-200.000	0.028	-0.203
-366.727	-93.186	-0.088	-0.024
-365.712	419.781	0.106	0.223
-364.698	-92.758	-0.279	0.077
-363.683	-38.163	0.175	-0.092
-362.669	-148.380	0.217	-0.018
-361.654	800.000	-0.053	-0.200
-360.639	73.004	-0.065	-0.067
-359.625	-123.909	-0.276	-0.043
-358.610	800.000	-0.006	0.021
-357.596	49.526	-0.200	-0.186
-356.581	-200.000	0.017	0.082
-355.566	294.531	-0.085	-0.152
-354.552	-101.832	0.053	-0.013
-353.537	-45.219	-0.296	0.145
-352.523	-79.368	-0.351	0.117
-351.508	3.202	-0.505	-0.362
-350.493	800.000	-0.063	-0.200
-349.479	800.000	0.083	-0.257
-348.464	-200.000	-0.035	0.179
-347.450	11.072	0.057	0.043
-346.435	-47.218	0.052	-0.025
-345.420	-130.739	0.193	-0.026
-344.406	781.973	-0.059	0.160
-343.391	-103.538	-0.467	-0.108
-342.377	-200.000	-0.019	0.082
-341.362	800.000	-0.074	0.204
-340.348	100.231	-0.268	0.307
-339.333	105.898	0.180	-0.210
-338.318	-135.496	-0.402	0.047
-337.304	46.189	0.240	0.220
-336.289	116.074	-0.090	0.108
-335.275	-200.000	-0.023	0.331
-334.260	-42.245	0.263	-0.133
-333.245	800.000	0.106	-0.291
-332.231	-136.747	0.218	-0.025
-331.216	-165.250	0.398	-0.017
-330.202	110.715	0.105	0.125
-329.187	42.150	0.139	-0.124
-328.172	-200.000	-0.010	0.318
-327.158	-77.895	-0.509	0.173
-326.143	-200.000	-0.004	-0.199
-325.129	-51.858	-0.301	-0.138
-324.114	-33.943	0.151	-0.082
-323.099	800.000	-0.045	0.132
-322.085	209.677	-0.029	0.045
-321.070	-200.000	0.021	-0.120
-320.056	-172.588	-0.297	-0.009
-319.041	-200.000	-0.017	-0.073
-318.026	168.427	-0.032	0.045
-317.012	-200.000	-0.013	-0.125
-315.997	-200.000	0.059	-0.668
-314.983	-180.761	0.121	-0.002
-313.968	393.309	-0.098	-0.202
-312.953	800.000	-0.058	-0.225
-311.939	-7.665	-0.158	-0.105
-310.924	383.758	0.094	-0.191
-309.910	-14.530	0.206	-0.130
-308.895	134.329	-0.082	-0.105
-307.880	8.765	-0.128	0.095
-306.866	258.666	0.096	0.164
-305.851	153.193	-0.202	-0.272
-304.837	-112.469	-0.254	-0.050
-303.822	800.000	0.075	0.254
-302.807	-117.266	-0.139	0.025
-301.793	1.536	0.032	-0.023
-300.778	21.212	0.188	0.150
-299.764	-23.104	-0.199	-0.118
-298.749	-154.551	0.318	0.021
-297.735	-91.720	0.272	-0.076
-296.720	226.804	0.062	-0.100
-295.705	38.172	0.197	-0.172
-294.691	221.963	-0.187	0.296
-293.676	-16.197	0.257	0.161
-292.662	-200.000	-0.028	0.288
-291.647	196.657	-0.121	-0.182
-290.632	-200.000	-0.023	-0.530
-289.618	-63.742	-0.055	-0.022
-288.603	-54.568	0.086	-0.039
-287.589	152.510	-0.198	0.266
-286.574	-200.000	-0.005	0.058
-285.559	8.627	0.268	0.198
-284.545	87.849	0.115	0.125
-283.530	-58.771	0.093	-0.040
-282.516	143.431	0.223	0.292
-281.501	23.658	0.090	-0.073
-280.486	134.691	0.118	0.150
-279.472	-140.100	0.239	0.025
-278.457	800.000	0.100	0.305
-277.443	184.563	-0.260	0.379
-276.428	69.273	0.136	-0.138
-275.413	-134.727	0.207	0.025
-274.399	28.159	-0.077	-0.064
-273.384	76.452	0.249	-0.259
-272.370	-77.602	0.183	0.062
-271.355	800.000	0.050	-0.155
-270.340	-11.396	0.388	0.251
-269.326	410.509	-0.149	0.311
-268.311	205.817	0.246	0.376
-267.297	37.774	-0.180	-0.157
-266.282	206.624	-0.240	0.368
-265.267	741.022	0.109	0.289
-264.253	179.219	0.120	0.172
-263.238	-94.632	-0.092	0.024
-262.224	-200.000	-0.018	-0.109
-261.209	-200.000	-0.033	0.187
-260.195	-8.335	0.103	0.068
-259.180	-200.000	-0.008	0.253
-258.165	70.014	0.055	0.055
-257.151	235.804	-0.155	-0.251
-256.136	377.373	0.166	0.334
-255.122	-130.646	0.084	-0.011
-254.107	-194.978	-0.264	-0.002
-253.092	88.942	-0.149	0.163
-252.078	23.084	-0.135	0.109
-251.063	-7.373	0.287	0.191
-250.049	275.294	0.164	0.287
-249.034	800.000	0.067	0.258
-248.019	800.000	0.036	0.132
-247.005	-200.000	0.010	-0.107
-245.990	-200.000	-0.020	0.312
-244.976	40.309	0.241	0.213
-243.961	206.672	-0.124	0.191
-242.946	-41.870	0.232	0.117
-241.932	-200.000	-0.041	0.293
-240.917	87.096	-0.116	-0.126
-239.903	-17.419	-0.238	-0.147
-238.888	-200.000	-0.020	0.088
-237.873	346.245	0.081	-0.156
-236.859	-97.304	-0.173	-0.044
-235.844	-200.000	-0.045	-0.391
-234.830	800.000	0.095	0.279
-233.815	53.724	-0.116	0.109
-232.800	359.626	0.142	0.279
-231.786	207.343	0.056	0.087
-230.771	-200.000	0.028	0.260
-229.757	800.000	0.055	0.182
-228.742	-200.000	-0.045	0.310
-227.727	-200.000	0.070	-0.481
-226.713	-200.000	-0.003	-0.160
-225.698	304.035	0.109	-0.198
-224.684	-26.768	-0.203	0.116
-223.669	-80.981	-0.253	0.082
-222.655	418.117	0.073	-0.154
-221.640	177.447	0.354	0.507
-220.625	18.050	-0.135	-0.106
-219.611	-122.658	0.313	-0.050
-218.596	151.547	0.121	0.162
-217.582	-21.215	-0.163	-0.098
-216.567	609.033	0.053	0.130
-215.552	113.046	-0.227	-0.270
-214.538	-105.356	0.209	0.047
-213.523	408.891	-0.160	-0.333
-212.509	-200.000	-0.016	-0.081
-211.494	30.333	0.096	-0.081
-210.479	800.000	0.065	0.195
-209.465	-124.824	-0.169	0.026
-208.450	-170.380	0.237	0.008
-207.436	84.560	0.035	0.038
-206.421	119.659	0.126	-0.154
-205.406	-24.177	-0.197	0.116
-204.392	51.578	-0.162	0.151
-203.377	170.215	-0.034	-0.047
-202.363	1.702	-0.216	-0.153
-201.348	109.969	-0.070	0.083
-200.333	-183.212	0.311	-0.005
-199.319	191.769	-0.059	0.088
-198.304	163.419	-0.160	-0.220
-197.290	-104.486	-0.145	0.033
-196.275	-200.000	-0.016	-0.167
-195.260	5.695	0.200	-0.145
-194.246	800.000	0.061	-0.190
-193.231	-200.000	-0.011	0.098
-192.217	-200.000	-0.012	-0.139
-191.202	800.000	-0.120	0.362
-190.187	527.785	-0.042	0.097
-189.173	242.783	0.094	0.154
-188.158	-132.247	0.329	-0.042
-187.144	-45.507	0.188	0.091
-186.129	-65.925	0.342	-0.134
-185.114	-115.653	-0.155	-0.029
-184.100	-194.431	-0.204	0.002
-183.085	68.383	0.138	0.139
-182.071	124.596	-0.104	-0.129
-181.056	115.029	0.145	-0.174
-180.042	190.919	-0.195	0.287
-179.027	394.808	-0.034	-0.069
-178.012	800.000	-0.035	-0.120
-176.998	-148.704	-0.182	-0.014
-175.983	-125.739	0.494	-0.073
-174.969	-200.000	-0.013	-0.221
-173.954	-103.596	0.174	0.040
-172.939	-42.570	0.179	0.090
-171.925	319.114	0.121	0.224
-170.910	163.424	0.030	0.041
-169.896	2.608	-0.080	0.057
-168.881	-124.288	0.241	0.037
-167.866	136.512	0.173	-0.221
-166.852	-200.000	0.006	-0.175
-165.837	141.500	0.110	-0.143
-164.823	800.000	0.068	-0.246
-163.808	-200.000	-0.018	0.186
-162.793	-133.428	0.123	0.015
-161.779	-92.537	0.198	-0.055
-160.764	-200.000	0.015	0.097
-159.750	89.712	-0.172	-0.188
-158.735	-156.864	0.082	-0.005
-157.720	-112.332	-0.294	0.058
-156.706	50.054	0.217	0.201
-155.691	-104.895	-0.420	-0.095
-154.677	-2.065	0.156	0.108
-153.662	224.512	-0.090	0.143
-152.647	151.779	0.092	-0.122
-151.633	800.000	-0.040	-0.145
-150.618	37.687	-0.042	0.037
-149.604	105.042	0.049	-0.057
-148.589	-200.000	-0.004	0.128
-147.574	144.891	-0.148	-0.193
-146.560	174.999	0.282	-0.400
-145.545	285.252	-0.093	-0.164
-144.531	-75.844	-0.245	0.085
-143.516	-46.718	0.176	0.085
-142.502	390.068	0.136	-0.275
-141.487	-173.570	-0.100	0.003
-140.472	-48.730	-0.385	-0.181
-139.458	144.532	0.162	-0.211
-138.443	372.029	0.079	0.158
-137.429	-200.000	-0.041	0.301
-136.414	-130.974	-0.161	0.021
-135.399	-200.000	0.026	0.212
-134.385	144.417	-0.083	-0.109
-133.370	-200.000	-0.014	-0.093
-132.356	-117.558	-0.421	0.074
-131.341	-183.162	0.394	0.007
-130.326	800.000	0.094	0.285
-129.312	14.746	0.109	-0.083
-128.297	-200.000	0.000	0.012
-127.283	-124.783	0.333	0.050
-126.268	367.717	-0.039	-0.076
-125.253	357.876	-0.082	-0.160
-124.239	-93.195	0.105	0.029
-123.224	-200.000	0.007	-0.342
-122.210	-181.639	-0.231	-0.004
-121.195	-200.000	0.077	-0.346
-120.180	-200.000	0.002	0.105
-119.166	121.627	-0.053	0.065
-118.151	-85.678	0.144	-0.044
-117.137	-18.272	0.354	0.216
-116.122	380.980	0.073	0.146
-115.107	338.206	0.045	-0.085
-114.093	-108.870	0.182	0.038
-113.078	-98.697	-0.072	-0.018
-112.064	121.773	-0.060	-0.073
-111.049	35.141	0.040	-0.034
-110.034	114.885	-0.019	0.023
-109.020	-200.000	-0.007	-0.140
-108.005	220.917	0.175	-0.275
-106.991	38.857	0.235	-0.205
-105.976	-200.000	0.043	0.453
-104.962	-96.800	0.041	0.011
-103.947	356.448	0.104	-0.203
-102.932	-200.000	0.047	0.209
-101.918	-107.993	0.089	0.019
-100.903	-129.890	-0.056	-0.007
-99.889	-35.197	0.089	-0.048
-98.874	366.120	-0.032	-0.063
-97.859	484.590	-0.105	0.234
-96.845	364.884	-0.098	0.193
-95.830	-200.000	-0.004	0.236
-94.816	345.121	-0.188	0.360
-93.801	195.377	0.099	-0.147
-92.786	-200.000	0.005	0.156
-91.772	563.534	0.062	0.147
-90.757	224.807	-0.189	0.298
-89.743	-42.498	0.435	-0.216
-88.728	-200.000	0.065	0.324
-87.713	-71.719	0.177	-0.065
-86.699	-12.210	-0.111	-0.071
-85.684	322.722	-0.037	0.070
-84.670	-27.506	-0.271	0.154
-83.655	283.444	-0.049	-0.085
-82.640	70.087	-0.146	-0.147
-81.626	-106.202	0.261	-0.057
-80.611	-200.000	-0.023	0.130
-79.597	-200.000	-0.030	-0.224
-78.582	237.276	0.249	0.403
-77.567	-178.422	0.233	0.005
-76.553	-200.000	-0.041	0.222
-75.538	-41.982	-0.226	-0.113
-74.524	-78.717	0.182	-0.061
-73.509	373.839	-0.000	0.001
-72.494	702.837	-0.041	-0.105
-71.480	-200.000	0.012	-0.224
-70.465	20.967	-0.153	0.121
-69.451	-86.596	0.209	0.063
-68.436	-200.000	-0.007	0.192
-67.422	162.126	-0.193	0.263
-66.407	800.000	0.081	0.245
-65.392	-163.995	0.479	-0.022
-64.378	218.560	-0.167	0.260
-63.363	-200.000	0.003	0.069
-62.349	-187.947	-0.162	0.002
-61.334	42.365	-1.058	-0.938
-60.319	22.298	0.789	0.629
-59.305	386.874	-0.565	-1.139
-58.290	111.019	0.951	1.117
-57.276	559.134	0.678	1.597
-56.261	-200.000	122.032	645.199
-55.246	432.474	1543.674	3265.998
-54.232	147.138	2694.827	3536.946
-53.217	98.127	2141.088	2404.518
-52.203	35.561	1582.445	1355.400
-51.188	27.333	1327.995	1088.438
-50.173	24.710	1290.190	1042.141
-49.159	51.776	1358.733	1260.835
-48.144	49.208	1370.613	1256.427
-47.130	27.437	1318.794	1081.343
-46.115	24.180	1299.813	1046.638
-45.100	23.958	1294.561	1041.068
-44.086	23.929	1292.270	1039.010
-43.071	24.039	1289.777	1037.607
-42.057	23.976	1287.908	1035.698
-41.042	23.909	1286.540	1034.169
-40.027	23.886	1285.239	1032.946
-39.013	23.911	1283.121	1031.345
-37.998	23.972	1281.110	1030.044
-36.984	24.052	1279.424	1029.111
-35.969	24.051	1278.048	1027.955
-34.954	24.081	1276.368	1026.738
-33.940	24.108	1275.112	1025.839
-32.925	23.934	1273.897	1023.821
-31.911	24.165	1271.725	1023.361
-30.896	24.190	1270.810	1022.727
-29.881	24.211	1269.536	1021.786
-28.867	24.194	1268.010	1020.421
-27.852	24.142	1267.059	1019.314
-26.838	24.220	1265.693	1018.620
-25.823	24.136	1264.588	1017.214
-24.809	24.149	1263.182	1016.115
-23.794	24.180	1261.662	1015.027
-22.779	24.092	1260.696	1013.707
-21.765	24.178	1259.426	1013.139
-20.750	24.193	1257.164	1011.361
-19.736	23.957	1256.757	1009.653
-18.721	24.031	1255.702	1009.188
-17.706	23.930	1254.784	1007.837
-16.692	24.002	1253.592	1007.250
-15.677	24.045	1252.240	1006.366
-14.663	23.989	1251.019	1005.030
-13.648	24.006	1250.022	1004.283
-12.633	24.053	1249.360	1003.977
-11.619	24.128	1248.430	1003.611
-10.604	23.866	1248.246	1001.949
-9.590	24.073	1246.434	1001.615
-8.575	24.027	1245.469	1000.542
-7.560	23.972	1244.690	999.568
-6.546	24.044	1244.161	999.506
-5.531	24.058	1242.927	998.555
-4.517	23.985	1241.924	997.304
-3.502	23.948	1242.129	997.218
-2.487	24.017	1240.802	996.502
-1.473	24.095	1236.190	993.190
-0.458	22.438	1221.217	971.984
0.556	18.058	1206.252	936.160
1.571	14.507	1213.458	922.072
2.586	13.671	1228.727	928.909
3.600	13.719	1215.716	919.257
4.615	10.427	1144.449	848.091
5.629	3.707	1074.977	763.412
6.644	0.953	1056.996	737.183
7.659	0.686	1055.107	734.504
8.673	0.764	1054.309	734.260
9.688	0.757	1053.158	733.358
10.702	1.024	1050.708	732.879
11.717	4.746	1055.135	753.959
12.731	11.670	1064.603	794.405
13.746	16.460	1069.520	821.332
14.761	17.413	1070.605	826.728
15.775	16.675	1068.708	821.607
16.790	15.706	1067.281	815.739
17.804	15.061	1065.350	811.066
18.819	14.620	1064.574	808.268
19.834	14.465	1063.450	806.592
20.848	14.018	1063.135	804.123
21.863	13.947	1061.693	802.614
22.877	13.735	1060.927	800.945
23.892	13.770	1060.005	800.343
24.907	13.645	1059.688	799.431
25.921	13.744	1058.957	799.286
26.936	13.759	1058.415	798.880
27.950	13.753	1057.207	797.869
28.965	13.832	1056.026	797.286
29.980	13.914	1054.693	796.602
30.994	13.880	1053.702	795.621
32.009	13.972	1052.343	794.963
33.023	13.906	1051.698	794.088
34.038	13.856	1050.740	793.059
35.053	13.891	1050.081	792.656
36.067	13.805	1049.091	791.429
37.082	13.878	1048.152	791.001
38.096	13.849	1047.544	790.332
39.111	13.958	1046.402	789.918
40.126	13.844	1045.489	788.621
41.140	13.709	1044.179	786.921
42.155	13.727	1042.994	786.043
43.169	13.731	1042.235	785.422
44.184	13.626	1041.001	783.925
45.199	13.712	1039.966	783.481
46.213	13.740	1038.602	782.518
47.228	13.759	1037.969	782.062
48.242	13.830	1037.041	781.624
49.257	13.548	1036.647	779.930
50.271	13.752	1035.347	779.844
51.286	13.880	1034.013	779.373
52.301	13.865	1033.084	778.531
53.315	13.755	1032.371	777.409
54.330	13.692	1030.949	775.978
55.344	13.739	1030.381	775.702
56.359	13.764	1029.096	774.780
57.374	13.883	1028.109	774.524
58.388	13.784	1027.165	773.281
59.403	13.669	1027.096	772.628
60.417	13.724	1025.871	771.894
61.432	13.614	1025.420	770.972
62.447	13.665	1024.891	770.744
63.461	13.685	1023.926	770.043
64.476	13.668	1022.708	768.981
65.490	13.752	1021.677	768.527
66.505	13.686	1021.452	767.983
67.520	13.672	1020.385	767.051
68.534	13.604	1020.271	766.579
69.549	13.664	1019.398	766.136
70.563	13.551	1018.437	764.825
71.578	13.532	1017.462	763.933
72.593	13.593	1017.131	763.901
73.607	13.576	1016.703	763.434
74.622	13.599	1015.451	762.529
75.636	13.570	1014.767	761.817
76.651	13.528	1014.348	761.239
77.666	13.492	1013.714	760.530
78.680	13.641	1012.754	760.430
79.695	13.598	1012.202	759.750
80.709	13.625	1012.003	759.656
81.724	13.714	1010.890	759.164
82.739	13.750	1010.128	758.688
83.753	13.789	1009.450	758.287
84.768	13.915	1008.393	758.006
85.782	13.925	1007.652	757.423
86.797	13.859	1006.638	756.293
87.812	13.812	1006.216	755.696
88.826	13.789	1004.730	754.410
89.841	13.802	1004.159	753.972
90.855	13.890	1003.215	753.596
91.870	13.948	1002.444	753.216
92.884	13.794	1001.467	751.718
93.899	13.926	1000.698	751.671
94.914	13.925	1000.039	751.103
95.928	13.887	999.057	750.126
96.943	13.837	998.100	749.116
97.957	13.841	997.268	748.444
98.972	13.932	996.213	747.998
99.987	13.859	995.523	747.086
101.001	13.968	994.611	746.822
102.016	13.875	993.684	745.645
103.030	14.067	992.523	745.567
104.045	13.923	992.108	744.545
105.060	13.832	991.516	743.627
106.074	13.704	990.591	742.292
107.089	13.807	989.407	741.803
108.103	13.777	988.758	741.115
109.118	13.807	987.719	740.404
110.133	13.757	987.290	739.796
111.147	13.790	986.201	739.061
112.162	13.863	985.485	738.783
113.176	13.779	984.811	737.839
114.191	13.948	983.407	737.474
115.206	13.904	982.794	736.752
116.220	13.868	982.157	736.049
117.235	13.940	981.187	735.578
118.249	13.801	980.503	734.382
119.264	13.855	979.728	733.977
120.279	13.828	978.875	733.156
121.293	13.675	978.313	731.993
122.308	13.731	977.138	731.297
123.322	13.866	976.099	731.049
124.337	13.831	975.205	730.159
125.352	13.695	974.256	728.788
126.366	13.668	973.330	727.910
127.381	13.769	972.230	727.467
128.395	13.862	971.312	727.123
129.410	13.884	969.999	726.172
130.424	13.876	969.166	725.451
131.439	13.758	968.649	724.481
132.454	13.830	968.040	724.278
133.468	13.885	966.944	723.632
134.483	13.924	966.300	723.256
135.497	13.807	965.528	722.107
136.512	13.771	964.958	721.459
137.527	13.803	963.751	720.632
138.541	13.978	963.077	720.824
139.556	13.994	962.363	720.296
140.570	13.958	961.124	719.149
141.585	14.034	960.322	718.812
142.600	14.132	959.829	718.804
143.614	13.991	959.284	717.722
144.629	13.916	958.523	716.767
145.643	14.015	957.483	716.354
146.658	14.084	956.474	715.829
147.673	13.928	955.690	714.511
148.687	14.093	954.447	714.226
149.702	13.969	953.641	713.027
150.716	14.055	953.233	713.028
151.731	14.042	952.221	712.150
152.746	13.886	952.158	711.375
153.760	14.046	951.169	711.257
154.775	14.095	950.779	711.112
155.789	14.024	949.988	710.155
156.804	14.194	948.694	709.847
157.819	14.073	948.739	709.303
158.833	14.123	948.274	709.107
159.848	14.134	947.335	708.387
160.862	14.217	946.162	707.803
161.877	14.071	945.052	706.288
162.892	13.986	944.742	705.635
163.906	14.058	943.483	704.935
164.921	14.122	942.877	704.693
165.935	14.121	941.898	703.894
166.950	14.160	940.888	703.240
167.964	14.154	940.342	702.747
168.979	14.244	939.299	702.283
169.994	14.213	938.498	701.495
171.008	14.197	938.142	701.099
172.023	14.238	937.275	700.559
173.037	14.376	936.047	700.159
174.052	14.304	935.528	699.409
175.067	14.298	934.884	698.838
176.081	14.116	934.903	698.027
177.096	14.234	934.145	697.894
178.110	14.262	933.348	697.354
179.125	14.317	932.513	696.899
180.140	14.144	932.671	696.231
181.154	14.379	932.021	696.666
182.169	14.399	931.322	696.167
183.183	14.373	930.819	695.621
184.198	14.411	929.662	694.852
185.213	14.481	928.661	694.335
186.227	14.375	928.623	693.803
187.242	14.365	928.065	693.283
188.256	14.426	927.207	692.836
189.271	14.415	926.333	692.074
190.286	14.316	926.049	691.389
191.300	14.429	924.807	690.870
192.315	14.308	924.358	689.971
193.329	14.220	924.064	689.328
194.344	14.468	922.758	689.317
195.359	14.365	922.644	688.747
196.373	14.596	921.696	688.930
197.388	14.562	921.129	688.305
198.402	14.534	920.836	687.911
199.417	14.606	920.381	687.805
200.432	14.591	919.602	687.100
201.446	14.704	919.097	687.128
202.461	14.718	918.807	686.909
203.475	14.761	917.775	686.254
204.490	14.759	916.866	685.506
205.504	14.691	916.717	685.052
206.519	14.704	915.704	684.290
207.534	14.642	914.982	683.436
208.548	14.744	914.102	683.136
209.563	14.645	913.711	682.378
210.577	14.668	913.237	682.057
211.592	14.717	912.558	681.691
212.607	14.858	911.384	681.325
213.621	14.848	910.726	680.735
214.636	14.820	910.035	680.042
215.650	14.849	909.268	679.527
216.665	14.768	908.994	678.935
217.680	14.954	908.100	678.960
218.694	14.989	907.247	678.406
219.709	15.089	906.460	678.163
220.723	15.017	905.922	677.407
221.738	14.975	905.384	676.774
222.753	14.917	904.907	676.123
223.767	15.032	904.531	676.249
224.782	15.052	903.730	675.670
225.796	14.982	903.250	674.971
226.811	14.969	902.884	674.585
227.826	14.921	902.155	673.789
228.840	14.922	901.286	673.081
229.855	14.982	900.396	672.599
230.869	14.981	899.646	671.975
231.884	15.087	898.918	671.798
232.899	14.967	898.217	670.731
233.913	15.033	897.623	670.495
234.928	15.104	897.077	670.312
235.942	15.045	896.551	669.621
236.957	15.107	895.954	669.366
237.972	15.132	894.954	668.658
238.986	15.169	893.991	668.026
240.001	15.033	894.061	667.481
241.015	15.027	893.364	666.875
242.030	15.236	892.566	667.051
243.045	15.181	891.860	666.249
244.059	15.282	891.504	666.323
245.074	15.226	890.886	665.580
246.088	15.179	890.123	664.763
247.103	15.264	889.661	664.697
248.117	15.339	889.252	664.630
249.132	15.232	888.383	663.499
250.147	15.373	887.702	663.488
251.161	15.476	887.015	663.325
252.176	15.353	886.532	662.419
253.190	15.389	885.792	661.948
254.205	15.545	884.769	661.743
255.220	15.535	884.280	661.279
256.234	15.434	883.932	660.561
257.249	15.483	883.450	660.334
258.263	15.551	882.626	659.927
259.278	15.697	881.309	659.460
260.293	15.612	881.124	658.926
261.307	15.644	880.654	658.645
262.322	15.746	879.849	658.382
263.336	15.616	879.650	657.668
264.351	15.752	878.602	657.358
265.366	15.720	877.971	656.699
266.380	15.712	877.223	656.051
267.395	15.847	876.028	655.625
268.409	15.734	875.775	654.940
269.424	15.849	874.807	654.604
270.439	15.749	874.556	653.970
271.453	15.728	874.072	653.468
272.468	15.717	873.663	653.064
273.482	15.721	872.631	652.248
274.497	15.723	872.288	651.942
275.512	15.645	871.817	651.231
276.526	15.823	870.950	651.213
277.541	15.946	870.462	651.266
278.555	15.973	869.905	650.895
279.570	15.869	869.625	650.227
280.585	15.911	868.537	649.520
281.599	15.823	867.910	648.655
282.614	15.876	867.104	648.199
283.628	15.862	866.746	647.820
284.643	16.012	865.757	647.601
285.657	15.948	865.550	647.142
286.672	16.182	864.311	647.054
287.687	15.965	863.968	645.909
288.701	16.010	863.620	645.765
289.716	16.061	862.686	645.204
290.730	16.044	862.282	644.778
291.745	16.067	861.844	644.484
292.760	16.174	861.245	644.386
293.774	16.159	860.377	643.625
294.789	16.156	859.866	643.171
295.803	16.027	859.324	642.217
296.818	16.209	858.950	642.574
297.833	16.054	858.051	641.255
298.847	16.132	857.764	641.281
299.862	16.200	856.974	640.892
300.876	16.093	856.735	640.252
301.891	16.273	855.522	639.971
302.906	16.321	855.225	639.874
303.920	16.258	854.540	639.064
304.935	16.416	854.152	639.317
305.949	16.302	853.412	638.275
306.964	16.274	852.837	637.684
307.979	16.385	852.400	637.718
308.993	16.408	851.831	637.324
310.008	16.334	851.104	636.445
311.022	16.437	850.553	636.363
312.037	16.475	849.910	635.968
313.052	16.412	849.347	635.256
314.066	16.524	848.710	635.142
315.081	16.540	847.809	634.472
316.095	16.481	847.610	634.046
317.110	16.453	846.966	633.402
318.125	16.412	846.654	632.960
319.139	16.467	846.154	632.736
320.154	16.416	845.784	632.213
321.168	16.424	845.259	631.797
322.183	16.387	844.695	631.179
323.197	16.362	844.117	630.597
324.212	16.572	843.375	630.773
325.227	16.590	842.898	630.427
326.241	16.487	842.645	629.798
327.256	16.564	842.268	629.746
328.270	16.527	841.270	628.805
329.285	16.555	840.682	628.417
330.300	16.509	840.184	627.815
331.314	16.440	839.795	627.216
332.329	16.646	838.842	627.211
333.343	16.611	838.918	627.082
334.358	16.556	838.803	626.738
335.373	16.586	838.340	626.448
336.387	16.740	837.467	626.307
337.402	16.757	836.986	625.957
338.416	16.877	836.723	626.146
339.431	16.777	836.286	625.396
340.446	16.890	836.151	625.657
341.460	16.811	835.864	625.094
342.475	16.877	835.209	624.793
343.489	16.806	834.989	624.311
344.504	16.892	834.297	624.055
345.519	16.903	834.006	623.823
346.533	16.792	833.520	622.995
347.548	16.893	833.075	622.980
348.562	16.925	832.082	622.299
349.577	16.921	831.752	621.985
350.592	16.852	831.520	621.501
351.606	16.929	830.496	620.963
352.621	17.101	829.799	621.017
353.635	16.942	829.471	620.136
354.650	16.944	828.475	619.344
355.665	17.013	827.877	619.092
356.679	17.039	827.179	618.609
357.694	17.062	826.664	618.253
358.708	17.181	826.086	618.199
359.723	17.048	825.793	617.441
360.738	17.164	825.266	617.416
361.752	17.154	824.370	616.654
362.767	17.184	823.753	616.246
363.781	17.193	823.353	615.928
364.796	17.170	823.074	615.580
365.810	17.145	822.707	615.161
366.825	17.259	822.015	615.000
367.840	17.310	821.632	614.843
368.854	17.243	821.237	614.252
369.869	17.297	820.849	614.103
370.883	17.298	820.436	613.744
371.898	17.398	819.950	613.685
372.913	17.464	819.359	613.427
373.927	17.433	819.152	613.106
374.942	17.426	818.713	612.697
375.956	17.538	818.481	612.874
376.971	17.565	817.775	612.386
377.986	17.594	817.426	612.177
379.000	17.597	816.825	611.684
380.015	17.507	816.182	610.822
381.029	17.524	815.680	610.454
382.044	17.547	815.096	610.047
383.059	17.658	814.446	609.904
384.073	17.755	813.862	609.758
385.088	17.448	813.688	608.475
386.102	17.580	812.768	608.206
387.117	17.627	812.300	607.970
388.132	17.577	811.862	607.409
389.146	17.638	810.975	606.911
390.161	17.646	811.018	606.918
391.175	17.773	810.243	606.736
392.190	17.718	809.874	606.209
393.205	17.752	809.164	605.746
394.219	17.674	808.798	605.140
395.234	17.614	808.621	604.743
396.248	17.597	808.351	604.425
397.263	17.624	808.049	604.243
398.278	17.721	807.390	604.040
399.292	17.664	806.783	603.333
400.307	17.733	806.442	603.268
401.321	17.774	805.825	602.896
402.336	17.714	805.171	602.141
403.350	17.877	804.939	602.491
404.365	17.774	804.662	601.868
405.380	17.869	804.145	601.762
406.394	17.831	803.701	601.240
407.409	17.978	803.282	601.392
408.423	17.953	803.247	601.224
409.438	18.057	802.500	600.979
410.453	18.018	802.024	600.430
411.467	18.109	801.332	600.181
412.482	18.166	800.831	599.951
413.496	18.057	800.664	599.390
414.511	18.103	800.330	599.248
415.526	18.097	800.242	599.109
416.540	18.016	799.847	598.476
417.555	18.071	799.172	598.113
418.569	18.092	798.790	597.848
419.584	18.042	798.097	597.100
420.599	18.181	798.072	597.515
421.613	115.927	1297.220	1489.770
422.628	100.026	1369.891	1489.883
