DTS Sentinel unit serial number:	SN413079Multiplexer serial number:	ORYXHardware model number:	OX4-SRSoftware version number:	ORYX F/W v4.00 Oryx Data Collector v3.7.2.0data status	okinstallation	princeton_trtdifferential loss correction	single-endedforward channel	channel 1reverse channel	N/Adate	2019/09/14time	23:26:35forward acquisition time	60.00reverse acquisition time	0.00gamma	496.2192k internal	0.2320k external	0.2320temperature offset calibration	0.9993default loss term (dB/km)	0.3790temperature slope calibration	1.0000multiplexer offset coefficient	1.0000multiplexer slope coefficient	1.0000fibre end	0.00T internal ref (°C)	32.37T ext. ref 1 (°C)	4.63T ext. ref 2 (°C)	27.39length (m)	temperature (°C)	Stokes	anti-Stokes-747.200	-200.000	-0.063	-0.332
-746.185	588.318	-0.048	-0.118
-745.171	-68.433	0.196	-0.077
-744.156	-23.422	0.193	0.117
-743.142	41.240	0.139	-0.127
-742.127	540.982	-0.144	0.347
-741.112	-28.168	0.095	-0.056
-740.098	237.530	-0.088	0.148
-739.083	735.651	-0.030	0.081
-738.069	-128.668	0.277	0.040
-737.054	278.990	-0.126	0.228
-736.039	31.586	-0.270	0.235
-735.025	800.000	-0.015	-0.053
-734.010	-67.484	0.317	-0.126
-732.996	-115.420	0.219	0.042
-731.981	800.000	-0.077	0.321
-730.966	-160.304	-0.275	-0.015
-729.952	30.719	-0.076	0.065
-728.937	-2.566	-0.175	-0.124
-727.923	184.934	0.076	0.114
-726.908	-137.711	-0.215	0.024
-725.894	-200.000	0.023	-0.138
-724.879	12.744	-0.054	-0.042
-723.864	34.979	-0.204	-0.180
-722.850	333.802	0.026	0.050
-721.835	-72.149	-0.023	0.009
-720.821	-77.619	-0.335	0.117
-719.806	-20.575	0.126	-0.078
-718.791	-90.355	-0.326	-0.095
-717.777	-50.193	-0.052	0.025
-716.762	-53.822	-0.291	-0.134
-715.748	-42.158	-0.172	-0.089
-714.733	-23.539	-0.175	-0.106
-713.718	272.337	0.046	-0.081
-712.704	-112.060	0.136	0.028
-711.689	166.509	-0.062	0.089
-710.675	-115.199	0.081	-0.016
-709.660	-200.000	-0.014	-0.255
-708.645	800.000	0.065	-0.206
-707.631	800.000	0.021	-0.066
-706.616	5.724	-0.165	-0.123
-705.602	58.636	-0.186	0.184
-704.587	25.759	0.088	0.074
-703.572	-28.412	-0.240	0.139
-702.558	59.890	-0.195	-0.194
-701.543	-72.773	-0.378	0.141
-700.529	-200.000	0.001	-0.199
-699.514	77.063	-0.155	-0.166
-698.499	-37.516	0.272	0.146
-697.485	-157.901	0.392	-0.023
-696.470	800.000	-0.089	-0.294
-695.456	179.820	0.368	0.544
-694.441	-164.048	-0.343	0.016
-693.426	-133.934	0.264	-0.033
-692.412	-200.000	-0.012	0.154
-691.397	61.410	-0.015	-0.015
-690.383	800.000	0.056	-0.218
-689.368	130.681	0.154	-0.199
-688.354	800.000	0.058	0.183
-687.339	58.537	-0.042	0.042
-686.324	-63.450	-0.141	-0.059
-685.310	56.928	0.098	-0.096
-684.295	132.837	0.140	-0.182
-683.281	-200.000	0.021	0.235
-682.266	504.261	-0.040	-0.093
-681.251	800.000	0.073	0.252
-680.237	-200.000	-0.012	-0.203
-679.222	162.383	-0.133	0.188
-678.208	-113.405	-0.203	-0.040
-677.193	636.469	-0.008	0.021
-676.178	800.000	0.116	-0.357
-675.164	-200.000	0.007	0.228
-674.149	-97.353	-0.188	0.049
-673.135	-85.829	0.367	-0.115
-672.120	-200.000	0.033	-0.151
-671.105	-109.350	0.226	-0.048
-670.091	-65.961	-0.087	-0.035
-669.076	-87.692	-0.131	0.040
-668.062	-121.682	0.159	0.027
-667.047	193.035	-0.149	0.227
-666.032	30.717	-0.212	0.183
-665.018	-2.549	0.165	-0.116
-664.003	-51.929	-0.084	-0.039
-662.989	103.698	-0.117	0.139
-661.974	-84.681	-0.036	-0.011
-660.959	-96.982	-0.184	0.048
-659.945	321.398	-0.114	-0.219
-658.930	217.517	0.077	-0.123
-657.916	-66.082	-0.196	-0.079
-656.901	547.322	-0.135	-0.326
-655.886	168.516	-0.090	0.129
-654.872	-200.000	-0.015	-0.157
-653.857	130.525	-0.164	0.211
-652.843	26.434	0.250	-0.210
-651.828	299.262	0.023	0.044
-650.814	800.000	0.020	-0.066
-649.799	-68.498	0.143	0.056
-648.784	117.060	-0.134	0.166
-647.770	-47.367	-0.056	0.028
-646.755	-181.579	-0.451	0.009
-645.741	-119.220	-0.282	-0.050
-644.726	58.527	-0.035	-0.034
-643.711	-68.911	0.217	0.084
-642.697	0.106	-0.076	-0.054
-641.682	173.347	-0.174	0.253
-640.668	39.298	0.320	0.288
-639.653	62.981	0.058	0.058
-638.638	-151.589	-0.248	-0.018
-637.624	-131.757	-0.124	-0.016
-636.609	-200.000	-0.030	0.150
-635.595	-200.000	0.048	0.284
-634.580	-15.212	0.040	0.026
-633.565	-200.000	0.012	0.105
-632.551	-13.628	-0.123	-0.080
-631.536	-91.727	0.289	0.083
-630.522	-105.349	-0.231	0.053
-629.507	-200.000	0.003	0.092
-628.492	80.133	0.113	-0.122
-627.478	800.000	-0.056	0.171
-626.463	-58.390	0.137	-0.060
-625.449	-200.000	0.044	-0.243
-624.434	800.000	-0.064	0.239
-623.419	298.797	-0.108	-0.200
-622.405	-78.972	-0.237	-0.081
-621.390	-200.000	0.012	0.228
-620.376	154.595	-0.045	0.062
-619.361	-200.000	-0.016	-0.148
-618.346	-4.403	0.157	0.109
-617.332	89.472	0.319	0.358
-616.317	8.521	0.277	-0.210
-615.303	-57.518	-0.236	0.104
-614.288	-15.883	-0.293	-0.188
-613.273	1.726	-0.326	0.236
-612.259	421.081	-0.114	-0.246
-611.244	64.153	0.216	-0.219
-610.230	-128.273	-0.440	0.063
-609.215	201.527	-0.165	0.256
-608.201	482.198	0.112	0.255
-607.186	61.586	-0.192	-0.192
-606.171	299.081	-0.054	0.100
-605.157	-200.000	0.008	-0.063
-604.142	-26.301	-0.067	-0.039
-603.128	66.656	0.280	0.287
-602.113	312.989	0.179	-0.337
-601.098	800.000	0.034	-0.122
-600.084	566.575	0.030	-0.074
-599.069	53.261	0.048	0.046
-598.055	696.888	-0.096	0.253
-597.040	508.351	-0.054	0.127
-596.025	-103.998	0.458	0.107
-595.011	-92.543	-0.255	-0.072
-593.996	503.951	-0.021	0.050
-592.982	-157.723	0.023	0.001
-591.967	-98.349	-0.076	0.020
-590.952	247.913	0.083	0.141
-589.938	575.956	-0.080	-0.197
-588.923	301.649	-0.128	-0.238
-587.909	-200.000	0.033	-0.283
-586.894	-11.436	0.058	0.038
-585.879	-111.660	-0.059	-0.012
-584.865	140.058	0.144	0.190
-583.850	-143.055	-0.152	0.015
-582.836	-32.435	-0.280	0.157
-581.821	37.795	0.143	-0.127
-580.806	-15.116	-0.177	-0.114
-579.792	-22.071	0.508	-0.310
-578.777	-115.701	0.084	-0.016
-577.763	175.097	0.075	0.109
-576.748	-62.789	0.091	0.038
-575.733	-52.739	-0.391	0.181
-574.719	-29.889	-0.162	0.093
-573.704	-200.000	0.015	-0.168
-572.690	164.520	-0.275	0.389
-571.675	-36.145	-0.035	-0.019
-570.661	22.067	-0.295	0.242
-569.646	135.596	0.088	-0.116
-568.631	-27.996	0.136	0.079
-567.617	-19.367	0.326	0.203
-566.602	-70.473	0.222	-0.084
-565.588	-112.157	-0.061	-0.012
-564.573	-9.365	-0.123	-0.082
-563.558	-175.143	-0.563	0.016
-562.544	-200.000	0.003	-0.074
-561.529	-99.069	0.250	0.064
-560.515	-14.174	-0.149	0.097
-559.500	-90.338	0.249	-0.073
-558.485	-137.375	-0.192	0.022
-557.471	800.000	-0.093	0.360
-556.456	-53.149	-0.214	0.099
-555.442	327.605	0.143	-0.275
-554.427	287.439	-0.056	-0.102
-553.412	-200.000	-0.023	-0.282
-552.398	-200.000	-0.000	0.286
-551.383	800.000	-0.065	-0.240
-550.369	-24.463	-0.239	0.143
-549.354	-101.908	-0.089	-0.021
-548.339	-22.048	0.155	-0.095
-547.325	-34.638	-0.215	-0.118
-546.310	800.000	-0.067	-0.214
-545.296	-179.516	-0.112	-0.002
-544.281	-200.000	0.093	-0.421
-543.266	667.793	-0.076	-0.197
-542.252	271.630	-0.165	-0.292
-541.237	602.144	0.019	-0.047
-540.223	-61.745	-0.252	0.106
-539.208	-200.000	-0.010	-0.068
-538.193	-25.348	-0.162	0.096
-537.179	568.011	-0.082	0.199
-536.164	36.777	-0.164	0.145
-535.150	-200.000	-0.042	0.300
-534.135	-200.000	0.035	-0.219
-533.121	350.533	-0.051	-0.102
-532.106	64.298	0.103	-0.104
-531.091	36.464	0.058	0.052
-530.077	85.289	-0.184	0.202
-529.062	-68.542	-0.189	-0.074
-528.048	761.254	-0.048	-0.131
-527.033	-106.010	0.148	-0.033
-526.018	-95.056	0.132	0.036
-525.004	-87.550	-0.081	-0.025
-523.989	800.000	0.026	0.075
-522.975	-118.924	0.269	-0.047
-521.960	283.122	0.082	0.147
-520.945	-200.000	-0.020	0.144
-519.931	-176.675	-0.167	-0.004
-518.916	800.000	-0.059	0.165
-517.902	161.693	0.104	0.146
-516.887	92.937	0.114	0.129
-515.872	-65.567	-0.128	0.051
-514.858	800.000	0.080	0.231
-513.843	-200.000	0.032	0.252
-512.829	-4.291	0.271	0.188
-511.814	-65.818	0.325	0.130
-510.799	185.664	-0.102	0.152
-509.785	-200.000	0.039	0.337
-508.770	-183.437	-0.251	0.004
-507.756	-141.474	-0.147	0.015
-506.741	286.024	0.110	0.199
-505.726	177.275	-0.341	-0.497
-504.712	-130.908	-0.126	0.017
-503.697	-54.489	-0.084	0.038
-502.683	-64.934	-0.228	-0.092
-501.668	-200.000	0.063	0.308
-500.653	-129.624	0.435	-0.060
-499.639	-138.162	-0.280	-0.031
-498.624	-200.000	-0.007	0.144
-497.610	-20.214	0.093	0.057
-496.595	800.000	-0.043	-0.122
-495.581	5.410	-0.199	-0.147
-494.566	388.485	0.107	0.221
-493.551	800.000	-0.080	-0.274
-492.537	800.000	-0.090	-0.291
-491.522	-38.380	-0.041	0.022
-490.508	-51.687	-0.083	0.039
-489.493	-104.451	0.127	0.029
-488.478	-200.000	0.074	-0.400
-487.464	-200.000	-0.017	-0.122
-486.449	-200.000	0.043	-0.348
-485.435	-114.413	0.230	-0.044
-484.420	-200.000	-0.020	-0.403
-483.405	193.135	0.088	0.133
-482.391	-108.605	0.143	-0.031
-481.376	100.265	0.105	0.122
-480.362	-6.868	-0.100	-0.068
-479.347	-76.674	0.313	0.110
-478.332	222.351	0.135	0.218
-477.318	306.321	-0.123	0.230
-476.303	-200.000	0.004	0.151
-475.289	729.316	0.026	-0.068
-474.274	-28.206	-0.263	-0.152
-473.259	-171.154	-0.291	0.010
-472.245	-117.974	-0.208	-0.037
-471.230	-200.000	-0.013	-0.264
-470.216	800.000	-0.083	-0.236
-469.201	-169.040	0.453	-0.017
-468.186	86.390	-0.161	-0.178
-467.172	-129.576	0.201	0.028
-466.157	140.762	-0.090	0.119
-465.143	796.831	0.039	0.107
-464.128	800.000	0.034	-0.119
-463.113	-75.989	-0.415	-0.147
-462.099	-31.912	0.192	0.107
-461.084	-95.956	-0.043	0.011
-460.070	280.282	-0.115	-0.206
-459.055	-63.719	-0.152	-0.062
-458.040	446.111	0.038	0.084
-457.026	-132.327	0.203	0.026
-456.011	8.263	-0.277	-0.208
-454.997	-200.000	-0.043	-0.338
-453.982	-152.287	0.316	0.023
-452.968	-98.096	0.230	-0.059
-451.953	-94.135	0.132	0.036
-450.938	-200.000	-0.052	0.335
-449.924	-84.573	-0.094	-0.030
-448.909	800.000	-0.066	-0.242
-447.895	-109.370	0.367	0.078
-446.880	800.000	-0.035	-0.132
-445.865	-76.393	-0.164	-0.058
-444.851	30.217	-0.308	-0.263
-443.836	1.693	0.254	-0.183
-442.822	-7.882	-0.159	0.108
-441.807	-200.000	0.011	0.182
-440.792	265.769	0.164	0.286
-439.778	-111.781	-0.203	0.041
-438.763	-8.574	0.233	-0.157
-437.749	-1.515	-0.026	-0.019
-436.734	-200.000	-0.021	-0.499
-435.719	-56.859	0.189	0.083
-434.705	-7.496	0.033	-0.022
-433.690	-7.370	-0.145	0.098
-432.676	800.000	-0.022	0.070
-431.661	-200.000	0.020	0.199
-430.646	-200.000	0.008	0.300
-429.632	-123.605	0.307	-0.049
-428.617	-200.000	-0.003	-0.103
-427.603	-73.848	0.229	0.083
-426.588	800.000	-0.103	-0.304
-425.573	113.744	0.185	-0.224
-424.559	-38.526	-0.071	-0.038
-423.544	-120.396	0.160	0.027
-422.530	800.000	0.069	0.217
-421.515	-6.116	0.144	-0.098
-420.500	501.532	-0.115	-0.266
-419.486	-200.000	0.023	-0.335
-418.471	6.528	-0.108	-0.080
-417.457	-167.701	-0.164	-0.006
-416.442	225.320	0.279	0.450
-415.428	-4.953	-0.081	-0.056
-414.413	-115.775	0.050	-0.009
-413.398	-105.884	0.145	-0.033
-412.384	166.229	-0.060	0.085
-411.369	136.152	0.108	0.140
-410.355	249.605	0.284	0.480
-409.340	225.097	-0.069	-0.111
-408.325	-115.876	-0.426	-0.079
-407.311	118.750	0.131	-0.161
-406.296	-200.000	-0.003	-0.130
-405.282	-123.524	-0.340	0.054
-404.267	800.000	-0.088	-0.267
-403.252	-200.000	-0.023	0.271
-402.238	-200.000	-0.066	0.369
-401.223	18.672	0.218	-0.174
-400.209	291.483	0.117	0.213
-399.194	69.861	-0.162	0.166
-398.179	116.750	-0.217	-0.266
-397.165	-199.724	0.338	-0.002
-396.150	498.318	0.027	-0.063
-395.136	60.988	0.121	0.119
-394.121	-86.387	0.188	-0.058
-393.106	-7.594	0.088	0.059
-392.092	-34.226	-0.055	0.030
-391.077	75.576	-0.158	-0.166
-390.063	33.276	-0.037	-0.032
-389.048	114.397	-0.198	0.240
-388.033	-123.125	-0.248	0.040
-387.019	651.339	0.029	-0.075
-386.004	39.604	0.250	0.224
-384.990	800.000	-0.119	0.357
-383.975	330.216	0.078	-0.149
-382.960	-19.026	0.051	0.032
-381.946	471.553	0.068	-0.153
-380.931	-100.640	0.286	-0.070
-379.917	-49.691	-0.036	0.017
-378.902	75.871	-0.189	-0.199
-377.888	241.042	0.099	-0.166
-376.873	445.458	0.117	-0.256
-375.858	88.913	0.076	0.085
-374.844	125.261	-0.148	0.186
-373.829	-200.000	-0.019	-0.404
-372.815	-157.205	0.234	0.014
-371.800	165.663	-0.085	0.120
-370.785	-44.228	-0.301	0.150
-369.771	-200.000	-0.022	0.402
-368.756	-60.740	-0.111	0.047
-367.742	70.612	0.197	-0.203
-366.727	800.000	0.056	-0.208
-365.712	-118.692	0.301	-0.053
-364.698	-200.000	0.001	0.182
-363.683	96.364	0.097	-0.110
-362.669	-85.928	0.219	-0.067
-361.654	-200.000	-0.001	-0.067
-360.639	99.192	-0.160	-0.184
-359.625	-200.000	0.046	-0.414
-358.610	-186.501	0.234	0.003
-357.596	-80.358	-0.022	0.007
-356.581	-145.769	0.351	0.031
-355.566	-124.463	0.219	0.034
-354.552	800.000	0.017	-0.058
-353.537	-200.000	0.007	-0.257
-352.523	800.000	0.072	0.224
-351.508	-200.000	-0.019	0.306
-350.493	800.000	-0.071	0.231
-349.479	-78.596	-0.324	-0.110
-348.464	74.905	0.184	-0.192
-347.450	800.000	-0.039	-0.114
-346.435	352.824	0.144	-0.283
-345.420	69.437	-0.162	-0.166
-344.406	52.211	-0.197	0.187
-343.391	-144.685	-0.305	0.028
-342.377	550.161	0.078	-0.186
-341.362	166.281	-0.041	-0.057
-340.348	34.277	-0.426	0.370
-339.333	-200.000	-0.026	-0.214
-338.318	-43.976	-0.297	-0.149
-337.304	460.778	-0.147	0.326
-336.289	98.968	0.054	0.063
-335.275	37.328	-0.083	0.073
-334.260	-46.523	0.149	0.073
-333.245	-37.766	0.296	-0.156
-332.231	-20.780	-0.359	0.219
-331.216	267.755	-0.142	0.248
-330.202	-200.000	-0.031	0.200
-329.187	-38.206	0.139	0.074
-328.172	57.726	0.296	-0.288
-327.158	-84.183	-0.438	-0.138
-326.143	78.633	0.161	-0.171
-325.129	66.378	0.066	-0.067
-324.114	-200.000	-0.019	-0.263
-323.099	-92.332	-0.063	0.018
-322.085	316.958	-0.099	0.185
-321.070	-110.894	0.083	0.017
-320.056	-84.794	0.133	0.041
-319.041	361.042	0.085	-0.169
-318.026	-111.279	-0.386	0.078
-317.012	-81.127	0.091	0.030
-315.997	-110.540	-0.488	-0.101
-314.983	294.335	0.260	0.473
-313.968	669.738	-0.035	-0.091
-312.953	253.515	-0.084	-0.142
-311.939	-39.717	0.105	0.055
-310.924	21.063	0.114	-0.092
-309.910	88.317	0.154	-0.170
-308.895	-29.952	0.281	-0.159
-307.880	-129.809	0.111	0.015
-306.866	75.143	0.099	-0.103
-305.851	-200.000	0.025	0.117
-304.837	-118.182	0.112	0.020
-303.822	386.085	0.096	-0.196
-302.807	27.563	-0.045	-0.037
-301.793	144.444	-0.250	0.332
-300.778	-82.365	-0.330	0.107
-299.764	-75.259	0.055	0.019
-298.749	-200.000	-0.051	-0.296
-297.735	151.049	0.136	-0.183
-296.720	488.494	-0.075	-0.170
-295.705	70.673	-0.255	0.263
-294.691	440.516	-0.124	-0.270
-293.676	-31.254	0.247	0.138
-292.662	800.000	-0.033	-0.097
-291.647	52.110	0.204	0.193
-290.632	418.575	-0.090	-0.190
-289.618	-70.900	-0.201	-0.075
-288.603	-95.214	0.046	-0.012
-287.589	-68.570	-0.263	0.101
-286.574	198.184	-0.099	-0.151
-285.559	-200.000	0.004	0.073
-284.545	-200.000	0.176	-0.001
-283.530	800.000	0.069	0.209
-282.516	800.000	0.022	-0.092
-281.501	-200.000	0.021	0.154
-280.486	142.630	0.163	0.216
-279.472	-200.000	-0.051	0.250
-278.457	533.522	0.090	0.213
-277.443	-200.000	-0.030	-0.194
-276.428	-91.665	0.136	-0.038
-275.413	146.416	0.092	0.122
-274.399	-200.000	0.038	-0.196
-273.384	12.539	-0.182	0.139
-272.370	354.463	0.151	0.298
-271.355	-91.787	0.255	-0.072
-270.340	639.988	-0.124	0.313
-269.326	-17.713	0.239	-0.149
-268.311	-51.479	-0.164	-0.076
-267.297	28.378	0.276	0.232
-266.282	-200.000	0.025	0.315
-265.267	800.000	-0.092	-0.326
-264.253	-200.000	0.001	-0.060
-263.238	-25.603	-0.224	-0.131
-262.224	70.319	0.170	-0.174
-261.209	-155.304	-0.241	-0.016
-260.195	90.157	-0.220	-0.244
-259.180	71.475	0.266	0.274
-258.165	-200.000	0.032	0.186
-257.151	39.077	-0.034	0.030
-256.136	-49.379	-0.123	0.058
-255.122	-119.189	-0.157	-0.027
-254.107	-200.000	-0.001	-0.295
-253.092	30.528	-0.094	-0.080
-252.078	800.000	-0.027	0.103
-251.063	-200.000	-0.017	0.101
-250.049	800.000	0.072	0.298
-249.034	-125.523	0.434	-0.065
-248.019	88.068	-0.177	-0.194
-247.005	115.207	0.036	-0.044
-245.990	20.242	0.090	0.072
-244.976	-148.279	0.277	-0.023
-243.961	-1.109	0.353	-0.248
-242.946	-68.479	-0.289	0.111
-241.932	-12.696	0.343	-0.222
-240.917	86.251	-0.134	-0.147
-239.903	83.089	-0.036	0.039
-238.888	235.899	-0.093	0.153
-237.873	800.000	0.034	-0.144
-236.859	141.436	-0.190	-0.249
-235.844	88.006	0.375	-0.413
-234.830	99.312	-0.138	-0.158
-233.815	-12.424	-0.106	0.069
-232.800	309.603	-0.108	-0.200
-231.786	-125.563	0.068	-0.010
-230.771	-44.306	-0.094	0.047
-229.757	800.000	-0.080	-0.273
-228.742	67.922	0.340	-0.344
-227.727	-200.000	0.049	0.416
-226.713	-172.224	-0.031	-0.001
-225.698	30.915	0.110	-0.094
-224.684	-58.047	0.114	-0.049
-223.669	140.999	-0.205	-0.269
-222.655	-73.765	0.322	-0.116
-221.640	-110.213	0.306	0.063
-220.625	-200.000	-0.001	0.218
-219.611	800.000	0.162	0.462
-218.596	-63.809	-0.111	0.045
-217.582	437.031	-0.042	0.090
-216.567	-200.000	0.035	0.277
-215.552	-200.000	-0.074	-0.362
-214.538	-200.000	-0.009	-0.113
-213.523	-120.823	-0.226	-0.038
-212.509	-82.093	-0.408	0.132
-211.494	-63.308	0.326	0.133
-210.479	283.441	-0.118	0.210
-209.465	-200.000	-0.007	0.049
-208.450	161.523	-0.120	0.166
-207.436	-37.270	-0.105	0.056
-206.421	-200.000	0.039	-0.336
-205.406	-37.809	0.093	-0.049
-204.392	-114.024	-0.349	0.067
-203.377	439.801	-0.124	0.267
-202.363	-200.000	-0.039	0.186
-201.348	-200.000	0.035	-0.295
-200.333	-58.423	-0.157	-0.068
-199.319	286.852	-0.048	-0.085
-198.304	44.483	0.269	-0.244
-197.290	99.229	0.100	-0.114
-196.275	800.000	-0.089	0.349
-195.260	-200.000	-0.002	-0.178
-194.246	-64.015	0.256	-0.103
-193.231	-200.000	0.018	-0.192
-192.217	288.159	0.108	0.194
-191.202	75.499	0.119	-0.125
-190.187	60.035	-0.152	0.148
-189.173	371.811	0.055	0.110
-188.158	24.566	-0.021	0.017
-187.144	57.174	0.207	0.200
-186.129	409.806	-0.175	0.366
-185.114	-200.000	-0.005	-0.104
-184.100	-65.522	0.331	-0.131
-183.085	-113.409	-0.172	0.033
-182.071	800.000	0.062	0.230
-181.056	-200.000	0.055	0.306
-180.042	112.059	-0.141	-0.169
-179.027	19.244	0.264	0.210
-178.012	87.525	0.240	-0.262
-176.998	-200.000	-0.053	-0.354
-175.983	154.980	0.025	0.034
-174.969	800.000	0.150	-0.502
-173.954	3.963	0.094	-0.068
-172.939	-141.747	0.471	-0.047
-171.925	800.000	0.031	0.094
-170.910	498.386	0.095	0.217
-169.896	800.000	0.098	0.305
-168.881	-0.171	-0.228	0.160
-167.866	388.694	0.022	0.045
-166.852	-49.942	-0.169	0.079
-165.837	16.235	0.220	0.171
-164.823	800.000	0.078	-0.257
-163.808	758.998	0.070	-0.187
-162.793	28.339	0.211	0.177
-161.779	800.000	0.042	0.118
-160.764	-48.223	0.211	0.100
-159.750	-87.638	0.203	0.061
-158.735	-78.662	-0.063	-0.021
-157.720	-200.000	0.020	-0.277
-156.706	800.000	-0.076	0.307
-155.691	-142.237	-0.299	-0.029
-154.677	-10.587	0.249	0.163
-153.662	224.813	-0.096	-0.153
-152.647	-140.559	-0.377	0.039
-151.633	513.152	0.021	-0.047
-150.618	308.260	-0.048	0.089
-149.604	800.000	-0.048	0.185
-148.589	-79.109	0.076	-0.025
-147.574	-115.219	0.172	0.032
-146.560	800.000	0.071	0.207
-145.545	-100.834	-0.352	0.086
-144.531	373.432	-0.185	-0.372
-143.516	-137.017	0.330	0.037
-142.502	98.823	0.341	0.389
-141.487	30.243	-0.302	0.254
-140.472	-134.671	0.158	-0.019
-139.458	-200.000	0.018	0.163
-138.443	106.514	0.102	-0.120
-137.429	-110.777	0.126	0.026
-136.414	65.962	-0.030	0.030
-135.399	-65.073	0.224	-0.089
-134.385	800.000	-0.098	-0.278
-133.370	-200.000	-0.017	-0.128
-132.356	-200.000	-0.083	0.543
-131.341	800.000	-0.052	-0.166
-130.326	197.441	-0.229	-0.345
-129.312	-19.125	0.156	-0.096
-128.297	-200.000	-0.007	-0.302
-127.283	8.112	-0.075	-0.055
-126.268	-95.571	-0.087	0.023
-125.253	107.420	0.124	0.146
-124.239	-200.000	-0.026	0.236
-123.224	-200.000	0.003	-0.042
-122.210	523.468	0.100	0.232
-121.195	-200.000	0.009	-0.159
-120.180	733.758	-0.107	-0.282
-119.166	87.623	-0.116	-0.127
-118.151	15.688	0.027	0.021
-117.137	-66.496	-0.202	-0.079
-116.122	-31.693	-0.298	0.165
-115.107	-75.533	0.401	0.141
-114.093	297.295	0.096	0.173
-113.078	-72.808	0.295	0.107
-112.064	-116.077	-0.203	0.037
-111.049	139.548	0.056	-0.073
-110.034	35.118	0.153	-0.132
-109.020	252.340	0.147	-0.246
-108.005	-42.123	-0.112	-0.056
-106.991	-20.572	-0.130	0.078
-105.976	47.859	0.115	-0.106
-104.962	52.899	0.325	-0.306
-103.947	606.289	-0.131	-0.322
-102.932	48.069	-0.053	0.049
-101.918	-148.941	-0.043	0.003
-100.903	145.027	0.275	-0.362
-99.889	88.476	0.137	0.150
-98.874	121.960	0.138	0.169
-97.859	-68.343	0.142	-0.054
-96.845	800.000	-0.090	-0.325
-95.830	201.929	-0.228	-0.347
-94.816	67.297	0.076	-0.076
-93.801	150.458	0.109	0.146
-92.786	-79.835	0.318	0.105
-91.772	-200.000	-0.025	0.331
-90.757	-49.833	0.136	-0.064
-89.743	75.659	0.167	0.174
-88.728	793.405	0.050	0.135
-87.713	297.539	-0.020	0.036
-86.699	-25.052	0.478	0.279
-85.684	-174.274	0.370	0.011
-84.670	-179.688	0.302	0.006
-83.655	185.690	-0.136	-0.200
-82.640	800.000	-0.101	0.393
-81.626	-49.126	-0.032	0.015
-80.611	-3.740	-0.202	0.138
-79.597	-200.000	0.081	0.360
-78.582	-104.603	0.258	0.059
-77.567	-105.777	-0.455	-0.101
-76.553	100.573	-0.079	0.090
-75.538	-200.000	-0.004	0.217
-74.524	42.994	0.135	0.121
-73.509	445.163	-0.056	0.121
-72.494	-136.251	0.174	-0.020
-71.480	87.034	-0.243	0.265
-70.465	58.371	-0.112	-0.108
-69.451	-16.145	-0.061	-0.038
-68.436	-21.351	0.199	-0.120
-67.422	-25.334	-0.118	0.069
-66.407	-87.097	-0.209	-0.063
-65.392	800.000	0.051	-0.156
-64.378	63.196	0.269	0.266
-63.363	-97.264	0.086	0.022
-62.349	136.621	-0.031	0.040
-61.334	63.714	-1.042	-1.030
-60.319	-90.671	0.599	0.170
-59.305	111.778	-0.726	-0.863
-58.290	95.122	0.708	0.794
-57.276	381.602	0.745	1.505
-56.261	-200.000	95.448	586.846
-55.246	660.626	1370.672	3474.169
-54.232	199.757	2542.967	3839.957
-53.217	121.103	2139.711	2620.657
-52.203	44.427	1604.476	1450.090
-51.188	35.865	1342.841	1162.163
-50.173	32.645	1301.354	1107.332
-49.159	54.637	1348.031	1278.934
-48.144	56.869	1364.349	1307.682
-47.130	36.019	1323.596	1146.242
-46.115	32.604	1306.488	1111.283
-45.100	32.426	1301.080	1105.592
-44.086	32.313	1299.058	1103.167
-43.071	32.144	1296.915	1100.313
-42.057	32.235	1294.453	1098.714
-41.042	32.299	1292.791	1097.634
-40.027	32.249	1291.279	1096.015
-39.013	32.357	1289.320	1094.939
-37.998	32.238	1287.746	1092.865
-36.984	32.330	1285.734	1091.651
-35.969	32.459	1283.866	1090.764
-34.954	32.463	1282.425	1089.521
-33.940	32.418	1281.153	1088.136
-32.925	32.560	1279.862	1087.819
-31.911	32.451	1278.250	1085.776
-30.896	32.453	1276.882	1084.580
-29.881	32.475	1275.434	1083.437
-28.867	32.473	1274.246	1082.370
-27.852	32.493	1272.429	1080.903
-26.838	32.503	1270.757	1079.498
-25.823	32.448	1269.934	1078.436
-24.809	32.481	1268.456	1077.328
-23.794	32.521	1267.556	1076.753
-22.779	32.439	1265.908	1074.839
-21.765	32.484	1264.440	1073.811
-20.750	32.362	1263.901	1072.612
-19.736	32.365	1262.147	1071.096
-18.721	32.237	1261.030	1069.381
-17.706	32.276	1259.954	1068.644
-16.692	32.373	1258.228	1067.689
-15.677	32.362	1257.499	1066.967
-14.663	32.382	1256.565	1066.245
-13.648	32.290	1255.410	1064.703
-12.633	32.267	1254.498	1063.757
-11.619	32.370	1253.567	1063.506
-10.604	32.339	1252.617	1062.483
-9.590	32.242	1251.961	1061.335
-8.575	32.320	1250.884	1060.819
-7.560	32.207	1249.968	1059.369
-6.546	32.248	1249.256	1058.954
-5.531	32.301	1247.916	1058.074
-4.517	32.371	1247.174	1057.797
-3.502	32.379	1246.426	1057.162
-2.487	32.339	1245.381	1056.008
-1.473	32.313	1241.772	1052.762
-0.458	30.921	1226.709	1032.245
0.556	26.422	1209.549	995.348
1.571	22.724	1214.988	979.247
2.586	21.679	1230.037	985.414
3.600	21.065	1219.506	973.466
4.615	16.100	1147.958	890.129
5.629	8.232	1074.506	794.080
6.644	4.719	1055.091	762.470
7.659	4.563	1052.710	759.921
8.673	4.646	1051.580	759.443
9.688	4.602	1050.418	758.320
10.702	4.703	1048.545	757.393
11.717	9.013	1055.040	783.091
12.731	16.260	1064.462	825.582
13.746	18.945	1067.047	840.658
14.761	18.187	1065.846	835.937
15.775	17.106	1063.797	828.982
16.790	16.109	1061.661	822.382
17.804	15.335	1059.991	817.247
18.819	14.965	1059.493	814.988
19.834	14.838	1058.043	813.183
20.848	14.606	1057.269	811.386
21.863	14.430	1056.262	809.688
22.877	14.301	1055.436	808.353
23.892	14.268	1054.931	807.739
24.907	14.223	1054.283	806.950
25.921	14.290	1053.191	806.371
26.936	14.222	1052.001	805.060
27.950	14.274	1050.536	804.115
28.965	14.388	1048.967	803.394
29.980	14.471	1047.364	802.493
30.994	14.655	1046.193	802.409
32.009	14.641	1045.568	801.796
33.023	14.492	1044.447	800.148
34.038	14.427	1043.157	798.778
35.053	14.440	1042.464	798.237
36.067	14.354	1041.358	796.908
37.082	14.312	1040.912	796.297
38.096	14.452	1040.098	796.275
39.111	14.545	1039.098	795.880
40.126	14.262	1038.354	793.889
41.140	14.237	1036.718	792.449
42.155	14.043	1036.162	791.031
43.169	14.058	1034.733	789.943
44.184	14.107	1033.585	789.228
45.199	14.070	1032.652	788.271
46.213	14.211	1031.604	788.071
47.228	14.151	1031.072	787.308
48.242	14.399	1029.506	787.217
49.257	14.287	1029.025	786.252
50.271	14.309	1027.909	785.430
51.286	14.298	1027.115	784.704
52.301	14.310	1026.180	783.976
53.315	14.251	1024.898	782.652
54.330	14.335	1023.886	782.203
55.344	14.126	1022.987	780.468
56.359	14.133	1022.694	780.207
57.374	14.145	1021.879	779.571
58.388	14.150	1020.510	778.483
59.403	14.095	1019.771	777.589
60.417	14.083	1019.426	777.202
61.432	14.065	1018.530	776.367
62.447	14.075	1017.286	775.398
63.461	14.025	1016.391	774.415
64.476	14.012	1015.743	773.793
65.490	13.832	1015.236	772.498
66.505	14.064	1014.204	772.724
67.520	14.144	1013.133	772.212
68.534	14.088	1012.385	771.313
69.549	14.070	1011.540	770.518
70.563	13.928	1011.492	769.753
71.578	13.901	1010.305	768.659
72.593	13.763	1009.627	767.437
73.607	13.810	1009.267	767.311
74.622	13.980	1008.409	767.377
75.636	14.037	1007.356	766.771
76.651	13.977	1007.161	766.278
77.666	13.943	1006.377	765.454
78.680	13.975	1005.772	765.074
79.695	13.965	1005.437	764.706
80.709	14.212	1004.602	765.140
81.724	14.012	1004.280	763.907
82.739	14.239	1003.490	764.281
83.753	14.274	1002.782	763.834
84.768	14.532	1001.416	763.908
85.782	14.573	1001.136	763.814
86.797	14.526	1000.133	762.768
87.812	14.296	999.190	760.933
88.826	14.347	998.336	760.447
89.841	14.393	997.339	759.827
90.855	14.411	996.361	759.096
91.870	14.458	995.822	758.834
92.884	14.532	995.233	758.656
93.899	14.509	993.810	757.399
94.914	14.541	993.658	757.362
95.928	14.459	992.936	756.370
96.943	14.538	991.606	755.648
97.957	14.445	991.084	754.765
98.972	14.337	990.438	753.717
99.987	14.471	988.967	753.138
101.001	14.393	988.617	752.450
102.016	14.440	987.659	751.865
103.030	14.427	986.864	751.135
104.045	14.445	986.083	750.557
105.060	14.409	985.092	749.572
106.074	14.399	983.794	748.476
107.089	14.202	982.975	746.903
108.103	14.234	982.038	746.265
109.118	14.191	980.695	744.987
110.133	14.223	980.017	744.550
111.147	14.111	979.213	743.374
112.162	14.115	978.465	742.755
113.176	14.405	977.690	743.395
114.191	14.321	976.803	742.282
115.206	14.151	976.588	741.298
116.220	14.250	975.519	740.858
117.235	14.209	974.484	739.827
118.249	14.313	973.087	739.163
119.264	14.241	972.824	738.575
120.279	14.091	972.273	737.427
121.293	14.175	971.766	737.349
122.308	14.129	970.303	735.971
123.322	14.109	969.309	735.064
124.337	14.118	967.732	733.842
125.352	14.068	967.403	733.307
126.366	14.114	966.234	732.562
127.381	14.140	965.374	731.957
128.395	14.057	964.563	730.914
129.410	14.312	963.506	731.166
130.424	14.140	962.737	729.765
131.439	14.194	961.933	729.328
132.454	14.304	961.358	729.309
133.468	14.220	960.669	728.354
134.483	14.390	959.980	728.508
135.497	14.245	959.032	727.091
136.512	14.259	957.880	726.214
137.527	14.313	957.014	725.732
138.541	14.232	956.656	725.041
139.556	14.318	955.740	724.656
140.570	14.458	955.307	724.875
141.585	14.607	954.313	724.704
142.600	14.613	953.472	724.025
143.614	14.653	952.450	723.361
144.629	14.514	952.195	722.501
145.643	14.561	950.954	721.696
146.658	14.470	950.001	720.518
147.673	14.440	949.199	719.714
148.687	14.291	948.691	718.624
149.702	14.382	947.675	718.182
150.716	14.259	946.589	716.766
151.731	14.428	945.847	716.870
152.746	14.499	945.198	716.618
153.760	14.461	944.956	716.209
154.775	14.518	943.962	715.634
155.789	14.527	943.511	715.270
156.804	14.637	942.431	714.859
157.819	14.600	942.530	714.713
158.833	14.676	941.566	714.244
159.848	14.752	940.510	713.704
160.862	14.649	939.349	712.318
161.877	14.541	938.445	711.112
162.892	14.428	937.448	709.809
163.906	14.503	936.665	709.473
164.921	14.512	936.085	709.009
165.935	14.510	934.975	708.098
166.950	14.575	934.291	707.793
167.964	14.558	933.402	706.986
168.979	14.612	932.384	706.379
169.994	14.532	931.591	705.380
171.008	14.612	931.201	705.361
172.023	14.844	930.412	705.681
173.037	14.752	929.988	704.907
174.052	14.717	929.148	704.060
175.067	14.485	928.618	702.618
176.081	14.468	928.210	702.177
177.096	14.647	927.307	702.186
178.110	14.647	926.465	701.485
179.125	14.521	926.203	700.693
180.140	14.644	925.618	700.706
181.154	14.603	925.543	700.416
182.169	14.875	924.153	700.440
183.183	14.870	923.997	700.239
184.198	14.932	922.871	699.586
185.213	14.811	922.745	698.920
186.227	14.882	922.132	698.690
187.242	14.885	921.441	698.119
188.256	14.947	920.868	697.881
189.271	14.991	919.884	697.258
190.286	14.685	919.160	695.371
191.300	14.563	918.431	694.250
192.315	14.333	918.207	693.064
193.329	14.550	917.479	693.355
194.344	14.594	916.750	692.926
195.359	14.813	915.670	692.958
196.373	14.854	915.352	692.826
197.388	14.926	915.038	692.822
198.402	15.025	914.608	692.844
199.417	15.092	913.768	692.428
200.432	15.288	913.175	692.725
201.446	15.185	912.685	691.866
202.461	15.300	912.173	691.891
203.475	15.117	911.765	690.768
204.490	15.124	910.957	690.124
205.504	14.958	910.116	688.739
206.519	14.997	909.555	688.417
207.534	14.884	908.914	687.405
208.548	14.949	908.409	687.229
209.563	15.134	907.297	687.086
210.577	15.016	906.927	686.263
211.592	15.172	906.071	686.192
212.607	15.248	905.297	685.856
213.621	15.097	905.157	685.071
214.636	15.100	904.310	684.384
215.650	15.299	903.220	684.308
216.665	15.289	902.947	684.000
217.680	15.317	902.247	683.525
218.694	15.296	901.396	682.735
219.709	15.261	900.646	681.964
220.723	15.250	900.510	681.755
221.738	15.411	899.768	681.787
222.753	15.343	898.909	680.801
223.767	15.353	898.343	680.350
224.782	15.400	898.034	680.249
225.796	15.322	897.713	679.626
226.811	15.337	896.676	678.844
227.826	15.280	896.015	678.053
228.840	15.307	894.969	677.311
229.855	15.404	894.449	677.248
230.869	15.327	893.299	676.009
231.884	15.195	893.154	675.305
232.899	15.320	892.434	675.203
233.913	15.226	891.545	674.096
234.928	15.260	890.927	673.706
235.942	15.238	890.654	673.347
236.957	15.402	889.646	673.184
237.972	15.338	889.008	672.387
238.986	15.365	888.935	672.378
240.001	15.253	887.878	671.072
241.015	15.365	887.333	671.050
242.030	15.466	886.962	671.115
243.045	15.483	886.077	670.453
244.059	15.440	885.778	669.996
245.074	15.527	884.986	669.686
246.088	15.468	884.564	669.072
247.103	15.635	883.903	669.176
248.117	15.686	883.304	668.867
249.132	15.806	883.040	669.082
250.147	15.970	882.455	669.233
251.161	15.970	881.761	668.650
252.176	15.923	881.105	667.907
253.190	15.898	880.225	667.081
254.205	15.949	879.860	666.947
255.220	15.869	879.278	666.130
256.234	15.835	878.911	665.656
257.249	16.064	877.684	665.575
258.263	15.994	877.053	664.759
259.278	16.027	876.573	664.469
260.293	16.138	875.952	664.377
261.307	16.077	875.582	663.798
262.322	16.116	874.789	663.290
263.336	16.040	874.258	662.530
264.351	16.127	873.162	661.980
265.366	16.149	872.856	661.778
266.380	16.070	872.017	660.773
267.395	16.105	871.100	660.158
268.409	16.204	870.440	659.988
269.424	16.252	869.643	659.511
270.439	16.123	869.020	658.477
271.453	16.036	868.360	657.580
272.468	16.115	868.216	657.721
273.482	16.018	867.427	656.685
274.497	16.177	866.625	656.640
275.512	16.205	866.320	656.457
276.526	16.244	865.924	656.251
277.541	15.981	865.516	654.865
278.555	16.283	864.613	655.295
279.570	16.442	863.816	655.249
280.585	16.329	863.409	654.446
281.599	16.171	862.742	653.269
282.614	16.166	861.807	652.485
283.628	16.312	861.165	652.506
284.643	16.358	860.318	651.982
285.657	16.387	860.058	651.837
286.672	16.185	859.401	650.503
287.687	16.286	859.246	650.719
288.701	16.239	858.637	650.020
289.716	16.411	857.836	650.019
290.730	16.459	857.522	649.907
291.745	16.463	856.628	649.187
292.760	16.403	856.362	648.698
293.774	16.505	855.518	648.392
294.789	16.526	854.827	647.891
295.803	16.533	853.709	647.015
296.818	16.360	853.492	646.130
297.833	16.579	852.464	646.130
298.847	16.463	852.422	645.598
299.862	16.404	852.068	645.047
300.876	16.483	851.643	644.972
301.891	16.587	851.047	644.861
302.906	16.650	850.155	644.365
303.920	16.724	849.777	644.303
304.935	16.788	849.545	644.313
305.949	16.721	848.748	643.399
306.964	16.775	848.019	642.993
307.979	16.705	847.700	642.428
308.993	16.832	846.891	642.242
310.008	16.813	846.247	641.623
311.022	16.759	845.705	640.950
312.037	16.746	845.154	640.427
313.052	16.651	844.651	639.630
314.066	16.587	843.875	638.747
315.081	16.647	843.065	638.304
316.095	16.664	842.645	637.993
317.110	16.548	842.156	637.130
318.125	16.612	842.052	637.236
319.139	16.696	841.526	637.095
320.154	16.777	841.044	636.978
321.168	16.634	840.671	636.104
322.183	16.818	839.466	635.825
323.197	16.768	839.250	635.418
324.212	16.769	838.865	635.073
325.227	16.789	838.026	634.457
326.241	16.771	837.475	633.916
327.256	16.741	837.038	633.416
328.270	16.676	836.617	632.801
329.285	16.696	835.707	632.130
330.300	16.732	835.244	631.858
331.314	16.771	835.139	631.870
332.329	16.842	834.571	631.648
333.343	16.988	833.992	631.699
334.358	16.979	833.789	631.456
335.373	17.065	832.929	631.065
336.387	17.021	832.489	630.515
337.402	16.977	832.660	630.423
338.416	17.131	832.089	630.506
339.431	17.108	832.175	630.432
340.446	17.259	831.423	630.365
341.460	17.303	830.688	629.916
342.475	17.115	830.805	629.254
343.489	17.206	830.326	629.173
344.504	17.275	830.064	629.174
345.519	17.342	829.419	628.875
346.533	17.474	828.692	628.755
347.548	17.228	827.996	627.265
348.562	17.149	827.521	626.559
349.577	17.057	827.019	625.782
350.592	17.058	826.217	625.124
351.606	17.077	825.510	624.603
352.621	17.173	824.994	624.511
353.635	17.373	824.294	624.659
354.650	17.329	823.423	623.786
355.665	17.298	823.493	623.671
356.679	17.320	822.748	623.132
357.694	17.407	822.113	622.914
358.708	17.429	821.544	622.506
359.723	17.386	820.956	621.849
360.738	17.305	820.206	620.931
361.752	17.357	819.365	620.428
362.767	17.484	819.257	620.755
363.781	17.467	818.917	620.379
364.796	17.543	818.399	620.210
365.810	17.710	818.022	620.476
366.825	17.723	817.655	620.190
367.840	17.661	817.252	619.603
368.854	17.592	816.739	618.909
369.869	17.454	816.868	618.453
370.883	17.567	815.838	618.028
371.898	17.634	815.557	618.001
372.913	17.789	814.928	618.032
373.927	17.576	814.721	617.050
374.942	17.715	814.000	616.952
375.956	17.674	814.175	616.884
376.971	17.746	813.612	616.661
377.986	17.682	812.903	615.837
379.000	17.997	812.040	616.266
380.015	17.818	811.868	615.437
381.029	17.704	811.839	614.948
382.044	17.911	810.717	614.788
383.059	17.998	809.895	614.424
384.073	17.928	809.516	613.832
385.088	17.790	808.761	612.708
386.102	17.683	808.607	612.154
387.117	17.869	807.563	611.975
388.132	17.798	807.077	611.298
389.146	17.774	806.703	610.874
390.161	17.898	806.317	610.972
391.175	17.980	805.451	610.557
392.190	17.850	804.935	609.646
393.205	17.864	804.574	609.370
394.219	17.816	804.489	609.079
395.234	17.787	804.225	608.721
396.248	17.770	803.493	608.055
397.263	17.854	802.849	607.810
398.278	17.824	802.547	607.421
399.292	17.751	802.545	607.106
400.307	17.780	801.822	606.611
401.321	17.820	801.521	606.469
402.336	17.813	801.004	606.001
403.350	17.981	800.061	605.828
404.365	18.198	799.716	606.285
405.380	18.074	799.705	605.781
406.394	18.033	798.998	605.047
407.409	18.229	798.761	605.507
408.423	18.265	798.135	605.108
409.438	18.200	798.187	604.863
410.453	18.208	797.737	604.499
411.467	18.312	797.306	604.485
412.482	18.422	796.553	604.247
413.496	18.429	796.370	604.079
414.511	18.413	796.117	603.780
415.526	18.515	795.434	603.566
416.540	18.375	794.908	602.622
417.555	18.409	794.474	602.360
418.569	18.436	794.188	602.185
419.584	18.369	793.926	601.698
420.599	18.537	793.451	601.873
421.613	155.928	1370.852	1792.706
422.628	134.959	1454.987	1792.801
