DTS Sentinel unit serial number:	SN413079Multiplexer serial number:	ORYXHardware model number:	OX4-SRSoftware version number:	ORYX F/W v4.00 Oryx Data Collector v3.7.2.0data status	okinstallation	princeton_trtdifferential loss correction	single-endedforward channel	channel 1reverse channel	N/Adate	2019/09/18time	11:22:35forward acquisition time	60.00reverse acquisition time	0.00gamma	496.2192k internal	0.2326k external	0.2326temperature offset calibration	0.9975default loss term (dB/km)	0.3790temperature slope calibration	1.0000multiplexer offset coefficient	1.0000multiplexer slope coefficient	1.0000fibre end	0.00T internal ref (°C)	30.06T ext. ref 1 (°C)	0.42T ext. ref 2 (°C)	27.78length (m)	temperature (°C)	Stokes	anti-Stokes-747.200	-125.759	-0.082	-0.012
-746.185	26.065	0.114	-0.096
-745.171	344.002	-0.112	0.221
-744.156	-95.805	-0.188	-0.051
-743.142	-200.000	-0.019	0.234
-742.127	786.330	0.073	0.201
-741.112	-38.744	0.231	0.123
-740.098	12.483	0.196	-0.153
-739.083	-200.000	-0.006	0.110
-738.069	10.506	0.044	0.034
-737.054	-36.180	-0.193	0.105
-736.039	-8.687	0.196	0.133
-735.025	-200.000	-0.017	0.448
-734.010	-54.999	-0.232	0.105
-732.996	577.737	-0.031	-0.076
-731.981	-200.000	0.075	-0.375
-730.966	423.833	-0.103	-0.223
-729.952	75.796	-0.273	-0.291
-728.937	105.631	0.226	0.270
-727.923	-118.933	-0.336	0.059
-726.908	186.080	-0.066	-0.098
-725.894	-140.006	-0.084	-0.009
-724.879	567.387	-0.063	0.155
-723.864	47.725	-0.170	-0.160
-722.850	-177.795	0.176	-0.004
-721.835	-92.430	-0.206	-0.058
-720.821	56.775	0.051	-0.050
-719.806	-200.000	0.013	-0.318
-718.791	-110.612	-0.348	0.073
-717.777	-41.303	-0.119	-0.062
-716.762	-163.925	0.391	-0.018
-715.748	-9.294	0.193	0.130
-714.733	-200.000	-0.054	0.369
-713.718	-200.000	-0.016	0.202
-712.704	800.000	-0.068	0.209
-711.689	280.404	0.081	0.145
-710.675	195.019	0.113	-0.173
-709.660	784.749	0.224	-0.619
-708.645	385.135	0.189	-0.393
-707.631	-200.000	0.062	0.458
-706.616	-200.000	-0.028	0.160
-705.602	254.667	-0.254	-0.437
-704.587	-123.615	0.105	-0.017
-703.572	-200.000	0.030	-0.286
-702.558	-58.002	0.189	-0.083
-701.543	-200.000	-0.046	-0.265
-700.529	350.358	-0.078	-0.155
-699.514	61.136	-0.075	-0.075
-698.499	-56.742	-0.150	-0.067
-697.485	800.000	-0.092	0.307
-696.470	800.000	0.107	-0.337
-695.456	-91.409	0.248	-0.071
-694.441	-111.058	-0.205	-0.042
-693.426	95.347	-0.345	-0.396
-692.412	-200.000	0.046	-0.450
-691.397	77.201	0.065	-0.070
-690.383	67.851	-0.137	-0.141
-689.368	260.054	-0.074	-0.129
-688.354	-118.001	0.280	-0.050
-687.339	-27.963	-0.176	-0.103
-686.324	-200.000	-0.009	-0.316
-685.310	800.000	0.059	0.253
-684.295	8.496	-0.254	-0.193
-683.281	-3.469	-0.310	-0.217
-682.266	709.593	-0.083	0.222
-681.251	-85.816	0.191	0.060
-680.237	505.216	0.040	0.094
-679.222	-91.973	0.352	-0.100
-678.208	800.000	-0.036	-0.143
-677.193	-53.654	-0.263	0.121
-676.178	-3.865	-0.128	0.089
-675.164	149.308	-0.059	-0.080
-674.149	241.525	0.095	0.160
-673.135	-97.146	0.329	-0.087
-672.120	-2.028	0.026	-0.018
-671.105	-200.000	-0.020	-0.158
-670.091	-200.000	-0.032	-0.211
-669.076	257.859	-0.250	0.433
-668.062	800.000	0.049	-0.146
-667.047	-72.177	-0.198	-0.074
-666.032	68.190	-0.121	0.125
-665.018	253.330	-0.159	-0.274
-664.003	800.000	-0.042	-0.162
-662.989	781.784	0.063	-0.174
-661.974	800.000	-0.062	-0.179
-660.959	-200.000	0.035	0.270
-659.945	-200.000	-0.002	0.208
-658.930	-24.027	-0.094	0.057
-657.916	419.915	0.083	0.179
-656.901	-200.000	-0.010	-0.080
-655.886	800.000	-0.073	-0.298
-654.872	-16.896	-0.416	-0.264
-653.857	-200.000	0.009	0.045
-652.843	-76.496	-0.075	0.027
-651.828	-200.000	0.065	-0.291
-650.814	9.820	-0.180	-0.137
-649.799	107.459	0.199	0.238
-648.784	376.115	-0.103	0.211
-647.770	-88.958	0.202	-0.060
-646.755	-23.559	0.092	-0.055
-645.741	800.000	0.068	-0.299
-644.726	-144.750	-0.080	-0.007
-643.711	-200.000	0.045	-0.318
-642.697	-75.216	-0.426	0.153
-641.682	800.000	0.016	-0.056
-640.668	-200.000	0.000	0.045
-639.653	-200.000	0.013	-0.163
-638.638	147.233	0.160	0.216
-637.624	800.000	-0.051	-0.219
-636.609	-96.561	0.155	-0.041
-635.595	-90.861	-0.132	-0.038
-634.580	800.000	0.061	-0.198
-633.565	289.018	-0.135	-0.247
-632.551	-141.969	-0.572	0.057
-631.536	-101.424	0.249	0.061
-630.522	57.676	-0.271	0.266
-629.507	287.025	0.145	-0.262
-628.492	-200.000	-0.075	0.395
-627.478	467.887	-0.067	-0.150
-626.463	256.009	-0.128	0.220
-625.449	757.841	-0.064	-0.173
-624.434	69.847	0.213	-0.221
-623.419	91.455	-0.253	-0.285
-622.405	123.439	0.195	0.246
-621.390	800.000	0.011	0.030
-620.376	800.000	0.057	0.236
-619.361	-200.000	-0.022	-0.251
-618.346	79.642	-0.063	0.068
-617.332	-200.000	-0.025	-0.120
-616.317	-107.761	0.083	-0.018
-615.303	174.551	-0.093	-0.135
-614.288	-127.852	-0.046	-0.007
-613.273	-200.000	-0.004	0.024
-612.259	-200.000	0.006	-0.247
-611.244	220.027	0.157	0.252
-610.230	-200.000	-0.038	-0.400
-609.215	-3.712	-0.136	0.095
-608.201	-90.950	0.185	-0.053
-607.186	597.133	-0.104	0.258
-606.171	50.308	-0.283	-0.268
-605.157	103.724	0.353	-0.416
-604.142	800.000	0.054	0.235
-603.128	-42.982	0.156	0.080
-602.113	39.223	0.138	0.124
-601.098	60.377	-0.159	0.157
-600.084	-200.000	0.066	0.422
-599.069	118.850	-0.159	0.198
-598.055	144.472	-0.114	-0.152
-597.040	800.000	-0.008	-0.028
-596.025	-200.000	0.000	-0.138
-595.011	329.676	0.139	0.269
-593.996	139.852	0.051	0.068
-592.982	800.000	-0.052	-0.188
-591.967	222.661	-0.084	0.136
-590.952	-83.992	0.067	-0.021
-589.938	268.066	0.162	-0.284
-588.923	61.056	-0.158	-0.157
-587.909	-197.587	0.071	-0.000
-586.894	-200.000	-0.037	-0.203
-585.879	-75.002	-0.050	0.018
-584.865	599.964	0.184	0.459
-583.850	-32.249	-0.067	0.038
-582.836	-200.000	0.013	-0.308
-581.821	-130.893	-0.494	0.066
-580.806	91.078	-0.383	-0.431
-579.792	-200.000	0.037	0.206
-578.777	800.000	0.045	0.164
-577.763	-24.625	0.218	0.130
-576.748	-47.710	-0.346	-0.168
-575.733	-200.000	-0.004	-0.049
-574.719	338.304	0.025	0.048
-573.704	122.016	-0.096	-0.120
-572.690	-120.278	-0.159	-0.027
-571.675	-200.000	-0.023	-0.543
-570.661	-200.000	0.027	-0.144
-569.646	-200.000	-0.002	0.355
-568.631	660.617	-0.152	0.391
-567.617	800.000	0.051	-0.181
-566.602	-7.408	0.144	-0.098
-565.588	-51.656	-0.252	0.118
-564.573	19.148	-0.186	0.150
-563.558	172.551	0.198	0.286
-562.544	267.081	-0.177	-0.309
-561.529	90.853	0.103	-0.115
-560.515	-71.049	0.209	-0.079
-559.500	-119.502	0.188	0.033
-558.485	-95.225	0.182	-0.049
-557.471	-92.005	-0.128	-0.036
-556.456	300.429	-0.098	0.180
-555.442	-200.000	-0.023	-0.162
-554.427	-172.108	0.175	0.006
-553.412	800.000	0.038	-0.110
-552.398	647.167	-0.037	0.095
-551.383	2.594	-0.219	0.159
-550.369	129.389	0.046	0.058
-549.354	361.111	0.163	-0.328
-548.339	489.487	0.058	-0.133
-547.325	-13.387	0.024	-0.015
-546.310	-200.000	-0.000	-0.260
-545.296	-83.929	-0.064	-0.020
-544.281	54.082	-0.352	0.339
-543.266	-106.746	0.057	0.013
-542.252	62.195	0.037	-0.037
-541.237	-200.000	-0.022	-0.142
-540.223	4.873	0.111	-0.082
-539.208	-200.000	0.030	-0.153
-538.193	102.390	-0.075	0.087
-537.179	234.803	0.222	-0.366
-536.164	-70.118	0.199	-0.076
-535.150	207.892	-0.085	0.134
-534.135	-84.805	0.273	0.086
-533.121	-200.000	-0.011	0.121
-532.106	-114.975	-0.193	0.037
-531.091	100.623	0.160	0.186
-530.077	-23.842	0.113	0.068
-529.062	672.827	-0.051	-0.133
-528.048	56.873	-0.074	0.072
-527.033	-3.360	-0.295	0.205
-526.018	-87.771	0.263	-0.079
-525.004	-35.139	-0.432	0.235
-523.989	-97.210	0.441	0.115
-522.975	422.730	0.039	0.084
-521.960	278.912	-0.029	-0.051
-520.945	-200.000	0.015	-0.214
-519.931	4.124	-0.004	0.003
-518.916	87.446	0.202	-0.223
-517.902	35.908	-0.098	0.086
-516.887	-45.731	0.275	-0.136
-515.872	194.974	0.292	-0.443
-514.858	6.334	-0.216	-0.160
-513.843	-26.589	-0.199	0.117
-512.829	-200.000	0.029	-0.256
-511.814	-69.025	-0.229	0.088
-510.799	-112.274	0.414	-0.083
-509.785	-46.954	-0.595	0.291
-508.770	-146.558	0.140	0.012
-507.756	-200.000	-0.025	-0.165
-506.741	-79.666	0.557	0.188
-505.726	167.194	0.247	-0.351
-504.712	65.408	0.144	-0.145
-503.697	-138.411	0.135	0.015
-502.683	-22.332	0.032	0.020
-501.668	-99.754	0.028	-0.007
-500.653	-200.000	-0.043	0.294
-499.639	-156.363	0.265	-0.017
-498.624	-122.117	0.251	0.041
-497.610	28.896	0.140	-0.118
-496.595	1.004	-0.426	-0.305
-495.581	-79.294	-0.132	-0.045
-494.566	800.000	-0.079	0.241
-493.551	244.329	-0.069	0.115
-492.537	-200.000	0.024	0.278
-491.522	-97.955	-0.270	0.069
-490.508	-80.314	-0.112	0.038
-489.493	-51.522	0.159	0.074
-488.478	-32.486	-0.335	-0.186
-487.464	61.201	-0.111	-0.110
-486.449	-21.192	-0.238	-0.145
-485.435	-98.352	0.133	0.034
-484.420	-108.789	-0.210	0.045
-483.405	12.210	-0.162	0.125
-482.391	106.566	0.117	0.139
-481.376	-95.118	-0.243	-0.066
-480.362	-200.000	-0.004	-0.203
-479.347	-200.000	0.055	0.263
-478.332	-187.325	-0.142	-0.002
-477.318	86.464	0.320	0.352
-476.303	75.762	0.170	0.179
-475.289	-200.000	0.115	-0.508
-474.274	-200.000	0.027	0.136
-473.259	-98.165	-0.195	0.050
-472.245	101.026	-0.242	0.281
-471.230	-200.000	-0.004	-0.085
-470.216	-17.068	-0.064	0.040
-469.201	800.000	0.034	0.118
-468.186	-165.054	-0.057	-0.003
-467.172	-200.000	0.002	-0.252
-466.157	-173.259	-0.395	-0.012
-465.143	53.340	0.143	0.137
-464.128	45.897	0.127	0.117
-463.113	36.686	-0.169	-0.149
-462.099	212.906	0.011	-0.017
-461.084	-200.000	-0.008	-0.315
-460.070	-200.000	-0.010	0.255
-459.055	452.144	-0.100	0.221
-458.040	161.172	-0.092	0.128
-457.026	-200.000	0.016	-0.162
-456.011	-200.000	0.034	-0.150
-454.997	-0.086	-0.233	0.166
-453.982	35.974	0.093	0.082
-452.968	-200.000	-0.000	-0.047
-451.953	69.797	0.262	-0.269
-450.938	13.094	-0.286	-0.220
-449.924	-136.420	0.328	0.038
-448.909	-146.451	-0.198	-0.017
-447.895	-133.425	-0.362	0.045
-446.880	-200.000	0.012	0.060
-445.865	468.580	-0.111	0.247
-444.851	-12.997	0.583	0.378
-443.836	-176.386	-0.092	0.002
-442.822	-171.709	-0.167	-0.005
-441.807	32.419	0.108	-0.093
-440.792	38.774	-0.144	0.128
-439.778	86.791	0.276	-0.304
-438.763	126.841	-0.240	-0.303
-437.749	67.629	-0.016	-0.017
-436.734	117.945	0.077	0.094
-435.719	-62.819	-0.150	-0.062
-434.705	-107.841	0.171	-0.037
-433.690	-154.547	0.158	-0.011
-432.676	-200.000	0.065	0.334
-431.661	800.000	-0.043	0.136
-430.646	-134.955	-0.185	0.022
-429.632	-114.973	0.277	0.053
-428.617	39.783	0.075	-0.067
-427.603	-43.977	0.245	-0.123
-426.588	121.727	0.087	0.108
-425.573	41.321	0.069	0.062
-424.559	-200.000	-0.057	0.445
-423.544	-200.000	-0.059	-0.335
-422.530	-95.890	-0.206	-0.055
-421.515	-104.495	-0.139	-0.032
-420.500	-15.139	0.130	-0.083
-419.486	-120.354	0.105	-0.018
-418.471	87.968	-0.154	-0.170
-417.457	-200.000	0.017	0.184
-416.442	357.103	0.111	-0.220
-415.428	262.196	-0.145	-0.251
-414.413	-200.000	-0.009	-0.087
-413.398	-200.000	-0.027	-0.228
-412.384	-0.034	0.204	0.144
-411.369	28.398	0.330	0.278
-410.355	-5.017	-0.139	-0.095
-409.340	466.291	0.090	0.201
-408.325	-30.349	0.253	0.143
-407.311	-164.514	0.282	0.013
-406.296	-200.000	0.014	-0.119
-405.282	52.728	0.233	-0.221
-404.267	346.858	0.048	0.095
-403.252	54.846	0.159	-0.153
-402.238	-200.000	-0.024	-0.294
-401.223	800.000	-0.094	-0.361
-400.209	800.000	-0.131	-0.364
-399.194	51.645	-0.110	0.104
-398.179	-40.039	0.412	0.214
-397.165	-200.000	0.004	-0.306
-396.150	-98.952	0.075	-0.019
-395.136	262.525	-0.137	0.237
-394.121	228.785	-0.031	-0.050
-393.106	28.992	-0.141	0.119
-392.092	-200.000	-0.041	-0.193
-391.077	-200.000	-0.007	-0.194
-390.063	-179.880	-0.244	0.005
-389.048	800.000	-0.059	-0.224
-388.033	81.640	-0.223	-0.240
-387.019	-101.265	-0.104	0.025
-386.004	-38.053	0.108	0.057
-384.990	78.027	-0.122	0.130
-383.975	-97.308	-0.210	-0.055
-382.960	-200.000	-0.007	-0.145
-381.946	-15.432	-0.135	-0.086
-380.931	800.000	-0.105	-0.304
-379.917	28.603	-0.141	0.119
-378.902	-134.902	0.181	-0.022
-377.888	-200.000	-0.014	-0.066
-376.873	34.482	0.097	-0.084
-375.858	-200.000	-0.019	0.314
-374.844	-96.142	-0.249	0.066
-373.829	371.779	-0.083	-0.168
-372.815	-122.147	0.267	-0.043
-371.800	534.968	-0.037	-0.087
-370.785	-200.000	0.003	-0.067
-369.771	49.522	-0.113	-0.106
-368.756	-122.395	0.488	0.079
-367.742	-200.000	0.022	-0.111
-366.727	142.831	0.180	0.238
-365.712	-200.000	-0.042	0.183
-364.698	234.280	0.069	0.113
-363.683	509.707	0.054	0.126
-362.669	135.431	0.134	0.174
-361.654	61.550	0.317	0.313
-360.639	-154.194	0.097	-0.007
-359.625	270.129	-0.103	0.181
-358.610	71.458	-0.192	-0.198
-357.596	136.533	0.052	0.067
-356.581	-6.007	-0.186	-0.126
-355.566	-175.263	0.265	-0.007
-354.552	-200.000	-0.026	-0.600
-353.537	-23.063	-0.317	0.190
-352.523	-61.766	-0.052	0.022
-351.508	800.000	0.096	0.270
-350.493	800.000	-0.042	-0.162
-349.479	201.263	-0.134	0.205
-348.464	129.660	-0.129	0.163
-347.450	800.000	-0.108	-0.400
-346.435	105.417	-0.138	-0.162
-345.420	122.235	-0.218	-0.271
-344.406	-92.838	0.555	-0.154
-343.391	-45.769	-0.338	-0.166
-342.377	190.171	0.051	0.076
-341.362	-56.244	-0.290	-0.128
-340.348	-200.000	0.048	-0.263
-339.333	187.065	-0.114	-0.169
-338.318	-62.050	0.086	-0.036
-337.304	-129.613	0.038	-0.005
-336.289	-29.167	0.231	-0.132
-335.275	-108.277	0.180	-0.039
-334.260	-46.423	0.089	0.043
-333.245	-200.000	0.002	0.167
-332.231	-200.000	-0.005	0.080
-331.216	177.179	-0.165	0.238
-330.202	209.137	-0.214	0.333
-329.187	95.309	-0.196	-0.221
-328.172	-76.226	0.101	0.035
-327.158	-190.091	-0.431	0.005
-326.143	71.687	0.042	-0.043
-325.129	-108.344	-0.252	0.054
-324.114	-200.000	0.037	-0.271
-323.099	-147.717	0.373	0.031
-322.085	108.179	0.183	0.216
-321.070	-200.000	-0.043	-0.325
-320.056	-70.318	-0.121	-0.046
-319.041	173.602	0.081	0.116
-318.026	238.530	-0.120	0.197
-317.012	8.759	-0.111	0.083
-315.997	-128.350	-0.159	-0.022
-314.983	672.568	-0.061	0.157
-313.968	-200.000	0.010	0.054
-312.953	800.000	-0.092	-0.353
-311.939	161.678	-0.165	-0.229
-310.924	800.000	0.056	0.167
-309.910	-21.456	-0.127	-0.077
-308.895	14.827	0.091	0.070
-307.880	-68.523	-0.338	0.130
-306.866	800.000	0.127	0.435
-305.851	71.105	0.318	0.327
-304.837	92.820	0.212	0.237
-303.822	209.831	-0.136	0.212
-302.807	-105.830	0.170	0.038
-301.793	339.638	-0.106	-0.205
-300.778	171.109	0.097	0.138
-299.764	800.000	0.124	0.392
-298.749	800.000	-0.055	-0.192
-297.735	-40.997	-0.475	0.243
-296.720	140.139	0.150	0.196
-295.705	-165.170	0.173	0.008
-294.691	-43.053	-0.055	-0.028
-293.676	-53.452	0.055	-0.025
-292.662	63.422	0.009	-0.009
-291.647	276.162	0.077	-0.136
-290.632	-100.286	-0.164	-0.040
-289.618	-83.601	0.043	-0.013
-288.603	-75.360	0.154	-0.055
-287.589	-200.000	-0.025	0.348
-286.574	800.000	-0.071	0.266
-285.559	238.849	0.105	0.173
-284.545	295.383	0.058	0.104
-283.530	800.000	0.124	0.364
-282.516	800.000	0.033	0.092
-281.501	-23.702	-0.132	0.078
-280.486	62.237	0.144	0.142
-279.472	-97.211	-0.128	-0.033
-278.457	550.801	0.074	0.176
-277.443	-52.445	-0.369	-0.169
-276.428	139.528	-0.222	-0.290
-275.413	-76.155	-0.210	-0.073
-274.399	208.611	0.129	0.200
-273.384	70.312	0.172	0.176
-272.370	-200.000	-0.056	-0.266
-271.355	-71.728	0.195	0.072
-270.340	85.558	-0.137	0.149
-269.326	800.000	-0.082	-0.303
-268.311	202.907	0.050	-0.076
-267.297	-10.924	-0.271	-0.177
-266.282	68.388	0.158	-0.160
-265.267	454.982	-0.057	-0.124
-264.253	-97.261	0.208	0.054
-263.238	-14.584	0.074	-0.047
-262.224	715.189	0.095	0.250
-261.209	-200.000	0.008	0.160
-260.195	-33.520	-0.186	0.102
-259.180	54.534	-0.274	0.261
-258.165	-200.000	0.032	0.425
-257.151	800.000	-0.014	-0.055
-256.136	-70.796	0.020	-0.008
-255.122	-33.470	0.241	-0.132
-254.107	35.741	0.041	0.036
-253.092	-200.000	0.032	-0.404
-252.078	33.289	-0.073	-0.063
-251.063	96.085	0.046	0.053
-250.049	744.736	-0.072	-0.193
-249.034	84.331	-0.247	0.267
-248.019	116.745	-0.184	0.223
-247.005	-1.719	0.099	0.069
-245.990	-155.725	-0.175	-0.011
-244.976	1.062	0.124	0.088
-243.961	-200.000	0.029	0.201
-242.946	334.748	0.140	0.268
-241.932	-168.435	-0.161	0.006
-240.917	694.492	-0.105	0.274
-239.903	263.103	0.031	0.054
-238.888	-200.000	0.015	-0.256
-237.873	-119.103	0.243	0.042
-236.859	-200.000	-0.013	0.061
-235.844	-67.256	0.210	0.082
-234.830	-162.978	-0.043	-0.002
-233.815	-54.555	-0.190	-0.085
-232.800	800.000	-0.051	-0.206
-231.786	-118.966	0.062	-0.011
-230.771	179.472	0.102	0.147
-229.757	-47.933	-0.198	0.095
-228.742	800.000	0.037	0.157
-227.727	-76.579	0.236	0.082
-226.713	56.007	0.219	-0.210
-225.698	31.698	0.188	-0.160
-224.684	307.560	0.058	0.106
-223.669	205.686	0.102	-0.156
-222.655	-50.325	0.198	0.093
-221.640	311.564	0.093	0.173
-220.625	315.674	0.100	-0.186
-219.611	-176.719	-0.029	-0.001
-218.596	5.598	-0.321	-0.234
-217.582	213.464	0.036	-0.056
-216.567	33.142	0.251	-0.215
-215.552	604.652	0.071	-0.176
-214.538	11.611	-0.086	0.065
-213.523	-162.136	0.162	0.008
-212.509	-200.000	0.046	0.271
-211.494	207.631	-0.117	0.181
-210.479	-89.673	-0.276	-0.080
-209.465	33.801	-0.081	0.070
-208.450	-95.662	-0.368	0.097
-207.436	195.620	-0.081	0.121
-206.421	800.000	0.104	0.343
-205.406	99.471	0.292	-0.333
-204.392	800.000	-0.082	-0.228
-203.377	-72.595	-0.098	0.036
-202.363	166.174	0.126	-0.176
-201.348	-4.543	0.341	-0.233
-200.333	16.145	0.108	0.084
-199.319	-200.000	-0.062	0.293
-198.304	-159.349	0.201	-0.011
-197.290	16.395	0.316	0.246
-196.275	156.243	-0.072	-0.098
-195.260	800.000	0.068	0.196
-194.246	86.896	-0.199	-0.217
-193.231	94.363	0.074	-0.083
-192.217	102.665	-0.148	0.171
-191.202	353.862	0.111	-0.217
-190.187	165.883	-0.195	0.272
-189.173	580.017	0.090	0.218
-188.158	33.787	0.260	-0.223
-187.144	-10.986	0.419	-0.273
-186.129	-65.468	-0.242	-0.096
-185.114	34.328	0.301	0.259
-184.100	-200.000	0.059	0.279
-183.085	-66.952	0.145	-0.056
-182.071	800.000	0.024	0.067
-181.056	166.172	-0.255	0.356
-180.042	-200.000	0.005	0.033
-179.027	-200.000	-0.001	0.031
-178.012	251.442	-0.183	-0.307
-176.998	-12.781	0.153	-0.099
-175.983	-39.504	-0.140	-0.072
-174.969	310.052	-0.140	-0.259
-173.954	-200.000	-0.060	0.267
-172.939	-95.718	0.209	-0.055
-171.925	-12.983	-0.065	0.042
-170.910	488.368	0.074	-0.167
-169.896	-14.479	0.113	0.072
-168.881	13.495	-0.208	0.159
-167.866	79.081	0.231	-0.244
-166.852	212.438	-0.258	0.402
-165.837	-14.870	-0.059	0.038
-164.823	800.000	0.060	0.215
-163.808	785.263	-0.065	-0.174
-162.793	-200.000	0.020	-0.163
-161.779	273.419	0.139	-0.243
-160.764	-102.694	-0.212	0.050
-159.750	-75.977	0.378	0.132
-158.735	-34.379	-0.125	0.068
-157.720	-200.000	-0.001	0.156
-156.706	-86.626	0.230	-0.070
-155.691	109.173	-0.093	-0.110
-154.677	-61.592	-0.195	-0.081
-153.662	-200.000	0.008	-0.139
-152.647	83.529	0.041	-0.044
-151.633	17.226	0.190	0.148
-150.618	473.851	0.076	0.170
-149.604	353.615	-0.195	-0.381
-148.589	-200.000	0.014	-0.072
-147.574	-26.184	0.112	-0.065
-146.560	-200.000	0.019	0.114
-145.545	-156.268	0.062	0.004
-144.531	-37.114	-0.096	0.050
-143.516	73.361	-0.234	-0.241
-142.502	-85.946	0.334	0.102
-141.487	217.101	0.171	0.268
-140.472	360.255	-0.131	0.257
-139.458	-95.459	0.297	-0.078
-138.443	-77.062	0.101	0.035
-137.429	800.000	0.050	-0.144
-136.414	-19.886	0.221	-0.134
-135.399	-200.000	-0.003	0.329
-134.385	81.151	-0.086	-0.092
-133.370	-172.972	0.210	0.006
-132.356	122.491	0.199	-0.245
-131.341	459.769	0.023	0.050
-130.326	-6.332	-0.205	0.138
-129.312	-200.000	-0.005	0.030
-128.297	-200.000	-0.029	0.271
-127.283	-142.518	0.207	-0.020
-126.268	-27.084	-0.095	-0.054
-125.253	-200.000	0.002	-0.192
-124.239	-160.588	-0.324	-0.017
-123.224	146.443	0.082	-0.108
-122.210	-84.017	0.232	-0.073
-121.195	-60.956	-0.200	-0.083
-120.180	-116.002	0.100	-0.018
-119.166	107.752	0.144	-0.169
-118.151	-147.336	-0.266	-0.022
-117.137	-24.972	0.363	-0.212
-116.122	91.303	0.328	-0.362
-115.107	515.472	-0.115	0.264
-114.093	-40.051	0.257	-0.132
-113.078	-103.986	0.080	-0.018
-112.064	156.522	-0.059	-0.080
-111.049	59.825	0.209	-0.204
-110.034	31.275	-0.153	0.129
-109.020	-75.465	0.319	-0.112
-108.005	-200.000	0.006	-0.034
-106.991	84.203	-0.041	-0.044
-105.976	-200.000	-0.028	0.207
-104.962	-115.720	-0.136	0.025
-103.947	-200.000	0.031	-0.227
-102.932	-64.774	-0.330	0.131
-101.918	-12.094	-0.134	-0.086
-100.903	-109.062	-0.081	-0.017
-99.889	-200.000	-0.027	-0.137
-98.874	-118.262	-0.156	-0.027
-97.859	-76.331	-0.211	0.073
-96.845	93.864	0.067	0.075
-95.830	-171.651	-0.188	0.006
-94.816	-51.507	0.113	-0.052
-93.801	691.584	0.064	0.166
-92.786	283.516	0.018	-0.032
-91.772	-200.000	-0.032	-0.360
-90.757	110.925	-0.082	-0.097
-89.743	-60.248	0.146	-0.061
-88.728	172.493	0.167	0.236
-87.713	309.980	-0.132	-0.243
-86.699	55.018	0.398	0.378
-85.684	1.683	0.149	0.105
-84.670	800.000	-0.076	-0.270
-83.655	591.886	0.100	0.242
-82.640	-113.609	0.289	-0.055
-81.626	35.743	0.212	-0.183
-80.611	-56.782	0.286	-0.124
-79.597	800.000	0.037	-0.144
-78.582	6.887	0.200	-0.146
-77.567	-126.752	-0.270	-0.039
-76.553	-113.604	0.381	-0.073
-75.538	19.744	0.170	0.134
-74.524	-200.000	-0.028	0.285
-73.509	120.720	-0.247	0.301
-72.494	-200.000	0.013	-0.150
-71.480	-33.409	-0.138	-0.075
-70.465	317.676	0.140	0.260
-69.451	92.714	-0.229	0.254
-68.436	-79.379	-0.286	0.095
-67.422	-200.000	0.010	0.340
-66.407	-200.000	-0.010	0.398
-65.392	-113.288	-0.130	0.025
-64.378	-200.000	0.005	-0.185
-63.363	-20.035	0.385	-0.233
-62.349	-88.021	0.344	-0.102
-61.334	16.264	-1.013	-0.785
-60.319	-28.660	0.699	0.395
-59.305	-200.000	0.049	-0.890
-58.290	189.052	0.692	1.018
-57.276	784.666	0.606	1.632
-56.261	-200.000	101.371	566.703
-55.246	461.195	1456.361	3188.195
-54.232	147.410	2659.997	3517.073
-53.217	107.939	2189.639	2562.011
-52.203	42.019	1625.230	1448.196
-51.188	33.532	1356.557	1157.209
-50.173	30.329	1314.037	1101.911
-49.159	53.745	1364.640	1286.490
-48.144	54.558	1381.732	1307.467
-47.130	33.723	1338.413	1142.699
-46.115	30.322	1319.569	1106.335
-45.100	29.962	1315.399	1100.654
-44.086	29.983	1312.704	1098.478
-43.071	29.884	1310.851	1096.298
-42.057	30.023	1308.151	1094.819
-41.042	29.985	1306.169	1092.892
-40.027	30.087	1304.787	1092.297
-39.013	30.049	1303.313	1090.792
-37.998	30.036	1301.349	1089.029
-36.984	30.068	1299.835	1087.909
-35.969	30.123	1297.808	1086.490
-34.954	30.015	1296.608	1084.810
-33.940	30.082	1295.267	1084.037
-32.925	30.050	1293.792	1082.574
-31.911	30.088	1292.292	1081.498
-30.896	30.225	1290.134	1080.448
-29.881	30.144	1289.461	1079.365
-28.867	30.231	1287.680	1078.341
-27.852	30.230	1285.937	1076.831
-26.838	30.188	1284.648	1075.466
-25.823	30.250	1283.670	1074.964
-24.809	30.184	1282.102	1073.225
-23.794	30.239	1280.566	1072.219
-22.779	30.175	1279.393	1070.823
-21.765	30.069	1278.601	1069.502
-20.750	30.237	1276.682	1068.826
-19.736	30.052	1275.553	1066.773
-18.721	29.894	1275.232	1065.551
-17.706	30.003	1273.755	1064.903
-16.692	30.021	1272.338	1063.778
-15.677	29.960	1271.344	1062.556
-14.663	29.994	1269.906	1061.510
-13.648	30.039	1268.995	1060.961
-12.633	30.063	1267.760	1060.022
-11.619	29.922	1267.286	1058.779
-10.604	30.008	1266.032	1058.183
-9.590	29.943	1264.843	1056.772
-8.575	29.942	1263.642	1055.722
-7.560	29.994	1262.986	1055.429
-6.546	29.875	1262.415	1054.233
-5.531	29.948	1261.174	1053.570
-4.517	30.014	1260.154	1053.053
-3.502	29.985	1259.808	1052.554
-2.487	30.093	1258.565	1052.085
-1.473	30.098	1254.585	1048.746
-0.458	29.176	1240.823	1032.036
0.556	24.773	1224.764	998.253
1.571	21.192	1231.881	983.823
2.586	20.200	1246.125	989.453
3.600	19.371	1234.039	975.086
4.615	14.096	1159.718	888.175
5.629	5.126	1082.323	783.936
6.644	0.759	1061.975	747.575
7.659	0.380	1060.093	744.310
8.673	0.193	1059.353	742.805
9.688	0.349	1057.801	742.418
10.702	0.480	1055.954	741.701
11.717	5.721	1063.274	772.666
12.731	14.022	1073.720	821.365
13.746	17.288	1076.351	839.460
14.761	16.992	1075.863	837.544
15.775	16.164	1073.957	831.906
16.790	15.275	1071.813	825.792
17.804	14.515	1070.697	821.117
18.819	14.123	1069.062	817.864
19.834	13.790	1068.662	815.849
20.848	13.483	1067.734	813.559
21.863	13.320	1066.663	811.874
22.877	13.203	1065.885	810.635
23.892	13.039	1065.673	809.598
24.907	13.159	1064.748	809.409
25.921	13.092	1064.038	808.470
26.936	13.215	1063.024	808.234
27.950	13.141	1061.993	807.015
28.965	13.349	1060.968	807.182
29.980	13.411	1059.410	806.224
30.994	13.319	1058.594	805.085
32.009	13.543	1057.765	805.472
33.023	13.495	1056.240	804.009
34.038	13.367	1055.263	802.572
35.053	13.294	1055.143	802.056
36.067	13.419	1053.927	801.664
37.082	13.417	1052.855	800.767
38.096	13.258	1052.400	799.583
39.111	13.343	1051.478	799.224
40.126	13.265	1050.623	798.123
41.140	13.249	1049.452	797.087
42.155	13.103	1048.559	795.637
43.169	13.157	1046.976	794.625
44.184	13.080	1046.457	793.791
45.199	13.078	1045.553	793.023
46.213	13.171	1044.157	792.343
47.228	13.225	1043.047	791.688
48.242	13.281	1041.799	790.936
49.257	13.302	1040.761	790.180
50.271	13.161	1040.339	789.119
51.286	13.341	1039.267	789.093
52.301	13.242	1038.415	787.904
53.315	13.321	1036.991	787.129
54.330	13.293	1036.268	786.380
55.344	13.187	1035.298	785.070
56.359	13.199	1034.672	784.582
57.374	13.176	1033.628	783.612
58.388	13.144	1032.562	782.580
59.403	13.210	1031.574	782.077
60.417	13.194	1030.796	781.344
61.432	13.123	1030.044	780.369
62.447	13.213	1029.454	780.278
63.461	13.154	1028.771	779.414
64.476	13.157	1027.412	778.328
65.490	13.057	1027.384	777.768
66.505	13.032	1026.622	777.001
67.520	13.201	1025.408	776.811
68.534	13.057	1025.309	775.989
69.549	13.150	1024.481	775.731
70.563	13.143	1023.388	774.800
71.578	13.158	1022.262	773.952
72.593	13.166	1021.786	773.558
73.607	13.019	1021.450	772.546
74.622	13.090	1020.347	771.979
75.636	12.996	1019.812	771.066
76.651	13.098	1018.929	770.804
77.666	13.073	1018.552	770.333
78.680	13.063	1018.201	769.956
79.695	13.216	1016.910	769.622
80.709	13.236	1016.217	769.126
81.724	13.142	1015.884	768.365
82.739	13.190	1015.394	768.151
83.753	13.339	1014.151	767.836
84.768	13.270	1013.584	767.017
85.782	13.387	1012.782	766.884
86.797	13.417	1011.352	765.872
87.812	13.279	1010.503	764.523
88.826	13.353	1009.417	763.977
89.841	13.387	1008.717	763.538
90.855	13.404	1007.561	762.673
91.870	13.338	1007.452	762.218
92.884	13.475	1005.869	761.582
93.899	13.375	1005.588	760.841
94.914	13.331	1004.777	759.958
95.928	13.412	1003.840	759.557
96.943	13.352	1002.800	758.429
97.957	13.346	1002.016	757.739
98.972	13.494	1000.913	757.517
99.987	13.355	1000.191	756.265
101.001	13.297	999.516	755.423
102.016	13.362	998.364	754.784
103.030	13.407	997.680	754.406
104.045	13.282	997.222	753.423
105.060	13.304	996.368	752.808
106.074	13.255	995.620	751.955
107.089	13.207	994.576	750.883
108.103	13.087	993.950	749.798
109.118	13.268	992.439	749.414
110.133	13.302	991.599	748.866
111.147	13.250	991.249	748.299
112.162	13.258	990.134	747.428
113.176	13.226	989.477	746.721
114.191	13.210	988.736	746.024
115.206	13.238	987.729	745.325
116.220	13.242	986.909	744.656
117.235	13.240	986.229	744.070
118.249	13.353	984.953	743.550
119.264	13.310	984.555	742.992
120.279	13.376	983.416	742.359
121.293	13.300	982.755	741.455
122.308	13.325	981.841	740.813
123.322	13.250	980.755	739.591
124.337	13.261	979.787	738.844
125.352	13.287	978.614	738.010
126.366	13.386	977.583	737.610
127.381	13.324	976.503	736.452
128.395	13.174	976.084	735.406
129.410	13.294	975.344	735.317
130.424	13.168	974.482	734.040
131.439	13.407	973.366	734.195
132.454	13.303	972.897	733.318
133.468	13.346	971.937	732.717
134.483	13.294	970.917	731.656
135.497	13.454	970.194	731.751
136.512	13.439	968.996	730.720
137.527	13.430	968.423	730.182
138.541	13.442	967.582	729.537
139.556	13.382	967.037	728.797
140.570	13.367	966.362	728.156
141.585	13.522	965.377	728.031
142.600	13.411	964.352	726.705
143.614	13.450	964.029	726.572
144.629	13.457	963.532	726.161
145.643	13.572	962.024	725.467
146.658	13.446	961.380	724.363
147.673	13.295	960.518	722.990
148.687	13.363	959.987	722.825
149.702	13.444	958.862	722.265
150.716	13.508	958.072	721.888
151.731	13.492	957.391	721.239
152.746	13.609	956.471	720.991
153.760	13.487	955.755	719.859
154.775	13.590	955.537	720.076
155.789	13.571	954.573	719.205
156.804	13.600	953.681	718.593
157.819	13.534	953.335	717.984
158.833	13.607	952.666	717.733
159.848	13.670	951.757	717.258
160.862	13.617	950.983	716.380
161.877	13.556	950.117	715.403
162.892	13.574	948.676	714.333
163.906	13.671	947.765	714.003
164.921	13.598	947.190	713.190
165.935	13.581	946.494	712.530
166.950	13.548	945.528	711.597
167.964	13.589	944.444	710.894
168.979	13.698	943.366	710.489
169.994	13.599	942.708	709.507
171.008	13.697	942.001	709.331
172.023	13.823	940.922	708.993
173.037	13.710	940.925	708.449
174.052	13.813	940.035	708.157
175.067	13.706	939.539	707.262
176.081	13.589	939.041	706.329
177.096	13.670	937.969	705.804
178.110	13.718	937.513	705.604
179.125	13.680	937.028	705.012
180.140	13.741	936.541	704.845
181.154	13.729	936.501	704.699
182.169	13.812	935.475	704.219
183.183	13.982	934.525	704.160
184.198	13.957	934.193	703.741
185.213	13.812	933.274	702.374
186.227	13.824	932.830	702.030
187.242	13.905	932.089	701.751
188.256	13.962	931.593	701.558
189.271	13.882	930.649	700.447
190.286	13.781	930.005	699.473
191.300	13.791	929.226	698.868
192.315	13.802	928.479	698.290
193.329	13.757	927.916	697.617
194.344	13.866	927.366	697.601
195.359	13.812	927.117	697.123
196.373	13.998	925.617	696.715
197.388	14.064	925.539	696.870
198.402	14.068	925.148	696.530
199.417	14.092	924.221	695.871
200.432	14.077	923.714	695.366
201.446	14.073	923.225	694.921
202.461	14.248	922.588	695.109
203.475	14.087	922.624	694.403
204.490	14.173	921.246	693.660
205.504	14.016	920.979	692.746
206.519	14.340	919.776	693.128
207.534	14.017	919.344	691.400
208.548	14.080	918.506	690.966
209.563	14.186	917.705	690.745
210.577	14.074	917.776	690.269
211.592	14.231	916.331	689.775
212.607	14.216	915.856	689.293
213.621	14.286	914.666	688.627
214.636	14.229	914.400	688.132
215.650	14.285	913.514	687.631
216.665	14.258	913.360	687.343
217.680	14.218	912.873	686.754
218.694	14.444	911.397	686.512
219.709	14.290	911.085	685.583
220.723	14.295	910.398	685.025
221.738	14.342	909.421	684.425
222.753	14.345	908.733	683.859
223.767	14.452	908.246	683.871
224.782	14.533	907.885	683.867
225.796	14.477	907.551	683.326
226.811	14.397	906.974	682.504
227.826	14.421	906.090	681.876
228.840	14.515	905.212	681.539
229.855	14.476	904.592	680.855
230.869	14.339	903.984	679.778
231.884	14.379	903.024	679.158
232.899	14.418	902.221	678.651
233.913	14.361	901.666	677.944
234.928	14.494	900.719	677.712
235.942	14.472	900.056	677.063
236.957	14.454	899.810	676.744
237.972	14.497	899.458	676.598
238.986	14.423	898.667	675.639
240.001	14.357	898.093	674.883
241.015	14.419	897.345	674.510
242.030	14.517	896.840	674.468
243.045	14.632	896.099	674.317
244.059	14.478	895.204	672.962
245.074	14.597	894.738	673.032
246.088	14.627	893.717	672.324
247.103	14.595	893.566	672.022
248.117	14.678	893.061	671.916
249.132	14.918	891.781	671.861
250.147	14.886	891.624	671.552
251.161	14.887	891.016	671.039
252.176	14.804	890.426	670.205
253.190	14.873	889.770	669.929
254.205	14.923	888.685	669.249
255.220	14.845	888.623	668.831
256.234	14.870	888.037	668.432
257.249	14.991	887.018	668.088
258.263	15.015	886.303	667.587
259.278	15.002	885.502	666.875
260.293	15.096	885.250	666.998
261.307	15.048	884.664	666.310
262.322	15.048	884.354	666.014
263.336	15.108	883.254	665.366
264.351	15.054	882.383	664.437
265.366	15.206	881.875	664.600
266.380	15.159	881.500	664.072
267.395	15.182	880.536	663.379
268.409	15.216	879.745	662.858
269.424	15.202	879.134	662.283
270.439	15.320	878.588	662.279
271.453	15.198	877.641	661.024
272.468	15.200	877.349	660.752
273.482	15.242	876.876	660.506
274.497	15.293	876.193	660.132
275.512	15.228	875.636	659.398
276.526	15.211	875.221	658.962
277.541	15.427	874.511	659.216
278.555	15.352	873.887	658.395
279.570	15.409	872.933	657.840
280.585	15.460	872.210	657.435
281.599	15.391	871.808	656.807
282.614	15.343	871.131	656.051
283.628	15.341	870.773	655.715
284.643	15.385	869.960	655.218
285.657	15.499	869.038	654.907
286.672	15.408	868.464	654.064
287.687	15.485	867.713	653.741
288.701	15.454	867.640	653.506
289.716	15.415	867.135	652.915
290.730	15.458	866.429	652.495
291.745	15.504	865.793	652.137
292.760	15.498	865.061	651.503
293.774	15.608	864.139	651.178
294.789	15.566	863.622	650.568
295.803	15.525	863.186	650.025
296.818	15.604	862.685	649.895
297.833	15.620	861.672	649.135
298.847	15.582	861.240	648.606
299.862	15.770	860.275	648.546
300.876	15.709	860.096	648.119
301.891	15.635	859.720	647.492
302.906	15.673	859.314	647.277
303.920	15.769	858.469	646.951
304.935	15.799	857.800	646.507
305.949	15.857	857.238	646.247
306.964	15.754	856.938	645.568
307.979	15.794	856.350	645.224
308.993	15.888	855.553	644.925
310.008	15.984	854.995	644.814
311.022	15.922	854.575	644.202
312.037	15.689	854.098	642.896
313.052	15.749	853.630	642.717
314.066	15.827	853.040	642.514
315.081	15.840	852.177	641.855
316.095	15.903	851.487	641.518
317.110	15.920	850.899	641.084
318.125	15.790	850.772	640.435
319.139	15.884	850.131	640.256
320.154	15.767	849.751	639.467
321.168	15.868	849.156	639.348
322.183	16.040	848.232	639.249
323.197	15.893	847.736	638.262
324.212	15.937	847.367	638.093
325.227	16.069	846.521	637.897
326.241	15.899	845.956	636.772
327.256	15.926	845.890	636.768
328.270	15.949	844.980	636.117
329.285	16.037	844.508	636.036
330.300	15.930	844.162	635.316
331.314	15.962	843.473	634.860
332.329	16.241	842.785	635.337
333.343	16.126	842.330	634.507
334.358	16.089	842.106	634.141
335.373	16.112	841.671	633.842
336.387	16.097	841.273	633.430
337.402	16.137	841.029	633.340
338.416	16.292	840.613	633.555
339.431	16.162	840.324	632.793
340.446	16.298	839.709	632.782
341.460	16.339	839.178	632.480
342.475	16.416	839.195	632.727
343.489	16.231	838.874	631.736
344.504	16.342	837.965	631.408
345.519	16.482	837.592	631.598
346.533	16.381	836.942	630.674
347.548	16.341	836.747	630.319
348.562	16.500	835.784	630.132
349.577	16.335	835.822	629.490
350.592	16.295	834.911	628.598
351.606	16.429	833.640	628.084
352.621	16.316	833.429	627.450
353.635	16.269	832.651	626.634
354.650	16.342	832.404	626.665
355.665	16.384	831.382	625.994
356.679	16.618	830.596	626.216
357.694	16.458	830.467	625.469
358.708	16.454	829.804	624.901
359.723	16.575	829.302	624.913
360.738	16.633	828.642	624.575
361.752	16.597	827.856	623.794
362.767	16.590	827.459	623.416
363.781	16.517	826.979	622.731
364.796	16.706	826.631	623.109
365.810	16.557	826.327	622.277
366.825	16.870	825.579	622.808
367.840	16.887	825.055	622.421
368.854	16.593	825.205	621.398
369.869	16.680	824.375	621.037
370.883	16.600	824.110	620.489
371.898	16.755	823.614	620.628
372.913	16.795	823.365	620.531
373.927	16.807	822.692	620.015
374.942	16.980	822.032	620.095
375.956	16.890	821.865	619.584
376.971	17.039	821.262	619.619
377.986	17.022	821.003	619.307
379.000	16.973	820.425	618.638
380.015	17.023	820.101	618.519
381.029	17.074	819.556	618.241
382.044	16.990	818.981	617.446
383.059	16.917	818.269	616.590
384.073	16.995	818.100	616.693
385.088	16.963	817.494	616.063
386.102	17.096	816.810	615.976
387.117	16.957	816.320	615.050
388.132	17.014	815.606	614.662
389.146	17.023	814.911	614.117
390.161	17.161	814.603	614.329
391.175	17.140	814.087	613.809
392.190	16.996	813.671	612.924
393.205	17.030	813.272	612.691
394.219	16.955	813.128	612.257
395.234	16.990	812.337	611.732
396.248	17.024	811.943	611.505
397.263	17.037	811.672	611.294
398.278	16.932	811.311	610.588
399.292	17.093	810.607	610.583
400.307	17.056	810.268	610.144
401.321	17.123	809.663	609.873
402.336	17.162	809.044	609.491
403.350	17.319	808.335	609.467
404.365	17.338	808.091	609.299
405.380	17.343	807.621	608.907
406.394	17.303	807.251	608.431
407.409	17.209	806.952	607.816
408.423	17.433	806.593	608.291
409.438	17.400	806.117	607.764
410.453	17.419	805.724	607.481
411.467	17.481	805.228	607.273
412.482	17.397	804.834	606.622
413.496	17.576	804.152	606.694
414.511	17.503	804.369	606.543
415.526	17.510	803.832	606.109
416.540	17.572	803.064	605.697
417.555	17.528	802.848	605.322
418.569	17.573	802.233	604.966
419.584	17.536	801.699	604.379
420.599	17.653	801.111	604.298
421.613	109.621	1292.664	1469.131
422.628	94.375	1364.279	1469.214
