DTS Sentinel unit serial number:	SN413079Multiplexer serial number:	ORYXHardware model number:	OX4-SRSoftware version number:	ORYX F/W v4.00 Oryx Data Collector v3.7.2.0data status	okinstallation	princeton_trtdifferential loss correction	single-endedforward channel	channel 1reverse channel	N/Adate	2019/09/12time	20:26:35forward acquisition time	60.00reverse acquisition time	0.00gamma	496.2192k internal	0.2323k external	0.2323temperature offset calibration	1.0143default loss term (dB/km)	0.3790temperature slope calibration	1.0000multiplexer offset coefficient	1.0000multiplexer slope coefficient	1.0000fibre end	0.00T internal ref (°C)	31.31T ext. ref 1 (°C)	3.52T ext. ref 2 (°C)	25.87length (m)	temperature (°C)	Stokes	anti-Stokes-747.200	112.158	-0.055	0.067
-746.185	552.257	0.094	-0.229
-745.171	-200.000	0.005	0.033
-744.156	181.666	0.115	0.170
-743.142	-89.749	-0.043	0.013
-742.127	617.045	0.139	0.352
-741.112	-5.951	-0.367	0.254
-740.098	-163.823	-0.315	-0.015
-739.083	60.938	-0.154	-0.154
-738.069	800.000	-0.081	0.241
-737.054	-103.072	-0.217	0.052
-736.039	-192.182	-0.210	0.002
-735.025	-56.498	0.212	-0.095
-734.010	-80.170	-0.182	0.061
-732.996	-200.000	-0.011	-0.194
-731.981	-102.454	-0.250	-0.060
-730.966	-2.946	-0.288	0.203
-729.952	-65.464	0.120	-0.049
-728.937	146.887	-0.218	-0.295
-727.923	-96.813	0.337	0.089
-726.908	438.199	-0.037	-0.081
-725.894	-200.000	0.024	-0.162
-724.879	95.886	-0.052	-0.060
-723.864	-200.000	0.005	0.086
-722.850	-24.449	0.038	-0.023
-721.835	800.000	-0.016	0.045
-720.821	-200.000	0.030	0.183
-719.806	-200.000	-0.053	-0.272
-718.791	-184.673	0.453	-0.007
-717.777	514.331	-0.112	-0.264
-716.762	-19.166	0.232	-0.145
-715.748	-60.454	0.258	0.111
-714.733	-94.402	-0.106	-0.029
-713.718	-85.275	-0.180	-0.057
-712.704	255.163	-0.068	-0.118
-711.689	-200.000	-0.072	-0.326
-710.675	115.521	0.159	-0.196
-709.660	800.000	0.097	-0.271
-708.645	-151.279	0.058	0.004
-707.631	-200.000	-0.017	-0.273
-706.616	-200.000	-0.068	-0.343
-705.602	800.000	0.110	-0.379
-704.587	-102.002	0.194	-0.047
-703.572	-97.384	-0.250	0.066
-702.558	800.000	-0.065	0.186
-701.543	800.000	0.095	0.303
-700.529	-126.277	-0.072	0.011
-699.514	145.904	0.130	0.175
-698.499	-146.583	0.103	-0.009
-697.485	-105.286	-0.210	-0.048
-696.470	-14.160	0.206	-0.134
-695.456	358.315	-0.141	-0.283
-694.441	21.017	-0.109	0.089
-693.426	-34.589	0.090	-0.049
-692.412	-5.905	0.102	0.070
-691.397	-200.000	0.011	-0.068
-690.383	-73.187	-0.183	-0.068
-689.368	263.612	-0.102	-0.178
-688.354	-200.000	0.002	-0.177
-687.339	191.656	0.053	-0.081
-686.324	-164.985	-0.177	-0.008
-685.310	-200.000	-0.007	-0.217
-684.295	87.181	0.156	-0.173
-683.281	-102.431	-0.378	0.091
-682.266	152.184	0.299	0.411
-681.251	-181.482	0.274	-0.005
-680.237	-200.000	0.094	-0.439
-679.222	29.059	0.242	-0.206
-678.208	-200.000	0.038	0.358
-677.193	-17.901	-0.250	0.158
-676.178	237.136	0.128	0.214
-675.164	-86.877	0.293	0.090
-674.149	-200.000	0.012	0.075
-673.135	-102.924	0.245	0.059
-672.120	-27.564	-0.239	-0.140
-671.105	100.922	0.194	-0.227
-670.091	111.303	-0.165	0.201
-669.076	-77.369	-0.031	0.011
-668.062	-64.358	0.187	-0.077
-667.047	236.562	0.190	-0.317
-666.032	83.927	-0.024	0.026
-665.018	-200.000	-0.021	-0.207
-664.003	472.250	-0.061	-0.138
-662.989	-200.000	0.062	0.359
-661.974	174.009	0.201	-0.292
-660.959	59.300	-0.223	0.221
-659.945	455.444	-0.042	-0.094
-658.930	498.035	0.141	-0.327
-657.916	-91.357	-0.153	0.044
-656.901	142.715	0.089	0.119
-655.886	608.221	0.052	0.131
-654.872	62.695	0.154	0.155
-653.857	641.285	-0.039	0.099
-652.843	159.914	0.111	-0.156
-651.828	67.074	-0.151	0.155
-650.814	114.556	-0.304	-0.373
-649.799	800.000	0.102	-0.318
-648.784	-102.078	0.336	-0.081
-647.770	-200.000	0.007	0.298
-646.755	-95.111	0.320	-0.087
-645.741	-63.418	-0.506	-0.209
-644.726	-200.000	-0.003	0.064
-643.711	-200.000	0.000	0.052
-642.697	800.000	-0.062	-0.228
-641.682	35.254	0.296	0.261
-640.668	46.878	0.088	0.082
-639.653	-141.071	0.272	-0.028
-638.638	-63.486	0.450	0.186
-637.624	-17.243	-0.203	0.129
-636.609	326.920	0.072	-0.138
-635.595	121.065	-0.152	-0.191
-634.580	390.842	0.158	0.329
-633.565	342.118	-0.146	0.288
-632.551	-200.000	-0.002	-0.355
-631.536	-12.131	-0.291	-0.191
-630.522	-156.038	-0.087	-0.006
-629.507	-76.902	-0.096	0.034
-628.492	-98.876	0.538	-0.138
-627.478	-200.000	-0.030	-0.253
-626.463	800.000	0.015	0.058
-625.449	-24.295	-0.178	0.107
-624.434	800.000	-0.057	-0.188
-623.419	17.231	-0.109	-0.087
-622.405	-52.414	-0.200	-0.093
-621.390	-200.000	0.061	-0.332
-620.376	-134.288	0.051	0.006
-619.361	-69.666	-0.160	0.062
-618.346	64.237	-0.098	-0.100
-617.332	-84.722	-0.181	-0.057
-616.317	62.374	0.187	-0.188
-615.303	-66.960	-0.115	0.046
-614.288	-151.635	-0.153	0.011
-613.273	216.339	-0.055	0.088
-612.259	-200.000	-0.008	0.113
-611.244	800.000	0.071	0.198
-610.230	88.472	0.045	-0.050
-609.215	522.649	-0.055	0.129
-608.201	695.888	-0.062	-0.163
-607.186	-200.000	0.045	-0.297
-606.171	11.490	0.331	0.255
-605.157	-77.837	-0.197	-0.068
-604.142	13.227	-0.101	-0.079
-603.128	751.678	-0.119	-0.323
-602.113	-73.940	0.092	-0.033
-601.098	-79.625	-0.079	-0.027
-600.084	62.093	0.117	-0.117
-599.069	132.307	0.135	-0.175
-598.055	-200.000	0.025	0.252
-597.040	704.504	-0.041	-0.109
-596.025	-129.324	0.150	-0.021
-595.011	-83.008	-0.203	0.066
-593.996	-36.664	0.058	0.031
-592.982	-42.407	0.091	0.047
-591.967	-72.865	0.122	-0.045
-590.952	101.366	0.113	-0.132
-589.938	186.341	-0.098	-0.146
-588.923	-100.718	-0.252	0.062
-587.909	-79.875	0.141	0.048
-586.894	-50.687	0.147	0.069
-585.879	-19.075	0.153	-0.095
-584.865	229.792	-0.145	-0.238
-583.850	-11.155	0.395	0.261
-582.836	-50.765	0.094	-0.044
-581.821	800.000	-0.040	0.144
-580.806	8.739	0.134	-0.101
-579.792	-3.747	-0.336	-0.234
-578.777	22.108	-0.262	-0.214
-577.763	-127.619	-0.373	-0.054
-576.748	-123.725	-0.216	-0.034
-575.733	800.000	0.121	-0.381
-574.719	-159.539	0.180	-0.010
-573.704	-29.536	-0.332	-0.191
-572.690	-78.600	-0.370	0.127
-571.675	85.619	0.105	0.116
-570.661	99.755	-0.168	-0.195
-569.646	-55.388	-0.233	-0.105
-568.631	-124.553	-0.033	0.005
-567.617	-200.000	-0.056	0.336
-566.602	9.634	0.296	-0.225
-565.588	301.194	-0.139	-0.258
-564.573	33.767	0.070	-0.061
-563.558	-200.000	0.040	0.243
-562.544	784.827	0.063	0.174
-561.529	800.000	-0.116	0.325
-560.515	-200.000	-0.004	0.020
-559.500	52.599	-0.336	0.322
-558.485	-200.000	0.021	-0.128
-557.471	21.799	0.109	0.089
-556.456	9.300	0.102	-0.077
-555.442	61.286	-0.151	0.151
-554.427	29.296	0.087	0.074
-553.412	-133.419	0.177	-0.022
-552.398	241.099	-0.130	0.217
-551.383	-84.783	0.137	0.043
-550.369	800.000	0.012	-0.037
-549.354	347.478	-0.152	0.300
-548.339	-153.241	0.243	-0.017
-547.325	-128.465	-0.461	-0.066
-546.310	424.069	-0.175	-0.376
-545.296	88.133	0.087	0.097
-544.281	-11.338	-0.062	0.041
-543.266	-92.637	-0.310	0.087
-542.252	800.000	-0.039	-0.114
-541.237	-21.369	0.158	-0.097
-540.223	-27.030	0.250	-0.146
-539.208	47.673	-0.092	-0.086
-538.193	22.186	-0.175	0.143
-537.179	-153.655	0.202	0.014
-536.164	168.904	0.039	-0.056
-535.150	54.800	0.097	-0.094
-534.135	-135.072	0.050	-0.006
-533.121	800.000	-0.047	0.135
-532.106	-21.243	0.366	0.224
-531.091	196.053	-0.170	-0.259
-530.077	-165.338	-0.215	0.009
-529.062	7.971	0.265	0.199
-528.048	800.000	0.054	0.155
-527.033	-200.000	-0.039	0.218
-526.018	-75.576	-0.214	0.076
-525.004	-134.358	0.261	0.032
-523.989	465.084	0.030	0.067
-522.975	-112.267	0.455	0.091
-521.960	46.031	-0.091	0.085
-520.945	367.657	0.204	0.412
-519.931	-73.285	0.252	0.092
-518.916	77.644	0.212	-0.226
-517.902	-42.481	-0.243	0.124
-516.887	-149.962	0.177	-0.014
-515.872	4.365	0.060	0.044
-514.858	3.755	-0.055	0.040
-513.843	-127.513	-0.316	0.046
-512.829	267.160	-0.111	-0.194
-511.814	-0.248	0.303	0.216
-510.799	-158.427	0.265	0.015
-509.785	800.000	-0.020	-0.076
-508.770	-3.767	-0.138	0.096
-507.756	-200.000	0.017	-0.087
-506.741	-26.810	0.350	-0.205
-505.726	-100.540	-0.264	-0.065
-504.712	287.972	-0.065	-0.118
-503.697	-200.000	-0.010	0.251
-502.683	204.754	-0.047	-0.073
-501.668	800.000	0.026	0.076
-500.653	-25.642	-0.495	0.292
-499.639	88.240	0.269	0.298
-498.624	207.994	0.201	0.313
-497.610	-190.400	0.292	-0.003
-496.595	800.000	-0.144	-0.399
-495.581	-14.833	-0.137	-0.088
-494.566	17.543	0.028	0.022
-493.551	-94.519	0.030	0.008
-492.537	-136.000	-0.126	0.015
-491.522	800.000	0.080	0.317
-490.508	60.773	-0.057	-0.056
-489.493	-200.000	-0.053	-0.271
-488.478	282.857	-0.115	-0.206
-487.464	419.049	0.046	-0.098
-486.449	-93.619	0.113	0.031
-485.435	94.373	-0.164	0.187
-484.420	40.422	-0.119	-0.107
-483.405	-4.871	0.191	-0.132
-482.391	-12.660	0.258	-0.168
-481.376	800.000	-0.023	-0.093
-480.362	800.000	0.084	-0.304
-479.347	250.392	-0.190	0.322
-478.332	-200.000	0.044	-0.272
-477.318	-43.972	0.186	0.093
-476.303	147.196	-0.097	-0.130
-475.289	157.361	0.062	0.085
-474.274	56.472	-0.227	-0.220
-473.259	233.019	-0.042	-0.068
-472.245	-81.446	-0.378	0.124
-471.230	-195.301	0.148	-0.001
-470.216	188.375	-0.040	-0.060
-469.201	428.941	-0.132	0.285
-468.186	800.000	-0.111	0.362
-467.172	313.717	-0.214	-0.401
-466.157	-6.782	-0.272	0.185
-465.143	154.853	-0.131	0.180
-464.128	800.000	-0.135	0.432
-463.113	0.534	-0.231	0.165
-462.099	72.829	-0.363	-0.379
-461.084	277.040	0.110	-0.195
-460.070	224.847	0.121	0.196
-459.055	49.704	0.195	-0.184
-458.040	-167.022	0.132	-0.005
-457.026	-80.114	-0.186	0.062
-456.011	256.098	-0.156	-0.268
-454.997	-61.497	0.318	0.134
-453.982	800.000	-0.065	-0.210
-452.968	-200.000	-0.015	-0.141
-451.953	-200.000	-0.040	0.193
-450.938	-38.598	-0.125	-0.066
-449.924	-127.923	-0.218	0.031
-448.909	-23.623	0.202	0.121
-447.895	-87.495	0.247	0.075
-446.880	-92.175	-0.210	-0.059
-445.865	800.000	-0.044	0.137
-444.851	-44.249	0.327	-0.164
-443.836	800.000	0.028	-0.100
-442.822	-172.467	0.237	-0.007
-441.807	0.359	-0.122	-0.087
-440.792	40.185	-0.120	0.108
-439.778	-135.467	0.188	0.022
-438.763	-48.906	-0.368	-0.176
-437.749	-32.787	-0.208	0.116
-436.734	-7.673	-0.312	0.210
-435.719	324.292	-0.074	-0.140
-434.705	0.696	-0.309	-0.221
-433.690	91.007	-0.271	0.303
-432.676	-200.000	-0.001	-0.217
-431.661	-152.468	-0.373	0.027
-430.646	-200.000	-0.019	0.132
-429.632	489.466	0.030	0.068
-428.617	-86.015	-0.247	-0.076
-427.603	-78.353	0.083	0.028
-426.588	33.594	-0.164	0.142
-425.573	-200.000	-0.048	0.235
-424.559	96.861	0.016	-0.018
-423.544	800.000	0.070	-0.291
-422.530	7.245	-0.315	-0.235
-421.515	27.174	0.095	-0.079
-420.500	106.930	0.065	0.077
-419.486	228.510	-0.098	0.160
-418.471	-200.000	0.047	0.340
-417.457	316.403	0.180	0.338
-416.442	-200.000	-0.026	0.195
-415.428	-200.000	-0.061	-0.616
-414.413	-200.000	0.043	-0.293
-413.398	-110.790	0.112	0.023
-412.384	133.282	-0.116	-0.149
-411.369	48.045	-0.246	-0.229
-410.355	-67.649	0.077	0.030
-409.340	88.433	-0.078	0.086
-408.325	-165.024	-0.259	-0.012
-407.311	85.012	-0.110	-0.120
-406.296	-4.823	0.170	-0.117
-405.282	-10.214	0.063	0.041
-404.267	19.498	-0.334	-0.268
-403.252	53.765	-0.060	-0.057
-402.238	-110.097	0.274	-0.057
-401.223	-135.967	0.117	0.014
-400.209	18.898	-0.175	-0.139
-399.194	-73.506	0.127	0.046
-398.179	-200.000	-0.016	0.169
-397.165	160.673	0.186	0.258
-396.150	-123.587	-0.076	-0.012
-395.136	-200.000	0.023	0.295
-394.121	114.202	-0.115	-0.139
-393.106	-109.493	-0.241	0.051
-392.092	4.077	0.236	0.172
-391.077	-66.328	-0.122	-0.048
-390.063	-20.684	0.392	0.240
-389.048	-142.306	-0.120	-0.012
-388.033	73.088	0.150	-0.156
-387.019	-200.000	0.063	-0.338
-386.004	-200.000	0.060	0.293
-384.990	487.414	0.101	-0.229
-383.975	442.684	0.147	-0.322
-382.960	85.977	-0.212	-0.233
-381.946	800.000	-0.049	-0.162
-380.931	-56.233	0.201	0.089
-379.917	137.561	0.382	-0.498
-378.902	-59.735	-0.264	0.113
-377.888	9.935	0.084	-0.064
-376.873	171.222	0.116	-0.166
-375.858	117.320	-0.087	-0.107
-374.844	51.473	0.057	-0.054
-373.829	-200.000	0.015	-0.160
-372.815	-23.104	-0.269	0.162
-371.800	-143.842	0.331	0.031
-370.785	800.000	-0.017	-0.056
-369.771	-46.446	0.080	-0.039
-368.756	60.794	-0.067	0.066
-367.742	330.918	-0.135	-0.258
-366.727	162.903	0.024	-0.033
-365.712	-7.119	-0.223	-0.151
-364.698	75.305	0.171	-0.180
-363.683	-147.772	0.161	0.013
-362.669	-117.269	-0.195	-0.035
-361.654	58.359	-0.050	0.049
-360.639	-18.767	0.104	-0.064
-359.625	2.694	0.085	-0.061
-358.610	-200.000	-0.007	-0.040
-357.596	-70.770	-0.341	-0.128
-356.581	-120.455	0.154	0.026
-355.566	277.936	-0.163	-0.288
-354.552	420.210	0.134	-0.286
-353.537	91.252	-0.058	-0.065
-352.523	-120.485	-0.283	-0.048
-351.508	800.000	-0.021	0.094
-350.493	414.435	-0.136	0.288
-349.479	130.884	0.135	-0.172
-348.464	117.646	-0.178	0.218
-347.450	202.288	-0.061	0.093
-346.435	800.000	-0.030	-0.100
-345.420	83.308	0.099	-0.107
-344.406	248.274	-0.074	0.124
-343.391	-200.000	-0.040	-0.213
-342.377	439.695	0.135	0.294
-341.362	551.150	-0.141	0.336
-340.348	-100.699	0.149	0.036
-339.333	800.000	0.050	-0.161
-338.318	39.138	0.163	0.145
-337.304	-109.013	-0.328	-0.069
-336.289	-95.677	0.157	-0.042
-335.275	-68.150	0.321	0.124
-334.260	-52.162	0.134	-0.062
-333.245	-200.000	0.028	0.203
-332.231	10.061	0.393	-0.297
-331.216	-85.488	0.388	-0.120
-330.202	8.788	-0.123	0.092
-329.187	8.062	0.387	0.288
-328.172	204.738	-0.049	0.076
-327.158	-110.677	0.107	-0.022
-326.143	40.921	-0.117	-0.105
-325.129	-14.951	0.242	-0.154
-324.114	88.610	-0.176	-0.195
-323.099	-104.734	-0.404	-0.092
-322.085	693.274	0.065	0.170
-321.070	96.503	0.318	0.362
-320.056	77.498	0.185	-0.196
-319.041	205.240	0.074	-0.114
-318.026	124.283	0.116	0.145
-317.012	-200.000	-0.045	0.320
-315.997	-200.000	0.016	0.149
-314.983	97.867	0.058	-0.066
-313.968	800.000	0.126	-0.459
-312.953	127.683	-0.155	-0.196
-311.939	-158.137	-0.048	0.003
-310.924	-149.255	-0.466	0.037
-309.910	-154.927	0.205	-0.013
-308.895	-185.407	-0.083	0.001
-307.880	52.870	-0.110	-0.104
-306.866	800.000	-0.037	0.108
-305.851	-48.443	-0.151	-0.072
-304.837	276.233	0.081	0.143
-303.822	-26.549	0.122	0.071
-302.807	-7.108	-0.183	0.123
-301.793	231.634	0.132	-0.215
-300.778	-140.839	-0.339	0.035
-299.764	679.175	-0.134	-0.345
-298.749	-200.000	0.014	-0.375
-297.735	153.901	0.069	0.094
-296.720	-49.163	-0.124	-0.059
-295.705	622.478	-0.114	-0.285
-294.691	-96.121	-0.271	-0.071
-293.676	-69.707	-0.268	0.102
-292.662	-59.712	-0.088	0.037
-291.647	-200.000	0.004	-0.218
-290.632	800.000	0.034	0.123
-289.618	-10.590	-0.012	-0.008
-288.603	158.800	0.160	-0.221
-287.589	777.537	0.021	-0.058
-286.574	268.759	0.066	0.114
-285.559	12.495	-0.025	-0.020
-284.545	68.313	0.113	0.115
-283.530	800.000	0.046	0.127
-282.516	-82.241	0.185	0.060
-281.501	152.615	0.173	0.235
-280.486	-54.897	0.256	0.115
-279.472	-41.662	0.175	0.089
-278.457	-160.692	-0.117	0.006
-277.443	-183.576	0.258	0.004
-276.428	-200.000	0.095	0.539
-275.413	87.544	0.022	0.024
-274.399	-67.980	0.545	0.211
-273.384	67.209	-0.200	-0.202
-272.370	23.733	0.123	-0.100
-271.355	-113.055	0.238	0.047
-270.340	-200.000	-0.063	0.282
-269.326	-103.059	-0.110	0.026
-268.311	-200.000	0.002	-0.058
-267.297	-60.088	-0.206	0.087
-266.282	117.909	-0.261	-0.318
-265.267	800.000	-0.057	-0.191
-264.253	-134.736	0.405	-0.049
-263.238	-137.258	0.177	-0.020
-262.224	800.000	0.082	0.233
-261.209	-132.283	0.093	0.012
-260.195	338.505	0.125	0.242
-259.180	-200.000	0.009	0.188
-258.165	70.939	-0.202	0.207
-257.151	-200.000	0.017	0.183
-256.136	65.002	0.317	0.317
-255.122	-200.000	0.072	0.363
-254.107	242.308	-0.018	-0.029
-253.092	50.498	-0.148	0.139
-252.078	-200.000	0.021	-0.161
-251.063	106.504	-0.067	-0.079
-250.049	-200.000	0.093	0.442
-249.034	-37.192	-0.139	-0.074
-248.019	97.015	0.145	0.164
-247.005	800.000	-0.130	0.400
-245.990	106.933	0.246	0.289
-244.976	-79.013	-0.135	-0.045
-243.961	149.427	-0.104	0.139
-242.946	-3.908	-0.172	0.118
-241.932	142.471	0.269	0.353
-240.917	29.284	-0.165	0.139
-239.903	60.913	0.131	0.129
-238.888	-21.733	-0.083	-0.050
-237.873	-55.935	-0.132	0.058
-236.859	-14.832	-0.065	-0.041
-235.844	607.627	0.015	-0.038
-234.830	181.406	-0.231	-0.336
-233.815	800.000	-0.050	-0.169
-232.800	-200.000	0.028	0.359
-231.786	800.000	-0.094	0.286
-230.771	250.328	0.077	0.129
-229.757	-119.498	0.317	-0.054
-228.742	-200.000	0.012	0.133
-227.727	-62.101	0.166	-0.069
-226.713	-79.508	-0.164	0.055
-225.698	32.644	0.069	0.059
-224.684	-200.000	-0.022	0.174
-223.669	11.446	-0.084	-0.064
-222.655	-200.000	0.013	0.094
-221.640	-200.000	-0.020	0.138
-220.625	104.092	0.178	0.207
-219.611	-165.267	0.257	0.011
-218.596	31.749	-0.227	-0.193
-217.582	800.000	-0.031	-0.108
-216.567	-45.575	-0.241	0.118
-215.552	-200.000	-0.025	-0.156
-214.538	711.183	-0.046	-0.121
-213.523	-200.000	0.038	-0.279
-212.509	-20.103	0.275	-0.168
-211.494	-75.258	0.113	-0.040
-210.479	-14.090	0.074	-0.047
-209.465	-31.859	-0.102	-0.056
-208.450	488.613	-0.040	0.090
-207.436	800.000	0.047	-0.152
-206.421	-27.910	0.103	0.059
-205.406	229.925	-0.047	0.077
-204.392	-167.677	-0.069	-0.003
-203.377	614.150	0.132	0.327
-202.363	-200.000	-0.000	0.072
-201.348	-40.449	-0.255	0.131
-200.333	-92.184	-0.240	0.067
-199.319	40.805	-0.122	-0.109
-198.304	-200.000	-0.026	-0.238
-197.290	-141.249	-0.278	0.028
-196.275	273.546	-0.045	0.078
-195.260	-165.428	0.249	-0.011
-194.246	-200.000	0.068	-0.597
-193.231	-200.000	0.013	-0.069
-192.217	293.735	-0.009	-0.017
-191.202	-200.000	-0.010	0.201
-190.187	87.496	-0.233	0.255
-189.173	427.724	0.059	0.126
-188.158	-200.000	0.058	0.317
-187.144	94.908	-0.229	-0.258
-186.129	-75.795	0.183	-0.064
-185.114	-182.199	0.172	-0.003
-184.100	-200.000	0.035	-0.181
-183.085	-31.705	-0.370	0.205
-182.071	-200.000	-0.042	0.362
-181.056	23.289	-0.032	-0.026
-180.042	13.586	0.153	-0.118
-179.027	-107.361	0.252	-0.055
-178.012	-28.864	-0.169	-0.096
-176.998	-110.705	-0.355	-0.072
-175.983	-12.516	-0.240	-0.154
-174.969	-7.536	0.202	-0.135
-173.954	672.598	-0.088	0.226
-172.939	233.701	0.139	-0.226
-171.925	-64.387	0.176	0.071
-170.910	-121.227	0.015	0.002
-169.896	-77.064	0.155	-0.054
-168.881	-57.931	0.307	0.132
-167.866	-68.749	-0.197	0.075
-166.852	-56.762	-0.286	0.125
-165.837	-96.323	-0.106	-0.028
-164.823	-92.482	-0.045	0.013
-163.808	145.911	0.092	0.122
-162.793	-200.000	0.047	0.221
-161.779	-47.155	0.256	-0.123
-160.764	-26.644	0.266	0.154
-159.750	353.396	0.018	0.035
-158.735	-200.000	-0.056	-0.249
-157.720	-133.558	0.509	0.063
-156.706	27.449	0.178	-0.148
-155.691	-51.777	-0.220	-0.101
-154.677	800.000	-0.038	-0.158
-153.662	-39.622	0.318	-0.164
-152.647	-65.091	0.099	-0.040
-151.633	-76.900	0.380	0.131
-150.618	98.972	-0.118	-0.134
-149.604	8.632	0.249	0.185
-148.589	-51.207	-0.292	-0.135
-147.574	-70.352	0.335	-0.126
-146.560	-200.000	-0.011	0.128
-145.545	-55.304	0.222	-0.099
-144.531	419.406	0.029	0.062
-143.516	95.661	-0.139	-0.157
-142.502	-96.797	0.390	-0.101
-141.487	-182.754	0.455	0.008
-140.472	-88.290	-0.050	-0.015
-139.458	-200.000	0.057	-0.268
-138.443	-200.000	0.018	0.243
-137.429	232.324	-0.141	0.229
-136.414	-47.620	-0.194	-0.093
-135.399	-138.992	0.330	-0.035
-134.385	-87.447	-0.130	0.039
-133.370	291.698	-0.145	-0.259
-132.356	9.971	0.182	0.137
-131.341	-200.000	0.000	-0.211
-130.326	-170.579	-0.501	0.017
-129.312	532.711	-0.078	-0.182
-128.297	-75.898	0.235	0.082
-127.283	-127.789	-0.351	-0.050
-126.268	-123.197	-0.213	-0.034
-125.253	-118.395	-0.118	-0.021
-124.239	-74.494	0.161	-0.057
-123.224	-96.439	0.560	-0.146
-122.210	-47.271	0.194	-0.093
-121.195	-107.432	0.116	-0.025
-120.180	-198.211	0.296	-0.002
-119.166	18.758	-0.247	-0.195
-118.151	-110.380	-0.188	0.038
-117.137	-160.033	-0.172	-0.009
-116.122	-19.960	0.078	-0.047
-115.107	-200.000	0.040	-0.187
-114.093	-28.860	0.176	0.100
-113.078	3.131	0.241	0.172
-112.064	277.957	0.177	-0.311
-111.049	-152.053	0.378	-0.027
-110.034	-89.273	-0.052	-0.015
-109.020	59.671	-0.133	-0.130
-108.005	-6.816	-0.425	0.284
-106.991	800.000	0.069	-0.194
-105.976	246.112	0.181	-0.300
-104.962	-99.903	0.075	-0.018
-103.947	26.851	-0.088	0.072
-102.932	-127.352	-0.418	-0.060
-101.918	-200.000	0.025	0.231
-100.903	-57.576	-0.261	-0.113
-99.889	354.528	-0.062	0.121
-98.874	143.647	-0.087	0.114
-97.859	139.453	-0.032	-0.042
-96.845	444.413	-0.103	0.223
-95.830	800.000	-0.080	0.308
-94.816	800.000	0.043	0.123
-93.801	8.796	-0.325	-0.242
-92.786	-152.692	0.169	0.012
-91.772	178.420	0.167	0.239
-90.757	190.714	0.097	0.144
-89.743	-200.000	-0.001	0.210
-88.728	42.381	0.195	-0.174
-87.713	68.270	-0.033	0.034
-86.699	12.140	-0.183	-0.139
-85.684	212.657	-0.237	-0.367
-84.670	422.922	-0.092	0.194
-83.655	-55.931	-0.141	0.062
-82.640	-200.000	0.076	-0.386
-81.626	99.978	0.328	-0.374
-80.611	246.636	-0.086	-0.143
-79.597	-78.412	0.157	0.053
-78.582	-110.363	-0.182	0.037
-77.567	-57.614	0.162	0.070
-76.553	139.236	-0.246	-0.319
-75.538	-200.000	0.052	0.230
-74.524	800.000	0.068	0.281
-73.509	39.084	0.073	-0.064
-72.494	-101.544	0.300	-0.072
-71.480	-83.734	0.108	0.034
-70.465	-79.879	-0.364	0.120
-69.451	68.816	-0.318	0.322
-68.436	-95.462	-0.223	0.059
-67.422	-145.518	0.278	0.025
-66.407	-35.776	0.234	0.125
-65.392	15.761	-0.241	0.187
-64.378	800.000	-0.040	0.129
-63.363	-117.398	-0.089	-0.016
-62.349	341.342	-0.049	0.093
-61.334	85.299	-0.824	-0.889
-60.319	203.110	0.338	0.514
-59.305	800.000	-0.258	-1.042
-58.290	520.104	0.451	1.039
-57.276	428.085	0.703	1.492
-56.261	-200.000	100.039	602.737
-55.246	596.947	1395.261	3397.229
-54.232	195.950	2569.895	3842.779
-53.217	118.235	2127.354	2578.286
-52.203	43.236	1586.283	1423.416
-51.188	34.906	1323.616	1138.350
-50.173	31.632	1282.138	1083.718
-49.159	55.422	1332.358	1267.014
-48.144	56.861	1349.012	1291.279
-47.130	34.956	1305.975	1123.294
-46.115	31.459	1288.380	1087.819
-45.100	31.300	1283.852	1083.029
-44.086	31.308	1280.845	1080.493
-43.071	31.218	1279.106	1078.464
-42.057	31.184	1276.843	1076.321
-41.042	31.223	1275.124	1075.053
-40.027	31.251	1273.712	1073.980
-39.013	31.221	1272.037	1072.354
-37.998	31.260	1270.172	1070.961
-36.984	31.368	1268.328	1069.981
-35.969	31.263	1266.511	1067.805
-34.954	31.502	1264.566	1067.490
-33.940	31.383	1263.932	1066.231
-32.925	31.326	1262.297	1064.484
-31.911	31.390	1261.141	1063.831
-30.896	31.427	1259.310	1062.458
-29.881	31.406	1258.404	1061.529
-28.867	31.562	1256.799	1061.020
-27.852	31.496	1255.230	1059.283
-26.838	31.488	1253.942	1058.108
-25.823	31.470	1252.802	1057.003
-24.809	31.359	1251.372	1055.124
-23.794	31.352	1249.830	1053.744
-22.779	31.423	1248.604	1053.071
-21.765	31.486	1247.532	1052.475
-20.750	31.310	1246.301	1050.409
-19.736	31.293	1244.612	1048.846
-18.721	31.193	1243.640	1047.426
-17.706	31.222	1242.803	1046.839
-16.692	31.404	1241.249	1046.511
-15.677	31.295	1239.921	1044.739
-14.663	31.223	1238.980	1043.501
-13.648	31.238	1238.343	1043.006
-12.633	31.184	1237.457	1041.916
-11.619	31.202	1236.103	1040.839
-10.604	31.160	1235.542	1040.090
-9.590	31.154	1234.266	1038.942
-8.575	31.223	1233.605	1038.729
-7.560	31.131	1233.008	1037.672
-6.546	31.183	1231.744	1036.857
-5.531	31.241	1231.080	1036.577
-4.517	31.249	1230.150	1035.798
-3.502	31.230	1229.319	1034.949
-2.487	31.304	1228.000	1034.212
-1.473	31.205	1223.886	1030.157
-0.458	29.603	1209.589	1009.338
0.556	27.558	1191.672	970.972
1.571	23.684	1196.276	953.870
2.586	22.689	1210.333	959.586
3.600	22.020	1199.240	947.098
4.615	16.638	1128.560	863.804
5.629	7.754	1054.333	764.384
6.644	3.997	1034.748	732.365
7.659	3.496	1032.548	728.379
8.673	3.341	1030.830	726.373
9.688	3.248	1030.115	725.368
10.702	3.808	1028.559	726.838
11.717	9.443	1036.155	758.774
12.731	18.572	1048.755	811.310
13.746	23.435	1054.509	838.760
14.761	24.221	1054.697	842.551
15.775	23.694	1053.610	839.120
16.790	23.170	1052.367	835.581
17.804	22.842	1051.274	833.095
18.819	22.659	1051.063	831.987
19.834	22.698	1050.764	831.865
20.848	22.743	1050.566	831.846
21.863	22.771	1048.843	830.539
22.877	22.688	1048.100	829.486
23.892	22.559	1047.661	828.460
24.907	22.398	1047.174	827.244
25.921	22.348	1046.185	826.156
26.936	22.502	1043.997	825.074
27.950	22.275	1042.982	823.137
28.965	22.335	1041.439	822.126
29.980	22.527	1040.278	822.037
30.994	22.677	1039.356	821.932
32.009	22.608	1038.707	821.024
33.023	22.505	1038.000	819.913
34.038	22.589	1036.679	819.189
35.053	22.341	1036.165	817.559
36.067	22.296	1035.059	816.401
37.082	22.465	1034.011	816.289
38.096	22.557	1033.630	816.343
39.111	22.606	1032.942	815.954
40.126	22.398	1031.472	813.760
41.140	22.005	1030.159	810.833
42.155	21.848	1028.718	808.906
43.169	21.811	1027.382	807.611
44.184	21.693	1026.852	806.580
45.199	21.854	1025.983	806.567
46.213	21.990	1025.033	806.377
47.228	22.399	1024.787	807.988
48.242	22.636	1024.108	808.467
49.257	22.501	1023.407	807.223
50.271	22.695	1022.606	807.410
51.286	22.786	1022.083	807.343
52.301	22.659	1021.057	805.877
53.315	22.638	1020.181	805.021
54.330	22.383	1019.068	802.906
55.344	22.258	1018.050	801.465
56.359	22.254	1016.653	800.275
57.374	22.097	1016.413	799.302
58.388	22.001	1015.311	797.927
59.403	21.819	1014.468	796.368
60.417	21.892	1013.642	795.980
61.432	21.943	1012.656	795.366
62.447	21.786	1012.694	794.616
63.461	21.591	1012.139	793.224
64.476	21.722	1010.541	792.496
65.490	21.561	1009.840	791.148
66.505	21.822	1009.123	791.694
67.520	21.697	1008.918	790.899
68.534	21.625	1007.697	789.549
69.549	21.505	1006.746	788.194
70.563	21.315	1006.410	787.006
71.578	21.094	1004.983	784.827
72.593	21.026	1004.002	783.684
73.607	21.007	1003.691	783.285
74.622	21.268	1003.057	783.893
75.636	21.394	1002.046	783.598
76.651	21.328	1001.706	782.969
77.666	21.410	1001.027	782.736
78.680	21.380	1000.617	782.212
79.695	21.496	999.782	782.006
80.709	21.727	999.488	782.743
81.724	21.732	998.974	782.291
82.739	22.098	997.770	782.911
83.753	22.461	997.796	784.480
84.768	22.765	997.916	785.858
85.782	23.060	997.207	786.541
86.797	22.977	996.021	785.168
87.812	22.749	995.090	783.354
88.826	22.765	994.178	782.635
89.841	22.821	993.385	782.194
90.855	22.949	991.910	781.526
91.870	22.858	991.518	780.747
92.884	22.784	991.020	779.961
93.899	22.813	989.574	778.879
94.914	22.846	988.697	778.268
95.928	22.829	988.050	777.614
96.943	22.494	987.429	775.583
97.957	22.519	986.180	774.641
98.972	22.686	985.553	774.815
99.987	22.758	984.405	774.159
101.001	22.754	983.314	773.215
102.016	22.422	982.923	771.387
103.030	22.786	981.791	772.022
104.045	22.808	981.454	771.782
105.060	22.480	980.875	769.825
106.074	22.520	979.253	768.657
107.089	22.249	977.974	766.408
108.103	22.095	976.793	764.745
109.118	21.755	975.576	762.243
110.133	21.484	974.564	760.207
111.147	21.554	973.797	759.846
112.162	21.636	973.102	759.592
113.176	21.734	972.639	759.592
114.191	21.938	971.509	759.523
115.206	21.932	971.001	759.035
116.220	21.626	970.241	757.050
117.235	21.595	969.739	756.457
118.249	21.567	968.455	755.266
119.264	21.439	967.378	753.808
120.279	21.374	966.391	752.692
121.293	21.200	966.002	751.572
122.308	21.241	964.583	750.581
123.322	21.122	963.594	749.235
124.337	21.118	962.790	748.525
125.352	21.209	961.818	748.094
126.366	21.103	960.849	746.820
127.381	21.481	959.925	747.651
128.395	21.698	959.334	748.051
129.410	21.593	958.726	747.061
130.424	21.790	957.940	747.226
131.439	22.012	957.331	747.630
132.454	21.999	956.744	747.048
133.468	21.928	956.252	746.297
134.483	21.985	954.914	745.426
135.497	22.050	954.294	745.151
136.512	22.107	953.417	744.643
137.527	22.033	953.196	744.090
138.541	22.163	952.100	743.720
139.556	22.185	951.464	743.250
140.570	22.425	951.338	744.104
141.585	22.538	951.189	744.399
142.600	22.828	949.386	744.143
143.614	22.843	949.050	743.877
144.629	23.062	948.298	744.145
145.643	22.776	947.302	742.092
146.658	22.460	945.956	739.647
147.673	22.194	944.773	737.541
148.687	22.199	943.385	736.414
149.702	22.077	942.555	735.190
150.716	21.920	941.662	733.771
151.731	22.151	941.030	734.180
152.746	22.254	940.475	734.111
153.760	22.318	940.029	733.963
154.775	22.526	939.721	734.524
155.789	22.560	938.712	733.813
156.804	22.436	938.294	732.907
157.819	22.397	937.619	732.151
158.833	22.710	936.980	732.890
159.848	22.823	936.334	732.789
160.862	22.613	935.018	730.822
161.877	22.255	933.760	728.292
162.892	22.091	932.284	726.397
163.906	21.780	931.790	724.663
164.921	21.813	930.852	724.007
165.935	21.930	930.142	723.874
166.950	22.206	929.087	724.126
167.964	22.213	928.385	723.541
168.979	21.965	927.704	721.928
169.994	21.955	926.374	720.787
171.008	22.259	925.881	721.586
172.023	22.544	925.511	722.403
173.037	22.681	924.973	722.483
174.052	22.404	923.775	720.350
175.067	22.162	922.602	718.384
176.081	21.856	921.444	716.168
177.096	21.684	921.126	715.156
178.110	21.690	920.439	714.583
179.125	21.820	919.637	714.428
180.140	22.104	919.369	715.312
181.154	22.319	919.725	716.402
182.169	22.546	919.436	717.035
183.183	22.564	919.173	716.840
184.198	22.465	917.826	715.323
185.213	22.347	917.654	714.647
186.227	22.477	916.866	714.499
187.242	22.644	916.512	714.837
188.256	22.949	915.452	715.182
189.271	22.798	914.963	714.123
190.286	22.280	914.372	711.504
191.300	21.889	912.668	708.540
192.315	21.630	911.901	706.834
193.329	21.669	911.490	706.609
194.344	21.899	911.152	707.214
195.359	22.174	910.580	707.813
196.373	22.418	910.307	708.522
197.388	22.499	910.518	708.949
198.402	22.763	910.382	709.841
199.417	23.002	909.953	710.406
200.432	23.234	908.984	710.518
201.446	23.319	908.436	710.366
202.461	23.147	908.537	709.694
203.475	23.011	907.549	708.315
204.490	22.710	906.148	705.955
205.504	22.584	905.356	704.770
206.519	22.473	904.586	703.668
207.534	22.421	904.053	702.981
208.548	22.527	903.788	703.135
209.563	22.520	902.729	702.221
210.577	22.542	902.293	701.909
211.592	23.137	901.603	703.677
212.607	23.260	901.027	703.652
213.621	22.942	900.692	702.066
214.636	22.942	899.653	701.193
215.650	22.822	899.026	700.168
216.665	22.891	898.180	699.722
217.680	23.017	897.846	699.898
218.694	23.089	897.581	699.913
219.709	22.884	896.852	698.474
220.723	22.840	895.635	697.288
221.738	22.559	895.364	695.908
222.753	22.660	894.701	695.727
223.767	22.824	894.308	696.007
224.782	23.061	894.080	696.702
225.796	23.086	893.771	696.501
226.811	23.002	892.566	695.169
227.826	22.479	891.853	692.497
228.840	22.445	890.770	691.459
229.855	22.617	890.393	691.780
230.869	22.456	889.462	690.366
231.884	22.449	889.426	690.250
232.899	22.229	888.773	688.818
233.913	22.276	887.587	688.024
234.928	22.111	886.944	686.819
235.942	22.034	886.323	685.977
236.957	22.021	885.900	685.536
237.972	22.119	885.000	685.163
238.986	22.128	884.611	684.836
240.001	21.948	883.885	683.511
241.015	22.102	883.548	683.790
242.030	22.427	883.229	684.746
243.045	22.517	882.402	684.396
244.059	22.430	882.124	683.781
245.074	22.474	881.802	683.642
246.088	22.618	881.587	683.973
247.103	22.946	880.863	684.623
248.117	23.331	880.791	685.997
249.132	23.627	880.854	687.131
250.147	23.952	880.390	687.966
251.161	24.140	879.608	688.022
252.176	23.941	879.095	686.792
253.190	24.172	878.214	686.931
254.205	23.978	878.099	686.034
255.220	23.717	877.426	684.441
256.234	23.736	876.693	683.883
257.249	23.834	875.574	683.326
258.263	23.632	874.782	681.872
259.278	23.540	874.484	681.224
260.293	23.710	874.269	681.651
261.307	23.891	873.569	681.736
262.322	23.820	873.055	681.004
263.336	23.768	872.114	680.012
264.351	23.762	871.037	679.087
265.366	23.662	870.964	678.589
266.380	23.873	870.396	678.892
267.395	23.822	869.472	677.917
268.409	23.732	868.896	677.066
269.424	23.590	868.299	676.000
270.439	23.575	867.198	675.025
271.453	23.605	866.326	674.400
272.468	23.451	866.172	673.633
273.482	23.564	865.656	673.605
274.497	23.461	864.857	672.531
275.512	23.498	864.179	672.084
276.526	23.658	864.100	672.569
277.541	23.686	863.672	672.285
278.555	23.843	863.675	672.820
279.570	24.080	862.898	673.050
280.585	23.876	862.291	671.748
281.599	23.638	860.966	669.760
282.614	23.467	860.053	668.345
283.628	23.460	859.222	667.613
284.643	23.441	859.318	667.556
285.657	23.526	857.952	666.757
286.672	23.357	858.002	666.101
287.687	23.568	857.292	666.283
288.701	23.493	857.085	665.781
289.716	23.603	856.596	665.756
290.730	23.602	856.010	665.238
291.745	23.504	855.372	664.315
292.760	23.807	854.710	664.877
293.774	24.076	855.093	666.123
294.789	23.996	853.936	664.864
295.803	23.819	852.832	663.285
296.818	23.456	852.177	661.362
297.833	23.424	851.690	660.809
298.847	23.602	850.676	660.624
299.862	23.699	850.499	660.791
300.876	24.031	850.307	661.819
301.891	24.091	849.945	661.701
302.906	24.215	849.664	661.884
303.920	24.357	849.596	662.298
304.935	24.500	848.804	662.154
305.949	24.405	848.133	661.218
306.964	23.776	847.268	658.157
307.979	23.883	846.521	657.915
308.993	23.951	846.155	657.825
310.008	24.251	845.529	658.386
311.022	23.889	845.180	656.718
312.037	23.752	844.229	655.418
313.052	23.490	843.454	653.791
314.066	23.293	842.533	652.296
315.081	23.318	842.129	652.017
316.095	23.427	841.887	652.172
317.110	23.384	841.011	651.278
318.125	23.212	840.319	650.052
319.139	23.175	839.798	649.455
320.154	23.114	839.314	648.803
321.168	23.214	839.257	649.064
322.183	23.499	838.422	649.407
323.197	23.475	838.081	648.998
324.212	23.465	837.332	648.325
325.227	23.423	836.736	647.649
326.241	23.252	836.424	646.728
327.256	23.160	835.907	645.933
328.270	23.167	835.303	645.436
329.285	23.242	834.120	644.738
330.300	23.161	833.579	643.967
331.314	23.151	833.477	643.795
332.329	23.597	833.405	645.305
333.343	23.885	832.853	645.869
334.358	23.795	832.961	645.566
335.373	23.836	832.231	645.094
336.387	23.932	832.467	645.569
337.402	24.034	832.153	645.636
338.416	24.369	831.490	646.278
339.431	24.417	831.497	646.400
340.446	24.570	831.422	646.839
341.460	24.573	830.739	646.263
342.475	24.582	830.993	646.435
343.489	24.777	830.556	646.744
344.504	24.746	829.936	646.092
345.519	24.896	829.496	646.231
346.533	24.644	828.823	644.743
347.548	24.605	827.612	643.602
348.562	24.295	826.934	641.903
349.577	24.101	826.355	640.699
350.592	23.833	825.448	638.975
351.606	24.073	824.297	638.890
352.621	23.885	824.104	638.010
353.635	23.748	823.843	637.259
354.650	23.983	822.720	637.175
355.665	23.939	822.356	636.681
356.679	24.166	821.933	637.107
357.694	24.080	821.566	636.458
358.708	24.073	820.656	635.674
359.723	23.795	820.112	634.203
360.738	24.065	818.969	634.227
361.752	24.290	818.889	634.911
362.767	24.488	818.820	635.506
363.781	24.811	818.397	636.269
364.796	24.839	818.028	636.025
365.810	25.114	817.411	636.465
366.825	25.172	817.258	636.497
367.840	24.807	816.769	634.763
368.854	24.624	815.907	633.390
369.869	24.530	815.499	632.682
370.883	24.511	815.384	632.470
371.898	24.678	815.314	632.952
372.913	24.882	814.439	632.937
373.927	24.590	813.948	631.468
374.942	24.534	813.644	630.978
375.956	24.925	812.902	631.729
376.971	24.924	812.866	631.641
377.986	25.212	812.593	632.389
379.000	25.082	811.699	631.180
380.015	25.022	811.187	630.513
381.029	24.911	810.984	629.907
382.044	25.146	810.230	630.095
383.059	25.269	809.286	629.734
384.073	24.802	808.986	627.809
385.088	24.638	807.715	626.193
386.102	24.301	807.165	624.529
387.117	24.265	806.827	624.085
388.132	24.274	805.747	623.226
389.146	24.373	805.387	623.239
390.161	24.806	805.514	624.794
391.175	25.017	805.023	625.096
392.190	24.657	804.320	623.240
393.205	24.233	803.464	621.045
394.219	24.131	802.741	620.075
395.234	23.946	802.665	619.316
396.248	24.097	802.280	619.489
397.263	24.199	801.373	619.091
398.278	23.982	801.271	618.201
399.292	23.855	800.686	617.254
400.307	23.945	799.685	616.740
401.321	24.077	799.728	617.176
402.336	24.313	799.365	617.660
403.350	24.557	799.196	618.321
404.365	24.941	799.175	619.577
405.380	25.251	799.068	620.512
406.394	25.275	798.690	620.247
407.409	25.418	798.176	620.286
408.423	25.493	797.916	620.287
409.438	25.461	797.789	620.025
410.453	25.472	796.944	619.349
411.467	25.437	796.248	618.635
412.482	25.546	795.936	618.713
413.496	25.554	796.152	618.853
414.511	25.485	795.381	617.962
415.526	25.313	795.012	617.030
416.540	25.329	794.590	616.703
417.555	25.265	793.992	615.964
418.569	25.494	793.304	616.159
419.584	25.301	792.985	615.196
420.599	25.199	792.690	614.562
421.613	162.680	1370.786	1795.766
422.628	141.040	1454.999	1795.851
