DTS Sentinel unit serial number:	SN413079Multiplexer serial number:	ORYXHardware model number:	OX4-SRSoftware version number:	ORYX F/W v4.00 Oryx Data Collector v3.7.2.0data status	okinstallation	princeton_trtdifferential loss correction	single-endedforward channel	channel 1reverse channel	N/Adate	2019/09/11time	06:12:11forward acquisition time	60.00reverse acquisition time	0.00gamma	496.2192k internal	0.2331k external	0.2331temperature offset calibration	0.9924default loss term (dB/km)	0.3790temperature slope calibration	1.0000multiplexer offset coefficient	1.0000multiplexer slope coefficient	1.0000fibre end	0.00T internal ref (°C)	29.50T ext. ref 1 (°C)	-0.23T ext. ref 2 (°C)	23.75length (m)	temperature (°C)	Stokes	anti-Stokes-747.200	293.595	-0.073	0.134
-746.185	-143.619	-0.222	-0.021
-745.171	-56.200	-0.132	0.059
-744.156	-71.896	-0.358	-0.134
-743.142	-132.551	0.286	-0.037
-742.127	-200.000	0.016	-0.333
-741.112	137.259	0.176	-0.231
-740.098	-200.000	-0.039	0.183
-739.083	-129.713	-0.208	0.029
-738.069	61.159	-0.186	0.186
-737.054	114.290	0.071	0.087
-736.039	96.964	-0.294	0.339
-735.025	-66.029	0.439	0.176
-734.010	-200.000	0.006	-0.262
-732.996	-200.000	0.007	-0.448
-731.981	780.131	-0.073	-0.200
-730.966	-59.340	-0.283	-0.122
-729.952	-192.201	-0.245	0.002
-728.937	756.480	-0.158	0.431
-727.923	-103.308	-0.314	0.074
-726.908	-200.000	0.007	0.067
-725.894	-106.689	0.338	0.075
-724.879	55.146	-0.030	-0.029
-723.864	26.350	-0.277	0.233
-722.850	87.439	-0.275	0.306
-721.835	-82.279	-0.142	0.046
-720.821	-66.226	-0.178	-0.071
-719.806	-200.000	0.003	-0.335
-718.791	234.627	0.179	-0.297
-717.777	-118.984	0.126	-0.022
-716.762	-85.772	-0.065	0.020
-715.748	-169.408	0.003	0.000
-714.733	-126.680	-0.320	-0.048
-713.718	272.006	-0.182	-0.323
-712.704	-200.000	0.011	0.123
-711.689	-39.222	0.066	-0.035
-710.675	-52.573	0.227	-0.105
-709.660	-112.062	0.111	0.023
-708.645	-200.000	0.025	-0.227
-707.631	-200.000	-0.043	-0.441
-706.616	-200.000	-0.062	-0.316
-705.602	-200.000	-0.005	-0.392
-704.587	58.472	0.122	-0.120
-703.572	-37.109	-0.086	0.046
-702.558	-200.000	-0.000	0.103
-701.543	-153.925	-0.242	0.017
-700.529	-200.000	-0.030	0.400
-699.514	1.504	-0.204	0.148
-698.499	-200.000	0.043	0.295
-697.485	17.277	0.251	-0.200
-696.470	-54.375	-0.306	-0.139
-695.456	17.150	-0.103	-0.082
-694.441	53.395	0.263	-0.253
-693.426	-33.387	0.159	0.088
-692.412	-200.000	0.022	0.166
-691.397	132.616	-0.447	-0.580
-690.383	-200.000	-0.012	-0.321
-689.368	-48.523	-0.107	-0.052
-688.354	127.554	0.131	0.167
-687.339	-67.233	0.149	0.059
-686.324	-200.000	0.069	0.410
-685.310	149.504	-0.139	-0.189
-684.295	-168.653	0.041	0.002
-683.281	-200.000	-0.062	-0.326
-682.266	-75.192	-0.301	0.108
-681.251	97.002	0.196	0.225
-680.237	-10.449	-0.181	-0.121
-679.222	-176.553	-0.357	-0.009
-678.208	-58.873	0.205	-0.089
-677.193	-65.744	0.281	0.113
-676.178	-200.000	0.016	0.233
-675.164	-200.000	-0.040	-0.336
-674.149	-55.051	0.093	-0.042
-673.135	-64.018	0.028	0.011
-672.120	-4.609	0.293	0.203
-671.105	-200.000	-0.098	0.616
-670.091	430.395	-0.062	-0.135
-669.076	800.000	0.063	-0.221
-668.062	-49.574	0.030	-0.014
-667.047	-53.518	-0.073	-0.034
-666.032	-155.727	-0.202	-0.013
-665.018	-20.981	-0.197	-0.121
-664.003	800.000	0.072	-0.258
-662.989	-86.802	0.185	-0.057
-661.974	-36.892	-0.103	0.055
-660.959	3.034	-0.099	-0.072
-659.945	541.043	-0.048	-0.114
-658.930	800.000	0.072	0.227
-657.916	528.630	-0.127	0.301
-656.901	408.591	-0.215	-0.457
-655.886	43.879	-0.213	-0.196
-654.872	800.000	-0.094	-0.275
-653.857	800.000	-0.216	-0.745
-652.843	-24.604	0.152	-0.091
-651.828	301.888	0.159	0.294
-650.814	-176.506	0.171	0.004
-649.799	-200.000	-0.067	-0.584
-648.784	309.324	-0.107	0.200
-647.770	-200.000	-0.065	-0.386
-646.755	66.550	-0.123	0.125
-645.741	75.426	-0.241	-0.255
-644.726	23.319	0.170	0.140
-643.711	187.930	0.048	-0.073
-642.697	103.303	-0.118	-0.139
-641.682	-200.000	0.004	0.199
-640.668	-200.000	-0.115	-0.516
-639.653	-20.759	-0.312	-0.192
-638.638	280.331	-0.126	-0.226
-637.624	312.100	-0.067	0.126
-636.609	-158.927	0.112	-0.006
-635.595	55.013	-0.151	0.147
-634.580	363.663	0.137	-0.275
-633.565	-200.000	-0.036	0.382
-632.551	635.723	0.091	0.233
-631.536	298.174	-0.017	-0.031
-630.522	800.000	0.011	0.049
-629.507	-45.219	-0.307	-0.153
-628.492	-99.401	-0.177	0.045
-627.478	91.882	0.187	0.211
-626.463	-200.000	0.021	0.183
-625.449	-144.426	-0.349	0.032
-624.434	89.807	0.209	-0.233
-623.419	-19.200	-0.211	-0.131
-622.405	800.000	0.032	0.091
-621.390	800.000	0.108	0.316
-620.376	800.000	-0.023	-0.081
-619.361	-200.000	0.025	0.277
-618.346	607.948	0.016	0.040
-617.332	-200.000	-0.069	-0.378
-616.317	385.501	-0.018	-0.037
-615.303	800.000	-0.051	0.184
-614.288	288.382	0.164	0.298
-613.273	-200.000	-0.028	-0.326
-612.259	334.153	-0.090	0.174
-611.244	110.244	0.241	0.290
-610.230	-171.372	0.114	0.004
-609.215	295.589	-0.039	-0.072
-608.201	2.653	0.490	-0.355
-607.186	8.910	0.139	0.105
-606.171	-102.494	0.495	0.118
-605.157	-200.000	-0.034	0.207
-604.142	800.000	-0.128	0.412
-603.128	108.147	-0.255	-0.304
-602.113	281.044	0.090	0.162
-601.098	72.276	-0.078	0.081
-600.084	100.071	-0.217	0.251
-599.069	800.000	-0.056	-0.189
-598.055	-111.808	-0.300	0.061
-597.040	-200.000	0.005	0.096
-596.025	-19.798	-0.153	-0.094
-595.011	101.197	0.112	0.131
-593.996	800.000	-0.131	-0.415
-592.982	-100.410	0.083	0.021
-591.967	29.618	0.244	-0.207
-590.952	-135.011	-0.284	-0.034
-589.938	22.980	-0.261	0.214
-588.923	445.602	0.075	0.165
-587.909	513.650	-0.102	0.239
-586.894	-200.000	0.003	-0.405
-585.879	-15.538	0.220	-0.141
-584.865	-93.959	-0.308	-0.085
-583.850	-163.072	0.257	0.012
-582.836	69.646	0.207	-0.214
-581.821	-18.709	-0.106	0.066
-580.806	-13.474	0.232	0.150
-579.792	-102.539	-0.256	0.061
-578.777	-158.514	0.179	0.010
-577.763	252.241	-0.048	0.082
-576.748	52.488	0.148	-0.142
-575.733	-88.678	0.339	0.101
-574.719	458.248	0.115	-0.255
-573.704	-200.000	-0.026	-0.330
-572.690	71.487	-0.052	-0.054
-571.675	-167.495	-0.064	-0.003
-570.661	-89.115	0.216	-0.064
-569.646	-200.000	-0.044	0.242
-568.631	57.593	-0.113	0.111
-567.617	-124.821	-0.206	0.032
-566.602	246.928	-0.098	0.165
-565.588	-6.609	0.364	0.248
-564.573	31.385	-0.173	-0.148
-563.558	467.721	-0.119	-0.267
-562.544	78.562	-0.068	-0.073
-561.529	117.535	-0.285	-0.351
-560.515	219.308	0.133	-0.213
-559.500	195.922	-0.117	0.178
-558.485	-200.000	0.027	-0.284
-557.471	7.103	0.137	-0.102
-556.456	-200.000	-0.015	-0.373
-555.442	44.558	-0.220	-0.202
-554.427	-200.000	-0.011	0.413
-553.412	-103.405	0.363	-0.085
-552.398	-112.519	-0.463	0.092
-551.383	12.746	-0.330	0.255
-550.369	91.345	-0.110	0.123
-549.354	363.824	-0.161	-0.322
-548.339	-59.266	-0.361	-0.155
-547.325	-162.164	0.172	-0.009
-546.310	-86.576	-0.346	-0.106
-545.296	-55.789	-0.098	0.044
-544.281	-60.742	-0.192	-0.081
-543.266	41.525	0.098	0.089
-542.252	81.908	0.089	0.096
-541.237	-39.351	0.159	0.083
-540.223	-200.000	-0.008	-0.257
-539.208	-200.000	0.010	-0.301
-538.193	800.000	-0.054	-0.182
-537.179	-200.000	-0.049	0.333
-536.164	333.844	-0.104	-0.200
-535.150	-142.595	-0.349	0.034
-534.135	128.994	0.197	0.251
-533.121	138.445	-0.059	0.078
-532.106	-88.230	0.336	-0.100
-531.091	-137.827	0.253	0.028
-530.077	351.602	-0.181	-0.358
-529.062	800.000	-0.048	-0.163
-528.048	-187.448	0.184	0.002
-527.033	-200.000	-0.014	0.534
-526.018	-200.000	-0.453	0.002
-525.004	-170.302	-0.284	-0.010
-523.989	26.821	-0.049	0.041
-522.975	-38.808	0.083	0.044
-521.960	86.997	0.143	-0.158
-520.945	-200.000	-0.009	0.271
-519.931	800.000	-0.067	-0.206
-518.916	99.292	0.087	0.101
-517.902	7.702	-0.117	-0.087
-516.887	11.123	-0.150	0.114
-515.872	-46.240	-0.138	-0.068
-514.858	-19.552	0.211	0.131
-513.843	274.642	0.027	0.048
-512.829	-47.636	-0.056	0.027
-511.814	-199.583	0.128	-0.001
-510.799	-47.814	-0.110	0.053
-509.785	800.000	-0.042	-0.162
-508.770	-66.038	-0.032	0.013
-507.756	104.096	0.195	0.228
-506.741	800.000	0.066	0.255
-505.726	-75.294	0.224	0.080
-504.712	205.539	-0.183	0.283
-503.697	-101.774	-0.478	0.115
-502.683	-14.162	0.216	-0.139
-501.668	342.452	0.043	0.084
-500.653	-20.654	-0.261	0.160
-499.639	59.643	-0.221	-0.217
-498.624	177.044	-0.116	0.169
-497.610	78.384	0.302	0.322
-496.595	-154.285	0.159	-0.011
-495.581	-41.966	-0.026	-0.013
-494.566	-73.916	0.277	0.100
-493.551	-81.869	0.171	-0.056
-492.537	168.153	-0.115	0.163
-491.522	25.978	0.253	-0.210
-490.508	77.011	-0.089	0.094
-489.493	800.000	0.065	0.254
-488.478	121.001	-0.205	-0.254
-487.464	77.317	-0.167	-0.177
-486.449	-200.000	-0.013	-0.092
-485.435	210.692	0.105	-0.164
-484.420	800.000	-0.020	0.062
-483.405	279.416	-0.047	-0.083
-482.391	21.289	-0.264	-0.214
-481.376	21.111	0.068	0.055
-480.362	250.295	-0.156	-0.264
-479.347	-113.189	0.185	-0.036
-478.332	77.856	-0.167	-0.178
-477.318	70.399	-0.113	0.116
-476.303	-45.909	0.595	-0.293
-475.289	-157.360	0.080	0.005
-474.274	-73.745	-0.036	0.013
-473.259	-78.465	0.202	0.069
-472.245	350.429	0.048	0.094
-471.230	800.000	0.028	0.092
-470.216	531.131	-0.168	-0.396
-469.201	34.604	0.080	0.070
-468.186	4.871	0.137	0.100
-467.172	-166.939	-0.057	0.002
-466.157	157.193	-0.168	0.232
-465.143	-200.000	0.014	-0.134
-464.128	-83.765	-0.219	-0.070
-463.113	321.655	0.109	0.207
-462.099	-200.000	0.037	0.217
-461.084	-200.000	-0.012	0.117
-460.070	-77.236	0.102	-0.035
-459.055	11.004	0.088	-0.067
-458.040	-149.754	-0.222	-0.017
-457.026	123.905	0.284	0.355
-456.011	-10.914	0.429	-0.282
-454.997	-200.000	-0.006	0.039
-453.982	-46.715	-0.280	0.136
-452.968	-11.795	-0.086	0.056
-451.953	-86.730	-0.161	-0.049
-450.938	800.000	0.107	0.363
-449.924	84.645	0.112	0.122
-448.909	73.382	-0.106	0.110
-447.895	-119.669	-0.153	-0.026
-446.880	-48.533	-0.270	0.129
-445.865	71.136	-0.157	0.162
-444.851	-119.318	-0.192	-0.033
-443.836	-115.567	0.024	-0.004
-442.822	-73.524	-0.489	-0.177
-441.807	419.192	0.034	0.071
-440.792	-200.000	-0.052	0.333
-439.778	-200.000	-0.034	0.254
-438.763	-88.124	0.101	-0.030
-437.749	-90.171	0.077	-0.022
-436.734	-200.000	-0.028	0.317
-435.719	18.788	0.183	0.146
-434.705	-46.527	0.152	-0.074
-433.690	234.264	-0.041	-0.068
-432.676	-200.000	0.059	0.545
-431.661	-200.000	-0.000	-0.313
-430.646	726.297	-0.127	-0.338
-429.632	-200.000	-0.006	-0.123
-428.617	493.285	-0.077	-0.177
-427.603	800.000	-0.023	-0.082
-426.588	-200.000	-0.004	0.078
-425.573	19.232	0.125	-0.100
-424.559	-151.877	0.266	0.019
-423.544	-112.745	-0.079	-0.016
-422.530	3.124	-0.180	-0.130
-421.515	19.585	-0.183	0.146
-420.500	800.000	-0.049	0.182
-419.486	12.872	0.197	-0.151
-418.471	-25.622	-0.103	0.060
-417.457	-73.530	0.270	0.098
-416.442	428.815	-0.085	0.182
-415.428	800.000	-0.043	-0.175
-414.413	119.969	-0.154	-0.189
-413.398	10.119	-0.278	-0.210
-412.384	-124.940	0.263	-0.040
-411.369	-36.770	-0.175	0.093
-410.355	30.934	0.152	-0.129
-409.340	-200.000	-0.039	-0.186
-408.325	57.529	-0.210	0.204
-407.311	94.615	-0.189	0.213
-406.296	-59.314	0.148	0.063
-405.282	-14.653	-0.132	0.084
-404.267	-116.896	0.528	0.096
-403.252	-200.000	0.009	-0.412
-402.238	81.755	0.053	0.057
-401.223	144.889	-0.026	-0.035
-400.209	-23.934	-0.178	-0.106
-399.194	-23.544	0.039	-0.023
-398.179	-200.000	0.031	0.260
-397.165	-44.552	-0.109	-0.054
-396.150	193.783	-0.151	-0.227
-395.136	-14.681	-0.049	-0.031
-394.121	-200.000	-0.065	0.338
-393.106	-200.000	-0.004	0.196
-392.092	56.341	0.085	0.082
-391.077	-135.441	-0.269	-0.032
-390.063	-200.000	-0.001	-0.207
-389.048	181.733	-0.033	-0.049
-388.033	-47.311	-0.169	-0.082
-387.019	-200.000	-0.066	0.319
-386.004	213.571	-0.133	0.209
-384.990	-125.033	0.092	-0.014
-383.975	-63.122	0.217	-0.089
-382.960	800.000	-0.078	-0.310
-381.946	148.311	0.047	-0.063
-380.931	800.000	0.028	0.091
-379.917	-90.753	0.165	0.047
-378.902	-200.000	0.039	0.310
-377.888	-143.365	-0.174	0.017
-376.873	-116.847	-0.225	-0.041
-375.858	59.968	-0.035	-0.034
-374.844	337.921	0.089	0.171
-373.829	-86.843	-0.174	0.053
-372.815	170.724	-0.063	-0.089
-371.800	800.000	0.108	-0.340
-370.785	205.811	0.207	-0.320
-369.771	10.432	0.101	0.077
-368.756	184.539	0.129	-0.190
-367.742	-177.141	0.039	0.001
-366.727	271.022	-0.033	-0.057
-365.712	-200.000	0.034	-0.153
-364.698	427.669	0.074	-0.159
-363.683	-82.899	-0.132	0.042
-362.669	-200.000	0.002	0.101
-361.654	525.000	-0.131	0.306
-360.639	-103.666	0.266	-0.062
-359.625	42.384	0.154	0.139
-358.610	-200.000	-0.007	0.222
-357.596	-137.102	0.577	-0.065
-356.581	42.861	-0.183	0.165
-355.566	-200.000	-0.015	0.325
-354.552	-200.000	-0.010	0.124
-353.537	-200.000	-0.016	0.164
-352.523	234.991	-0.178	-0.291
-351.508	-75.849	-0.254	0.089
-350.493	503.461	-0.087	0.198
-349.479	109.345	0.203	0.241
-348.464	-63.575	-0.103	0.042
-347.450	7.363	0.061	-0.045
-346.435	800.000	0.046	0.175
-345.420	737.787	0.036	-0.095
-344.406	150.449	-0.153	-0.206
-343.391	36.407	-0.146	-0.127
-342.377	-105.055	-0.070	-0.016
-341.362	4.209	0.231	-0.168
-340.348	-200.000	0.012	0.056
-339.333	23.144	-0.284	0.231
-338.318	465.695	0.085	-0.190
-337.304	-22.237	0.307	0.185
-336.289	43.693	-0.331	0.300
-335.275	-87.225	-0.251	0.075
-334.260	-200.000	-0.033	0.232
-333.245	-19.223	-0.066	0.041
-332.231	-98.453	0.312	0.079
-331.216	-122.560	0.056	-0.009
-330.202	226.364	0.296	-0.475
-329.187	800.000	0.036	-0.111
-328.172	-200.000	-0.001	0.158
-327.158	-109.275	0.387	0.081
-326.143	-117.937	-0.356	-0.063
-325.129	53.337	0.141	-0.134
-324.114	228.245	0.069	0.111
-323.099	-20.921	0.201	-0.122
-322.085	-200.000	0.022	-0.336
-321.070	64.210	-0.198	-0.197
-320.056	-170.245	0.254	0.009
-319.041	-32.446	-0.178	0.098
-318.026	32.685	0.188	0.161
-317.012	-200.000	0.015	0.159
-315.997	-184.739	0.152	-0.002
-314.983	-162.947	-0.141	0.007
-313.968	145.646	-0.156	-0.207
-312.953	278.109	0.098	-0.173
-311.939	-48.215	0.122	-0.058
-310.924	2.319	0.084	-0.060
-309.910	-71.636	-0.377	0.139
-308.895	-8.331	0.053	0.035
-307.880	-74.010	-0.303	0.109
-306.866	308.185	0.135	-0.250
-305.851	-87.958	0.467	-0.139
-304.837	-200.000	0.054	-0.356
-303.822	800.000	-0.059	-0.209
-302.807	-200.000	0.051	0.256
-301.793	83.234	0.080	-0.087
-300.778	446.050	-0.088	0.191
-299.764	170.765	0.214	-0.303
-298.749	-200.000	-0.095	0.000
-297.735	314.588	-0.079	0.148
-296.720	-69.923	0.125	-0.047
-295.705	42.918	0.323	-0.291
-294.691	-168.673	0.176	0.007
-293.676	-33.580	0.039	0.021
-292.662	-9.429	0.304	-0.201
-291.647	-25.339	-0.491	-0.287
-290.632	-200.000	0.024	-0.407
-289.618	-168.077	0.201	-0.008
-288.603	9.068	-0.211	0.158
-287.589	112.719	0.288	0.344
-286.574	10.545	-0.246	0.186
-285.559	-41.909	-0.198	-0.100
-284.545	-200.000	0.005	0.087
-283.530	-200.000	0.068	0.474
-282.516	104.263	0.155	0.181
-281.501	-200.000	0.033	0.396
-280.486	31.961	-0.120	0.102
-279.472	-7.229	0.226	0.151
-278.457	-200.000	0.017	-0.246
-277.443	30.016	-0.306	-0.258
-276.428	800.000	-0.008	-0.024
-275.413	0.177	0.259	-0.183
-274.399	-168.348	-0.170	0.006
-273.384	-200.000	-0.018	0.112
-272.370	-182.940	0.012	-0.000
-271.355	-98.598	-0.177	0.045
-270.340	-200.000	0.019	0.103
-269.326	184.909	0.091	0.133
-268.311	21.306	-0.134	-0.107
-267.297	-112.404	-0.167	-0.033
-266.282	83.128	0.209	-0.224
-265.267	-200.000	-0.050	-0.434
-264.253	128.243	0.206	0.259
-263.238	-200.000	-0.008	0.055
-262.224	-35.825	-0.140	0.075
-261.209	-191.190	0.076	-0.001
-260.195	-200.000	-0.032	0.205
-259.180	800.000	-0.056	-0.177
-258.165	56.450	0.244	-0.234
-257.151	-56.240	-0.326	-0.143
-256.136	-200.000	-0.013	-0.079
-255.122	288.638	0.064	0.114
-254.107	-12.092	0.304	-0.196
-253.092	500.148	-0.022	-0.050
-252.078	34.850	0.329	-0.284
-251.063	-115.873	0.413	-0.076
-250.049	16.602	0.255	0.199
-249.034	-76.905	0.401	-0.138
-248.019	-184.312	0.407	0.007
-247.005	-164.804	0.284	0.013
-245.990	800.000	0.087	-0.289
-244.976	338.581	0.175	-0.337
-243.961	-45.551	-0.159	0.078
-242.946	-200.000	-0.064	-0.359
-241.932	800.000	-0.052	0.209
-240.917	352.828	0.066	0.128
-239.903	-200.000	0.019	0.288
-238.888	800.000	-0.064	-0.242
-237.873	-30.221	-0.324	0.181
-236.859	-200.000	0.010	-0.096
-235.844	46.361	-0.213	0.195
-234.830	-80.765	-0.189	-0.062
-233.815	-83.459	-0.347	0.110
-232.800	48.141	0.118	0.109
-231.786	-200.000	-0.003	0.158
-230.771	570.422	0.057	0.136
-229.757	90.379	-0.112	-0.123
-228.742	362.128	-0.124	0.244
-227.727	-61.991	-0.073	-0.030
-226.713	-62.358	0.012	-0.005
-225.698	-200.000	0.004	0.077
-224.684	-83.950	-0.119	0.037
-223.669	-26.948	-0.223	0.128
-222.655	-200.000	0.010	-0.066
-221.640	386.801	-0.069	0.140
-220.625	-27.039	-0.214	0.123
-219.611	-100.313	0.461	0.113
-218.596	800.000	-0.102	-0.288
-217.582	34.496	0.059	0.051
-216.567	332.458	0.096	0.182
-215.552	292.553	-0.096	-0.173
-214.538	-111.416	-0.181	0.036
-213.523	-171.395	-0.250	0.008
-212.509	-47.314	0.155	-0.074
-211.494	-66.977	0.122	-0.047
-210.479	103.323	0.397	-0.459
-209.465	225.178	0.077	-0.123
-208.450	-200.000	0.011	0.110
-207.436	12.495	-0.162	-0.123
-206.421	20.399	-0.258	-0.206
-205.406	-117.622	0.257	0.046
-204.392	-152.404	0.150	0.011
-203.377	-139.165	0.083	-0.009
-202.363	421.075	0.100	0.212
-201.348	-54.244	0.210	0.094
-200.333	800.000	-0.040	-0.158
-199.319	-26.851	-0.115	0.066
-198.304	234.257	-0.081	0.131
-197.290	60.974	0.101	0.099
-196.275	391.439	-0.157	0.322
-195.260	-1.699	-0.161	0.112
-194.246	-75.919	0.235	0.082
-193.231	258.620	-0.068	-0.116
-192.217	-96.050	0.118	0.031
-191.202	0.759	-0.088	0.062
-190.187	-145.921	0.088	0.008
-189.173	-200.000	-0.001	0.138
-188.158	135.527	0.030	-0.039
-187.144	-125.601	-0.084	-0.013
-186.129	-136.471	-0.091	0.010
-185.114	-200.000	-0.004	-0.103
-184.100	467.986	0.084	0.185
-183.085	26.636	0.264	0.217
-182.071	226.148	0.067	0.107
-181.056	-140.654	0.005	0.001
-180.042	-61.205	0.374	-0.155
-179.027	-9.825	-0.148	-0.097
-178.012	209.342	0.046	-0.071
-176.998	-48.587	0.364	-0.172
-175.983	372.568	0.085	0.169
-174.969	46.360	-0.169	-0.154
-173.954	800.000	0.129	0.352
-172.939	393.264	-0.037	-0.077
-171.925	331.711	-0.081	0.154
-170.910	-200.000	-0.025	-0.262
-169.896	-44.923	-0.175	0.086
-168.881	-150.745	0.169	-0.013
-167.866	104.596	0.122	0.141
-166.852	-200.000	0.051	0.280
-165.837	11.779	0.137	-0.103
-164.823	-106.795	0.165	0.036
-163.808	-55.177	0.152	-0.067
-162.793	767.202	-0.039	-0.105
-161.779	78.157	-0.326	-0.342
-160.764	-121.616	-0.033	0.005
-159.750	442.843	-0.029	-0.062
-158.735	93.048	0.140	-0.156
-157.720	-154.168	0.196	0.013
-156.706	-30.899	0.154	-0.086
-155.691	-200.000	0.004	-0.143
-154.677	-200.000	-0.063	-0.327
-153.662	-200.000	-0.002	0.158
-152.647	91.596	-0.164	0.181
-151.633	-17.826	-0.160	0.099
-150.618	-19.211	-0.068	0.042
-149.604	407.308	0.064	-0.132
-148.589	113.839	0.174	-0.208
-147.574	800.000	-0.068	0.265
-146.560	19.113	0.129	-0.102
-145.545	92.491	0.219	0.242
-144.531	-28.195	0.348	-0.198
-143.516	665.544	0.165	0.419
-142.502	378.077	0.111	0.223
-141.487	-64.504	0.084	-0.034
-140.472	-92.310	0.218	-0.060
-139.458	-200.000	-0.012	0.092
-138.443	326.814	-0.081	0.153
-137.429	127.715	-0.119	-0.149
-136.414	45.943	0.154	0.140
-135.399	800.000	0.030	-0.112
-134.385	-200.000	-0.051	0.321
-133.370	253.004	0.163	0.274
-132.356	248.087	-0.178	0.295
-131.341	800.000	-0.013	-0.052
-130.326	63.732	-0.145	-0.143
-129.312	-200.000	0.007	-0.175
-128.297	68.280	-0.121	-0.122
-127.283	-27.041	-0.234	-0.134
-126.268	0.758	-0.201	-0.141
-125.253	-6.373	0.184	0.123
-124.239	-124.952	0.154	-0.023
-123.224	-18.070	0.145	-0.089
-122.210	-176.373	0.148	0.004
-121.195	69.400	0.073	0.074
-120.180	96.688	0.122	-0.137
-119.166	605.932	0.088	-0.215
-118.151	160.889	-0.207	0.284
-117.137	34.125	-0.233	0.199
-116.122	-5.694	0.085	0.057
-115.107	80.153	0.138	0.146
-114.093	134.123	0.034	-0.043
-113.078	800.000	-0.036	-0.111
-112.064	-200.000	0.017	-0.241
-111.049	-200.000	0.033	-0.205
-110.034	-29.773	0.110	-0.062
-109.020	528.472	0.100	-0.232
-108.005	719.037	0.046	0.121
-106.991	502.046	-0.099	0.224
-105.976	800.000	0.044	0.175
-104.962	-200.000	-0.024	-0.375
-103.947	-200.000	0.003	0.068
-102.932	496.544	-0.114	-0.258
-101.918	42.124	-0.027	-0.024
-100.903	353.900	-0.082	-0.159
-99.889	123.494	0.146	-0.179
-98.874	-200.000	-0.028	0.123
-97.859	50.974	0.050	0.046
-96.845	-47.425	-0.130	0.062
-95.830	13.242	-0.349	-0.265
-94.816	20.791	-0.053	0.042
-93.801	800.000	-0.102	-0.354
-92.786	-200.000	0.005	-0.125
-91.772	-145.188	0.242	-0.022
-90.757	-200.000	-0.054	-0.380
-89.743	-76.821	0.218	0.075
-88.728	26.675	0.074	0.061
-87.713	-102.927	-0.296	0.069
-86.699	-0.314	0.114	-0.080
-85.684	142.954	-0.041	0.053
-84.670	151.282	0.173	-0.231
-83.655	136.797	-0.211	-0.270
-82.640	-200.000	-0.020	-0.157
-81.626	-90.660	0.273	0.077
-80.611	21.524	0.173	0.138
-79.597	351.245	0.108	0.210
-78.582	-102.842	0.225	-0.052
-77.567	-147.283	-0.220	0.018
-76.553	287.895	-0.066	0.117
-75.538	-200.000	-0.012	0.110
-74.524	73.686	0.069	-0.071
-73.509	-36.869	-0.099	-0.052
-72.494	113.433	-0.104	-0.124
-71.480	153.151	-0.086	-0.116
-70.465	800.000	-0.035	-0.147
-69.451	-148.741	0.159	-0.013
-68.436	250.040	-0.109	0.181
-67.422	200.185	0.128	-0.192
-66.407	-200.000	0.009	-0.116
-65.392	265.882	-0.065	-0.111
-64.378	-84.859	0.330	0.102
-63.363	251.569	0.082	-0.137
-62.349	33.271	-0.076	-0.064
-61.334	2.974	-1.167	-0.831
-60.319	44.853	0.613	0.553
-59.305	-200.000	-0.237	-1.085
-58.290	800.000	0.486	1.521
-57.276	486.643	0.736	1.645
-56.261	-200.000	105.654	610.930
-55.246	502.148	1508.483	3414.459
-54.232	176.197	2701.894	3844.147
-53.217	111.687	2165.630	2560.385
-52.203	41.530	1598.811	1417.919
-51.188	33.016	1332.287	1130.817
-50.173	29.915	1291.074	1077.766
-49.159	54.215	1345.598	1268.394
-48.144	54.578	1360.968	1284.989
-47.130	33.060	1315.704	1116.824
-46.115	29.723	1297.605	1081.924
-45.100	29.475	1292.617	1076.278
-44.086	29.389	1290.651	1074.096
-43.071	29.295	1288.528	1071.738
-42.057	29.393	1285.280	1069.561
-41.042	29.354	1284.053	1068.272
-40.027	29.472	1282.779	1067.852
-39.013	29.305	1281.332	1065.641
-37.998	29.535	1278.882	1064.892
-36.984	29.471	1277.302	1063.163
-35.969	29.463	1275.061	1061.207
-34.954	29.480	1273.964	1060.352
-33.940	29.569	1272.143	1059.303
-32.925	29.582	1271.267	1058.606
-31.911	29.508	1270.117	1057.186
-30.896	29.636	1268.486	1056.519
-29.881	29.542	1267.287	1054.937
-28.867	29.694	1264.934	1053.805
-27.852	29.671	1263.838	1052.719
-26.838	29.632	1262.522	1051.360
-25.823	29.603	1261.712	1050.477
-24.809	29.594	1259.619	1048.642
-23.794	29.546	1258.360	1047.281
-22.779	29.587	1257.353	1046.636
-21.765	29.585	1256.058	1045.502
-20.750	29.638	1254.743	1044.670
-19.736	29.476	1253.552	1042.720
-18.721	29.441	1252.013	1041.198
-17.706	29.435	1251.241	1040.484
-16.692	29.428	1249.898	1039.286
-15.677	29.437	1249.176	1038.694
-14.663	29.444	1248.129	1037.823
-13.648	29.415	1246.980	1036.659
-12.633	29.438	1245.932	1035.876
-11.619	29.566	1244.847	1035.655
-10.604	29.436	1244.148	1034.304
-9.590	29.533	1243.289	1034.090
-8.575	29.338	1242.580	1032.367
-7.560	29.333	1241.810	1031.662
-6.546	29.403	1240.711	1031.095
-5.531	29.473	1239.412	1030.364
-4.517	29.482	1239.170	1030.175
-3.502	29.458	1238.328	1029.299
-2.487	29.278	1237.402	1027.486
-1.473	29.463	1232.883	1024.721
-0.458	28.063	1218.362	1004.924
0.556	22.354	1201.740	968.972
1.571	19.000	1206.700	954.310
2.586	18.294	1221.355	961.851
3.600	18.090	1211.092	952.547
4.615	13.575	1140.199	872.971
5.629	4.756	1066.044	772.508
6.644	0.173	1045.468	735.188
7.659	-0.221	1043.008	731.472
8.673	-0.395	1041.813	729.724
9.688	-0.465	1040.756	728.578
10.702	0.202	1039.116	730.601
11.717	6.130	1047.669	765.485
12.731	15.098	1060.572	818.885
13.746	19.599	1066.011	845.084
14.761	20.822	1067.349	852.060
15.775	20.925	1066.801	852.051
16.790	20.631	1065.865	849.790
17.804	20.672	1065.055	849.266
18.819	20.664	1065.096	849.188
19.834	20.909	1064.247	849.630
20.848	20.811	1063.849	848.758
21.863	20.891	1063.405	848.720
22.877	20.689	1062.927	847.281
23.892	20.714	1062.173	846.727
24.907	20.725	1061.408	846.092
25.921	20.707	1060.318	845.061
26.936	20.773	1058.924	844.198
27.950	20.622	1057.428	842.198
28.965	20.571	1055.455	840.304
29.980	20.658	1053.279	838.918
30.994	20.896	1052.503	839.375
32.009	20.845	1051.821	838.509
33.023	20.619	1050.410	836.223
34.038	20.726	1050.045	836.373
35.053	20.772	1049.206	835.854
36.067	20.845	1047.922	835.107
37.082	20.800	1047.584	834.545
38.096	21.059	1046.686	835.000
39.111	21.014	1045.907	834.087
40.126	20.941	1044.305	832.386
41.140	20.506	1042.837	829.067
42.155	20.502	1041.199	827.673
43.169	20.549	1040.396	827.185
44.184	20.588	1039.447	826.544
45.199	20.450	1038.262	824.876
46.213	20.461	1037.659	824.374
47.228	20.606	1036.834	824.333
48.242	20.663	1035.671	823.602
49.257	20.713	1035.594	823.709
50.271	20.854	1034.458	823.399
51.286	20.921	1033.417	822.813
52.301	20.819	1032.693	821.681
53.315	20.817	1031.709	820.818
54.330	20.666	1031.124	819.565
55.344	20.830	1029.828	819.237
56.359	20.626	1029.255	817.749
57.374	20.473	1028.598	816.437
58.388	20.532	1027.778	815.989
59.403	20.605	1026.347	815.123
60.417	20.377	1025.570	813.364
61.432	20.501	1025.239	813.613
62.447	20.693	1024.554	813.894
63.461	20.729	1023.553	813.195
64.476	20.661	1022.424	811.910
65.490	20.590	1021.147	810.495
66.505	20.539	1021.424	810.406
67.520	20.527	1020.775	809.759
68.534	20.312	1019.264	807.491
69.549	20.009	1018.321	805.264
70.563	20.147	1017.169	804.922
71.578	20.251	1016.010	804.417
72.593	20.013	1015.580	802.903
73.607	20.215	1014.901	803.227
74.622	20.389	1014.491	803.639
75.636	20.427	1014.157	803.479
76.651	20.346	1013.165	802.249
77.666	20.208	1012.169	800.750
78.680	20.254	1011.804	800.605
79.695	20.329	1011.039	800.272
80.709	20.533	1010.000	800.319
81.724	20.459	1009.197	799.273
82.739	20.623	1008.695	799.559
83.753	20.903	1008.259	800.428
84.768	21.094	1007.154	800.354
85.782	21.072	1006.374	799.565
86.797	21.063	1004.964	798.334
87.812	20.849	1004.405	796.837
88.826	20.986	1003.273	796.495
89.841	21.007	1002.464	795.877
90.855	21.013	1001.182	794.818
91.870	20.966	1000.598	794.071
92.884	20.968	999.346	793.016
93.899	20.840	998.444	791.648
94.914	20.916	998.040	791.601
95.928	20.920	996.757	790.532
96.943	20.588	995.643	788.074
97.957	20.319	994.557	785.930
98.972	20.321	993.000	784.636
99.987	20.555	992.707	785.394
101.001	20.910	991.409	785.900
102.016	20.751	991.021	784.804
103.030	20.530	990.284	783.154
104.045	20.434	989.242	781.831
105.060	20.331	987.808	780.165
106.074	20.672	987.215	781.159
107.089	20.960	986.841	782.087
108.103	20.933	985.018	780.450
109.118	20.679	984.038	778.470
110.133	20.518	983.411	777.185
111.147	20.449	981.833	775.560
112.162	20.306	980.841	774.070
113.176	20.466	980.612	774.534
114.191	20.394	979.403	773.192
115.206	20.069	978.599	771.043
116.220	20.215	977.887	771.062
117.235	20.282	976.546	770.235
118.249	20.153	975.764	768.977
119.264	20.186	975.175	768.591
120.279	20.194	974.562	768.077
121.293	20.320	973.820	767.980
122.308	20.330	972.756	767.115
123.322	20.189	971.471	765.412
124.337	20.141	970.177	764.115
125.352	19.673	967.963	760.246
126.366	19.647	967.537	759.730
127.381	20.363	967.550	762.819
128.395	20.571	967.428	763.567
129.410	20.874	965.980	763.686
130.424	20.639	965.420	762.149
131.439	20.723	964.248	761.524
132.454	20.814	962.850	760.750
133.468	20.747	962.454	760.077
134.483	20.672	961.656	759.053
135.497	20.858	961.107	759.363
136.512	21.000	959.931	758.982
137.527	20.925	958.822	757.713
138.541	20.926	958.244	757.193
139.556	20.987	957.400	756.722
140.570	21.023	956.736	756.290
141.585	21.013	956.102	755.679
142.600	20.990	954.815	754.495
143.614	21.213	954.219	754.920
144.629	21.256	953.240	754.263
145.643	21.070	952.262	752.621
146.658	20.783	951.091	750.393
147.673	20.882	949.892	749.805
148.687	20.851	948.905	748.827
149.702	20.850	948.012	748.055
150.716	20.802	946.961	746.951
151.731	20.791	946.353	746.359
152.746	21.059	945.858	747.049
153.760	21.163	945.183	746.895
154.775	21.071	944.547	745.932
155.789	21.068	943.695	745.183
156.804	21.170	942.368	744.504
157.819	21.097	942.070	743.892
158.833	21.303	940.837	743.729
159.848	21.246	939.562	742.415
160.862	20.990	938.885	740.723
161.877	21.157	937.880	740.574
162.892	21.225	937.086	740.170
163.906	21.140	935.987	738.876
164.921	21.083	934.828	737.657
165.935	21.213	933.767	737.302
166.950	21.101	933.015	736.171
167.964	21.186	932.240	735.854
168.979	20.961	931.047	733.898
169.994	20.985	930.233	733.291
171.008	21.331	929.544	734.137
172.023	21.291	928.673	733.216
173.037	20.919	927.929	731.004
174.052	20.853	926.885	729.843
175.067	20.861	926.457	729.473
176.081	21.029	925.630	729.460
177.096	20.913	925.199	728.574
178.110	20.689	923.921	726.563
179.125	20.558	923.401	725.544
180.140	20.598	923.159	725.459
181.154	20.690	922.818	725.509
182.169	20.915	923.117	726.617
183.183	21.313	921.900	727.252
184.198	21.184	921.107	726.028
185.213	21.094	920.235	724.900
186.227	21.193	919.488	724.659
187.242	21.091	918.757	723.596
188.256	21.050	918.943	723.507
189.271	21.272	917.734	723.414
190.286	20.898	916.768	721.039
191.300	20.391	915.292	717.722
192.315	19.568	913.901	713.167
193.329	19.611	913.139	712.690
194.344	20.442	913.568	716.388
195.359	21.080	913.224	718.683
196.373	21.029	913.212	718.400
197.388	21.034	912.714	717.965
198.402	20.975	911.732	716.886
199.417	20.858	911.301	716.006
200.432	20.803	909.623	714.396
201.446	20.695	909.260	713.608
202.461	20.627	908.625	712.767
203.475	19.576	906.839	707.000
204.490	19.091	905.021	703.541
205.504	19.928	906.359	707.940
206.519	20.589	906.161	710.426
207.534	20.679	905.302	710.055
208.548	21.134	905.022	711.632
209.563	20.798	903.990	709.388
210.577	20.817	903.426	708.961
211.592	21.242	902.805	710.136
212.607	21.171	902.034	709.180
213.621	21.198	901.630	708.909
214.636	21.146	900.918	708.074
215.650	21.121	900.009	707.196
216.665	21.243	899.767	707.440
217.680	21.253	898.185	706.172
218.694	20.731	897.232	703.251
219.709	20.672	896.933	702.718
220.723	20.861	896.598	703.158
221.738	21.082	895.332	702.993
222.753	21.010	895.214	702.548
223.767	21.037	894.720	702.206
224.782	21.340	894.358	703.078
225.796	21.309	893.849	702.493
226.811	20.560	892.558	698.409
227.826	19.977	891.597	695.252
228.840	20.190	890.491	695.182
229.855	20.328	889.872	695.191
230.869	19.940	889.015	692.909
231.884	20.361	889.201	694.678
232.899	21.249	888.953	697.971
233.913	21.057	888.143	696.508
234.928	21.011	887.549	695.795
235.942	20.985	887.151	695.319
236.957	20.718	885.915	693.224
237.972	20.635	885.495	692.504
238.986	20.930	884.970	693.205
240.001	20.887	884.334	692.476
241.015	20.743	884.037	691.612
242.030	20.946	883.776	692.150
243.045	21.180	883.060	692.458
244.059	21.171	882.669	692.051
245.074	20.995	881.830	690.636
246.088	20.611	880.548	688.054
247.103	21.033	880.153	689.352
248.117	21.561	880.129	691.360
249.132	21.749	879.484	691.533
250.147	21.738	879.154	691.170
251.161	21.825	878.973	691.308
252.176	21.867	878.095	690.722
253.190	22.056	877.410	690.863
254.205	22.179	877.079	691.027
255.220	22.140	875.980	689.945
256.234	21.823	875.670	688.395
257.249	21.862	874.634	687.675
258.263	21.921	874.184	687.492
259.278	21.996	873.385	687.094
260.293	21.988	872.750	686.504
261.307	21.878	871.971	685.399
262.322	21.622	871.362	683.860
263.336	20.840	869.347	679.173
264.351	19.791	867.509	673.592
265.366	20.114	867.073	674.450
266.380	21.017	868.421	678.959
267.395	21.417	867.890	680.039
268.409	21.470	866.913	679.419
269.424	21.723	866.387	679.929
270.439	21.785	865.714	679.582
271.453	21.736	865.441	679.117
272.468	21.921	865.243	679.616
273.482	21.899	864.436	678.838
274.497	21.576	862.895	676.319
275.512	21.332	862.557	675.053
276.526	21.674	862.329	676.133
277.541	21.740	862.169	676.204
278.555	21.532	860.950	674.388
279.570	21.569	860.010	673.735
280.585	21.583	859.544	673.365
281.599	21.499	858.831	672.422
282.614	21.021	857.547	669.521
283.628	21.041	857.264	669.319
284.643	21.279	856.912	669.897
285.657	20.866	855.755	667.353
286.672	20.731	855.028	666.210
287.687	21.225	854.825	667.882
288.701	21.204	854.250	667.291
289.716	20.797	853.585	665.162
290.730	20.855	852.802	664.713
291.745	20.544	851.929	662.789
292.760	20.991	851.867	664.386
293.774	21.987	852.473	668.594
294.789	22.185	852.229	669.096
295.803	22.272	851.332	668.663
296.818	22.359	850.359	668.173
297.833	21.940	849.320	665.705
298.847	21.616	848.809	664.019
299.862	22.069	848.567	665.487
300.876	22.345	848.287	666.253
301.891	22.104	847.352	664.547
302.906	21.694	846.598	662.351
303.920	21.885	846.414	662.870
304.935	22.148	846.126	663.577
305.949	22.035	845.722	662.778
306.964	21.853	844.648	661.190
307.979	21.915	844.532	661.274
308.993	22.421	843.842	662.579
310.008	22.469	843.272	662.254
311.022	22.024	842.932	660.255
312.037	21.909	842.262	659.242
313.052	21.755	840.732	657.407
314.066	20.794	839.991	653.167
315.081	20.503	838.921	651.187
316.095	21.399	839.446	654.892
317.110	21.847	839.138	656.272
318.125	21.120	837.508	652.223
319.139	20.005	836.030	646.854
320.154	20.162	835.841	647.237
321.168	20.914	836.225	650.282
322.183	21.688	835.990	652.929
323.197	21.834	835.679	653.173
324.212	22.094	835.297	653.782
325.227	22.084	835.104	653.538
326.241	21.771	834.443	651.799
327.256	21.789	833.528	651.093
328.270	21.748	832.978	650.455
329.285	21.529	832.124	648.919
330.300	21.151	831.924	647.301
331.314	21.711	830.946	648.556
332.329	22.105	830.489	649.601
333.343	22.286	830.207	649.992
334.358	22.158	829.948	649.257
335.373	22.051	830.006	648.849
336.387	22.439	829.860	650.114
337.402	22.573	829.403	650.192
338.416	22.274	829.180	648.857
339.431	22.491	828.986	649.444
340.446	22.669	828.307	649.511
341.460	22.604	827.300	648.425
342.475	22.304	827.243	647.222
343.489	22.495	826.764	647.493
344.504	22.705	826.746	648.193
345.519	22.916	825.946	648.282
346.533	23.075	825.494	648.451
347.548	22.788	825.672	647.482
348.562	22.994	824.733	647.443
349.577	22.944	823.867	646.524
350.592	22.822	823.487	645.722
351.606	22.797	822.920	645.129
352.621	22.683	822.027	643.956
353.635	22.615	821.215	643.012
354.650	21.876	819.602	639.002
355.665	20.934	818.330	634.526
356.679	21.497	818.057	636.306
357.694	21.847	817.789	637.314
358.708	21.807	817.072	636.553
359.723	22.198	817.054	637.905
360.738	22.518	816.602	638.653
361.752	22.610	816.067	638.511
362.767	22.868	816.175	639.476
363.781	23.092	815.651	639.817
364.796	23.204	815.018	639.669
365.810	23.291	814.790	639.747
366.825	23.300	814.242	639.294
367.840	22.833	813.669	637.103
368.854	22.535	812.791	635.285
369.869	22.564	812.560	635.153
370.883	22.523	812.485	634.890
371.898	22.405	811.388	633.553
372.913	22.622	810.961	633.944
373.927	22.759	810.399	633.938
374.942	22.870	810.342	634.237
375.956	22.922	809.992	634.093
376.971	23.093	809.394	634.181
377.986	23.218	808.971	634.243
379.000	23.097	808.456	633.352
380.015	23.041	807.732	632.528
381.029	23.017	807.302	632.050
382.044	23.185	806.999	632.354
383.059	23.199	806.414	631.893
384.073	23.384	805.278	631.606
385.088	23.275	805.202	631.100
386.102	23.032	804.395	629.547
387.117	22.845	803.966	628.491
388.132	22.651	802.830	626.856
389.146	22.099	801.546	623.840
390.161	22.517	801.892	625.539
391.175	22.969	801.785	627.002
392.190	22.702	800.370	624.893
393.205	21.397	798.477	618.748
394.219	19.860	796.865	612.011
395.234	19.855	796.344	611.540
396.248	21.390	798.395	618.494
397.263	22.802	798.895	623.822
398.278	22.767	798.603	623.415
399.292	22.595	797.907	622.208
400.307	22.642	796.825	621.475
401.321	22.522	796.832	621.005
402.336	23.049	796.723	622.721
403.350	23.685	796.308	624.578
404.365	23.748	796.477	624.878
405.380	23.905	796.321	625.253
406.394	23.901	795.645	624.652
407.409	23.777	795.293	623.884
408.423	23.801	794.677	623.428
409.438	23.952	794.119	623.466
410.453	23.891	794.023	623.122
411.467	23.835	793.454	622.425
412.482	23.886	792.974	622.171
413.496	23.932	792.741	622.096
414.511	24.036	792.180	621.961
415.526	23.827	792.134	621.140
416.540	23.799	791.115	620.188
417.555	23.447	790.587	618.491
418.569	23.467	790.248	618.243
419.584	23.575	789.418	617.915
420.599	23.421	788.811	616.850
421.613	157.692	1365.007	1797.891
422.628	136.520	1448.910	1797.965
