DTS Sentinel unit serial number:	SN413079Multiplexer serial number:	ORYXHardware model number:	OX4-SRSoftware version number:	ORYX F/W v4.00 Oryx Data Collector v3.7.2.0data status	okinstallation	princeton_trtdifferential loss correction	single-endedforward channel	channel 1reverse channel	N/Adate	2019/09/13time	10:06:35forward acquisition time	60.00reverse acquisition time	0.00gamma	496.2192k internal	0.2325k external	0.2325temperature offset calibration	1.0156default loss term (dB/km)	0.3790temperature slope calibration	1.0000multiplexer offset coefficient	1.0000multiplexer slope coefficient	1.0000fibre end	0.00T internal ref (°C)	30.44T ext. ref 1 (°C)	4.49T ext. ref 2 (°C)	27.66length (m)	temperature (°C)	Stokes	anti-Stokes-747.200	-200.000	-0.015	0.407
-746.185	193.412	0.058	-0.089
-745.171	-91.509	-0.264	0.076
-744.156	167.559	-0.068	0.097
-743.142	246.766	0.190	-0.324
-742.127	-200.000	0.017	0.204
-741.112	43.237	0.075	-0.069
-740.098	800.000	-0.016	-0.052
-739.083	65.302	0.118	-0.121
-738.069	-138.656	-0.276	-0.031
-737.054	-90.958	0.188	0.055
-736.039	456.647	-0.131	0.293
-735.025	143.172	-0.041	-0.056
-734.010	-200.000	-0.032	0.168
-732.996	16.886	-0.296	-0.236
-731.981	118.275	-0.238	0.297
-730.966	-43.080	0.175	-0.089
-729.952	102.504	0.127	0.149
-728.937	-200.000	0.021	0.160
-727.923	683.399	-0.061	0.160
-726.908	96.398	0.225	-0.260
-725.894	-123.978	-0.206	0.033
-724.879	437.119	-0.060	0.132
-723.864	-135.426	0.073	0.009
-722.850	624.102	0.030	0.077
-721.835	-8.096	-0.395	0.268
-720.821	-142.332	-0.133	-0.013
-719.806	-43.987	-0.095	-0.048
-718.791	85.880	-0.126	0.140
-717.777	-49.059	-0.340	-0.164
-716.762	335.818	0.135	0.264
-715.748	101.412	-0.151	0.177
-714.733	65.596	0.238	-0.243
-713.718	-38.808	-0.237	0.126
-712.704	91.570	0.167	-0.189
-711.689	38.783	-0.133	-0.120
-710.675	-97.755	0.231	-0.060
-709.660	-139.110	0.160	-0.017
-708.645	-133.094	0.368	0.047
-707.631	135.786	-0.085	0.111
-706.616	-36.582	0.132	-0.071
-705.602	21.669	0.182	0.149
-704.587	-200.000	0.029	-0.270
-703.572	-50.814	-0.163	-0.077
-702.558	-100.835	0.254	0.063
-701.543	800.000	-0.017	-0.060
-700.529	41.175	-0.228	-0.208
-699.514	-200.000	-0.057	0.282
-698.499	-136.904	0.062	-0.007
-697.485	-6.979	0.314	-0.215
-696.470	238.465	-0.041	0.068
-695.456	247.864	0.113	0.192
-694.441	-117.744	0.080	0.015
-693.426	43.186	0.092	0.085
-692.412	24.420	0.223	-0.185
-691.397	248.452	0.141	0.240
-690.383	-51.959	0.366	0.171
-689.368	800.000	0.027	0.086
-688.354	-200.000	0.002	-0.186
-687.339	800.000	-0.045	-0.149
-686.324	126.501	0.106	0.135
-685.310	419.809	0.078	0.168
-684.295	800.000	0.087	-0.253
-683.281	33.805	-0.205	-0.179
-682.266	25.173	-0.216	-0.180
-681.251	-114.347	-0.399	-0.077
-680.237	82.035	-0.053	-0.058
-679.222	-121.173	0.224	-0.038
-678.208	-104.532	-0.270	0.063
-677.193	77.342	0.259	0.277
-676.178	-107.334	-0.124	-0.028
-675.164	153.957	-0.084	-0.117
-674.149	-30.452	-0.129	0.074
-673.135	442.957	-0.094	-0.208
-672.120	219.405	0.118	-0.189
-671.105	-200.000	-0.024	0.142
-670.091	167.654	0.053	-0.076
-669.076	-11.059	0.053	-0.035
-668.062	393.096	-0.087	-0.182
-667.047	100.867	-0.276	-0.322
-666.032	243.770	-0.110	-0.186
-665.018	-200.000	-0.004	0.154
-664.003	640.759	-0.054	-0.137
-662.989	53.720	-0.048	-0.046
-661.974	757.631	-0.088	0.239
-660.959	35.419	0.182	-0.161
-659.945	800.000	-0.052	-0.229
-658.930	-96.885	-0.348	-0.092
-657.916	-41.346	0.316	0.164
-656.901	-111.007	0.134	0.028
-655.886	-30.347	-0.046	-0.026
-654.872	179.988	0.064	0.095
-653.857	144.211	-0.112	-0.151
-652.843	-33.010	-0.119	-0.066
-651.828	394.701	-0.097	0.204
-650.814	34.778	0.072	-0.064
-649.799	-200.000	-0.004	-0.065
-648.784	-133.607	0.249	-0.031
-647.770	800.000	0.025	-0.095
-646.755	264.075	-0.103	-0.180
-645.741	15.731	0.255	0.201
-644.726	-147.601	-0.088	0.007
-643.711	-200.000	0.015	0.080
-642.697	114.878	0.095	-0.117
-641.682	271.881	0.056	0.099
-640.668	256.039	0.136	-0.235
-639.653	-147.352	-0.163	-0.014
-638.638	15.577	-0.273	0.215
-637.624	-200.000	0.040	-0.188
-636.609	68.158	-0.129	-0.132
-635.595	208.896	-0.050	-0.078
-634.580	800.000	-0.008	0.026
-633.565	800.000	-0.139	-0.432
-632.551	83.361	-0.237	0.259
-631.536	118.546	-0.389	-0.482
-630.522	304.504	-0.096	0.180
-629.507	-87.241	-0.191	-0.058
-628.492	-39.562	0.189	0.099
-627.478	87.686	-0.246	0.274
-626.463	-181.485	-0.201	-0.004
-625.449	-74.167	-0.120	-0.044
-624.434	-12.844	-0.377	-0.247
-623.419	162.942	0.098	0.138
-622.405	242.683	0.071	-0.120
-621.390	-5.225	-0.245	-0.170
-620.376	800.000	-0.047	0.172
-619.361	-114.939	-0.076	0.015
-618.346	-147.449	0.263	-0.022
-617.332	201.047	0.069	0.107
-616.317	-187.542	0.271	0.004
-615.303	-176.887	-0.220	0.006
-614.288	800.000	-0.112	-0.318
-613.273	56.336	-0.248	-0.242
-612.259	2.070	-0.103	0.074
-611.244	-200.000	-0.024	-0.198
-610.230	-200.000	0.043	-0.362
-609.215	800.000	0.049	-0.173
-608.201	-136.646	-0.171	-0.020
-607.186	-109.094	0.408	0.087
-606.171	-166.696	0.073	0.003
-605.157	-200.000	0.010	0.233
-604.142	-200.000	-0.045	-0.330
-603.128	99.862	-0.177	0.206
-602.113	88.967	-0.136	-0.152
-601.098	-200.000	0.022	-0.123
-600.084	-91.860	-0.394	0.112
-599.069	-200.000	0.019	0.132
-598.055	-15.436	-0.134	-0.086
-597.040	-200.000	0.033	-0.225
-596.025	-101.273	-0.263	0.064
-595.011	-47.891	-0.126	-0.061
-593.996	-92.435	0.331	0.093
-592.982	-169.668	-0.154	0.006
-591.967	375.488	-0.152	-0.311
-590.952	-200.000	-0.031	0.282
-589.938	800.000	0.052	-0.150
-588.923	200.050	-0.157	-0.242
-587.909	-200.000	0.005	0.269
-586.894	67.183	0.140	-0.143
-585.879	-200.000	-0.081	0.469
-584.865	-200.000	0.046	0.219
-583.850	-48.003	0.144	-0.070
-582.836	-92.661	0.085	0.024
-581.821	-7.890	0.276	-0.186
-580.806	493.750	-0.109	-0.251
-579.792	-43.456	0.340	-0.172
-578.777	-100.318	-0.356	0.088
-577.763	-134.250	0.164	0.020
-576.748	-200.000	0.003	-0.202
-575.733	-200.000	0.016	-0.161
-574.719	-102.716	0.273	0.065
-573.704	-135.267	0.454	-0.055
-572.690	662.910	0.054	-0.141
-571.675	-116.570	-0.251	-0.046
-570.661	800.000	0.044	0.137
-569.646	6.540	0.109	-0.081
-568.631	13.405	-0.110	0.086
-567.617	-98.559	0.162	0.041
-566.602	-200.000	0.000	0.177
-565.588	168.515	-0.073	0.104
-564.573	-200.000	-0.024	-0.183
-563.558	-36.496	-0.209	-0.113
-562.544	-200.000	0.012	0.160
-561.529	197.281	-0.073	-0.112
-560.515	443.478	0.126	-0.277
-559.500	552.314	-0.109	-0.263
-558.485	-50.497	0.347	0.164
-557.471	-62.860	-0.429	-0.178
-556.456	76.952	0.029	-0.030
-555.442	800.000	-0.076	-0.276
-554.427	-200.000	-0.043	-0.264
-553.412	35.240	-0.155	0.136
-552.398	-47.754	0.353	0.171
-551.383	-5.268	-0.273	0.188
-550.369	-127.882	-0.044	0.006
-549.354	245.383	-0.040	0.068
-548.339	251.104	-0.076	0.129
-547.325	-167.560	-0.325	0.013
-546.310	-77.341	0.400	-0.139
-545.296	671.077	0.088	-0.227
-544.281	4.587	0.150	0.110
-543.266	-200.000	-0.061	-0.400
-542.252	-200.000	-0.011	0.050
-541.237	-200.000	-0.020	0.136
-540.223	-109.593	-0.478	-0.101
-539.208	-138.068	0.199	0.022
-538.193	56.141	-0.183	-0.178
-537.179	253.734	0.224	0.383
-536.164	-131.393	0.374	-0.050
-535.150	-50.680	0.203	-0.096
-534.135	-112.034	-0.269	0.054
-533.121	-153.536	-0.097	0.007
-532.106	68.950	0.186	-0.191
-531.091	800.000	0.072	0.306
-530.077	-124.033	-0.484	-0.076
-529.062	488.570	0.024	0.054
-528.048	-119.539	-0.395	0.068
-527.033	-137.041	0.481	-0.055
-526.018	397.495	-0.049	-0.103
-525.004	190.852	-0.040	-0.060
-523.989	-200.000	0.030	-0.237
-522.975	-200.000	-0.035	-0.269
-521.960	237.082	0.224	-0.371
-520.945	-200.000	0.016	0.289
-519.931	-200.000	-0.012	-0.065
-518.916	126.924	-0.105	0.133
-517.902	353.966	0.139	0.276
-516.887	-104.749	0.097	0.022
-515.872	169.821	-0.046	-0.066
-514.858	68.647	0.206	-0.211
-513.843	36.004	-0.198	0.174
-512.829	-112.918	0.398	0.079
-511.814	-119.394	0.191	-0.033
-510.799	-45.919	-0.349	0.172
-509.785	310.600	-0.081	0.151
-508.770	-141.764	0.214	0.021
-507.756	-18.908	-0.119	-0.074
-506.741	283.861	-0.074	-0.133
-505.726	-200.000	-0.030	-0.234
-504.712	-126.794	0.051	0.007
-503.697	-19.537	-0.386	0.239
-502.683	449.562	0.029	0.063
-501.668	-159.930	-0.021	0.001
-500.653	123.473	0.101	0.127
-499.639	-72.311	0.185	0.069
-498.624	314.623	-0.044	-0.082
-497.610	28.318	-0.142	-0.120
-496.595	-200.000	0.002	0.067
-495.581	-41.106	-0.048	0.025
-494.566	186.346	0.081	-0.121
-493.551	-79.840	-0.230	0.077
-492.537	-115.484	-0.269	0.051
-491.522	-200.000	0.053	-0.231
-490.508	-200.000	-0.059	-0.314
-489.493	-151.186	-0.370	-0.028
-488.478	-200.000	0.065	0.399
-487.464	150.077	0.186	-0.252
-486.449	-134.720	0.008	-0.001
-485.435	266.146	0.051	0.090
-484.420	-67.482	0.224	-0.088
-483.405	-69.510	-0.128	0.049
-482.391	-122.780	-0.170	-0.027
-481.376	-153.063	0.233	-0.016
-480.362	399.708	0.060	0.125
-479.347	-200.000	0.041	0.243
-478.332	-177.305	-0.279	0.007
-477.318	-158.739	0.243	0.014
-476.303	-200.000	-0.001	-0.148
-475.289	-200.000	-0.021	0.145
-474.274	-8.281	0.046	-0.031
-473.259	21.938	-0.067	0.054
-472.245	-6.503	-0.233	-0.158
-471.230	53.264	-0.118	-0.113
-470.216	27.645	-0.100	-0.084
-469.201	34.498	0.043	0.038
-468.186	8.000	0.185	0.138
-467.172	-73.471	0.231	0.084
-466.157	247.178	0.145	-0.244
-465.143	800.000	0.058	-0.232
-464.128	202.583	-0.120	-0.185
-463.113	-119.926	0.218	-0.037
-462.099	-91.416	0.155	-0.044
-461.084	235.908	0.164	0.270
-460.070	-98.305	-0.105	0.027
-459.055	-96.437	-0.150	0.040
-458.040	-200.000	-0.015	0.075
-457.026	75.055	0.045	0.047
-456.011	-200.000	0.012	0.308
-454.997	195.448	-0.045	-0.069
-453.982	4.063	0.355	-0.259
-452.968	-200.000	0.017	-0.191
-451.953	147.479	0.299	0.402
-450.938	173.818	-0.031	-0.045
-449.924	94.967	-0.120	0.137
-448.909	-51.597	0.061	-0.028
-447.895	-1.366	-0.224	-0.158
-446.880	203.465	-0.247	0.382
-445.865	58.539	-0.108	0.106
-444.851	-200.000	-0.003	0.031
-443.836	227.730	-0.093	0.151
-442.822	716.684	0.151	-0.399
-441.807	152.332	-0.173	0.235
-440.792	-200.000	0.013	0.077
-439.778	-200.000	0.043	0.242
-438.763	-34.548	-0.136	0.074
-437.749	175.870	0.047	0.068
-436.734	800.000	-0.018	0.068
-435.719	-200.000	0.027	-0.246
-434.705	-156.394	-0.071	0.004
-433.690	307.274	0.073	-0.136
-432.676	84.621	0.102	0.111
-431.661	178.170	-0.126	0.184
-430.646	-60.435	0.127	0.054
-429.632	-63.298	-0.130	-0.053
-428.617	-74.706	-0.256	-0.092
-427.603	800.000	0.101	-0.284
-426.588	800.000	0.028	0.097
-425.573	-116.517	-0.168	-0.031
-424.559	390.194	0.097	0.200
-423.544	800.000	0.030	0.108
-422.530	119.731	-0.135	0.166
-421.515	800.000	0.038	0.141
-420.500	55.566	0.058	-0.056
-419.486	-68.486	0.122	-0.047
-418.471	478.621	-0.079	0.178
-417.457	-72.516	0.140	-0.052
-416.442	49.236	0.083	0.078
-415.428	-80.277	-0.232	-0.077
-414.413	-116.236	-0.041	-0.008
-413.398	800.000	-0.113	0.318
-412.384	66.600	0.071	-0.072
-411.369	46.666	0.180	0.167
-410.355	-200.000	0.028	0.136
-409.340	-69.384	-0.403	0.154
-408.325	-200.000	-0.001	0.102
-407.311	155.257	-0.081	0.111
-406.296	-36.797	-0.344	0.184
-405.282	-29.617	-0.196	0.111
-404.267	194.710	0.037	-0.056
-403.252	374.278	0.042	-0.085
-402.238	-200.000	-0.047	0.226
-401.223	141.724	-0.169	0.223
-400.209	-51.642	0.109	-0.051
-399.194	800.000	0.034	-0.117
-398.179	-35.664	-0.214	-0.115
-397.165	-9.323	0.051	0.034
-396.150	172.482	-0.192	0.275
-395.136	36.453	-0.178	-0.156
-394.121	800.000	-0.083	-0.300
-393.106	161.109	-0.115	0.159
-392.092	800.000	-0.053	0.184
-391.077	-144.321	-0.173	-0.016
-390.063	43.587	0.146	0.133
-389.048	-200.000	0.023	0.374
-388.033	800.000	0.050	0.183
-387.019	-63.501	-0.183	0.075
-386.004	-200.000	0.027	-0.182
-384.990	-101.371	-0.248	-0.060
-383.975	-27.839	-0.052	0.030
-382.960	-158.200	-0.216	-0.013
-381.946	4.538	0.183	-0.133
-380.931	-3.937	0.298	-0.205
-379.917	-200.000	0.055	0.395
-378.902	133.466	-0.099	0.128
-377.888	-3.127	0.042	-0.029
-376.873	-47.231	0.016	-0.008
-375.858	-18.622	-0.055	-0.034
-374.844	8.034	0.347	0.259
-373.829	-27.949	-0.121	0.069
-372.815	800.000	0.031	0.125
-371.800	-79.955	-0.291	-0.097
-370.785	14.394	0.280	-0.217
-369.771	-47.547	0.528	-0.255
-368.756	-17.476	-0.114	-0.071
-367.742	-200.000	-0.055	-0.332
-366.727	-156.874	0.079	0.005
-365.712	-200.000	0.000	0.199
-364.698	-3.629	0.193	0.133
-363.683	-56.988	-0.347	0.152
-362.669	800.000	0.011	0.038
-361.654	-178.529	-0.299	-0.007
-360.639	-200.000	-0.022	-0.099
-359.625	-200.000	-0.067	0.328
-358.610	-200.000	-0.021	-0.332
-357.596	22.946	0.026	-0.021
-356.581	800.000	-0.047	-0.141
-355.566	-120.874	0.028	0.005
-354.552	-154.186	-0.222	0.015
-353.537	-62.959	0.169	-0.069
-352.523	-200.000	0.031	0.449
-351.508	272.065	-0.107	0.187
-350.493	526.386	-0.058	-0.135
-349.479	133.058	-0.053	-0.068
-348.464	-200.000	-0.009	-0.096
-347.450	-200.000	-0.026	0.216
-346.435	-144.168	0.256	0.024
-345.420	158.155	0.161	-0.222
-344.406	-200.000	0.014	-0.166
-343.391	-200.000	-0.027	-0.183
-342.377	33.856	-0.031	-0.027
-341.362	-189.498	0.030	-0.000
-340.348	-15.187	0.016	0.010
-339.333	800.000	-0.076	-0.292
-338.318	98.621	0.135	0.154
-337.304	633.392	0.078	-0.195
-336.289	-70.797	0.249	0.093
-335.275	-25.746	-0.274	-0.160
-334.260	38.452	-0.232	0.205
-333.245	264.190	0.156	-0.270
-332.231	469.021	0.101	-0.225
-331.216	-10.389	-0.106	0.070
-330.202	-72.164	0.181	-0.067
-329.187	-39.434	-0.158	-0.082
-328.172	-200.000	0.032	-0.162
-327.158	-40.974	0.217	-0.111
-326.143	148.167	-0.194	0.261
-325.129	18.059	-0.104	-0.083
-324.114	800.000	-0.027	0.088
-323.099	-32.666	0.051	0.028
-322.085	430.372	-0.077	0.166
-321.070	50.255	0.289	0.271
-320.056	-200.000	0.055	-0.348
-319.041	69.283	0.046	0.047
-318.026	26.055	-0.063	-0.052
-317.012	-127.139	0.090	0.013
-315.997	-44.357	-0.337	-0.167
-314.983	-38.128	0.225	0.119
-313.968	765.024	0.023	0.063
-312.953	-126.343	0.174	-0.026
-311.939	51.408	0.299	-0.282
-310.924	-200.000	-0.031	0.304
-309.910	-110.491	0.298	-0.061
-308.895	-140.579	0.228	-0.024
-307.880	62.187	-0.119	0.118
-306.866	38.123	0.220	0.194
-305.851	-7.000	0.163	-0.110
-304.837	314.929	0.070	-0.131
-303.822	-74.309	-0.233	0.083
-302.807	194.737	-0.009	0.013
-301.793	108.354	-0.021	0.025
-300.778	-3.522	-0.094	0.065
-299.764	-200.000	0.012	0.084
-298.749	340.289	-0.265	-0.512
-297.735	487.937	0.058	-0.131
-296.720	335.719	0.104	0.199
-295.705	-119.993	0.253	0.043
-294.691	236.527	0.090	0.148
-293.676	-176.147	0.220	-0.006
-292.662	-3.948	0.122	-0.084
-291.647	-92.988	-0.283	0.078
-290.632	-200.000	0.015	0.153
-289.618	-200.000	0.001	0.101
-288.603	-107.009	0.226	-0.050
-287.589	-200.000	0.011	-0.126
-286.574	160.014	0.096	-0.132
-285.559	-200.000	-0.013	-0.143
-284.545	10.790	-0.051	0.038
-283.530	-12.003	0.117	0.076
-282.516	-129.806	-0.069	-0.009
-281.501	-135.341	-0.244	0.029
-280.486	-47.039	-0.207	-0.100
-279.472	-50.813	-0.047	-0.022
-278.457	-15.052	0.348	0.221
-277.443	10.757	0.201	-0.152
-276.428	-48.336	-0.260	0.124
-275.413	144.398	0.102	0.134
-274.399	145.857	0.308	0.410
-273.384	262.620	0.081	-0.139
-272.370	95.758	-0.095	0.107
-271.355	32.581	-0.166	0.142
-270.340	-200.000	0.003	0.083
-269.326	228.719	0.202	-0.326
-268.311	40.263	-0.151	-0.134
-267.297	68.433	0.254	-0.258
-266.282	-110.734	0.217	-0.044
-265.267	1.206	0.135	-0.096
-264.253	-103.424	-0.145	-0.034
-263.238	224.306	0.052	0.084
-262.224	-57.969	0.300	0.130
-261.209	800.000	-0.096	-0.303
-260.195	-73.750	0.344	0.124
-259.180	-144.932	-0.060	-0.005
-258.165	484.211	-0.096	-0.216
-257.151	800.000	-0.055	0.182
-256.136	-86.332	0.226	-0.069
-255.122	470.003	-0.112	-0.249
-254.107	313.085	0.057	0.106
-253.092	-2.020	-0.307	0.214
-252.078	41.718	0.072	-0.064
-251.063	61.448	0.112	-0.110
-250.049	800.000	0.094	0.395
-249.034	155.929	-0.127	-0.173
-248.019	800.000	0.052	-0.160
-247.005	-5.394	0.184	0.125
-245.990	201.760	-0.084	0.128
-244.976	66.937	0.074	0.075
-243.961	89.849	-0.172	-0.190
-242.946	800.000	-0.066	-0.213
-241.932	-200.000	-0.063	-0.560
-240.917	422.571	-0.097	0.206
-239.903	-49.772	0.079	0.037
-238.888	800.000	-0.216	0.621
-237.873	761.497	0.083	0.222
-236.859	-39.767	0.340	0.176
-235.844	-200.000	-0.004	0.020
-234.830	326.863	0.073	0.139
-233.815	-5.185	-0.139	0.094
-232.800	-79.082	-0.281	0.094
-231.786	800.000	-0.082	-0.245
-230.771	-35.083	0.172	0.093
-229.757	172.388	0.087	-0.124
-228.742	-100.594	-0.287	0.070
-227.727	6.204	-0.371	-0.272
-226.713	254.933	0.097	0.164
-225.698	161.784	0.133	0.184
-224.684	-81.398	-0.186	0.061
-223.669	723.698	0.099	0.260
-222.655	-98.063	0.057	0.015
-221.640	-47.757	0.259	-0.124
-220.625	-1.971	0.165	0.114
-219.611	53.752	0.195	0.185
-218.596	378.411	-0.159	0.322
-217.582	-50.754	0.194	0.090
-216.567	-200.000	0.026	0.349
-215.552	-146.910	-0.266	-0.023
-214.538	-24.741	-0.355	0.209
-213.523	85.893	0.186	-0.202
-212.509	-16.342	-0.093	-0.058
-211.494	-200.000	-0.082	-0.611
-210.479	-169.327	0.141	-0.005
-209.465	-52.980	0.140	-0.064
-208.450	-200.000	0.034	-0.191
-207.436	-148.140	0.286	0.023
-206.421	48.570	0.156	-0.145
-205.406	-200.000	0.007	-0.064
-204.392	62.840	0.154	-0.152
-203.377	742.080	-0.054	-0.144
-202.363	-134.524	0.163	-0.020
-201.348	-200.000	-0.013	0.200
-200.333	-80.133	0.646	0.214
-199.319	-200.000	0.005	0.208
-198.304	-116.744	-0.068	-0.012
-197.290	49.804	-0.374	0.348
-196.275	443.584	-0.089	0.193
-195.260	-64.498	-0.176	0.070
-194.246	-126.109	0.041	0.006
-193.231	61.151	-0.074	-0.073
-192.217	-200.000	-0.010	-0.253
-191.202	-128.197	0.198	0.028
-190.187	17.912	-0.243	-0.191
-189.173	-130.128	-0.053	-0.007
-188.158	-45.122	-0.509	0.250
-187.144	50.904	-0.254	0.238
-186.129	14.486	0.115	0.089
-185.114	-131.566	-0.151	-0.020
-184.100	-19.640	-0.020	-0.012
-183.085	-200.000	0.057	-0.312
-182.071	-45.849	0.270	0.132
-181.056	71.126	0.168	0.172
-180.042	-84.298	0.306	-0.096
-179.027	-200.000	-0.021	0.162
-178.012	451.644	-0.097	-0.212
-176.998	-200.000	0.015	-0.194
-175.983	800.000	0.094	-0.298
-174.969	-200.000	0.022	0.103
-173.954	68.359	0.079	0.080
-172.939	-107.404	0.153	-0.033
-171.925	74.797	0.166	-0.172
-170.910	-89.711	-0.149	0.043
-169.896	409.171	0.050	-0.103
-168.881	-99.125	-0.072	-0.018
-167.866	75.084	0.083	-0.086
-166.852	-134.863	0.393	-0.047
-165.837	-200.000	-0.042	0.208
-164.823	3.720	-0.193	-0.139
-163.808	-60.924	-0.114	-0.048
-162.793	-200.000	-0.005	-0.092
-161.779	-120.966	0.234	0.039
-160.764	-99.652	-0.245	-0.061
-159.750	-200.000	-0.025	0.248
-158.735	40.930	0.273	0.243
-157.720	98.942	-0.147	0.168
-156.706	-200.000	-0.007	0.077
-155.691	89.447	0.112	-0.123
-154.677	373.794	0.145	0.291
-153.662	-104.598	0.096	-0.022
-152.647	-56.422	0.168	0.073
-151.633	330.963	-0.148	-0.282
-150.618	-85.312	0.180	-0.055
-149.604	55.969	-0.106	-0.101
-148.589	-23.070	0.115	-0.068
-147.574	32.613	-0.129	0.110
-146.560	-13.366	-0.166	-0.106
-145.545	-94.649	0.151	0.040
-144.531	164.647	0.176	0.244
-143.516	-94.243	-0.249	0.067
-142.502	22.110	-0.228	-0.184
-141.487	363.234	-0.149	0.294
-140.472	-200.000	0.011	0.091
-139.458	-200.000	-0.082	0.412
-138.443	800.000	0.068	-0.253
-137.429	-161.314	0.176	-0.009
-136.414	800.000	-0.065	0.198
-135.399	-163.446	-0.335	-0.016
-134.385	-195.584	0.096	0.001
-133.370	-150.354	-0.318	0.024
-132.356	-45.460	-0.218	-0.106
-131.341	-31.166	0.177	-0.098
-130.326	-70.608	-0.184	0.069
-129.312	490.359	0.119	0.267
-128.297	-200.000	0.010	0.046
-127.283	-135.398	0.176	-0.021
-126.268	-200.000	-0.030	-0.148
-125.253	92.506	-0.209	-0.232
-124.239	-119.423	0.090	-0.015
-123.224	-200.000	-0.023	0.247
-122.210	152.504	0.150	0.202
-121.195	108.098	0.140	-0.164
-120.180	-172.941	-0.206	-0.006
-119.166	36.480	-0.220	-0.191
-118.151	188.756	-0.274	-0.404
-117.137	64.009	0.058	-0.058
-116.122	-106.960	0.375	-0.082
-115.107	-8.605	-0.101	-0.067
-114.093	-2.240	0.364	-0.251
-113.078	-132.871	0.319	-0.040
-112.064	-180.377	-0.338	0.007
-111.049	8.601	0.045	0.034
-110.034	-200.000	0.036	-0.262
-109.020	-200.000	0.005	0.067
-108.005	-124.285	0.226	-0.035
-106.991	215.652	0.050	-0.078
-105.976	-200.000	0.051	-0.400
-104.962	-34.716	-0.258	-0.139
-103.947	-200.000	0.059	0.644
-102.932	658.968	0.126	0.319
-101.918	0.080	-0.077	0.054
-100.903	-96.711	-0.165	-0.043
-99.889	800.000	-0.032	0.104
-98.874	800.000	-0.053	0.229
-97.859	-89.871	-0.187	-0.054
-96.845	-200.000	0.001	0.058
-95.830	-110.808	0.091	-0.018
-94.816	480.080	-0.081	-0.180
-93.801	39.812	-0.059	-0.052
-92.786	58.650	0.034	-0.033
-91.772	-65.330	0.146	-0.058
-90.757	-200.000	0.037	-0.277
-89.743	-81.693	-0.406	-0.131
-88.728	16.803	-0.265	0.206
-87.713	-200.000	-0.005	0.192
-86.699	323.504	-0.094	-0.177
-85.684	173.111	0.077	-0.109
-84.670	141.782	-0.140	0.182
-83.655	-45.325	0.110	0.054
-82.640	142.117	-0.140	0.183
-81.626	-77.354	0.147	0.050
-80.611	-46.494	-0.252	-0.122
-79.597	44.953	0.051	-0.047
-78.582	800.000	0.047	-0.129
-77.567	-93.109	0.254	-0.070
-76.553	231.563	0.106	-0.171
-75.538	89.091	-0.140	-0.153
-74.524	239.345	0.040	-0.066
-73.509	-156.207	-0.064	0.004
-72.494	46.042	0.146	-0.133
-71.480	435.465	-0.051	-0.109
-70.465	-37.496	0.002	-0.001
-69.451	-200.000	0.009	-0.112
-68.436	-15.805	-0.130	0.081
-67.422	-38.760	0.091	-0.047
-66.407	800.000	-0.061	-0.249
-65.392	277.094	0.121	-0.212
-64.378	27.165	0.265	-0.219
-63.363	298.046	0.187	0.338
-62.349	45.566	0.072	-0.065
-61.334	99.920	-0.837	-0.953
-60.319	-33.937	0.568	0.307
-59.305	209.829	-0.671	-1.033
-58.290	597.015	0.498	1.213
-57.276	771.579	0.624	1.671
-56.261	-200.000	100.857	585.047
-55.246	544.519	1436.304	3369.595
-54.232	184.451	2640.524	3842.543
-53.217	116.695	2167.561	2612.349
-52.203	42.659	1606.975	1437.002
-51.188	33.988	1339.440	1145.748
-50.173	30.865	1296.740	1090.923
-49.159	53.976	1347.775	1272.397
-48.144	55.222	1364.398	1295.473
-47.130	34.155	1321.327	1131.072
-46.115	30.576	1303.507	1094.740
-45.100	30.424	1298.622	1089.704
-44.086	30.342	1295.940	1086.931
-43.071	30.284	1294.057	1084.971
-42.057	30.237	1291.938	1082.873
-41.042	30.317	1290.269	1081.899
-40.027	30.380	1288.948	1081.117
-39.013	30.349	1286.915	1079.184
-37.998	30.389	1284.914	1077.700
-36.984	30.395	1283.650	1076.629
-35.969	30.452	1281.332	1074.976
-34.954	30.395	1280.591	1073.982
-33.940	30.457	1279.081	1073.029
-32.925	30.570	1277.373	1072.203
-31.911	30.585	1275.638	1070.793
-30.896	30.585	1274.462	1069.761
-29.881	30.535	1273.308	1068.461
-28.867	30.599	1271.691	1067.430
-27.852	30.616	1270.640	1066.605
-26.838	30.531	1269.504	1065.125
-25.823	30.425	1268.482	1063.615
-24.809	30.472	1266.785	1062.419
-23.794	30.576	1265.195	1061.637
-22.779	30.523	1263.827	1060.143
-21.765	30.494	1262.617	1058.923
-20.750	30.511	1261.396	1057.953
-19.736	30.352	1260.517	1056.269
-18.721	30.385	1258.748	1054.932
-17.706	30.489	1257.351	1054.310
-16.692	30.421	1256.482	1053.156
-15.677	30.433	1255.346	1052.230
-14.663	30.352	1254.550	1051.062
-13.648	30.419	1253.196	1050.263
-12.633	30.313	1252.197	1048.788
-11.619	30.431	1251.634	1048.937
-10.604	30.408	1250.508	1047.825
-9.590	30.364	1249.499	1046.691
-8.575	30.330	1249.091	1046.115
-7.560	30.283	1248.155	1045.026
-6.546	30.301	1247.220	1044.301
-5.531	30.352	1246.082	1043.591
-4.517	30.316	1245.355	1042.741
-3.502	30.331	1244.449	1042.027
-2.487	30.393	1243.453	1041.497
-1.473	30.531	1239.394	1038.827
-0.458	29.281	1225.586	1020.298
0.556	27.634	1208.005	982.875
1.571	23.966	1212.681	966.703
2.586	22.768	1227.561	971.882
3.600	21.964	1214.749	957.270
4.615	16.680	1143.309	873.697
5.629	8.487	1069.928	777.823
6.644	4.786	1050.745	746.102
7.659	4.512	1047.827	742.652
8.673	4.307	1046.799	740.878
9.688	4.346	1045.110	739.804
10.702	4.809	1043.866	741.063
11.717	10.199	1050.805	771.687
12.731	18.157	1061.762	817.873
13.746	21.768	1066.191	838.521
14.761	21.972	1066.045	839.305
15.775	21.090	1064.585	833.870
16.790	20.192	1062.251	827.685
17.804	19.427	1061.253	823.184
18.819	19.290	1060.176	821.620
19.834	19.286	1059.216	820.784
20.848	19.051	1058.870	819.326
21.863	18.779	1058.111	817.373
22.877	18.761	1056.826	816.221
23.892	18.697	1056.307	815.447
24.907	18.509	1055.943	814.200
25.921	18.632	1054.908	813.910
26.936	18.703	1053.398	813.014
27.950	18.764	1051.805	812.000
28.965	18.799	1050.695	811.237
29.980	18.879	1049.632	810.721
30.994	19.043	1048.241	810.349
32.009	19.094	1047.477	809.927
33.023	19.061	1045.970	808.531
34.038	18.973	1045.230	807.477
35.053	18.893	1044.260	806.280
36.067	18.736	1043.188	804.644
37.082	18.843	1042.608	804.627
38.096	18.958	1042.007	804.633
39.111	18.849	1041.572	803.714
40.126	18.761	1040.011	802.026
41.140	18.492	1038.293	799.375
42.155	18.383	1036.803	797.650
43.169	18.261	1035.712	796.173
44.184	18.344	1035.185	796.083
45.199	18.266	1034.373	795.026
46.213	18.428	1033.432	794.986
47.228	18.703	1032.920	795.797
48.242	18.756	1031.353	794.766
49.257	18.617	1030.771	793.604
50.271	18.848	1029.680	793.760
51.286	18.928	1028.902	793.457
52.301	18.727	1027.792	791.608
53.315	18.634	1026.831	790.370
54.330	18.497	1025.960	788.994
55.344	18.510	1024.987	788.238
56.359	18.647	1023.792	787.880
57.374	18.436	1023.111	786.319
58.388	18.305	1022.357	785.068
59.403	18.238	1021.297	783.879
60.417	18.248	1020.602	783.318
61.432	18.253	1019.647	782.541
62.447	18.176	1018.961	781.595
63.461	18.150	1017.895	780.585
64.476	18.040	1017.086	779.395
65.490	18.065	1016.211	778.770
66.505	18.194	1015.303	778.593
67.520	18.197	1014.820	778.169
68.534	18.250	1014.122	777.806
69.549	18.175	1013.355	776.805
70.563	18.120	1012.739	776.016
71.578	17.955	1011.827	774.499
72.593	17.764	1011.526	773.337
73.607	17.823	1010.577	772.808
74.622	17.860	1010.571	772.904
75.636	17.909	1009.449	772.197
76.651	18.020	1008.617	771.993
77.666	18.047	1008.295	771.801
78.680	17.992	1007.207	770.654
79.695	18.156	1006.887	771.079
80.709	18.299	1006.100	771.051
81.724	18.371	1005.711	771.011
82.739	18.432	1005.098	770.749
83.753	18.720	1004.395	771.432
84.768	19.022	1003.663	772.160
85.782	19.230	1002.744	772.316
86.797	19.198	1001.864	771.429
87.812	18.826	1001.081	769.089
88.826	18.901	999.961	768.497
89.841	19.067	999.148	768.545
90.855	19.041	998.134	767.584
91.870	19.046	997.879	767.340
92.884	19.005	997.017	766.425
93.899	18.883	996.112	765.121
94.914	19.121	995.286	765.477
95.928	19.028	994.695	764.542
96.943	18.818	993.536	762.652
97.957	18.746	992.646	761.582
98.972	18.903	991.637	761.433
99.987	18.829	991.100	760.629
101.001	18.874	990.131	760.016
102.016	18.891	988.983	759.143
103.030	19.041	988.166	759.109
104.045	18.917	987.493	757.980
105.060	18.816	986.220	756.488
106.074	18.429	985.360	754.061
107.089	18.417	983.782	752.732
108.103	18.261	982.922	751.323
109.118	18.189	982.111	750.322
110.133	18.081	981.297	749.160
111.147	18.234	980.183	748.916
112.162	18.094	980.320	748.339
113.176	18.350	979.330	748.638
114.191	18.477	978.650	748.605
115.206	18.378	977.808	747.462
116.220	18.288	976.671	746.134
117.235	18.294	975.712	745.364
118.249	18.335	975.049	744.970
119.264	18.250	974.112	743.818
120.279	18.135	973.741	742.969
121.293	18.048	972.729	741.755
122.308	17.953	971.722	740.507
123.322	17.988	970.367	739.562
124.337	17.867	969.605	738.389
125.352	18.025	968.354	738.058
126.366	17.929	967.867	737.204
127.381	17.996	966.560	736.434
128.395	18.082	965.909	736.244
129.410	18.196	964.822	735.838
130.424	18.102	964.252	734.933
131.439	18.362	963.398	735.336
132.454	18.376	962.927	734.972
133.468	18.473	962.211	734.775
134.483	18.383	961.198	733.553
135.497	18.308	960.432	732.580
136.512	18.559	959.558	732.923
137.527	18.553	958.649	732.136
138.541	18.445	958.164	731.242
139.556	18.432	957.726	730.786
140.570	18.668	956.965	731.148
141.585	18.877	956.673	731.752
142.600	18.834	955.640	730.714
143.614	18.953	954.787	730.502
144.629	19.007	954.233	730.242
145.643	18.963	952.650	728.779
146.658	18.809	951.374	727.089
147.673	18.746	950.426	726.033
148.687	18.610	949.511	724.693
149.702	18.455	948.447	723.164
150.716	18.447	948.201	722.879
151.731	18.475	947.331	722.268
152.746	18.573	946.404	721.912
153.760	18.599	946.102	721.727
154.775	18.591	945.804	721.400
155.789	18.814	945.015	721.674
156.804	18.793	944.493	721.121
157.819	18.834	943.696	720.622
158.833	19.005	943.190	720.887
159.848	19.093	942.237	720.462
160.862	18.799	941.218	718.394
161.877	18.636	939.920	716.656
162.892	18.424	939.059	715.051
163.906	18.443	937.890	714.177
164.921	18.436	937.144	713.517
165.935	18.697	935.972	713.647
166.950	18.701	935.387	713.155
167.964	18.509	934.599	711.693
168.979	18.427	933.512	710.465
169.994	18.624	932.941	710.784
171.008	18.722	932.312	710.648
172.023	18.899	931.643	710.806
173.037	19.009	931.022	710.725
174.052	18.769	930.527	709.290
175.067	18.460	929.404	707.098
176.081	18.430	928.769	706.428
177.096	18.417	928.028	705.749
178.110	18.468	927.785	705.713
179.125	18.594	927.470	705.929
180.140	18.557	926.779	705.188
181.154	18.765	926.488	705.759
182.169	18.940	926.131	706.145
183.183	19.094	925.376	706.138
184.198	18.964	924.741	705.057
185.213	19.031	924.002	704.705
186.227	19.027	923.194	704.009
187.242	19.115	922.673	703.910
188.256	19.235	922.429	704.153
189.271	19.173	921.531	703.151
190.286	18.927	920.388	701.215
191.300	18.530	918.993	698.473
192.315	18.375	918.474	697.387
193.329	18.465	918.037	697.358
194.344	18.534	917.720	697.337
195.359	18.787	916.577	697.434
196.373	18.901	916.609	697.858
197.388	19.115	916.222	698.369
198.402	19.208	915.823	698.382
199.417	19.304	915.470	698.440
200.432	19.503	914.891	698.744
201.446	19.508	914.551	698.442
202.461	19.463	914.316	698.018
203.475	19.405	913.638	697.203
204.490	19.176	912.444	695.305
205.504	19.058	911.747	694.238
206.519	19.143	910.284	693.404
207.534	19.152	909.824	693.030
208.548	19.020	909.510	692.197
209.563	19.037	908.900	691.739
210.577	19.254	907.910	691.797
211.592	19.388	907.474	691.940
212.607	19.507	906.800	691.843
213.621	19.449	906.045	690.975
214.636	19.146	905.715	689.446
215.650	19.317	904.790	689.366
216.665	19.536	903.900	689.503
217.680	19.610	903.508	689.439
218.694	19.643	903.360	689.395
219.709	19.499	902.409	688.036
220.723	19.389	901.977	687.206
221.738	19.473	900.801	686.582
222.753	19.452	900.169	685.958
223.767	19.495	900.117	686.027
224.782	19.551	899.593	685.792
225.796	19.752	899.018	686.089
226.811	19.639	898.068	684.857
227.826	19.370	897.499	683.293
228.840	19.289	896.771	682.361
229.855	19.377	895.703	681.836
230.869	19.411	894.811	681.229
231.884	19.281	894.237	680.219
232.899	19.299	893.432	679.616
233.913	19.227	892.768	678.770
234.928	19.143	892.308	678.029
235.942	18.945	892.196	677.102
236.957	19.089	890.996	676.698
237.972	19.087	890.872	676.537
238.986	19.077	889.936	675.729
240.001	19.196	889.169	675.553
241.015	19.249	888.638	675.297
242.030	19.461	888.306	675.816
243.045	19.467	887.727	675.339
244.059	19.411	887.347	674.769
245.074	19.507	886.640	674.546
246.088	19.518	885.908	673.975
247.103	19.706	885.616	674.428
248.117	19.847	885.338	674.706
249.132	20.288	884.654	675.841
250.147	20.310	884.393	675.668
251.161	20.289	883.937	675.180
252.176	20.302	883.460	674.803
253.190	20.455	882.353	674.494
254.205	20.502	882.137	674.449
255.220	20.431	881.025	673.269
256.234	20.252	880.570	672.166
257.249	20.334	879.803	671.839
258.263	20.390	878.716	671.166
259.278	20.279	878.434	670.461
260.293	20.479	878.197	670.994
261.307	20.560	877.550	670.754
262.322	20.585	876.923	670.311
263.336	20.390	876.251	668.984
264.351	20.418	875.574	668.518
265.366	20.465	874.988	668.191
266.380	20.536	874.300	667.879
267.395	20.326	873.876	666.692
268.409	20.308	872.730	665.689
269.424	20.463	871.227	665.078
270.439	20.264	871.202	664.238
271.453	20.143	870.649	663.294
272.468	20.053	870.257	662.591
273.482	20.276	869.421	662.749
274.497	20.172	868.517	661.606
275.512	20.100	868.267	661.081
276.526	20.290	867.868	661.444
277.541	20.245	867.534	660.959
278.555	20.432	866.981	661.189
279.570	20.628	866.203	661.285
280.585	20.537	865.697	660.493
281.599	20.463	864.577	659.298
282.614	20.327	864.200	658.438
283.628	20.336	863.256	657.695
284.643	20.340	862.992	657.449
285.657	20.400	861.925	656.808
286.672	20.429	861.659	656.655
287.687	20.443	860.817	656.007
288.701	20.344	860.541	655.366
289.716	20.462	859.795	655.186
290.730	20.423	859.686	654.897
291.745	20.374	859.120	654.222
292.760	20.544	858.615	654.422
293.774	20.699	858.313	654.715
294.789	20.711	857.104	653.780
295.803	20.421	856.392	652.092
296.818	20.377	855.373	651.094
297.833	20.533	854.689	651.100
298.847	20.469	854.490	650.650
299.862	20.510	854.112	650.459
300.876	20.651	853.716	650.627
301.891	20.852	852.913	650.706
302.906	20.879	852.287	650.273
303.920	20.909	852.554	650.533
304.935	21.209	851.901	651.094
305.949	20.896	851.179	649.319
306.964	20.753	850.420	648.149
307.979	20.749	849.550	647.415
308.993	20.832	849.504	647.632
310.008	20.920	848.616	647.222
311.022	20.804	847.766	646.087
312.037	20.711	846.854	644.991
313.052	20.671	846.484	644.503
314.066	20.400	845.839	642.951
315.081	20.434	845.418	642.701
316.095	20.606	844.704	642.736
317.110	20.532	844.417	642.190
318.125	20.495	843.547	641.335
319.139	20.494	843.103	640.934
320.154	20.530	842.520	640.569
321.168	20.481	842.273	640.143
322.183	20.639	841.686	640.223
323.197	20.594	840.928	639.424
324.212	20.637	840.813	639.437
325.227	20.623	840.333	638.964
326.241	20.613	839.595	638.308
327.256	20.566	839.206	637.784
328.270	20.409	838.693	636.763
329.285	20.484	838.053	636.495
330.300	20.690	837.058	636.439
331.314	20.774	836.372	636.165
332.329	20.856	836.322	636.372
333.343	20.926	836.006	636.329
334.358	20.711	835.945	635.444
335.373	20.909	835.221	635.560
336.387	20.945	835.306	635.699
337.402	20.933	835.126	635.460
338.416	21.162	834.857	636.036
339.431	21.330	834.360	636.213
340.446	21.322	834.088	635.917
341.460	21.461	833.295	635.763
342.475	21.485	833.279	635.784
343.489	21.563	833.107	635.878
344.504	21.480	832.468	635.033
345.519	21.593	832.118	635.120
346.533	21.403	831.416	633.837
347.548	21.309	830.353	632.633
348.562	21.030	830.042	631.330
349.577	20.882	829.234	630.122
350.592	20.807	828.449	629.198
351.606	20.906	827.604	628.859
352.621	20.935	826.790	628.289
353.635	20.905	826.816	628.146
354.650	21.092	826.249	628.333
355.665	21.217	825.517	628.170
356.679	21.465	824.410	628.164
357.694	21.365	824.070	627.489
358.708	21.224	823.875	626.781
359.723	21.350	822.939	626.464
360.738	21.171	822.935	625.764
361.752	21.394	821.805	625.647
362.767	21.529	821.724	626.014
363.781	21.565	821.136	625.640
364.796	21.761	820.844	626.062
365.810	21.934	820.167	626.107
366.825	21.930	819.687	625.672
367.840	21.936	819.428	625.438
368.854	21.574	818.900	623.692
369.869	21.419	818.439	622.733
370.883	21.709	817.836	623.250
371.898	21.842	817.512	623.421
372.913	21.954	817.253	623.566
373.927	21.869	816.476	622.618
374.942	21.754	816.470	622.148
375.956	21.876	816.352	622.437
376.971	22.014	815.654	622.340
377.986	22.100	815.152	622.205
379.000	22.040	814.834	621.694
380.015	22.144	813.770	621.196
381.029	22.040	813.344	620.449
382.044	22.016	813.044	620.082
383.059	22.122	812.384	619.898
384.073	21.884	811.616	618.416
385.088	21.816	810.767	617.474
386.102	21.592	810.547	616.465
387.117	21.581	809.574	615.631
388.132	21.711	809.399	615.902
389.146	21.768	808.392	615.280
390.161	21.941	808.491	615.910
391.175	21.975	807.991	615.594
392.190	21.963	807.182	614.877
393.205	21.661	806.677	613.383
394.219	21.580	806.629	613.009
395.234	21.732	805.510	612.634
396.248	21.672	805.200	612.136
397.263	21.473	804.588	610.920
398.278	21.385	804.862	610.767
399.292	21.533	803.855	610.466
400.307	21.571	803.271	610.100
401.321	21.540	803.089	609.801
402.336	21.646	802.562	609.717
403.350	21.810	802.453	610.151
404.365	21.963	802.351	610.548
405.380	22.185	801.542	610.653
406.394	22.189	801.443	610.537
407.409	22.225	800.804	610.121
408.423	22.229	800.694	609.996
409.438	22.331	799.945	609.724
410.453	22.363	800.095	609.897
411.467	22.485	799.278	609.641
412.482	22.528	799.300	609.754
413.496	22.620	798.791	609.629
414.511	22.458	798.408	608.725
415.526	22.392	797.935	608.081
416.540	22.437	797.104	607.548
417.555	22.359	796.858	607.038
418.569	22.477	796.525	607.139
419.584	22.499	796.104	606.839
420.599	22.499	795.354	606.215
421.613	163.849	1368.876	1795.419
422.628	142.229	1452.449	1795.546
