DTS Sentinel unit serial number:	SN413079Multiplexer serial number:	ORYXHardware model number:	OX4-SRSoftware version number:	ORYX F/W v4.00 Oryx Data Collector v3.7.2.0data status	okinstallation	princeton_trtdifferential loss correction	single-endedforward channel	channel 1reverse channel	N/Adate	2019/09/12time	18:14:34forward acquisition time	15.00reverse acquisition time	0.00gamma	496.2192k internal	0.2317k external	0.2317temperature offset calibration	1.0093default loss term (dB/km)	0.3790temperature slope calibration	1.0000multiplexer offset coefficient	1.0000multiplexer slope coefficient	1.0000fibre end	0.00T internal ref (°C)	33.50T ext. ref 1 (°C)	2.88T ext. ref 2 (°C)	28.08length (m)	temperature (°C)	Stokes	anti-Stokes-747.200	-11.672	0.331	-0.220
-746.185	800.000	0.046	-0.148
-745.171	61.273	0.588	-0.592
-744.156	49.449	0.521	-0.496
-743.142	-71.003	1.127	-0.429
-742.127	800.000	0.082	-0.362
-741.112	-19.978	0.983	-0.614
-740.098	47.175	-0.370	-0.348
-739.083	72.136	0.159	-0.168
-738.069	4.691	0.213	-0.158
-737.054	800.000	0.410	-1.516
-736.039	29.503	-0.561	-0.482
-735.025	51.309	0.327	0.314
-734.010	559.514	0.261	0.637
-732.996	-83.040	0.325	-0.106
-731.981	-36.991	-0.590	-0.320
-730.966	-79.150	-0.044	0.015
-729.952	217.945	-0.256	0.414
-728.937	514.095	-0.118	-0.278
-727.923	133.071	-0.274	-0.358
-726.908	-98.301	-0.986	0.256
-725.894	800.000	-0.187	-0.694
-724.879	-200.000	-0.020	0.301
-723.864	362.000	0.080	-0.162
-722.850	182.181	-0.427	-0.637
-721.835	-142.406	-0.244	0.024
-720.821	161.586	-0.249	-0.353
-719.806	-200.000	-0.133	-0.699
-718.791	800.000	0.076	0.225
-717.777	-200.000	0.023	-0.717
-716.762	33.928	-0.729	0.642
-715.748	-200.000	-1.158	-0.001
-714.733	539.106	-0.483	-1.163
-713.718	-19.110	-0.201	0.126
-712.704	-72.417	-0.227	-0.085
-711.689	800.000	0.146	0.478
-710.675	137.042	0.395	-0.522
-709.660	-200.000	0.026	0.226
-708.645	-112.533	-0.324	0.065
-707.631	-136.154	-0.371	-0.044
-706.616	-187.852	-0.220	-0.003
-705.602	38.816	0.452	-0.408
-704.587	315.790	-0.450	-0.858
-703.572	-200.000	0.215	-1.032
-702.558	800.000	-0.134	-0.432
-701.543	102.502	0.406	-0.480
-700.529	164.352	-0.289	0.412
-699.514	-56.964	0.822	0.367
-698.499	-200.000	-0.005	0.069
-697.485	-200.000	0.242	-1.224
-696.470	-33.241	-0.321	0.180
-695.456	-71.444	0.406	0.153
-694.441	-48.148	0.972	-0.474
-693.426	192.052	0.287	-0.437
-692.412	97.256	-0.184	-0.214
-691.397	-49.548	0.782	-0.376
-690.383	38.195	0.364	-0.328
-689.368	800.000	-0.194	-0.857
-688.354	12.734	-0.376	-0.294
-687.339	24.733	0.341	0.285
-686.324	208.203	-0.293	0.463
-685.310	-54.789	0.733	0.334
-684.295	776.786	0.135	0.372
-683.281	-190.344	0.648	0.007
-682.266	92.738	-0.488	-0.556
-681.251	-76.767	0.720	-0.254
-680.237	446.012	-0.169	0.375
-679.222	-46.125	-0.125	0.062
-678.208	-103.239	-0.544	-0.130
-677.193	-107.818	0.547	0.120
-676.178	-140.628	-0.068	-0.007
-675.164	-28.268	0.313	0.183
-674.149	-138.732	-0.510	-0.056
-673.135	-8.979	0.483	0.326
-672.120	300.395	-0.393	-0.732
-671.105	10.607	-0.258	-0.199
-670.091	146.819	-0.226	0.307
-669.076	514.360	0.301	-0.710
-668.062	800.000	0.380	-1.137
-667.047	-200.000	-0.009	-0.106
-666.032	-78.993	0.449	-0.154
-665.018	180.769	-0.386	-0.572
-664.003	-8.903	0.256	0.173
-662.989	744.476	-0.326	0.887
-661.974	-200.000	-0.038	0.229
-660.959	28.507	0.653	-0.558
-659.945	252.254	0.146	0.252
-658.930	-9.437	-0.766	0.516
-657.916	28.363	-0.433	-0.369
-656.901	92.795	-0.792	-0.902
-655.886	-200.000	-0.099	-0.635
-654.872	-125.851	-0.758	-0.115
-653.857	-200.000	-0.078	-0.699
-652.843	191.174	0.030	-0.046
-651.828	-109.705	0.595	0.126
-650.814	-18.714	0.154	0.097
-649.799	544.052	0.371	-0.894
-648.784	-95.403	0.382	-0.104
-647.770	-73.195	0.350	0.129
-646.755	328.527	0.382	0.739
-645.741	471.584	-0.221	-0.502
-644.726	-73.444	-0.404	-0.149
-643.711	800.000	-0.287	-0.970
-642.697	56.877	0.141	0.138
-641.682	88.397	0.614	-0.688
-640.668	46.752	0.548	-0.513
-639.653	-76.003	0.285	-0.102
-638.638	52.931	0.703	-0.678
-637.624	-200.000	0.070	-1.152
-636.609	-116.792	0.582	-0.108
-635.595	-200.000	-0.021	0.350
-634.580	581.205	0.067	-0.164
-633.565	-200.000	-0.200	-0.990
-632.551	-99.187	0.512	0.130
-631.536	8.395	0.608	0.461
-630.522	-35.587	0.274	0.150
-629.507	-152.101	-0.684	0.050
-628.492	-65.211	-0.831	0.337
-627.478	243.155	-0.136	-0.231
-626.463	98.386	-0.436	-0.507
-625.449	14.362	-0.350	0.275
-624.434	130.627	0.336	0.435
-623.419	-200.000	-0.041	0.749
-622.405	-72.141	0.404	-0.151
-621.390	-200.000	-0.082	-0.809
-620.376	-200.000	0.005	0.415
-619.361	-165.723	-0.322	0.014
-618.346	800.000	-0.221	0.641
-617.332	-181.337	-0.598	-0.012
-616.317	-88.868	0.130	0.039
-615.303	491.885	-0.218	0.502
-614.288	-200.000	-0.504	-0.002
-613.273	-109.483	0.637	-0.136
-612.259	-200.000	0.019	0.403
-611.244	-200.000	-0.016	0.973
-610.230	308.401	0.248	0.467
-609.215	186.729	-0.182	0.273
-608.201	250.285	-0.353	-0.603
-607.186	-89.733	-0.228	0.067
-606.171	-200.000	-0.010	0.095
-605.157	-23.733	-0.501	0.302
-604.142	-62.991	0.515	0.214
-603.128	-200.000	0.090	1.151
-602.113	-69.901	-0.702	0.269
-601.098	7.355	0.174	-0.131
-600.084	-112.413	-0.306	-0.062
-599.069	-186.236	0.099	-0.001
-598.055	337.216	0.147	0.287
-597.040	800.000	-0.178	0.700
-596.025	-200.000	0.025	0.460
-595.011	-200.000	0.021	0.218
-593.996	-114.597	-0.537	0.103
-592.982	-97.921	-0.623	0.162
-591.967	255.154	0.235	-0.405
-590.952	35.220	0.342	-0.301
-589.938	119.096	-0.251	0.313
-588.923	800.000	-0.053	0.150
-587.909	49.210	-0.584	-0.553
-586.894	96.377	-0.311	-0.358
-585.879	-200.000	0.027	0.319
-584.865	-124.657	-0.547	0.085
-583.850	388.235	-0.442	-0.920
-582.836	-14.548	-0.044	-0.029
-581.821	-28.293	0.893	-0.519
-580.806	246.421	-0.261	0.442
-579.792	3.059	-0.471	-0.344
-578.777	-15.014	0.894	-0.576
-577.763	-8.963	-0.619	-0.417
-576.748	-85.014	0.694	-0.219
-575.733	119.681	0.055	0.069
-574.719	146.323	0.272	-0.367
-573.704	381.719	0.195	-0.403
-572.690	23.279	0.640	-0.529
-571.675	-38.027	-0.477	-0.255
-570.661	-119.763	-0.113	-0.020
-569.646	-200.000	-0.026	0.688
-568.631	15.823	0.593	0.469
-567.617	15.948	-0.084	-0.066
-566.602	-29.588	0.060	0.035
-565.588	-113.086	1.169	-0.232
-564.573	-200.000	-0.164	0.759
-563.558	-200.000	0.048	-0.767
-562.544	-133.923	-0.247	-0.031
-561.529	-200.000	0.072	-0.542
-560.515	-37.067	0.926	-0.499
-559.500	-64.950	0.776	-0.315
-558.485	98.248	-0.422	-0.488
-557.471	17.154	0.667	-0.531
-556.456	365.762	-0.270	-0.546
-555.442	-12.808	-0.734	-0.480
-554.427	-105.773	-0.307	0.070
-553.412	60.553	0.332	-0.330
-552.398	-73.206	-0.457	-0.168
-551.383	-154.124	-0.408	0.028
-550.369	-200.000	-0.014	-0.368
-549.354	-105.339	-0.130	-0.030
-548.339	151.264	-0.601	0.822
-547.325	380.804	-0.433	0.893
-546.310	-200.000	-0.060	-0.358
-545.296	800.000	-0.165	-0.553
-544.281	800.000	-0.140	-0.500
-543.266	-3.976	-0.930	-0.648
-542.252	-113.619	1.036	-0.203
-541.237	800.000	-0.184	-0.600
-540.223	-200.000	-0.065	-0.588
-539.208	209.831	0.058	-0.091
-538.193	-200.000	0.089	1.507
-537.179	94.500	0.551	-0.629
-536.164	-18.155	0.346	-0.217
-535.150	800.000	0.079	0.259
-534.135	-37.987	0.081	-0.043
-533.121	113.466	0.852	1.039
-532.106	-80.384	0.553	0.185
-531.091	245.776	-0.226	0.382
-530.077	203.124	0.169	0.263
-529.062	-200.000	0.155	-0.850
-528.048	800.000	0.146	-0.456
-527.033	-111.387	-0.640	-0.131
-526.018	-169.948	-0.369	0.013
-525.004	595.685	-0.187	-0.465
-523.989	431.227	0.196	0.425
-522.975	-200.000	0.033	-0.319
-521.960	134.588	-0.582	0.757
-520.945	-115.360	-0.466	0.088
-519.931	579.586	-0.442	-1.086
-518.916	-42.994	0.786	0.400
-517.902	2.454	0.537	-0.390
-516.887	-170.194	-0.919	0.033
-515.872	133.396	0.126	0.163
-514.858	-122.557	-0.664	-0.108
-513.843	-112.802	0.423	0.084
-512.829	-112.309	-0.176	0.035
-511.814	-91.057	-0.772	0.222
-510.799	135.557	0.243	-0.317
-509.785	800.000	-0.073	-0.257
-508.770	786.479	0.157	0.431
-507.756	-38.328	0.679	0.361
-506.741	229.530	0.190	-0.311
-505.726	-68.296	0.114	-0.045
-504.712	71.056	0.346	-0.360
-503.697	-50.382	0.758	0.359
-502.683	-83.644	-0.443	-0.142
-501.668	-33.094	-0.545	-0.303
-500.653	-158.246	-0.800	-0.047
-499.639	47.010	0.400	0.373
-498.624	68.660	0.187	-0.192
-497.610	122.623	-0.714	-0.896
-496.595	-118.243	-0.520	0.093
-495.581	-200.000	0.140	0.850
-494.566	-112.023	-0.641	0.129
-493.551	391.567	0.120	0.250
-492.537	38.340	-0.301	0.269
-491.522	-200.000	-0.003	0.168
-490.508	-98.114	0.229	0.059
-489.493	-10.885	0.217	-0.144
-488.478	-121.525	-1.712	0.285
-487.464	102.090	-0.094	0.110
-486.449	-56.419	0.365	-0.162
-485.435	-79.121	-0.091	-0.031
-484.420	85.483	0.191	-0.211
-483.405	800.000	0.154	0.426
-482.391	800.000	-0.199	-0.563
-481.376	196.798	-0.251	0.384
-480.362	800.000	0.323	1.019
-479.347	-200.000	-0.025	-0.153
-478.332	-108.053	0.185	-0.040
-477.318	-78.239	-0.786	-0.270
-476.303	-40.527	-0.473	0.246
-475.289	106.455	0.403	0.478
-474.274	27.914	0.240	0.203
-473.259	-60.568	0.347	-0.147
-472.245	73.089	0.317	0.332
-471.230	-1.704	0.425	-0.300
-470.216	188.788	0.288	-0.432
-469.201	-200.000	0.030	-0.427
-468.186	33.587	0.685	0.596
-467.172	292.170	-0.293	-0.535
-466.157	22.577	-0.283	0.232
-465.143	800.000	0.136	-0.396
-464.128	91.855	0.312	-0.352
-463.113	-136.532	-0.269	0.031
-462.099	92.003	-0.365	-0.411
-461.084	-200.000	0.200	1.041
-460.070	-51.260	-0.720	0.337
-459.055	-16.949	-0.339	-0.214
-458.040	-200.000	0.104	0.484
-457.026	194.827	-0.112	-0.170
-456.011	68.129	-0.639	-0.655
-454.997	110.629	-0.507	-0.610
-453.982	211.283	-0.153	-0.240
-452.968	576.136	0.126	-0.308
-451.953	3.800	-0.328	-0.240
-450.938	-200.000	0.105	0.590
-449.924	664.857	0.083	0.215
-448.909	-55.698	0.504	-0.226
-447.895	44.802	0.632	0.582
-446.880	-200.000	-0.066	0.921
-445.865	69.912	0.527	-0.543
-444.851	5.916	0.830	0.615
-443.836	-200.000	0.115	-0.508
-442.822	-106.764	-0.516	-0.115
-441.807	-69.353	0.682	-0.262
-440.792	800.000	0.164	-0.497
-439.778	800.000	0.147	0.417
-438.763	-200.000	-0.038	-0.907
-437.749	683.752	-0.304	-0.792
-436.734	800.000	-0.124	-0.475
-435.719	-36.674	0.610	-0.328
-434.705	61.191	0.610	-0.606
-433.690	-128.370	0.275	0.039
-432.676	444.012	0.226	0.495
-431.661	800.000	-0.212	0.673
-430.646	800.000	0.044	0.165
-429.632	-48.003	0.174	-0.084
-428.617	800.000	-0.138	-0.455
-427.603	800.000	0.209	0.586
-426.588	800.000	0.094	0.370
-425.573	-200.000	-0.035	-0.588
-424.559	-85.197	0.604	-0.189
-423.544	-103.242	-0.144	0.034
-422.530	143.404	0.069	-0.092
-421.515	-131.850	-0.482	-0.063
-420.500	800.000	0.151	0.518
-419.486	-27.463	0.634	0.368
-418.471	-200.000	0.023	1.056
-417.457	60.076	0.399	0.394
-416.442	685.750	-0.031	0.082
-415.428	155.343	0.359	0.494
-414.413	7.698	0.381	0.285
-413.398	109.776	-0.207	0.248
-412.384	-143.449	-1.076	-0.103
-411.369	297.994	-0.064	0.117
-410.355	800.000	0.165	0.620
-409.340	800.000	-0.141	0.537
-408.325	-132.283	-0.101	0.013
-407.311	-135.506	0.366	0.044
-406.296	299.784	-0.298	-0.548
-405.282	-9.998	-0.583	0.387
-404.267	120.818	0.029	-0.036
-403.252	508.464	-0.398	0.923
-402.238	-79.254	-0.742	-0.251
-401.223	164.032	0.146	0.206
-400.209	349.896	0.334	0.659
-399.194	-200.000	-0.018	-0.382
-398.179	-170.164	-0.624	-0.022
-397.165	230.540	-0.483	0.789
-396.150	-96.448	0.582	0.153
-395.136	-96.003	-0.590	-0.157
-394.121	134.522	0.067	0.086
-393.106	-200.000	0.062	-0.506
-392.092	-200.000	0.022	0.145
-391.077	800.000	-0.151	0.639
-390.063	-71.337	0.752	0.281
-389.048	-200.000	0.026	-0.190
-388.033	97.291	-0.284	-0.326
-387.019	-200.000	-0.067	0.651
-386.004	190.220	-0.584	0.876
-384.990	-59.604	0.796	-0.341
-383.975	-75.526	-0.290	-0.103
-382.960	-47.005	-0.683	-0.333
-381.946	86.644	-0.320	-0.353
-380.931	-172.507	0.620	0.020
-379.917	284.262	0.289	0.519
-378.902	71.662	0.611	-0.634
-377.888	-200.000	0.131	0.739
-376.873	-43.777	0.409	0.206
-375.858	595.911	0.326	0.806
-374.844	45.038	-0.206	-0.190
-373.829	-200.000	-0.032	0.757
-372.815	40.120	0.100	0.090
-371.800	-200.000	-0.059	-0.661
-370.785	-185.950	0.532	-0.008
-369.771	-108.829	-0.645	-0.138
-368.756	-18.955	0.299	0.185
-367.742	-102.524	0.264	-0.063
-366.727	-200.000	0.004	-0.466
-365.712	-102.721	-0.522	-0.124
-364.698	321.425	0.387	-0.735
-363.683	-64.805	-0.062	-0.025
-362.669	-200.000	-0.054	0.415
-361.654	114.496	-0.321	-0.390
-360.639	-200.000	-0.461	-0.001
-359.625	66.313	-0.426	-0.432
-358.610	-200.000	0.138	0.930
-357.596	86.664	-0.159	0.175
-356.581	-100.508	-0.669	-0.165
-355.566	-84.351	-0.768	-0.242
-354.552	-81.937	1.015	0.331
-353.537	32.685	-0.223	0.193
-352.523	-8.366	0.631	0.423
-351.508	65.789	0.252	-0.255
-350.493	76.298	-0.408	-0.431
-349.479	-143.362	0.753	0.072
-348.464	-200.000	-0.079	0.359
-347.450	44.090	-0.752	0.687
-346.435	-200.000	-0.131	0.604
-345.420	-101.573	0.844	0.204
-344.406	270.781	-0.151	0.265
-343.391	-39.999	-0.255	-0.133
-342.377	114.758	0.126	-0.153
-341.362	-200.000	0.019	-0.159
-340.348	-3.412	0.420	-0.291
-339.333	-144.772	0.623	-0.057
-338.318	-6.528	0.713	0.484
-337.304	27.618	-0.134	-0.113
-336.289	-70.775	0.846	0.318
-335.275	65.874	0.303	-0.307
-334.260	-200.000	0.015	-0.354
-333.245	104.690	-0.087	-0.102
-332.231	-118.588	0.922	-0.162
-331.216	74.145	-0.041	0.043
-330.202	372.050	0.162	-0.328
-329.187	-200.000	0.036	0.423
-328.172	208.681	-0.234	0.364
-327.158	114.436	-0.109	-0.132
-326.143	-190.103	-0.605	0.007
-325.129	200.624	0.279	0.427
-324.114	-200.000	0.079	-0.391
-323.099	-96.101	-0.454	-0.120
-322.085	-57.325	-0.383	-0.167
-321.070	-90.754	0.105	-0.030
-320.056	190.717	-0.247	0.369
-319.041	-200.000	0.012	-0.787
-318.026	-76.125	-0.672	-0.236
-317.012	-137.973	-0.234	0.026
-315.997	157.168	-0.237	0.326
-314.983	800.000	0.209	-0.827
-313.968	-75.475	0.713	-0.253
-312.953	-200.000	0.040	0.321
-311.939	293.934	-0.438	0.796
-310.924	1.291	0.627	-0.449
-309.910	-64.451	0.428	-0.173
-308.895	-82.742	-0.173	-0.056
-307.880	800.000	-0.134	0.444
-306.866	8.667	-0.671	-0.503
-305.851	426.464	-0.403	-0.865
-304.837	-108.430	0.495	0.106
-303.822	-141.107	0.231	-0.024
-302.807	-40.171	0.409	0.212
-301.793	-24.364	0.249	-0.148
-300.778	-72.918	-0.605	-0.221
-299.764	-75.849	0.470	-0.166
-298.749	-45.670	0.367	-0.180
-297.735	-110.841	-0.425	0.087
-296.720	800.000	-0.081	0.283
-295.705	-40.722	0.276	-0.142
-294.691	-43.940	0.527	0.264
-293.676	97.324	0.431	0.492
-292.662	-200.000	-0.065	0.401
-291.647	23.999	0.521	0.427
-290.632	305.581	-0.060	-0.111
-289.618	45.163	-0.294	-0.270
-288.603	-200.000	-0.033	-0.564
-287.589	-100.971	-0.153	0.037
-286.574	-66.176	0.639	-0.253
-285.559	404.397	-0.452	0.947
-284.545	-53.951	-0.192	-0.087
-283.530	-55.280	0.657	-0.293
-282.516	337.439	-0.112	-0.216
-281.501	-168.163	-1.117	0.043
-280.486	74.009	0.095	0.099
-279.472	-120.824	0.596	-0.100
-278.457	-101.581	0.195	-0.047
-277.443	66.061	-0.806	0.813
-276.428	-20.080	-0.928	-0.569
-275.413	-59.094	0.314	0.135
-274.399	-145.381	0.319	-0.029
-273.384	800.000	0.087	0.329
-272.370	52.214	-0.512	-0.485
-271.355	571.796	0.268	-0.648
-270.340	-148.731	-0.329	-0.027
-269.326	110.731	-0.518	-0.620
-268.311	27.719	-0.345	-0.289
-267.297	-167.136	0.100	0.004
-266.282	-96.129	-0.384	-0.101
-265.267	800.000	0.014	0.055
-264.253	-19.521	0.305	-0.187
-263.238	-129.031	-0.770	-0.107
-262.224	-108.336	0.547	-0.117
-261.209	82.117	-0.239	0.257
-260.195	-200.000	-0.041	-0.754
-259.180	-200.000	0.009	0.215
-258.165	403.945	-0.027	-0.056
-257.151	800.000	0.143	0.598
-256.136	-132.508	0.267	0.034
-255.122	800.000	-0.114	-0.490
-254.107	-24.262	-0.419	-0.248
-253.092	-200.000	-0.111	-0.532
-252.078	-157.972	-0.934	0.055
-251.063	800.000	-0.053	-0.225
-250.049	-84.798	-0.281	-0.088
-249.034	251.731	-0.100	-0.170
-248.019	800.000	-0.086	-0.365
-247.005	-54.715	-0.402	-0.181
-245.990	800.000	0.141	-0.607
-244.976	800.000	0.153	-0.649
-243.961	435.148	0.037	-0.079
-242.946	800.000	-0.140	-0.476
-241.932	601.253	0.149	-0.368
-240.917	-89.377	-0.622	0.182
-239.903	82.404	-0.173	-0.187
-238.888	545.220	-0.283	0.671
-237.873	-72.260	0.394	0.145
-236.859	-102.566	0.393	0.093
-235.844	-137.645	0.673	-0.075
-234.830	800.000	-0.082	0.318
-233.815	144.849	0.274	-0.363
-232.800	-200.000	0.027	-0.202
-231.786	-200.000	0.002	-0.676
-230.771	88.453	-0.458	-0.505
-229.757	-104.407	0.457	-0.105
-228.742	-72.019	-0.595	0.220
-227.727	26.563	0.143	-0.119
-226.713	800.000	0.173	-0.490
-225.698	800.000	-0.172	0.658
-224.684	-80.379	-0.698	0.231
-223.669	713.609	0.258	0.678
-222.655	-27.606	1.216	-0.701
-221.640	-200.000	0.007	0.759
-220.625	-200.000	0.022	0.205
-219.611	216.993	0.529	0.835
-218.596	-126.548	-0.947	0.139
-217.582	43.433	-0.734	-0.665
-216.567	161.927	-0.222	0.308
-215.552	-200.000	0.061	0.330
-214.538	-18.312	-0.321	0.199
-213.523	800.000	-0.045	0.135
-212.509	59.762	0.566	-0.554
-211.494	508.175	0.200	0.461
-210.479	-77.602	0.657	0.225
-209.465	-169.615	0.448	0.016
-208.450	-181.143	0.278	-0.005
-207.436	-200.000	-0.039	-0.193
-206.421	-200.000	0.012	-0.157
-205.406	-73.112	0.243	-0.088
-204.392	-200.000	0.025	0.295
-203.377	403.115	0.146	-0.304
-202.363	-168.535	0.148	0.006
-201.348	103.831	-0.249	0.290
-200.333	174.351	0.217	-0.312
-199.319	22.289	-0.272	0.220
-198.304	19.816	0.223	-0.178
-197.290	336.316	-0.221	-0.425
-196.275	-52.461	0.934	0.428
-195.260	21.994	-0.440	0.356
-194.246	114.019	0.715	0.862
-193.231	52.829	-0.091	-0.086
-192.217	-18.536	0.240	0.149
-191.202	-200.000	-0.011	-0.380
-190.187	-132.720	-0.205	-0.026
-189.173	-29.934	-0.368	0.208
-188.158	-200.000	0.076	-0.439
-187.144	-200.000	-0.019	0.502
-186.129	-102.073	-0.655	0.156
-185.114	800.000	-0.183	0.612
-184.100	-56.315	0.794	-0.350
-183.085	800.000	-0.100	0.332
-182.071	412.464	0.258	0.542
-181.056	-103.975	0.399	0.092
-180.042	800.000	-0.060	-0.244
-179.027	-200.000	-0.077	0.371
-178.012	800.000	-0.227	-0.659
-176.998	355.937	-0.430	0.847
-175.983	-200.000	-0.025	-0.270
-174.969	85.140	0.420	0.456
-173.954	-200.000	-0.162	0.855
-172.939	-21.792	0.176	0.106
-171.925	126.909	0.414	-0.520
-170.910	592.458	-0.298	-0.728
-169.896	5.254	-0.636	0.464
-168.881	28.552	-0.379	0.317
-167.866	445.026	-0.238	-0.517
-166.852	-200.000	-0.048	0.343
-165.837	122.628	0.183	0.226
-164.823	-200.000	-0.130	-0.606
-163.808	-121.774	-0.353	0.058
-162.793	387.106	0.252	0.514
-161.779	-40.918	0.441	-0.226
-160.764	297.248	0.134	-0.243
-159.750	-81.673	-0.316	-0.103
-158.735	214.818	0.296	0.465
-157.720	229.845	-0.229	0.371
-156.706	178.276	0.417	-0.602
-155.691	-104.586	-0.528	-0.121
-154.677	-78.469	-0.420	0.142
-153.662	254.309	-0.283	0.480
-152.647	-200.000	-0.057	0.840
-151.633	-58.116	0.307	0.133
-150.618	10.542	-0.712	0.537
-149.604	-153.519	0.270	0.018
-148.589	130.429	0.289	0.366
-147.574	14.661	-0.334	-0.258
-146.560	-9.919	0.167	-0.110
-145.545	48.063	0.079	0.073
-144.531	-57.090	0.543	0.236
-143.516	-21.823	0.710	0.427
-142.502	1.383	-0.766	0.544
-141.487	-145.043	0.434	-0.039
-140.472	-61.590	-0.294	-0.122
-139.458	-200.000	0.037	0.398
-138.443	800.000	0.138	0.455
-137.429	175.471	0.124	0.177
-136.414	800.000	0.067	-0.218
-135.399	-86.070	-0.491	-0.150
-134.385	158.520	-0.198	0.272
-133.370	-46.619	0.581	-0.281
-132.356	4.579	0.753	0.546
-131.341	-103.700	1.135	-0.263
-130.326	-82.901	0.667	0.213
-129.312	15.257	0.167	-0.129
-128.297	-113.276	-0.351	0.068
-127.283	-34.395	-0.509	-0.276
-126.268	256.177	-0.334	-0.566
-125.253	-200.000	-0.131	0.640
-124.239	-85.915	0.378	-0.116
-123.224	36.868	0.590	-0.515
-122.210	5.126	0.143	-0.104
-121.195	-200.000	0.017	0.277
-120.180	186.885	-0.738	-1.087
-119.166	-100.699	0.470	0.115
-118.151	8.193	-0.162	0.121
-117.137	800.000	-0.175	-0.544
-116.122	-31.071	0.233	-0.130
-115.107	25.927	-0.232	0.191
-114.093	217.938	0.718	-1.132
-113.078	38.262	0.762	0.670
-112.064	-147.213	-0.703	0.059
-111.049	-37.335	-0.286	-0.151
-110.034	-200.000	0.098	-0.532
-109.020	78.247	-0.211	0.223
-108.005	800.000	-0.179	-0.670
-106.991	412.972	-0.224	-0.470
-105.976	-8.270	0.401	0.266
-104.962	-18.226	-0.259	0.160
-103.947	2.932	-0.405	0.291
-102.932	379.148	0.263	-0.532
-101.918	-160.508	0.212	-0.011
-100.903	-111.396	-0.706	-0.142
-99.889	31.612	0.982	-0.834
-98.874	-200.000	0.105	0.653
-97.859	-88.145	-0.514	-0.152
-96.845	-59.443	0.354	-0.150
-95.830	46.381	0.789	-0.722
-94.816	-44.380	0.313	0.154
-93.801	-200.000	-0.108	0.000
-92.786	-200.000	0.120	0.610
-91.772	-33.700	0.669	0.364
-90.757	-200.000	-0.084	-0.523
-89.743	44.964	0.187	0.170
-88.728	-80.125	0.659	0.218
-87.713	238.014	0.104	0.171
-86.699	800.000	-0.045	-0.143
-85.684	610.486	0.143	0.353
-84.670	80.001	0.251	-0.267
-83.655	30.959	1.093	0.924
-82.640	-200.000	0.028	-0.130
-81.626	-132.213	0.072	-0.009
-80.611	-56.952	0.271	-0.118
-79.597	-24.501	0.636	0.373
-78.582	-200.000	-0.004	0.262
-77.567	14.898	-0.318	0.245
-76.553	-74.021	0.343	-0.123
-75.538	-23.996	0.555	0.327
-74.524	-171.610	-0.656	0.021
-73.509	-105.005	-0.264	-0.060
-72.494	-3.468	-0.155	0.106
-71.480	-31.283	0.802	-0.445
-70.465	-4.773	0.712	-0.484
-69.451	-98.050	0.510	0.129
-68.436	-200.000	-0.045	0.723
-67.422	-106.890	-0.379	-0.083
-66.407	25.399	0.347	0.285
-65.392	-0.489	0.253	0.177
-64.378	222.576	-0.105	-0.166
-63.363	141.096	0.466	-0.608
-62.349	419.485	0.214	0.451
-61.334	556.480	-0.448	-1.063
-60.319	-4.707	0.146	0.100
-59.305	-200.000	-0.229	-1.230
-58.290	23.085	0.908	0.734
-57.276	-59.881	1.226	0.517
-56.261	-200.000	95.056	563.670
-55.246	627.962	1374.706	3422.333
-54.232	198.406	2546.556	3838.794
-53.217	117.380	2134.529	2586.469
-52.203	44.993	1600.301	1452.219
-51.188	37.297	1339.112	1169.063
-50.173	33.955	1297.243	1112.939
-49.159	57.047	1347.681	1294.478
-48.144	58.388	1365.055	1319.104
-47.130	37.256	1321.987	1153.685
-46.115	33.770	1304.933	1118.267
-45.100	33.481	1299.803	1112.133
-44.086	33.384	1297.752	1109.766
-43.071	33.529	1294.431	1107.728
-42.057	33.475	1293.506	1106.574
-41.042	33.397	1290.942	1103.887
-40.027	33.684	1288.771	1103.657
-39.013	33.260	1288.379	1100.811
-37.998	33.449	1285.651	1099.532
-36.984	33.458	1284.120	1098.232
-35.969	33.529	1282.922	1097.574
-34.954	33.519	1280.756	1095.618
-33.940	33.405	1280.520	1094.716
-32.925	33.676	1277.280	1093.465
-31.911	33.587	1276.393	1092.150
-30.896	33.661	1275.132	1091.450
-29.881	33.518	1274.439	1089.990
-28.867	33.804	1272.444	1089.888
-27.852	33.348	1271.975	1086.825
-26.838	33.544	1269.656	1085.921
-25.823	33.506	1268.781	1084.915
-24.809	33.712	1266.836	1084.385
-23.794	33.694	1265.476	1083.074
-22.779	33.836	1264.599	1083.092
-21.765	33.807	1263.675	1082.091
-20.750	33.656	1262.016	1079.765
-19.736	33.512	1261.192	1078.201
-18.721	33.487	1259.735	1076.770
-17.706	33.399	1258.558	1075.219
-16.692	33.371	1258.286	1074.786
-15.677	33.467	1256.481	1073.747
-14.663	33.445	1256.216	1073.353
-13.648	33.533	1254.329	1072.196
-12.633	33.248	1253.709	1070.011
-11.619	33.501	1253.484	1071.209
-10.604	33.205	1252.051	1068.267
-9.590	33.507	1251.284	1069.279
-8.575	33.251	1250.351	1066.994
-7.560	33.452	1249.478	1067.339
-6.546	33.412	1248.104	1065.896
-5.531	33.484	1247.583	1065.813
-4.517	33.260	1246.535	1063.621
-3.502	33.183	1245.296	1062.085
-2.487	33.288	1245.349	1062.678
-1.473	33.136	1241.288	1058.320
-0.458	31.752	1226.546	1038.052
0.556	28.736	1207.434	997.625
1.571	25.058	1212.443	981.570
2.586	23.530	1228.007	985.603
3.600	23.372	1215.925	974.949
4.615	17.356	1144.843	886.605
5.629	7.524	1068.758	779.543
6.644	3.430	1047.670	744.356
7.659	2.866	1045.143	739.779
8.673	2.589	1044.697	738.065
9.688	2.639	1042.931	736.989
10.702	3.057	1040.627	737.302
11.717	8.761	1050.503	771.785
12.731	18.846	1064.464	830.988
13.746	24.443	1070.195	862.517
14.761	25.970	1071.766	871.093
15.775	25.755	1071.282	869.583
16.790	25.621	1070.488	868.214
17.804	25.548	1069.586	867.055
18.819	25.535	1069.841	867.122
19.834	25.661	1070.027	867.805
20.848	25.867	1069.392	868.206
21.863	25.635	1068.735	866.476
22.877	25.690	1067.980	866.052
23.892	25.821	1066.602	865.489
24.907	25.799	1066.376	865.121
25.921	25.533	1066.431	863.813
26.936	25.397	1064.561	861.568
27.950	25.776	1062.631	861.747
28.965	25.725	1060.520	859.715
29.980	25.369	1060.586	857.992
30.994	25.676	1057.910	857.212
32.009	25.775	1057.288	857.103
33.023	25.719	1056.324	855.981
34.038	25.637	1055.645	854.967
35.053	25.845	1054.216	854.718
36.067	25.619	1053.794	853.231
37.082	25.812	1053.090	853.500
38.096	25.758	1053.265	853.311
39.111	25.989	1051.905	853.225
40.126	25.675	1051.198	851.090
41.140	25.334	1049.784	848.260
42.155	25.222	1048.623	846.721
43.169	25.513	1046.293	846.133
44.184	25.512	1045.586	845.482
45.199	25.315	1045.269	844.224
46.213	25.150	1045.215	843.328
47.228	25.555	1044.356	844.463
48.242	25.622	1043.039	843.640
49.257	25.554	1042.577	842.871
50.271	25.756	1041.175	842.608
51.286	25.821	1039.913	841.816
52.301	25.970	1039.757	842.312
53.315	25.868	1039.069	841.204
54.330	25.549	1038.003	838.779
55.344	25.480	1037.190	837.728
56.359	25.804	1036.447	838.562
57.374	25.828	1034.381	836.925
58.388	25.603	1034.798	836.146
59.403	25.161	1034.447	833.732
60.417	25.242	1033.568	833.325
61.432	25.532	1031.495	832.924
62.447	25.364	1032.309	832.731
63.461	25.379	1031.250	831.873
64.476	25.529	1029.909	831.409
65.490	25.493	1029.313	830.689
66.505	25.493	1029.232	830.551
67.520	25.585	1027.941	829.857
68.534	25.203	1026.904	827.186
69.549	24.890	1026.674	825.487
70.563	25.252	1024.121	825.023
71.578	24.932	1023.676	823.123
72.593	24.885	1022.997	822.285
73.607	24.867	1023.106	822.218
74.622	25.129	1022.529	822.886
75.636	25.264	1022.132	823.114
76.651	24.830	1021.844	820.816
77.666	25.197	1020.361	821.233
78.680	25.508	1018.604	821.171
79.695	25.300	1019.081	820.532
80.709	25.259	1018.250	819.602
81.724	25.381	1017.473	819.461
82.739	25.567	1016.456	819.417
83.753	25.941	1015.599	820.355
84.768	25.898	1016.003	820.411
85.782	25.971	1014.925	819.803
86.797	26.075	1014.093	819.530
87.812	25.832	1013.341	817.745
88.826	25.937	1012.880	817.780
89.841	26.142	1011.158	817.244
90.855	26.363	1010.261	817.448
91.870	26.158	1009.719	816.009
92.884	25.895	1008.228	813.544
93.899	25.859	1007.315	812.574
94.914	26.021	1006.600	812.656
95.928	25.921	1005.221	811.019
96.943	25.807	1004.313	809.701
97.957	25.702	1002.913	808.031
98.972	26.038	1001.534	808.353
99.987	25.924	999.732	806.320
101.001	25.830	1001.007	806.854
102.016	25.924	1000.295	806.631
103.030	25.794	999.561	805.388
104.045	25.328	998.706	802.544
105.060	25.459	998.066	802.542
106.074	25.383	997.219	801.451
107.089	25.948	996.224	803.098
108.103	25.421	996.015	800.512
109.118	25.902	993.354	800.439
110.133	25.314	993.672	798.010
111.147	25.390	992.390	797.247
112.162	25.348	991.060	795.926
113.176	25.668	989.564	796.069
114.191	25.479	989.694	795.264
115.206	25.338	987.955	793.174
116.220	24.972	987.732	791.310
117.235	25.210	986.905	791.627
118.249	25.340	985.791	791.236
119.264	25.172	984.829	789.656
120.279	25.184	985.054	789.818
121.293	25.209	984.182	789.157
122.308	25.417	983.463	789.427
123.322	25.278	982.139	787.686
124.337	25.133	980.628	785.769
125.352	24.691	979.095	782.536
126.366	24.532	978.687	781.445
127.381	25.297	977.923	784.109
128.395	25.630	978.120	785.650
129.410	25.731	977.740	785.719
130.424	25.586	976.238	783.809
131.439	25.658	975.765	783.673
132.454	25.844	975.192	783.951
133.468	25.763	973.930	782.516
134.483	25.951	973.525	782.938
135.497	26.005	972.992	782.677
136.512	25.726	971.779	780.421
137.527	25.919	970.568	780.215
138.541	26.052	970.729	780.851
139.556	26.423	968.566	780.643
140.570	26.106	968.834	779.421
141.585	26.179	967.408	778.520
142.600	25.717	967.398	776.453
143.614	26.272	967.028	778.478
144.629	26.344	965.429	777.433
145.643	26.442	963.837	776.502
146.658	26.222	962.100	774.090
147.673	26.181	961.737	773.553
148.687	26.123	960.589	772.314
149.702	25.923	959.830	770.782
150.716	25.834	958.905	769.591
151.731	26.041	958.572	770.138
152.746	25.816	958.086	768.721
153.760	26.217	957.468	769.864
154.775	26.638	956.865	771.105
155.789	26.570	955.078	769.309
156.804	26.231	954.404	767.257
157.819	26.296	953.963	767.112
158.833	26.447	953.091	766.982
159.848	26.505	953.117	767.181
160.862	26.599	951.203	765.969
161.877	26.364	949.966	763.915
162.892	26.218	950.079	763.318
163.906	25.945	949.467	761.607
164.921	26.347	948.291	762.293
165.935	26.425	946.566	761.165
166.950	26.300	945.568	759.771
167.964	26.255	945.771	759.678
168.979	26.137	943.771	757.510
169.994	26.374	943.171	757.956
171.008	26.285	942.677	757.117
172.023	26.365	941.999	756.840
173.037	26.187	940.837	755.097
174.052	25.873	940.164	753.177
175.067	26.208	938.844	753.449
176.081	25.934	938.407	751.888
177.096	26.359	937.633	752.976
178.110	25.773	937.345	750.237
179.125	25.519	936.655	748.560
180.140	25.555	936.774	748.736
181.154	26.102	936.510	750.736
182.169	26.231	935.723	750.578
183.183	26.467	935.467	751.286
184.198	25.921	935.538	749.006
185.213	26.495	933.085	749.357
186.227	26.057	933.757	748.013
187.242	26.307	932.181	747.720
188.256	26.255	931.814	747.144
189.271	26.232	931.454	746.693
190.286	26.189	929.352	744.764
191.300	25.336	928.177	740.243
192.315	24.526	927.061	735.951
193.329	24.419	927.269	735.608
194.344	25.879	926.643	741.055
195.359	25.907	927.981	742.174
196.373	26.363	926.734	742.986
197.388	26.078	925.966	741.137
198.402	26.102	926.553	741.638
199.417	26.092	925.313	740.541
200.432	26.081	923.417	738.911
201.446	26.084	922.263	737.933
202.461	26.099	922.279	737.944
203.475	25.349	921.119	733.886
204.490	24.359	919.885	728.794
205.504	25.312	919.657	732.439
206.519	25.669	919.195	733.464
207.534	25.641	918.964	733.102
208.548	26.512	919.191	736.764
209.563	26.172	918.164	734.494
210.577	26.093	917.977	733.955
211.592	26.546	917.031	734.976
212.607	26.313	916.580	733.603
213.621	26.556	916.048	734.099
214.636	26.462	915.169	732.948
215.650	26.226	914.860	731.681
216.665	26.473	913.639	731.636
217.680	26.562	913.752	732.025
218.694	25.861	911.974	727.702
219.709	25.693	911.447	726.542
220.723	26.273	911.335	728.728
221.738	26.093	910.731	727.453
222.753	25.831	911.353	726.830
223.767	26.230	909.191	726.649
224.782	26.266	909.740	727.164
225.796	26.607	908.358	727.369
226.811	25.769	906.775	722.675
227.826	25.408	906.298	720.781
228.840	25.308	905.278	719.505
229.855	25.554	905.106	720.293
230.869	24.988	903.438	716.634
231.884	25.563	903.716	719.092
232.899	26.110	904.536	721.873
233.913	25.950	904.037	720.771
234.928	25.908	902.322	719.169
235.942	25.851	902.373	718.921
236.957	25.642	901.549	717.367
237.972	25.733	900.623	716.931
238.986	25.891	899.875	716.899
240.001	25.990	899.564	716.981
241.015	25.974	899.009	716.410
242.030	26.047	899.080	716.693
243.045	26.366	897.190	716.392
244.059	26.238	897.048	715.705
245.074	26.289	895.310	714.456
246.088	26.080	894.690	713.075
247.103	26.001	894.644	712.661
248.117	26.467	895.500	715.124
249.132	26.523	895.376	715.181
250.147	27.301	894.721	717.664
251.161	27.315	893.444	716.632
252.176	27.183	893.385	716.004
253.190	27.349	892.789	716.113
254.205	27.804	891.798	717.043
255.220	27.381	891.884	715.388
256.234	26.988	891.504	713.474
257.249	27.014	890.331	712.578
258.263	26.989	890.171	712.285
259.278	27.087	889.512	712.081
260.293	27.241	888.258	711.617
261.307	27.127	887.755	710.705
262.322	26.877	887.936	709.807
263.336	25.914	885.110	703.730
264.351	25.269	884.221	700.444
265.366	25.217	882.998	699.211
266.380	26.418	884.530	705.046
267.395	26.859	884.164	706.410
268.409	26.479	883.573	704.396
269.424	26.793	882.441	704.652
270.439	26.582	882.125	703.519
271.453	27.069	881.464	704.820
272.468	27.048	882.127	705.206
273.482	27.303	880.933	705.177
274.497	26.533	880.231	701.568
275.512	26.620	877.857	699.951
276.526	26.775	878.655	701.125
277.541	26.675	878.528	700.576
278.555	26.744	877.778	700.181
279.570	26.505	876.807	698.423
280.585	26.757	876.475	699.067
281.599	26.716	875.042	697.707
282.614	26.290	874.058	695.222
283.628	26.310	873.985	695.179
284.643	26.300	873.664	694.823
285.657	25.987	872.079	692.301
286.672	26.001	871.155	691.556
287.687	26.374	871.343	693.078
288.701	26.493	871.485	693.586
289.716	26.202	870.804	691.866
290.730	26.107	869.839	690.674
291.745	26.055	867.892	688.870
292.760	26.216	869.272	690.518
293.774	27.104	868.791	693.468
294.789	27.550	868.362	694.766
295.803	27.357	868.200	693.838
296.818	27.283	867.149	692.654
297.833	27.175	865.972	691.244
298.847	26.975	866.072	690.499
299.862	27.549	865.141	691.877
300.876	27.635	865.107	692.114
301.891	27.452	865.317	691.527
302.906	27.181	863.901	689.307
303.920	27.004	863.662	688.384
304.935	27.822	862.741	690.685
305.949	27.381	862.064	688.413
306.964	27.162	860.498	686.276
307.979	27.341	860.953	687.255
308.993	27.350	861.227	687.448
310.008	27.369	860.321	686.734
311.022	27.155	859.974	685.588
312.037	27.140	859.468	685.067
313.052	26.961	858.286	683.393
314.066	26.040	856.830	678.708
315.081	25.748	855.966	676.867
316.095	26.369	856.466	679.539
317.110	26.858	856.003	680.947
318.125	26.196	854.865	677.497
319.139	25.227	852.965	672.302
320.154	25.433	852.518	672.663
321.168	26.140	852.759	675.439
322.183	26.937	852.869	678.449
323.197	26.722	853.087	677.758
324.212	26.742	853.310	677.950
325.227	27.038	851.949	677.912
326.241	26.967	850.982	676.820
327.256	27.086	850.145	676.536
328.270	26.893	849.870	675.540
329.285	26.675	848.501	673.583
330.300	26.349	847.949	671.871
331.314	26.561	848.487	673.028
332.329	27.268	847.980	675.190
333.343	27.151	847.046	673.953
334.358	27.355	846.456	674.180
335.373	27.465	846.103	674.246
336.387	27.703	846.932	675.731
337.402	27.835	846.768	676.027
338.416	27.629	846.152	674.714
339.431	27.633	846.126	674.648
340.446	28.161	845.209	675.807
341.460	27.775	845.472	674.532
342.475	27.920	844.129	673.935
343.489	27.536	844.225	672.535
344.504	28.094	844.219	674.531
345.519	27.991	843.636	673.626
346.533	27.993	842.745	672.862
347.548	28.335	842.038	673.496
348.562	28.065	842.349	672.690
349.577	28.336	840.904	672.472
350.592	27.697	841.215	670.314
351.606	28.094	839.403	670.266
352.621	27.915	838.854	669.113
353.635	27.809	838.433	668.331
354.650	27.205	837.011	664.929
355.665	26.214	835.694	660.205
356.679	26.748	834.985	661.534
357.694	27.339	834.349	663.127
358.708	27.189	834.588	662.711
359.723	27.528	834.093	663.496
360.738	27.431	833.684	662.759
361.752	28.214	833.360	665.290
362.767	28.207	833.124	665.016
363.781	28.381	832.787	665.319
364.796	28.259	833.034	665.014
365.810	28.581	831.728	665.081
366.825	28.515	831.088	664.272
367.840	28.075	831.775	663.167
368.854	27.613	830.526	660.440
369.869	28.018	829.991	661.423
370.883	27.875	829.376	660.358
371.898	27.943	829.080	660.308
372.913	28.262	828.380	660.843
373.927	27.986	827.426	659.029
374.942	27.982	827.503	659.018
375.956	28.098	827.241	659.169
376.971	28.451	826.464	659.761
377.986	28.789	825.539	660.181
379.000	28.493	825.827	659.288
380.015	28.161	825.487	657.765
381.029	28.390	824.270	657.560
382.044	28.338	824.473	657.476
383.059	28.425	823.601	657.034
384.073	28.460	823.339	656.890
385.088	28.261	822.452	655.413
386.102	28.377	821.685	655.159
387.117	28.120	820.842	653.509
388.132	27.837	819.751	651.576
389.146	27.584	818.620	649.716
390.161	27.783	819.192	650.823
391.175	28.288	818.847	652.292
392.190	27.710	817.311	648.953
393.205	26.609	815.238	643.343
394.219	25.114	813.920	636.938
395.234	25.340	813.729	637.534
396.248	26.394	815.052	642.261
397.263	28.351	816.131	650.006
398.278	27.816	816.396	648.258
399.292	27.439	815.751	646.351
400.307	27.852	813.835	646.238
401.321	27.977	813.447	646.316
402.336	28.341	813.803	647.827
403.350	28.707	813.810	649.071
404.365	28.643	814.299	649.177
405.380	29.325	813.926	651.232
406.394	29.418	812.801	650.603
407.409	29.128	812.082	648.949
408.423	29.007	812.457	648.764
409.438	29.180	811.333	648.416
410.453	29.150	810.833	647.855
411.467	29.033	810.510	647.129
412.482	29.351	809.980	647.764
413.496	29.188	809.566	646.804
414.511	29.314	809.819	647.390
415.526	28.893	809.785	645.829
416.540	29.210	808.509	645.866
417.555	28.669	808.357	643.790
418.569	28.888	806.683	643.164
419.584	28.936	806.550	643.170
420.599	28.584	807.180	642.385
421.613	159.063	1371.464	1793.013
422.628	138.251	1453.664	1793.086
