DTS Sentinel unit serial number:	SN413079Multiplexer serial number:	ORYXHardware model number:	OX4-SRSoftware version number:	ORYX F/W v4.00 Oryx Data Collector v3.7.2.0data status	okinstallation	princeton_trtdifferential loss correction	single-endedforward channel	channel 1reverse channel	N/Adate	2019/09/12time	03:36:11forward acquisition time	60.00reverse acquisition time	0.00gamma	496.2192k internal	0.2322k external	0.2322temperature offset calibration	1.0077default loss term (dB/km)	0.3790temperature slope calibration	1.0000multiplexer offset coefficient	1.0000multiplexer slope coefficient	1.0000fibre end	0.00T internal ref (°C)	32.19T ext. ref 1 (°C)	2.12T ext. ref 2 (°C)	27.15length (m)	temperature (°C)	Stokes	anti-Stokes-747.200	800.000	0.020	0.058
-746.185	-200.000	-0.017	0.477
-745.171	-156.518	0.119	-0.007
-744.156	27.093	-0.438	0.371
-743.142	82.297	-0.126	0.138
-742.127	-23.558	0.076	0.046
-741.112	147.877	-0.056	-0.076
-740.098	45.085	-0.143	-0.133
-739.083	-122.141	0.276	0.046
-738.069	-89.225	-0.208	0.062
-737.054	79.080	0.161	0.174
-736.039	800.000	0.104	-0.304
-735.025	-111.856	0.243	-0.050
-734.010	69.790	0.139	-0.145
-732.996	126.968	-0.253	-0.324
-731.981	-167.058	0.096	0.004
-730.966	-78.305	0.127	0.044
-729.952	99.706	-0.199	-0.232
-728.937	17.158	-0.114	-0.092
-727.923	182.003	-0.379	-0.563
-726.908	61.787	-0.263	-0.264
-725.894	62.335	0.182	-0.183
-724.879	-200.000	0.015	-0.243
-723.864	15.900	-0.099	0.079
-722.850	156.095	0.136	-0.190
-721.835	-92.130	-0.181	0.051
-720.821	-40.373	-0.216	-0.114
-719.806	-45.356	-0.051	-0.026
-718.791	239.124	0.059	-0.098
-717.777	800.000	0.089	0.356
-716.762	-177.603	0.192	0.005
-715.748	209.784	0.111	0.175
-714.733	62.287	0.283	-0.285
-713.718	-200.000	0.054	-0.369
-712.704	800.000	-0.107	-0.331
-711.689	800.000	0.056	-0.227
-710.675	800.000	0.100	-0.364
-709.660	-63.327	0.388	0.161
-708.645	-128.376	0.284	-0.041
-707.631	-124.949	0.154	-0.024
-706.616	58.216	-0.168	0.166
-705.602	-149.562	-0.133	0.011
-704.587	464.700	0.183	-0.413
-703.572	800.000	-0.050	-0.142
-702.558	51.921	0.128	-0.123
-701.543	7.320	-0.120	-0.091
-700.529	-125.625	0.348	0.053
-699.514	-199.775	-0.127	-0.001
-698.499	-93.464	-0.146	-0.041
-697.485	-15.833	-0.321	-0.206
-696.470	170.017	-0.164	0.237
-695.456	73.420	-0.081	0.086
-694.441	800.000	0.058	-0.178
-693.426	-14.918	0.061	0.039
-692.412	788.103	-0.117	-0.323
-691.397	306.636	0.058	0.109
-690.383	-31.519	-0.219	-0.124
-689.368	297.066	0.050	0.093
-688.354	714.115	-0.075	0.201
-687.339	-200.000	0.025	0.135
-686.324	349.794	0.133	-0.266
-685.310	800.000	-0.092	0.367
-684.295	16.928	-0.018	0.015
-683.281	82.877	-0.234	-0.257
-682.266	-47.437	-0.313	0.154
-681.251	-106.134	0.098	0.022
-680.237	97.860	0.178	-0.206
-679.222	8.793	0.051	0.039
-678.208	118.164	0.260	-0.323
-677.193	-28.354	-0.351	-0.204
-676.178	-137.440	0.417	-0.048
-675.164	39.751	-0.211	0.191
-674.149	-57.375	0.330	-0.146
-673.135	-86.766	0.127	0.039
-672.120	-123.157	-0.169	-0.027
-671.105	6.859	0.183	-0.138
-670.091	-74.635	0.043	-0.015
-669.076	800.000	-0.080	-0.237
-668.062	109.817	-0.070	0.085
-667.047	-0.828	0.068	0.049
-666.032	-200.000	-0.018	-0.098
-665.018	-64.522	0.173	0.071
-664.003	-146.793	-0.128	0.011
-662.989	-27.448	-0.212	-0.124
-661.974	180.290	0.139	0.205
-660.959	-119.520	-0.374	-0.065
-659.945	454.265	0.175	0.389
-658.930	-200.000	0.039	-0.251
-657.916	-84.840	0.359	-0.114
-656.901	-78.905	0.142	-0.049
-655.886	10.619	-0.210	0.161
-654.872	2.093	0.019	0.014
-653.857	-200.000	-0.042	-0.309
-652.843	-200.000	0.000	-0.314
-651.828	-27.707	-0.300	-0.175
-650.814	43.689	-0.141	-0.130
-649.799	243.536	0.239	-0.403
-648.784	252.308	-0.168	-0.288
-647.770	-147.715	-0.182	-0.015
-646.755	-145.767	0.105	-0.009
-645.741	800.000	-0.031	-0.089
-644.726	-134.393	-0.152	0.019
-643.711	-200.000	-0.009	-0.049
-642.697	-46.942	-0.040	-0.020
-641.682	197.042	-0.197	0.303
-640.668	-200.000	-0.006	0.081
-639.653	225.069	0.090	-0.147
-638.638	-200.000	0.020	0.232
-637.624	-100.532	-0.237	-0.059
-636.609	-160.657	-0.199	0.011
-635.595	-200.000	0.046	-0.339
-634.580	-200.000	0.016	-0.259
-633.565	33.304	-0.173	0.151
-632.551	50.893	0.159	0.151
-631.536	234.733	0.109	0.182
-630.522	327.689	0.095	-0.184
-629.507	-200.000	-0.006	-0.360
-628.492	-200.000	-0.028	0.137
-627.478	99.390	0.087	0.101
-626.463	800.000	-0.091	-0.316
-625.449	-107.290	0.288	-0.064
-624.434	55.785	0.277	0.270
-623.419	-200.000	-0.042	0.306
-622.405	6.173	-0.362	0.270
-621.390	-65.457	0.074	-0.030
-620.376	-200.000	0.085	-0.431
-619.361	-200.000	0.044	0.289
-618.346	83.743	0.101	0.111
-617.332	-65.508	-0.353	0.143
-616.317	-35.114	0.170	-0.093
-615.303	20.936	-0.125	-0.102
-614.288	-44.093	-0.276	-0.140
-613.273	-200.000	0.029	-0.323
-612.259	-200.000	-0.001	0.097
-611.244	800.000	-0.019	0.055
-610.230	-68.063	0.434	-0.170
-609.215	-76.015	-0.394	0.140
-608.201	78.189	0.038	-0.041
-607.186	-1.288	0.170	-0.121
-606.171	-200.000	0.058	-0.279
-605.157	-200.000	-0.009	0.419
-604.142	459.740	-0.201	0.449
-603.128	-200.000	0.023	-0.299
-602.113	-124.138	0.356	0.056
-601.098	125.614	0.209	0.265
-600.084	-200.000	0.005	0.215
-599.069	41.435	0.141	0.129
-598.055	-145.871	0.212	-0.019
-597.040	800.000	-0.048	0.207
-596.025	107.983	0.189	0.226
-595.011	755.138	0.062	0.167
-593.996	332.089	-0.082	0.158
-592.982	104.210	-0.039	0.046
-591.967	1.939	0.302	-0.219
-590.952	-97.415	-0.349	-0.091
-589.938	-142.928	0.623	-0.061
-588.923	-53.602	-0.196	0.090
-587.909	507.311	0.153	-0.357
-586.894	-54.670	0.170	-0.077
-585.879	-200.000	-0.035	0.308
-584.865	-113.913	-0.418	-0.082
-583.850	125.724	0.249	-0.315
-582.836	-200.000	0.011	-0.129
-581.821	-44.833	-0.071	-0.036
-580.806	-200.000	-0.006	-0.291
-579.792	-12.672	-0.055	-0.036
-578.777	401.964	0.092	-0.193
-577.763	298.884	-0.292	-0.539
-576.748	800.000	0.034	0.107
-575.733	-178.464	-0.438	0.010
-574.719	107.925	0.157	0.187
-573.704	281.462	-0.196	0.353
-572.690	-172.314	-0.157	0.005
-571.675	254.641	-0.183	0.314
-570.661	32.003	-0.222	-0.192
-569.646	-166.250	-0.128	0.005
-568.631	-49.386	0.226	-0.108
-567.617	-98.889	0.383	0.098
-566.602	-200.000	-0.007	0.090
-565.588	74.070	-0.411	0.433
-564.573	56.313	0.208	-0.203
-563.558	-112.929	-0.219	-0.043
-562.544	-147.598	0.193	0.016
-561.529	132.921	0.134	-0.174
-560.515	8.873	-0.232	0.175
-559.500	-117.490	-0.323	0.059
-558.485	-200.000	0.001	0.050
-557.471	-110.190	-0.142	-0.030
-556.456	-87.150	-0.276	-0.084
-555.442	-200.000	-0.007	0.040
-554.427	-31.397	0.174	0.098
-553.412	-185.293	-0.236	0.004
-552.398	-58.267	0.310	-0.135
-551.383	5.597	0.160	-0.119
-550.369	-11.618	-0.212	-0.140
-549.354	-200.000	-0.034	0.388
-548.339	41.136	-0.143	0.130
-547.325	-44.898	-0.330	0.165
-546.310	-20.879	0.261	-0.160
-545.296	-108.283	0.157	0.034
-544.281	-133.058	0.197	0.025
-543.266	-98.790	-0.250	-0.064
-542.252	-200.000	0.001	0.205
-541.237	72.326	0.053	0.056
-540.223	-80.863	0.195	0.065
-539.208	-200.000	0.040	0.280
-538.193	85.636	-0.143	-0.158
-537.179	-81.642	0.287	0.095
-536.164	-92.762	-0.329	0.092
-535.150	295.186	0.048	-0.089
-534.135	-200.000	-0.012	-0.146
-533.121	0.588	0.141	-0.101
-532.106	800.000	-0.038	-0.152
-531.091	-46.371	0.096	-0.047
-530.077	35.278	-0.165	-0.145
-529.062	504.839	-0.006	-0.013
-528.048	29.096	-0.137	0.117
-527.033	194.227	0.107	0.162
-526.018	576.173	0.012	0.030
-525.004	101.765	0.167	-0.196
-523.989	-18.496	-0.460	-0.288
-522.975	108.487	0.235	-0.281
-521.960	65.867	0.210	-0.213
-520.945	181.176	-0.138	-0.204
-519.931	-121.017	-0.355	0.060
-518.916	109.439	-0.387	-0.465
-517.902	-135.084	-0.254	0.031
-516.887	-200.000	-0.032	-0.145
-515.872	30.094	0.252	-0.215
-514.858	451.916	-0.093	-0.205
-513.843	97.235	-0.018	-0.020
-512.829	77.058	-0.050	0.053
-511.814	-200.000	0.023	0.145
-510.799	383.203	0.077	-0.158
-509.785	136.487	0.096	0.125
-508.770	-8.851	0.180	-0.121
-507.756	-85.700	-0.151	0.047
-506.741	-89.981	-0.154	-0.045
-505.726	800.000	-0.146	0.434
-504.712	76.090	-0.162	0.171
-503.697	-200.000	-0.019	-0.114
-502.683	800.000	-0.022	-0.089
-501.668	271.920	0.151	-0.267
-500.653	-200.000	-0.037	-0.218
-499.639	165.970	0.255	0.361
-498.624	-27.748	0.148	-0.086
-497.610	-123.452	0.191	0.030
-496.595	-200.000	-0.019	-0.118
-495.581	-100.279	-0.281	-0.070
-494.566	-200.000	0.033	-0.302
-493.551	-86.608	-0.224	-0.069
-492.537	-171.352	0.034	0.001
-491.522	43.042	0.097	-0.089
-490.508	-139.262	0.031	-0.003
-489.493	337.792	-0.061	0.118
-488.478	-129.324	-0.175	0.024
-487.464	53.305	-0.189	0.181
-486.449	-104.009	-0.244	-0.057
-485.435	-73.478	0.374	0.137
-484.420	-31.106	0.278	0.157
-483.405	213.508	-0.314	0.497
-482.391	-200.000	0.059	0.330
-481.376	-200.000	0.062	-0.435
-480.362	-200.000	0.015	0.138
-479.347	-101.328	0.251	-0.061
-478.332	-98.292	-0.230	0.059
-477.318	663.160	0.081	0.208
-476.303	470.645	-0.140	0.314
-475.289	194.379	0.172	-0.261
-474.274	-200.000	-0.021	-0.122
-473.259	281.551	-0.184	-0.329
-472.245	-14.856	-0.132	0.085
-471.230	-123.557	-0.285	0.045
-470.216	-87.445	-0.227	0.069
-469.201	-90.494	-0.332	-0.096
-468.186	-73.439	0.069	-0.025
-467.172	-200.000	-0.023	-0.154
-466.157	149.607	0.098	0.133
-465.143	-200.000	0.003	-0.290
-464.128	-15.175	-0.305	-0.195
-463.113	215.868	-0.128	-0.203
-462.099	9.674	0.288	-0.218
-461.084	800.000	-0.070	0.216
-460.070	4.330	-0.100	-0.073
-459.055	-27.959	0.227	0.131
-458.040	215.605	0.288	0.456
-457.026	70.182	-0.088	-0.090
-456.011	-200.000	0.013	-0.106
-454.997	-28.782	0.228	0.131
-453.982	-200.000	0.021	-0.141
-452.968	-36.531	0.091	-0.049
-451.953	-200.000	-0.002	0.280
-450.938	-110.656	-0.176	-0.036
-449.924	142.248	-0.109	-0.144
-448.909	96.808	-0.122	0.139
-447.895	-200.000	0.030	-0.162
-446.880	-200.000	0.010	-0.141
-445.865	-143.766	0.325	0.031
-444.851	-200.000	0.005	-0.267
-443.836	169.086	-0.042	0.060
-442.822	-141.580	0.355	0.036
-441.807	-126.397	-0.155	0.023
-440.792	-10.263	0.475	-0.315
-439.778	-200.000	-0.048	-0.325
-438.763	-200.000	-0.030	0.175
-437.749	77.853	-0.033	-0.035
-436.734	800.000	0.041	-0.116
-435.719	197.758	0.117	0.178
-434.705	-140.375	-0.212	0.022
-433.690	93.015	0.092	0.103
-432.676	293.627	0.055	-0.100
-431.661	-200.000	-0.006	0.289
-430.646	-68.379	-0.101	-0.039
-429.632	184.423	-0.116	-0.172
-428.617	-176.265	-0.335	0.009
-427.603	53.006	-0.138	-0.132
-426.588	-200.000	-0.034	-0.393
-425.573	-121.294	-0.094	0.016
-424.559	200.262	-0.209	-0.320
-423.544	-137.038	0.245	-0.028
-422.530	-200.000	-0.018	-0.430
-421.515	-139.590	-0.172	-0.018
-420.500	20.033	0.225	0.181
-419.486	-77.397	-0.177	-0.061
-418.471	42.354	0.085	-0.077
-417.457	-200.000	-0.024	-0.125
-416.442	327.253	-0.106	0.202
-415.428	149.791	-0.231	0.313
-414.413	-200.000	0.026	0.254
-413.398	39.052	-0.352	-0.314
-412.384	-200.000	0.019	-0.220
-411.369	405.508	0.115	-0.242
-410.355	14.520	-0.270	-0.210
-409.340	247.959	0.116	0.195
-408.325	28.710	-0.189	0.160
-407.311	69.566	-0.112	0.116
-406.296	-200.000	0.022	0.259
-405.282	152.466	-0.130	0.178
-404.267	96.391	-0.194	0.221
-403.252	-200.000	-0.042	0.462
-402.238	637.526	0.098	0.247
-401.223	466.208	-0.168	0.375
-400.209	370.962	0.068	0.138
-399.194	-200.000	-0.008	0.138
-398.179	464.291	-0.054	0.120
-397.165	-65.679	0.411	-0.164
-396.150	-54.966	-0.130	-0.059
-395.136	-49.665	0.358	-0.170
-394.121	-86.446	0.255	0.078
-393.106	-107.645	-0.289	0.063
-392.092	-44.252	0.192	-0.096
-391.077	-200.000	0.008	0.169
-390.063	732.176	0.126	-0.335
-389.048	20.814	0.207	-0.167
-388.033	-129.368	0.195	0.027
-387.019	21.500	-0.099	0.080
-386.004	431.795	0.031	0.066
-384.990	-200.000	0.003	0.073
-383.975	-39.740	0.146	-0.076
-382.960	63.808	0.103	-0.103
-381.946	-138.499	-0.266	-0.029
-380.931	88.674	0.040	0.044
-379.917	-52.699	-0.199	-0.091
-378.902	10.640	0.233	-0.177
-377.888	-89.472	0.307	-0.090
-376.873	87.749	0.194	-0.214
-375.858	-53.035	-0.118	0.054
-374.844	62.823	0.055	-0.055
-373.829	800.000	-0.039	0.144
-372.815	120.994	0.130	-0.162
-371.800	-200.000	-0.038	0.203
-370.785	-200.000	0.039	-0.273
-369.771	-23.170	0.224	-0.134
-368.756	-200.000	0.011	-0.223
-367.742	-200.000	0.009	0.199
-366.727	146.245	0.075	-0.100
-365.712	-53.458	-0.176	-0.080
-364.698	150.776	-0.051	-0.069
-363.683	-200.000	-0.006	0.311
-362.669	293.178	0.127	0.230
-361.654	262.195	0.102	0.176
-360.639	51.104	-0.224	0.212
-359.625	-200.000	-0.002	-0.062
-358.610	-106.899	-0.430	0.095
-357.596	107.824	-0.361	0.428
-356.581	800.000	0.099	0.287
-355.566	219.334	0.086	0.137
-354.552	481.153	-0.047	-0.106
-353.537	224.549	-0.107	-0.171
-352.523	800.000	0.120	-0.349
-351.508	301.786	0.057	-0.105
-350.493	-9.890	-0.284	-0.188
-349.479	-132.735	-0.282	0.036
-348.464	-115.063	0.093	-0.018
-347.450	-200.000	-0.068	0.318
-346.435	-200.000	-0.011	0.176
-345.420	-84.400	-0.202	-0.063
-344.406	-169.589	0.278	0.010
-343.391	-149.225	-0.312	-0.025
-342.377	-141.614	-0.184	-0.018
-341.362	-200.000	0.090	-0.432
-340.348	-200.000	0.021	0.357
-339.333	-65.330	0.223	0.089
-338.318	-105.775	-0.246	0.055
-337.304	258.631	0.063	0.109
-336.289	183.580	-0.073	0.107
-335.275	-50.212	0.073	-0.034
-334.260	-165.542	0.427	-0.018
-333.245	386.062	-0.211	0.432
-332.231	800.000	0.023	0.095
-331.216	800.000	0.099	-0.327
-330.202	50.528	-0.231	-0.217
-329.187	-200.000	-0.012	0.194
-328.172	-121.544	-0.345	-0.057
-327.158	26.746	0.076	0.063
-326.143	-111.065	0.125	0.025
-325.129	800.000	0.043	0.133
-324.114	-200.000	-0.018	0.291
-323.099	-171.594	0.073	-0.002
-322.085	392.885	0.078	0.161
-321.070	337.369	0.113	0.218
-320.056	-37.276	-0.261	-0.139
-319.041	238.050	0.133	0.220
-318.026	-55.344	0.169	0.075
-317.012	-200.000	-0.053	-0.279
-315.997	-200.000	-0.008	0.347
-314.983	457.394	0.115	0.253
-313.968	-146.977	-0.092	0.008
-312.953	-8.334	0.046	0.030
-311.939	140.037	0.162	0.212
-310.924	-87.652	0.064	-0.019
-309.910	260.863	-0.116	-0.199
-308.895	-16.979	-0.049	0.030
-307.880	369.992	-0.166	0.333
-306.866	-20.808	0.223	0.136
-305.851	124.379	-0.155	-0.193
-304.837	-200.000	0.043	-0.579
-303.822	-31.277	-0.229	0.128
-302.807	800.000	-0.044	-0.161
-301.793	-130.854	-0.257	-0.034
-300.778	28.201	-0.249	0.209
-299.764	29.778	0.112	0.094
-298.749	479.510	-0.020	-0.046
-297.735	491.099	0.138	-0.313
-296.720	455.297	0.132	-0.291
-295.705	-9.641	0.132	-0.088
-294.691	-102.169	0.307	-0.073
-293.676	800.000	-0.117	0.364
-292.662	-200.000	0.039	0.216
-291.647	229.306	-0.066	-0.106
-290.632	-26.993	-0.111	-0.065
-289.618	-111.432	-0.348	-0.070
-288.603	-200.000	0.013	-0.156
-287.589	102.140	-0.134	-0.155
-286.574	-54.479	0.222	-0.100
-285.559	-200.000	-0.020	0.115
-284.545	1.198	-0.257	-0.183
-283.530	45.548	0.283	-0.259
-282.516	-138.088	-0.295	0.033
-281.501	-164.522	-0.120	-0.005
-280.486	-197.181	-0.207	0.001
-279.472	800.000	-0.055	0.200
-278.457	-122.023	0.483	0.079
-277.443	449.271	0.096	0.210
-276.428	116.679	-0.139	0.169
-275.413	-188.908	0.119	0.001
-274.399	369.580	-0.032	0.064
-273.384	-38.684	0.342	0.179
-272.370	298.158	0.060	0.109
-271.355	637.159	0.030	-0.076
-270.340	298.180	0.083	-0.151
-269.326	47.940	-0.167	-0.155
-268.311	-104.695	0.197	-0.045
-267.297	40.465	0.039	0.035
-266.282	-48.532	0.201	-0.096
-265.267	-122.989	-0.201	-0.032
-264.253	282.413	0.106	0.188
-263.238	-50.509	-0.143	0.067
-262.224	800.000	-0.094	0.286
-261.209	-200.000	0.010	0.113
-260.195	659.493	-0.084	0.214
-259.180	-200.000	-0.001	-0.203
-258.165	-200.000	0.058	0.305
-257.151	-200.000	0.084	0.000
-256.136	-57.915	-0.122	-0.053
-255.122	-54.453	0.316	0.142
-254.107	-42.903	0.250	-0.126
-253.092	42.406	-0.060	-0.054
-252.078	-200.000	-0.027	0.220
-251.063	-200.000	0.001	-0.015
-250.049	-200.000	0.005	-0.316
-249.034	-200.000	-0.056	0.309
-248.019	202.970	-0.138	-0.211
-247.005	-47.658	0.083	0.040
-245.990	-43.154	-0.003	0.002
-244.976	-63.822	0.147	0.060
-243.961	-150.968	0.330	-0.025
-242.946	-200.000	0.012	-0.129
-241.932	48.439	-0.153	-0.142
-240.917	148.490	0.151	0.202
-239.903	20.588	0.196	0.157
-238.888	-63.941	-0.339	-0.137
-237.873	103.859	-0.117	0.136
-236.859	29.467	0.205	0.173
-235.844	-106.100	0.206	-0.046
-234.830	-68.660	0.325	-0.125
-233.815	-78.596	0.029	-0.010
-232.800	-200.000	0.008	-0.057
-231.786	-112.285	-0.165	0.033
-230.771	61.205	-0.207	-0.204
-229.757	-93.375	0.020	-0.006
-228.742	52.597	0.091	-0.086
-227.727	-128.016	-0.241	-0.034
-226.713	-200.000	-0.003	0.120
-225.698	-200.000	0.012	-0.100
-224.684	435.505	-0.050	0.107
-223.669	511.982	0.064	0.147
-222.655	43.599	0.219	-0.198
-221.640	-131.388	0.185	-0.024
-220.625	93.727	0.046	0.052
-219.611	-84.852	0.632	0.197
-218.596	36.386	-0.142	-0.124
-217.582	-174.664	0.020	0.001
-216.567	73.281	0.175	-0.182
-215.552	164.035	0.152	-0.211
-214.538	226.652	0.236	0.378
-213.523	252.138	-0.077	0.130
-212.509	583.984	-0.065	-0.159
-211.494	-95.407	0.393	-0.104
-210.479	169.680	0.060	0.085
-209.465	168.418	-0.206	-0.290
-208.450	252.415	0.089	0.149
-207.436	-200.000	-0.043	0.246
-206.421	800.000	-0.098	-0.353
-205.406	800.000	-0.023	0.074
-204.392	23.991	0.142	-0.115
-203.377	-94.451	0.100	-0.027
-202.363	86.794	0.147	-0.160
-201.348	-23.492	0.295	-0.175
-200.333	69.288	0.133	-0.135
-199.319	800.000	-0.100	0.369
-198.304	-22.871	0.129	-0.077
-197.290	143.170	0.083	0.109
-196.275	-76.477	-0.103	0.036
-195.260	20.185	-0.242	-0.193
-194.246	800.000	-0.075	-0.221
-193.231	130.348	-0.167	0.212
-192.217	73.991	0.211	0.218
-191.202	-114.548	-0.268	-0.051
-190.187	96.828	-0.144	0.163
-189.173	501.814	0.011	-0.024
-188.158	-55.920	0.221	0.098
-187.144	-200.000	0.001	0.316
-186.129	800.000	0.104	-0.348
-185.114	114.135	0.048	0.058
-184.100	484.117	-0.057	0.128
-183.085	-144.737	0.353	0.032
-182.071	-200.000	0.001	-0.030
-181.056	368.877	-0.218	0.436
-180.042	800.000	-0.036	-0.126
-179.027	-200.000	-0.032	0.210
-178.012	89.392	-0.107	0.118
-176.998	800.000	0.069	-0.234
-175.983	800.000	0.033	-0.104
-174.969	73.036	-0.058	-0.060
-173.954	-43.780	0.046	0.023
-172.939	-97.089	-0.091	0.024
-171.925	800.000	-0.053	0.156
-170.910	-99.186	0.202	0.050
-169.896	-37.111	-0.071	-0.037
-168.881	-26.140	-0.149	-0.087
-167.866	284.736	-0.088	-0.156
-166.852	12.134	-0.150	0.114
-165.837	-200.000	-0.008	0.080
-164.823	800.000	0.114	-0.363
-163.808	-64.605	-0.181	-0.073
-162.793	-53.598	0.225	-0.102
-161.779	-38.796	0.265	-0.138
-160.764	800.000	0.050	0.215
-159.750	-200.000	-0.000	0.334
-158.735	-99.435	-0.320	-0.080
-157.720	782.128	0.108	-0.292
-156.706	760.843	0.098	-0.263
-155.691	-200.000	-0.007	0.280
-154.677	-49.170	0.170	-0.080
-153.662	454.512	-0.092	-0.201
-152.647	-55.839	0.289	-0.127
-151.633	-200.000	0.013	0.242
-150.618	170.733	-0.028	-0.039
-149.604	44.741	0.344	-0.313
-148.589	165.338	0.035	0.049
-147.574	105.859	-0.026	0.030
-146.560	95.088	0.104	-0.117
-145.545	-107.887	0.059	0.013
-144.531	150.469	0.244	-0.326
-143.516	-200.000	0.024	-0.344
-142.502	109.073	-0.075	-0.088
-141.487	481.838	0.218	0.490
-140.472	-7.562	0.433	0.289
-139.458	-147.069	0.277	0.023
-138.443	-95.976	0.194	-0.051
-137.429	-161.090	-0.275	0.014
-136.414	304.299	-0.150	-0.274
-135.399	-200.000	-0.030	0.359
-134.385	27.492	0.203	-0.169
-133.370	30.099	-0.300	0.252
-132.356	6.934	-0.217	-0.159
-131.341	161.659	-0.045	-0.063
-130.326	327.627	-0.071	-0.135
-129.312	735.438	0.046	-0.123
-128.297	572.172	0.144	0.346
-127.283	-119.507	-0.186	0.032
-126.268	70.748	0.053	0.054
-125.253	65.749	0.410	0.410
-124.239	-25.464	0.267	-0.156
-123.224	194.995	0.239	0.358
-122.210	-200.000	0.066	0.391
-121.195	64.193	-0.206	0.204
-120.180	441.938	-0.035	0.076
-119.166	800.000	0.023	-0.083
-118.151	460.831	-0.077	0.169
-117.137	-200.000	-0.007	0.262
-116.122	44.889	-0.067	0.061
-115.107	-29.317	0.254	-0.143
-114.093	-200.000	0.025	-0.153
-113.078	53.661	-0.266	0.252
-112.064	726.725	-0.125	-0.328
-111.049	-147.494	-0.087	0.007
-110.034	-119.935	-0.281	0.048
-109.020	45.938	0.239	0.218
-108.005	72.264	-0.155	-0.159
-106.991	800.000	-0.139	-0.382
-105.976	800.000	0.040	0.109
-104.962	141.879	0.104	0.136
-103.947	-92.453	-0.160	0.044
-102.932	55.462	0.353	0.336
-101.918	251.571	0.011	-0.018
-100.903	254.046	-0.050	0.085
-99.889	45.586	-0.140	0.127
-98.874	-12.103	-0.077	0.050
-97.859	-78.938	0.227	-0.076
-96.845	119.148	-0.067	-0.082
-95.830	-131.996	-0.212	0.027
-94.816	-6.819	-0.174	-0.117
-93.801	487.599	-0.074	0.167
-92.786	-122.306	-0.121	0.019
-91.772	377.622	0.124	0.250
-90.757	-200.000	0.039	0.282
-89.743	25.117	-0.063	-0.051
-88.728	800.000	0.039	-0.148
-87.713	-20.150	0.174	-0.106
-86.699	-200.000	-0.036	-0.356
-85.684	-200.000	-0.006	0.190
-84.670	343.380	-0.144	0.278
-83.655	28.621	-0.064	-0.053
-82.640	265.548	-0.075	-0.128
-81.626	-200.000	-0.005	0.366
-80.611	-69.011	0.221	0.084
-79.597	126.067	0.114	0.142
-78.582	800.000	0.036	-0.134
-77.567	-12.016	0.283	0.183
-76.553	502.621	-0.040	0.090
-75.538	19.313	0.372	-0.294
-74.524	-200.000	-0.004	0.024
-73.509	75.592	0.296	0.308
-72.494	-127.929	0.156	-0.022
-71.480	-137.255	0.332	0.037
-70.465	-118.538	-0.445	0.077
-69.451	-200.000	-0.008	0.169
-68.436	-46.411	0.095	0.046
-67.422	-107.058	-0.080	0.017
-66.407	143.722	-0.111	0.146
-65.392	-68.339	0.167	-0.064
-64.378	369.470	0.190	0.378
-63.363	-65.816	0.336	0.132
-62.349	152.079	-0.140	0.187
-61.334	94.486	-0.857	-0.958
-60.319	2.147	0.834	0.593
-59.305	435.567	-0.542	-1.160
-58.290	257.209	0.450	0.761
-57.276	800.000	0.399	1.518
-56.261	-200.000	95.484	599.166
-55.246	575.669	1363.509	3274.464
-54.232	163.051	2538.392	3506.401
-53.217	114.307	2134.837	2555.620
-52.203	44.192	1599.935	1443.199
-51.188	35.729	1338.257	1156.483
-50.173	32.438	1296.997	1101.563
-49.159	54.660	1344.043	1274.298
-48.144	56.978	1360.556	1303.686
-47.130	35.844	1319.364	1140.659
-46.115	32.378	1301.976	1105.258
-45.100	32.251	1297.179	1100.401
-44.086	32.133	1294.467	1097.370
-43.071	31.981	1292.412	1094.693
-42.057	31.962	1290.032	1092.524
-41.042	31.973	1288.380	1091.146
-40.027	32.085	1286.801	1090.415
-39.013	32.075	1285.451	1089.169
-37.998	32.101	1283.191	1087.364
-36.984	32.191	1281.330	1086.265
-35.969	32.238	1279.479	1084.923
-34.954	32.257	1277.676	1083.464
-33.940	32.224	1276.603	1082.316
-32.925	32.275	1275.580	1081.701
-31.911	32.369	1273.604	1080.522
-30.896	32.351	1272.048	1079.059
-29.881	32.297	1270.883	1077.719
-28.867	32.277	1269.732	1076.583
-27.852	32.510	1267.692	1076.141
-26.838	32.384	1266.591	1074.445
-25.823	32.347	1265.491	1073.258
-24.809	32.241	1264.197	1071.516
-23.794	32.248	1262.682	1070.228
-22.779	32.195	1261.861	1069.188
-21.765	32.274	1260.383	1068.341
-20.750	32.220	1259.409	1067.169
-19.736	32.049	1258.531	1065.413
-18.721	32.065	1256.552	1063.783
-17.706	32.056	1255.632	1062.913
-16.692	32.109	1253.675	1061.512
-15.677	32.183	1252.870	1061.205
-14.663	32.157	1252.104	1060.370
-13.648	32.249	1250.731	1059.680
-12.633	32.112	1250.092	1058.326
-11.619	32.129	1249.136	1057.573
-10.604	32.131	1248.604	1057.089
-9.590	32.111	1247.398	1055.916
-8.575	32.132	1246.145	1054.932
-7.560	31.918	1245.723	1053.330
-6.546	32.083	1244.318	1053.028
-5.531	32.034	1243.831	1052.298
-4.517	31.979	1243.414	1051.594
-3.502	32.087	1242.214	1051.144
-2.487	32.204	1240.717	1050.489
-1.473	32.074	1237.029	1046.599
-0.458	30.698	1222.064	1026.313
0.556	27.848	1205.164	990.488
1.571	24.386	1211.564	976.743
2.586	23.566	1227.451	984.912
3.600	23.115	1216.113	973.246
4.615	16.864	1143.471	882.587
5.629	6.772	1066.908	774.156
6.644	2.550	1046.140	738.692
7.659	2.147	1043.371	734.735
8.673	1.906	1042.514	732.910
9.688	1.879	1041.138	731.749
10.702	2.353	1040.121	733.240
11.717	9.004	1049.124	771.597
12.731	19.151	1063.284	831.168
13.746	24.083	1069.546	859.873
14.761	25.280	1070.546	866.380
15.775	25.335	1069.739	865.918
16.790	25.047	1069.575	864.319
17.804	24.943	1069.214	863.446
18.819	25.123	1068.343	863.534
19.834	25.303	1068.063	864.098
20.848	25.374	1067.722	864.089
21.863	25.240	1067.112	862.872
22.877	25.263	1066.256	862.213
23.892	25.213	1065.545	861.325
24.907	25.383	1064.637	861.328
25.921	25.222	1064.215	860.140
26.936	25.237	1062.580	858.817
27.950	25.132	1061.440	857.316
28.965	25.014	1059.616	855.200
29.980	25.231	1057.461	854.420
30.994	25.334	1057.036	854.492
32.009	25.356	1055.772	853.500
33.023	25.180	1054.713	851.734
34.038	25.165	1053.980	850.996
35.053	25.299	1053.758	851.373
36.067	25.236	1052.477	849.968
37.082	25.498	1051.612	850.431
38.096	25.636	1050.699	850.271
39.111	25.646	1050.216	849.853
40.126	25.465	1048.669	847.672
41.140	25.116	1047.110	844.690
42.155	24.916	1046.017	842.792
43.169	24.836	1044.839	841.395
44.184	24.959	1043.662	840.950
45.199	24.880	1043.024	839.992
46.213	24.939	1042.104	839.455
47.228	25.164	1041.800	840.186
48.242	25.157	1040.674	839.174
49.257	25.318	1040.365	839.601
50.271	25.369	1039.085	838.733
51.286	25.363	1038.304	838.000
52.301	25.403	1037.754	837.669
53.315	25.275	1036.555	836.029
54.330	25.184	1036.102	835.167
55.344	25.260	1035.010	834.565
56.359	25.301	1034.076	833.931
57.374	25.091	1033.085	832.084
58.388	25.123	1032.393	831.598
59.403	24.869	1031.660	829.761
60.417	24.840	1030.534	828.644
61.432	24.932	1030.189	828.719
62.447	24.972	1029.755	828.481
63.461	25.041	1028.849	827.999
64.476	25.110	1028.005	827.565
65.490	25.048	1026.244	825.788
66.505	25.109	1026.089	825.871
67.520	25.069	1025.721	825.321
68.534	24.744	1024.969	823.147
69.549	24.574	1023.351	820.994
70.563	24.553	1022.967	820.514
71.578	24.445	1022.211	819.338
72.593	24.322	1020.914	817.665
73.607	24.686	1020.247	818.725
74.622	24.731	1020.439	819.014
75.636	24.906	1019.636	819.096
76.651	24.565	1018.670	816.687
77.666	24.680	1017.543	816.236
78.680	24.626	1017.631	815.992
79.695	24.853	1016.599	816.126
80.709	24.903	1016.206	815.968
81.724	24.928	1015.067	815.094
82.739	25.028	1014.351	814.900
83.753	25.303	1014.188	815.948
84.768	25.602	1013.200	816.440
85.782	25.775	1012.377	816.486
86.797	25.609	1011.379	814.857
87.812	25.502	1010.294	813.427
88.826	25.540	1009.302	812.731
89.841	25.462	1008.928	812.004
90.855	25.506	1007.834	811.250
91.870	25.676	1006.403	810.790
92.884	25.426	1005.879	809.172
93.899	25.471	1004.520	808.210
94.914	25.625	1003.766	808.225
95.928	25.296	1003.257	806.263
96.943	25.168	1001.789	804.440
97.957	24.878	1000.726	802.217
98.972	24.712	999.866	800.713
99.987	25.113	999.178	801.884
101.001	25.252	998.189	801.642
102.016	25.361	997.395	801.417
103.030	25.094	996.998	799.836
104.045	24.954	996.011	798.351
105.060	24.804	995.054	796.843
106.074	25.034	994.177	797.097
107.089	25.278	994.001	797.967
108.103	25.122	992.626	796.101
109.118	24.989	991.226	794.321
110.133	24.896	990.345	793.131
111.147	24.785	988.867	791.384
112.162	24.702	988.190	790.408
113.176	24.851	987.814	790.694
114.191	24.932	986.715	790.104
115.206	24.567	985.641	787.562
116.220	24.616	984.331	786.663
117.235	24.816	984.299	787.446
118.249	24.698	983.402	786.143
119.264	24.557	982.859	785.020
120.279	24.730	981.371	784.522
121.293	24.793	980.915	784.362
122.308	24.714	980.001	783.215
123.322	24.605	978.858	781.756
124.337	24.460	977.723	780.147
125.352	24.036	976.483	777.236
126.366	23.964	975.293	775.907
127.381	24.791	975.628	779.710
128.395	25.137	975.178	780.791
129.410	25.172	974.011	779.936
130.424	25.198	973.366	779.467
131.439	25.164	972.330	778.419
132.454	25.152	971.409	777.561
133.468	25.051	970.471	776.303
134.483	25.313	969.460	776.562
135.497	25.426	969.169	776.747
136.512	25.431	967.516	775.374
137.527	25.534	966.977	775.319
138.541	25.440	966.594	774.539
139.556	25.436	965.751	773.778
140.570	25.647	964.941	773.967
141.585	25.615	963.868	772.901
142.600	25.632	962.557	771.853
143.614	25.647	962.180	771.546
144.629	25.819	961.760	771.881
145.643	25.665	960.142	769.856
146.658	25.365	959.024	767.608
147.673	25.384	957.750	766.603
148.687	25.339	956.997	765.738
149.702	25.116	955.841	763.797
150.716	25.282	954.598	763.443
151.731	25.379	954.102	763.390
152.746	25.607	953.749	764.007
153.760	25.688	953.114	763.776
154.775	25.724	952.669	763.503
155.789	25.565	952.110	762.314
156.804	25.516	951.139	761.262
157.819	25.546	950.240	760.603
158.833	25.798	949.668	761.144
159.848	25.719	948.679	759.950
160.862	25.576	947.446	758.292
161.877	25.709	946.302	757.867
162.892	25.615	945.473	756.740
163.906	25.615	944.504	755.899
164.921	25.596	943.288	754.781
165.935	25.793	942.825	755.168
166.950	25.566	942.336	753.758
167.964	25.575	940.741	752.455
168.979	25.420	940.195	751.302
169.994	25.352	939.269	750.214
171.008	25.682	938.333	750.774
172.023	25.709	937.408	750.080
173.037	25.460	936.587	748.323
174.052	25.303	935.809	746.980
175.067	25.242	935.309	746.260
176.081	25.421	934.995	746.689
177.096	25.412	934.088	745.859
178.110	25.074	933.072	743.582
179.125	24.989	932.217	742.481
180.140	24.881	932.122	741.895
181.154	25.296	931.475	743.032
182.169	25.525	931.681	744.076
183.183	25.617	931.053	743.891
184.198	25.589	930.104	742.950
185.213	25.623	929.371	742.441
186.227	25.609	928.869	741.914
187.242	25.628	928.006	741.238
188.256	25.721	927.592	741.225
189.271	25.752	926.913	740.743
190.286	25.396	925.637	738.196
191.300	24.815	924.240	734.630
192.315	24.088	922.460	730.173
193.329	24.126	921.998	729.899
194.344	24.789	923.010	733.356
195.359	25.510	922.646	735.950
196.373	25.516	922.281	735.620
197.388	25.536	921.562	735.062
198.402	25.522	920.850	734.375
199.417	25.526	920.020	733.661
200.432	25.191	919.352	731.700
201.446	25.182	918.733	731.105
202.461	25.134	917.776	730.084
203.475	24.321	915.961	725.269
204.490	23.622	914.443	721.164
205.504	24.433	915.501	725.233
206.519	25.071	915.272	727.578
207.534	25.162	914.709	727.436
208.548	25.642	914.067	728.806
209.563	25.287	913.620	726.945
210.577	25.279	913.057	726.400
211.592	25.688	912.646	727.666
212.607	25.772	911.550	727.065
213.621	25.758	911.048	726.543
214.636	25.824	910.411	726.237
215.650	25.668	909.751	725.019
216.665	25.666	909.176	724.488
217.680	25.694	908.372	723.897
218.694	25.235	907.282	721.120
219.709	25.229	906.365	720.303
220.723	25.468	906.492	721.298
221.738	25.550	905.960	721.142
222.753	25.399	905.458	720.073
223.767	25.708	904.698	720.642
224.782	25.813	904.477	720.822
225.796	25.752	903.806	719.981
226.811	25.228	902.369	716.677
227.826	24.474	900.963	712.490
228.840	24.608	900.917	712.924
229.855	24.762	900.091	712.822
230.869	24.511	898.656	710.623
231.884	24.865	898.890	712.156
232.899	25.561	898.983	714.935
233.913	25.418	898.392	713.833
234.928	25.444	897.663	713.293
235.942	25.360	896.869	712.266
236.957	25.105	895.871	710.402
237.972	25.078	895.731	710.118
238.986	25.205	895.079	710.044
240.001	25.187	894.532	709.474
241.015	25.260	893.898	709.198
242.030	25.460	893.772	709.824
243.045	25.399	893.281	709.133
244.059	25.763	892.578	709.947
245.074	25.367	891.842	707.739
246.088	25.167	890.740	706.015
247.103	25.384	890.374	706.515
248.117	25.929	890.645	708.810
249.132	26.117	890.437	709.320
250.147	26.274	889.627	709.232
251.161	26.500	889.065	709.606
252.176	26.427	888.289	708.638
253.190	26.411	888.229	708.466
254.205	26.664	887.655	708.935
255.220	26.474	886.969	707.578
256.234	26.388	886.183	706.554
257.249	26.284	885.421	705.477
258.263	26.281	884.978	705.051
259.278	26.418	884.677	705.282
260.293	26.444	884.145	704.898
261.307	26.411	882.994	703.791
262.322	26.223	882.114	702.295
263.336	25.247	880.563	697.207
264.351	24.398	878.601	692.301
265.366	24.609	878.423	692.916
266.380	25.806	878.550	697.596
267.395	26.015	878.716	698.475
268.409	25.998	878.036	697.807
269.424	26.270	877.409	698.300
270.439	26.251	876.742	697.634
271.453	26.249	876.478	697.351
272.468	26.568	875.831	698.007
273.482	26.624	875.364	697.790
274.497	26.094	874.476	694.977
275.512	25.617	873.443	692.262
276.526	26.024	873.798	694.046
277.541	26.430	873.074	694.971
278.555	26.062	872.047	692.681
279.570	25.998	871.113	691.633
280.585	26.117	870.793	691.772
281.599	26.105	869.797	690.872
282.614	25.546	868.358	687.532
283.628	25.403	868.362	686.929
284.643	25.938	867.686	688.376
285.657	25.443	866.555	685.531
286.672	25.206	866.409	684.451
287.687	25.786	866.188	686.427
288.701	25.788	865.548	685.867
289.716	25.485	864.917	684.150
290.730	25.441	864.234	683.382
291.745	25.129	863.261	681.369
292.760	25.585	863.422	683.170
293.774	26.350	863.870	686.367
294.789	26.722	863.919	687.757
295.803	26.802	862.794	687.104
296.818	26.817	862.153	686.589
297.833	26.445	860.868	684.101
298.847	26.173	860.145	682.436
299.862	26.384	860.685	683.602
300.876	26.739	859.783	684.166
301.891	26.675	859.117	683.332
302.906	26.199	858.234	680.777
303.920	26.383	857.950	681.186
304.935	26.799	857.617	682.425
305.949	26.741	856.515	681.271
306.964	26.553	855.736	679.884
307.979	26.518	855.680	679.649
308.993	26.968	855.351	681.017
310.008	27.036	854.642	680.646
311.022	26.641	854.187	678.742
312.037	26.445	853.665	677.535
313.052	26.226	852.270	675.550
314.066	25.204	851.404	670.983
315.081	24.978	850.140	669.081
316.095	25.893	850.692	672.875
317.110	26.258	850.476	674.009
318.125	25.541	848.939	670.059
319.139	24.445	847.511	664.792
320.154	24.458	847.031	664.405
321.168	25.368	847.616	668.192
322.183	26.117	847.692	670.981
323.197	26.372	847.103	671.400
324.212	26.502	846.829	671.609
325.227	26.412	846.312	670.805
326.241	26.423	845.485	670.129
327.256	26.451	844.639	669.503
328.270	26.341	844.020	668.549
329.285	26.014	843.661	666.996
330.300	25.750	842.800	665.280
331.314	26.135	842.491	666.399
332.329	26.525	842.346	667.665
333.343	26.636	842.166	667.872
334.358	26.565	841.938	667.369
335.373	26.677	841.469	667.352
336.387	27.059	841.294	668.559
337.402	27.181	841.192	668.869
338.416	26.931	840.728	667.521
339.431	27.217	840.484	668.320
340.446	27.272	840.023	668.097
341.460	27.185	839.761	667.508
342.475	26.929	839.158	666.031
343.489	27.161	838.660	666.429
344.504	27.294	838.624	666.827
345.519	27.448	838.297	667.075
346.533	27.553	837.661	666.893
347.548	27.439	837.046	665.928
348.562	27.405	836.605	665.392
349.577	27.349	835.840	664.522
350.592	27.258	835.254	663.663
351.606	27.313	834.476	663.190
352.621	27.383	833.549	662.647
353.635	27.221	833.051	661.605
354.650	26.537	831.085	657.502
355.665	25.561	829.995	653.036
356.679	25.976	829.635	654.203
357.694	26.490	829.306	655.746
358.708	26.399	829.029	655.140
359.723	26.928	828.569	656.636
360.738	27.083	828.548	657.119
361.752	27.165	827.888	656.836
362.767	27.495	827.774	657.877
363.781	27.725	827.362	658.322
364.796	27.718	827.193	658.107
365.810	27.820	826.780	658.086
366.825	27.740	826.188	657.267
367.840	27.539	825.173	655.681
368.854	27.091	824.324	653.338
369.869	27.233	824.003	653.534
370.883	27.071	823.830	652.758
371.898	27.050	823.465	652.333
372.913	27.197	822.516	652.055
373.927	27.262	822.461	652.185
374.942	27.297	822.406	652.208
375.956	27.472	821.557	652.106
376.971	27.587	821.448	652.372
377.986	27.818	821.127	652.884
379.000	27.788	820.293	652.059
380.015	27.513	819.756	650.590
381.029	27.785	819.194	651.058
382.044	27.816	818.658	650.684
383.059	27.775	818.390	650.267
384.073	27.904	817.526	649.983
385.088	27.864	816.803	649.207
386.102	27.546	816.310	647.628
387.117	27.512	815.459	646.777
388.132	27.108	814.580	644.588
389.146	26.633	813.436	641.944
390.161	27.114	813.457	643.606
391.175	27.507	813.680	645.117
392.190	27.295	812.071	643.038
393.205	25.721	810.093	635.859
394.219	24.296	808.182	629.278
395.234	24.302	808.182	629.244
396.248	25.907	809.819	636.131
397.263	27.349	810.405	641.624
398.278	27.243	809.796	640.712
399.292	26.960	809.486	639.411
400.307	27.010	808.720	638.928
401.321	27.286	808.546	639.703
402.336	27.590	808.716	640.849
403.350	27.906	808.351	641.613
404.365	28.245	808.230	642.653
405.380	28.524	807.754	643.196
406.394	28.547	807.643	643.131
407.409	28.390	807.105	642.094
408.423	28.346	806.519	641.418
409.438	28.496	806.295	641.709
410.453	28.557	805.965	641.602
411.467	28.418	805.023	640.308
412.482	28.471	804.897	640.340
413.496	28.472	804.761	640.176
414.511	28.549	804.316	640.034
415.526	28.556	803.343	639.227
416.540	28.337	802.850	638.019
417.555	28.248	802.203	637.138
418.569	28.362	801.743	637.110
419.584	28.255	801.323	636.350
420.599	27.912	800.597	634.526
421.613	111.546	1286.044	1458.387
422.628	96.267	1356.754	1458.513
