DTS Sentinel unit serial number:	SN413079Multiplexer serial number:	ORYXHardware model number:	OX4-SRSoftware version number:	ORYX F/W v4.00 Oryx Data Collector v3.7.2.0data status	okinstallation	princeton_trtdifferential loss correction	single-endedforward channel	channel 1reverse channel	N/Adate	2019/09/14time	01:02:35forward acquisition time	60.00reverse acquisition time	0.00gamma	496.2192k internal	0.2337k external	0.2337temperature offset calibration	1.0077default loss term (dB/km)	0.3790temperature slope calibration	1.0000multiplexer offset coefficient	1.0000multiplexer slope coefficient	1.0000fibre end	0.00T internal ref (°C)	26.37T ext. ref 1 (°C)	3.16T ext. ref 2 (°C)	21.36length (m)	temperature (°C)	Stokes	anti-Stokes-747.200	-87.984	0.245	0.074
-746.185	486.645	-0.096	0.221
-745.171	-92.951	-0.299	-0.084
-744.156	142.076	-0.211	-0.281
-743.142	30.808	0.111	0.096
-742.127	-18.989	-0.132	0.082
-741.112	31.693	0.114	-0.099
-740.098	-94.093	-0.282	0.078
-739.083	-200.000	0.011	0.157
-738.069	90.687	-0.072	0.081
-737.054	-200.000	-0.013	0.296
-736.039	-35.790	-0.388	-0.211
-735.025	800.000	0.108	0.378
-734.010	-10.551	0.296	0.197
-732.996	-184.199	-0.327	-0.005
-731.981	-166.744	-0.354	0.015
-730.966	-110.888	0.393	-0.081
-729.952	-73.555	-0.211	0.077
-728.937	28.605	-0.215	-0.183
-727.923	-200.000	0.017	0.142
-726.908	-99.261	-0.208	0.053
-725.894	-43.150	-0.235	-0.120
-724.879	364.287	0.128	-0.258
-723.864	-173.121	-0.405	-0.012
-722.850	183.792	0.107	-0.158
-721.835	-103.779	-0.080	-0.019
-720.821	171.071	0.232	0.334
-719.806	800.000	0.049	0.150
-718.791	10.521	-0.125	-0.095
-717.777	655.791	-0.074	-0.191
-716.762	-69.552	-0.183	-0.070
-715.748	791.566	-0.038	0.106
-714.733	-98.861	0.166	0.042
-713.718	-200.000	0.054	-0.262
-712.704	-105.305	-0.444	0.101
-711.689	156.943	-0.174	0.242
-710.675	-67.156	-0.131	-0.052
-709.660	-119.721	-0.021	-0.004
-708.645	-50.846	-0.298	0.140
-707.631	-34.024	0.108	-0.060
-706.616	119.054	0.181	0.225
-705.602	800.000	-0.027	-0.093
-704.587	-76.818	0.064	0.022
-703.572	-162.682	-0.414	-0.020
-702.558	-200.000	-0.045	0.318
-701.543	547.146	0.118	-0.282
-700.529	-145.891	0.135	-0.012
-699.514	-200.000	0.033	0.201
-698.499	97.598	0.105	-0.121
-697.485	800.000	0.022	0.073
-696.470	82.583	0.194	-0.211
-695.456	-200.000	-0.037	-0.197
-694.441	-200.000	-0.026	-0.376
-693.426	800.000	-0.094	-0.276
-692.412	-87.360	-0.282	0.086
-691.397	31.215	0.203	-0.174
-690.383	-98.537	0.314	0.080
-689.368	-45.633	0.317	0.157
-688.354	-0.811	0.258	0.183
-687.339	-111.101	0.275	0.056
-686.324	333.567	-0.106	0.205
-685.310	-19.700	-0.140	-0.087
-684.295	142.622	-0.127	0.170
-683.281	60.033	-0.230	-0.228
-682.266	-90.755	0.319	-0.092
-681.251	-160.169	0.090	-0.005
-680.237	207.627	-0.069	0.108
-679.222	-105.751	-0.297	-0.067
-678.208	-166.954	0.313	0.013
-677.193	-111.377	-0.129	-0.026
-676.178	4.422	0.169	-0.124
-675.164	-18.442	0.051	0.032
-674.149	-70.077	0.282	-0.107
-673.135	57.131	-0.113	0.110
-672.120	62.910	0.301	-0.301
-671.105	-169.145	0.160	-0.006
-670.091	-160.422	-0.270	-0.014
-669.076	351.837	-0.180	0.356
-668.062	92.068	-0.110	-0.124
-667.047	-19.196	0.154	-0.096
-666.032	800.000	0.026	-0.098
-665.018	18.696	-0.075	0.060
-664.003	-32.402	0.161	0.090
-662.989	158.129	-0.049	0.068
-661.974	-24.042	0.241	-0.144
-660.959	54.137	-0.159	-0.153
-659.945	673.494	-0.161	-0.419
-658.930	106.144	0.217	-0.257
-657.916	800.000	-0.129	-0.368
-656.901	38.442	0.250	0.223
-655.886	-39.439	-0.197	0.103
-654.872	100.221	0.110	-0.128
-653.857	-38.152	-0.583	-0.310
-652.843	-101.374	-0.201	0.049
-651.828	537.382	-0.108	0.257
-650.814	-80.704	0.162	0.054
-649.799	335.598	0.070	-0.135
-648.784	-140.615	-0.458	0.048
-647.770	-200.000	0.000	-0.044
-646.755	-10.047	-0.045	0.030
-645.741	-200.000	-0.004	0.111
-644.726	-19.403	-0.324	-0.201
-643.711	-200.000	-0.040	-0.223
-642.697	800.000	0.128	0.390
-641.682	-200.000	0.024	-0.262
-640.668	800.000	0.054	0.220
-639.653	-67.378	-0.089	0.035
-638.638	800.000	-0.085	0.245
-637.624	99.278	-0.130	0.151
-636.609	210.058	-0.142	0.222
-635.595	-200.000	-0.009	0.050
-634.580	42.552	0.189	-0.172
-633.565	197.553	0.132	-0.201
-632.551	-127.696	-0.365	-0.053
-631.536	515.782	0.022	0.051
-630.522	-200.000	-0.010	0.185
-629.507	-200.000	-0.134	0.000
-628.492	347.103	-0.118	0.233
-627.478	-172.997	-0.522	-0.016
-626.463	185.565	-0.127	-0.188
-625.449	326.556	0.093	0.178
-624.434	111.833	-0.102	0.123
-623.419	-200.000	0.003	0.408
-622.405	-137.181	-0.093	-0.011
-621.390	-51.423	-0.328	0.153
-620.376	-158.732	-0.402	-0.023
-619.361	-200.000	0.013	-0.137
-618.346	-90.399	0.102	0.030
-617.332	-127.058	0.290	0.043
-616.317	99.180	-0.061	-0.070
-615.303	-142.244	-0.140	0.014
-614.288	51.193	0.231	0.219
-613.273	-25.195	0.211	0.125
-612.259	48.626	0.045	0.042
-611.244	-17.480	-0.072	0.045
-610.230	83.790	0.213	0.232
-609.215	-200.000	-0.008	0.256
-608.201	-76.063	-0.216	-0.076
-607.186	-23.796	0.163	-0.098
-606.171	-97.550	-0.137	-0.035
-605.157	-200.000	0.005	-0.228
-604.142	165.449	-0.097	-0.137
-603.128	800.000	0.077	0.280
-602.113	-34.112	-0.291	-0.160
-601.098	96.962	-0.211	-0.242
-600.084	0.928	0.206	-0.148
-599.069	800.000	0.055	-0.179
-598.055	-62.010	-0.101	0.042
-597.040	96.842	0.217	-0.248
-596.025	66.159	0.132	-0.134
-595.011	-200.000	-0.029	0.139
-593.996	-83.530	-0.244	-0.078
-592.982	-133.964	-0.123	-0.015
-591.967	-200.000	-0.001	0.082
-590.952	-100.576	0.316	-0.078
-589.938	-122.174	-0.557	-0.091
-588.923	800.000	0.051	0.154
-587.909	18.042	0.204	0.162
-586.894	-1.378	0.233	0.164
-585.879	17.387	0.197	-0.156
-584.865	260.384	0.096	0.165
-583.850	486.527	-0.104	0.237
-582.836	97.906	-0.130	0.150
-581.821	-136.354	-0.305	-0.035
-580.806	-81.517	-0.281	-0.092
-579.792	-200.000	0.026	0.181
-578.777	-200.000	0.001	-0.041
-577.763	-143.120	-0.327	-0.031
-576.748	85.578	0.223	-0.244
-575.733	-120.524	0.303	0.051
-574.719	70.373	0.179	-0.185
-573.704	-200.000	-0.011	-0.294
-572.690	-200.000	-0.054	0.471
-571.675	66.298	-0.071	-0.072
-570.661	-129.772	-0.124	-0.017
-569.646	-200.000	0.008	-0.285
-568.631	635.857	-0.059	-0.148
-567.617	800.000	-0.045	-0.125
-566.602	800.000	0.074	-0.239
-565.588	122.544	0.138	-0.173
-564.573	416.585	-0.177	0.377
-563.558	-105.864	-0.110	0.025
-562.544	-93.356	0.127	0.035
-561.529	-98.555	0.119	-0.030
-560.515	307.671	-0.033	-0.061
-559.500	29.859	0.109	-0.093
-558.485	51.191	0.052	0.049
-557.471	248.985	-0.029	0.049
-556.456	-42.766	-0.222	0.113
-555.442	-52.236	0.033	-0.015
-554.427	162.603	0.089	-0.125
-553.412	117.167	0.054	0.066
-552.398	-41.296	0.217	-0.111
-551.383	195.460	-0.189	-0.286
-550.369	-200.000	0.016	0.270
-549.354	378.859	0.152	-0.311
-548.339	235.301	-0.200	-0.329
-547.325	-200.000	-0.039	-0.301
-546.310	-82.076	-0.534	-0.174
-545.296	-200.000	0.004	0.228
-544.281	-3.717	0.086	-0.059
-543.266	-142.165	0.116	0.011
-542.252	800.000	-0.086	0.244
-541.237	-54.351	0.177	-0.080
-540.223	-142.565	0.226	0.022
-539.208	800.000	-0.082	0.282
-538.193	-45.292	0.269	-0.133
-537.179	133.681	-0.179	0.231
-536.164	103.652	0.138	-0.161
-535.150	101.862	-0.066	-0.077
-534.135	-43.485	0.303	-0.153
-533.121	-200.000	-0.019	0.096
-532.106	-116.375	-0.214	-0.039
-531.091	403.446	-0.028	0.060
-530.077	337.604	-0.120	0.232
-529.062	-116.900	-0.248	-0.045
-528.048	-63.811	0.387	-0.158
-527.033	-74.749	-0.342	-0.122
-526.018	211.274	-0.156	-0.244
-525.004	-36.415	0.231	0.124
-523.989	57.321	0.073	-0.070
-522.975	-125.917	0.262	0.039
-521.960	-4.098	0.110	0.076
-520.945	163.187	-0.194	0.271
-519.931	-57.763	-0.106	-0.046
-518.916	57.661	-0.087	0.085
-517.902	-116.471	-0.123	-0.023
-516.887	-78.824	-0.269	-0.091
-515.872	-160.367	0.037	0.002
-514.858	93.115	0.030	-0.033
-513.843	6.348	-0.082	-0.060
-512.829	-100.441	0.137	0.034
-511.814	-17.224	-0.193	-0.121
-510.799	285.943	0.086	0.154
-509.785	-191.329	-0.332	-0.003
-508.770	206.634	0.242	0.375
-507.756	-47.299	0.181	-0.088
-506.741	96.749	0.098	-0.111
-505.726	-200.000	0.032	0.179
-504.712	-97.322	-0.138	-0.036
-503.697	800.000	0.044	-0.133
-502.683	800.000	-0.058	-0.205
-501.668	39.087	-0.274	-0.243
-500.653	-200.000	0.016	0.130
-499.639	-200.000	0.029	0.226
-498.624	-84.008	0.136	0.043
-497.610	800.000	0.044	0.143
-496.595	85.230	-0.110	-0.120
-495.581	-200.000	0.029	0.131
-494.566	168.927	0.211	0.300
-493.551	115.421	-0.287	0.349
-492.537	102.173	0.065	0.076
-491.522	-200.000	-0.012	-0.333
-490.508	422.678	0.048	-0.103
-489.493	65.025	0.185	-0.186
-488.478	-200.000	-0.025	-0.122
-487.464	113.053	0.076	0.092
-486.449	-26.659	0.103	0.060
-485.435	-52.981	0.400	-0.183
-484.420	470.549	0.044	-0.099
-483.405	-62.981	-0.500	0.205
-482.391	26.241	-0.133	0.110
-481.376	-83.507	-0.206	0.066
-480.362	-200.000	-0.029	-0.149
-479.347	34.298	-0.200	0.173
-478.332	800.000	-0.103	0.327
-477.318	114.074	0.212	0.256
-476.303	49.821	-0.154	-0.144
-475.289	257.026	0.220	0.375
-474.274	703.926	0.011	-0.028
-473.259	311.046	-0.050	0.093
-472.245	-113.556	0.484	0.094
-471.230	-53.884	-0.274	-0.124
-470.216	114.075	0.206	0.249
-469.201	-200.000	-0.033	0.216
-468.186	-57.208	0.199	0.087
-467.172	800.000	-0.056	-0.187
-466.157	-200.000	-0.032	-0.332
-465.143	-2.436	0.080	0.055
-464.128	-42.427	0.147	-0.075
-463.113	800.000	0.035	0.102
-462.099	-85.557	-0.117	0.036
-461.084	-41.494	-0.193	0.098
-460.070	-200.000	-0.121	-0.535
-459.055	-95.888	-0.305	0.081
-458.040	-200.000	0.043	-0.273
-457.026	-200.000	-0.060	0.280
-456.011	-107.792	-0.318	-0.069
-454.997	35.545	0.191	-0.166
-453.982	-200.000	0.034	0.296
-452.968	-200.000	-0.049	-0.286
-451.953	126.523	0.158	-0.198
-450.938	57.635	-0.179	-0.174
-449.924	-48.792	0.310	-0.148
-448.909	291.903	-0.165	-0.298
-447.895	-122.875	0.170	0.027
-446.880	800.000	-0.047	0.190
-445.865	70.104	-0.202	-0.207
-444.851	-200.000	-0.003	0.033
-443.836	-153.893	0.116	-0.008
-442.822	-200.000	-0.022	-0.259
-441.807	64.377	0.052	0.052
-440.792	-152.333	-0.255	-0.018
-439.778	656.771	0.186	-0.474
-438.763	219.613	-0.053	0.085
-437.749	622.470	-0.110	0.276
-436.734	471.174	0.161	-0.360
-435.719	-200.000	-0.019	0.121
-434.705	800.000	0.024	-0.095
-433.690	240.315	-0.080	0.132
-432.676	56.907	0.054	0.052
-431.661	130.066	0.098	-0.124
-430.646	-200.000	-0.010	-0.273
-429.632	-90.676	-0.180	0.052
-428.617	135.736	-0.011	0.014
-427.603	800.000	0.039	-0.113
-426.588	-53.700	-0.109	-0.049
-425.573	800.000	-0.062	0.222
-424.559	-33.795	-0.163	0.089
-423.544	557.128	0.079	-0.188
-422.530	-117.270	-0.069	-0.012
-421.515	-91.144	0.203	-0.058
-420.500	-200.000	-0.024	-0.136
-419.486	491.782	0.109	0.247
-418.471	-158.031	-0.185	-0.011
-417.457	-15.872	-0.109	0.069
-416.442	6.952	-0.144	0.107
-415.428	122.563	-0.154	-0.191
-414.413	-74.142	0.249	-0.089
-413.398	80.881	0.206	0.220
-412.384	-200.000	-0.055	-0.307
-411.369	800.000	-0.129	0.421
-410.355	-46.459	-0.372	0.181
-409.340	-200.000	0.030	0.211
-408.325	382.519	-0.070	-0.144
-407.311	800.000	0.084	0.335
-406.296	221.390	0.110	-0.175
-405.282	-91.557	0.110	-0.031
-404.267	59.550	0.276	-0.269
-403.252	-200.000	0.045	0.569
-402.238	-9.387	0.143	0.094
-401.223	621.006	-0.104	0.260
-400.209	-101.832	0.104	-0.025
-399.194	727.178	-0.028	-0.075
-398.179	349.020	-0.177	0.346
-397.165	-200.000	-0.032	0.145
-396.150	82.179	0.152	0.164
-395.136	170.917	0.025	0.036
-394.121	52.827	0.100	-0.095
-393.106	-5.471	0.192	-0.131
-392.092	210.033	-0.081	-0.126
-391.077	-120.658	0.251	-0.042
-390.063	249.192	0.151	-0.253
-389.048	5.486	0.325	-0.238
-388.033	13.412	0.272	0.209
-387.019	-200.000	0.035	-0.375
-386.004	96.521	0.096	0.108
-384.990	-19.252	-0.298	0.183
-383.975	223.303	-0.163	-0.260
-382.960	-200.000	-0.010	0.377
-381.946	-193.973	-0.246	-0.002
-380.931	-147.987	-0.258	-0.021
-379.917	-200.000	-0.018	-0.212
-378.902	224.142	0.057	-0.092
-377.888	-200.000	-0.006	-0.067
-376.873	-27.054	-0.112	0.065
-375.858	72.369	0.198	0.204
-374.844	800.000	-0.040	-0.149
-373.829	302.347	0.117	-0.214
-372.815	15.992	0.176	-0.137
-371.800	241.242	0.164	-0.271
-370.785	6.066	0.154	0.113
-369.771	-54.085	-0.122	-0.055
-368.756	-108.147	-0.051	-0.011
-367.742	-88.172	0.197	-0.058
-366.727	380.430	-0.022	0.045
-365.712	5.227	-0.165	-0.121
-364.698	-99.868	0.250	-0.062
-363.683	800.000	0.130	-0.356
-362.669	-65.082	0.150	-0.060
-361.654	-200.000	0.027	0.150
-360.639	-200.000	-0.016	-0.188
-359.625	-8.059	0.048	-0.032
-358.610	-200.000	0.004	-0.315
-357.596	-31.449	-0.043	0.024
-356.581	296.213	-0.119	-0.216
-355.566	-128.955	0.067	-0.009
-354.552	-20.233	0.152	-0.093
-353.537	800.000	0.087	0.335
-352.523	566.943	-0.225	0.540
-351.508	145.324	-0.182	0.241
-350.493	-126.903	0.044	0.006
-349.479	-2.074	-0.225	-0.157
-348.464	-124.693	0.466	0.071
-347.450	-7.751	0.220	-0.147
-346.435	136.023	-0.364	-0.469
-345.420	-200.000	0.074	-0.432
-344.406	-164.998	0.219	-0.010
-343.391	-28.195	-0.361	0.206
-342.377	93.124	0.188	0.210
-341.362	-47.457	0.212	0.102
-340.348	-103.970	0.397	0.091
-339.333	-15.367	-0.051	-0.032
-338.318	-200.000	0.045	0.223
-337.304	-61.636	0.320	0.132
-336.289	87.999	-0.177	-0.194
-335.275	0.466	0.143	-0.101
-334.260	-200.000	-0.014	0.161
-333.245	-200.000	-0.001	-0.035
-332.231	800.000	-0.072	-0.268
-331.216	-158.222	-0.146	-0.008
-330.202	126.460	0.366	-0.458
-329.187	234.593	0.162	-0.263
-328.172	-82.688	0.176	0.056
-327.158	101.149	-0.256	0.294
-326.143	107.071	0.144	-0.170
-325.129	458.852	-0.115	0.254
-324.114	-94.068	-0.204	-0.055
-323.099	-80.614	0.179	0.059
-322.085	-20.788	-0.314	0.190
-321.070	-30.726	0.269	-0.150
-320.056	-30.023	0.108	-0.060
-319.041	173.575	-0.105	0.150
-318.026	1.649	-0.152	-0.108
-317.012	-60.381	0.166	0.070
-315.997	-83.056	-0.199	-0.063
-314.983	69.948	0.282	-0.287
-313.968	11.928	0.230	0.174
-312.953	311.383	0.032	0.060
-311.939	-20.131	-0.261	0.159
-310.924	50.408	-0.229	0.214
-309.910	139.068	-0.191	0.249
-308.895	1.588	0.361	0.257
-307.880	-47.563	-0.147	0.071
-306.866	214.044	0.181	-0.283
-305.851	55.263	-0.250	-0.239
-304.837	-0.477	-0.206	-0.144
-303.822	-66.648	0.164	-0.064
-302.807	800.000	0.003	0.010
-301.793	-200.000	0.009	-0.063
-300.778	-200.000	0.029	0.308
-299.764	369.910	0.035	0.069
-298.749	121.463	0.102	-0.126
-297.735	-116.791	0.346	0.063
-296.720	223.974	-0.015	0.024
-295.705	-200.000	0.019	0.316
-294.691	-53.382	-0.189	-0.085
-293.676	800.000	-0.046	-0.183
-292.662	69.601	0.210	0.214
-291.647	-200.000	0.003	0.355
-290.632	-103.665	-0.282	-0.065
-289.618	38.859	-0.013	-0.012
-288.603	-9.009	0.226	0.149
-287.589	800.000	-0.072	-0.245
-286.574	-76.200	-0.110	-0.038
-285.559	-200.000	-0.015	0.156
-284.545	209.925	-0.102	-0.158
-283.530	290.994	-0.023	-0.041
-282.516	55.798	0.248	-0.237
-281.501	-140.755	0.083	-0.008
-280.486	-200.000	-0.076	-0.348
-279.472	81.173	0.080	0.085
-278.457	116.929	0.130	-0.157
-277.443	268.390	0.109	0.189
-276.428	-200.000	0.006	-0.296
-275.413	65.297	0.055	-0.055
-274.399	-200.000	-0.003	0.130
-273.384	130.279	0.225	0.283
-272.370	-39.195	-0.277	-0.144
-271.355	85.259	0.220	-0.238
-270.340	-41.027	-0.151	-0.077
-269.326	-136.604	-0.264	0.030
-268.311	463.533	0.070	-0.153
-267.297	-29.186	-0.099	0.056
-266.282	-66.673	0.195	-0.076
-265.267	-45.855	0.084	0.041
-264.253	20.220	-0.307	0.244
-263.238	-51.380	-0.298	-0.137
-262.224	-185.085	0.343	-0.005
-261.209	87.932	-0.089	-0.097
-260.195	-200.000	0.047	-0.258
-259.180	142.801	0.113	0.148
-258.165	793.161	0.115	0.311
-257.151	44.884	0.239	-0.217
-256.136	800.000	0.035	0.129
-255.122	-200.000	0.003	-0.203
-254.107	-98.763	0.102	-0.025
-253.092	-132.636	-0.309	-0.039
-252.078	-200.000	0.045	0.218
-251.063	-140.434	-0.284	0.029
-250.049	8.353	0.211	-0.156
-249.034	-114.571	0.094	0.018
-248.019	96.940	0.239	-0.269
-247.005	-74.077	-0.218	0.078
-245.990	800.000	-0.134	0.447
-244.976	-200.000	0.002	-0.065
-243.961	-99.786	0.137	-0.034
-242.946	4.772	-0.245	0.177
-241.932	-200.000	0.005	-0.169
-240.917	-114.697	-0.278	-0.052
-239.903	-164.133	-0.234	-0.011
-238.888	-85.112	0.342	0.105
-237.873	10.406	-0.301	-0.226
-236.859	478.324	-0.099	0.221
-235.844	-66.860	-0.320	0.124
-234.830	-200.000	0.018	0.160
-233.815	677.525	0.080	0.205
-232.800	-41.174	-0.202	-0.102
-231.786	-46.568	-0.170	0.082
-230.771	50.911	-0.121	0.113
-229.757	-15.180	-0.162	-0.102
-228.742	51.109	0.158	0.148
-227.727	-200.000	0.020	0.360
-226.713	-200.000	0.029	0.182
-225.698	-121.802	0.095	0.015
-224.684	800.000	-0.040	-0.149
-223.669	776.622	0.116	0.311
-222.655	64.463	0.054	0.054
-221.640	197.285	-0.047	-0.070
-220.625	-200.000	-0.041	0.357
-219.611	-200.000	0.001	0.081
-218.596	-143.196	0.408	-0.039
-217.582	349.850	-0.155	-0.302
-216.567	-200.000	0.001	-0.480
-215.552	-71.979	0.421	0.154
-214.538	92.804	0.196	0.218
-213.523	-148.161	-0.216	0.018
-212.509	235.449	0.018	-0.030
-211.494	210.498	0.110	-0.170
-210.479	-101.065	0.280	-0.068
-209.465	800.000	0.075	0.243
-208.450	800.000	-0.067	-0.185
-207.436	-88.398	-0.264	0.077
-206.421	-84.572	-0.274	-0.085
-205.406	-200.000	0.046	-0.283
-204.392	-63.717	0.080	-0.032
-203.377	-55.090	0.149	0.066
-202.363	-48.807	-0.405	-0.191
-201.348	-71.047	-0.278	-0.103
-200.333	120.972	-0.060	-0.073
-199.319	72.080	0.096	0.098
-198.304	28.956	0.152	-0.127
-197.290	-14.673	0.050	0.032
-196.275	780.692	-0.067	0.180
-195.260	271.167	-0.095	0.165
-194.246	120.844	0.170	-0.208
-193.231	41.641	-0.077	-0.068
-192.217	-165.238	0.271	-0.012
-191.202	800.000	0.079	0.252
-190.187	-200.000	-0.005	0.205
-189.173	-13.556	0.190	-0.121
-188.158	36.560	0.127	0.110
-187.144	-200.000	0.001	0.347
-186.129	-7.649	-0.148	0.098
-185.114	-129.959	0.265	0.036
-184.100	-30.598	0.346	-0.193
-183.085	61.773	-0.293	0.287
-182.071	-200.000	0.054	-0.356
-181.056	-200.000	-0.040	0.436
-180.042	-31.876	0.118	-0.065
-179.027	-93.069	-0.120	-0.033
-178.012	105.333	-0.121	-0.140
-176.998	-200.000	0.149	-0.001
-175.983	302.741	-0.095	-0.173
-174.969	280.926	-0.020	-0.036
-173.954	-29.345	-0.084	-0.047
-172.939	-200.000	0.053	0.399
-171.925	-163.673	0.128	0.006
-170.910	-38.370	-0.244	-0.127
-169.896	-200.000	-0.049	-0.330
-168.881	-11.624	0.053	-0.034
-167.866	-200.000	0.020	0.383
-166.852	-162.926	0.107	0.005
-165.837	192.814	-0.084	-0.124
-164.823	-55.952	-0.169	-0.074
-163.808	-87.871	0.322	-0.095
-162.793	-78.049	-0.205	-0.069
-161.779	-200.000	0.026	-0.337
-160.764	233.887	0.089	0.144
-159.750	269.045	-0.092	0.159
-158.735	167.818	0.227	0.317
-157.720	-200.000	-0.012	-0.221
-156.706	-39.705	0.379	0.195
-155.691	487.278	-0.179	0.400
-154.677	24.027	0.048	-0.039
-153.662	295.854	0.090	-0.161
-152.647	-27.358	0.094	-0.054
-151.633	202.970	0.045	-0.068
-150.618	-45.992	0.101	-0.049
-149.604	-57.665	0.190	0.082
-148.589	-129.979	-0.304	0.041
-147.574	-200.000	0.047	0.356
-146.560	-114.734	0.313	-0.059
-145.545	78.617	-0.046	0.049
-144.531	-90.507	0.260	0.074
-143.516	800.000	0.094	-0.331
-142.502	-200.000	0.010	0.228
-141.487	-179.218	-0.293	-0.006
-140.472	102.403	-0.230	-0.264
-139.458	314.615	-0.148	0.274
-138.443	22.933	-0.289	0.233
-137.429	800.000	-0.059	-0.173
-136.414	5.079	0.189	0.136
-135.399	110.508	-0.210	-0.247
-134.385	-151.801	-0.129	0.009
-133.370	454.045	-0.231	-0.502
-132.356	-135.390	0.100	-0.012
-131.341	192.931	0.159	0.236
-130.326	-93.643	0.341	0.092
-129.312	-180.463	-0.212	-0.004
-128.297	1.465	0.270	0.191
-127.283	-71.326	-0.213	-0.078
-126.268	-200.000	-0.023	-0.125
-125.253	279.995	0.121	-0.211
-124.239	-200.000	0.031	-0.301
-123.224	-111.662	0.223	0.044
-122.210	18.587	-0.107	-0.084
-121.195	6.739	0.038	0.028
-120.180	167.731	0.090	-0.126
-119.166	-200.000	-0.020	0.113
-118.151	194.176	-0.086	0.128
-117.137	113.924	-0.085	0.101
-116.122	294.009	0.043	-0.076
-115.107	-99.530	-0.450	0.111
-114.093	412.195	0.117	-0.244
-113.078	-200.000	0.014	0.138
-112.064	451.393	-0.094	-0.203
-111.049	253.661	-0.090	-0.150
-110.034	-200.000	0.066	-0.296
-109.020	-115.275	-0.250	0.046
-108.005	153.450	0.249	0.334
-106.991	-41.127	0.265	0.134
-105.976	124.420	0.212	0.261
-104.962	-185.706	-0.131	-0.002
-103.947	-119.475	0.251	0.043
-102.932	128.638	0.175	-0.218
-101.918	50.296	-0.266	0.246
-100.903	116.786	0.123	0.148
-99.889	-70.255	-0.141	-0.052
-98.874	201.275	0.149	0.224
-97.859	262.201	-0.125	-0.212
-96.845	800.000	0.027	-0.096
-95.830	549.007	-0.017	-0.040
-94.816	528.789	0.081	-0.187
-93.801	-19.954	-0.283	0.171
-92.786	-74.743	0.175	-0.062
-91.772	83.810	0.245	-0.262
-90.757	10.915	-0.160	0.120
-89.743	315.594	0.050	-0.093
-88.728	95.887	-0.071	-0.079
-87.713	800.000	0.094	0.353
-86.699	-200.000	0.373	-0.000
-85.684	-123.296	-0.184	-0.029
-84.670	670.726	0.098	0.248
-83.655	-200.000	0.010	0.183
-82.640	389.572	0.009	0.018
-81.626	2.026	0.190	0.134
-80.611	80.231	-0.215	0.226
-79.597	246.617	0.096	-0.158
-78.582	-14.420	0.106	0.067
-77.567	22.714	0.054	0.043
-76.553	-41.893	0.267	-0.134
-75.538	-37.995	-0.140	-0.073
-74.524	24.981	0.048	0.039
-73.509	160.238	0.142	-0.193
-72.494	-81.068	-0.248	-0.080
-71.480	290.247	0.049	0.087
-70.465	800.000	-0.053	-0.158
-69.451	50.439	0.093	0.086
-68.436	-51.953	-0.108	0.049
-67.422	-91.587	0.301	0.084
-66.407	800.000	0.102	0.279
-65.392	508.866	0.053	-0.120
-64.378	34.263	0.166	-0.142
-63.363	-200.000	0.002	0.222
-62.349	-43.344	-0.194	-0.096
-61.334	98.810	-0.952	-1.074
-60.319	-41.675	0.785	0.394
-59.305	-200.000	0.003	-1.422
-58.290	83.916	1.085	1.157
-57.276	721.490	0.601	1.563
-56.261	-200.000	116.533	640.805
-55.246	496.214	1540.378	3460.958
-54.232	175.687	2710.123	3841.562
-53.217	104.727	2150.875	2477.149
-52.203	37.998	1585.230	1377.544
-51.188	29.744	1327.943	1104.841
-50.173	26.835	1289.095	1055.574
-49.159	52.216	1348.027	1255.814
-48.144	50.614	1361.630	1258.900
-47.130	29.676	1315.620	1094.014
-46.115	26.543	1296.506	1059.763
-45.100	26.325	1292.373	1055.071
-44.086	26.195	1289.677	1052.070
-43.071	26.181	1287.511	1050.183
-42.057	26.169	1285.165	1048.156
-41.042	26.120	1283.818	1046.734
-40.027	26.273	1282.295	1046.337
-39.013	26.230	1280.260	1044.385
-37.998	26.212	1278.600	1042.886
-36.984	26.394	1276.622	1042.283
-35.969	26.491	1274.731	1041.252
-34.954	26.296	1273.318	1038.936
-33.940	26.338	1271.967	1038.038
-32.925	26.346	1270.580	1036.910
-31.911	26.446	1268.966	1036.125
-30.896	26.393	1267.817	1034.838
-29.881	26.455	1266.222	1033.852
-28.867	26.492	1264.693	1032.775
-27.852	26.489	1263.292	1031.572
-26.838	26.507	1261.696	1030.330
-25.823	26.401	1261.084	1029.183
-24.809	26.308	1259.843	1027.605
-23.794	26.445	1258.007	1026.843
-22.779	26.500	1256.717	1026.058
-21.765	26.570	1255.381	1025.324
-20.750	26.580	1254.077	1024.276
-19.736	26.384	1253.133	1022.357
-18.721	26.403	1251.692	1021.250
-17.706	26.332	1250.807	1020.086
-16.692	26.323	1249.704	1019.093
-15.677	26.328	1248.708	1018.271
-14.663	26.390	1246.968	1017.158
-13.648	26.444	1245.988	1016.624
-12.633	26.296	1245.528	1015.375
-11.619	26.291	1244.623	1014.570
-10.604	26.413	1243.296	1014.130
-9.590	26.253	1242.770	1012.764
-8.575	26.288	1241.851	1012.174
-7.560	26.323	1240.729	1011.415
-6.546	26.346	1239.950	1010.869
-5.531	26.276	1239.003	1009.665
-4.517	26.193	1238.523	1008.766
-3.502	26.291	1237.545	1008.481
-2.487	26.279	1236.812	1007.776
-1.473	26.218	1232.896	1004.206
-0.458	24.839	1217.669	984.186
0.556	21.708	1201.759	948.461
1.571	18.185	1207.504	933.712
2.586	17.407	1222.232	940.718
3.600	16.963	1210.560	929.220
4.615	12.644	1139.659	852.400
5.629	6.007	1069.561	767.552
6.644	3.309	1051.549	741.581
7.659	3.094	1049.900	739.319
8.673	3.093	1048.616	738.345
9.688	3.164	1047.346	737.724
10.702	3.403	1044.802	737.013
11.717	7.132	1049.825	758.377
12.731	14.364	1060.151	800.642
13.746	18.857	1065.710	826.425
14.761	19.608	1066.051	830.231
15.775	18.746	1064.927	825.138
16.790	17.866	1062.443	818.920
17.804	17.147	1061.004	814.296
18.819	16.909	1059.686	812.069
19.834	16.662	1059.119	810.382
20.848	16.518	1058.752	809.342
21.863	16.371	1057.776	807.821
22.877	16.237	1057.026	806.535
23.892	16.320	1056.093	806.150
24.907	16.192	1055.931	805.344
25.921	16.136	1054.308	803.768
26.936	16.179	1053.153	803.020
27.950	16.426	1051.496	802.859
28.965	16.336	1050.438	801.553
29.980	16.339	1049.238	800.579
30.994	16.527	1047.993	800.448
32.009	16.648	1046.528	799.833
33.023	16.439	1045.784	798.206
34.038	16.440	1044.557	797.202
35.053	16.271	1044.078	795.968
36.067	16.202	1043.207	794.910
37.082	16.388	1041.890	794.710
38.096	16.658	1041.377	795.519
39.111	16.411	1040.707	793.778
40.126	16.271	1039.370	792.027
41.140	16.013	1038.575	790.144
42.155	16.083	1036.409	788.754
43.169	15.952	1035.940	787.715
44.184	15.946	1034.760	786.718
45.199	15.945	1033.917	786.006
46.213	16.064	1032.889	785.708
47.228	16.330	1031.793	786.042
48.242	16.303	1030.691	785.007
49.257	16.232	1030.149	784.197
50.271	16.386	1029.003	783.968
51.286	16.373	1028.236	783.257
52.301	16.478	1026.816	782.591
53.315	16.194	1026.202	780.741
54.330	16.194	1025.132	779.857
55.344	16.112	1024.184	778.689
56.359	16.239	1023.225	778.476
57.374	16.102	1022.828	777.475
58.388	16.078	1021.411	776.219
59.403	16.050	1020.665	775.452
60.417	15.978	1020.193	774.693
61.432	16.022	1019.540	774.332
62.447	15.919	1018.630	773.099
63.461	15.884	1017.798	772.240
64.476	15.956	1016.912	771.830
65.490	15.999	1015.485	770.874
66.505	16.027	1014.740	770.367
67.520	15.778	1015.254	769.550
68.534	15.967	1014.438	769.726
69.549	15.861	1013.543	768.497
70.563	15.818	1012.649	767.556
71.578	15.809	1011.796	766.799
72.593	15.783	1010.554	765.672
73.607	15.660	1010.106	764.703
74.622	15.715	1009.547	764.464
75.636	15.863	1008.673	764.407
76.651	15.765	1008.172	763.516
77.666	15.802	1007.559	763.153
78.680	15.877	1006.943	762.958
79.695	15.869	1006.221	762.307
80.709	15.885	1005.748	761.953
81.724	16.076	1005.191	762.325
82.739	16.141	1004.298	761.875
83.753	16.218	1003.883	761.844
84.768	16.391	1003.235	762.061
85.782	16.613	1002.378	762.344
86.797	16.489	1001.557	761.095
87.812	16.342	1000.309	759.418
88.826	16.374	999.247	758.688
89.841	16.383	998.567	758.148
90.855	16.484	997.570	757.772
91.870	16.622	996.490	757.504
92.884	16.552	995.725	756.543
93.899	16.529	994.965	755.795
94.914	16.652	994.255	755.737
95.928	16.533	993.673	754.697
96.943	16.385	992.638	753.184
97.957	16.234	991.870	751.864
98.972	16.376	990.889	751.687
99.987	16.508	989.671	751.283
101.001	16.393	989.190	750.339
102.016	16.468	987.784	749.537
103.030	16.550	987.163	749.366
104.045	16.612	986.430	749.018
105.060	16.397	985.790	747.513
106.074	16.290	984.301	745.846
107.089	16.114	983.433	744.346
108.103	15.911	982.429	742.624
109.118	15.923	981.552	741.949
110.133	15.853	980.660	740.899
111.147	15.921	980.024	740.652
112.162	16.088	979.081	740.610
113.176	16.257	978.442	740.801
114.191	16.248	977.729	740.159
115.206	16.175	977.269	739.422
116.220	15.954	976.708	737.963
117.235	16.025	975.443	737.253
118.249	16.099	974.189	736.567
119.264	15.966	973.592	735.467
120.279	15.907	972.854	734.587
121.293	15.893	971.914	733.754
122.308	15.807	970.862	732.519
123.322	15.843	969.984	731.947
124.337	15.822	968.949	731.010
125.352	15.818	967.801	730.061
126.366	15.785	966.848	729.138
127.381	15.923	965.292	728.496
128.395	16.007	964.542	728.230
129.410	15.857	964.353	727.372
130.424	16.069	963.163	727.326
131.439	16.068	962.723	726.926
132.454	16.146	961.712	726.433
133.468	16.215	960.848	726.014
134.483	16.164	960.128	725.185
135.497	16.061	959.154	723.943
136.512	16.179	958.375	723.797
137.527	16.158	957.876	723.269
138.541	16.187	957.022	722.683
139.556	16.280	956.475	722.605
140.570	16.416	955.958	722.729
141.585	16.440	955.383	722.333
142.600	16.439	954.488	721.591
143.614	16.502	953.856	721.315
144.629	16.720	952.820	721.400
145.643	16.476	951.938	719.630
146.658	16.397	950.849	718.406
147.673	16.184	950.107	716.877
148.687	16.302	948.444	716.058
149.702	16.245	948.172	715.547
150.716	16.218	947.549	714.899
151.731	16.236	946.642	714.227
152.746	16.242	945.900	713.630
153.760	16.252	945.738	713.487
154.775	16.450	944.748	713.516
155.789	16.382	944.320	712.843
156.804	16.539	943.152	712.556
157.819	16.451	942.996	712.007
158.833	16.603	942.149	711.944
159.848	16.651	941.154	711.328
160.862	16.595	940.131	710.258
161.877	16.281	939.134	708.126
162.892	16.361	937.932	707.492
163.906	16.332	937.353	706.869
164.921	16.329	936.042	705.807
165.935	16.412	935.854	705.952
166.950	16.363	935.196	705.189
167.964	16.283	934.391	704.184
168.979	16.522	932.694	703.837
169.994	16.314	932.209	702.544
171.008	16.338	931.990	702.415
172.023	16.646	931.127	702.983
173.037	16.576	930.472	702.136
174.052	16.450	929.832	701.066
175.067	16.371	928.831	699.926
176.081	16.354	928.040	699.197
177.096	16.392	927.764	699.084
178.110	16.303	927.657	698.572
179.125	16.526	926.255	698.375
180.140	16.550	925.968	698.197
181.154	16.569	925.897	698.161
182.169	16.541	925.445	697.640
183.183	16.733	924.745	697.845
184.198	16.715	924.138	697.250
185.213	16.780	923.614	697.059
186.227	16.731	922.423	695.898
187.242	16.665	922.484	695.610
188.256	16.915	921.771	696.038
189.271	16.833	921.017	695.073
190.286	16.613	919.909	693.272
191.300	16.362	918.901	691.424
192.315	16.216	918.604	690.542
193.329	16.340	917.809	690.391
194.344	16.178	917.939	689.767
195.359	16.514	916.839	690.250
196.373	16.579	916.352	690.088
197.388	16.745	916.271	690.642
198.402	16.873	915.620	690.611
199.417	17.036	914.484	690.354
200.432	17.200	914.517	690.986
201.446	17.080	914.213	690.207
202.461	17.171	913.737	690.157
203.475	17.062	913.000	689.097
204.490	17.048	911.911	688.158
205.504	16.982	910.905	687.070
206.519	16.859	910.319	686.069
207.534	16.767	909.581	685.081
208.548	16.926	909.110	685.308
209.563	16.879	908.403	684.525
210.577	16.965	908.089	684.576
211.592	17.070	907.567	684.543
212.607	17.143	906.830	684.220
213.621	16.958	905.803	682.640
214.636	17.032	905.012	682.282
215.650	17.173	904.249	682.213
216.665	17.127	903.791	681.622
217.680	17.239	903.321	681.657
218.694	17.346	902.459	681.376
219.709	17.227	902.143	680.601
220.723	17.264	901.074	679.883
221.738	17.196	900.585	679.181
222.753	17.200	899.890	678.612
223.767	17.251	899.552	678.500
224.782	17.395	898.693	678.366
225.796	17.423	898.173	678.026
226.811	17.302	897.724	677.145
227.826	17.302	896.520	676.176
228.840	17.228	895.672	675.183
229.855	17.246	894.949	674.652
230.869	17.134	894.504	673.813
231.884	17.286	893.615	673.683
232.899	16.939	893.494	672.160
233.913	17.084	892.209	671.706
234.928	17.050	891.593	671.049
235.942	17.162	890.838	670.863
236.957	17.185	890.777	670.849
237.972	17.162	890.180	670.249
238.986	17.226	889.501	669.931
240.001	17.145	888.482	668.784
241.015	17.110	888.613	668.688
242.030	17.151	888.010	668.336
243.045	17.275	887.235	668.180
244.059	17.184	886.657	667.330
245.074	17.305	886.106	667.330
246.088	17.368	885.155	666.802
247.103	17.441	884.677	666.669
248.117	17.609	884.709	667.290
249.132	17.766	884.235	667.490
250.147	17.922	883.321	667.349
251.161	18.012	882.600	667.098
252.176	17.934	882.418	666.595
253.190	18.000	881.424	666.046
254.205	18.123	880.787	665.982
255.220	18.074	880.011	665.145
256.234	18.085	879.093	664.436
257.249	17.908	879.066	663.670
258.263	17.955	878.337	663.243
259.278	18.118	877.385	663.097
260.293	17.953	877.533	662.509
261.307	18.072	876.907	662.442
262.322	18.082	876.141	661.844
263.336	18.086	875.709	661.472
264.351	18.097	874.834	660.794
265.366	18.188	873.918	660.398
266.380	18.188	873.402	659.948
267.395	17.996	873.096	658.918
268.409	18.026	871.787	657.989
269.424	18.075	870.689	657.288
270.439	18.035	870.323	656.803
271.453	18.122	869.373	656.362
272.468	17.858	869.563	655.431
273.482	17.968	868.977	655.354
274.497	17.950	868.314	654.728
275.512	18.033	867.627	654.468
276.526	18.057	866.890	653.947
277.541	18.039	866.795	653.749
278.555	18.205	866.430	654.048
279.570	18.328	865.540	653.792
280.585	18.382	864.492	653.146
281.599	18.193	864.136	652.101
282.614	18.157	863.412	651.357
283.628	18.128	862.812	650.736
284.643	18.045	862.389	650.044
285.657	18.195	861.198	649.662
286.672	18.201	860.752	649.288
287.687	18.095	860.396	648.560
288.701	18.183	859.760	648.357
289.716	18.323	859.065	648.308
290.730	18.361	858.601	648.044
291.745	18.354	857.625	647.221
292.760	18.420	857.539	647.348
293.774	18.622	856.665	647.396
294.789	18.467	855.935	646.201
295.803	18.275	855.341	644.971
296.818	18.168	854.684	644.017
297.833	18.294	853.827	643.789
298.847	18.286	853.370	643.358
299.862	18.474	852.947	643.688
300.876	18.436	852.983	643.514
301.891	18.454	851.991	642.776
302.906	18.565	851.367	642.663
303.920	18.623	851.250	642.737
304.935	18.806	850.492	642.792
305.949	18.712	849.861	641.907
306.964	18.694	848.858	641.027
307.979	18.629	848.734	640.632
308.993	18.577	848.202	639.980
310.008	18.637	847.579	639.678
311.022	18.464	846.955	638.504
312.037	18.629	846.160	638.464
313.052	18.337	845.558	636.868
314.066	18.364	844.942	636.445
315.081	18.366	844.396	635.986
316.095	18.387	843.976	635.693
317.110	18.372	843.275	635.052
318.125	18.360	842.899	634.667
319.139	18.472	842.276	634.556
320.154	18.547	841.656	634.310
321.168	18.470	841.478	633.835
322.183	18.483	841.090	633.537
323.197	18.470	840.485	632.975
324.212	18.556	839.778	632.707
325.227	18.458	839.077	631.761
326.241	18.612	838.332	631.711
327.256	18.409	838.043	630.689
328.270	18.467	837.360	630.332
329.285	18.549	836.512	629.941
330.300	18.486	836.240	629.448
331.314	18.686	835.513	629.578
332.329	18.845	834.865	629.619
333.343	18.881	834.824	629.664
334.358	18.786	833.928	628.584
335.373	18.795	833.787	628.454
336.387	18.748	833.979	628.373
337.402	18.817	833.659	628.326
338.416	19.136	833.259	629.136
339.431	19.101	832.734	628.557
340.446	18.994	832.947	628.272
341.460	19.122	832.392	628.265
342.475	19.201	831.500	627.823
343.489	19.127	831.338	627.376
344.504	19.257	830.943	627.495
345.519	19.419	830.171	627.445
346.533	19.365	829.654	626.802
347.548	19.032	829.130	625.143
348.562	18.912	828.303	624.028
349.577	18.945	827.756	623.681
350.592	18.898	826.956	622.851
351.606	18.851	826.402	622.210
352.621	19.008	825.717	622.207
353.635	18.991	825.122	621.640
354.650	19.029	824.710	621.414
355.665	19.079	824.138	621.108
356.679	19.099	823.412	620.579
357.694	19.279	822.523	620.501
358.708	19.205	822.218	619.952
359.723	19.210	821.794	619.592
360.738	19.043	821.531	618.739
361.752	19.264	820.460	618.671
362.767	19.365	819.741	618.437
363.781	19.438	819.525	618.483
364.796	19.434	819.185	618.156
365.810	19.719	818.954	618.948
366.825	19.526	818.737	618.039
367.840	19.380	818.466	617.256
368.854	19.403	817.623	616.647
369.869	19.270	817.234	615.826
370.883	19.530	816.821	616.387
371.898	19.697	816.313	616.544
372.913	19.547	816.186	615.859
373.927	19.429	815.531	614.891
374.942	19.591	815.025	615.031
375.956	19.698	814.456	614.930
376.971	19.636	814.191	614.453
377.986	19.871	813.570	614.764
379.000	19.847	813.128	614.292
380.015	19.828	812.778	613.906
381.029	19.693	812.278	612.994
382.044	19.948	811.207	613.036
383.059	19.774	810.708	611.988
384.073	19.736	809.984	611.253
385.088	19.541	809.680	610.279
386.102	19.616	808.833	609.853
387.117	19.610	808.295	609.373
388.132	19.616	808.036	609.145
389.146	19.648	807.488	608.791
390.161	19.823	807.218	609.149
391.175	19.818	806.623	608.628
392.190	19.612	806.039	607.409
393.205	19.791	805.317	607.442
394.219	19.675	805.294	606.963
395.234	19.323	804.978	605.433
396.248	19.414	804.016	604.978
397.263	19.576	803.340	604.980
398.278	19.482	803.223	604.512
399.292	19.585	802.668	604.399
400.307	19.482	802.433	603.810
401.321	19.516	802.253	603.739
402.336	19.641	801.417	603.494
403.350	19.644	801.494	603.509
404.365	19.689	801.105	603.319
405.380	19.896	800.449	603.495
406.394	20.084	800.020	603.771
407.409	19.980	799.317	602.827
408.423	20.111	799.099	603.064
409.438	20.027	799.002	602.645
410.453	20.217	798.503	602.876
411.467	20.402	797.310	602.563
412.482	20.255	797.739	602.324
413.496	20.277	797.484	602.155
414.511	20.291	797.100	601.861
415.526	20.333	796.513	601.509
416.540	20.079	796.074	600.246
417.555	20.174	795.464	600.060
418.569	20.402	795.132	600.547
419.584	20.281	794.502	599.598
420.599	20.382	794.159	599.637
421.613	162.219	1372.314	1797.134
422.628	140.648	1456.514	1797.214
