DTS Sentinel unit serial number:	SN413079Multiplexer serial number:	ORYXHardware model number:	OX4-SRSoftware version number:	ORYX F/W v4.00 Oryx Data Collector v3.7.2.0data status	okinstallation	princeton_trtdifferential loss correction	single-endedforward channel	channel 1reverse channel	N/Adate	2019/09/11time	21:52:11forward acquisition time	60.00reverse acquisition time	0.00gamma	496.2192k internal	0.2312k external	0.2312temperature offset calibration	1.0053default loss term (dB/km)	0.3790temperature slope calibration	1.0000multiplexer offset coefficient	1.0000multiplexer slope coefficient	1.0000fibre end	0.00T internal ref (°C)	35.64T ext. ref 1 (°C)	1.70T ext. ref 2 (°C)	29.61length (m)	temperature (°C)	Stokes	anti-Stokes-747.200	-200.000	0.001	-0.056
-746.185	-200.000	0.036	0.276
-745.171	465.441	-0.101	-0.230
-744.156	127.469	0.087	-0.113
-743.142	42.678	0.156	0.144
-742.127	-111.459	0.388	0.080
-741.112	11.986	0.073	-0.057
-740.098	-58.515	-0.076	-0.033
-739.083	-71.850	-0.070	0.026
-738.069	-164.988	0.120	0.005
-737.054	63.174	-0.177	-0.180
-736.039	-79.014	-0.082	-0.028
-735.025	-107.851	0.169	0.037
-734.010	0.556	0.355	-0.258
-732.996	-7.318	-0.065	0.045
-731.981	-17.956	-0.090	-0.057
-730.966	-200.000	0.009	0.090
-729.952	-160.854	0.084	-0.005
-728.937	737.423	-0.067	0.183
-727.923	-125.354	-0.228	-0.035
-726.908	-22.303	0.196	0.120
-725.894	-200.000	-0.046	0.212
-724.879	-148.570	0.374	-0.031
-723.864	-200.000	0.002	0.226
-722.850	-76.453	0.091	-0.033
-721.835	-51.603	-0.495	0.234
-720.821	-24.601	0.225	0.136
-719.806	800.000	0.089	-0.374
-718.791	800.000	-0.098	0.297
-717.777	-200.000	-0.027	-0.147
-716.762	-119.582	-0.381	0.067
-715.748	800.000	0.072	-0.237
-714.733	-102.583	0.213	0.052
-713.718	-131.611	0.094	-0.013
-712.704	722.767	0.095	-0.256
-711.689	-200.000	0.043	0.234
-710.675	-183.217	0.310	0.006
-709.660	-125.860	0.078	-0.012
-708.645	-66.880	-0.252	0.101
-707.631	-200.000	-0.024	-0.504
-706.616	-144.049	-0.153	0.015
-705.602	37.181	0.237	-0.213
-704.587	-119.202	-0.281	-0.050
-703.572	145.490	-0.100	-0.135
-702.558	20.709	-0.133	-0.109
-701.543	-119.589	0.388	-0.068
-700.529	-121.566	0.383	0.064
-699.514	-136.841	-0.256	0.030
-698.499	-31.403	0.260	-0.148
-697.485	732.941	0.103	-0.278
-696.470	-79.262	-0.218	-0.075
-695.456	60.892	0.067	0.068
-694.441	-69.152	-0.212	-0.083
-693.426	133.445	0.188	0.247
-692.412	-62.386	-0.084	-0.036
-691.397	630.042	0.073	0.187
-690.383	-137.477	0.201	-0.023
-689.368	236.556	0.169	0.283
-688.354	-200.000	-0.011	0.359
-687.339	-136.103	-0.148	-0.018
-686.324	-23.488	-0.361	0.219
-685.310	75.869	-0.143	0.153
-684.295	23.186	0.063	-0.052
-683.281	0.490	-0.437	-0.316
-682.266	247.360	-0.127	-0.217
-681.251	-8.556	0.478	-0.325
-680.237	-28.122	-0.187	-0.110
-679.222	207.861	-0.195	-0.308
-678.208	-86.998	-0.221	-0.068
-677.193	-200.000	-0.047	-0.229
-676.178	73.992	0.025	-0.027
-675.164	86.534	0.208	-0.232
-674.149	71.278	-0.145	-0.152
-673.135	160.002	-0.045	-0.064
-672.120	800.000	0.120	0.366
-671.105	-0.685	-0.275	0.197
-670.091	113.307	-0.171	0.210
-669.076	228.414	0.124	-0.205
-668.062	-200.000	0.022	0.104
-667.047	-200.000	0.013	0.303
-666.032	249.657	-0.181	-0.311
-665.018	26.041	0.166	-0.140
-664.003	-37.605	-0.355	-0.191
-662.989	31.062	-0.137	-0.119
-661.974	49.588	0.168	-0.160
-660.959	800.000	0.024	0.104
-659.945	198.557	0.094	0.146
-658.930	-141.555	-0.162	-0.017
-657.916	-130.731	-0.698	-0.095
-656.901	-2.167	-0.056	0.040
-655.886	-76.393	0.114	0.040
-654.872	800.000	-0.102	0.315
-653.857	-85.839	-0.143	0.045
-652.843	82.546	-0.178	-0.196
-651.828	302.726	0.045	-0.084
-650.814	-200.000	0.019	-0.106
-649.799	-102.527	-0.325	-0.079
-648.784	-91.098	0.136	0.039
-647.770	-84.093	0.463	-0.148
-646.755	-10.384	-0.257	-0.172
-645.741	-22.409	0.082	0.050
-644.726	-200.000	0.004	0.092
-643.711	-51.269	0.110	0.052
-642.697	-200.000	0.070	0.438
-641.682	-167.834	0.176	0.007
-640.668	800.000	-0.112	0.352
-639.653	14.441	0.223	0.176
-638.638	800.000	0.058	0.251
-637.624	294.098	-0.064	0.118
-636.609	245.318	0.096	-0.163
-635.595	-83.051	-0.245	-0.080
-634.580	42.011	-0.118	-0.109
-633.565	244.030	0.185	0.314
-632.551	-200.000	-0.001	-0.063
-631.536	240.550	0.093	0.157
-630.522	-94.863	0.301	-0.082
-629.507	-5.104	-0.073	0.051
-628.492	402.100	-0.070	-0.149
-627.478	45.219	0.158	0.147
-626.463	212.540	0.071	0.112
-625.449	-62.668	0.141	-0.059
-624.434	800.000	0.083	0.340
-623.419	471.206	-0.072	-0.163
-622.405	-200.000	-0.019	0.215
-621.390	10.567	0.203	0.156
-620.376	-200.000	-0.040	-0.275
-619.361	-59.955	0.205	0.088
-618.346	-167.259	0.133	0.005
-617.332	-60.128	-0.090	-0.039
-616.317	80.828	-0.021	-0.023
-615.303	80.020	0.117	-0.127
-614.288	487.210	-0.020	-0.045
-613.273	800.000	-0.031	0.090
-612.259	-23.014	-0.117	0.071
-611.244	-200.000	0.014	0.251
-610.230	27.474	0.151	-0.128
-609.215	318.161	-0.066	0.126
-608.201	40.575	-0.111	0.101
-607.186	-74.087	0.062	0.023
-606.171	-44.085	-0.191	0.097
-605.157	-200.000	-0.034	-0.227
-604.142	800.000	0.099	-0.341
-603.128	-63.591	0.256	0.106
-602.113	41.998	0.267	-0.244
-601.098	-145.968	0.119	-0.011
-600.084	800.000	0.084	-0.326
-599.069	83.491	-0.211	-0.232
-598.055	-136.099	-0.204	0.024
-597.040	72.777	-0.132	0.139
-596.025	-112.572	-0.134	-0.027
-595.011	-70.152	0.071	-0.027
-593.996	-167.199	0.255	-0.010
-592.982	800.000	-0.078	-0.245
-591.967	72.762	-0.190	0.200
-590.952	-10.248	-0.113	-0.076
-589.938	-52.145	-0.230	-0.108
-588.923	-34.237	-0.105	-0.058
-587.909	-91.489	0.310	0.089
-586.894	-122.380	0.350	0.057
-585.879	-94.385	-0.319	0.088
-584.865	-97.208	-0.373	-0.098
-583.850	-200.000	-0.021	-0.128
-582.836	-150.105	-0.189	-0.015
-581.821	-28.196	-0.211	-0.123
-580.806	-200.000	-0.010	-0.108
-579.792	-4.447	0.284	0.198
-578.777	138.582	0.104	0.138
-577.763	-53.120	-0.095	-0.044
-576.748	-73.919	0.048	0.018
-575.733	-30.502	0.222	-0.127
-574.719	-196.546	0.234	-0.002
-573.704	54.792	0.339	-0.330
-572.690	524.530	-0.013	0.032
-571.675	138.478	0.033	0.044
-570.661	-92.560	-0.185	-0.052
-569.646	28.306	0.214	0.182
-568.631	-69.224	0.176	-0.068
-567.617	-197.630	0.232	0.001
-566.602	800.000	0.031	0.125
-565.588	-100.900	-0.116	-0.029
-564.573	350.853	-0.210	-0.418
-563.558	-195.043	0.302	0.002
-562.544	-200.000	-0.006	-0.168
-561.529	-200.000	0.014	0.268
-560.515	-200.000	-0.035	0.421
-559.500	800.000	-0.061	0.224
-558.485	800.000	-0.086	0.288
-557.471	218.163	-0.172	0.277
-556.456	61.646	-0.190	0.190
-555.442	172.370	0.062	0.089
-554.427	-84.179	-0.192	-0.061
-553.412	-120.742	-0.131	-0.022
-552.398	12.988	0.123	-0.096
-551.383	119.692	0.198	0.247
-550.369	187.392	-0.064	0.096
-549.354	-134.706	-0.303	-0.037
-548.339	-132.403	-0.302	0.039
-547.325	563.040	-0.097	-0.236
-546.310	800.000	0.055	-0.241
-545.296	277.040	-0.163	0.291
-544.281	-74.486	0.135	0.049
-543.266	200.122	-0.080	0.123
-542.252	-200.000	-0.141	0.000
-541.237	-31.002	0.267	0.152
-540.223	19.678	-0.211	-0.171
-539.208	-128.012	0.544	0.079
-538.193	150.675	-0.134	0.183
-537.179	272.655	-0.113	-0.201
-536.164	-200.000	0.011	-0.172
-535.150	-73.142	-0.155	-0.057
-534.135	-200.000	0.027	0.122
-533.121	-18.805	0.256	0.161
-532.106	16.518	0.220	0.175
-531.091	-200.000	0.086	0.513
-530.077	-200.000	-0.001	0.119
-529.062	175.309	-0.179	0.261
-528.048	-121.241	0.224	0.038
-527.033	110.052	-0.066	-0.080
-526.018	-200.000	0.013	0.159
-525.004	800.000	-0.075	0.272
-523.989	-71.108	0.163	-0.062
-522.975	-200.000	-0.002	-0.021
-521.960	65.775	0.291	-0.297
-520.945	-20.959	-0.068	-0.042
-519.931	-200.000	0.026	0.336
-518.916	-106.639	-0.289	-0.065
-517.902	238.613	-0.051	-0.086
-516.887	-200.000	-0.046	-0.330
-515.872	800.000	0.022	-0.080
-514.858	-69.715	0.344	-0.132
-513.843	332.412	0.041	0.080
-512.829	-151.163	-0.146	-0.011
-511.814	-135.852	-0.267	0.032
-510.799	-4.252	-0.217	0.151
-509.785	390.086	-0.190	-0.396
-508.770	800.000	-0.066	0.280
-507.756	70.184	-0.278	-0.288
-506.741	170.509	-0.222	-0.319
-505.726	258.993	0.203	-0.352
-504.712	-75.889	-0.275	0.098
-503.697	489.024	-0.087	-0.201
-502.683	32.379	0.078	-0.068
-501.668	-115.172	0.130	0.025
-500.653	-85.260	-0.250	0.078
-499.639	11.617	-0.292	-0.225
-498.624	-200.000	-0.004	-0.078
-497.610	62.691	-0.261	-0.262
-496.595	-200.000	-0.026	-0.174
-495.581	161.006	0.089	-0.125
-494.566	800.000	0.078	-0.224
-493.551	-8.941	-0.200	-0.135
-492.537	303.347	-0.194	-0.362
-491.522	292.326	0.179	0.328
-490.508	-120.182	0.323	0.055
-489.493	-122.570	0.218	-0.036
-488.478	-76.032	-0.049	-0.017
-487.464	-85.005	-0.213	0.067
-486.449	800.000	-0.066	0.210
-485.435	-200.000	-0.065	-0.322
-484.420	98.968	0.108	0.125
-483.405	57.493	0.028	-0.028
-482.391	-200.000	0.020	0.271
-481.376	-112.360	-0.159	-0.032
-480.362	98.724	-0.179	0.208
-479.347	562.733	0.092	0.223
-478.332	118.308	-0.107	0.132
-477.318	350.643	-0.090	0.179
-476.303	7.240	-0.152	0.114
-475.289	-92.835	-0.067	-0.019
-474.274	-142.114	-0.220	0.022
-473.259	-60.405	0.081	-0.035
-472.245	591.970	0.137	0.339
-471.230	-200.000	-0.008	-0.150
-470.216	-200.000	-0.026	-0.294
-469.201	3.185	-0.149	0.109
-468.186	-4.674	0.320	-0.222
-467.172	209.503	-0.190	0.299
-466.157	-200.000	-0.033	-0.217
-465.143	-150.203	0.199	0.015
-464.128	-94.354	-0.186	0.051
-463.113	800.000	-0.048	-0.147
-462.099	-69.404	0.105	0.040
-461.084	-59.893	-0.117	0.050
-460.070	-118.508	0.181	-0.032
-459.055	-156.036	0.202	0.013
-458.040	800.000	-0.028	0.077
-457.026	-1.487	-0.161	-0.114
-456.011	-148.132	0.246	0.020
-454.997	-7.178	0.158	0.107
-453.982	-98.797	-0.175	0.045
-452.968	800.000	0.045	-0.190
-451.953	729.080	-0.147	-0.395
-450.938	36.086	0.123	-0.109
-449.924	-200.000	-0.093	-0.582
-448.909	-36.002	-0.085	0.046
-447.895	-128.460	-0.310	-0.044
-446.880	-95.752	-0.276	0.074
-445.865	-182.876	-0.417	0.008
-444.851	320.185	-0.033	0.063
-443.836	68.657	0.015	-0.015
-442.822	253.963	0.085	-0.146
-441.807	-200.000	0.027	0.161
-440.792	-7.287	0.150	-0.102
-439.778	116.112	0.237	-0.291
-438.763	-21.488	0.372	0.228
-437.749	-59.645	-0.088	0.038
-436.734	189.237	0.095	0.142
-435.719	-200.000	-0.007	0.048
-434.705	-200.000	-0.004	0.172
-433.690	800.000	0.085	-0.252
-432.676	800.000	0.042	0.132
-431.661	-200.000	0.009	-0.213
-430.646	-200.000	-0.003	-0.085
-429.632	130.508	-0.028	0.036
-428.617	-200.000	-0.085	-0.444
-427.603	237.476	-0.072	-0.120
-426.588	61.004	-0.129	0.128
-425.573	10.323	-0.303	-0.231
-424.559	-200.000	0.009	-0.068
-423.544	-63.861	-0.257	-0.105
-422.530	157.701	-0.212	-0.295
-421.515	4.806	-0.432	-0.318
-420.500	-119.891	-0.261	0.045
-419.486	-35.827	-0.059	-0.032
-418.471	30.097	0.278	-0.237
-417.457	-200.000	-0.046	-0.249
-416.442	-182.885	-0.110	0.002
-415.428	-130.069	-0.187	0.026
-414.413	121.032	-0.109	0.135
-413.398	-19.381	0.161	0.100
-412.384	-30.634	-0.120	-0.068
-411.369	800.000	0.129	-0.386
-410.355	25.801	0.057	-0.048
-409.340	800.000	0.136	0.444
-408.325	-106.171	-0.224	-0.050
-407.311	-71.576	0.352	0.132
-406.296	-53.777	0.234	0.107
-405.282	-88.014	-0.069	-0.021
-404.267	-121.413	0.221	0.037
-403.252	-42.269	0.231	0.118
-402.238	-108.979	-0.380	0.081
-401.223	-200.000	0.003	-0.140
-400.209	117.084	0.087	-0.107
-399.194	-92.273	-0.191	0.054
-398.179	40.418	-0.147	0.132
-397.165	149.708	0.236	0.320
-396.150	11.155	-0.101	-0.078
-395.136	499.829	-0.069	-0.160
-394.121	127.986	0.117	-0.148
-393.106	-144.972	-0.091	-0.008
-392.092	41.291	-0.060	-0.054
-391.077	9.701	0.252	0.191
-390.063	-158.968	0.304	0.017
-389.048	-77.286	0.266	-0.093
-388.033	-180.309	0.052	0.001
-387.019	-56.074	0.262	0.117
-386.004	-200.000	-0.024	0.313
-384.990	800.000	0.048	0.204
-383.975	-200.000	-0.039	0.222
-382.960	-81.075	-0.122	0.040
-381.946	-71.571	0.253	0.095
-380.931	226.956	0.026	-0.042
-379.917	-58.887	-0.360	-0.156
-378.902	59.382	-0.040	0.040
-377.888	800.000	-0.113	0.362
-376.873	-64.771	-0.203	0.082
-375.858	787.474	0.062	-0.170
-374.844	63.825	0.148	0.148
-373.829	368.044	0.123	0.250
-372.815	-200.000	-0.059	0.307
-371.800	564.028	-0.028	-0.069
-370.785	800.000	-0.068	-0.211
-369.771	-200.000	0.005	0.362
-368.756	800.000	-0.060	-0.177
-367.742	-10.206	0.360	-0.239
-366.727	205.645	-0.175	-0.272
-365.712	372.904	0.228	-0.464
-364.698	-34.171	-0.097	0.054
-363.683	-172.708	-0.235	-0.007
-362.669	320.333	0.124	-0.235
-361.654	648.042	-0.018	-0.045
-360.639	708.793	0.091	-0.241
-359.625	-100.248	-0.093	-0.023
-358.610	-111.888	-0.049	-0.010
-357.596	800.000	-0.077	-0.267
-356.581	-25.023	0.236	-0.140
-355.566	-11.803	-0.072	-0.047
-354.552	-200.000	-0.054	0.286
-353.537	-200.000	0.017	-0.141
-352.523	16.489	0.057	-0.045
-351.508	-182.867	0.126	0.002
-350.493	-124.378	-0.091	-0.014
-349.479	59.786	-0.209	-0.206
-348.464	-200.000	0.050	-0.243
-347.450	-31.107	0.162	-0.092
-346.435	-59.492	-0.135	0.058
-345.420	-27.805	0.098	0.057
-344.406	-67.781	0.227	0.089
-343.391	99.863	-0.104	-0.120
-342.377	800.000	-0.107	0.320
-341.362	102.922	0.249	0.291
-340.348	-173.560	0.038	0.001
-339.333	-126.324	0.023	-0.003
-338.318	-200.000	-0.042	-0.189
-337.304	345.042	0.115	0.226
-336.289	247.724	0.165	-0.279
-335.275	-141.052	-0.243	-0.025
-334.260	101.983	0.151	0.176
-333.245	53.621	-0.245	0.235
-332.231	-200.000	0.013	-0.147
-331.216	-105.344	-0.476	-0.108
-330.202	113.887	-0.072	0.088
-329.187	800.000	-0.109	0.407
-328.172	-139.481	0.307	-0.033
-327.158	-200.000	0.007	0.037
-326.143	150.675	0.210	0.285
-325.129	267.742	0.048	-0.083
-324.114	330.833	-0.045	0.088
-323.099	-15.970	0.171	-0.108
-322.085	-132.183	-0.092	-0.012
-321.070	428.041	0.080	-0.173
-320.056	-77.084	-0.115	0.040
-319.041	-200.000	0.032	0.248
-318.026	462.400	0.069	-0.155
-317.012	-200.000	0.064	-0.345
-315.997	800.000	0.082	0.259
-314.983	37.592	-0.282	0.250
-313.968	727.810	-0.052	-0.139
-312.953	800.000	0.041	0.154
-311.939	-161.078	0.391	0.020
-310.924	-36.249	-0.319	0.172
-309.910	800.000	0.115	0.359
-308.895	-25.743	-0.173	-0.102
-307.880	631.590	-0.098	0.248
-306.866	121.167	-0.116	-0.145
-305.851	-55.916	0.151	-0.067
-304.837	-101.077	0.311	-0.076
-303.822	-200.000	0.017	-0.291
-302.807	-4.415	0.220	0.152
-301.793	-116.214	-0.233	0.043
-300.778	130.118	-0.228	-0.291
-299.764	759.098	-0.099	-0.268
-298.749	-55.071	-0.102	0.046
-297.735	-200.000	-0.007	0.078
-296.720	-99.155	-0.292	-0.074
-295.705	-71.967	-0.421	-0.156
-294.691	11.960	0.061	-0.047
-293.676	800.000	0.060	-0.198
-292.662	128.754	0.161	-0.205
-291.647	-107.645	0.088	0.019
-290.632	-200.000	-0.017	0.477
-289.618	-24.254	-0.195	-0.116
-288.603	-92.304	-0.156	-0.044
-287.589	-92.044	0.248	-0.070
-286.574	568.553	-0.030	-0.073
-285.559	800.000	-0.036	-0.113
-284.545	-178.987	-0.108	0.002
-283.530	41.179	-0.136	-0.123
-282.516	-200.000	0.013	0.151
-281.501	800.000	0.027	-0.107
-280.486	60.403	0.109	0.107
-279.472	81.353	-0.183	0.197
-278.457	-99.420	-0.402	-0.101
-277.443	-200.000	-0.040	0.188
-276.428	119.037	0.133	-0.163
-275.413	-21.422	0.205	-0.125
-274.399	-20.387	-0.123	0.076
-273.384	676.106	-0.039	-0.102
-272.370	-200.000	0.021	-0.140
-271.355	-162.327	0.070	-0.003
-270.340	110.550	0.234	-0.281
-269.326	-15.444	-0.296	0.189
-268.311	-200.000	-0.006	-0.306
-267.297	203.656	0.119	0.184
-266.282	-200.000	0.006	-0.069
-265.267	-200.000	0.012	0.070
-264.253	800.000	0.102	0.368
-263.238	-84.213	0.363	0.115
-262.224	44.007	0.277	-0.253
-261.209	800.000	0.004	0.012
-260.195	566.417	-0.167	0.404
-259.180	-38.401	-0.189	0.100
-258.165	800.000	-0.099	0.321
-257.151	-200.000	0.044	0.380
-256.136	464.363	-0.131	0.292
-255.122	438.383	-0.159	-0.345
-254.107	20.508	-0.094	-0.075
-253.092	102.928	-0.135	0.158
-252.078	29.067	-0.084	0.071
-251.063	-200.000	0.002	-0.090
-250.049	364.364	-0.092	0.184
-249.034	-80.437	-0.110	-0.036
-248.019	800.000	-0.076	0.295
-247.005	-200.000	0.030	-0.210
-245.990	800.000	0.078	-0.242
-244.976	-137.714	-0.158	0.018
-243.961	481.451	0.149	0.336
-242.946	-144.682	-0.171	-0.016
-241.932	-200.000	-0.009	-0.050
-240.917	30.185	0.345	-0.293
-239.903	-42.011	0.238	0.121
-238.888	-157.705	-0.397	0.024
-237.873	476.679	0.034	0.078
-236.859	-20.087	0.134	-0.082
-235.844	267.252	-0.017	0.029
-234.830	-51.080	-0.231	-0.108
-233.815	524.294	0.121	0.284
-232.800	20.952	0.184	0.148
-231.786	214.380	-0.070	0.111
-230.771	-107.961	0.298	-0.064
-229.757	-159.566	0.279	-0.015
-228.742	-86.313	0.112	-0.034
-227.727	-147.888	0.181	0.015
-226.713	-94.622	0.073	0.020
-225.698	16.602	0.260	-0.204
-224.684	610.699	-0.062	-0.153
-223.669	-200.000	0.018	-0.151
-222.655	783.460	0.078	0.214
-221.640	-118.107	0.388	-0.069
-220.625	-200.000	-0.022	-0.168
-219.611	-59.561	0.114	-0.049
-218.596	-56.083	0.009	0.004
-217.582	-79.056	-0.219	-0.074
-216.567	-172.268	0.272	-0.009
-215.552	280.554	-0.081	0.144
-214.538	-6.137	0.206	0.140
-213.523	-160.650	-0.119	0.006
-212.509	101.197	-0.195	0.225
-211.494	800.000	0.063	-0.198
-210.479	800.000	0.079	-0.328
-209.465	78.731	-0.253	0.269
-208.450	12.611	0.057	0.044
-207.436	-65.662	0.090	0.036
-206.421	36.234	0.087	-0.076
-205.406	128.479	0.181	-0.229
-204.392	-152.570	-0.316	-0.022
-203.377	188.588	0.078	-0.116
-202.363	-85.318	-0.542	0.168
-201.348	103.319	-0.109	-0.128
-200.333	-78.864	0.062	0.021
-199.319	-200.000	0.028	-0.392
-198.304	800.000	0.080	-0.263
-197.290	-37.463	0.256	-0.136
-196.275	-80.402	0.043	0.014
-195.260	-26.638	0.309	0.180
-194.246	-200.000	-0.025	0.152
-193.231	-200.000	0.003	0.027
-192.217	-200.000	-0.009	0.199
-191.202	-106.766	0.432	0.095
-190.187	800.000	-0.026	0.105
-189.173	107.105	0.162	0.191
-188.158	51.356	0.091	-0.086
-187.144	85.283	-0.175	-0.191
-186.129	-200.000	-0.021	0.117
-185.114	127.910	-0.155	0.196
-184.100	84.773	0.152	-0.166
-183.085	-200.000	0.012	-0.082
-182.071	-141.374	0.086	0.009
-181.056	-133.030	0.149	-0.019
-180.042	-90.917	0.257	0.073
-179.027	-200.000	-0.019	-0.188
-178.012	-85.030	0.174	0.054
-176.998	108.614	-0.266	-0.316
-175.983	552.264	0.105	0.250
-174.969	-65.591	-0.134	0.053
-173.954	102.102	-0.077	0.089
-172.939	-146.354	0.257	-0.022
-171.925	-200.000	-0.004	-0.272
-170.910	427.117	-0.081	0.173
-169.896	-51.370	0.101	-0.047
-168.881	800.000	0.072	0.238
-167.866	114.234	0.215	-0.260
-166.852	543.746	0.035	0.082
-165.837	-168.891	-0.086	0.003
-164.823	-69.155	0.172	-0.066
-163.808	389.668	-0.112	0.231
-162.793	-56.901	-0.120	-0.053
-161.779	-82.528	-0.334	-0.107
-160.764	21.026	-0.157	-0.126
-159.750	-200.000	0.030	0.339
-158.735	230.351	-0.218	-0.354
-157.720	286.805	0.084	0.151
-156.706	-98.267	-0.113	-0.029
-155.691	-200.000	-0.029	-0.207
-154.677	297.858	0.175	0.318
-153.662	37.522	-0.194	0.170
-152.647	-200.000	0.004	0.378
-151.633	30.022	0.241	-0.204
-150.618	-105.402	-0.146	-0.033
-149.604	-126.886	0.296	-0.043
-148.589	40.900	-0.256	-0.229
-147.574	-55.489	0.163	-0.072
-146.560	334.633	-0.152	-0.292
-145.545	-200.000	-0.053	-0.237
-144.531	22.738	-0.239	0.194
-143.516	-200.000	-0.002	0.275
-142.502	-164.475	-0.211	0.010
-141.487	98.527	-0.184	0.210
-140.472	-123.334	0.160	0.025
-139.458	38.325	-0.086	0.076
-138.443	-19.254	-0.265	-0.163
-137.429	-41.314	0.050	-0.025
-136.414	-200.000	0.012	0.064
-135.399	469.295	0.215	-0.478
-134.385	265.670	-0.099	0.171
-133.370	38.835	0.189	-0.167
-132.356	-14.031	0.125	-0.080
-131.341	-200.000	0.032	-0.518
-130.326	800.000	-0.107	-0.421
-129.312	86.809	-0.228	-0.249
-128.297	-59.725	0.178	0.076
-127.283	11.186	-0.270	0.204
-126.268	411.929	0.106	0.222
-125.253	-109.542	-0.238	0.050
-124.239	-145.616	-0.205	-0.018
-123.224	-146.340	0.218	-0.019
-122.210	20.802	-0.093	0.074
-121.195	-111.134	0.212	0.043
-120.180	-200.000	-0.000	-0.224
-119.166	-76.149	0.127	-0.044
-118.151	-76.629	0.267	-0.093
-117.137	490.769	0.136	0.308
-116.122	64.439	-0.232	0.231
-115.107	-200.000	-0.007	-0.277
-114.093	-60.871	0.334	0.140
-113.078	-95.779	-0.403	-0.106
-112.064	-26.814	-0.211	-0.122
-111.049	-44.351	0.021	0.010
-110.034	247.430	0.078	0.130
-109.020	-118.027	0.142	0.025
-108.005	129.545	-0.112	0.141
-106.991	-200.000	-0.015	0.311
-105.976	-130.723	-0.089	-0.012
-104.962	-200.000	-0.069	0.407
-103.947	-92.354	-0.200	-0.056
-102.932	-72.737	-0.034	-0.012
-101.918	241.019	0.088	-0.145
-100.903	223.754	0.155	-0.247
-99.889	-200.000	0.000	0.080
-98.874	-42.445	0.211	-0.106
-97.859	-109.392	0.318	-0.067
-96.845	-200.000	0.006	-0.314
-95.830	-188.372	0.087	0.001
-94.816	-128.758	-0.175	0.024
-93.801	-65.169	0.155	0.062
-92.786	93.007	-0.054	0.061
-91.772	800.000	0.099	0.288
-90.757	764.432	-0.085	-0.227
-89.743	-200.000	-0.004	0.297
-88.728	512.246	-0.100	-0.231
-87.713	-169.554	-0.110	-0.004
-86.699	236.989	-0.194	-0.319
-85.684	800.000	-0.006	0.025
-84.670	-200.000	-0.043	0.201
-83.655	-87.787	-0.077	0.023
-82.640	-200.000	-0.002	-0.199
-81.626	-200.000	-0.032	-0.270
-80.611	590.378	0.056	0.137
-79.597	-200.000	-0.034	0.270
-78.582	66.903	0.338	-0.340
-77.567	-140.700	0.487	0.050
-76.553	-104.901	0.289	0.066
-75.538	-174.455	-0.279	0.008
-74.524	145.310	-0.290	0.383
-73.509	-111.748	-0.111	0.022
-72.494	-55.207	0.120	-0.053
-71.480	49.688	0.185	-0.172
-70.465	-115.731	-0.177	0.033
-69.451	551.089	0.061	-0.144
-68.436	691.420	0.094	-0.244
-67.422	800.000	-0.070	-0.257
-66.407	-89.265	0.227	0.066
-65.392	-125.572	0.438	-0.066
-64.378	12.438	0.178	0.136
-63.363	800.000	0.040	-0.125
-62.349	-11.306	0.371	0.241
-61.334	42.597	-0.857	-0.771
-60.319	-152.282	0.612	-0.044
-59.305	800.000	0.202	-0.792
-58.290	248.369	0.661	1.105
-57.276	800.000	0.485	1.556
-56.261	-200.000	93.852	571.588
-55.246	561.259	1367.715	3266.502
-54.232	153.321	2578.445	3486.407
-53.217	117.133	2165.452	2628.432
-52.203	47.412	1624.112	1495.031
-51.188	39.186	1360.259	1202.080
-50.173	35.721	1318.243	1144.326
-49.159	58.000	1366.755	1321.811
-48.144	62.759	1384.914	1368.055
-47.130	39.482	1338.542	1184.484
-46.115	35.851	1321.099	1147.402
-45.100	35.585	1316.844	1142.078
-44.086	35.415	1314.247	1138.770
-43.071	35.438	1312.049	1136.955
-42.057	35.484	1309.996	1135.406
-41.042	35.532	1307.910	1133.833
-40.027	35.605	1306.393	1132.909
-39.013	35.591	1304.565	1131.196
-37.998	35.581	1302.250	1129.085
-36.984	35.645	1300.958	1128.293
-35.969	35.659	1299.037	1126.664
-34.954	35.640	1297.551	1125.222
-33.940	35.681	1295.726	1123.834
-32.925	35.700	1295.216	1123.457
-31.911	35.749	1293.457	1122.174
-30.896	35.732	1292.149	1120.892
-29.881	35.858	1290.558	1120.202
-28.867	35.713	1289.352	1118.270
-27.852	35.705	1287.944	1116.953
-26.838	35.799	1286.454	1116.164
-25.823	35.829	1285.026	1115.058
-24.809	35.729	1283.774	1113.348
-23.794	35.735	1281.933	1111.738
-22.779	35.692	1280.913	1110.565
-21.765	35.763	1279.297	1109.526
-20.750	35.576	1278.542	1107.749
-19.736	35.643	1276.966	1106.724
-18.721	35.664	1275.457	1105.495
-17.706	35.604	1274.885	1104.613
-16.692	35.638	1273.269	1103.364
-15.677	35.665	1272.424	1102.743
-14.663	35.645	1271.040	1101.385
-13.648	35.470	1270.285	1099.684
-12.633	35.649	1269.129	1099.663
-11.619	35.478	1268.633	1098.211
-10.604	35.618	1267.171	1097.699
-9.590	35.472	1266.477	1096.225
-8.575	35.385	1265.722	1095.030
-7.560	35.597	1264.654	1095.272
-6.546	35.556	1263.795	1094.249
-5.531	35.555	1263.096	1093.598
-4.517	35.558	1262.251	1092.836
-3.502	35.610	1260.981	1091.990
-2.487	35.504	1260.440	1090.874
-1.473	35.582	1256.055	1087.483
-0.458	34.119	1241.297	1066.469
0.556	30.795	1222.893	1028.362
1.571	27.234	1228.359	1013.068
2.586	26.353	1243.854	1020.784
3.600	25.786	1233.084	1008.680
4.615	18.997	1159.067	912.175
5.629	7.414	1078.830	791.460
6.644	2.104	1056.231	748.824
7.659	1.722	1053.196	744.736
8.673	1.473	1052.099	742.679
9.688	1.503	1050.238	741.448
10.702	2.225	1049.390	744.300
11.717	9.228	1059.576	785.799
12.731	19.562	1074.305	847.646
13.746	24.029	1079.776	873.873
14.761	24.615	1079.722	876.627
15.775	24.674	1079.175	876.396
16.790	24.343	1079.089	874.623
17.804	24.267	1078.494	873.694
18.819	24.428	1077.818	873.855
19.834	24.503	1077.379	873.791
20.848	24.496	1076.951	873.330
21.863	24.478	1076.809	873.048
22.877	24.472	1076.214	872.460
23.892	24.468	1074.706	871.141
24.907	24.425	1074.545	870.723
25.921	24.436	1073.249	869.650
26.936	24.471	1071.601	868.410
27.950	24.411	1070.153	866.866
28.965	24.184	1068.584	864.421
29.980	24.424	1066.900	864.144
30.994	24.623	1066.079	864.365
32.009	24.572	1065.430	863.514
33.023	24.301	1064.291	861.205
34.038	24.496	1063.152	861.149
35.053	24.666	1062.651	861.484
36.067	24.538	1061.805	860.108
37.082	24.695	1060.756	859.935
38.096	24.706	1060.712	859.876
39.111	24.779	1059.649	859.293
40.126	24.643	1058.157	857.353
41.140	24.260	1056.501	854.102
42.155	24.086	1055.037	852.011
43.169	24.063	1054.319	851.244
44.184	24.280	1053.095	851.218
45.199	24.091	1052.268	849.571
46.213	24.069	1051.625	848.870
47.228	24.158	1051.087	848.787
48.242	24.295	1049.790	848.316
49.257	24.544	1048.931	848.732
50.271	24.663	1048.284	848.697
51.286	24.631	1047.490	847.829
52.301	24.622	1046.731	847.095
53.315	24.484	1045.800	845.613
54.330	24.333	1044.998	844.172
55.344	24.526	1044.008	844.214
56.359	24.513	1043.135	843.372
57.374	24.277	1042.338	841.536
58.388	24.282	1041.417	840.743
59.403	24.105	1040.639	839.209
60.417	24.134	1039.824	838.612
61.432	24.124	1039.298	838.068
62.447	24.342	1038.500	838.374
63.461	24.205	1038.137	837.363
64.476	24.202	1036.411	835.882
65.490	24.100	1035.427	834.539
66.505	24.197	1034.687	834.319
67.520	24.262	1034.095	834.076
68.534	24.049	1033.154	832.248
69.549	23.713	1031.905	829.597
70.563	23.802	1031.155	829.335
71.578	23.712	1030.591	828.389
72.593	23.594	1029.311	826.736
73.607	23.703	1029.246	827.120
74.622	24.069	1028.598	828.226
75.636	24.055	1028.052	827.651
76.651	23.926	1027.016	826.143
77.666	23.918	1026.183	825.365
78.680	23.827	1025.617	824.415
79.695	23.931	1025.116	824.421
80.709	24.106	1024.390	824.573
81.724	23.975	1023.615	823.273
82.739	24.178	1022.522	823.257
83.753	24.524	1022.209	824.530
84.768	24.775	1021.459	825.010
85.782	24.698	1020.941	824.162
86.797	24.711	1019.546	823.024
87.812	24.509	1018.712	821.350
88.826	24.678	1017.596	821.152
89.841	24.669	1017.097	820.638
90.855	24.632	1016.110	819.596
91.870	24.701	1015.248	819.148
92.884	24.682	1013.658	817.704
93.899	24.438	1013.098	816.067
94.914	24.832	1011.788	816.735
95.928	24.471	1011.205	814.546
96.943	24.393	1009.528	812.768
97.957	24.130	1008.538	810.701
98.972	24.108	1007.718	809.870
99.987	24.373	1006.891	810.337
101.001	24.406	1006.284	809.927
102.016	24.411	1005.153	808.970
103.030	24.311	1004.507	807.922
104.045	24.153	1003.413	806.257
105.060	24.015	1002.503	804.830
106.074	24.231	1001.240	804.721
107.089	24.553	1001.099	805.992
108.103	24.530	1000.097	805.010
109.118	24.094	998.943	802.043
110.133	24.283	997.460	801.631
111.147	23.993	996.449	799.449
112.162	23.946	995.630	798.508
113.176	24.143	995.638	799.330
114.191	24.005	994.449	797.685
115.206	23.710	992.986	795.119
116.220	23.704	992.484	794.621
117.235	23.840	991.779	794.596
118.249	23.944	990.714	794.137
119.264	23.889	990.020	793.264
120.279	23.855	989.353	792.508
121.293	23.886	988.421	791.828
122.308	23.785	987.703	790.732
123.322	23.897	986.501	790.198
124.337	23.652	984.967	787.815
125.352	23.243	983.552	784.799
126.366	23.273	982.307	783.870
127.381	23.955	982.825	787.232
128.395	24.295	982.393	788.319
129.410	24.530	981.110	788.257
130.424	24.378	980.404	786.951
131.439	24.494	979.015	786.278
132.454	24.532	978.246	785.758
133.468	24.324	977.456	784.137
134.483	24.523	977.111	784.668
135.497	24.625	976.484	784.543
136.512	24.655	975.653	783.935
137.527	24.664	974.447	782.937
138.541	24.608	974.070	782.322
139.556	24.670	972.826	781.521
140.570	24.712	972.167	781.110
141.585	24.799	971.160	780.611
142.600	24.711	970.075	779.284
143.614	24.950	969.277	779.615
144.629	24.980	969.107	779.542
145.643	24.795	967.679	777.518
146.658	24.694	966.110	775.750
147.673	24.688	964.879	774.669
148.687	24.374	964.495	772.931
149.702	24.483	962.898	772.056
150.716	24.401	962.113	771.001
151.731	24.671	961.529	771.632
152.746	24.714	961.319	771.582
153.760	24.921	960.656	771.873
154.775	25.006	959.977	771.624
155.789	24.887	959.017	770.273
156.804	24.865	957.952	769.257
157.819	24.787	957.539	768.522
158.833	24.946	956.687	768.449
159.848	24.901	955.653	767.361
160.862	24.798	954.354	765.806
161.877	24.755	953.353	764.751
162.892	24.820	952.494	764.273
163.906	24.858	951.276	763.388
164.921	24.766	950.584	762.378
165.935	24.850	949.896	762.114
166.950	24.821	948.478	760.785
167.964	24.684	948.067	759.805
168.979	24.542	946.735	758.070
169.994	24.605	945.931	757.626
171.008	24.885	945.257	758.206
172.023	24.943	944.391	757.688
173.037	24.585	943.714	755.565
174.052	24.598	942.637	754.692
175.067	24.594	942.072	754.155
176.081	24.554	941.431	753.405
177.096	24.689	941.132	753.670
178.110	24.273	940.181	751.087
179.125	24.193	938.834	749.611
180.140	24.160	938.984	749.525
181.154	24.318	938.256	749.540
182.169	24.619	938.761	751.143
183.183	24.928	937.813	751.616
184.198	24.676	937.075	749.902
185.213	24.774	936.585	749.851
186.227	24.873	935.792	749.566
187.242	24.749	935.207	748.512
188.256	24.927	934.026	748.246
189.271	24.840	933.534	747.420
190.286	24.543	932.788	745.518
191.300	23.919	931.152	741.543
192.315	23.161	929.483	736.993
193.329	23.238	928.805	736.709
194.344	24.136	929.629	741.039
195.359	24.562	929.510	742.650
196.373	24.700	928.935	742.695
197.388	24.664	928.445	742.090
198.402	24.635	927.598	741.226
199.417	24.757	926.905	741.114
200.432	24.354	926.275	738.875
201.446	24.282	925.288	737.723
202.461	24.364	924.506	737.374
203.475	23.386	922.828	731.932
204.490	22.760	921.648	728.349
205.504	23.699	921.393	731.958
206.519	24.303	921.806	734.709
207.534	24.345	921.366	734.465
208.548	24.627	921.446	735.626
209.563	24.523	919.834	733.848
210.577	24.390	919.559	733.017
211.592	24.960	918.614	734.536
212.607	24.970	917.976	734.002
213.621	24.917	917.466	733.315
214.636	24.869	917.108	732.764
215.650	24.805	916.133	731.661
216.665	24.971	915.384	731.676
217.680	24.928	914.663	730.857
218.694	24.500	913.714	728.290
219.709	24.333	912.732	726.760
220.723	24.748	912.344	728.080
221.738	24.711	912.096	727.667
222.753	24.696	911.380	726.969
223.767	24.944	910.746	727.408
224.782	24.920	911.043	727.483
225.796	24.929	910.269	726.838
226.811	24.366	908.323	722.939
227.826	23.777	906.894	719.352
228.840	23.888	906.806	719.669
229.855	23.942	906.121	719.280
230.869	23.616	905.384	717.313
231.884	23.953	905.336	718.574
232.899	24.605	905.548	721.311
233.913	24.636	904.357	720.423
234.928	24.651	903.742	719.932
235.942	24.560	903.135	719.018
236.957	24.375	902.362	717.593
237.972	24.339	901.598	716.777
238.986	24.417	901.215	716.725
240.001	24.397	900.648	716.126
241.015	24.384	900.706	716.060
242.030	24.583	899.699	715.992
243.045	24.691	899.570	716.260
244.059	24.730	899.190	716.049
245.074	24.615	898.020	714.593
246.088	24.347	897.036	712.679
247.103	24.696	896.519	713.597
248.117	25.159	896.761	715.573
249.132	25.390	896.347	716.100
250.147	25.474	895.692	715.850
251.161	25.643	895.090	715.980
252.176	25.557	894.646	715.217
253.190	25.670	894.147	715.204
254.205	25.804	893.735	715.343
255.220	25.803	892.622	714.385
256.234	25.599	892.403	713.340
257.249	25.511	891.369	712.099
258.263	25.552	890.537	711.537
259.278	25.617	889.988	711.289
260.293	25.692	889.281	710.958
261.307	25.524	889.083	710.074
262.322	25.329	888.012	708.386
263.336	24.517	886.123	703.618
264.351	23.521	884.312	698.198
265.366	23.693	884.032	698.593
266.380	24.794	884.474	703.211
267.395	25.257	884.579	705.052
268.409	25.221	883.381	703.896
269.424	25.439	883.330	704.648
270.439	25.415	882.852	704.110
271.453	25.479	881.963	703.588
272.468	25.612	881.948	704.034
273.482	25.716	881.248	703.821
274.497	25.287	879.853	700.969
275.512	24.912	879.172	698.899
276.526	25.255	879.249	700.239
277.541	25.436	878.651	700.407
278.555	25.279	877.944	699.170
279.570	25.211	877.073	698.149
280.585	25.219	876.677	697.801
281.599	25.317	875.650	697.303
282.614	24.619	874.673	693.755
283.628	24.632	874.109	693.296
284.643	25.100	873.689	694.717
285.657	24.620	872.777	692.073
286.672	24.386	871.884	690.396
287.687	24.801	871.947	691.990
288.701	24.944	871.126	691.831
289.716	24.757	870.443	690.505
290.730	24.657	869.853	689.591
291.745	24.302	868.801	687.328
292.760	24.622	868.896	688.577
293.774	25.408	869.508	692.030
294.789	25.929	869.002	693.571
295.803	25.964	868.463	693.213
296.818	25.989	867.585	692.545
297.833	25.422	866.721	689.619
298.847	25.309	865.855	688.436
299.862	25.696	865.633	689.684
300.876	25.902	865.524	690.323
301.891	25.878	864.446	689.312
302.906	25.423	863.753	686.957
303.920	25.606	863.461	687.366
304.935	25.983	862.915	688.307
305.949	25.876	862.373	687.406
306.964	25.731	861.715	686.270
307.979	25.593	861.401	685.430
308.993	25.983	861.302	686.780
310.008	26.015	860.435	686.148
311.022	25.772	859.600	684.498
312.037	25.656	858.829	683.381
313.052	25.414	857.937	681.695
314.066	24.559	856.710	677.420
315.081	24.156	856.009	675.275
316.095	25.044	856.150	678.692
317.110	25.638	855.759	680.570
318.125	24.737	854.284	675.933
319.139	23.797	852.767	671.124
320.154	23.768	852.350	670.628
321.168	24.605	853.014	674.250
322.183	25.476	852.877	677.370
323.197	25.486	852.855	677.327
324.212	25.658	852.511	677.643
325.227	25.662	851.823	677.052
326.241	25.654	850.715	676.082
327.256	25.502	850.413	675.210
328.270	25.360	849.659	674.020
329.285	25.328	848.517	672.933
330.300	24.988	848.058	671.235
331.314	25.266	847.773	671.991
332.329	25.687	847.581	673.356
333.343	25.820	847.618	673.823
334.358	25.769	847.122	673.176
335.373	25.818	846.875	673.104
336.387	26.068	847.103	674.163
337.402	26.304	846.480	674.489
338.416	26.096	846.103	673.349
339.431	26.371	845.727	674.017
340.446	26.381	845.401	673.737
341.460	26.192	844.922	672.590
342.475	26.220	843.924	671.840
343.489	26.229	843.851	671.756
344.504	26.697	843.416	673.090
345.519	26.740	843.127	672.959
346.533	26.560	842.529	671.753
347.548	26.717	842.085	671.923
348.562	26.575	841.767	671.084
349.577	26.496	841.005	670.123
350.592	26.346	840.603	669.191
351.606	26.606	839.583	669.280
352.621	26.464	838.754	668.036
353.635	26.290	838.033	666.759
354.650	25.734	836.599	663.510
355.665	24.774	835.158	658.776
356.679	25.120	835.296	660.100
357.694	25.649	834.526	661.377
358.708	25.513	834.237	660.589
359.723	25.879	833.835	661.558
360.738	26.165	833.607	662.367
361.752	26.306	833.280	662.567
362.767	26.638	832.993	663.497
363.781	26.856	832.820	664.100
364.796	26.810	832.281	663.441
365.810	26.870	831.958	663.344
366.825	26.961	831.296	663.089
367.840	26.800	830.133	661.517
368.854	26.271	829.676	659.165
369.869	26.274	829.095	658.657
370.883	26.324	828.554	658.349
371.898	26.144	828.579	657.657
372.913	26.174	828.283	657.472
373.927	26.428	827.227	657.501
374.942	26.506	827.148	657.661
375.956	26.627	826.603	657.609
376.971	26.776	826.641	658.120
377.986	26.960	826.024	658.241
379.000	26.770	825.574	657.135
380.015	26.901	824.343	656.572
381.029	26.839	824.116	656.109
382.044	26.960	823.785	656.224
383.059	26.857	823.212	655.338
384.073	26.950	822.656	655.173
385.088	26.843	822.152	654.328
386.102	26.697	821.078	652.890
387.117	26.636	820.572	652.208
388.132	26.235	819.547	649.894
389.146	25.875	818.461	647.680
390.161	26.332	818.238	649.090
391.175	26.651	818.220	650.163
392.190	26.269	817.530	648.188
393.205	24.882	815.415	641.485
394.219	23.476	813.334	634.761
395.234	23.307	813.443	634.187
396.248	24.963	814.557	640.931
397.263	26.539	815.238	647.048
398.278	26.461	814.974	646.504
399.292	26.323	814.196	645.336
400.307	26.015	814.022	644.040
401.321	26.105	813.957	644.253
402.336	26.680	813.346	645.762
403.350	27.206	813.234	647.492
404.365	27.416	813.453	648.355
405.380	27.703	813.172	649.096
406.394	27.603	812.441	648.099
407.409	27.461	811.987	647.176
408.423	27.535	811.470	646.968
409.438	27.447	811.434	646.572
410.453	27.521	810.961	646.399
411.467	27.553	810.037	645.720
412.482	27.593	809.858	645.662
413.496	27.670	809.598	645.669
414.511	27.606	809.435	645.256
415.526	27.644	808.506	644.591
416.540	27.399	807.789	643.097
417.555	27.255	806.949	641.865
418.569	27.351	806.834	642.053
419.584	27.162	806.205	640.833
420.599	27.266	805.360	640.468
421.613	106.824	1279.982	1438.374
422.628	92.150	1349.131	1438.468
