DTS Sentinel unit serial number:	SN413079Multiplexer serial number:	ORYXHardware model number:	OX4-SRSoftware version number:	ORYX F/W v4.00 Oryx Data Collector v3.7.2.0data status	okinstallation	princeton_trtdifferential loss correction	single-endedforward channel	channel 1reverse channel	N/Adate	2019/09/17time	02:18:35forward acquisition time	60.00reverse acquisition time	0.00gamma	496.2192k internal	0.2324k external	0.2324temperature offset calibration	0.9953default loss term (dB/km)	0.3790temperature slope calibration	1.0000multiplexer offset coefficient	1.0000multiplexer slope coefficient	1.0000fibre end	0.00T internal ref (°C)	29.77T ext. ref 1 (°C)	0.13T ext. ref 2 (°C)	24.69length (m)	temperature (°C)	Stokes	anti-Stokes-747.200	-149.748	0.151	-0.012
-746.185	209.329	0.032	0.051
-745.171	800.000	-0.152	-0.477
-744.156	117.357	0.311	0.386
-743.142	-87.002	0.412	0.127
-742.127	800.000	-0.051	0.188
-741.112	-128.181	0.127	-0.018
-740.098	53.235	0.393	0.380
-739.083	184.450	0.107	0.160
-738.069	-200.000	0.077	0.440
-737.054	-200.000	-0.097	0.613
-736.039	-84.673	0.299	0.095
-735.025	125.022	0.050	-0.063
-734.010	-142.361	-0.372	-0.037
-732.996	31.716	0.022	-0.019
-731.981	7.321	-0.133	-0.101
-730.966	-142.415	0.316	0.031
-729.952	-104.841	0.019	-0.004
-728.937	327.037	-0.107	-0.206
-727.923	-200.000	0.010	0.049
-726.908	131.376	-0.147	0.190
-725.894	373.901	-0.031	-0.064
-724.879	800.000	0.051	-0.202
-723.864	5.873	0.034	-0.026
-722.850	92.885	-0.159	-0.182
-721.835	-28.194	-0.092	0.053
-720.821	-200.000	-0.018	-0.125
-719.806	205.836	-0.237	-0.372
-718.791	172.486	-0.233	-0.337
-717.777	-125.166	-0.182	0.028
-716.762	800.000	-0.086	-0.241
-715.748	-155.498	-0.151	-0.010
-714.733	-106.236	-0.041	-0.009
-713.718	73.480	0.111	-0.117
-712.704	-200.000	0.027	0.156
-711.689	-102.869	-0.279	0.067
-710.675	-64.655	0.218	0.089
-709.660	-59.406	0.130	0.056
-708.645	800.000	-0.039	-0.165
-707.631	-136.394	0.191	0.022
-706.616	-200.000	0.028	-0.254
-705.602	44.865	-0.141	0.131
-704.587	-131.040	-0.033	-0.004
-703.572	-140.925	-0.082	0.008
-702.558	90.946	-0.059	-0.066
-701.543	58.658	-0.092	-0.091
-700.529	129.699	-0.173	-0.223
-699.514	800.000	-0.047	-0.168
-698.499	800.000	0.045	-0.127
-697.485	-146.966	-0.213	-0.018
-696.470	-200.000	0.018	-0.198
-695.456	800.000	-0.122	-0.476
-694.441	179.205	-0.256	-0.378
-693.426	188.632	-0.101	-0.152
-692.412	-200.000	-0.007	-0.303
-691.397	0.112	0.039	-0.028
-690.383	332.549	0.187	-0.365
-689.368	-3.477	0.102	0.072
-688.354	-200.000	-0.046	0.341
-687.339	-200.000	-0.063	-0.491
-686.324	70.005	-0.176	-0.183
-685.310	-47.604	-0.206	0.101
-684.295	-200.000	0.022	0.139
-683.281	412.508	-0.130	-0.278
-682.266	-43.030	-0.127	-0.065
-681.251	722.067	-0.071	0.191
-680.237	41.793	0.057	0.052
-679.222	412.696	0.084	-0.179
-678.208	304.109	-0.160	-0.299
-677.193	437.601	0.194	-0.427
-676.178	-155.329	-0.202	-0.013
-675.164	20.344	-0.104	-0.084
-674.149	-45.962	0.373	-0.185
-673.135	-200.000	-0.033	0.303
-672.120	-68.605	-0.160	-0.062
-671.105	-125.177	-0.344	0.053
-670.091	-91.034	0.268	-0.078
-669.076	800.000	-0.020	0.074
-668.062	-69.927	-0.393	-0.151
-667.047	432.171	0.099	-0.215
-666.032	126.566	0.066	0.084
-665.018	-68.691	0.069	-0.027
-664.003	491.227	0.179	0.412
-662.989	-121.972	-0.259	0.043
-661.974	524.198	-0.096	-0.228
-660.959	51.401	0.222	-0.213
-659.945	-94.299	-0.139	-0.038
-658.930	-30.795	-0.269	0.153
-657.916	173.103	-0.122	-0.176
-656.901	-120.312	0.165	-0.028
-655.886	132.759	0.041	-0.053
-654.872	196.213	0.231	-0.354
-653.857	87.100	-0.224	-0.249
-652.843	-43.369	-0.212	0.108
-651.828	-96.251	0.114	0.030
-650.814	-200.000	-0.007	0.457
-649.799	-200.000	0.043	0.249
-648.784	800.000	0.062	0.239
-647.770	-200.000	-0.007	-0.046
-646.755	-200.000	-0.055	-0.246
-645.741	-200.000	-0.007	-0.499
-644.726	-4.020	0.290	-0.202
-643.711	260.945	0.153	-0.267
-642.697	-200.000	-0.006	0.179
-641.682	-200.000	0.012	0.171
-640.668	168.492	0.124	-0.178
-639.653	97.206	-0.267	-0.308
-638.638	124.220	0.125	-0.158
-637.624	800.000	0.034	-0.108
-636.609	110.281	0.101	0.122
-635.595	-31.170	-0.095	-0.054
-634.580	130.338	0.075	0.097
-633.565	-73.098	-0.136	-0.050
-632.551	264.193	-0.126	0.220
-631.536	-31.219	-0.124	0.070
-630.522	40.919	-0.135	-0.122
-629.507	194.693	-0.082	0.124
-628.492	22.009	-0.220	-0.180
-627.478	800.000	-0.095	0.324
-626.463	-42.840	-0.139	-0.071
-625.449	-200.000	-0.058	-0.306
-624.434	-129.762	0.223	0.031
-623.419	14.150	-0.223	0.175
-622.405	-64.690	0.092	0.037
-621.390	6.232	-0.167	0.124
-620.376	-82.852	0.172	0.056
-619.361	546.170	-0.081	-0.194
-618.346	-200.000	-0.247	-0.001
-617.332	-151.932	-0.119	-0.009
-616.317	129.707	0.183	0.234
-615.303	-117.318	-0.117	0.021
-614.288	-200.000	-0.039	-0.342
-613.273	-13.725	0.125	-0.081
-612.259	-18.391	0.195	0.122
-611.244	800.000	-0.052	-0.165
-610.230	258.638	-0.009	0.015
-609.215	800.000	0.085	0.245
-608.201	180.351	0.197	-0.290
-607.186	800.000	0.075	0.215
-606.171	145.522	-0.151	0.203
-605.157	-132.955	-0.315	-0.040
-604.142	10.132	0.088	0.067
-603.128	-192.647	0.197	0.002
-602.113	-68.829	0.089	-0.034
-601.098	800.000	0.050	-0.202
-600.084	89.645	0.261	0.293
-599.069	29.484	-0.153	-0.131
-598.055	75.260	0.154	-0.163
-597.040	-44.651	-0.418	-0.210
-596.025	-111.195	-0.243	-0.050
-595.011	138.907	0.152	0.200
-593.996	-200.000	0.028	-0.250
-592.982	782.678	-0.063	-0.173
-591.967	-53.892	0.270	-0.124
-590.952	-200.000	-0.032	0.148
-589.938	494.787	0.129	-0.297
-588.923	800.000	-0.089	-0.347
-587.909	-200.000	0.002	0.143
-586.894	49.526	0.158	-0.149
-585.879	-116.215	0.178	0.033
-584.865	21.550	-0.136	0.111
-583.850	222.263	-0.111	0.180
-582.836	66.580	-0.222	0.227
-581.821	67.223	0.133	-0.136
-580.806	-200.000	0.006	0.173
-579.792	800.000	0.034	-0.135
-578.777	237.782	0.005	0.009
-577.763	143.528	0.066	-0.088
-576.748	-76.546	0.172	-0.061
-575.733	-200.000	-0.000	-0.056
-574.719	-188.757	-0.094	-0.001
-573.704	115.988	-0.345	-0.423
-572.690	-200.000	0.013	-0.199
-571.675	-113.017	0.226	-0.045
-570.661	-36.398	0.207	0.112
-569.646	-200.000	-0.004	-0.312
-568.631	800.000	0.076	-0.295
-567.617	-112.604	-0.509	0.102
-566.602	11.067	0.275	-0.211
-565.588	-105.187	0.106	-0.024
-564.573	-200.000	-0.040	-0.281
-563.558	-200.000	-0.043	0.249
-562.544	800.000	-0.090	-0.275
-561.529	-81.907	0.126	0.041
-560.515	-200.000	0.000	-0.209
-559.500	560.340	0.014	0.034
-558.485	496.373	-0.033	0.076
-557.471	-200.000	-0.032	-0.193
-556.456	800.000	0.061	-0.234
-555.442	-38.998	-0.117	0.062
-554.427	800.000	-0.050	0.209
-553.412	-200.000	-0.043	-0.266
-552.398	-32.242	0.285	-0.159
-551.383	112.408	-0.133	-0.161
-550.369	-13.792	-0.086	0.056
-549.354	800.000	0.141	-0.426
-548.339	255.714	0.065	0.111
-547.325	-165.163	0.191	0.008
-546.310	-146.637	-0.303	0.026
-545.296	-200.000	0.025	-0.190
-544.281	-142.298	0.076	-0.008
-543.266	-6.141	-0.053	0.036
-542.252	-104.447	0.164	0.038
-541.237	-1.010	0.004	-0.003
-540.223	-116.253	-0.314	0.058
-539.208	-79.844	0.144	0.049
-538.193	28.834	-0.034	-0.029
-537.179	-200.000	-0.026	0.150
-536.164	-111.576	0.129	-0.026
-535.150	-200.000	-0.011	-0.164
-534.135	-164.597	0.146	-0.007
-533.121	800.000	0.098	0.284
-532.106	-5.227	-0.116	-0.080
-531.091	339.969	0.147	-0.287
-530.077	-161.405	-0.094	-0.005
-529.062	-138.108	0.314	-0.035
-528.048	-92.085	0.078	0.022
-527.033	-100.621	-0.169	-0.042
-526.018	800.000	0.066	0.217
-525.004	-88.410	-0.292	-0.087
-523.989	44.322	0.178	0.164
-522.975	800.000	0.062	-0.266
-521.960	-43.709	-0.213	0.107
-520.945	800.000	-0.072	0.283
-519.931	-148.627	0.191	-0.016
-518.916	81.993	0.079	-0.085
-517.902	583.784	0.079	-0.193
-516.887	-90.603	-0.231	-0.067
-515.872	-79.862	0.134	-0.045
-514.858	-13.185	-0.160	0.104
-513.843	586.804	0.084	0.207
-512.829	-200.000	-0.107	0.579
-511.814	-77.667	0.159	-0.055
-510.799	-22.760	-0.257	-0.155
-509.785	-47.651	0.519	0.252
-508.770	274.707	0.074	0.130
-507.756	83.508	-0.160	0.174
-506.741	5.337	-0.279	0.206
-505.726	-163.615	0.152	0.007
-504.712	-200.000	0.006	-0.268
-503.697	-58.857	-0.403	-0.174
-502.683	-153.665	-0.108	-0.007
-501.668	448.593	0.092	0.202
-500.653	10.170	-0.094	-0.072
-499.639	-200.000	-0.008	0.229
-498.624	82.159	-0.135	-0.147
-497.610	377.223	0.068	0.140
-496.595	271.854	-0.265	0.467
-495.581	-139.131	0.114	0.012
-494.566	523.522	0.052	0.122
-493.551	-187.047	-0.532	0.007
-492.537	-200.000	0.009	-0.157
-491.522	-90.889	-0.295	0.085
-490.508	148.924	-0.176	0.238
-489.493	583.784	-0.077	-0.189
-488.478	-200.000	-0.013	-0.136
-487.464	-200.000	0.019	0.244
-486.449	-200.000	-0.008	0.335
-485.435	144.467	-0.067	-0.090
-484.420	175.307	-0.196	0.284
-483.405	-75.632	-0.057	-0.020
-482.391	-87.357	0.285	0.086
-481.376	2.835	-0.114	-0.083
-480.362	-88.691	-0.244	0.073
-479.347	183.262	0.089	-0.132
-478.332	-116.558	-0.378	-0.070
-477.318	-200.000	-0.038	-0.167
-476.303	-200.000	-0.001	-0.098
-475.289	-157.485	0.293	0.018
-474.274	32.556	-0.041	-0.035
-473.259	69.909	0.093	-0.096
-472.245	136.268	-0.213	0.277
-471.230	-55.647	0.258	-0.115
-470.216	127.977	0.255	-0.324
-469.201	-110.910	-0.307	-0.063
-468.186	-148.610	-0.053	-0.004
-467.172	18.606	0.291	0.232
-466.157	-101.676	0.368	-0.089
-465.143	-76.672	-0.181	-0.063
-464.128	114.926	-0.207	0.253
-463.113	621.614	0.020	0.051
-462.099	701.650	-0.104	0.272
-461.084	-81.798	-0.254	-0.083
-460.070	294.345	0.226	-0.412
-459.055	-199.756	0.285	-0.001
-458.040	281.839	-0.280	0.500
-457.026	-79.042	0.140	0.048
-456.011	262.673	0.116	-0.202
-454.997	3.526	0.090	0.066
-453.982	-35.253	0.264	-0.144
-452.968	-122.366	0.268	0.044
-451.953	-46.923	0.174	0.085
-450.938	-10.644	-0.269	-0.177
-449.924	-19.440	0.157	0.097
-448.909	800.000	0.073	-0.213
-447.895	366.850	0.110	-0.221
-446.880	497.968	-0.051	0.118
-445.865	-164.582	-0.181	-0.008
-444.851	-200.000	0.017	0.196
-443.836	29.046	-0.162	-0.137
-442.822	800.000	0.045	-0.184
-441.807	337.614	0.086	-0.167
-440.792	-179.841	0.383	0.008
-439.778	65.872	-0.085	0.086
-438.763	-139.322	0.512	-0.055
-437.749	296.288	0.068	0.124
-436.734	-200.000	0.002	0.051
-435.719	-90.165	-0.437	0.127
-434.705	800.000	0.063	0.187
-433.690	-200.000	0.036	0.177
-432.676	465.115	-0.104	-0.231
-431.661	-136.087	0.254	-0.030
-430.646	63.459	0.163	0.163
-429.632	-149.250	-0.228	-0.018
-428.617	800.000	0.053	-0.198
-427.603	-200.000	-0.059	0.286
-426.588	800.000	0.043	-0.139
-425.573	-30.726	0.068	-0.038
-424.559	-200.000	-0.042	0.195
-423.544	517.670	-0.067	0.156
-422.530	-163.028	0.124	0.006
-421.515	800.000	0.093	0.326
-420.500	-80.775	-0.156	-0.052
-419.486	108.513	-0.138	0.164
-418.471	91.275	-0.052	-0.058
-417.457	-200.000	-0.019	-0.108
-416.442	-66.413	0.235	0.093
-415.428	-200.000	-0.035	-0.346
-414.413	-79.884	-0.090	-0.030
-413.398	355.627	-0.150	0.298
-412.384	-33.115	-0.134	-0.074
-411.369	-200.000	0.003	0.075
-410.355	-57.168	-0.047	-0.021
-409.340	-5.037	0.158	-0.108
-408.325	1.648	-0.181	0.130
-407.311	-28.416	-0.272	-0.156
-406.296	206.371	0.048	-0.075
-405.282	173.346	-0.189	0.271
-404.267	101.192	0.114	-0.133
-403.252	-8.476	0.147	-0.098
-402.238	-52.354	0.205	-0.095
-401.223	-154.765	0.414	-0.027
-400.209	612.974	-0.076	0.189
-399.194	-51.192	0.167	-0.078
-398.179	64.120	-0.226	0.226
-397.165	800.000	0.150	-0.431
-396.150	159.759	0.047	-0.065
-395.136	-110.924	0.080	-0.016
-394.121	29.108	-0.220	0.186
-393.106	166.670	-0.129	-0.182
-392.092	800.000	-0.054	0.166
-391.077	-8.070	0.218	-0.146
-390.063	363.101	-0.106	0.212
-389.048	-200.000	-0.019	-0.133
-388.033	-127.271	0.114	-0.017
-387.019	-80.538	0.070	-0.023
-386.004	-98.684	-0.226	0.057
-384.990	-94.252	0.427	-0.116
-383.975	-45.911	-0.309	0.152
-382.960	417.318	0.167	0.354
-381.946	-71.441	-0.254	-0.095
-380.931	-121.779	0.197	0.032
-379.917	-132.290	0.406	-0.052
-378.902	622.738	0.069	-0.172
-377.888	320.085	-0.036	0.068
-376.873	-183.890	-0.521	0.009
-375.858	-22.213	-0.271	0.163
-374.844	100.280	0.254	-0.294
-373.829	629.496	-0.040	-0.101
-372.815	688.583	-0.075	-0.196
-371.800	-56.655	0.255	-0.112
-370.785	-79.724	-0.377	-0.127
-369.771	-94.388	0.243	0.066
-368.756	88.270	0.213	0.235
-367.742	-200.000	0.031	0.157
-366.727	-150.086	-0.179	-0.014
-365.712	35.393	0.077	-0.067
-364.698	331.217	0.088	-0.169
-363.683	21.985	-0.056	-0.046
-362.669	800.000	-0.128	0.475
-361.654	-165.392	-0.110	0.005
-360.639	-200.000	-0.037	0.347
-359.625	800.000	-0.107	0.398
-358.610	-101.021	-0.278	0.068
-357.596	-200.000	0.004	0.059
-356.581	800.000	0.141	0.388
-355.566	106.675	0.072	0.085
-354.552	-63.942	-0.021	0.009
-353.537	-49.628	-0.129	-0.061
-352.523	667.594	-0.051	-0.130
-351.508	29.719	-0.038	0.032
-350.493	21.947	-0.169	0.137
-349.479	146.548	0.174	0.232
-348.464	494.599	0.171	0.389
-347.450	-117.012	-0.166	0.030
-346.435	-200.000	0.058	-0.320
-345.420	3.415	-0.109	0.079
-344.406	9.199	0.097	-0.073
-343.391	-200.000	-0.035	0.342
-342.377	371.132	-0.011	-0.023
-341.362	153.260	0.083	0.113
-340.348	800.000	0.082	-0.309
-339.333	297.501	0.044	0.081
-338.318	800.000	0.018	0.060
-337.304	138.987	-0.080	-0.105
-336.289	-200.000	0.014	-0.283
-335.275	87.284	-0.027	0.030
-334.260	-99.325	-0.182	-0.046
-333.245	348.509	-0.177	-0.347
-332.231	-200.000	0.021	-0.257
-331.216	671.339	0.015	-0.037
-330.202	216.108	-0.095	0.150
-329.187	-200.000	-0.006	-0.135
-328.172	-32.227	-0.237	-0.131
-327.158	392.337	0.145	-0.300
-326.143	91.324	0.116	0.130
-325.129	51.480	0.417	0.393
-324.114	-78.647	0.266	0.090
-323.099	-200.000	-0.006	-0.196
-322.085	-183.857	0.204	-0.003
-321.070	800.000	-0.069	-0.196
-320.056	-97.746	0.213	0.055
-319.041	-117.952	0.317	-0.056
-318.026	276.516	0.152	0.267
-317.012	800.000	0.088	0.361
-315.997	800.000	0.022	-0.064
-314.983	800.000	-0.111	-0.361
-313.968	-173.078	0.286	0.009
-312.953	69.115	-0.088	0.090
-311.939	230.354	0.136	-0.221
-310.924	-114.108	-0.297	0.057
-309.910	12.698	0.120	-0.092
-308.895	-116.359	0.004	-0.001
-307.880	37.470	0.336	-0.296
-306.866	40.867	0.087	-0.078
-305.851	-200.000	-0.074	0.421
-304.837	19.906	0.284	-0.227
-303.822	-31.770	-0.119	-0.066
-302.807	42.776	0.159	-0.144
-301.793	800.000	-0.059	0.224
-300.778	800.000	0.066	0.188
-299.764	-28.508	0.112	0.064
-298.749	800.000	-0.024	-0.103
-297.735	-106.019	0.287	0.064
-296.720	137.816	0.238	0.310
-295.705	-200.000	0.021	-0.094
-294.691	-200.000	-0.086	0.527
-293.676	18.312	0.127	-0.101
-292.662	9.479	-0.106	-0.079
-291.647	-1.191	0.145	-0.102
-290.632	-27.332	-0.090	-0.052
-289.618	17.222	-0.252	-0.198
-288.603	-89.622	0.254	0.074
-287.589	-126.759	0.243	0.036
-286.574	800.000	0.100	0.342
-285.559	481.532	0.028	0.062
-284.545	-98.863	0.226	0.057
-283.530	-104.713	-0.161	-0.037
-282.516	215.249	0.142	-0.223
-281.501	-200.000	0.023	0.170
-280.486	305.450	-0.094	-0.173
-279.472	800.000	-0.123	0.407
-278.457	-200.000	-0.038	0.187
-277.443	-74.454	0.242	-0.086
-276.428	-71.365	0.145	-0.054
-275.413	-96.853	-0.177	-0.046
-274.399	10.402	0.270	-0.204
-273.384	547.111	-0.046	-0.108
-272.370	-49.186	0.148	-0.070
-271.355	125.630	0.024	-0.030
-270.340	800.000	-0.043	0.186
-269.326	32.855	-0.202	0.173
-268.311	567.714	-0.059	-0.142
-267.297	-200.000	0.053	-0.502
-266.282	-51.179	-0.107	0.050
-265.267	35.800	-0.139	-0.121
-264.253	-200.000	0.004	-0.063
-263.238	-132.500	-0.187	0.024
-262.224	167.589	-0.045	0.064
-261.209	2.837	-0.177	-0.127
-260.195	-200.000	0.072	0.414
-259.180	-142.102	-0.181	-0.018
-258.165	-66.689	-0.351	-0.138
-257.151	683.835	0.146	-0.377
-256.136	109.404	-0.226	-0.268
-255.122	-14.354	0.049	-0.031
-254.107	82.534	-0.102	-0.109
-253.092	-200.000	-0.036	0.244
-252.078	800.000	0.070	-0.215
-251.063	-87.716	-0.149	-0.044
-250.049	-2.762	0.029	0.020
-249.034	-146.241	0.107	0.009
-248.019	61.215	-0.206	0.203
-247.005	-94.651	-0.308	-0.083
-245.990	-96.701	-0.442	-0.115
-244.976	83.612	0.141	-0.152
-243.961	140.316	0.079	-0.103
-242.946	-35.663	-0.249	0.134
-241.932	-200.000	-0.004	0.348
-240.917	-41.463	0.212	-0.108
-239.903	436.829	0.105	0.227
-238.888	-117.082	0.282	0.051
-237.873	-200.000	0.028	-0.171
-236.859	-98.121	-0.066	0.017
-235.844	268.682	0.019	0.033
-234.830	-200.000	0.299	-0.001
-233.815	800.000	-0.059	-0.238
-232.800	373.159	0.100	-0.202
-231.786	-200.000	0.006	0.244
-230.771	-144.065	0.405	-0.038
-229.757	295.809	-0.278	0.505
-228.742	-118.292	0.096	-0.017
-227.727	800.000	0.011	-0.036
-226.713	-20.055	0.160	-0.098
-225.698	-200.000	-0.029	0.222
-224.684	45.812	-0.105	0.096
-223.669	-63.440	-0.322	-0.131
-222.655	63.460	-0.123	-0.122
-221.640	65.175	0.038	-0.038
-220.625	542.837	0.026	-0.061
-219.611	104.773	-0.266	0.310
-218.596	68.403	-0.279	0.283
-217.582	246.672	0.135	0.225
-216.567	-167.919	-0.405	0.016
-215.552	597.552	-0.035	-0.086
-214.538	147.712	-0.032	-0.043
-213.523	800.000	-0.015	-0.061
-212.509	484.592	0.121	0.272
-211.494	53.555	-0.066	0.063
-210.479	-74.094	-0.222	0.080
-209.465	-200.000	-0.050	0.377
-208.450	-200.000	-0.039	0.327
-207.436	719.587	-0.010	0.025
-206.421	140.389	0.173	0.225
-205.406	800.000	0.092	0.282
-204.392	-165.007	-0.533	-0.023
-203.377	214.217	0.028	0.043
-202.363	-17.325	-0.276	-0.172
-201.348	-40.755	0.129	-0.066
-200.333	161.902	-0.135	0.186
-199.319	-173.074	0.280	0.009
-198.304	-76.824	0.272	0.094
-197.290	739.240	-0.117	0.309
-196.275	-200.000	-0.045	0.373
-195.260	-21.350	0.335	-0.202
-194.246	92.287	-0.139	0.155
-193.231	307.619	-0.209	-0.385
-192.217	-152.188	-0.067	-0.005
-191.202	-73.931	0.336	-0.121
-190.187	-99.786	0.137	0.034
-189.173	239.756	-0.022	-0.036
-188.158	800.000	0.057	0.166
-187.144	622.756	-0.183	-0.454
-186.129	800.000	0.093	0.325
-185.114	418.372	-0.054	-0.114
-184.100	496.183	-0.132	0.301
-183.085	-95.504	0.247	-0.065
-182.071	-181.444	0.131	-0.003
-181.056	-113.738	0.099	-0.019
-180.042	-93.567	0.074	0.020
-179.027	68.092	0.125	-0.126
-178.012	-200.000	-0.043	0.225
-176.998	-200.000	-0.074	0.513
-175.983	17.751	0.217	-0.171
-174.969	-84.845	-0.331	-0.103
-173.954	151.595	0.205	0.276
-172.939	149.265	-0.133	-0.178
-171.925	-200.000	0.029	-0.177
-170.910	272.575	-0.048	0.084
-169.896	-33.719	-0.195	-0.106
-168.881	51.327	-0.138	-0.129
-167.866	-64.158	-0.232	-0.094
-166.852	116.680	0.187	0.226
-165.837	6.850	-0.253	-0.186
-164.823	-200.000	0.048	-0.397
-163.808	-134.934	-0.120	-0.014
-162.793	-200.000	-0.050	-0.655
-161.779	-24.021	-0.135	-0.080
-160.764	168.189	0.159	-0.224
-159.750	149.472	-0.181	-0.242
-158.735	92.378	-0.079	0.088
-157.720	-30.263	-0.047	0.026
-156.706	800.000	-0.081	-0.316
-155.691	283.927	0.211	0.375
-154.677	-35.939	0.165	0.088
-153.662	86.321	-0.022	-0.023
-152.647	88.301	0.158	0.173
-151.633	800.000	-0.093	-0.294
-150.618	-70.524	0.182	-0.068
-149.604	-163.970	-0.297	0.014
-148.589	-200.000	-0.008	-0.165
-147.574	-111.551	-0.398	-0.080
-146.560	-32.559	-0.080	-0.044
-145.545	-109.726	0.248	-0.051
-144.531	195.556	0.058	0.087
-143.516	800.000	0.013	0.039
-142.502	161.050	0.242	-0.333
-141.487	4.270	-0.138	-0.099
-140.472	280.680	-0.185	-0.326
-139.458	-200.000	-0.026	-0.234
-138.443	173.258	-0.182	-0.259
-137.429	-200.000	-0.000	0.101
-136.414	-200.000	-0.038	-0.199
-135.399	-200.000	0.006	-0.179
-134.385	-183.978	-0.092	0.002
-133.370	-70.968	-0.189	0.070
-132.356	100.187	0.054	-0.062
-131.341	-200.000	-0.015	-0.180
-130.326	-200.000	-0.010	-0.170
-129.312	800.000	0.088	-0.297
-128.297	-200.000	0.021	-0.266
-127.283	800.000	-0.038	-0.116
-126.268	-6.989	0.101	0.068
-125.253	103.183	0.089	0.103
-124.239	-45.321	-0.153	0.075
-123.224	800.000	-0.087	0.274
-122.210	-104.189	0.408	0.093
-121.195	-109.289	0.336	-0.070
-120.180	18.943	0.104	0.082
-119.166	45.624	-0.262	0.238
-118.151	-82.804	0.220	-0.070
-117.137	800.000	-0.022	-0.061
-116.122	-19.203	-0.139	-0.085
-115.107	184.681	0.109	0.159
-114.093	-47.129	0.118	-0.057
-113.078	-149.456	0.346	0.027
-112.064	-95.852	0.214	0.056
-111.049	110.577	-0.104	0.124
-110.034	28.417	-0.092	-0.076
-109.020	39.860	0.256	-0.227
-108.005	-200.000	0.000	-0.090
-106.991	-111.986	0.450	0.089
-105.976	-1.596	-0.268	0.186
-104.962	-200.000	-0.040	-0.279
-103.947	-200.000	0.036	-0.253
-102.932	-200.000	-0.014	0.175
-101.918	668.825	0.078	0.199
-100.903	335.912	0.194	0.371
-99.889	-200.000	0.031	0.149
-98.874	209.226	-0.057	-0.087
-97.859	172.451	-0.104	-0.147
-96.845	-130.275	0.302	0.040
-95.830	564.897	-0.060	-0.143
-94.816	33.792	0.091	0.077
-93.801	-198.977	-0.131	-0.001
-92.786	-200.000	-0.027	-0.233
-91.772	-200.000	0.047	-0.244
-90.757	-200.000	0.003	-0.065
-89.743	116.407	0.244	0.294
-88.728	-65.095	0.252	-0.100
-87.713	-200.000	-0.027	-0.157
-86.699	68.862	0.265	0.268
-85.684	12.374	0.175	-0.133
-84.670	-146.321	-0.303	0.026
-83.655	800.000	0.079	-0.225
-82.640	-33.466	0.086	-0.047
-81.626	-200.000	-0.019	-0.160
-80.611	-115.054	-0.153	0.028
-79.597	1.540	0.040	0.028
-78.582	-52.578	0.318	0.145
-77.567	146.592	0.272	0.359
-76.553	-131.961	0.296	0.038
-75.538	800.000	0.102	-0.369
-74.524	-200.000	-0.063	-0.292
-73.509	739.057	0.034	-0.091
-72.494	-45.562	-0.199	-0.097
-71.480	78.219	0.168	-0.176
-70.465	-169.703	0.187	0.007
-69.451	39.541	-0.290	-0.256
-68.436	622.381	0.080	0.199
-67.422	-17.800	-0.245	0.151
-66.407	450.161	-0.048	-0.105
-65.392	172.180	0.106	-0.150
-64.378	-103.181	0.063	0.015
-63.363	-200.000	-0.018	-0.199
-62.349	800.000	-0.183	-0.624
-61.334	86.349	-0.995	-1.077
-60.319	29.438	0.678	0.566
-59.305	407.173	-0.562	-1.167
-58.290	251.107	0.782	1.307
-57.276	564.352	0.595	1.416
-56.261	-200.000	106.796	581.522
-55.246	451.087	1466.616	3182.525
-54.232	148.487	2649.791	3516.376
-53.217	106.659	2157.005	2514.371
-52.203	41.207	1605.443	1425.662
-51.188	33.226	1344.357	1145.674
-50.173	30.169	1303.586	1092.899
-49.159	53.636	1356.247	1278.746
-48.144	54.295	1372.045	1297.548
-47.130	33.366	1327.631	1132.078
-46.115	30.036	1309.394	1096.804
-45.100	29.754	1304.670	1091.145
-44.086	29.712	1302.610	1089.129
-43.071	29.760	1299.723	1086.954
-42.057	29.584	1298.104	1084.521
-41.042	29.716	1296.161	1083.632
-40.027	29.738	1294.751	1082.536
-39.013	29.598	1292.938	1080.160
-37.998	29.720	1290.856	1079.093
-36.984	29.703	1288.967	1077.370
-35.969	29.645	1288.128	1076.289
-34.954	29.817	1285.592	1075.125
-33.940	29.747	1284.878	1074.081
-32.925	29.820	1283.630	1073.420
-31.911	29.830	1282.129	1072.175
-30.896	29.871	1280.446	1070.963
-29.881	29.872	1279.340	1070.006
-28.867	29.756	1277.849	1068.041
-27.852	29.891	1276.644	1067.773
-26.838	29.906	1275.066	1066.494
-25.823	29.859	1273.667	1065.015
-24.809	29.907	1272.043	1063.892
-23.794	29.845	1271.003	1062.621
-22.779	29.897	1269.731	1061.815
-21.765	29.831	1268.882	1060.687
-20.750	29.858	1267.074	1059.285
-19.736	29.817	1265.749	1057.898
-18.721	29.695	1265.011	1056.543
-17.706	29.791	1263.414	1055.719
-16.692	29.688	1262.581	1054.393
-15.677	29.671	1261.454	1053.314
-14.663	29.872	1259.987	1053.187
-13.648	29.736	1259.220	1051.734
-12.633	29.701	1258.046	1050.514
-11.619	29.711	1257.410	1049.995
-10.604	29.729	1256.297	1049.125
-9.590	29.731	1255.684	1048.587
-8.575	29.513	1254.697	1046.485
-7.560	29.775	1253.276	1046.737
-6.546	29.693	1252.900	1045.919
-5.531	29.771	1252.164	1045.706
-4.517	29.758	1250.866	1044.508
-3.502	29.786	1250.361	1044.203
-2.487	29.648	1249.391	1042.569
-1.473	29.749	1245.127	1039.537
-0.458	28.288	1230.581	1019.229
0.556	23.263	1213.996	983.951
1.571	19.730	1220.987	969.746
2.586	18.983	1235.992	977.334
3.600	18.920	1224.600	967.886
4.615	13.752	1152.274	883.194
5.629	4.750	1074.873	778.911
6.644	0.473	1054.896	743.326
7.659	0.035	1053.107	739.847
8.673	0.036	1051.777	738.849
9.688	-0.023	1050.668	737.717
10.702	0.238	1048.621	737.491
11.717	5.499	1055.633	768.237
12.731	14.217	1066.747	819.347
13.746	17.625	1070.408	838.898
14.761	17.054	1068.963	834.879
15.775	15.884	1067.544	827.948
16.790	14.905	1065.258	821.297
17.804	14.318	1063.740	817.172
18.819	13.998	1062.067	814.248
19.834	13.641	1061.149	811.725
20.848	13.365	1060.882	810.095
21.863	13.287	1059.569	808.643
22.877	13.085	1058.743	806.953
23.892	13.056	1058.050	806.212
24.907	13.136	1057.532	806.134
25.921	13.040	1056.919	805.130
26.936	13.113	1056.030	804.734
27.950	13.110	1054.958	803.831
28.965	13.222	1053.659	803.317
29.980	13.273	1052.207	802.387
30.994	13.245	1051.713	801.803
32.009	13.251	1050.363	800.731
33.023	13.297	1049.559	800.269
34.038	13.177	1048.480	798.797
35.053	13.248	1047.829	798.575
36.067	13.229	1046.631	797.500
37.082	13.226	1045.796	796.779
38.096	13.088	1045.966	796.171
39.111	13.160	1044.452	795.293
40.126	13.127	1043.297	794.184
41.140	13.070	1042.458	793.204
42.155	12.907	1041.577	791.678
43.169	12.908	1040.548	790.835
44.184	12.977	1039.241	790.101
45.199	12.972	1037.979	789.047
46.213	13.060	1037.074	788.709
47.228	13.011	1036.301	787.816
48.242	13.062	1034.547	786.656
49.257	12.952	1033.983	785.636
50.271	13.085	1033.207	785.607
51.286	13.210	1031.985	785.203
52.301	13.234	1030.814	784.356
53.315	13.084	1030.155	783.078
54.330	13.064	1028.861	781.927
55.344	13.154	1028.170	781.761
56.359	13.156	1027.076	780.867
57.374	13.112	1026.447	780.111
58.388	13.000	1025.740	778.977
59.403	12.955	1024.560	777.802
60.417	12.972	1024.460	777.738
61.432	12.947	1023.339	776.697
62.447	12.977	1022.258	775.953
63.461	12.880	1021.302	774.698
64.476	12.936	1020.617	774.375
65.490	12.899	1020.259	773.862
66.505	13.042	1018.964	773.479
67.520	13.005	1018.772	773.095
68.534	12.987	1018.074	772.409
69.549	12.928	1017.390	771.546
70.563	12.959	1016.492	770.945
71.578	12.998	1015.666	770.432
72.593	12.974	1014.604	769.445
73.607	12.901	1014.328	768.826
74.622	12.848	1013.478	767.869
75.636	12.810	1013.116	767.347
76.651	12.894	1012.215	766.990
77.666	12.941	1011.648	766.708
78.680	12.964	1011.188	766.401
79.695	12.946	1010.398	765.651
80.709	12.813	1010.198	764.814
81.724	12.931	1009.697	764.913
82.739	13.033	1008.286	764.249
83.753	13.113	1007.737	764.137
84.768	13.245	1006.692	763.886
85.782	13.300	1005.556	763.209
86.797	13.277	1004.920	762.556
87.812	13.232	1003.723	761.373
88.826	13.163	1003.033	760.461
89.841	13.235	1002.150	760.056
90.855	13.254	1001.085	759.272
91.870	13.313	1000.125	758.747
92.884	13.162	999.853	757.780
93.899	13.202	998.776	757.081
94.914	13.266	998.215	756.882
95.928	13.215	997.457	756.005
96.943	13.152	996.817	755.166
97.957	13.336	995.564	754.990
98.972	13.297	995.090	754.385
99.987	13.269	994.107	753.445
101.001	13.203	993.038	752.267
102.016	13.192	992.103	751.441
103.030	13.271	991.497	751.276
104.045	13.154	991.476	750.661
105.060	13.153	989.956	749.442
106.074	13.163	988.890	748.612
107.089	13.051	988.114	747.450
108.103	13.048	987.093	746.602
109.118	13.168	985.979	746.231
110.133	13.067	985.240	745.152
111.147	12.995	984.445	744.159
112.162	13.058	983.589	743.732
113.176	13.138	983.094	743.650
114.191	13.324	982.034	743.622
115.206	13.164	981.251	742.241
116.220	13.131	980.677	741.594
117.235	12.993	979.602	740.098
118.249	13.155	978.847	740.187
119.264	13.122	978.030	739.354
120.279	13.108	977.483	738.813
121.293	13.104	975.961	737.583
122.308	13.187	975.367	737.436
123.322	13.142	974.450	736.477
124.337	13.089	973.203	735.234
125.352	13.067	972.704	734.695
126.366	13.070	971.413	733.670
127.381	13.108	970.569	733.135
128.395	13.148	969.354	732.331
129.410	13.083	968.882	731.622
130.424	13.122	968.209	731.218
131.439	13.114	967.281	730.419
132.454	13.249	966.379	730.269
133.468	13.236	965.298	729.332
134.483	13.147	964.940	728.603
135.497	13.212	963.901	728.039
136.512	13.245	963.014	727.449
137.527	13.174	961.974	726.287
138.541	13.199	961.317	725.837
139.556	13.168	960.961	725.372
140.570	13.241	959.853	724.791
141.585	13.405	958.671	724.551
142.600	13.301	958.064	723.574
143.614	13.396	957.494	723.495
144.629	13.350	956.476	722.460
145.643	13.293	956.019	721.801
146.658	13.211	954.787	720.451
147.673	13.248	953.974	719.936
148.687	13.245	952.944	719.078
149.702	13.123	952.345	718.035
150.716	13.164	951.763	717.709
151.731	13.279	950.836	717.445
152.746	13.239	950.297	716.804
153.760	13.328	949.365	716.421
154.775	13.391	948.969	716.332
155.789	13.401	948.122	715.671
156.804	13.440	947.299	715.158
157.819	13.400	946.840	714.573
158.833	13.421	946.344	714.226
159.848	13.294	945.747	713.166
160.862	13.402	944.480	712.614
161.877	13.431	943.313	711.794
162.892	13.361	942.267	710.639
163.906	13.307	941.749	709.954
164.921	13.409	940.629	709.487
165.935	13.375	939.976	708.785
166.950	13.471	938.925	708.339
167.964	13.499	937.984	707.689
168.979	13.384	937.497	706.764
169.994	13.383	936.528	705.970
171.008	13.454	936.021	705.828
172.023	13.537	935.421	705.664
173.037	13.464	934.465	704.573
174.052	13.552	933.499	704.155
175.067	13.476	932.772	703.222
176.081	13.395	932.530	702.631
177.096	13.474	932.009	702.512
178.110	13.596	931.282	702.419
179.125	13.411	930.883	701.274
180.140	13.646	930.122	701.634
181.154	13.697	929.784	701.533
182.169	13.655	929.192	700.847
183.183	13.620	928.623	700.205
184.198	13.677	927.749	699.724
185.213	13.773	927.195	699.649
186.227	13.773	926.263	698.885
187.242	13.819	925.638	698.546
188.256	13.752	925.134	697.822
189.271	13.678	924.402	696.897
190.286	13.723	923.445	696.301
191.300	13.636	922.823	695.408
192.315	13.476	922.459	694.399
193.329	13.522	921.912	694.120
194.344	13.663	921.290	694.182
195.359	13.654	920.727	693.658
196.373	13.784	919.837	693.467
197.388	13.770	919.646	693.204
198.402	14.019	918.781	693.530
199.417	13.940	918.285	692.766
200.432	13.981	917.839	692.538
201.446	13.827	917.521	691.596
202.461	14.029	916.932	691.931
203.475	14.015	916.221	691.276
204.490	13.894	915.394	690.088
205.504	13.773	915.080	689.288
206.519	13.957	913.608	688.883
207.534	13.899	913.140	688.227
208.548	13.968	912.471	687.949
209.563	13.956	911.906	687.409
210.577	13.930	911.219	686.724
211.592	13.970	910.954	686.630
212.607	14.162	909.961	686.610
213.621	14.159	909.014	685.824
214.636	14.135	908.286	685.117
215.650	14.123	907.901	684.717
216.665	14.021	907.234	683.734
217.680	14.169	906.687	683.870
218.694	14.237	905.977	683.550
219.709	14.204	905.001	682.621
220.723	14.251	904.123	682.089
221.738	14.173	903.496	681.235
222.753	14.204	903.204	681.082
223.767	14.298	902.551	680.915
224.782	14.285	902.036	680.412
225.796	14.180	901.295	679.365
226.811	14.274	900.557	679.132
227.826	14.293	899.870	678.631
228.840	14.216	899.471	677.956
229.855	14.302	898.212	677.298
230.869	14.247	897.351	676.364
231.884	14.210	897.177	676.024
232.899	14.338	896.169	675.725
233.913	14.147	895.929	674.707
234.928	14.250	894.702	674.141
235.942	14.131	894.904	673.751
236.957	14.216	894.058	673.399
237.972	14.229	892.817	672.459
238.986	14.278	892.225	672.148
240.001	14.376	891.758	672.133
241.015	14.347	891.435	671.716
242.030	14.377	890.618	671.158
243.045	14.428	890.451	671.182
244.059	14.321	889.700	670.123
245.074	14.401	889.424	670.180
246.088	14.563	887.995	669.694
247.103	14.594	887.559	669.430
248.117	14.435	887.608	668.770
249.132	14.575	886.720	668.602
250.147	14.590	886.133	668.160
251.161	14.685	885.174	667.757
252.176	14.686	884.634	667.295
253.190	14.708	884.103	666.923
254.205	14.783	883.283	666.548
255.220	14.844	882.466	666.112
256.234	14.808	882.083	665.622
257.249	14.734	881.476	664.809
258.263	14.773	880.824	664.414
259.278	14.888	879.666	663.941
260.293	14.935	879.408	663.871
261.307	14.918	878.824	663.305
262.322	14.913	878.385	662.896
263.336	14.971	877.708	662.557
264.351	14.992	876.715	661.829
265.366	15.007	876.217	661.453
266.380	15.098	875.508	661.221
267.395	14.936	875.025	660.157
268.409	14.970	874.283	659.673
269.424	14.861	873.680	658.730
270.439	15.025	872.964	658.778
271.453	14.940	872.463	658.007
272.468	14.938	871.776	657.422
273.482	15.047	871.376	657.494
274.497	14.928	870.741	656.489
275.512	15.022	869.869	656.141
276.526	15.108	869.618	656.232
277.541	15.130	869.139	655.896
278.555	15.093	868.653	655.329
279.570	15.198	867.950	655.150
280.585	15.079	867.550	654.324
281.599	15.089	866.598	653.588
282.614	15.109	865.820	653.022
283.628	15.112	865.652	652.850
284.643	15.209	864.461	652.269
285.657	15.231	864.070	652.005
286.672	15.245	863.437	651.521
287.687	15.287	862.844	651.180
288.701	15.219	862.442	650.554
289.716	15.233	862.350	650.483
290.730	15.168	861.337	649.410
291.745	15.321	860.695	649.462
292.760	15.292	860.076	648.825
293.774	15.421	859.286	648.667
294.789	15.366	858.509	647.814
295.803	15.327	858.021	647.237
296.818	15.367	857.121	646.653
297.833	15.440	856.322	646.276
298.847	15.552	855.713	646.188
299.862	15.348	855.426	645.129
300.876	15.359	855.230	644.968
301.891	15.469	854.274	644.611
302.906	15.545	854.150	644.753
303.920	15.672	853.417	644.630
304.935	15.548	852.997	643.780
305.949	15.629	852.191	643.424
306.964	15.440	851.764	642.325
307.979	15.580	851.106	642.307
308.993	15.671	850.545	642.174
310.008	15.649	850.019	641.633
311.022	15.672	849.510	641.283
312.037	15.643	848.868	640.628
313.052	15.689	848.242	640.276
314.066	15.680	847.111	639.330
315.081	15.612	847.139	639.038
316.095	15.595	846.331	638.307
317.110	15.628	845.794	637.972
318.125	15.626	845.546	637.719
319.139	15.659	844.824	637.242
320.154	15.608	844.841	637.007
321.168	15.737	844.004	636.807
322.183	15.761	843.576	636.518
323.197	15.826	842.745	636.080
324.212	15.664	842.359	635.121
325.227	15.752	841.695	634.896
326.241	15.668	841.166	634.126
327.256	15.825	840.569	634.212
328.270	15.779	840.273	633.756
329.285	15.715	839.475	632.858
330.300	15.608	838.657	631.785
331.314	15.729	838.249	631.875
332.329	15.767	838.156	631.894
333.343	15.779	837.415	631.322
334.358	15.857	837.189	631.389
335.373	15.850	836.625	630.880
336.387	15.939	836.157	630.808
337.402	15.935	836.129	630.714
338.416	15.994	835.654	630.523
339.431	16.023	835.381	630.369
340.446	16.098	834.725	630.098
341.460	16.134	834.315	629.865
342.475	16.192	833.607	629.494
343.489	16.182	833.564	629.367
344.504	16.168	833.121	628.925
345.519	16.241	832.329	628.545
346.533	16.109	832.292	627.967
347.548	16.141	831.510	627.443
348.562	16.106	831.208	627.026
349.577	16.199	830.429	626.731
350.592	16.110	829.934	625.969
351.606	16.123	829.042	625.291
352.621	16.158	828.345	624.838
353.635	16.182	827.817	624.475
354.650	16.250	827.164	624.180
355.665	16.409	826.535	624.236
356.679	16.322	826.053	623.496
357.694	16.347	825.223	622.905
358.708	16.339	824.882	622.565
359.723	16.233	824.424	621.774
360.738	16.293	823.655	621.358
361.752	16.247	823.519	621.032
362.767	16.491	822.576	621.163
363.781	16.349	822.011	620.159
364.796	16.356	821.644	619.851
365.810	16.505	820.883	619.771
366.825	16.628	820.732	620.051
367.840	16.420	820.309	618.917
368.854	16.409	819.789	618.428
369.869	16.496	819.539	618.504
370.883	16.467	819.047	617.972
371.898	16.609	818.818	618.264
372.913	16.652	818.038	617.776
373.927	16.577	817.547	617.077
374.942	16.633	817.117	616.902
375.956	16.614	816.795	616.537
376.971	16.555	816.294	615.890
377.986	16.630	816.044	615.918
379.000	16.779	815.660	616.115
380.015	16.788	814.921	615.535
381.029	16.736	814.393	614.894
382.044	16.768	813.948	614.619
383.059	16.737	813.338	613.991
384.073	16.813	812.643	613.687
385.088	16.776	812.093	613.085
386.102	16.940	811.156	612.915
387.117	16.960	810.574	612.494
388.132	16.835	810.081	611.616
389.146	16.833	809.742	611.298
390.161	16.857	809.443	611.107
391.175	16.879	808.860	610.690
392.190	16.799	808.567	610.127
393.205	16.817	807.882	609.622
394.219	16.754	807.812	609.288
395.234	16.845	807.295	609.172
396.248	16.822	806.672	608.566
397.263	16.727	806.426	607.984
398.278	16.768	805.850	607.644
399.292	16.773	805.736	607.520
400.307	16.810	805.184	607.183
401.321	16.848	804.504	606.752
402.336	16.946	803.683	606.429
403.350	16.967	803.433	606.263
404.365	16.878	803.148	605.675
405.380	17.053	802.702	605.910
406.394	16.990	802.191	605.247
407.409	17.204	801.562	605.481
408.423	17.170	801.345	605.142
409.438	17.153	801.101	604.844
410.453	17.064	800.758	604.214
411.467	17.285	799.935	604.327
412.482	17.358	799.579	604.264
413.496	17.285	799.414	603.828
414.511	17.451	799.023	604.066
415.526	17.265	798.694	603.104
416.540	17.250	798.028	602.494
417.555	17.271	797.837	602.372
418.569	17.191	797.253	601.594
419.584	17.320	796.872	601.712
420.599	17.336	796.413	601.368
421.613	108.682	1292.491	1468.491
422.628	93.386	1364.758	1468.615
