DTS Sentinel unit serial number:	SN413079Multiplexer serial number:	ORYXHardware model number:	OX4-SRSoftware version number:	ORYX F/W v4.00 Oryx Data Collector v3.7.2.0data status	okinstallation	princeton_trtdifferential loss correction	single-endedforward channel	channel 1reverse channel	N/Adate	2019/09/16time	05:38:35forward acquisition time	60.00reverse acquisition time	0.00gamma	496.2192k internal	0.2331k external	0.2331temperature offset calibration	0.9986default loss term (dB/km)	0.3790temperature slope calibration	1.0000multiplexer offset coefficient	1.0000multiplexer slope coefficient	1.0000fibre end	0.00T internal ref (°C)	27.31T ext. ref 1 (°C)	11.15T ext. ref 2 (°C)	22.12length (m)	temperature (°C)	Stokes	anti-Stokes-747.200	143.231	-0.116	-0.155
-746.185	-200.000	-0.045	0.682
-745.171	151.941	0.216	0.296
-744.156	-79.714	-0.382	-0.129
-743.142	800.000	0.134	-0.426
-742.127	0.006	-0.129	-0.092
-741.112	800.000	-0.073	0.269
-740.098	800.000	-0.150	0.423
-739.083	-142.640	-0.385	-0.038
-738.069	274.001	-0.152	0.270
-737.054	159.573	-0.236	0.330
-736.039	129.154	-0.175	-0.225
-735.025	158.326	-0.156	0.218
-734.010	155.949	0.107	-0.148
-732.996	-182.495	-0.233	-0.004
-731.981	-13.911	-0.091	0.059
-730.966	67.791	-0.181	-0.186
-729.952	-105.016	0.281	-0.065
-728.937	-3.006	-0.172	-0.121
-727.923	38.066	-0.226	-0.202
-726.908	-76.309	-0.300	0.106
-725.894	207.631	-0.109	0.172
-724.879	-89.779	0.140	0.041
-723.864	211.660	-0.158	-0.250
-722.850	128.103	-0.134	-0.171
-721.835	800.000	-0.065	0.194
-720.821	50.736	0.222	-0.211
-719.806	40.434	-0.093	-0.084
-718.791	226.966	0.036	-0.058
-717.777	-200.000	0.012	0.124
-716.762	50.857	-0.298	-0.284
-715.748	338.538	0.142	0.278
-714.733	44.560	-0.145	0.134
-713.718	565.039	0.113	0.277
-712.704	-20.139	-0.520	0.322
-711.689	-137.511	0.086	0.010
-710.675	-80.283	-0.320	0.108
-709.660	345.730	0.137	-0.271
-708.645	742.968	0.056	0.151
-707.631	-200.000	0.026	-0.139
-706.616	69.996	0.170	-0.176
-705.602	-200.000	-0.061	-0.312
-704.587	800.000	-0.082	0.252
-703.572	-200.000	0.005	-0.032
-702.558	-22.114	-0.146	-0.089
-701.543	101.825	0.191	0.224
-700.529	-19.868	-0.285	0.177
-699.514	-200.000	-0.017	-0.417
-698.499	13.826	0.251	-0.196
-697.485	-81.815	0.153	0.050
-696.470	-200.000	-0.028	0.193
-695.456	-76.427	-0.387	0.137
-694.441	800.000	0.113	-0.355
-693.426	-73.575	0.068	-0.025
-692.412	-200.000	0.012	-0.182
-691.397	-192.519	-0.239	-0.002
-690.383	18.555	0.104	0.083
-689.368	-200.000	0.036	0.186
-688.354	157.832	0.109	0.152
-687.339	78.310	0.193	0.207
-686.324	-120.080	-0.074	0.013
-685.310	-200.000	-0.012	0.321
-684.295	132.589	-0.049	0.064
-683.281	-200.000	-0.319	0.000
-682.266	-127.808	-0.155	0.022
-681.251	-181.399	0.271	0.005
-680.237	112.179	0.275	-0.334
-679.222	-200.000	0.070	0.312
-678.208	278.456	-0.036	0.064
-677.193	-200.000	-0.018	0.251
-676.178	10.902	-0.231	0.177
-675.164	-63.480	-0.224	-0.092
-674.149	218.903	-0.128	-0.205
-673.135	800.000	-0.015	0.055
-672.120	-38.612	0.249	0.132
-671.105	40.844	0.198	-0.179
-670.091	-200.000	0.026	0.170
-669.076	-34.361	0.161	-0.088
-668.062	54.591	0.322	-0.312
-667.047	-97.441	0.148	0.039
-666.032	-5.508	-0.436	-0.300
-665.018	-102.121	0.106	0.026
-664.003	-200.000	0.009	0.199
-662.989	-131.523	-0.376	0.050
-661.974	-200.000	-0.020	-0.164
-660.959	-200.000	-0.031	-0.235
-659.945	39.906	-0.171	-0.154
-658.930	-200.000	0.004	-0.024
-657.916	-26.841	0.344	0.202
-656.901	13.326	0.293	-0.228
-655.886	633.838	-0.030	-0.075
-654.872	46.543	-0.073	0.068
-653.857	21.711	0.043	0.035
-652.843	377.114	0.032	-0.065
-651.828	-20.477	0.354	0.219
-650.814	56.120	-0.125	0.122
-649.799	2.548	-0.053	-0.039
-648.784	-48.181	-0.159	-0.077
-647.770	140.413	0.218	0.288
-646.755	-200.000	0.042	0.210
-645.741	576.758	0.093	0.229
-644.726	-136.608	0.447	-0.052
-643.711	-153.884	-0.143	-0.010
-642.697	-36.324	-0.075	-0.041
-641.682	37.557	-0.081	0.072
-640.668	-25.673	-0.149	0.088
-639.653	45.173	-0.081	0.075
-638.638	-200.000	0.004	-0.047
-637.624	-200.000	0.103	0.470
-636.609	-200.000	-0.003	0.208
-635.595	93.733	-0.217	-0.247
-634.580	87.598	0.290	-0.321
-633.565	373.952	0.051	0.104
-632.551	280.502	-0.065	-0.117
-631.536	-126.066	-0.117	0.018
-630.522	170.133	-0.019	-0.028
-629.507	-200.000	0.008	0.069
-628.492	572.742	0.089	0.217
-627.478	-200.000	-0.017	0.196
-626.463	147.740	-0.169	-0.228
-625.449	5.808	0.153	0.113
-624.434	-200.000	0.045	-0.294
-623.419	-200.000	-0.015	0.084
-622.405	288.050	-0.040	-0.072
-621.390	210.854	-0.098	-0.154
-620.376	-200.000	-0.029	0.164
-619.361	221.030	-0.165	0.265
-618.346	-125.211	-0.193	-0.030
-617.332	-113.396	-0.219	0.043
-616.317	-140.687	-0.305	0.032
-615.303	-200.000	-0.007	-0.097
-614.288	-86.157	0.492	0.152
-613.273	49.324	-0.105	-0.099
-612.259	800.000	-0.105	-0.321
-611.244	-91.199	-0.422	-0.121
-610.230	-76.724	-0.124	-0.044
-609.215	-200.000	-0.001	-0.264
-608.201	-113.307	-0.118	-0.023
-607.186	800.000	-0.087	0.346
-606.171	-200.000	0.007	-0.249
-605.157	-200.000	-0.027	-0.156
-604.142	-62.371	-0.324	-0.135
-603.128	-200.000	-0.009	0.315
-602.113	800.000	-0.095	0.326
-601.098	572.268	-0.042	-0.103
-600.084	-192.636	-0.226	-0.002
-599.069	-147.165	-0.165	0.014
-598.055	-200.000	0.002	-0.057
-597.040	-139.115	-0.240	-0.026
-596.025	46.911	-0.103	-0.095
-595.011	-200.000	0.095	-0.491
-593.996	619.337	-0.162	0.406
-592.982	-200.000	-0.026	0.135
-591.967	740.227	0.082	-0.221
-590.952	-146.209	0.312	0.027
-589.938	-57.447	0.299	-0.131
-588.923	-52.865	0.113	0.052
-587.909	-34.996	-0.186	0.102
-586.894	395.842	-0.042	0.089
-585.879	-49.746	-0.249	-0.118
-584.865	467.081	0.105	-0.235
-583.850	278.177	-0.094	0.167
-582.836	17.361	0.056	0.045
-581.821	94.120	-0.179	-0.203
-580.806	152.205	0.099	-0.135
-579.792	-200.000	0.043	-0.282
-578.777	-38.329	-0.233	-0.123
-577.763	-129.310	-0.083	0.012
-576.748	84.668	0.052	-0.057
-575.733	800.000	-0.002	-0.007
-574.719	110.969	0.175	0.211
-573.704	3.581	-0.244	0.178
-572.690	-43.635	-0.131	0.066
-571.675	-91.180	-0.192	-0.055
-570.661	227.620	-0.161	0.261
-569.646	455.374	-0.107	-0.236
-568.631	-200.000	-0.001	0.023
-567.617	-112.848	-0.273	0.054
-566.602	159.988	0.079	0.110
-565.588	-200.000	-0.023	0.109
-564.573	-23.084	-0.104	-0.062
-563.558	-145.433	-0.122	-0.011
-562.544	453.925	0.094	-0.208
-561.529	-200.000	0.055	0.350
-560.515	-98.903	-0.105	-0.027
-559.500	800.000	-0.087	-0.357
-558.485	-15.323	0.121	-0.078
-557.471	-89.744	0.088	-0.026
-556.456	262.753	0.090	0.156
-555.442	26.282	-0.131	0.110
-554.427	800.000	-0.011	0.046
-553.412	-73.666	0.358	0.130
-552.398	-200.000	-0.022	0.112
-551.383	-200.000	-0.006	-0.100
-550.369	-167.496	-0.361	-0.014
-549.354	-200.000	-0.017	-0.238
-548.339	-135.783	-0.178	0.021
-547.325	-171.470	0.085	0.003
-546.310	-75.888	0.244	-0.086
-545.296	-46.854	-0.206	-0.100
-544.281	21.471	-0.364	-0.295
-543.266	-200.000	0.081	-0.467
-542.252	284.242	-0.162	0.291
-541.237	800.000	0.030	-0.102
-540.223	-5.389	-0.156	-0.107
-539.208	-108.315	0.169	0.036
-538.193	-65.879	0.191	0.076
-537.179	9.972	0.220	-0.167
-536.164	396.641	-0.065	-0.135
-535.150	800.000	-0.027	0.103
-534.135	-56.714	-0.404	-0.179
-533.121	-50.216	0.174	0.082
-532.106	79.643	0.382	-0.410
-531.091	263.600	0.179	0.311
-530.077	-147.622	0.166	-0.014
-529.062	-74.023	-0.211	-0.076
-528.048	132.594	-0.028	-0.036
-527.033	217.757	0.039	-0.063
-526.018	-121.677	0.070	-0.012
-525.004	-36.513	0.256	-0.138
-523.989	-88.235	-0.388	-0.116
-522.975	43.392	0.250	-0.228
-521.960	-200.000	0.010	0.103
-520.945	-200.000	0.019	-0.437
-519.931	-48.112	0.204	-0.098
-518.916	22.593	-0.116	-0.095
-517.902	-200.000	0.008	-0.259
-516.887	107.578	0.178	-0.212
-515.872	-200.000	-0.058	0.277
-514.858	121.506	-0.162	-0.202
-513.843	-200.000	-0.009	0.101
-512.829	90.183	0.185	0.207
-511.814	772.428	-0.131	-0.356
-510.799	-80.334	-0.051	-0.017
-509.785	-200.000	-0.033	0.151
-508.770	-4.951	0.293	-0.201
-507.756	102.490	-0.176	0.206
-506.741	-45.839	0.138	0.068
-505.726	106.844	-0.149	0.176
-504.712	177.449	0.206	0.300
-503.697	148.995	-0.083	-0.112
-502.683	-98.850	0.126	0.032
-501.668	-0.758	0.386	0.273
-500.653	16.203	-0.371	-0.292
-499.639	-50.794	0.040	0.019
-498.624	-25.360	0.337	-0.199
-497.610	-85.083	-0.075	-0.023
-496.595	-200.000	0.025	0.131
-495.581	336.786	-0.123	0.238
-494.566	321.129	-0.012	-0.022
-493.551	67.508	0.213	-0.217
-492.537	13.349	0.089	0.069
-491.522	-169.659	-0.131	0.005
-490.508	-200.000	0.012	0.159
-489.493	82.297	0.174	0.188
-488.478	-106.988	0.326	0.072
-487.464	800.000	0.008	-0.032
-486.449	51.597	-0.164	0.156
-485.435	28.473	0.092	-0.077
-484.420	-87.960	0.026	-0.008
-483.405	-200.000	-0.045	0.262
-482.391	38.690	0.189	0.168
-481.376	-200.000	0.056	0.343
-480.362	-200.000	0.003	-0.071
-479.347	800.000	-0.045	-0.169
-478.332	-192.402	-0.221	0.002
-477.318	-149.329	0.148	0.012
-476.303	216.724	-0.210	-0.333
-475.289	-200.000	0.023	0.268
-474.274	100.380	-0.256	-0.296
-473.259	-190.387	-0.179	-0.002
-472.245	800.000	0.100	0.331
-471.230	25.858	-0.217	-0.180
-470.216	-200.000	-0.011	-0.140
-469.201	-76.867	0.393	-0.137
-468.186	-106.647	0.104	-0.023
-467.172	-81.830	-0.111	-0.036
-466.157	-200.000	0.043	-0.321
-465.143	82.604	-0.173	-0.187
-464.128	-74.715	0.208	0.074
-463.113	-8.592	0.013	0.009
-462.099	108.169	-0.142	-0.168
-461.084	-59.058	0.051	0.022
-460.070	232.948	-0.127	0.208
-459.055	117.627	0.077	0.094
-458.040	235.134	-0.109	0.179
-457.026	800.000	0.092	-0.320
-456.011	528.841	-0.106	0.248
-454.997	189.928	0.080	0.120
-453.982	60.293	-0.186	0.183
-452.968	800.000	-0.023	-0.095
-451.953	-145.232	0.226	-0.020
-450.938	-32.994	0.309	-0.171
-449.924	800.000	-0.113	-0.481
-448.909	-112.425	-0.134	-0.027
-447.895	-19.596	0.216	-0.133
-446.880	800.000	-0.057	0.171
-445.865	-181.065	0.432	0.009
-444.851	-200.000	-0.005	-0.043
-443.836	-84.987	-0.453	-0.141
-442.822	-65.374	0.319	-0.128
-441.807	-83.203	-0.161	0.052
-440.792	489.938	0.038	0.086
-439.778	-200.000	0.007	0.481
-438.763	-200.000	-0.039	0.317
-437.749	800.000	-0.048	0.151
-436.734	-200.000	0.091	-0.419
-435.719	-15.057	-0.231	0.147
-434.705	-200.000	-0.039	0.345
-433.690	285.555	0.096	0.172
-432.676	172.802	-0.242	-0.347
-431.661	365.370	-0.183	-0.366
-430.646	-97.263	0.197	-0.051
-429.632	-106.576	-0.114	0.025
-428.617	800.000	0.078	0.291
-427.603	-98.487	-0.157	-0.040
-426.588	104.950	-0.125	-0.147
-425.573	28.843	-0.117	-0.098
-424.559	-47.950	0.101	0.048
-423.544	-61.353	-0.094	-0.039
-422.530	-200.000	-0.019	-0.151
-421.515	233.267	0.096	-0.157
-420.500	-167.109	-0.107	-0.004
-419.486	269.027	-0.150	-0.262
-418.471	47.731	-0.259	-0.240
-417.457	161.981	-0.166	-0.231
-416.442	-141.126	-0.256	-0.026
-415.428	-91.452	-0.113	0.032
-414.413	-200.000	0.001	0.192
-413.398	-200.000	0.021	-0.205
-412.384	10.595	-0.127	0.096
-411.369	-200.000	-0.023	0.209
-410.355	-45.259	-0.170	-0.084
-409.340	-33.250	0.139	-0.077
-408.325	-200.000	-0.006	-0.054
-407.311	800.000	-0.056	-0.155
-406.296	-12.631	0.350	0.227
-405.282	-200.000	0.050	0.298
-404.267	-29.264	0.232	-0.132
-403.252	-111.688	-0.141	0.028
-402.238	197.700	-0.201	-0.304
-401.223	-17.468	-0.242	0.151
-400.209	-200.000	0.063	0.426
-399.194	-42.067	-0.315	-0.160
-398.179	-107.361	-0.095	0.021
-397.165	17.763	-0.084	-0.067
-396.150	-25.284	0.042	0.024
-395.136	46.654	-0.325	-0.300
-394.121	234.066	-0.068	-0.111
-393.106	-45.673	0.174	0.086
-392.092	-171.773	-0.192	-0.006
-391.077	100.002	-0.143	-0.164
-390.063	-200.000	0.026	-0.165
-389.048	53.354	0.180	0.172
-388.033	-200.000	-0.004	-0.205
-387.019	-116.489	-0.063	-0.012
-386.004	-54.350	0.142	-0.064
-384.990	181.645	-0.086	-0.125
-383.975	101.752	-0.210	-0.243
-382.960	100.133	0.116	0.134
-381.946	228.378	0.109	-0.176
-380.931	800.000	0.077	-0.244
-379.917	800.000	0.062	0.197
-378.902	19.920	-0.291	-0.232
-377.888	-200.000	-0.020	0.141
-376.873	50.530	0.280	0.263
-375.858	-150.186	-0.203	-0.016
-374.844	24.043	-0.060	-0.049
-373.829	-79.748	0.101	-0.034
-372.815	-102.801	-0.121	0.029
-371.800	-200.000	-0.046	-0.300
-370.785	-200.000	0.266	0.001
-369.771	302.857	-0.080	-0.146
-368.756	-65.792	0.089	0.035
-367.742	248.018	0.050	0.084
-366.727	-113.697	0.077	0.015
-365.712	-200.000	0.065	0.313
-364.698	649.711	-0.039	0.098
-363.683	-84.190	0.235	0.074
-362.669	150.868	0.310	0.418
-361.654	-69.271	-0.137	-0.052
-360.639	-11.246	0.174	0.114
-359.625	161.337	0.158	-0.218
-358.610	-75.353	0.136	-0.048
-357.596	-200.000	-0.030	-0.142
-356.581	-106.148	-0.147	0.033
-355.566	-179.504	0.479	-0.010
-354.552	75.918	0.037	0.039
-353.537	-15.207	0.183	0.116
-352.523	-12.068	0.163	-0.106
-351.508	-167.687	-0.166	0.007
-350.493	-5.584	0.215	0.146
-349.479	244.682	0.105	-0.175
-348.464	-11.221	-0.242	-0.158
-347.450	21.555	0.315	-0.254
-346.435	-49.471	0.199	0.094
-345.420	223.278	0.293	-0.468
-344.406	-64.129	-0.256	-0.103
-343.391	-160.699	-0.191	0.010
-342.377	85.660	-0.198	0.215
-341.362	-73.866	0.354	-0.127
-340.348	-158.711	-0.096	0.005
-339.333	457.783	0.094	0.207
-338.318	-121.856	0.129	0.021
-337.304	-75.264	0.226	-0.080
-336.289	-104.174	0.248	0.057
-335.275	491.784	-0.098	-0.222
-334.260	138.571	0.055	0.071
-333.245	-107.843	-0.290	0.062
-332.231	-100.712	-0.166	-0.041
-331.216	32.311	0.021	-0.018
-330.202	-200.000	0.009	-0.043
-329.187	-200.000	0.042	-0.252
-328.172	-150.453	-0.225	-0.017
-327.158	253.314	0.167	-0.282
-326.143	-200.000	0.008	0.161
-325.129	107.332	0.050	0.059
-324.114	540.590	0.059	0.138
-323.099	-200.000	-0.051	-0.245
-322.085	-23.552	-0.373	-0.222
-321.070	-45.141	-0.110	0.054
-320.056	-200.000	-0.023	0.160
-319.041	13.261	-0.237	-0.182
-318.026	29.845	-0.152	-0.128
-317.012	45.166	-0.172	-0.157
-315.997	-199.039	0.137	0.001
-314.983	-143.989	0.027	-0.003
-313.968	134.545	-0.170	0.218
-312.953	136.465	-0.060	-0.078
-311.939	-165.481	-0.385	-0.017
-310.924	53.006	-0.212	0.200
-309.910	117.040	0.149	0.182
-308.895	800.000	-0.053	-0.211
-307.880	159.227	0.218	-0.300
-306.866	800.000	-0.052	-0.181
-305.851	23.138	-0.255	-0.207
-304.837	195.904	0.143	0.215
-303.822	800.000	0.061	0.236
-302.807	-51.916	-0.126	0.058
-301.793	24.803	0.280	0.229
-300.778	-200.000	-0.039	0.171
-299.764	-159.961	0.272	-0.015
-298.749	350.327	-0.113	-0.220
-297.735	570.899	0.085	0.205
-296.720	-200.000	-0.052	0.408
-295.705	7.551	-0.178	0.132
-294.691	188.430	-0.042	-0.063
-293.676	161.834	-0.087	0.121
-292.662	-136.247	-0.067	0.008
-291.647	3.182	-0.292	-0.210
-290.632	800.000	-0.061	0.177
-289.618	210.202	0.119	0.184
-288.603	135.797	0.122	0.157
-287.589	-162.226	0.382	-0.019
-286.574	311.509	0.051	-0.095
-285.559	-33.510	0.122	0.067
-284.545	-200.000	-0.017	-0.208
-283.530	-200.000	0.006	0.078
-282.516	-182.472	-0.301	0.005
-281.501	35.305	-0.314	0.272
-280.486	-127.783	0.597	0.085
-279.472	29.041	0.186	-0.156
-278.457	-97.982	-0.198	-0.050
-277.443	80.680	0.252	0.269
-276.428	770.228	-0.099	0.266
-275.413	-70.941	-0.053	0.020
-274.399	-200.000	-0.025	0.193
-273.384	-89.204	-0.248	-0.072
-272.370	-200.000	0.004	0.093
-271.355	193.190	0.044	0.066
-270.340	494.243	0.146	0.330
-269.326	-200.000	0.064	0.475
-268.311	-46.555	-0.116	-0.056
-267.297	-122.275	0.067	0.011
-266.282	97.559	-0.122	0.139
-265.267	-151.131	-0.190	0.014
-264.253	-59.898	-0.113	0.048
-263.238	625.794	-0.046	-0.115
-262.224	-79.112	-0.146	0.049
-261.209	738.367	0.082	0.217
-260.195	168.182	-0.194	0.273
-259.180	-124.112	-0.275	-0.043
-258.165	-200.000	-0.038	0.229
-257.151	-120.576	-0.151	0.025
-256.136	-113.734	-0.173	0.033
-255.122	-200.000	0.023	0.114
-254.107	606.240	0.095	-0.234
-253.092	165.707	0.125	0.174
-252.078	-72.935	0.132	0.048
-251.063	457.978	-0.103	-0.227
-250.049	-200.000	-0.013	-0.075
-249.034	133.949	0.121	-0.155
-248.019	5.780	0.307	-0.224
-247.005	-184.098	-0.244	-0.004
-245.990	-111.456	-0.205	-0.041
-244.976	120.371	0.159	0.195
-243.961	800.000	0.024	0.072
-242.946	-200.000	0.039	0.462
-241.932	-124.253	0.018	-0.003
-240.917	-200.000	0.050	0.254
-239.903	-116.667	0.115	0.021
-238.888	-148.846	0.150	0.012
-237.873	277.973	0.127	0.224
-236.859	6.767	-0.041	-0.030
-235.844	-29.003	-0.197	0.112
-234.830	77.595	-0.093	0.098
-233.815	167.627	-0.117	0.165
-232.800	86.169	0.143	-0.155
-231.786	261.352	0.094	-0.160
-230.771	160.306	0.070	-0.096
-229.757	800.000	-0.040	0.116
-228.742	-101.427	0.467	0.112
-227.727	17.634	0.142	0.111
-226.713	299.175	-0.142	-0.259
-225.698	-200.000	-0.038	-0.207
-224.684	470.634	-0.049	0.110
-223.669	-114.106	0.305	-0.058
-222.655	800.000	0.164	0.481
-221.640	116.978	0.172	0.208
-220.625	350.512	-0.067	0.130
-219.611	200.186	-0.110	0.167
-218.596	-200.000	-0.066	0.317
-217.582	200.925	0.096	0.146
-216.567	-200.000	-0.001	0.102
-215.552	57.595	0.092	-0.089
-214.538	-47.916	-0.137	-0.065
-213.523	-21.414	0.181	-0.109
-212.509	43.993	0.164	0.149
-211.494	-77.201	0.108	-0.037
-210.479	-112.777	-0.173	-0.034
-209.465	34.168	0.259	-0.223
-208.450	800.000	0.057	-0.186
-207.436	93.102	0.186	0.207
-206.421	-200.000	-0.003	0.062
-205.406	-58.280	0.150	0.064
-204.392	235.886	-0.161	-0.262
-203.377	-32.985	-0.172	-0.094
-202.363	-89.581	0.345	0.100
-201.348	-13.719	-0.285	0.182
-200.333	-200.000	0.029	-0.365
-199.319	-138.611	-0.102	0.011
-198.304	296.927	0.141	-0.255
-197.290	584.757	-0.056	-0.136
-196.275	-35.577	0.204	-0.109
-195.260	800.000	0.031	-0.104
-194.246	45.696	0.396	0.360
-193.231	-105.961	-0.327	0.073
-192.217	-200.000	0.052	-0.315
-191.202	-98.746	-0.313	0.078
-190.187	-153.388	0.186	0.013
-189.173	-142.331	-0.134	0.013
-188.158	800.000	-0.045	-0.129
-187.144	-85.243	0.150	0.046
-186.129	381.904	0.137	-0.278
-185.114	800.000	0.064	0.209
-184.100	263.834	0.168	-0.288
-183.085	141.150	0.167	-0.218
-182.071	-40.232	-0.384	0.197
-181.056	-109.425	-0.137	0.028
-180.042	248.117	0.151	0.252
-179.027	-95.042	0.507	0.135
-178.012	216.477	0.044	-0.068
-176.998	-66.813	0.339	0.132
-175.983	-200.000	-0.009	0.228
-174.969	399.526	-0.024	-0.050
-173.954	23.426	0.118	0.096
-172.939	32.992	-0.097	0.083
-171.925	193.825	0.087	-0.130
-170.910	312.962	0.044	0.081
-169.896	497.602	0.082	-0.186
-168.881	-78.976	-0.158	-0.053
-167.866	197.597	0.116	0.175
-166.852	212.289	-0.057	0.089
-165.837	-85.455	0.220	0.067
-164.823	-81.775	0.130	-0.042
-163.808	-84.677	0.437	0.135
-162.793	-82.934	0.151	-0.048
-161.779	37.382	0.133	0.116
-160.764	7.063	0.128	-0.094
-159.750	-140.457	-0.093	0.009
-158.735	713.791	0.107	-0.280
-157.720	-69.045	-0.290	0.110
-156.706	-200.000	0.035	-0.240
-155.691	499.375	0.091	-0.207
-154.677	80.947	0.233	0.247
-153.662	-200.000	-0.068	0.308
-152.647	-116.910	0.181	0.032
-151.633	48.194	-0.191	-0.176
-150.618	467.963	-0.070	0.154
-149.604	-200.000	-0.005	-0.116
-148.589	800.000	-0.120	0.410
-147.574	-106.448	-0.155	0.034
-146.560	40.573	0.032	0.028
-145.545	-33.380	0.264	-0.144
-144.531	123.843	-0.066	-0.081
-143.516	-58.853	0.287	0.122
-142.502	584.735	0.088	0.214
-141.487	143.285	0.112	0.147
-140.472	800.000	0.051	-0.216
-139.458	534.498	-0.049	-0.114
-138.443	-77.073	-0.329	0.113
-137.429	-200.000	0.031	0.207
-136.414	69.010	0.197	0.199
-135.399	114.557	0.039	0.047
-134.385	-77.111	0.341	0.117
-133.370	-200.000	-0.022	0.407
-132.356	800.000	0.104	-0.333
-131.341	-200.000	-0.018	0.381
-130.326	-70.102	0.101	-0.038
-129.312	9.889	0.100	-0.075
-128.297	641.604	0.028	-0.069
-127.283	-155.967	0.121	0.008
-126.268	82.021	0.104	-0.111
-125.253	-54.150	0.229	0.102
-124.239	-184.923	0.314	0.005
-123.224	-112.782	-0.233	-0.045
-122.210	152.608	0.152	-0.205
-121.195	-200.000	0.008	-0.071
-120.180	95.360	0.227	0.254
-119.166	-172.569	-0.253	0.008
-118.151	-83.065	0.171	0.054
-117.137	-200.000	0.052	-0.251
-116.122	-37.669	-0.297	-0.155
-115.107	800.000	0.100	0.325
-114.093	-120.402	0.112	-0.019
-113.078	-200.000	-0.045	-0.356
-112.064	3.401	0.131	0.093
-111.049	627.499	0.093	-0.230
-110.034	-79.483	-0.172	-0.057
-109.020	495.913	-0.094	0.212
-108.005	800.000	0.048	0.163
-106.991	-66.057	0.220	0.086
-105.976	168.870	-0.100	-0.140
-104.962	-200.000	0.040	0.296
-103.947	-200.000	-0.010	-0.127
-102.932	-200.000	-0.051	-0.271
-101.918	391.007	-0.037	-0.075
-100.903	-21.819	-0.114	0.068
-99.889	-21.328	-0.151	-0.091
-98.874	-139.131	0.112	0.012
-97.859	197.597	-0.056	-0.085
-96.845	-57.923	-0.223	-0.096
-95.830	22.156	-0.308	-0.247
-94.816	-167.889	-0.315	0.012
-93.801	-31.293	0.205	0.113
-92.786	-98.124	-0.397	-0.100
-91.772	800.000	0.023	-0.089
-90.757	539.210	-0.107	0.249
-89.743	439.339	0.093	0.200
-88.728	-46.578	-0.275	-0.132
-87.713	800.000	0.141	-0.433
-86.699	-29.724	-0.224	0.126
-85.684	800.000	0.113	-0.314
-84.670	-52.985	-0.159	-0.072
-83.655	437.331	-0.051	0.109
-82.640	-119.116	-0.446	0.076
-81.626	244.811	0.145	0.239
-80.611	631.527	0.067	0.166
-79.597	-155.662	0.337	0.021
-78.582	477.680	-0.053	0.117
-77.567	108.383	-0.185	-0.217
-76.553	-153.866	-0.067	-0.004
-75.538	263.500	-0.077	0.132
-74.524	-8.986	-0.067	0.044
-73.509	-7.651	0.212	0.141
-72.494	-200.000	-0.099	0.484
-71.480	-160.705	0.220	-0.011
-70.465	-130.536	0.134	0.018
-69.451	-132.150	0.050	-0.006
-68.436	-122.894	0.145	-0.023
-67.422	-200.000	-0.001	-0.038
-66.407	-108.095	0.142	0.030
-65.392	52.054	0.150	0.140
-64.378	-4.425	-0.101	0.069
-63.363	-200.000	0.055	-0.629
-62.349	-98.943	0.156	0.039
-61.334	106.005	-1.039	-1.205
-60.319	44.721	0.879	0.792
-59.305	-200.000	-0.191	-1.052
-58.290	231.757	0.826	1.328
-57.276	614.932	0.724	1.779
-56.261	-200.000	114.040	643.902
-55.246	462.748	1512.078	3307.629
-54.232	146.336	2678.757	3523.456
-53.217	102.981	2156.354	2474.697
-52.203	38.655	1602.281	1400.625
-51.188	30.428	1348.184	1128.719
-50.173	27.694	1310.046	1080.573
-49.159	55.294	1365.297	1293.520
-48.144	53.705	1380.082	1297.906
-47.130	30.954	1335.763	1121.309
-46.115	27.411	1317.977	1085.257
-45.100	27.186	1313.365	1080.078
-44.086	27.093	1310.457	1077.091
-43.071	27.128	1308.193	1075.397
-42.057	27.126	1306.162	1073.671
-41.042	27.204	1304.532	1072.751
-40.027	27.054	1303.445	1070.926
-39.013	27.212	1301.003	1069.808
-37.998	27.208	1299.060	1068.146
-36.984	27.257	1297.325	1066.964
-35.969	27.313	1295.332	1065.610
-34.954	27.379	1294.140	1064.974
-33.940	27.386	1292.415	1063.553
-32.925	27.307	1291.638	1062.411
-31.911	27.405	1289.727	1061.370
-30.896	27.331	1288.608	1059.977
-29.881	27.443	1287.043	1059.296
-28.867	27.488	1285.643	1058.361
-27.852	27.444	1284.119	1056.814
-26.838	27.307	1283.698	1055.628
-25.823	27.444	1281.377	1054.471
-24.809	27.430	1279.888	1053.126
-23.794	27.418	1278.722	1052.051
-22.779	27.352	1277.560	1050.677
-21.765	27.426	1276.439	1050.136
-20.750	27.527	1274.644	1049.201
-19.736	27.133	1273.839	1046.227
-18.721	27.299	1272.625	1046.144
-17.706	27.299	1271.862	1045.476
-16.692	27.331	1270.539	1044.530
-15.677	27.289	1269.579	1043.457
-14.663	27.382	1267.815	1042.501
-13.648	27.305	1266.631	1041.045
-12.633	27.261	1265.759	1040.036
-11.619	27.159	1265.266	1039.005
-10.604	27.243	1264.583	1038.881
-9.590	27.202	1263.383	1037.625
-8.575	27.130	1262.584	1036.516
-7.560	27.245	1261.542	1036.274
-6.546	27.287	1260.531	1035.643
-5.531	27.197	1259.721	1034.424
-4.517	27.164	1259.017	1033.613
-3.502	27.177	1258.384	1033.128
-2.487	27.248	1257.062	1032.406
-1.473	27.249	1252.653	1028.750
-0.458	25.749	1238.058	1008.329
0.556	21.244	1222.193	973.235
1.571	17.855	1228.627	959.256
2.586	17.091	1243.521	966.449
3.600	17.295	1233.393	959.647
4.615	16.003	1166.594	900.689
5.629	12.863	1099.936	833.304
6.644	11.318	1083.113	812.792
7.659	11.146	1081.044	810.310
8.673	11.024	1080.018	808.862
9.688	11.112	1078.085	807.783
10.702	11.394	1076.123	807.638
11.717	13.244	1078.468	818.495
12.731	16.251	1082.308	836.252
13.746	17.896	1083.111	844.951
14.761	17.643	1082.597	843.222
15.775	16.724	1080.751	837.169
16.790	15.611	1078.901	830.166
17.804	14.901	1077.169	825.257
18.819	14.474	1076.149	822.294
19.834	14.099	1075.264	819.700
20.848	14.080	1074.144	818.677
21.863	13.637	1073.803	816.164
22.877	13.653	1072.255	814.996
23.892	13.596	1071.650	814.184
24.907	13.676	1070.952	813.977
25.921	13.609	1069.698	812.619
26.936	13.684	1068.592	812.076
27.950	13.618	1067.680	810.987
28.965	13.846	1065.136	810.094
29.980	13.813	1064.236	809.181
30.994	13.802	1063.246	808.304
32.009	14.044	1061.449	808.043
33.023	13.756	1060.930	806.174
34.038	13.711	1060.018	805.195
35.053	13.717	1059.454	804.721
36.067	13.750	1058.162	803.828
37.082	13.719	1057.355	802.997
38.096	13.847	1056.603	802.972
39.111	13.807	1055.997	802.248
40.126	13.753	1054.408	800.708
41.140	13.496	1053.711	798.867
42.155	13.500	1052.570	797.953
43.169	13.571	1051.111	797.117
44.184	13.553	1050.034	796.145
45.199	13.456	1049.519	795.218
46.213	13.617	1048.017	794.779
47.228	13.658	1046.992	794.131
48.242	13.615	1045.995	793.098
49.257	13.733	1044.933	792.783
50.271	13.738	1044.103	792.110
51.286	13.733	1043.679	791.692
52.301	13.709	1042.337	790.491
53.315	13.731	1041.054	789.552
54.330	13.613	1039.937	788.075
55.344	13.752	1038.939	787.909
56.359	13.705	1038.329	787.156
57.374	13.657	1037.034	785.874
58.388	13.759	1035.966	785.478
59.403	13.574	1035.521	784.195
60.417	13.579	1035.000	783.754
61.432	13.529	1034.132	782.792
62.447	13.533	1032.890	781.802
63.461	13.485	1032.102	780.911
64.476	13.425	1031.864	780.380
65.490	13.379	1030.766	779.264
66.505	13.643	1030.042	779.890
67.520	13.475	1029.708	778.777
68.534	13.666	1028.372	778.596
69.549	13.510	1027.853	777.399
70.563	13.478	1027.153	776.653
71.578	13.460	1026.111	775.712
72.593	13.458	1025.456	775.136
73.607	13.389	1025.156	774.519
74.622	13.382	1024.618	774.010
75.636	13.458	1023.852	773.721
76.651	13.423	1022.765	772.667
77.666	13.495	1022.145	772.467
78.680	13.451	1021.654	771.821
79.695	13.460	1021.278	771.513
80.709	13.526	1020.418	771.101
81.724	13.586	1019.526	770.639
82.739	13.739	1018.967	770.859
83.753	13.624	1018.245	769.709
84.768	13.788	1017.346	769.720
85.782	13.835	1016.327	769.100
86.797	13.814	1016.040	768.720
87.812	13.767	1014.577	767.324
88.826	13.760	1013.401	766.336
89.841	13.830	1012.590	765.976
90.855	13.780	1011.856	765.127
91.870	13.853	1010.883	764.659
92.884	13.791	1010.062	763.683
93.899	13.844	1009.532	763.460
94.914	13.882	1008.833	763.036
95.928	13.882	1007.591	762.031
96.943	13.799	1007.106	761.214
97.957	13.726	1006.468	760.334
98.972	13.841	1005.153	759.797
99.987	13.866	1003.909	758.906
101.001	13.841	1003.217	758.201
102.016	13.797	1002.779	757.600
103.030	13.772	1002.106	756.911
104.045	13.818	1001.021	756.233
105.060	13.693	1000.233	755.003
106.074	13.704	999.052	754.093
107.089	13.626	997.601	752.579
108.103	13.694	996.878	752.275
109.118	13.637	996.177	751.423
110.133	13.518	995.196	750.078
111.147	13.613	993.921	749.478
112.162	13.638	993.537	749.235
113.176	13.722	992.816	749.005
114.191	13.610	991.927	747.763
115.206	13.612	991.175	747.136
116.220	13.641	990.669	746.820
117.235	13.696	989.481	746.107
118.249	13.745	988.433	745.471
119.264	13.683	987.408	744.353
120.279	13.707	986.763	743.908
121.293	13.629	986.013	742.930
122.308	13.695	984.749	742.207
123.322	13.621	983.809	741.101
124.337	13.673	982.602	740.359
125.352	13.535	982.249	739.412
126.366	13.565	980.795	738.382
127.381	13.598	980.124	737.960
128.395	13.558	979.207	737.027
129.410	13.698	978.178	736.810
130.424	13.614	977.443	735.816
131.439	13.809	976.499	735.907
132.454	13.796	975.702	735.183
133.468	13.698	974.820	734.019
134.483	13.925	973.553	734.006
135.497	13.914	972.874	733.382
136.512	13.697	972.586	732.139
137.527	13.571	971.609	730.784
138.541	13.738	971.033	731.023
139.556	13.702	970.299	730.246
140.570	13.867	969.224	730.099
141.585	13.920	968.536	729.750
142.600	13.884	967.653	728.858
143.614	13.846	967.451	728.476
144.629	14.027	965.845	727.996
145.643	13.889	965.252	726.881
146.658	13.849	964.070	725.751
147.673	13.847	963.196	725.020
148.687	13.839	962.164	724.144
149.702	13.916	961.301	723.766
150.716	13.769	960.742	722.640
151.731	13.761	960.288	722.199
152.746	13.832	959.594	721.925
153.760	13.920	958.852	721.685
154.775	13.877	958.089	720.859
155.789	13.972	957.495	720.760
156.804	14.003	956.754	720.273
157.819	13.946	956.246	719.581
158.833	14.171	955.453	719.895
159.848	14.082	954.475	718.711
160.862	14.016	953.699	717.776
161.877	14.085	952.384	717.022
162.892	13.956	951.554	715.778
163.906	13.879	951.061	715.009
164.921	13.958	949.814	714.350
165.935	13.993	949.140	713.931
166.950	14.102	947.625	713.195
167.964	13.983	947.217	712.313
168.979	13.845	946.634	711.220
169.994	13.932	945.823	710.922
171.008	14.029	944.725	710.448
172.023	14.096	944.189	710.269
173.037	14.167	943.258	709.809
174.052	14.189	942.591	709.339
175.067	13.993	942.090	708.064
176.081	14.032	941.309	707.581
177.096	14.008	940.552	706.847
178.110	14.087	940.142	706.809
179.125	14.029	939.605	706.098
180.140	13.917	939.260	705.299
181.154	14.149	938.636	705.756
182.169	14.137	938.267	705.363
183.183	14.316	937.464	705.454
184.198	14.327	936.377	704.622
185.213	14.290	935.617	703.831
186.227	14.221	935.160	703.132
187.242	14.332	934.603	703.121
188.256	14.435	933.988	703.031
189.271	14.216	933.228	701.471
190.286	14.244	932.216	700.768
191.300	14.076	931.839	699.715
192.315	14.100	930.877	699.031
193.329	14.033	930.967	698.757
194.344	14.308	930.243	699.305
195.359	14.129	929.359	697.828
196.373	14.299	928.677	697.969
197.388	14.489	928.266	698.393
198.402	14.447	927.867	697.856
199.417	14.527	927.077	697.535
200.432	14.639	926.585	697.572
201.446	14.528	926.259	696.800
202.461	14.583	925.595	696.467
203.475	14.598	925.202	696.174
204.490	14.495	924.450	695.118
205.504	14.522	923.503	694.454
206.519	14.576	922.347	693.750
207.534	14.491	922.373	693.352
208.548	14.579	921.047	692.662
209.563	14.529	920.633	692.083
210.577	14.679	920.229	692.338
211.592	14.724	919.292	691.758
212.607	14.745	918.679	691.324
213.621	14.734	917.691	690.474
214.636	14.761	916.794	689.847
215.650	14.885	916.137	689.803
216.665	14.772	915.720	688.965
217.680	14.770	914.936	688.305
218.694	14.765	914.351	687.782
219.709	14.833	913.959	687.706
220.723	14.845	913.352	687.239
221.738	14.736	912.080	685.775
222.753	14.879	911.240	685.667
223.767	14.835	911.351	685.511
224.782	15.038	910.343	685.524
225.796	14.823	910.552	684.737
226.811	14.917	909.418	684.208
227.826	14.903	908.960	683.748
228.840	14.888	907.825	682.770
229.855	14.746	907.432	681.834
230.869	14.846	906.435	681.433
231.884	14.855	905.855	680.974
232.899	14.819	904.847	680.011
233.913	14.811	904.351	679.543
234.928	14.743	903.936	678.897
235.942	14.840	903.248	678.714
236.957	14.693	903.186	678.012
237.972	14.863	902.262	677.946
238.986	14.856	901.192	677.053
240.001	14.814	900.761	676.500
241.015	14.814	900.301	676.095
242.030	14.916	899.396	675.768
243.045	14.990	898.943	675.666
244.059	14.969	898.381	675.098
245.074	15.147	897.543	675.125
246.088	15.138	896.904	674.551
247.103	15.126	896.354	674.028
248.117	15.186	895.777	673.777
249.132	15.256	895.561	673.834
250.147	15.235	894.636	672.994
251.161	15.288	894.348	672.932
252.176	15.345	893.686	672.604
253.190	15.412	892.632	672.018
254.205	15.445	891.702	671.390
255.220	15.347	891.645	670.897
256.234	15.436	890.646	670.439
257.249	15.609	889.618	670.298
258.263	15.370	889.379	669.104
259.278	15.556	888.489	669.120
260.293	15.480	888.405	668.694
261.307	15.567	887.772	668.502
262.322	15.483	887.159	667.648
263.336	15.587	886.254	667.321
264.351	15.619	885.477	666.806
265.366	15.523	884.858	665.899
266.380	15.700	884.087	665.961
267.395	15.701	883.505	665.469
268.409	15.748	882.412	664.770
269.424	15.691	881.995	664.171
270.439	15.589	880.793	662.806
271.453	15.606	880.516	662.608
272.468	15.596	880.301	662.347
273.482	15.630	879.630	661.918
274.497	15.531	879.351	661.257
275.512	15.777	878.158	661.269
276.526	15.719	878.110	660.946
277.541	15.679	877.157	660.013
278.555	15.778	876.645	659.962
279.570	15.736	876.253	659.442
280.585	15.872	875.104	659.052
281.599	15.785	874.662	658.319
282.614	15.852	873.672	657.776
283.628	15.845	873.198	657.337
284.643	15.847	872.594	656.830
285.657	15.868	872.261	656.604
286.672	15.864	871.330	655.829
287.687	15.870	870.847	655.429
288.701	15.727	870.456	654.522
289.716	15.856	869.963	654.595
290.730	15.868	869.136	653.963
291.745	15.888	868.609	653.584
292.760	16.035	867.891	653.556
293.774	15.944	867.333	652.728
294.789	16.110	866.510	652.691
295.803	15.967	865.834	651.571
296.818	16.012	865.223	651.227
297.833	15.992	864.952	650.889
298.847	15.942	864.111	650.005
299.862	16.017	863.751	649.967
300.876	16.102	862.823	649.537
301.891	16.082	862.318	649.022
302.906	16.205	861.912	649.132
303.920	16.183	861.582	648.743
304.935	16.287	860.796	648.494
305.949	16.262	860.331	647.989
306.964	16.353	859.370	647.559
307.979	16.279	859.160	647.058
308.993	16.259	858.363	646.326
310.008	16.452	857.828	646.603
311.022	16.227	857.499	645.436
312.037	16.151	856.855	644.605
313.052	16.213	856.056	644.186
314.066	16.179	855.373	643.485
315.081	16.205	855.132	643.344
316.095	16.081	854.565	642.389
317.110	16.146	854.060	642.200
318.125	16.281	853.059	641.904
319.139	16.161	852.738	641.148
320.154	16.196	852.573	641.102
321.168	16.216	852.138	640.791
322.183	16.363	851.231	640.613
323.197	16.206	850.830	639.658
324.212	16.333	850.363	639.730
325.227	16.317	849.541	638.997
326.241	16.342	849.027	638.647
327.256	16.295	848.676	638.150
328.270	16.318	847.829	637.543
329.285	16.294	847.504	637.150
330.300	16.331	846.935	636.808
331.314	16.427	846.162	636.532
332.329	16.508	845.779	636.491
333.343	16.485	845.436	636.090
334.358	16.428	845.064	635.538
335.373	16.458	844.682	635.310
336.387	16.511	844.507	635.319
337.402	16.621	844.187	635.438
338.416	16.674	843.737	635.238
339.431	16.556	843.326	634.432
340.446	16.803	842.846	634.940
341.460	16.605	842.774	634.087
342.475	16.704	841.648	633.555
343.489	16.725	841.613	633.552
344.504	16.782	841.074	633.302
345.519	16.876	840.514	633.176
346.533	16.828	840.112	632.637
347.548	16.725	839.380	631.648
348.562	16.747	838.837	631.266
349.577	16.713	838.117	630.538
350.592	16.640	837.568	629.800
351.606	16.618	836.984	629.224
352.621	16.711	836.089	628.841
353.635	16.725	835.812	628.626
354.650	16.750	835.216	628.218
355.665	16.804	834.701	627.975
356.679	16.816	833.909	627.368
357.694	16.814	832.999	626.619
358.708	16.949	832.238	626.492
359.723	16.861	831.936	625.883
360.738	16.950	831.617	625.915
361.752	17.010	830.821	625.482
362.767	16.974	830.262	624.873
363.781	16.914	830.326	624.645
364.796	17.008	829.920	624.631
365.810	17.111	829.199	624.411
366.825	17.142	828.828	624.191
367.840	17.310	827.741	623.934
368.854	17.028	827.709	622.819
369.869	17.129	827.216	622.762
370.883	17.190	826.691	622.535
371.898	17.124	826.672	622.227
372.913	17.235	825.977	622.053
373.927	17.299	825.429	621.822
374.942	17.219	825.193	621.293
375.956	17.291	824.880	621.266
376.971	17.359	824.454	621.140
377.986	17.322	823.836	620.483
379.000	17.303	823.142	619.837
380.015	17.300	822.922	619.607
381.029	17.387	822.003	619.176
382.044	17.415	821.504	618.847
383.059	17.407	820.671	618.136
384.073	17.521	820.292	618.208
385.088	17.361	819.990	617.346
386.102	17.271	819.467	616.571
387.117	17.246	818.767	615.901
388.132	17.275	818.091	615.443
389.146	17.444	817.663	615.676
390.161	17.438	817.204	615.257
391.175	17.514	816.777	615.152
392.190	17.471	816.151	614.471
393.205	17.470	815.788	614.142
394.219	17.510	815.114	613.724
395.234	17.414	814.833	613.112
396.248	17.409	814.154	612.529
397.263	17.357	813.928	612.116
398.278	17.293	813.554	611.550
399.292	17.512	812.921	611.809
400.307	17.404	812.600	611.125
401.321	17.350	812.396	610.722
402.336	17.515	811.756	610.780
403.350	17.476	811.431	610.343
404.365	17.483	811.038	610.017
405.380	17.691	810.503	610.306
406.394	17.733	809.448	609.609
407.409	17.781	809.295	609.610
408.423	17.686	809.339	609.249
409.438	17.767	808.885	609.143
410.453	17.964	808.030	609.149
411.467	17.846	808.002	608.651
412.482	17.920	807.148	608.220
413.496	17.862	807.436	608.175
414.511	17.779	807.098	607.570
415.526	17.938	806.152	607.370
416.540	17.883	805.609	606.715
417.555	18.016	805.036	606.701
418.569	18.060	804.745	606.582
419.584	18.008	804.104	605.861
420.599	18.044	803.705	605.634
421.613	111.444	1294.812	1475.748
422.628	96.098	1366.333	1475.828
