DTS Sentinel unit serial number:	SN413079Multiplexer serial number:	ORYXHardware model number:	OX4-SRSoftware version number:	ORYX F/W v4.00 Oryx Data Collector v3.7.2.0data status	okinstallation	princeton_trtdifferential loss correction	single-endedforward channel	channel 1reverse channel	N/Adate	2019/09/12time	08:24:11forward acquisition time	60.00reverse acquisition time	0.00gamma	496.2192k internal	0.2313k external	0.2313temperature offset calibration	1.0040default loss term (dB/km)	0.3790temperature slope calibration	1.0000multiplexer offset coefficient	1.0000multiplexer slope coefficient	1.0000fibre end	0.00T internal ref (°C)	33.56T ext. ref 1 (°C)	1.70T ext. ref 2 (°C)	29.98length (m)	temperature (°C)	Stokes	anti-Stokes-747.200	-79.946	0.120	0.041
-746.185	-160.881	-0.079	0.004
-745.171	-165.551	-0.267	-0.012
-744.156	488.560	0.112	0.261
-743.142	24.783	0.152	-0.128
-742.127	-160.409	-0.329	0.018
-741.112	100.504	0.070	-0.083
-740.098	697.872	-0.065	0.173
-739.083	86.027	0.094	0.105
-738.069	10.914	-0.168	-0.130
-737.054	43.493	0.125	0.116
-736.039	52.315	-0.219	0.212
-735.025	800.000	0.050	0.170
-734.010	-200.000	-0.012	-0.085
-732.996	-200.000	-0.055	-0.252
-731.981	800.000	0.055	0.212
-730.966	15.121	0.086	0.069
-729.952	-60.488	-0.038	0.017
-728.937	-121.662	0.256	0.043
-727.923	-97.898	0.118	0.031
-726.908	-200.000	-0.073	-0.370
-725.894	-55.720	-0.332	-0.151
-724.879	-24.042	0.147	0.089
-723.864	-42.491	-0.349	-0.180
-722.850	233.624	-0.106	-0.177
-721.835	133.377	-0.176	-0.231
-720.821	800.000	-0.038	-0.168
-719.806	14.046	-0.101	-0.080
-718.791	-29.152	0.061	-0.035
-717.777	253.423	0.053	0.092
-716.762	-200.000	-0.015	-0.218
-715.748	-171.953	-0.228	0.008
-714.733	23.895	0.158	0.132
-713.718	-63.828	-0.109	0.045
-712.704	140.484	-0.251	-0.336
-711.689	-23.248	0.115	-0.070
-710.675	187.102	0.017	-0.026
-709.660	-200.000	-0.014	-0.102
-708.645	800.000	-0.120	-0.371
-707.631	-91.729	-0.421	0.121
-706.616	-200.000	0.060	0.407
-705.602	-200.000	-0.008	0.097
-704.587	36.325	-0.271	0.242
-703.572	147.746	-0.065	0.089
-702.558	-200.000	0.003	-0.399
-701.543	-123.094	0.431	-0.070
-700.529	-56.191	0.197	-0.089
-699.514	188.181	-0.106	-0.161
-698.499	800.000	-0.044	-0.140
-697.485	2.742	-0.275	-0.202
-696.470	83.141	0.150	-0.165
-695.456	-186.554	0.274	0.004
-694.441	-90.224	0.214	-0.063
-693.426	40.639	-0.159	-0.145
-692.412	-200.000	-0.001	-0.212
-691.397	-75.230	-0.247	-0.089
-690.383	93.969	-0.055	-0.063
-689.368	255.207	0.078	0.136
-688.354	520.157	0.098	-0.232
-687.339	-200.000	-0.044	-0.353
-686.324	273.893	-0.146	-0.262
-685.310	-145.467	0.154	-0.014
-684.295	-99.980	-0.078	-0.020
-683.281	-40.842	0.255	0.133
-682.266	-200.000	-0.011	-0.075
-681.251	401.585	0.065	-0.138
-680.237	287.138	-0.101	-0.185
-679.222	-65.286	0.616	-0.251
-678.208	-153.422	-0.149	-0.010
-677.193	-76.900	0.381	0.135
-676.178	-153.160	-0.225	-0.016
-675.164	436.434	0.033	-0.072
-674.149	-130.764	0.318	0.043
-673.135	85.796	0.126	-0.141
-672.120	-200.000	0.006	-0.181
-671.105	-200.000	-0.043	-0.288
-670.091	800.000	-0.037	0.122
-669.076	137.053	0.103	0.136
-668.062	-64.500	-0.263	0.108
-667.047	-29.498	0.435	0.251
-666.032	39.243	0.167	-0.151
-665.018	-136.848	-0.444	-0.052
-664.003	62.897	-0.052	0.053
-662.989	-168.318	-0.185	-0.007
-661.974	-200.000	0.015	0.106
-660.959	521.629	-0.047	-0.111
-659.945	-136.189	0.216	0.026
-658.930	-34.819	0.151	0.083
-657.916	134.745	0.229	0.301
-656.901	-73.040	-0.146	-0.054
-655.886	-67.060	-0.381	0.152
-654.872	-200.000	-0.023	0.403
-653.857	-152.752	-0.268	0.019
-652.843	800.000	-0.088	0.338
-651.828	99.727	-0.178	0.209
-650.814	-48.573	0.133	-0.064
-649.799	-26.379	0.188	-0.112
-648.784	-78.031	-0.203	-0.070
-647.770	15.803	0.230	-0.183
-646.755	-200.000	-0.002	-0.117
-645.741	10.791	0.153	0.118
-644.726	-99.920	-0.277	-0.070
-643.711	-200.000	-0.024	0.135
-642.697	-56.697	0.235	-0.105
-641.682	431.701	0.100	0.218
-640.668	635.758	0.049	-0.125
-639.653	-102.392	0.175	0.042
-638.638	-25.528	-0.099	0.059
-637.624	250.474	0.122	-0.210
-636.609	-105.837	0.112	-0.025
-635.595	-200.000	0.012	0.185
-634.580	215.652	0.171	0.273
-633.565	-200.000	-0.006	0.165
-632.551	-104.409	-0.274	0.064
-631.536	800.000	0.078	-0.319
-630.522	41.429	0.020	0.018
-629.507	-200.000	-0.007	0.204
-628.492	405.370	0.087	-0.185
-627.478	40.320	0.154	-0.140
-626.463	19.313	-0.274	0.223
-625.449	800.000	0.048	0.142
-624.434	-97.106	-0.128	0.034
-623.419	-117.990	0.174	0.031
-622.405	-5.055	-0.416	0.289
-621.390	18.880	-0.203	-0.164
-620.376	-200.000	0.014	0.072
-619.361	85.851	-0.135	0.150
-618.346	19.020	-0.054	0.044
-617.332	-73.436	-0.101	0.037
-616.317	174.094	-0.202	-0.294
-615.303	30.084	0.112	0.096
-614.288	800.000	0.101	0.427
-613.273	-200.000	0.055	-0.301
-612.259	-60.409	-0.164	-0.070
-611.244	-77.965	0.066	-0.023
-610.230	-40.086	-0.284	-0.150
-609.215	-113.181	-0.225	-0.045
-608.201	209.116	0.161	-0.254
-607.186	-200.000	0.001	-0.239
-606.171	364.982	0.065	0.133
-605.157	-200.000	0.022	0.308
-604.142	-200.000	-0.167	0.001
-603.128	137.810	0.091	0.120
-602.113	-31.602	-0.338	-0.192
-601.098	-122.346	-0.190	-0.031
-600.084	419.431	0.150	0.323
-599.069	-57.113	-0.187	0.083
-598.055	-115.744	-0.080	-0.015
-597.040	147.235	0.057	-0.077
-596.025	-82.864	-0.088	-0.029
-595.011	-107.041	0.155	0.034
-593.996	-28.751	-0.094	-0.054
-592.982	-2.405	0.124	0.088
-591.967	800.000	0.040	-0.171
-590.952	-200.000	-0.008	0.604
-589.938	155.930	-0.256	0.356
-588.923	-130.878	-0.437	0.059
-587.909	446.778	0.035	0.078
-586.894	111.983	-0.109	0.133
-585.879	-59.657	-0.135	0.058
-584.865	800.000	-0.110	-0.379
-583.850	191.770	-0.034	-0.052
-582.836	-94.315	0.400	-0.110
-581.821	-90.610	-0.112	0.033
-580.806	129.972	-0.084	0.108
-579.792	-83.568	0.196	-0.063
-578.777	-117.073	0.231	-0.042
-577.763	-17.771	0.105	-0.067
-576.748	800.000	-0.036	0.146
-575.733	93.367	0.103	-0.118
-574.719	276.947	-0.028	-0.051
-573.704	115.238	0.233	0.286
-572.690	87.915	0.024	-0.027
-571.675	413.269	-0.065	0.140
-570.661	-60.827	-0.101	-0.043
-569.646	-61.984	0.349	-0.147
-568.631	-139.547	-0.425	0.046
-567.617	-200.000	0.073	0.503
-566.602	-38.806	0.142	0.075
-565.588	-200.000	0.010	-0.120
-564.573	146.130	0.106	-0.143
-563.558	-200.000	0.041	-0.361
-562.544	-77.061	0.160	0.056
-561.529	127.642	-0.179	-0.230
-560.515	-200.000	0.004	-0.118
-559.500	678.426	-0.125	-0.328
-558.485	-144.297	0.184	-0.017
-557.471	44.379	0.074	-0.068
-556.456	-134.833	0.098	-0.012
-555.442	-110.225	-0.076	-0.016
-554.427	23.557	-0.212	0.176
-553.412	681.311	-0.042	0.111
-552.398	-49.756	-0.200	-0.096
-551.383	-165.959	-0.123	0.005
-550.369	-152.049	0.233	0.017
-549.354	-200.000	-0.001	0.199
-548.339	84.838	0.207	0.229
-547.325	148.284	0.106	0.144
-546.310	687.557	-0.172	-0.452
-545.296	-62.714	-0.166	0.069
-544.281	-18.759	0.181	-0.113
-543.266	30.480	0.225	-0.193
-542.252	-112.135	-0.186	0.038
-541.237	361.231	0.076	-0.154
-540.223	116.507	-0.053	0.065
-539.208	-200.000	0.089	-0.396
-538.193	-154.980	-0.315	-0.021
-537.179	673.414	-0.146	0.380
-536.164	-77.975	-0.324	-0.112
-535.150	-19.383	-0.302	-0.188
-534.135	800.000	0.017	0.050
-533.121	-127.027	0.285	0.042
-532.106	-103.830	-0.267	-0.063
-531.091	-200.000	0.018	0.131
-530.077	83.205	0.168	0.184
-529.062	-200.000	0.008	-0.105
-528.048	-20.827	-0.251	-0.155
-527.033	13.815	0.042	0.033
-526.018	44.511	0.098	-0.091
-525.004	800.000	-0.025	0.072
-523.989	-200.000	-0.012	-0.320
-522.975	-111.623	-0.455	0.093
-521.960	-132.995	0.293	-0.037
-520.945	-21.452	0.065	-0.040
-519.931	135.985	-0.086	-0.113
-518.916	-173.141	0.079	-0.002
-517.902	-51.792	-0.231	0.108
-516.887	91.850	0.095	-0.107
-515.872	-77.465	-0.377	-0.132
-514.858	-76.329	-0.436	0.154
-513.843	-185.174	-0.173	-0.003
-512.829	326.020	0.132	-0.253
-511.814	-98.582	0.378	-0.097
-510.799	-35.957	0.092	-0.050
-509.785	-69.227	-0.222	-0.086
-508.770	-34.380	-0.214	0.118
-507.756	39.420	-0.100	-0.090
-506.741	-26.585	-0.050	0.029
-505.726	-168.156	-0.233	-0.009
-504.712	29.202	0.279	0.238
-503.697	-33.613	-0.220	0.122
-502.683	234.525	0.080	-0.132
-501.668	330.158	-0.071	0.137
-500.653	-200.000	-0.019	-0.293
-499.639	-200.000	-0.017	0.199
-498.624	800.000	0.068	-0.270
-497.610	-26.959	0.218	0.128
-496.595	-200.000	-0.001	-0.065
-495.581	-119.592	-0.235	0.041
-494.566	44.641	0.063	0.058
-493.551	225.807	-0.184	-0.300
-492.537	-164.119	-0.126	-0.006
-491.522	-200.000	-0.061	-0.340
-490.508	214.541	-0.275	0.437
-489.493	-200.000	0.013	-0.234
-488.478	-114.630	-0.211	-0.041
-487.464	178.593	-0.327	-0.480
-486.449	61.930	-0.138	0.138
-485.435	544.728	-0.043	0.104
-484.420	-131.950	0.039	-0.005
-483.405	800.000	0.040	-0.128
-482.391	-182.139	-0.241	0.005
-481.376	8.317	0.321	-0.242
-480.362	-171.714	-0.047	-0.002
-479.347	56.529	0.085	0.083
-478.332	64.208	-0.036	0.037
-477.318	-200.000	-0.058	-0.361
-476.303	-38.219	0.216	-0.115
-475.289	-85.198	0.300	-0.094
-474.274	800.000	0.074	-0.229
-473.259	-200.000	-0.005	0.132
-472.245	-29.787	0.297	0.170
-471.230	-154.695	-0.116	-0.008
-470.216	-123.049	-0.325	0.052
-469.201	599.196	-0.060	-0.148
-468.186	399.454	0.158	0.332
-467.172	415.835	0.090	-0.193
-466.157	-135.399	0.218	-0.026
-465.143	-20.873	0.022	-0.014
-464.128	-200.000	-0.017	0.482
-463.113	-200.000	0.026	0.147
-462.099	93.046	0.129	0.146
-461.084	-2.395	0.272	-0.191
-460.070	-200.000	-0.016	-0.206
-459.055	-64.613	-0.273	0.111
-458.040	-200.000	0.027	-0.319
-457.026	-48.225	-0.186	-0.090
-456.011	-200.000	-0.013	0.085
-454.997	-18.629	0.304	0.190
-453.982	-61.581	-0.165	-0.069
-452.968	-200.000	0.000	0.071
-451.953	285.199	0.092	0.167
-450.938	-200.000	0.020	0.226
-449.924	693.245	-0.041	0.109
-448.909	68.647	0.361	0.371
-447.895	-72.765	0.040	0.015
-446.880	23.109	-0.347	-0.286
-445.865	32.924	0.066	0.057
-444.851	185.051	-0.037	-0.055
-443.836	-105.211	0.070	-0.016
-442.822	649.189	0.169	0.433
-441.807	652.938	0.047	-0.120
-440.792	173.396	0.081	0.117
-439.778	-28.624	0.183	-0.106
-438.763	-25.100	-0.183	0.109
-437.749	-30.254	-0.052	0.029
-436.734	109.565	-0.136	-0.163
-435.719	-81.366	-0.173	-0.057
-434.705	-4.550	-0.534	-0.370
-433.690	-8.033	-0.256	0.173
-432.676	-200.000	-0.042	0.193
-431.661	-104.109	0.211	0.049
-430.646	400.692	-0.079	0.167
-429.632	-9.941	-0.182	0.121
-428.617	310.186	0.069	0.129
-427.603	-58.988	0.320	-0.138
-426.588	60.292	0.134	-0.133
-425.573	-37.549	0.405	-0.216
-424.559	104.810	0.270	-0.319
-423.544	-88.810	0.394	-0.117
-422.530	33.120	0.212	-0.184
-421.515	-200.000	-0.000	0.043
-420.500	-143.613	0.098	0.009
-419.486	800.000	-0.039	-0.157
-418.471	800.000	-0.053	-0.182
-417.457	47.703	-0.026	-0.025
-416.442	-200.000	0.009	0.417
-415.428	-200.000	0.019	-0.133
-414.413	-104.191	0.268	-0.062
-413.398	800.000	-0.049	0.168
-412.384	18.651	-0.138	0.111
-411.369	-42.683	-0.046	-0.024
-410.355	-200.000	-0.096	0.000
-409.340	-113.611	-0.260	-0.051
-408.325	-200.000	0.000	-0.182
-407.311	175.199	0.078	0.114
-406.296	66.302	0.159	-0.162
-405.282	12.728	0.286	-0.221
-404.267	-73.888	-0.422	-0.154
-403.252	30.998	0.151	0.129
-402.238	-173.442	-0.144	-0.004
-401.223	360.034	0.087	-0.175
-400.209	62.994	-0.127	-0.127
-399.194	-196.042	0.456	0.003
-398.179	-200.000	0.102	-0.473
-397.165	209.983	0.167	0.261
-396.150	-200.000	-0.008	0.117
-395.136	-47.171	-0.213	-0.104
-394.121	-160.151	-0.142	0.008
-393.106	800.000	-0.064	-0.248
-392.092	-0.952	0.196	0.139
-391.077	-200.000	-0.047	0.315
-390.063	595.040	-0.046	0.113
-389.048	162.451	0.075	0.105
-388.033	800.000	-0.075	-0.208
-387.019	-200.000	-0.049	0.321
-386.004	358.818	0.139	-0.277
-384.990	6.862	-0.138	-0.103
-383.975	95.965	-0.201	0.229
-382.960	-17.414	0.015	-0.010
-381.946	-129.443	-0.132	-0.018
-380.931	189.507	0.129	0.193
-379.917	-39.297	0.156	0.082
-378.902	-200.000	-0.007	0.109
-377.888	-200.000	-0.055	0.289
-376.873	800.000	-0.071	0.274
-375.858	-200.000	0.070	0.395
-374.844	-200.000	-0.056	0.340
-373.829	800.000	0.086	0.301
-372.815	-75.013	0.502	-0.180
-371.800	-96.735	0.338	0.089
-370.785	54.998	-0.199	0.192
-369.771	-6.492	0.197	0.134
-368.756	-194.747	0.256	-0.002
-367.742	-122.603	0.120	-0.019
-366.727	39.598	-0.029	-0.026
-365.712	-105.335	-0.298	-0.068
-364.698	99.720	-0.077	0.089
-363.683	-50.492	0.122	-0.058
-362.669	-37.391	0.197	0.105
-361.654	800.000	0.050	-0.174
-360.639	91.703	0.141	0.159
-359.625	-200.000	0.014	0.332
-358.610	800.000	-0.068	0.257
-357.596	133.400	0.138	0.178
-356.581	-43.903	-0.084	-0.042
-355.566	-156.942	-0.208	0.013
-354.552	-126.066	-0.140	0.021
-353.537	-200.000	-0.041	0.331
-352.523	-71.601	0.104	-0.039
-351.508	-165.405	-0.160	-0.007
-350.493	-200.000	-0.019	-0.104
-349.479	68.811	-0.189	0.193
-348.464	800.000	-0.027	0.081
-347.450	800.000	0.027	0.089
-346.435	205.817	0.207	-0.322
-345.420	37.731	0.107	0.095
-344.406	-105.019	0.289	-0.066
-343.391	143.723	-0.228	0.303
-342.377	-123.152	-0.278	-0.044
-341.362	10.208	0.453	-0.344
-340.348	-122.632	0.089	-0.014
-339.333	-5.798	0.166	-0.114
-338.318	-82.601	-0.128	0.041
-337.304	127.261	0.123	-0.156
-336.289	118.529	0.083	-0.102
-335.275	-35.888	0.178	0.096
-334.260	-175.819	0.114	0.003
-333.245	-98.605	-0.026	-0.007
-332.231	-200.000	-0.014	-0.478
-331.216	0.274	-0.155	-0.110
-330.202	-139.291	-0.070	0.008
-329.187	-140.044	0.125	-0.013
-328.172	310.120	-0.124	-0.231
-327.158	318.867	-0.037	-0.070
-326.143	54.867	0.191	-0.184
-325.129	302.820	-0.134	-0.248
-324.114	-38.252	-0.059	-0.031
-323.099	-76.347	-0.212	0.075
-322.085	259.684	-0.168	-0.289
-321.070	249.144	0.213	-0.360
-320.056	-200.000	-0.005	-0.192
-319.041	-99.485	0.289	-0.073
-318.026	117.247	0.225	-0.276
-317.012	343.032	0.097	-0.190
-315.997	22.455	-0.174	-0.142
-314.983	6.666	-0.076	0.057
-313.968	14.197	-0.106	-0.083
-312.953	178.387	0.222	0.324
-311.939	182.730	0.054	-0.080
-310.924	90.465	0.102	-0.114
-309.910	74.326	-0.145	-0.152
-308.895	-81.832	0.278	0.091
-307.880	338.259	0.150	0.292
-306.866	-63.510	-0.163	0.067
-305.851	-90.721	-0.156	-0.045
-304.837	768.846	0.133	0.362
-303.822	65.953	0.143	0.144
-302.807	-15.306	-0.205	0.131
-301.793	-91.892	0.098	0.028
-300.778	-200.000	-0.007	-0.405
-299.764	681.342	-0.050	-0.129
-298.749	611.954	-0.187	-0.467
-297.735	144.507	-0.106	-0.141
-296.720	-62.343	0.126	0.052
-295.705	800.000	-0.121	0.409
-294.691	-196.178	-0.253	0.002
-293.676	-142.636	0.304	-0.030
-292.662	4.109	0.097	-0.070
-291.647	800.000	0.053	0.166
-290.632	74.264	-0.213	-0.223
-289.618	-116.038	0.116	-0.022
-288.603	230.666	-0.146	0.238
-287.589	-29.112	-0.057	-0.033
-286.574	291.830	-0.194	0.352
-285.559	59.374	0.180	0.176
-284.545	223.422	0.147	0.236
-283.530	155.884	-0.062	-0.084
-282.516	-200.000	0.007	-0.081
-281.501	55.855	-0.041	0.040
-280.486	-200.000	0.029	0.145
-279.472	-200.000	-0.015	0.156
-278.457	85.195	-0.088	-0.096
-277.443	-115.389	-0.393	-0.074
-276.428	800.000	-0.022	0.091
-275.413	121.125	-0.052	0.065
-274.399	327.932	0.176	-0.337
-273.384	-200.000	-0.020	0.116
-272.370	113.893	0.153	-0.185
-271.355	800.000	0.080	-0.259
-270.340	-91.721	-0.366	-0.104
-269.326	22.626	-0.170	-0.138
-268.311	-103.117	0.087	-0.020
-267.297	10.643	-0.207	-0.157
-266.282	-163.576	-0.179	0.008
-265.267	-112.149	0.207	-0.041
-264.253	275.874	0.204	-0.361
-263.238	-72.043	0.253	-0.094
-262.224	-108.702	0.124	-0.026
-261.209	800.000	0.023	-0.089
-260.195	-63.961	0.094	-0.038
-259.180	52.967	0.132	0.125
-258.165	800.000	-0.042	-0.118
-257.151	93.450	0.275	0.310
-256.136	-32.506	-0.329	-0.183
-255.122	-150.555	-0.243	0.019
-254.107	16.739	0.172	0.135
-253.092	150.368	-0.198	0.267
-252.078	800.000	0.057	0.246
-251.063	-126.964	0.328	-0.048
-250.049	-26.049	0.206	0.121
-249.034	-66.712	-0.305	0.120
-248.019	-175.528	-0.232	-0.006
-247.005	-200.000	-0.002	0.184
-245.990	-58.096	-0.270	0.117
-244.976	273.603	0.235	0.414
-243.961	-175.029	0.320	0.009
-242.946	-78.502	-0.203	-0.069
-241.932	389.319	0.030	0.061
-240.917	26.448	0.090	0.075
-239.903	79.939	0.017	-0.018
-238.888	-94.107	-0.037	-0.010
-237.873	707.025	0.036	-0.094
-236.859	-200.000	-0.000	-0.145
-235.844	293.669	-0.041	0.075
-234.830	800.000	-0.061	-0.210
-233.815	-200.000	-0.014	0.084
-232.800	233.731	-0.044	0.071
-231.786	304.792	-0.061	0.113
-230.771	489.274	0.116	-0.263
-229.757	-200.000	0.021	0.106
-228.742	83.234	-0.140	0.152
-227.727	-200.000	-0.002	-0.085
-226.713	175.864	0.107	-0.154
-225.698	28.664	-0.070	-0.059
-224.684	-135.563	-0.182	0.021
-223.669	362.736	-0.111	0.222
-222.655	-47.633	0.377	0.182
-221.640	-200.000	0.015	0.265
-220.625	-194.247	0.247	-0.002
-219.611	467.050	0.113	0.252
-218.596	62.433	0.259	0.257
-217.582	800.000	-0.044	0.149
-216.567	-64.972	-0.224	0.090
-215.552	491.003	0.177	0.402
-214.538	63.011	0.039	0.039
-213.523	-94.336	0.285	0.077
-212.509	482.257	-0.124	0.279
-211.494	-163.810	0.036	-0.002
-210.479	-200.000	-0.011	-0.099
-209.465	22.101	0.164	0.133
-208.450	223.140	-0.090	0.145
-207.436	-25.083	0.129	-0.076
-206.421	25.622	-0.318	-0.263
-205.406	-38.773	0.141	0.074
-204.392	-42.246	0.212	-0.108
-203.377	304.749	0.148	-0.272
-202.363	365.782	0.069	-0.138
-201.348	-200.000	0.046	0.282
-200.333	-80.623	-0.065	-0.022
-199.319	-125.822	0.221	-0.033
-198.304	-200.000	-0.032	-0.216
-197.290	-67.914	-0.308	-0.119
-196.275	-48.805	-0.203	0.097
-195.260	157.550	0.184	0.252
-194.246	-90.906	-0.075	-0.021
-193.231	21.591	-0.079	0.064
-192.217	-200.000	-0.006	0.348
-191.202	-200.000	-0.002	-0.274
-190.187	95.080	-0.110	-0.124
-189.173	100.370	0.172	0.198
-188.158	-110.785	-0.343	0.070
-187.144	-200.000	0.011	-0.217
-186.129	602.953	-0.171	-0.423
-185.114	89.027	0.184	-0.204
-184.100	-200.000	-0.056	0.395
-183.085	65.959	-0.156	-0.157
-182.071	800.000	0.074	-0.290
-181.056	800.000	0.054	-0.217
-180.042	-87.741	-0.111	0.033
-179.027	-200.000	-0.003	0.275
-178.012	317.095	-0.108	-0.202
-176.998	-4.829	-0.062	-0.042
-175.983	56.278	-0.166	-0.160
-174.969	153.222	-0.093	0.126
-173.954	-200.000	0.011	0.049
-172.939	66.832	0.267	0.269
-171.925	37.065	0.259	-0.228
-170.910	43.927	-0.072	-0.066
-169.896	-20.030	-0.123	-0.076
-168.881	-57.687	-0.080	-0.035
-167.866	136.154	-0.123	-0.158
-166.852	213.039	-0.108	-0.169
-165.837	-154.325	0.246	0.016
-164.823	-46.519	-0.389	0.189
-163.808	146.840	0.121	0.161
-162.793	241.892	-0.048	0.079
-161.779	9.604	0.195	-0.146
-160.764	-37.309	-0.160	0.085
-159.750	-200.000	0.050	-0.288
-158.735	-200.000	0.024	-0.256
-157.720	-171.700	0.112	0.004
-156.706	409.404	-0.137	0.288
-155.691	-200.000	0.022	0.174
-154.677	-32.360	0.275	-0.152
-153.662	-153.171	0.196	-0.014
-152.647	29.279	-0.185	-0.156
-151.633	3.384	0.219	0.158
-150.618	-200.000	0.038	0.175
-149.604	-39.171	-0.204	-0.106
-148.589	-58.423	0.496	0.214
-147.574	-200.000	-0.041	0.400
-146.560	-73.257	-0.126	0.046
-145.545	-10.013	-0.140	-0.092
-144.531	533.528	-0.057	-0.135
-143.516	-200.000	-0.004	0.073
-142.502	-25.708	0.127	0.074
-141.487	529.715	-0.106	-0.248
-140.472	-11.600	-0.265	0.172
-139.458	800.000	0.015	0.049
-138.443	-200.000	0.009	0.221
-137.429	321.198	-0.186	0.351
-136.414	-132.519	0.161	-0.021
-135.399	255.601	0.125	0.211
-134.385	86.644	0.183	-0.200
-133.370	-200.000	0.054	0.000
-132.356	800.000	0.051	-0.210
-131.341	-159.526	-0.374	-0.021
-130.326	800.000	-0.079	-0.252
-129.312	319.195	0.181	-0.339
-128.297	-74.606	0.169	-0.060
-127.283	379.769	-0.157	-0.319
-126.268	114.505	0.102	0.123
-125.253	-200.000	0.017	0.244
-124.239	222.223	-0.127	0.202
-123.224	533.321	0.030	-0.070
-122.210	-146.362	0.125	0.011
-121.195	-46.447	0.068	0.033
-120.180	255.737	-0.070	0.119
-119.166	800.000	-0.096	-0.333
-118.151	-101.491	0.511	0.123
-117.137	-53.092	-0.286	0.130
-116.122	800.000	0.023	-0.069
-115.107	-155.475	0.480	-0.031
-114.093	-200.000	-0.062	-0.592
-113.078	800.000	0.071	-0.235
-112.064	-136.843	-0.207	0.024
-111.049	347.610	0.124	0.241
-110.034	699.389	0.108	-0.280
-109.020	-197.145	0.365	0.002
-108.005	-78.888	0.081	0.027
-106.991	167.260	0.214	-0.300
-105.976	334.111	0.110	-0.211
-104.962	120.206	-0.199	-0.245
-103.947	-200.000	0.006	-0.386
-102.932	-153.525	0.092	-0.006
-101.918	-19.069	0.277	-0.170
-100.903	-61.133	-0.152	-0.063
-99.889	-98.193	-0.228	-0.058
-98.874	-63.332	0.234	0.095
-97.859	-39.939	-0.300	-0.155
-96.845	-126.179	-0.130	0.019
-95.830	800.000	-0.109	-0.421
-94.816	333.386	-0.137	-0.263
-93.801	-159.469	0.272	0.015
-92.786	770.704	0.016	-0.044
-91.772	503.907	0.095	-0.217
-90.757	222.106	-0.108	0.171
-89.743	321.977	0.060	-0.112
-88.728	6.337	-0.208	0.153
-87.713	-177.571	0.399	0.010
-86.699	-16.713	0.260	0.163
-85.684	41.365	-0.111	-0.100
-84.670	309.277	0.051	0.094
-83.655	800.000	-0.116	-0.449
-82.640	-113.363	0.267	-0.052
-81.626	-30.753	0.228	-0.127
-80.611	72.108	-0.245	-0.252
-79.597	-2.467	0.224	-0.155
-78.582	144.561	-0.136	-0.179
-77.567	-51.935	0.326	-0.150
-76.553	25.736	0.094	0.078
-75.538	-32.858	0.434	-0.238
-74.524	800.000	0.042	-0.146
-73.509	-1.202	0.269	-0.188
-72.494	604.078	-0.027	0.066
-71.480	-105.381	0.161	0.036
-70.465	25.919	-0.244	-0.201
-69.451	-55.247	0.107	-0.048
-68.436	-130.917	-0.260	-0.034
-67.422	-77.360	0.240	0.082
-66.407	800.000	0.092	0.282
-65.392	-112.385	0.284	-0.056
-64.378	800.000	-0.104	0.375
-63.363	312.579	0.210	-0.390
-62.349	-98.448	0.203	-0.051
-61.334	131.617	-0.771	-0.979
-60.319	59.993	0.374	0.364
-59.305	-200.000	0.056	-0.788
-58.290	163.810	0.767	1.066
-57.276	800.000	0.452	1.926
-56.261	-200.000	98.730	591.261
-55.246	531.513	1415.308	3304.389
-54.232	149.341	2617.530	3498.263
-53.217	112.697	2175.092	2600.030
-52.203	45.124	1623.813	1477.199
-51.188	36.963	1358.939	1186.496
-50.173	33.861	1316.217	1130.721
-49.159	56.629	1365.842	1311.816
-48.144	60.065	1383.132	1349.143
-47.130	37.341	1337.896	1170.214
-46.115	33.779	1319.892	1133.210
-45.100	33.483	1315.759	1127.854
-44.086	33.455	1313.063	1125.334
-43.071	33.466	1310.636	1123.273
-42.057	33.269	1309.085	1120.732
-41.042	33.321	1307.141	1119.331
-40.027	33.462	1305.689	1118.878
-39.013	33.493	1303.597	1117.221
-37.998	33.487	1301.533	1115.374
-36.984	33.606	1299.972	1114.692
-35.969	33.557	1298.598	1113.183
-34.954	33.630	1296.623	1111.874
-33.940	33.589	1295.390	1110.532
-32.925	33.689	1294.418	1110.237
-31.911	33.661	1292.718	1108.569
-30.896	33.577	1291.275	1106.797
-29.881	33.584	1289.690	1105.435
-28.867	33.727	1288.306	1105.040
-27.852	33.664	1287.185	1103.670
-26.838	33.622	1285.785	1102.181
-25.823	33.614	1284.154	1100.693
-24.809	33.591	1282.991	1099.521
-23.794	33.615	1281.542	1098.373
-22.779	33.623	1280.194	1097.220
-21.765	33.676	1278.962	1096.430
-20.750	33.738	1277.070	1095.118
-19.736	33.687	1276.020	1093.883
-18.721	33.453	1275.198	1091.787
-17.706	33.494	1274.484	1091.364
-16.692	33.469	1273.069	1089.968
-15.677	33.444	1272.187	1089.025
-14.663	33.553	1270.823	1088.438
-13.648	33.518	1269.564	1087.117
-12.633	33.425	1269.138	1086.178
-11.619	33.460	1268.114	1085.456
-10.604	33.487	1266.993	1084.610
-9.590	33.562	1265.770	1083.948
-8.575	33.457	1265.116	1082.747
-7.560	33.592	1264.010	1082.527
-6.546	33.531	1263.035	1081.302
-5.531	33.474	1262.131	1080.159
-4.517	33.595	1260.986	1079.826
-3.502	33.430	1260.823	1078.702
-2.487	33.449	1260.125	1078.169
-1.473	33.572	1255.769	1075.101
-0.458	32.522	1240.946	1056.477
0.556	28.867	1223.786	1019.068
1.571	25.436	1228.962	1004.148
2.586	24.474	1245.183	1011.861
3.600	23.804	1233.827	998.783
4.615	17.007	1159.102	902.191
5.629	6.552	1080.457	788.832
6.644	2.106	1059.328	751.492
7.659	1.545	1057.215	747.172
8.673	1.611	1055.710	746.362
9.688	1.520	1054.277	744.837
10.702	1.777	1052.953	745.096
11.717	8.084	1062.326	782.709
12.731	18.641	1077.182	845.899
13.746	23.920	1084.006	877.298
14.761	24.956	1084.837	883.003
15.775	24.956	1084.599	882.731
16.790	24.773	1083.881	881.169
17.804	24.653	1083.193	879.941
18.819	24.775	1082.872	880.199
19.834	25.061	1082.346	881.103
20.848	24.922	1081.998	880.059
21.863	25.018	1081.218	879.818
22.877	24.947	1080.628	878.908
23.892	24.859	1080.025	877.912
24.907	24.977	1079.211	877.747
25.921	24.851	1078.351	876.353
26.936	24.936	1076.940	875.548
27.950	24.855	1075.229	873.684
28.965	24.771	1073.335	871.658
29.980	24.755	1072.162	870.549
30.994	25.059	1071.376	871.313
32.009	24.917	1070.217	869.602
33.023	24.735	1068.965	867.627
34.038	24.874	1068.052	867.483
35.053	25.082	1067.481	867.949
36.067	24.945	1066.768	866.630
37.082	25.068	1065.832	866.389
38.096	25.048	1066.063	866.399
39.111	25.194	1064.887	866.073
40.126	25.065	1063.111	863.932
41.140	24.653	1061.808	860.811
42.155	24.508	1060.076	858.633
43.169	24.599	1059.141	858.240
44.184	24.597	1058.464	857.605
45.199	24.535	1057.581	856.517
46.213	24.564	1056.191	855.454
47.228	24.902	1055.699	856.598
48.242	24.986	1054.478	855.931
49.257	24.946	1053.868	855.171
50.271	25.013	1053.401	855.032
51.286	24.978	1052.955	854.431
52.301	24.989	1051.934	853.577
53.315	24.878	1050.887	852.124
54.330	24.921	1050.001	851.538
55.344	24.929	1049.182	850.831
56.359	24.899	1047.870	849.551
57.374	24.673	1047.300	847.945
58.388	24.729	1046.173	847.221
59.403	24.597	1045.640	846.089
60.417	24.599	1044.566	845.157
61.432	24.689	1043.582	844.709
62.447	24.743	1043.487	844.813
63.461	24.827	1042.182	844.080
64.476	24.667	1041.833	842.967
65.490	24.612	1040.657	841.678
66.505	24.704	1040.075	841.570
67.520	24.748	1039.519	841.251
68.534	24.506	1037.949	838.771
69.549	24.215	1037.113	836.655
70.563	24.362	1036.181	836.518
71.578	24.128	1035.659	834.927
72.593	23.962	1034.501	833.142
73.607	24.173	1034.325	833.911
74.622	24.552	1033.998	835.348
75.636	24.524	1033.324	834.599
76.651	24.337	1032.257	832.791
77.666	24.317	1031.300	831.849
78.680	24.375	1030.694	831.558
79.695	24.565	1029.864	831.703
80.709	24.487	1029.171	830.703
81.724	24.459	1028.751	830.160
82.739	24.534	1027.930	829.773
83.753	24.971	1027.483	831.370
84.768	25.362	1026.461	832.282
85.782	25.450	1025.489	831.828
86.797	25.269	1024.516	830.125
87.812	25.160	1023.386	828.634
88.826	25.272	1022.389	828.270
89.841	25.290	1021.998	827.964
90.855	25.214	1021.324	826.993
91.870	25.298	1020.093	826.310
92.884	25.009	1019.363	824.316
93.899	24.943	1018.386	823.149
94.914	25.211	1017.177	823.330
95.928	24.987	1016.481	821.666
96.943	24.821	1015.061	819.687
97.957	24.549	1014.096	817.591
98.972	24.501	1012.829	816.276
99.987	24.693	1012.295	816.650
101.001	25.001	1011.228	817.122
102.016	24.814	1010.694	815.767
103.030	24.822	1009.883	815.076
104.045	24.839	1008.619	814.059
105.060	24.582	1007.969	812.296
106.074	24.750	1007.055	812.252
107.089	25.121	1006.069	813.066
108.103	24.935	1005.195	811.446
109.118	24.721	1004.202	809.604
110.133	24.583	1003.569	808.395
111.147	24.435	1001.886	806.300
112.162	24.477	1000.826	805.567
113.176	24.559	1000.539	805.633
114.191	24.564	999.701	804.912
115.206	24.125	998.750	802.094
116.220	24.298	997.985	802.188
117.235	24.384	997.133	801.822
118.249	24.492	996.006	801.329
119.264	24.300	995.361	799.878
120.279	24.405	995.011	799.994
121.293	24.311	994.433	799.039
122.308	24.272	993.402	797.964
123.322	24.249	992.103	796.748
124.337	24.146	990.944	795.288
125.352	23.667	989.232	791.708
126.366	23.670	988.148	790.782
127.381	24.510	988.142	794.447
128.395	24.727	988.152	795.350
129.410	24.939	987.231	795.484
130.424	24.774	986.668	794.223
131.439	24.997	985.458	794.168
132.454	24.767	984.813	792.558
133.468	24.734	983.682	791.434
134.483	24.981	982.689	791.656
135.497	25.093	982.171	791.664
136.512	25.101	981.124	790.787
137.527	25.180	979.995	790.155
138.541	25.246	979.511	789.985
139.556	25.202	978.756	789.112
140.570	25.321	978.423	789.295
141.585	25.279	977.065	787.945
142.600	25.076	976.239	786.321
143.614	25.287	975.817	786.836
144.629	25.502	974.880	786.955
145.643	25.380	973.369	785.130
146.658	25.206	971.715	782.966
147.673	25.116	970.956	781.893
148.687	24.942	969.816	780.148
149.702	24.777	969.243	778.901
150.716	24.818	968.178	778.154
151.731	25.057	967.634	778.686
152.746	25.283	966.871	778.987
153.760	25.314	966.267	778.565
154.775	25.308	965.856	778.139
155.789	25.277	964.943	777.199
156.804	25.295	963.901	776.368
157.819	25.416	963.209	776.265
158.833	25.564	962.164	775.994
159.848	25.466	961.399	774.887
160.862	25.331	960.232	773.293
161.877	25.282	958.907	771.950
162.892	25.260	958.579	771.523
163.906	25.272	957.479	770.620
164.921	25.359	956.027	769.757
165.935	25.319	955.650	769.211
166.950	25.432	954.242	768.492
167.964	25.307	953.868	767.592
168.979	25.169	952.822	766.091
169.994	25.077	951.759	764.777
171.008	25.323	951.374	765.448
172.023	25.459	950.311	765.105
173.037	25.108	949.588	762.960
174.052	24.929	948.413	761.187
175.067	25.155	947.681	761.496
176.081	24.997	947.691	760.765
177.096	25.029	946.865	760.171
178.110	24.773	945.398	757.839
179.125	24.651	944.799	756.774
180.140	24.822	944.335	757.061
181.154	24.823	944.584	757.197
182.169	25.198	944.295	758.483
183.183	25.258	943.940	758.385
184.198	25.411	942.499	757.808
185.213	25.163	942.113	756.383
186.227	25.327	941.547	756.555
187.242	25.380	940.605	755.953
188.256	25.391	940.277	755.670
189.271	25.465	939.776	755.512
190.286	24.998	938.264	752.265
191.300	24.469	936.805	748.814
192.315	23.699	934.991	744.071
193.329	23.586	934.735	743.327
194.344	24.541	935.480	747.854
195.359	25.097	935.332	749.998
196.373	25.295	934.538	750.123
197.388	25.080	934.173	748.867
198.402	25.172	933.603	748.727
199.417	25.334	932.943	748.807
200.432	25.016	931.644	746.373
201.446	24.774	931.405	745.108
202.461	24.747	930.750	744.407
203.475	23.837	929.012	739.169
204.490	23.167	927.596	735.192
205.504	24.156	927.937	739.504
206.519	24.652	927.931	741.494
207.534	24.802	927.412	741.637
208.548	25.251	927.341	743.373
209.563	25.066	925.999	741.467
210.577	24.994	925.628	740.809
211.592	25.449	925.391	742.432
212.607	25.225	924.621	740.824
213.621	25.412	923.907	740.959
214.636	25.272	923.271	739.803
215.650	25.373	922.380	739.440
216.665	25.484	921.819	739.381
217.680	25.460	921.044	738.597
218.694	24.919	919.686	735.224
219.709	24.849	918.858	734.209
220.723	25.153	918.687	735.252
221.738	25.202	918.176	734.982
222.753	25.163	917.664	734.344
223.767	25.292	917.185	734.425
224.782	25.561	916.816	735.163
225.796	25.579	916.315	734.770
226.811	24.660	915.381	730.203
227.826	24.084	913.725	726.470
228.840	24.398	913.207	727.274
229.855	24.469	912.288	726.765
230.869	24.079	911.329	724.352
231.884	24.464	911.801	726.229
232.899	25.311	911.223	729.146
233.913	25.076	910.956	727.915
234.928	25.092	910.131	727.256
235.942	25.076	909.707	726.789
236.957	24.864	908.635	725.008
237.972	24.738	908.187	724.076
238.986	24.874	907.671	724.152
240.001	24.817	907.161	723.449
241.015	24.935	906.713	723.505
242.030	25.134	906.081	723.742
243.045	25.374	905.697	724.335
244.059	25.378	904.914	723.663
245.074	25.287	904.037	722.530
246.088	24.875	903.290	720.214
247.103	25.080	903.146	720.861
248.117	25.612	903.526	723.238
249.132	25.906	903.083	724.003
250.147	25.936	902.531	723.613
251.161	26.127	901.712	723.660
252.176	26.078	901.096	722.907
253.190	26.147	900.652	722.760
254.205	26.283	900.364	723.012
255.220	26.196	899.330	721.768
256.234	26.123	898.571	720.802
257.249	26.016	897.962	719.824
258.263	25.972	896.965	718.786
259.278	26.155	896.566	719.134
260.293	26.195	896.304	719.018
261.307	26.017	895.758	717.806
262.322	25.999	894.542	716.700
263.336	25.118	892.576	711.564
264.351	24.213	890.596	706.337
265.366	24.180	890.762	706.278
266.380	25.241	891.560	711.054
267.395	25.746	891.006	712.547
268.409	25.697	890.147	711.602
269.424	25.857	890.064	712.108
270.439	25.745	889.101	710.832
271.453	25.902	889.024	711.325
272.468	26.145	888.637	711.911
273.482	26.192	887.799	711.363
274.497	25.845	886.820	709.152
275.512	25.355	885.726	706.285
276.526	25.770	886.215	708.246
277.541	25.881	885.789	708.279
278.555	25.775	884.619	706.866
279.570	25.467	884.049	705.139
280.585	25.717	883.423	705.557
281.599	25.718	882.864	705.051
282.614	25.241	880.951	701.596
283.628	25.096	880.515	700.623
284.643	25.465	880.746	702.184
285.657	25.115	879.292	699.601
286.672	24.875	878.532	697.996
287.687	25.530	878.418	700.398
288.701	25.465	878.106	699.832
289.716	25.252	877.046	698.097
290.730	25.084	876.407	696.873
291.745	24.916	875.269	695.254
292.760	25.161	875.324	696.189
293.774	26.129	875.814	700.275
294.789	26.458	875.598	701.316
295.803	26.420	875.115	700.720
296.818	26.524	874.334	700.436
297.833	25.981	873.014	697.214
298.847	26.047	872.412	696.928
299.862	26.246	872.240	697.498
300.876	26.413	872.123	697.986
301.891	26.255	871.568	696.872
302.906	25.821	870.469	694.259
303.920	26.173	869.953	695.142
304.935	26.380	870.259	696.122
305.949	26.432	869.151	695.374
306.964	26.017	868.881	693.502
307.979	26.124	867.897	693.066
308.993	26.532	868.053	694.695
310.008	26.512	867.436	694.063
311.022	26.277	866.225	692.134
312.037	26.174	865.759	691.304
313.052	25.974	864.802	689.713
314.066	25.013	863.125	684.645
315.081	24.765	862.532	683.168
316.095	25.545	863.003	686.460
317.110	25.953	863.195	688.110
318.125	25.222	861.203	683.676
319.139	24.153	859.261	678.006
320.154	24.243	859.078	678.145
321.168	25.074	859.767	681.793
322.183	25.813	860.007	684.731
323.197	25.984	859.410	684.847
324.212	26.101	859.161	685.031
325.227	26.235	858.684	685.099
326.241	26.014	857.575	683.315
327.256	25.994	857.222	682.899
328.270	26.123	856.509	682.758
329.285	25.627	855.658	680.144
330.300	25.436	855.093	678.913
331.314	25.624	854.865	679.384
332.329	26.162	854.565	681.116
333.343	26.336	854.059	681.307
334.358	26.217	853.730	680.536
335.373	26.270	853.513	680.500
336.387	26.578	853.613	681.681
337.402	26.692	853.283	681.786
338.416	26.688	852.712	681.256
339.431	26.741	852.701	681.387
340.446	26.958	852.249	681.779
341.460	26.755	851.706	680.522
342.475	26.453	851.446	679.121
343.489	26.489	851.160	678.966
344.504	27.035	850.470	680.402
345.519	27.088	850.500	680.564
346.533	27.034	850.288	680.133
347.548	27.085	849.450	679.592
348.562	27.087	848.569	678.836
349.577	27.178	847.793	678.493
350.592	26.988	847.324	677.349
351.606	26.967	846.436	676.502
352.621	26.828	845.589	675.250
353.635	26.848	845.034	674.821
354.650	26.180	843.242	670.847
355.665	25.238	841.890	666.217
356.679	25.732	841.486	667.671
357.694	26.142	841.521	669.161
358.708	26.090	841.151	668.615
359.723	26.361	840.674	669.180
360.738	26.697	840.459	670.191
361.752	26.848	839.877	670.226
362.767	27.120	839.582	670.937
363.781	27.408	839.248	671.671
364.796	27.445	838.780	671.374
365.810	27.400	838.567	670.979
366.825	27.612	837.938	671.197
367.840	27.213	836.921	668.856
368.854	26.820	836.444	666.970
369.869	26.728	836.193	666.371
370.883	26.818	835.694	666.245
371.898	26.790	835.003	665.533
372.913	26.777	834.622	665.123
373.927	27.049	834.318	665.821
374.942	27.058	834.263	665.749
375.956	27.244	833.584	665.831
376.971	27.364	833.316	665.996
377.986	27.478	832.721	665.879
379.000	27.340	832.432	665.086
380.015	27.055	831.607	663.327
381.029	27.179	831.336	663.505
382.044	27.576	830.421	664.164
383.059	27.622	829.574	663.591
384.073	27.547	829.181	662.949
385.088	27.263	829.064	661.763
386.102	27.069	828.339	660.419
387.117	27.071	827.654	659.820
388.132	26.859	826.147	657.792
389.146	26.124	825.910	654.880
390.161	26.677	825.590	656.575
391.175	27.238	824.895	657.995
392.190	26.810	824.089	655.746
393.205	25.401	821.958	648.905
394.219	23.947	820.260	642.261
395.234	23.939	820.010	641.981
396.248	25.484	821.467	648.645
397.263	26.944	822.179	654.419
398.278	26.882	821.914	653.926
399.292	26.887	820.731	652.946
400.307	26.821	820.473	652.447
401.321	26.709	820.456	651.971
402.336	27.174	820.384	653.529
403.350	27.625	820.287	655.016
404.365	27.867	820.181	655.739
405.380	28.222	819.711	656.582
406.394	28.320	818.896	656.220
407.409	28.019	818.669	654.904
408.423	28.018	818.365	654.597
409.438	28.067	818.194	654.578
410.453	28.164	817.558	654.358
411.467	28.056	816.831	653.332
412.482	28.074	816.590	653.148
413.496	28.237	816.349	653.477
414.511	28.033	815.775	652.235
415.526	28.174	815.513	652.469
416.540	28.209	814.375	651.624
417.555	27.778	813.590	649.405
418.569	27.938	813.526	649.869
419.584	27.800	812.606	648.583
420.599	27.608	812.269	647.577
421.613	107.938	1284.838	1450.246
422.628	93.301	1353.684	1450.390
