DTS Sentinel unit serial number:	SN413079Multiplexer serial number:	ORYXHardware model number:	OX4-SRSoftware version number:	ORYX F/W v4.00 Oryx Data Collector v3.7.2.0data status	okinstallation	princeton_trtdifferential loss correction	single-endedforward channel	channel 1reverse channel	N/Adate	2019/09/18time	22:34:35forward acquisition time	60.00reverse acquisition time	0.00gamma	496.2192k internal	0.2341k external	0.2341temperature offset calibration	1.0020default loss term (dB/km)	0.3790temperature slope calibration	1.0000multiplexer offset coefficient	1.0000multiplexer slope coefficient	1.0000fibre end	0.00T internal ref (°C)	24.19T ext. ref 1 (°C)	0.81T ext. ref 2 (°C)	17.99length (m)	temperature (°C)	Stokes	anti-Stokes-747.200	133.803	0.219	0.284
-746.185	-115.594	-0.402	-0.076
-745.171	260.517	0.107	0.186
-744.156	223.930	-0.305	0.494
-743.142	-171.011	-0.253	-0.009
-742.127	-129.784	-0.248	0.034
-741.112	-176.128	0.208	0.005
-740.098	253.980	-0.045	0.077
-739.083	-139.180	-0.188	-0.020
-738.069	-90.051	0.023	0.007
-737.054	19.969	0.109	0.088
-736.039	-72.417	-0.332	-0.123
-735.025	-200.000	0.001	0.198
-734.010	209.524	-0.081	0.127
-732.996	334.384	-0.024	-0.047
-731.981	-68.835	0.126	0.049
-730.966	-46.553	-0.430	-0.211
-729.952	-16.553	-0.089	0.056
-728.937	800.000	0.040	-0.116
-727.923	-1.346	0.214	-0.151
-726.908	527.571	0.067	0.158
-725.894	274.738	-0.159	-0.283
-724.879	-93.226	-0.075	0.021
-723.864	-139.760	0.251	0.027
-722.850	-95.275	-0.271	-0.073
-721.835	447.561	0.081	0.179
-720.821	-0.791	-0.375	-0.266
-719.806	-103.267	0.239	0.056
-718.791	-200.000	-0.008	-0.069
-717.777	-103.401	-0.006	0.001
-716.762	800.000	0.045	-0.158
-715.748	57.228	0.289	0.282
-714.733	-32.838	-0.027	0.015
-713.718	-72.442	-0.168	-0.062
-712.704	800.000	-0.041	0.139
-711.689	800.000	-0.067	-0.231
-710.675	31.030	-0.081	0.070
-709.660	-10.054	-0.347	-0.231
-708.645	-200.000	0.009	-0.110
-707.631	-190.255	-0.127	-0.001
-706.616	-73.093	-0.289	-0.106
-705.602	194.020	-0.156	-0.237
-704.587	366.832	0.222	-0.449
-703.572	-104.272	-0.439	-0.102
-702.558	-200.000	0.001	-0.042
-701.543	-103.243	-0.132	-0.031
-700.529	800.000	0.059	-0.205
-699.514	-115.254	0.060	0.011
-698.499	-1.021	0.039	0.028
-697.485	-153.946	-0.195	0.013
-696.470	-27.310	0.263	0.153
-695.456	-23.359	0.017	-0.010
-694.441	10.976	0.128	-0.098
-693.426	46.708	-0.155	-0.144
-692.412	-200.000	0.003	0.193
-691.397	16.786	-0.145	-0.115
-690.383	-200.000	-0.058	-0.426
-689.368	-200.000	-0.025	-0.448
-688.354	-200.000	-0.022	0.246
-687.339	-200.000	0.049	0.598
-686.324	-99.264	-0.168	0.042
-685.310	70.505	0.166	0.172
-684.295	-200.000	0.031	0.347
-683.281	184.370	-0.202	-0.299
-682.266	549.921	-0.060	-0.144
-681.251	-200.000	-0.032	-0.221
-680.237	78.049	-0.133	0.142
-679.222	511.298	-0.172	-0.401
-678.208	800.000	-0.076	-0.271
-677.193	130.102	0.037	0.048
-676.178	-56.275	-0.192	-0.085
-675.164	480.475	0.070	0.159
-674.149	30.316	-0.390	0.333
-673.135	9.779	0.099	0.075
-672.120	-127.010	0.038	0.006
-671.105	800.000	-0.052	-0.153
-670.091	-19.793	-0.119	-0.074
-669.076	90.684	0.008	0.008
-668.062	13.469	-0.142	-0.110
-667.047	-111.233	-0.557	0.114
-666.032	-200.000	-0.020	-0.138
-665.018	39.252	0.214	-0.191
-664.003	-147.839	0.372	0.031
-662.989	149.252	-0.229	-0.310
-661.974	-200.000	-0.017	0.297
-660.959	155.019	-0.127	0.175
-659.945	-186.659	-0.347	0.005
-658.930	800.000	0.088	0.274
-657.916	215.614	0.093	0.147
-656.901	-0.330	-0.208	0.148
-655.886	42.161	-0.292	-0.265
-654.872	42.614	-0.111	0.101
-653.857	-99.091	-0.341	-0.086
-652.843	-200.000	0.062	0.303
-651.828	-31.854	-0.266	0.149
-650.814	-91.989	-0.209	-0.059
-649.799	-200.000	0.010	0.264
-648.784	761.228	0.033	-0.088
-647.770	29.310	-0.209	-0.177
-646.755	169.484	-0.158	-0.225
-645.741	-67.963	0.286	-0.112
-644.726	-117.197	0.343	0.062
-643.711	751.550	-0.060	-0.161
-642.697	-54.397	0.314	0.142
-641.682	6.551	0.095	-0.070
-640.668	-44.057	0.139	0.069
-639.653	-200.000	-0.029	0.349
-638.638	-14.379	-0.057	0.036
-637.624	800.000	-0.029	-0.088
-636.609	226.808	0.175	-0.284
-635.595	399.674	-0.256	-0.536
-634.580	220.634	0.145	0.232
-633.565	13.394	0.107	-0.083
-632.551	37.172	-0.288	0.255
-631.536	-200.000	0.036	-0.213
-630.522	-166.016	-0.194	-0.008
-629.507	-82.632	0.095	-0.031
-628.492	8.471	0.194	-0.146
-627.478	486.318	-0.070	-0.159
-626.463	67.762	0.180	-0.184
-625.449	-80.817	-0.078	-0.026
-624.434	473.394	-0.096	-0.217
-623.419	123.241	-0.159	-0.199
-622.405	38.851	-0.091	-0.081
-621.390	800.000	-0.048	0.206
-620.376	-200.000	0.045	-0.228
-619.361	800.000	-0.124	0.462
-618.346	-31.926	-0.209	0.117
-617.332	-200.000	-0.039	0.431
-616.317	-200.000	0.009	0.251
-615.303	-54.704	0.462	-0.208
-614.288	441.301	-0.112	-0.244
-613.273	100.872	0.124	-0.143
-612.259	-69.430	0.278	-0.106
-611.244	81.645	0.155	-0.168
-610.230	-70.587	0.417	-0.157
-609.215	-32.637	-0.089	-0.049
-608.201	197.117	0.073	-0.111
-607.186	0.306	-0.148	-0.105
-606.171	-65.676	-0.307	-0.123
-605.157	800.000	-0.059	-0.196
-604.142	13.223	-0.134	0.103
-603.128	-200.000	-0.001	-0.076
-602.113	-200.000	0.013	-0.424
-601.098	93.008	-0.217	0.245
-600.084	-35.094	-0.249	0.135
-599.069	-19.361	0.248	0.153
-598.055	-61.866	-0.356	0.148
-597.040	800.000	0.086	-0.345
-596.025	800.000	0.096	-0.416
-595.011	-112.374	-0.033	0.007
-593.996	302.627	0.124	-0.229
-592.982	155.989	0.090	-0.123
-591.967	-96.399	-0.141	-0.037
-590.952	-19.456	0.288	0.178
-589.938	-200.000	-0.023	-0.307
-588.923	18.433	0.231	0.184
-587.909	-110.778	-0.292	-0.060
-586.894	25.983	0.277	0.230
-585.879	-146.824	-0.309	-0.027
-584.865	12.796	0.065	0.050
-583.850	-84.430	-0.109	0.034
-582.836	470.421	-0.284	-0.635
-581.821	-2.855	-0.106	-0.073
-580.806	-24.057	-0.159	0.095
-579.792	800.000	0.093	-0.373
-578.777	496.427	-0.165	-0.377
-577.763	-184.361	0.159	-0.003
-576.748	-139.415	-0.181	0.019
-575.733	4.892	0.083	-0.061
-574.719	-1.816	-0.284	0.199
-573.704	6.266	0.086	0.064
-572.690	-106.064	-0.271	-0.061
-571.675	800.000	0.029	0.103
-570.661	329.580	-0.187	0.357
-569.646	-72.991	-0.333	0.122
-568.631	58.519	-0.106	-0.103
-567.617	-151.556	-0.160	-0.012
-566.602	-9.158	0.011	0.007
-565.588	60.060	0.190	0.187
-564.573	132.175	0.134	-0.172
-563.558	-121.636	-0.374	-0.062
-562.544	-200.000	0.022	-0.105
-561.529	-131.332	-0.292	-0.039
-560.515	263.421	0.089	-0.154
-559.500	-118.985	0.336	-0.059
-558.485	800.000	0.052	0.143
-557.471	-200.000	0.012	-0.058
-556.456	40.959	0.284	-0.255
-555.442	120.417	0.286	-0.354
-554.427	-92.640	-0.070	0.019
-553.412	-79.839	0.310	0.104
-552.398	-104.569	0.389	-0.089
-551.383	-200.000	0.081	-0.388
-550.369	-124.194	-0.274	-0.043
-549.354	-3.659	0.202	-0.140
-548.339	-200.000	0.020	0.236
-547.325	18.822	-0.191	-0.152
-546.310	66.979	-0.085	0.086
-545.296	-133.539	-0.106	0.013
-544.281	-35.486	-0.426	-0.230
-543.266	800.000	0.071	-0.259
-542.252	-200.000	0.021	0.092
-541.237	-29.540	0.315	0.179
-540.223	-200.000	0.061	-0.339
-539.208	-90.821	0.416	-0.119
-538.193	790.663	-0.079	0.215
-537.179	539.439	-0.042	-0.099
-536.164	268.047	-0.075	0.130
-535.150	-200.000	0.021	0.169
-534.135	733.249	-0.058	-0.154
-533.121	-90.541	-0.132	-0.038
-532.106	-102.587	-0.203	0.048
-531.091	747.550	-0.050	0.133
-530.077	-143.251	-0.112	-0.011
-529.062	-43.198	0.237	-0.119
-528.048	19.037	0.298	0.238
-527.033	-200.000	0.005	0.327
-526.018	321.394	-0.058	-0.109
-525.004	-138.702	0.050	-0.005
-523.989	-33.780	-0.158	0.086
-522.975	-126.877	0.193	0.028
-521.960	-200.000	0.028	0.198
-520.945	-151.793	-0.131	-0.010
-519.931	-105.605	-0.059	0.013
-518.916	139.661	0.143	-0.187
-517.902	83.749	-0.042	-0.045
-516.887	73.079	-0.171	0.177
-515.872	-152.335	0.181	-0.013
-514.858	25.318	0.043	-0.036
-513.843	-25.658	-0.191	0.112
-512.829	800.000	0.070	0.295
-511.814	-200.000	-0.009	0.247
-510.799	100.555	0.151	-0.174
-509.785	-200.000	-0.049	-0.348
-508.770	6.189	0.327	0.241
-507.756	-198.416	0.077	0.000
-506.741	107.557	0.100	0.118
-505.726	69.195	0.094	0.096
-504.712	-200.000	-0.016	0.173
-503.697	-89.448	-0.422	-0.123
-502.683	-99.985	0.144	-0.036
-501.668	125.105	-0.440	-0.550
-500.653	219.693	0.119	-0.189
-499.639	-200.000	0.008	0.106
-498.624	-30.818	0.463	0.260
-497.610	214.087	0.094	-0.147
-496.595	83.892	-0.155	-0.168
-495.581	146.589	-0.015	0.020
-494.566	-47.035	-0.223	-0.108
-493.551	800.000	0.097	0.365
-492.537	221.511	0.156	-0.249
-491.522	-70.693	0.176	-0.066
-490.508	-14.044	0.145	0.093
-489.493	224.705	-0.155	0.249
-488.478	-200.000	-0.009	0.144
-487.464	-200.000	0.075	-0.462
-486.449	-164.677	-0.167	-0.007
-485.435	588.383	0.069	0.168
-484.420	110.615	-0.084	-0.100
-483.405	342.717	-0.097	0.189
-482.391	-21.802	-0.051	0.031
-481.376	-79.744	-0.298	-0.100
-480.362	800.000	0.077	-0.238
-479.347	-124.540	-0.060	-0.009
-478.332	201.967	-0.006	-0.009
-477.318	289.600	0.162	0.291
-476.303	-200.000	0.029	-0.212
-475.289	431.236	0.041	0.088
-474.274	16.900	-0.148	0.116
-473.259	181.380	-0.049	0.072
-472.245	-81.398	-0.103	0.034
-471.230	-59.025	0.102	-0.044
-470.216	100.853	-0.111	0.128
-469.201	-68.664	-0.076	-0.029
-468.186	292.104	0.121	-0.218
-467.172	-200.000	-0.035	0.286
-466.157	-26.880	0.162	-0.094
-465.143	139.275	-0.171	-0.223
-464.128	166.867	-0.196	-0.275
-463.113	107.497	0.182	0.214
-462.099	-200.000	0.065	0.290
-461.084	-57.638	0.217	0.094
-460.070	638.367	0.017	0.043
-459.055	-200.000	0.025	-0.116
-458.040	695.695	0.080	-0.207
-457.026	-95.952	0.282	0.075
-456.011	36.587	-0.141	-0.124
-454.997	62.645	0.215	-0.213
-453.982	-169.142	0.095	-0.003
-452.968	-12.233	0.502	0.326
-451.953	168.367	-0.095	0.134
-450.938	204.141	0.075	0.115
-449.924	83.219	0.032	0.035
-448.909	182.503	0.075	-0.110
-447.895	-145.861	0.095	0.008
-446.880	466.814	0.058	0.129
-445.865	167.039	0.043	-0.061
-444.851	214.647	0.035	0.054
-443.836	800.000	-0.020	-0.069
-442.822	64.243	0.083	0.083
-441.807	-200.000	-0.047	0.203
-440.792	-130.806	0.262	0.035
-439.778	15.402	-0.262	-0.203
-438.763	337.832	-0.058	-0.112
-437.749	66.939	0.172	0.174
-436.734	8.007	-0.188	-0.140
-435.719	163.518	-0.078	-0.109
-434.705	-65.985	0.310	0.122
-433.690	194.533	0.261	0.391
-432.676	-200.000	-0.022	0.422
-431.661	17.437	-0.198	0.156
-430.646	88.241	-0.064	-0.070
-429.632	-153.746	0.482	-0.033
-428.617	-200.000	0.024	0.207
-427.603	243.102	-0.108	-0.179
-426.588	-124.158	-0.350	0.054
-425.573	175.404	0.042	-0.060
-424.559	759.628	0.141	-0.378
-423.544	-200.000	-0.247	0.000
-422.530	-24.033	-0.098	0.058
-421.515	-152.852	-0.376	-0.026
-420.500	227.101	-0.035	-0.056
-419.486	-54.199	0.415	-0.187
-418.471	800.000	0.104	0.445
-417.457	-97.389	-0.358	-0.092
-416.442	194.716	-0.033	0.050
-415.428	-48.452	0.213	-0.101
-414.413	-166.133	-0.326	-0.014
-413.398	6.391	-0.037	0.027
-412.384	153.274	-0.101	0.137
-411.369	800.000	0.045	-0.140
-410.355	-28.881	-0.187	0.106
-409.340	403.098	-0.029	0.060
-408.325	378.286	0.081	0.165
-407.311	-91.244	-0.042	-0.012
-406.296	117.648	0.176	-0.214
-405.282	349.151	-0.108	-0.210
-404.267	61.542	0.172	0.169
-403.252	-200.000	0.003	-0.044
-402.238	-200.000	-0.011	0.413
-401.223	46.705	-0.100	-0.092
-400.209	800.000	0.012	0.042
-399.194	-126.063	0.388	0.058
-398.179	-130.678	-0.248	-0.033
-397.165	-200.000	-0.245	-0.001
-396.150	323.522	0.014	0.027
-395.136	-139.445	-0.093	-0.010
-394.121	-174.198	-0.201	0.006
-393.106	771.966	0.017	-0.045
-392.092	83.610	0.081	0.087
-391.077	170.913	-0.168	-0.237
-390.063	321.855	0.101	-0.190
-389.048	-135.124	-0.149	-0.018
-388.033	51.009	-0.032	0.030
-387.019	156.478	0.182	-0.249
-386.004	-126.062	0.131	0.019
-384.990	-64.013	0.291	-0.117
-383.975	-86.598	-0.139	-0.042
-382.960	-57.099	0.224	0.098
-381.946	-141.795	-0.123	0.012
-380.931	186.807	-0.227	0.334
-379.917	-200.000	-0.005	-0.159
-378.902	-172.117	-0.725	0.023
-377.888	-200.000	0.086	0.385
-376.873	22.512	0.344	-0.278
-375.858	471.886	-0.035	0.077
-374.844	-200.000	-0.058	-0.295
-373.829	-55.193	-0.216	0.096
-372.815	150.291	-0.188	-0.252
-371.800	-122.873	-0.367	-0.059
-370.785	676.035	0.055	0.140
-369.771	-16.531	0.102	-0.064
-368.756	351.820	-0.032	-0.063
-367.742	363.376	-0.200	-0.398
-366.727	528.001	0.111	-0.259
-365.712	459.414	0.173	0.379
-364.698	53.001	-0.057	0.053
-363.683	-200.000	-0.020	-0.104
-362.669	73.954	-0.253	-0.262
-361.654	-200.000	-0.012	-0.144
-360.639	-133.831	-0.307	0.038
-359.625	42.445	0.229	0.206
-358.610	-200.000	-0.015	0.138
-357.596	-33.460	-0.155	0.085
-356.581	92.336	-0.183	0.204
-355.566	-200.000	0.023	-0.182
-354.552	10.182	0.149	-0.112
-353.537	74.343	0.258	0.268
-352.523	-124.756	-0.133	0.020
-351.508	-4.207	0.229	-0.156
-350.493	-42.128	0.209	-0.105
-349.479	148.436	0.081	-0.109
-348.464	38.179	0.153	0.134
-347.450	-200.000	0.012	0.078
-346.435	-11.275	-0.191	0.124
-345.420	76.179	0.318	0.332
-344.406	-59.613	0.051	0.021
-343.391	-200.000	0.022	0.240
-342.377	282.050	0.105	0.186
-341.362	-200.000	0.006	-0.039
-340.348	406.762	-0.095	0.199
-339.333	170.545	-0.032	0.045
-338.318	-112.988	0.281	0.055
-337.304	-15.900	-0.076	0.048
-336.289	32.173	0.217	0.185
-335.275	-136.949	0.201	0.023
-334.260	787.585	0.252	-0.682
-333.245	299.903	0.015	0.027
-332.231	-200.000	-0.012	0.055
-331.216	184.152	0.211	-0.308
-330.202	-113.699	0.051	-0.010
-329.187	-33.684	-0.050	-0.027
-328.172	389.309	0.068	0.138
-327.158	487.786	0.068	-0.152
-326.143	-130.558	-0.305	-0.041
-325.129	377.036	-0.108	-0.217
-324.114	-62.358	0.310	0.127
-323.099	-159.966	-0.223	0.012
-322.085	-85.174	-0.182	-0.056
-321.070	107.865	0.238	-0.280
-320.056	352.319	-0.204	0.398
-319.041	-83.403	-0.395	-0.125
-318.026	-130.049	0.145	0.020
-317.012	-12.721	-0.182	-0.117
-315.997	571.151	0.019	0.045
-314.983	800.000	-0.044	-0.180
-313.968	-35.600	-0.421	-0.225
-312.953	-158.172	-0.268	0.015
-311.939	165.529	0.255	-0.355
-310.924	350.937	0.094	-0.184
-309.910	130.174	0.079	0.100
-308.895	800.000	0.081	-0.225
-307.880	-140.208	0.318	-0.033
-306.866	-0.751	-0.359	-0.250
-305.851	118.561	-0.094	-0.114
-304.837	-52.574	-0.349	0.159
-303.822	-200.000	0.000	0.416
-302.807	4.808	0.166	-0.120
-301.793	205.745	0.091	0.140
-300.778	58.074	0.319	-0.308
-299.764	389.073	-0.110	0.224
-298.749	76.640	0.305	-0.318
-297.735	-200.000	-0.038	0.283
-296.720	-7.188	-0.155	0.104
-295.705	800.000	0.111	-0.378
-294.691	-105.850	-0.259	-0.058
-293.676	105.777	0.077	-0.089
-292.662	-92.213	0.295	0.082
-291.647	128.240	-0.292	-0.365
-290.632	176.514	-0.109	-0.156
-289.618	229.663	-0.046	-0.073
-288.603	32.770	0.150	0.128
-287.589	339.197	-0.128	0.246
-286.574	176.147	-0.149	-0.213
-285.559	-200.000	0.022	0.181
-284.545	372.820	0.173	0.346
-283.530	-95.619	0.250	-0.066
-282.516	60.132	0.180	0.175
-281.501	183.266	0.151	-0.220
-280.486	188.216	-0.111	-0.164
-279.472	-113.113	-0.209	-0.041
-278.457	-200.000	-0.034	-0.258
-277.443	-40.588	-0.188	0.096
-276.428	-200.000	-0.024	-0.166
-275.413	800.000	0.021	0.078
-274.399	401.829	-0.104	-0.216
-273.384	93.681	0.176	0.196
-272.370	-200.000	-0.043	0.386
-271.355	-200.000	0.010	0.386
-270.340	-200.000	-0.026	-0.137
-269.326	651.291	0.120	0.302
-268.311	41.442	0.274	0.244
-267.297	-135.566	-0.102	0.012
-266.282	81.249	-0.115	0.122
-265.267	-83.351	-0.401	-0.126
-264.253	-148.600	0.293	-0.023
-263.238	-200.000	0.018	0.148
-262.224	8.903	0.156	0.116
-261.209	800.000	0.051	-0.140
-260.195	800.000	-0.138	-0.429
-259.180	16.358	-0.153	-0.119
-258.165	800.000	-0.062	-0.198
-257.151	53.814	0.214	0.202
-256.136	-124.610	-0.339	0.052
-255.122	38.716	-0.086	0.076
-254.107	-90.137	0.363	-0.104
-253.092	39.515	-0.101	-0.089
-252.078	68.160	0.122	0.123
-251.063	-57.341	0.309	0.134
-250.049	-55.675	-0.066	-0.029
-249.034	26.026	-0.137	0.112
-248.019	-24.869	0.123	-0.072
-247.005	-200.000	0.012	-0.098
-245.990	-200.000	0.038	0.185
-244.976	69.642	-0.294	0.298
-243.961	800.000	-0.075	0.212
-242.946	-118.536	-0.356	0.062
-241.932	-75.195	0.434	-0.152
-240.917	-26.399	-0.184	0.106
-239.903	-200.000	0.003	0.184
-238.888	15.120	0.028	-0.022
-237.873	94.881	0.172	-0.192
-236.859	564.585	0.174	0.414
-235.844	-82.783	0.355	0.113
-234.830	800.000	-0.031	0.100
-233.815	-20.596	-0.443	0.267
-232.800	800.000	0.122	0.371
-231.786	109.274	-0.190	-0.223
-230.771	-200.000	-0.014	-0.104
-229.757	281.407	-0.056	0.099
-228.742	-135.001	-0.110	0.013
-227.727	-41.574	0.129	-0.065
-226.713	-88.749	0.257	-0.075
-225.698	800.000	-0.079	0.290
-224.684	202.279	0.066	0.100
-223.669	645.540	-0.059	-0.149
-222.655	-56.918	0.148	0.064
-221.640	33.863	-0.064	-0.055
-220.625	77.088	0.062	0.065
-219.611	79.649	-0.175	-0.184
-218.596	349.907	-0.093	-0.180
-217.582	-78.809	-0.116	0.039
-216.567	521.650	-0.069	0.159
-215.552	43.490	0.079	0.071
-214.538	-22.156	-0.232	0.138
-213.523	-200.000	-0.037	0.191
-212.509	800.000	0.008	0.031
-211.494	568.330	-0.061	-0.146
-210.479	-32.621	0.078	0.042
-209.465	0.586	0.108	-0.076
-208.450	-200.000	0.057	0.325
-207.436	164.295	-0.082	0.113
-206.421	-64.375	0.070	-0.028
-205.406	238.411	0.028	0.046
-204.392	40.628	-0.410	0.362
-203.377	800.000	-0.088	0.372
-202.363	175.823	-0.155	-0.221
-201.348	335.623	0.086	-0.163
-200.333	223.134	-0.139	0.219
-199.319	-200.000	-0.007	-0.306
-198.304	-141.716	-0.093	0.009
-197.290	244.404	-0.143	-0.236
-196.275	49.439	0.245	0.226
-195.260	140.947	-0.113	-0.147
-194.246	22.923	-0.191	-0.153
-193.231	-64.224	-0.297	-0.119
-192.217	-99.426	-0.178	0.044
-191.202	-200.000	-0.010	0.128
-190.187	-133.246	0.189	-0.023
-189.173	95.918	-0.102	-0.114
-188.158	-80.501	-0.459	0.150
-187.144	215.474	-0.107	0.167
-186.129	-200.000	0.048	0.219
-185.114	-200.000	-0.049	0.364
-184.100	-107.412	0.303	-0.065
-183.085	800.000	0.068	-0.215
-182.071	-200.000	0.040	0.203
-181.056	-200.000	-0.044	0.264
-180.042	-200.000	0.004	-0.028
-179.027	-102.311	0.314	0.074
-178.012	-52.349	0.143	-0.065
-176.998	118.489	0.241	0.292
-175.983	333.011	-0.131	0.249
-174.969	109.670	0.185	-0.217
-173.954	-128.698	-0.002	-0.000
-172.939	19.607	0.117	0.092
-171.925	352.178	0.150	0.291
-170.910	-86.486	-0.087	-0.026
-169.896	104.768	0.222	-0.257
-168.881	101.434	0.097	0.111
-167.866	29.275	-0.202	0.168
-166.852	-58.654	0.066	0.028
-165.837	800.000	0.001	0.004
-164.823	74.810	0.243	0.251
-163.808	-102.096	0.218	0.051
-162.793	29.050	-0.226	-0.188
-161.779	-200.000	-0.033	0.145
-160.764	-89.267	-0.125	0.036
-159.750	160.260	0.155	0.212
-158.735	183.938	-0.131	0.190
-157.720	103.819	-0.048	0.056
-156.706	111.667	0.115	0.135
-155.691	227.822	-0.145	0.232
-154.677	-123.567	0.202	0.031
-153.662	-200.000	0.050	-0.250
-152.647	-200.000	0.024	-0.249
-151.633	-1.483	-0.186	-0.129
-150.618	531.987	0.107	0.248
-149.604	800.000	0.119	0.367
-148.589	-32.916	-0.221	0.120
-147.574	-41.677	-0.093	0.047
-146.560	-200.000	0.003	-0.167
-145.545	318.426	0.126	-0.233
-144.531	-200.000	-0.052	0.435
-143.516	-59.102	-0.170	-0.072
-142.502	237.598	-0.140	0.228
-141.487	-53.402	-0.133	-0.060
-140.472	-34.996	0.191	0.102
-139.458	368.206	0.093	0.184
-138.443	-145.019	-0.270	0.024
-137.429	79.510	0.021	0.022
-136.414	-166.733	0.180	0.007
-135.399	473.275	-0.064	0.141
-134.385	-3.903	-0.319	-0.216
-133.370	-72.757	0.152	0.055
-132.356	74.800	-0.096	0.099
-131.341	-12.986	0.386	0.246
-130.326	-47.855	-0.365	-0.173
-129.312	-113.962	-0.172	0.033
-128.297	-8.981	0.122	0.080
-127.283	320.046	-0.160	-0.296
-126.268	-11.666	-0.335	-0.215
-125.253	-150.425	-0.114	0.009
-124.239	-200.000	-0.012	-0.150
-123.224	16.868	0.032	-0.025
-122.210	151.610	-0.128	0.171
-121.195	204.234	0.093	0.141
-120.180	800.000	-0.031	-0.118
-119.166	167.158	-0.030	0.042
-118.151	20.028	0.155	-0.122
-117.137	-148.992	0.240	-0.019
-116.122	-41.166	-0.023	0.012
-115.107	-200.000	-0.015	-0.190
-114.093	147.632	0.098	0.129
-113.078	80.322	0.091	0.095
-112.064	-70.762	0.219	-0.081
-111.049	-122.508	-0.243	-0.039
-110.034	-200.000	-0.028	-0.145
-109.020	-152.343	0.429	-0.030
-108.005	-88.787	-0.269	-0.078
-106.991	-200.000	-0.084	0.493
-105.976	235.917	-0.052	0.084
-104.962	-147.380	0.125	0.010
-103.947	151.838	-0.055	0.073
-102.932	-200.000	-0.025	-0.257
-101.918	5.428	-0.073	-0.052
-100.903	425.357	-0.024	0.050
-99.889	280.943	0.110	-0.192
-98.874	-62.769	-0.185	-0.075
-97.859	61.844	0.031	0.030
-96.845	-24.139	-0.185	0.108
-95.830	-164.401	0.336	0.015
-94.816	626.255	-0.062	0.152
-93.801	800.000	0.061	0.218
-92.786	121.404	-0.347	-0.422
-91.772	-157.787	-0.259	0.015
-90.757	-61.303	0.431	-0.177
-89.743	-200.000	-0.022	0.165
-88.728	-150.166	0.372	0.028
-87.713	-67.042	0.166	-0.064
-86.699	-46.828	-0.162	0.077
-85.684	99.344	-0.197	0.222
-84.670	-33.788	0.326	-0.176
-83.655	800.000	0.121	-0.391
-82.640	75.511	-0.278	0.286
-81.626	-90.110	0.180	-0.051
-80.611	-21.763	-0.396	0.236
-79.597	124.400	-0.220	0.270
-78.582	800.000	0.040	0.155
-77.567	87.284	-0.215	0.232
-76.553	-55.108	-0.109	-0.048
-75.538	185.779	0.222	0.323
-74.524	61.777	-0.096	0.094
-73.509	16.264	0.072	0.056
-72.494	9.171	-0.052	0.038
-71.480	-3.393	0.407	0.276
-70.465	-76.747	0.109	-0.037
-69.451	-86.586	0.454	-0.136
-68.436	-115.295	-0.163	-0.030
-67.422	-62.736	0.354	0.143
-66.407	-85.103	-0.118	-0.036
-65.392	-20.258	-0.108	-0.065
-64.378	-153.904	-0.222	0.015
-63.363	132.294	0.203	0.255
-62.349	-122.076	-0.353	-0.057
-61.334	133.635	-1.062	-1.341
-60.319	24.484	0.579	0.467
-59.305	800.000	-0.362	-1.152
-58.290	259.873	0.844	1.422
-57.276	466.747	0.805	1.760
-56.261	-200.000	122.058	649.093
-55.246	436.854	1540.412	3273.562
-54.232	148.017	2688.664	3537.886
-53.217	99.571	2136.394	2411.919
-52.203	35.697	1579.261	1353.750
-51.188	27.425	1325.271	1086.848
-50.173	24.861	1287.970	1041.321
-49.159	51.322	1356.192	1255.904
-48.144	48.886	1367.859	1252.087
-47.130	27.586	1315.641	1079.734
-46.115	24.321	1297.046	1045.329
-45.100	24.081	1291.975	1039.795
-44.086	24.047	1289.875	1037.869
-43.071	24.161	1287.379	1036.482
-42.057	23.961	1286.198	1034.327
-41.042	24.079	1283.920	1033.138
-40.027	24.034	1282.648	1031.812
-39.013	24.007	1280.847	1030.169
-37.998	24.048	1278.546	1028.515
-36.984	24.197	1277.420	1028.427
-35.969	24.128	1275.274	1026.261
-34.954	24.195	1273.684	1025.326
-33.940	24.221	1272.381	1024.383
-32.925	24.262	1271.016	1023.481
-31.911	24.221	1270.192	1022.542
-30.896	24.359	1267.574	1021.184
-29.881	24.156	1267.302	1019.760
-28.867	24.335	1265.728	1019.482
-27.852	24.305	1264.041	1017.908
-26.838	24.378	1263.220	1017.623
-25.823	24.252	1262.163	1016.012
-24.809	24.292	1260.148	1014.579
-23.794	24.248	1259.097	1013.444
-22.779	24.266	1258.086	1012.692
-21.765	24.242	1256.348	1011.117
-20.750	24.253	1255.575	1010.515
-19.736	24.237	1254.473	1009.498
-18.721	24.155	1253.294	1008.046
-17.706	24.106	1252.130	1006.792
-16.692	24.137	1250.872	1005.912
-15.677	24.243	1249.520	1005.383
-14.663	24.125	1248.822	1004.121
-13.648	24.149	1247.791	1003.388
-12.633	24.148	1246.583	1002.370
-11.619	24.102	1246.063	1001.652
-10.604	24.131	1245.654	1001.445
-9.590	24.104	1244.089	999.997
-8.575	24.164	1243.095	999.497
-7.560	24.138	1242.395	998.747
-6.546	24.185	1241.340	998.120
-5.531	24.098	1241.006	997.328
-4.517	24.019	1240.110	996.126
-3.502	24.080	1239.052	995.574
-2.487	24.120	1238.035	994.941
-1.473	23.925	1233.734	990.364
-0.458	22.501	1218.989	970.648
0.556	18.135	1203.631	934.166
1.571	14.649	1210.557	920.271
2.586	13.892	1226.084	927.765
3.600	13.785	1213.889	917.867
4.615	10.213	1143.241	845.732
5.629	3.861	1072.810	762.321
6.644	0.996	1055.706	736.192
7.659	0.788	1054.055	733.964
8.673	0.704	1052.655	732.517
9.688	0.732	1051.443	731.747
10.702	1.066	1048.580	731.302
11.717	4.845	1053.616	753.046
12.731	11.872	1062.562	793.539
13.746	16.284	1068.848	819.628
14.761	17.405	1069.086	825.177
15.775	16.785	1067.105	820.573
16.790	15.694	1065.394	813.904
17.804	15.027	1063.862	809.440
18.819	14.694	1062.839	806.979
19.834	14.525	1061.516	805.090
20.848	14.195	1060.926	802.975
21.863	13.872	1059.965	800.623
22.877	13.888	1058.746	799.707
23.892	13.791	1058.584	799.047
24.907	13.776	1057.612	798.169
25.921	13.914	1057.054	798.339
26.936	13.832	1056.360	797.351
27.950	13.813	1055.467	796.516
28.965	13.829	1054.201	795.567
29.980	13.918	1052.535	794.667
30.994	13.940	1051.605	793.996
32.009	13.922	1050.907	793.317
33.023	14.096	1049.538	793.043
34.038	13.900	1048.842	791.513
35.053	13.865	1048.348	790.900
36.067	13.882	1046.705	789.672
37.082	13.815	1046.384	789.043
38.096	13.928	1045.775	789.051
39.111	13.943	1044.797	788.313
40.126	13.926	1043.316	787.045
41.140	13.725	1042.729	785.582
42.155	13.672	1041.952	784.678
43.169	13.697	1040.704	783.787
44.184	13.682	1039.423	782.680
45.199	13.651	1038.521	781.784
46.213	13.788	1037.521	781.606
47.228	13.681	1036.813	780.501
48.242	13.749	1035.555	779.804
49.257	13.744	1034.595	778.990
50.271	13.888	1033.504	778.778
51.286	13.908	1032.580	778.106
52.301	13.808	1031.861	777.025
53.315	13.861	1030.320	776.044
54.330	13.861	1030.125	775.829
55.344	13.864	1029.039	774.955
56.359	13.815	1027.964	773.849
57.374	13.825	1027.123	773.196
58.388	13.786	1026.126	772.193
59.403	13.793	1025.503	771.692
60.417	13.692	1024.649	770.511
61.432	13.703	1024.018	770.018
62.447	13.719	1022.957	769.227
63.461	13.513	1022.614	767.947
64.476	13.580	1021.867	767.629
65.490	13.626	1021.036	767.149
66.505	13.660	1020.276	766.666
67.520	13.604	1019.873	766.036
68.534	13.744	1018.521	765.597
69.549	13.683	1018.093	764.927
70.563	13.648	1017.411	764.185
71.578	13.719	1016.288	763.604
72.593	13.820	1015.416	763.346
73.607	13.557	1015.455	762.095
74.622	13.587	1014.630	761.546
75.636	13.623	1013.821	761.036
76.651	13.696	1012.640	760.419
77.666	13.610	1012.534	759.880
78.680	13.772	1011.713	759.937
79.695	13.745	1011.174	759.342
80.709	13.875	1010.050	759.025
81.724	13.732	1009.736	758.066
82.739	13.760	1009.065	757.627
83.753	13.905	1008.386	757.709
84.768	13.902	1007.377	756.869
85.782	13.973	1006.171	756.219
86.797	13.930	1005.517	755.467
87.812	13.806	1004.596	754.146
88.826	13.868	1003.715	753.697
89.841	13.850	1002.503	752.639
90.855	13.934	1001.983	752.564
91.870	13.972	1001.050	751.968
92.884	13.910	1000.567	751.257
93.899	14.066	999.420	751.034
94.914	13.981	998.925	750.212
95.928	13.964	998.013	749.386
96.943	13.965	997.547	748.971
97.957	13.961	996.171	747.857
98.972	13.990	995.043	747.075
99.987	13.984	994.529	746.593
101.001	13.913	993.867	745.714
102.016	13.942	992.720	744.917
103.030	13.939	992.046	744.330
104.045	13.919	991.403	743.694
105.060	13.992	990.148	743.011
106.074	13.926	989.396	742.089
107.089	13.863	988.306	740.921
108.103	13.808	987.773	740.211
109.118	13.943	986.385	739.706
110.133	13.803	985.866	738.629
111.147	13.783	985.054	737.868
112.162	13.827	984.320	737.447
113.176	13.849	983.573	736.919
114.191	13.816	982.793	736.127
115.206	13.883	981.550	735.425
116.220	13.905	980.809	734.904
117.235	13.899	979.891	734.124
118.249	13.948	979.366	733.883
119.264	13.930	978.371	732.992
120.279	13.960	977.966	732.754
121.293	14.008	976.836	732.055
122.308	13.777	976.179	730.479
123.322	13.988	974.749	730.275
124.337	13.898	974.393	729.546
125.352	13.803	973.030	728.045
126.366	13.893	971.880	727.516
127.381	13.947	970.823	726.896
128.395	13.813	970.175	725.762
129.410	13.854	968.786	724.835
130.424	13.932	967.738	724.329
131.439	13.788	967.650	723.569
132.454	13.866	966.507	722.989
133.468	13.795	966.001	722.240
134.483	13.983	964.966	722.221
135.497	13.954	963.960	721.275
136.512	13.909	963.103	720.377
137.527	13.854	962.480	719.607
138.541	13.970	961.264	719.138
139.556	14.070	960.790	719.154
140.570	14.104	959.900	718.569
141.585	14.032	959.459	717.864
142.600	14.116	958.214	717.231
143.614	14.026	957.420	716.185
144.629	14.153	956.782	716.190
145.643	14.110	955.468	714.960
146.658	14.011	954.607	713.829
147.673	14.048	953.875	713.377
148.687	14.114	953.064	712.989
149.702	14.033	952.528	712.179
150.716	14.046	951.637	711.504
151.731	13.986	950.889	710.627
152.746	13.887	950.659	709.967
153.760	14.198	949.155	710.110
154.775	14.138	948.905	709.604
155.789	14.086	948.337	708.895
156.804	14.179	947.343	708.486
157.819	14.132	946.983	707.954
158.833	14.131	946.546	707.558
159.848	14.379	944.794	707.240
160.862	14.303	944.408	706.566
161.877	14.114	943.622	705.115
162.892	14.125	942.894	704.555
163.906	14.246	941.769	704.163
164.921	14.115	941.140	703.076
165.935	14.096	940.372	702.361
166.950	14.193	939.264	701.880
167.964	14.183	938.217	700.994
168.979	14.324	937.397	700.913
169.994	14.326	936.408	700.121
171.008	14.226	935.822	699.201
172.023	14.288	935.553	699.198
173.037	14.301	934.675	698.533
174.052	14.274	934.113	697.938
175.067	14.360	933.275	697.609
176.081	14.216	932.891	696.660
177.096	14.307	932.012	696.321
178.110	14.348	931.570	696.101
179.125	14.233	931.102	695.211
180.140	14.337	930.598	695.208
181.154	14.273	930.187	694.572
182.169	14.453	929.478	694.729
183.183	14.573	928.390	694.353
184.198	14.527	927.690	693.577
185.213	14.474	927.031	692.802
186.227	14.547	926.556	692.692
187.242	14.548	926.204	692.371
188.256	14.641	925.136	691.898
189.271	14.625	924.538	691.320
190.286	14.531	923.487	690.084
191.300	14.398	923.292	689.330
192.315	14.425	922.674	688.920
193.329	14.374	922.260	688.339
194.344	14.402	921.747	688.009
195.359	14.591	920.833	688.046
196.373	14.513	920.517	687.425
197.388	14.641	919.488	687.125
198.402	14.563	919.248	686.565
199.417	14.691	918.485	686.459
200.432	14.607	918.352	685.953
201.446	14.816	917.215	685.902
202.461	14.825	917.181	685.853
203.475	14.727	916.739	685.058
204.490	14.819	915.500	684.448
205.504	14.723	914.794	683.467
206.519	14.750	914.148	683.036
207.534	14.689	913.709	682.399
208.548	14.727	912.764	681.785
209.563	14.750	911.955	681.216
210.577	14.771	911.528	680.922
211.592	14.941	910.737	680.963
212.607	14.836	909.825	679.794
213.621	14.940	909.473	679.895
214.636	14.838	908.831	678.939
215.650	14.805	908.231	678.299
216.665	14.970	907.327	678.232
217.680	14.968	906.738	677.721
218.694	14.897	906.002	676.825
219.709	14.859	905.656	676.351
220.723	14.959	904.792	676.053
221.738	15.007	904.008	675.599
222.753	15.015	902.919	674.757
223.767	15.013	903.065	674.799
224.782	15.042	902.532	674.460
225.796	15.103	901.902	674.174
226.811	15.095	901.376	673.687
227.826	15.066	900.449	672.822
228.840	15.012	899.839	672.088
229.855	15.151	898.606	671.664
230.869	15.070	898.261	671.024
231.884	15.193	897.346	670.772
232.899	15.101	896.780	669.922
233.913	15.136	895.919	669.358
234.928	15.165	895.288	668.946
235.942	15.109	895.054	668.487
236.957	15.148	894.441	668.127
237.972	15.109	893.589	667.274
238.986	15.155	893.247	667.142
240.001	15.068	892.715	666.340
241.015	15.174	891.802	666.023
242.030	15.190	891.439	665.754
243.045	15.176	891.125	665.404
244.059	15.320	890.138	665.181
245.074	15.241	889.451	664.297
246.088	15.261	888.732	663.780
247.103	15.349	887.920	663.462
248.117	15.334	887.615	663.118
249.132	15.553	886.974	663.443
250.147	15.542	886.124	662.707
251.161	15.417	886.037	662.089
252.176	15.437	885.211	661.494
253.190	15.506	884.102	660.876
254.205	15.601	883.442	660.698
255.220	15.602	883.151	660.428
256.234	15.673	882.224	659.954
257.249	15.567	881.600	659.011
258.263	15.576	880.866	658.442
259.278	15.764	880.118	658.559
260.293	15.625	879.936	657.820
261.307	15.830	879.286	658.080
262.322	15.748	878.861	657.382
263.336	15.840	877.641	656.769
264.351	15.889	877.215	656.584
265.366	15.818	876.268	655.540
266.380	15.809	876.072	655.299
267.395	15.779	875.551	654.735
268.409	15.879	874.289	654.123
269.424	15.908	873.426	653.532
270.439	15.786	873.154	652.800
271.453	15.754	872.479	652.111
272.468	15.757	872.100	651.782
273.482	15.771	871.475	651.311
274.497	15.840	870.889	651.082
275.512	15.869	870.169	650.598
276.526	15.894	869.587	650.204
277.541	15.904	869.270	649.948
278.555	15.860	868.704	649.298
279.570	16.100	867.644	649.371
280.585	15.978	866.991	648.354
281.599	15.940	866.530	647.809
282.614	16.124	865.468	647.664
283.628	15.861	864.976	646.226
284.643	15.967	864.588	646.286
285.657	16.044	863.809	645.943
286.672	16.011	863.149	645.265
287.687	16.250	862.571	645.690
288.701	16.296	861.666	645.131
289.716	16.170	861.276	644.302
290.730	16.031	861.114	643.595
291.745	16.168	860.160	643.346
292.760	16.160	859.484	642.753
293.774	16.359	859.192	643.234
294.789	16.150	858.869	642.141
295.803	16.361	857.782	642.073
296.818	16.304	857.002	641.216
297.833	16.189	856.633	640.449
298.847	16.277	855.730	640.049
299.862	16.265	855.275	639.606
300.876	16.418	854.459	639.521
301.891	16.287	854.542	639.027
302.906	16.276	854.002	638.527
303.920	16.452	853.115	638.471
304.935	16.470	852.461	637.995
305.949	16.507	851.725	637.527
306.964	16.385	851.306	636.698
307.979	16.443	850.860	636.526
308.993	16.525	849.918	636.073
310.008	16.392	849.593	635.272
311.022	16.591	848.945	635.479
312.037	16.470	848.817	634.872
313.052	16.377	848.053	633.898
314.066	16.398	847.479	633.490
315.081	16.480	846.511	633.019
316.095	16.487	846.013	632.617
317.110	16.540	845.854	632.638
318.125	16.438	845.314	631.797
319.139	16.466	844.692	631.381
320.154	16.570	844.183	631.333
321.168	16.596	844.044	631.270
322.183	16.587	842.839	630.281
323.197	16.578	842.283	629.776
324.212	16.547	841.930	629.341
325.227	16.611	841.531	629.225
326.241	16.558	841.113	628.660
327.256	16.671	840.179	628.325
328.270	16.617	839.935	627.885
329.285	16.634	839.087	627.258
330.300	16.545	838.635	626.536
331.314	16.641	838.043	626.393
332.329	16.747	837.309	626.183
333.343	16.742	836.838	625.757
334.358	16.713	836.730	625.512
335.373	16.763	836.235	625.272
336.387	16.676	836.219	624.882
337.402	16.913	835.666	625.290
338.416	16.852	835.332	624.758
339.431	16.816	835.358	624.589
340.446	16.957	834.539	624.441
341.460	16.941	834.200	624.075
342.475	16.890	833.703	623.461
343.489	17.000	832.995	623.279
344.504	16.995	832.902	623.135
345.519	16.926	832.579	622.587
346.533	16.983	832.180	622.443
347.548	16.924	831.431	621.611
348.562	16.944	830.992	621.299
349.577	16.883	830.581	620.716
350.592	17.086	829.221	620.385
351.606	17.011	828.893	619.810
352.621	17.017	828.072	619.165
353.635	17.008	827.472	618.629
354.650	17.065	826.965	618.401
355.665	16.911	826.713	617.598
356.679	17.133	825.649	617.556
357.694	17.192	824.890	617.149
358.708	17.130	824.800	616.800
359.723	17.063	824.263	616.100
360.738	17.249	822.988	615.767
361.752	17.222	822.811	615.482
362.767	17.071	822.492	614.643
363.781	17.278	821.724	614.762
364.796	17.273	821.480	614.508
365.810	17.291	821.398	614.457
366.825	17.242	820.870	613.832
367.840	17.322	820.380	613.700
368.854	17.477	819.781	613.756
369.869	17.372	819.157	612.857
370.883	17.367	818.879	612.576
371.898	17.543	818.434	612.821
372.913	17.478	818.057	612.252
373.927	17.418	817.810	611.797
374.942	17.475	817.377	611.625
375.956	17.637	816.396	611.418
376.971	17.570	815.890	610.744
377.986	17.532	815.918	610.575
379.000	17.642	815.007	610.231
380.015	17.693	814.728	610.152
381.029	17.605	814.224	609.407
382.044	17.680	813.479	609.063
383.059	17.558	812.975	608.197
384.073	17.662	812.507	608.164
385.088	17.802	811.662	607.976
386.102	17.744	811.003	607.220
387.117	17.602	810.873	606.565
388.132	17.547	810.249	605.850
389.146	17.650	809.522	605.617
390.161	17.690	809.321	605.556
391.175	17.895	808.416	605.551
392.190	17.747	808.465	605.010
393.205	17.763	807.892	604.584
394.219	17.615	807.697	603.862
395.234	17.733	807.322	603.945
396.248	17.878	806.411	603.723
397.263	17.636	806.512	602.888
398.278	17.733	806.037	602.822
399.292	17.751	805.286	602.272
400.307	17.693	805.129	601.895
401.321	17.813	804.541	601.826
402.336	17.894	803.683	601.418
403.350	17.785	803.579	600.903
404.365	17.953	803.343	601.266
405.380	17.963	802.824	600.859
406.394	17.875	802.479	600.239
407.409	17.970	801.653	599.900
408.423	17.974	801.473	599.727
409.438	18.098	801.015	599.766
410.453	18.015	800.431	598.984
411.467	18.126	799.560	598.668
412.482	18.301	799.281	599.018
413.496	18.248	798.972	598.548
414.511	18.188	798.899	598.233
415.526	18.230	798.289	597.869
416.540	18.273	797.775	597.582
417.555	18.155	797.396	596.832
418.569	18.264	796.937	596.814
419.584	18.094	796.749	596.030
420.599	18.237	796.414	596.225
421.613	116.245	1297.121	1490.602
422.628	100.259	1370.024	1490.654
