DTS Sentinel unit serial number:	SN413079Multiplexer serial number:	ORYXHardware model number:	OX4-SRSoftware version number:	ORYX F/W v4.00 Oryx Data Collector v3.7.2.0data status	okinstallation	princeton_trtdifferential loss correction	single-endedforward channel	channel 1reverse channel	N/Adate	2019/09/11time	08:12:11forward acquisition time	60.00reverse acquisition time	0.00gamma	496.2192k internal	0.2319k external	0.2319temperature offset calibration	1.0008default loss term (dB/km)	0.3790temperature slope calibration	1.0000multiplexer offset coefficient	1.0000multiplexer slope coefficient	1.0000fibre end	0.00T internal ref (°C)	32.45T ext. ref 1 (°C)	0.90T ext. ref 2 (°C)	29.27length (m)	temperature (°C)	Stokes	anti-Stokes-747.200	-200.000	0.027	-0.141
-746.185	79.902	-0.164	0.178
-745.171	-96.378	-0.355	0.095
-744.156	800.000	-0.059	-0.233
-743.142	-50.169	0.088	0.042
-742.127	388.563	0.119	0.249
-741.112	-97.698	0.284	-0.074
-740.098	124.243	-0.184	0.234
-739.083	-134.158	0.234	-0.029
-738.069	328.422	-0.243	0.471
-737.054	11.424	-0.460	-0.357
-736.039	-200.000	0.004	0.203
-735.025	-200.000	0.015	0.117
-734.010	-133.444	-0.427	-0.054
-732.996	-155.265	-0.377	0.025
-731.981	-66.607	0.393	-0.158
-730.966	-147.987	-0.152	0.013
-729.952	-56.817	-0.269	0.120
-728.937	-40.871	-0.283	0.148
-727.923	48.832	-0.168	-0.160
-726.908	185.969	0.153	-0.230
-725.894	250.961	0.092	-0.158
-724.879	800.000	0.101	-0.342
-723.864	-144.702	-0.195	-0.018
-722.850	800.000	0.103	-0.451
-721.835	800.000	-0.061	0.263
-720.821	-66.447	-0.164	0.066
-719.806	39.226	-0.036	0.032
-718.791	800.000	-0.098	0.337
-717.777	-37.374	-0.269	-0.145
-716.762	800.000	-0.035	0.124
-715.748	-200.000	0.027	-0.337
-714.733	718.227	-0.083	-0.223
-713.718	-200.000	-0.073	-0.408
-712.704	15.489	-0.156	-0.124
-711.689	-51.601	-0.050	-0.023
-710.675	-135.972	-0.076	-0.009
-709.660	64.982	0.227	-0.232
-708.645	5.563	-0.250	-0.187
-707.631	800.000	0.098	0.399
-706.616	-200.000	0.031	-0.418
-705.602	-53.481	0.159	-0.074
-704.587	139.795	-0.214	-0.285
-703.572	-154.552	-0.214	-0.014
-702.558	7.185	-0.116	0.087
-701.543	-96.885	0.081	0.021
-700.529	62.470	-0.125	-0.126
-699.514	130.711	0.066	-0.086
-698.499	-88.918	0.138	-0.041
-697.485	61.058	0.060	-0.060
-696.470	-120.021	-0.262	0.045
-695.456	530.567	0.071	-0.169
-694.441	509.151	0.023	-0.053
-693.426	-200.000	0.041	0.184
-692.412	278.507	-0.050	-0.091
-691.397	-200.000	-0.039	-0.315
-690.383	-138.660	-0.176	0.019
-689.368	-99.372	-0.052	0.013
-688.354	-143.988	0.205	-0.019
-687.339	238.864	-0.130	-0.219
-686.324	-173.007	-0.268	0.008
-685.310	-200.000	-0.028	0.234
-684.295	159.182	-0.117	0.164
-683.281	800.000	0.025	-0.075
-682.266	-115.075	0.111	-0.021
-681.251	-122.625	-0.263	0.043
-680.237	534.140	0.034	-0.081
-679.222	-40.822	-0.192	0.100
-678.208	-200.000	-0.077	0.468
-677.193	800.000	-0.024	-0.078
-676.178	19.488	-0.076	0.061
-675.164	-200.000	0.046	0.307
-674.149	-115.485	-0.160	0.030
-673.135	274.317	0.100	-0.179
-672.120	44.336	0.193	0.179
-671.105	169.532	0.173	0.250
-670.091	-165.902	0.061	-0.003
-669.076	-200.000	-0.005	0.307
-668.062	-200.000	-0.010	-0.083
-667.047	359.531	0.123	0.249
-666.032	-200.000	0.036	0.327
-665.018	-29.869	-0.118	-0.068
-664.003	800.000	-0.070	0.259
-662.989	319.730	0.202	-0.387
-661.974	367.836	0.143	-0.291
-660.959	-29.684	0.149	-0.086
-659.945	248.593	-0.125	0.214
-658.930	-170.482	0.162	-0.006
-657.916	-200.000	-0.006	0.117
-656.901	-113.316	-0.062	0.012
-655.886	-112.803	0.324	-0.065
-654.872	-147.375	-0.229	0.020
-653.857	-2.067	-0.085	-0.060
-652.843	226.447	-0.145	-0.237
-651.828	75.206	-0.074	-0.079
-650.814	800.000	-0.039	0.159
-649.799	-85.136	-0.138	-0.043
-648.784	67.512	0.143	-0.147
-647.770	245.271	0.130	-0.221
-646.755	-113.673	-0.161	-0.032
-645.741	649.469	-0.054	-0.140
-644.726	-200.000	-0.007	0.253
-643.711	108.294	0.111	-0.134
-642.697	-200.000	-0.013	0.244
-641.682	318.215	-0.147	0.281
-640.668	119.060	0.116	-0.145
-639.653	15.758	-0.054	0.043
-638.638	-200.000	0.019	-0.117
-637.624	180.557	-0.097	0.143
-636.609	406.140	-0.075	0.159
-635.595	-147.818	-0.300	0.025
-634.580	0.115	-0.078	-0.056
-633.565	41.752	-0.176	0.161
-632.551	-78.638	-0.206	-0.071
-631.536	67.097	-0.235	0.241
-630.522	-200.000	0.049	0.276
-629.507	-22.836	0.316	-0.192
-628.492	-52.133	0.106	-0.050
-627.478	127.473	-0.129	0.165
-626.463	-146.853	0.407	0.035
-625.449	-186.696	0.243	0.003
-624.434	-117.587	-0.114	-0.021
-623.419	-9.783	-0.076	0.051
-622.405	-111.129	-0.204	0.042
-621.390	-109.218	0.096	0.021
-620.376	800.000	-0.083	-0.362
-619.361	-200.000	-0.051	-0.240
-618.346	-41.745	0.197	-0.102
-617.332	120.491	0.084	-0.106
-616.317	-200.000	-0.018	0.138
-615.303	557.394	-0.083	0.201
-614.288	-200.000	0.024	-0.186
-613.273	206.104	0.184	-0.288
-612.259	-200.000	0.005	-0.162
-611.244	84.052	0.181	0.199
-610.230	170.425	-0.113	-0.162
-609.215	-18.488	-0.188	0.118
-608.201	-200.000	0.002	-0.422
-607.186	800.000	-0.081	-0.240
-606.171	-90.874	0.405	0.117
-605.157	-112.615	-0.279	-0.056
-604.142	291.202	0.122	-0.224
-603.128	-84.410	-0.236	-0.075
-602.113	63.184	0.249	0.251
-601.098	93.839	-0.183	0.209
-600.084	-124.258	0.187	-0.029
-599.069	800.000	-0.069	0.202
-598.055	-200.000	0.058	0.258
-597.040	-140.813	-0.593	-0.061
-596.025	800.000	0.091	-0.297
-595.011	800.000	-0.067	-0.253
-593.996	-56.129	-0.238	-0.106
-592.982	-171.708	0.152	-0.005
-591.967	-57.413	-0.073	-0.032
-590.952	608.332	0.040	-0.101
-589.938	22.618	0.094	0.077
-588.923	676.006	0.127	-0.331
-587.909	38.518	-0.046	-0.042
-586.894	800.000	-0.049	0.185
-585.879	-56.040	0.161	0.072
-584.865	-66.610	-0.227	0.090
-583.850	-128.612	0.046	-0.007
-582.836	-104.378	0.191	-0.044
-581.821	-56.360	0.108	0.048
-580.806	628.521	0.104	-0.264
-579.792	-16.788	0.314	-0.199
-578.777	6.616	-0.086	-0.064
-577.763	-200.000	-0.016	0.086
-576.748	-90.082	-0.280	0.082
-575.733	-200.000	-0.023	0.230
-574.719	800.000	0.040	0.162
-573.704	-200.000	-0.030	-0.213
-572.690	-200.000	0.036	-0.185
-571.675	-200.000	0.000	0.204
-570.661	242.697	0.146	0.245
-569.646	-200.000	0.044	0.245
-568.631	-200.000	-0.031	-0.142
-567.617	800.000	-0.023	-0.097
-566.602	-163.774	0.040	-0.002
-565.588	40.313	-0.143	-0.129
-564.573	84.289	-0.105	-0.115
-563.558	-87.945	0.316	-0.096
-562.544	-106.025	-0.252	-0.057
-561.529	800.000	0.020	0.076
-560.515	-200.000	-0.032	0.333
-559.500	-200.000	0.001	-0.145
-558.485	276.210	-0.178	-0.318
-557.471	-99.170	0.221	0.056
-556.456	124.866	0.089	0.113
-555.442	-113.628	0.135	0.026
-554.427	45.758	0.018	-0.017
-553.412	509.706	-0.042	0.099
-552.398	-71.367	-0.117	0.044
-551.383	8.261	0.164	0.123
-550.369	-200.000	0.054	0.414
-549.354	-130.657	0.217	-0.029
-548.339	-20.370	-0.305	0.189
-547.325	123.685	-0.119	0.150
-546.310	204.924	-0.198	-0.309
-545.296	84.581	-0.209	-0.229
-544.281	-116.464	0.229	-0.042
-543.266	28.599	-0.543	0.461
-542.252	-200.000	-0.045	-0.264
-541.237	-52.367	-0.185	0.086
-540.223	68.550	0.154	-0.159
-539.208	148.638	0.021	-0.028
-538.193	118.743	0.129	0.160
-537.179	-200.000	-0.046	0.276
-536.164	-200.000	-0.047	0.227
-535.150	113.174	-0.015	-0.018
-534.135	169.917	-0.139	-0.199
-533.121	800.000	0.122	-0.432
-532.106	-13.567	-0.107	0.070
-531.091	24.404	0.307	0.254
-530.077	-200.000	-0.009	-0.394
-529.062	-121.838	0.035	-0.006
-528.048	-96.666	-0.180	-0.048
-527.033	39.836	0.243	-0.219
-526.018	-26.066	-0.103	0.061
-525.004	-200.000	0.071	-0.330
-523.989	-200.000	-0.017	-0.283
-522.975	-200.000	0.047	-0.246
-521.960	22.832	-0.206	-0.170
-520.945	-75.112	-0.230	0.083
-519.931	800.000	0.025	0.103
-518.916	-200.000	-0.003	-0.014
-517.902	14.188	0.063	0.049
-516.887	-85.747	-0.239	-0.074
-515.872	-200.000	0.046	0.312
-514.858	-92.043	-0.290	0.082
-513.843	80.048	0.126	-0.136
-512.829	2.909	-0.136	0.099
-511.814	63.672	0.151	0.152
-510.799	-31.973	-0.086	0.048
-509.785	54.905	-0.244	0.237
-508.770	629.676	-0.013	0.033
-507.756	-106.970	0.092	-0.020
-506.741	-77.238	0.117	-0.041
-505.726	800.000	-0.132	-0.374
-504.712	-200.000	-0.036	0.164
-503.697	26.822	-0.163	0.137
-502.683	85.539	-0.027	-0.030
-501.668	-147.745	-0.421	0.035
-500.653	-200.000	0.025	-0.204
-499.639	-168.790	0.196	-0.007
-498.624	800.000	-0.061	0.252
-497.610	-83.305	-0.016	0.005
-496.595	-75.893	0.270	0.096
-495.581	-92.096	0.063	-0.018
-494.566	-8.223	-0.195	-0.131
-493.551	-200.000	-0.066	-0.299
-492.537	-101.661	-0.196	0.048
-491.522	-200.000	-0.065	0.284
-490.508	-140.238	0.346	0.036
-489.493	-200.000	0.091	-0.422
-488.478	342.420	-0.100	-0.195
-487.464	-200.000	0.049	-0.279
-486.449	106.046	0.278	0.330
-485.435	-200.000	-0.012	0.256
-484.420	536.567	-0.037	0.087
-483.405	451.917	-0.128	-0.284
-482.391	-94.630	-0.087	0.024
-481.376	-200.000	0.035	-0.253
-480.362	-151.333	-0.298	0.022
-479.347	-6.930	-0.170	-0.116
-478.332	800.000	0.089	-0.274
-477.318	-143.057	-0.351	-0.034
-476.303	456.117	-0.065	0.145
-475.289	-67.037	0.122	0.048
-474.274	-34.073	0.039	-0.021
-473.259	145.698	0.242	0.325
-472.245	70.318	0.246	0.254
-471.230	-200.000	0.001	0.246
-470.216	-185.616	0.052	-0.001
-469.201	800.000	-0.028	0.122
-468.186	-200.000	0.042	-0.201
-467.172	46.727	-0.087	0.081
-466.157	-63.102	-0.209	0.086
-465.143	115.937	0.083	0.102
-464.128	-136.178	-0.104	-0.012
-463.113	-200.000	-0.007	0.186
-462.099	110.285	-0.132	-0.158
-461.084	800.000	-0.087	0.334
-460.070	202.691	0.089	-0.137
-459.055	207.852	-0.098	-0.153
-458.040	-200.000	-0.021	-0.254
-457.026	-18.429	0.069	0.043
-456.011	-34.760	0.369	0.202
-454.997	189.654	0.089	0.134
-453.982	75.460	-0.052	-0.055
-452.968	59.735	-0.094	0.093
-451.953	-1.257	-0.361	-0.255
-450.938	613.675	-0.113	0.284
-449.924	-166.057	0.135	0.006
-448.909	800.000	0.083	-0.329
-447.895	-36.374	-0.134	0.072
-446.880	222.310	0.012	-0.020
-445.865	-114.315	-0.162	0.031
-444.851	-6.333	0.040	0.028
-443.836	-200.000	-0.032	0.313
-442.822	-200.000	0.005	-0.046
-441.807	-25.358	0.147	0.087
-440.792	-60.257	0.138	0.059
-439.778	-200.000	-0.007	-0.034
-438.763	514.980	-0.050	-0.116
-437.749	70.733	-0.125	0.129
-436.734	-5.980	-0.099	0.067
-435.719	-139.054	0.135	0.015
-434.705	-139.169	0.192	0.021
-433.690	-200.000	-0.034	0.411
-432.676	-200.000	-0.057	0.528
-431.661	65.403	-0.170	-0.172
-430.646	-98.115	-0.245	-0.063
-429.632	143.035	-0.103	0.137
-428.617	-136.992	-0.231	0.026
-427.603	-170.047	-0.082	0.003
-426.588	9.493	0.036	0.027
-425.573	-131.798	-0.244	0.032
-424.559	68.427	-0.114	-0.116
-423.544	-3.338	-0.248	0.173
-422.530	136.094	0.082	0.107
-421.515	-200.000	-0.006	0.159
-420.500	273.757	0.203	0.358
-419.486	251.764	-0.136	-0.231
-418.471	160.307	0.098	-0.137
-417.457	312.129	-0.092	0.172
-416.442	-200.000	-0.015	0.386
-415.428	429.284	-0.122	0.263
-414.413	-123.833	-0.285	-0.045
-413.398	800.000	0.084	0.313
-412.384	118.650	0.202	0.249
-411.369	258.313	0.202	0.347
-410.355	800.000	0.123	0.370
-409.340	-76.146	0.318	-0.112
-408.325	174.450	0.108	-0.156
-407.311	-200.000	0.046	0.231
-406.296	-67.199	-0.223	0.088
-405.282	-79.548	0.179	-0.060
-404.267	-91.266	0.281	-0.080
-403.252	27.197	0.299	0.250
-402.238	175.531	-0.056	-0.081
-401.223	434.653	-0.047	-0.103
-400.209	127.108	0.133	-0.169
-399.194	-71.954	-0.431	-0.160
-398.179	-110.245	-0.160	-0.033
-397.165	-200.000	0.030	-0.153
-396.150	245.473	0.054	0.091
-395.136	-57.762	0.265	-0.116
-394.121	-28.265	0.264	-0.152
-393.106	484.027	-0.098	-0.223
-392.092	634.452	-0.071	0.179
-391.077	125.294	-0.098	0.123
-390.063	204.159	-0.152	-0.234
-389.048	157.049	0.112	-0.154
-388.033	131.831	-0.139	0.178
-387.019	-50.985	-0.167	-0.078
-386.004	-89.645	0.420	-0.123
-384.990	484.483	0.094	-0.213
-383.975	-103.708	0.047	0.011
-382.960	42.837	0.161	0.146
-381.946	-200.000	0.006	0.046
-380.931	-45.173	-0.222	-0.110
-379.917	3.199	0.154	0.112
-378.902	142.793	-0.072	-0.096
-377.888	35.709	-0.130	-0.114
-376.873	-200.000	-0.076	-0.415
-375.858	-22.090	0.238	0.144
-374.844	-135.965	0.234	0.027
-373.829	-103.213	0.444	-0.105
-372.815	-80.591	-0.292	-0.097
-371.800	127.621	0.232	0.293
-370.785	253.771	-0.139	-0.236
-369.771	-200.000	0.069	-0.322
-368.756	287.841	0.038	-0.069
-367.742	-17.614	-0.120	0.075
-366.727	11.032	0.128	0.098
-365.712	195.635	-0.035	-0.053
-364.698	704.525	0.081	-0.212
-363.683	6.205	-0.173	0.128
-362.669	107.761	-0.132	-0.156
-361.654	-200.000	0.024	0.341
-360.639	-163.994	0.137	0.006
-359.625	16.569	0.169	0.133
-358.610	193.452	0.137	0.206
-357.596	800.000	-0.066	0.207
-356.581	-187.512	0.327	-0.004
-355.566	-63.119	-0.142	-0.058
-354.552	112.345	0.099	-0.119
-353.537	101.621	-0.206	-0.239
-352.523	119.792	-0.080	0.099
-351.508	665.979	-0.071	0.183
-350.493	-93.030	0.160	-0.044
-349.479	800.000	-0.045	0.156
-348.464	75.751	0.298	0.314
-347.450	130.673	-0.095	0.122
-346.435	-36.840	0.147	-0.079
-345.420	-81.201	-0.168	0.055
-344.406	476.103	-0.068	-0.154
-343.391	800.000	-0.013	0.056
-342.377	119.056	-0.109	0.134
-341.362	-65.171	0.295	0.119
-340.348	-200.000	0.016	0.530
-339.333	-64.690	0.471	-0.190
-338.318	23.875	-0.352	0.289
-337.304	706.439	0.163	0.428
-336.289	800.000	-0.104	-0.365
-335.275	213.784	0.153	-0.241
-334.260	121.377	0.150	-0.186
-333.245	-1.138	0.074	-0.052
-332.231	-2.742	0.169	-0.117
-331.216	-70.596	0.142	-0.054
-330.202	-153.224	0.188	-0.013
-329.187	-200.000	-0.014	-0.141
-328.172	-200.000	0.006	-0.141
-327.158	242.045	0.130	-0.217
-326.143	800.000	0.052	0.145
-325.129	427.980	0.109	-0.234
-324.114	-200.000	0.052	-0.271
-323.099	34.589	-0.055	-0.048
-322.085	472.850	0.067	0.150
-321.070	64.063	0.126	0.126
-320.056	-45.793	-0.544	0.268
-319.041	800.000	0.007	0.025
-318.026	-123.888	0.214	-0.034
-317.012	-51.572	-0.104	0.048
-315.997	-200.000	0.007	0.152
-314.983	329.734	-0.039	0.075
-313.968	800.000	0.056	-0.174
-312.953	-108.630	-0.142	0.030
-311.939	473.646	-0.087	0.196
-310.924	-200.000	0.059	0.263
-309.910	-7.137	-0.182	-0.123
-308.895	-200.000	-0.059	0.293
-307.880	-71.172	0.141	-0.053
-306.866	4.669	-0.095	-0.069
-305.851	-72.136	-0.141	0.052
-304.837	-132.253	-0.311	0.040
-303.822	800.000	-0.075	-0.288
-302.807	800.000	0.040	0.117
-301.793	-155.180	-0.269	0.017
-300.778	99.302	0.147	0.169
-299.764	-135.119	0.249	-0.030
-298.749	-200.000	0.024	-0.403
-297.735	-36.947	-0.151	0.080
-296.720	27.105	0.090	-0.075
-295.705	-102.489	0.244	-0.058
-294.691	-200.000	0.029	0.195
-293.676	-19.293	0.115	0.071
-292.662	800.000	0.040	-0.133
-291.647	-34.276	0.088	0.048
-290.632	-69.571	0.274	-0.104
-289.618	84.367	-0.195	0.212
-288.603	-200.000	0.013	0.268
-287.589	-137.537	-0.077	-0.009
-286.574	121.134	-0.232	-0.287
-285.559	-200.000	0.013	-0.324
-284.545	374.221	0.021	0.042
-283.530	4.454	0.095	-0.069
-282.516	-110.586	0.176	0.036
-281.501	172.260	0.288	0.411
-280.486	-11.986	-0.228	0.149
-279.472	44.986	-0.096	0.088
-278.457	-3.399	0.230	0.159
-277.443	-74.995	-0.215	-0.076
-276.428	-101.891	-0.241	0.058
-275.413	800.000	0.116	0.366
-274.399	800.000	0.088	0.307
-273.384	-94.276	-0.181	0.049
-272.370	202.834	-0.015	0.023
-271.355	-200.000	0.015	-0.205
-270.340	49.863	0.097	-0.091
-269.326	-39.800	-0.074	-0.039
-268.311	-200.000	0.023	-0.244
-267.297	-103.179	-0.130	-0.031
-266.282	-16.051	0.291	-0.184
-265.267	202.789	0.161	-0.247
-264.253	-29.881	0.154	-0.087
-263.238	348.046	0.209	0.409
-262.224	252.856	0.081	-0.138
-261.209	56.634	-0.113	0.109
-260.195	-47.153	0.176	0.085
-259.180	-116.444	0.277	0.051
-258.165	435.702	0.094	0.203
-257.151	-181.811	-0.138	0.003
-256.136	-108.995	-0.263	0.056
-255.122	230.850	0.043	-0.070
-254.107	800.000	-0.005	0.014
-253.092	9.638	0.266	-0.200
-252.078	9.525	0.323	0.243
-251.063	279.636	-0.095	0.168
-250.049	-79.654	0.124	0.042
-249.034	86.166	-0.183	0.200
-248.019	-23.288	0.197	0.118
-247.005	75.371	0.152	-0.160
-245.990	-200.000	-0.004	0.154
-244.976	-97.907	-0.302	-0.077
-243.961	392.311	0.105	-0.216
-242.946	-37.037	-0.097	0.051
-241.932	9.695	0.325	-0.244
-240.917	-117.602	0.211	-0.038
-239.903	523.411	0.161	-0.374
-238.888	138.274	0.094	-0.122
-237.873	800.000	-0.032	-0.108
-236.859	-66.865	-0.181	0.071
-235.844	92.070	0.081	-0.090
-234.830	110.683	-0.114	0.136
-233.815	219.634	-0.157	-0.249
-232.800	-200.000	0.005	-0.169
-231.786	800.000	0.039	-0.158
-230.771	-168.420	-0.368	-0.014
-229.757	800.000	0.062	-0.170
-228.742	-29.918	0.192	-0.108
-227.727	-200.000	-0.032	0.156
-226.713	-8.622	-0.064	-0.042
-225.698	-115.805	-0.117	0.022
-224.684	-200.000	-0.006	-0.165
-223.669	130.276	-0.048	-0.060
-222.655	-200.000	-0.060	-0.268
-221.640	104.207	0.118	-0.138
-220.625	-110.451	-0.315	0.065
-219.611	-131.375	-0.227	-0.030
-218.596	533.933	0.114	-0.268
-217.582	79.388	0.171	-0.182
-216.567	24.166	0.210	-0.172
-215.552	-200.000	-0.010	-0.211
-214.538	13.138	-0.222	-0.170
-213.523	-185.629	0.101	0.002
-212.509	-23.991	0.328	0.194
-211.494	800.000	-0.073	0.233
-210.479	-46.272	0.248	0.121
-209.465	-61.386	0.161	-0.067
-208.450	-82.896	-0.315	0.101
-207.436	-200.000	0.007	0.060
-206.421	-200.000	0.082	0.414
-205.406	-157.429	0.114	-0.007
-204.392	-200.000	-0.005	-0.062
-203.377	121.183	0.200	-0.247
-202.363	72.137	-0.144	0.148
-201.348	106.500	-0.295	0.346
-200.333	145.094	-0.176	-0.234
-199.319	-31.257	0.017	0.009
-198.304	249.665	0.143	0.239
-197.290	151.881	-0.250	-0.338
-196.275	-41.655	-0.388	-0.197
-195.260	-114.872	-0.211	0.040
-194.246	39.778	0.265	-0.235
-193.231	-200.000	0.013	-0.087
-192.217	800.000	-0.019	-0.076
-191.202	-200.000	-0.012	0.092
-190.187	101.145	-0.251	-0.289
-189.173	17.605	0.325	-0.256
-188.158	-114.859	-0.247	-0.047
-187.144	59.964	-0.324	-0.317
-186.129	93.672	0.338	0.379
-185.114	578.094	0.077	-0.186
-184.100	140.455	0.112	0.147
-183.085	-73.925	0.256	0.092
-182.071	-106.798	-0.286	-0.063
-181.056	109.371	0.171	0.202
-180.042	123.499	-0.159	-0.197
-179.027	-42.778	-0.198	0.100
-178.012	9.814	-0.136	-0.102
-176.998	75.457	-0.132	-0.138
-175.983	-200.000	-0.023	-0.132
-174.969	261.332	-0.033	-0.057
-173.954	-200.000	0.046	-0.294
-172.939	81.329	0.054	-0.058
-171.925	29.809	0.038	-0.032
-170.910	-110.762	-0.157	-0.032
-169.896	-121.305	-0.306	-0.051
-168.881	800.000	0.058	-0.172
-167.866	-110.366	0.311	0.064
-166.852	-52.426	-0.288	-0.132
-165.837	-4.243	-0.086	0.059
-164.823	-83.120	0.243	-0.077
-163.808	-68.903	0.249	0.095
-162.793	-66.333	0.173	-0.068
-161.779	-23.479	-0.105	0.062
-160.764	-200.000	0.024	-0.210
-159.750	6.939	-0.148	0.109
-158.735	495.064	0.132	0.299
-157.720	539.948	0.050	0.118
-156.706	85.109	-0.181	0.196
-155.691	-121.691	0.118	-0.019
-154.677	800.000	0.008	0.030
-153.662	209.406	0.139	0.216
-152.647	-200.000	0.020	-0.168
-151.633	243.118	-0.110	0.181
-150.618	-200.000	-0.021	0.195
-149.604	-200.000	0.002	0.090
-148.589	109.403	-0.070	-0.083
-147.574	1.553	-0.138	0.098
-146.560	-200.000	-0.011	0.178
-145.545	800.000	-0.008	-0.031
-144.531	-134.103	-0.297	-0.036
-143.516	-200.000	0.040	0.225
-142.502	-139.110	-0.302	0.032
-141.487	206.659	-0.214	0.330
-140.472	-30.321	-0.456	0.256
-139.458	10.775	-0.125	-0.094
-138.443	-70.207	0.266	-0.100
-137.429	213.679	-0.040	0.063
-136.414	171.434	-0.140	-0.198
-135.399	51.393	-0.074	0.070
-134.385	-132.304	0.035	0.004
-133.370	-177.827	-0.258	-0.006
-132.356	-200.000	-0.025	-0.141
-131.341	304.755	0.075	0.137
-130.326	800.000	0.086	-0.252
-129.312	345.604	-0.036	0.070
-128.297	2.437	-0.134	0.096
-127.283	352.541	-0.163	0.319
-126.268	53.249	-0.079	-0.075
-125.253	-200.000	0.046	-0.347
-124.239	-32.539	-0.380	-0.209
-123.224	-93.973	0.143	-0.039
-122.210	-116.261	0.123	-0.023
-121.195	68.538	0.144	-0.146
-120.180	-97.156	0.092	-0.024
-119.166	131.637	-0.286	0.363
-118.151	-105.746	-0.380	0.085
-117.137	800.000	-0.022	-0.078
-116.122	26.828	0.240	-0.199
-115.107	104.375	-0.130	0.152
-114.093	-138.790	0.125	-0.013
-113.078	764.829	0.137	-0.366
-112.064	-74.114	0.146	0.052
-111.049	48.367	-0.120	-0.111
-110.034	800.000	0.085	-0.268
-109.020	800.000	-0.045	0.133
-108.005	-111.751	0.076	-0.015
-106.991	-124.254	0.164	-0.025
-105.976	-45.388	0.222	-0.109
-104.962	200.835	0.148	-0.224
-103.947	285.646	0.138	-0.246
-102.932	-106.421	-0.204	0.045
-101.918	34.131	0.214	0.184
-100.903	-62.666	-0.057	0.023
-99.889	-121.953	0.149	0.024
-98.874	-142.872	0.183	-0.018
-97.859	-200.000	0.013	0.229
-96.845	-200.000	0.021	-0.160
-95.830	800.000	0.091	-0.348
-94.816	-38.512	-0.100	0.052
-93.801	71.628	-0.208	-0.213
-92.786	-172.070	-0.381	0.012
-91.772	-157.725	-0.174	-0.010
-90.757	800.000	-0.049	-0.182
-89.743	295.949	-0.096	-0.173
-88.728	-66.180	-0.186	0.073
-87.713	199.834	-0.074	0.112
-86.699	-36.963	-0.169	0.089
-85.684	231.110	0.065	-0.105
-84.670	111.912	-0.131	-0.156
-83.655	800.000	-0.099	0.381
-82.640	16.933	0.069	-0.054
-81.626	221.231	0.068	0.108
-80.611	-200.000	0.025	-0.216
-79.597	800.000	0.041	-0.128
-78.582	-120.345	-0.385	0.065
-77.567	205.560	-0.090	-0.138
-76.553	-130.113	0.343	-0.046
-75.538	-32.461	-0.125	0.068
-74.524	-200.000	-0.001	-0.060
-73.509	107.567	-0.128	0.150
-72.494	133.092	-0.062	0.078
-71.480	-44.497	0.146	0.072
-70.465	-32.791	-0.291	0.159
-69.451	-5.111	0.147	-0.100
-68.436	-161.958	0.225	-0.011
-67.422	117.315	-0.168	-0.204
-66.407	-57.127	0.324	-0.141
-65.392	63.860	-0.276	-0.274
-64.378	-200.000	0.015	0.065
-63.363	-166.097	0.128	0.005
-62.349	-55.707	-0.155	0.068
-61.334	136.879	-0.877	-1.128
-60.319	465.678	0.224	0.495
-59.305	800.000	-0.246	-0.702
-58.290	402.730	0.597	1.236
-57.276	665.478	0.540	1.374
-56.261	-200.000	102.597	658.223
-55.246	631.714	1461.092	3642.684
-54.232	177.847	2677.453	3843.880
-53.217	121.397	2191.631	2688.009
-52.203	44.968	1631.243	1478.886
-51.188	35.922	1365.836	1182.961
-50.173	32.778	1322.847	1126.933
-49.159	58.309	1375.062	1327.253
-48.144	60.496	1391.246	1356.062
-47.130	36.325	1344.777	1166.978
-46.115	32.693	1327.171	1129.931
-45.100	32.385	1322.575	1124.133
-44.086	32.395	1319.616	1121.632
-43.071	32.344	1317.588	1119.558
-42.057	32.212	1315.362	1116.841
-41.042	32.343	1313.546	1116.028
-40.027	32.419	1312.137	1115.237
-39.013	32.255	1310.495	1112.827
-37.998	32.344	1308.961	1112.008
-36.984	32.322	1307.114	1110.268
-35.969	32.449	1305.310	1109.436
-34.954	32.494	1303.433	1108.064
-33.940	32.682	1301.576	1107.546
-32.925	32.531	1300.687	1105.857
-31.911	32.599	1299.195	1104.946
-30.896	32.524	1297.547	1103.059
-29.881	32.570	1295.997	1101.971
-28.867	32.613	1294.886	1101.234
-27.852	32.653	1293.487	1100.234
-26.838	32.624	1291.878	1098.652
-25.823	32.502	1290.475	1096.702
-24.809	32.557	1288.774	1095.535
-23.794	32.493	1287.578	1094.101
-22.779	32.594	1286.181	1093.459
-21.765	32.537	1285.428	1092.444
-20.750	32.501	1283.889	1090.883
-19.736	32.307	1283.055	1089.010
-18.721	32.399	1281.621	1088.280
-17.706	32.376	1280.330	1087.008
-16.692	32.464	1278.886	1086.245
-15.677	32.410	1277.856	1085.019
-14.663	32.543	1276.518	1084.602
-13.648	32.402	1276.049	1083.352
-12.633	32.436	1274.256	1081.981
-11.619	32.389	1274.137	1081.564
-10.604	32.400	1273.248	1080.835
-9.590	32.267	1272.351	1079.262
-8.575	32.342	1271.258	1078.723
-7.560	32.369	1270.504	1078.196
-6.546	32.354	1269.671	1077.363
-5.531	32.330	1269.157	1076.746
-4.517	32.343	1268.161	1075.934
-3.502	32.374	1266.838	1074.944
-2.487	32.361	1265.960	1074.081
-1.473	32.482	1262.221	1071.556
-0.458	31.449	1247.259	1052.996
0.556	27.478	1230.015	1017.038
1.571	24.192	1236.514	1003.843
2.586	23.516	1251.615	1012.155
3.600	22.572	1239.996	997.332
4.615	15.690	1164.748	900.014
5.629	5.503	1085.926	787.956
6.644	1.208	1065.052	751.499
7.659	0.972	1062.611	748.541
8.673	0.705	1061.726	746.536
9.688	0.726	1060.193	745.492
10.702	1.249	1058.724	746.970
11.717	7.540	1067.520	784.260
12.731	17.373	1081.558	843.495
13.746	21.937	1087.585	870.822
14.761	22.668	1088.819	875.360
15.775	22.776	1088.042	875.196
16.790	22.556	1086.895	873.104
17.804	22.523	1086.500	872.546
18.819	22.643	1085.639	872.374
19.834	22.720	1085.923	872.906
20.848	22.726	1085.286	872.347
21.863	22.577	1084.770	871.117
22.877	22.533	1084.047	870.244
23.892	22.584	1083.169	869.714
24.907	22.632	1082.681	869.481
25.921	22.577	1081.670	868.317
26.936	22.633	1080.013	867.189
27.950	22.581	1078.463	865.612
28.965	22.431	1076.360	863.112
29.980	22.501	1075.133	862.396
30.994	22.636	1074.397	862.389
32.009	22.643	1072.906	861.149
33.023	22.495	1071.592	859.295
34.038	22.612	1071.127	859.420
35.053	22.754	1070.442	859.483
36.067	22.679	1069.395	858.204
37.082	22.705	1068.627	857.637
38.096	22.920	1067.763	857.911
39.111	22.893	1067.367	857.387
40.126	22.827	1065.884	855.797
41.140	22.608	1063.484	852.736
42.155	22.284	1062.465	850.278
43.169	22.305	1061.701	849.695
44.184	22.426	1060.253	849.044
45.199	22.330	1059.550	847.945
46.213	22.234	1058.693	846.717
47.228	22.467	1057.641	846.925
48.242	22.501	1056.965	846.470
49.257	22.602	1056.011	846.116
50.271	22.751	1055.424	846.286
51.286	22.785	1054.517	845.646
52.301	22.639	1053.552	844.102
53.315	22.666	1052.468	843.287
54.330	22.542	1051.666	841.979
55.344	22.673	1050.776	841.815
56.359	22.634	1050.063	840.984
57.374	22.498	1048.779	839.232
58.388	22.466	1048.193	838.537
59.403	22.393	1047.051	837.200
60.417	22.347	1045.808	835.916
61.432	22.414	1045.644	836.027
62.447	22.467	1044.955	835.653
63.461	22.557	1044.077	835.305
64.476	22.421	1043.120	833.821
65.490	22.298	1042.030	832.293
66.505	22.345	1041.862	832.308
67.520	22.481	1040.389	831.703
68.534	22.256	1039.447	829.811
69.549	22.005	1038.573	827.860
70.563	22.005	1037.582	826.995
71.578	21.863	1037.293	826.026
72.593	21.841	1035.650	824.538
73.607	22.030	1035.257	825.042
74.622	22.280	1034.940	825.889
75.636	22.342	1034.125	825.458
76.651	22.000	1033.112	822.970
77.666	22.021	1032.644	822.623
78.680	22.204	1031.429	822.442
79.695	22.287	1031.240	822.606
80.709	22.289	1030.564	822.001
81.724	22.304	1029.576	821.210
82.739	22.272	1028.998	820.527
83.753	22.704	1028.112	821.763
84.768	23.052	1027.336	822.691
85.782	23.084	1025.979	821.681
86.797	22.868	1024.977	819.802
87.812	22.853	1023.926	818.816
88.826	23.026	1023.043	818.842
89.841	23.002	1022.288	818.054
90.855	22.904	1021.514	816.909
91.870	22.895	1020.894	816.300
92.884	22.686	1019.813	814.396
93.899	22.704	1018.407	813.285
94.914	22.921	1017.826	813.749
95.928	22.736	1016.389	811.678
96.943	22.568	1015.275	809.945
97.957	22.341	1013.824	807.673
98.972	22.108	1013.457	806.241
99.987	22.275	1012.364	806.065
101.001	22.583	1011.262	806.525
102.016	22.588	1010.911	806.197
103.030	22.524	1009.774	804.928
104.045	22.266	1009.119	803.155
105.060	22.146	1007.923	801.583
106.074	22.401	1007.238	802.131
107.089	22.649	1006.892	802.914
108.103	22.632	1005.352	801.539
109.118	22.518	1004.083	799.937
110.133	22.436	1002.997	798.631
111.147	22.196	1001.594	796.356
112.162	22.089	1000.903	795.251
113.176	22.393	999.971	795.815
114.191	22.144	999.276	794.064
115.206	21.946	997.748	791.888
116.220	22.012	996.905	791.445
117.235	22.204	996.246	791.719
118.249	22.117	995.783	790.889
119.264	22.013	994.550	789.371
120.279	22.032	994.065	789.002
121.293	22.167	993.100	788.771
122.308	22.410	991.847	788.796
123.322	22.231	990.537	786.885
124.337	22.018	989.552	785.078
125.352	21.560	987.359	781.227
126.366	21.486	986.419	780.084
127.381	22.372	986.459	783.996
128.395	22.554	986.421	784.704
129.410	22.719	985.384	784.545
130.424	22.636	984.235	783.191
131.439	22.630	983.359	782.398
132.454	22.719	982.265	781.857
133.468	22.526	981.873	780.620
134.483	22.727	980.410	780.274
135.497	22.879	979.966	780.525
136.512	22.915	978.931	779.790
137.527	22.892	978.240	779.067
138.541	22.873	977.521	778.346
139.556	22.843	976.706	777.495
140.570	22.772	976.526	776.968
141.585	22.953	974.942	776.438
142.600	22.897	973.586	775.041
143.614	23.123	972.741	775.293
144.629	23.142	972.355	774.996
145.643	23.054	970.938	773.414
146.658	22.862	969.815	771.611
147.673	22.876	968.157	770.286
148.687	22.720	967.719	769.192
149.702	22.686	966.676	768.145
150.716	22.645	965.839	767.234
151.731	22.819	964.944	767.209
152.746	22.931	964.398	767.193
153.760	23.095	963.870	767.417
154.775	23.170	963.174	767.123
155.789	22.949	962.283	765.386
156.804	23.052	961.398	765.062
157.819	23.118	960.463	764.537
158.833	23.083	960.121	764.046
159.848	23.084	958.940	763.043
160.862	22.961	957.407	761.225
161.877	23.014	956.764	760.874
162.892	23.235	955.383	760.656
163.906	23.062	954.692	759.298
164.921	22.990	953.986	758.361
165.935	23.222	952.854	758.386
166.950	23.125	951.923	757.164
167.964	23.031	951.000	755.962
168.979	23.042	949.873	755.044
169.994	22.883	949.253	753.807
171.008	22.965	948.908	753.817
172.023	23.113	947.720	753.437
173.037	22.859	946.726	751.496
174.052	22.777	945.612	750.197
175.067	22.727	945.015	749.445
176.081	22.876	944.766	749.813
177.096	22.876	943.814	748.995
178.110	22.649	942.096	746.604
179.125	22.356	942.212	745.388
180.140	22.360	941.674	744.913
181.154	22.581	941.317	745.499
182.169	22.888	940.973	746.458
183.183	23.107	940.759	747.146
184.198	22.865	939.461	745.031
185.213	22.828	938.926	744.386
186.227	23.023	938.225	744.584
187.242	22.989	937.728	743.982
188.256	23.086	936.678	743.488
189.271	23.041	936.311	742.944
190.286	22.736	934.930	740.503
191.300	22.290	933.463	737.407
192.315	21.498	931.928	732.813
193.329	21.423	931.894	732.406
194.344	22.321	932.351	736.461
195.359	22.922	932.347	738.906
196.373	23.003	931.469	738.485
197.388	22.860	930.834	737.319
198.402	22.756	930.358	736.440
199.417	22.977	929.455	736.585
200.432	22.760	928.140	734.575
201.446	22.485	927.761	733.063
202.461	22.382	927.209	732.134
203.475	21.671	924.953	727.338
204.490	20.817	924.276	723.194
205.504	21.870	924.122	727.379
206.519	22.489	924.371	730.079
207.534	22.562	923.746	729.822
208.548	22.975	923.412	731.205
209.563	22.753	922.574	729.556
210.577	22.890	921.346	729.088
211.592	23.108	921.476	730.025
212.607	23.143	920.618	729.425
213.621	23.029	920.387	728.708
214.636	23.074	919.592	728.199
215.650	23.030	918.583	727.157
216.665	23.120	917.917	726.935
217.680	23.131	917.071	726.247
218.694	22.619	915.866	723.128
219.709	22.528	915.232	722.190
220.723	22.902	914.496	723.073
221.738	23.060	913.939	723.220
222.753	22.987	913.446	722.464
223.767	22.987	913.223	722.225
224.782	23.257	912.813	722.940
225.796	23.226	912.332	722.369
226.811	22.616	910.426	718.311
227.826	22.074	909.168	715.046
228.840	22.203	908.798	715.217
229.855	22.309	907.776	714.780
230.869	21.986	906.764	712.611
231.884	22.271	907.116	713.983
232.899	23.069	907.048	717.101
233.913	22.848	906.265	715.527
234.928	22.944	905.713	715.414
235.942	22.874	904.720	714.282
236.957	22.595	903.919	712.461
237.972	22.469	903.628	711.661
238.986	22.719	903.012	712.118
240.001	22.689	902.237	711.327
241.015	22.713	901.880	711.075
242.030	22.945	901.086	711.324
243.045	23.048	900.843	711.483
244.059	23.170	900.356	711.524
245.074	22.894	899.493	709.669
246.088	22.624	898.245	707.539
247.103	22.994	897.903	708.691
248.117	23.454	898.005	710.552
249.132	23.581	897.703	710.760
250.147	23.501	897.600	710.296
251.161	23.843	896.466	710.703
252.176	23.835	896.042	710.271
253.190	23.876	895.571	710.001
254.205	23.941	895.434	710.090
255.220	24.020	894.484	709.588
256.234	23.764	893.708	707.891
257.249	23.807	892.485	707.030
258.263	23.784	891.744	706.286
259.278	23.720	891.719	705.951
260.293	23.814	890.846	705.570
261.307	23.696	890.361	704.657
262.322	23.623	889.056	703.272
263.336	22.848	887.029	698.541
264.351	21.771	885.380	692.925
265.366	21.952	885.322	693.535
266.380	23.023	885.732	698.025
267.395	23.518	885.072	699.398
268.409	23.306	884.770	698.258
269.424	23.571	884.467	699.003
270.439	23.553	883.834	698.371
271.453	23.729	882.830	698.207
272.468	23.872	882.733	698.631
273.482	23.944	882.260	698.477
274.497	23.459	880.697	695.276
275.512	23.271	879.584	693.599
276.526	23.538	880.240	695.101
277.541	23.706	879.583	695.178
278.555	23.332	878.737	692.986
279.570	23.224	877.771	691.741
280.585	23.469	877.196	692.183
281.599	23.529	876.236	691.597
282.614	22.974	874.994	688.396
283.628	22.957	874.811	688.127
284.643	23.392	874.271	689.332
285.657	22.851	873.234	686.351
286.672	22.574	872.599	684.715
287.687	23.239	872.497	687.155
288.701	23.277	871.514	686.467
289.716	22.890	871.058	684.549
290.730	22.905	870.456	684.072
291.745	22.516	869.761	681.963
292.760	22.721	869.969	682.857
293.774	24.002	869.804	687.620
294.789	24.144	869.321	687.727
295.803	24.148	868.959	687.395
296.818	24.216	868.161	686.967
297.833	23.755	866.898	684.131
298.847	23.634	866.542	683.321
299.862	23.905	866.480	684.255
300.876	24.093	865.937	684.489
301.891	24.036	865.319	683.723
302.906	23.541	864.337	680.986
303.920	23.685	863.938	681.163
304.935	24.135	863.386	682.392
305.949	24.080	862.904	681.742
306.964	23.889	861.933	680.183
307.979	23.989	861.566	680.216
308.993	24.337	861.564	681.483
310.008	24.218	860.925	680.464
311.022	24.054	860.248	679.242
312.037	23.934	859.570	678.189
313.052	23.618	858.662	676.211
314.066	22.903	856.748	671.921
315.081	22.635	856.300	670.493
316.095	23.302	856.819	673.376
317.110	23.831	856.593	675.152
318.125	23.072	854.652	670.685
319.139	21.983	853.274	665.418
320.154	22.021	853.230	665.469
321.168	22.857	853.642	668.900
322.183	23.519	853.463	671.205
323.197	23.682	853.784	672.016
324.212	23.878	853.057	672.124
325.227	24.086	852.087	672.084
326.241	23.782	851.436	670.366
327.256	23.757	851.069	669.922
328.270	23.601	850.460	668.797
329.285	23.426	849.282	667.155
330.300	23.423	848.272	666.289
331.314	23.599	847.936	666.627
332.329	23.730	848.427	667.446
333.343	23.923	847.806	667.624
334.358	23.982	847.195	667.305
335.373	24.131	847.027	667.674
336.387	24.247	847.346	668.301
337.402	24.427	847.020	668.657
338.416	24.538	846.106	668.294
339.431	24.500	845.799	667.850
340.446	24.576	845.598	667.916
341.460	24.504	845.474	667.488
342.475	24.277	844.615	665.903
343.489	24.396	844.309	666.048
344.504	24.655	844.036	666.740
345.519	25.020	843.626	667.718
346.533	24.796	843.559	666.769
347.548	24.892	842.515	666.243
348.562	24.737	842.237	665.390
349.577	24.728	841.189	664.470
350.592	24.833	840.875	664.553
351.606	24.740	840.032	663.481
352.621	24.754	838.863	662.550
353.635	24.686	838.206	661.723
354.650	23.892	836.696	657.536
355.665	23.099	835.068	653.271
356.679	23.332	835.086	654.088
357.694	23.820	834.940	655.715
358.708	23.808	834.395	655.186
359.723	24.157	834.039	656.134
360.738	24.436	833.908	657.003
361.752	24.528	833.560	657.007
362.767	24.957	832.735	657.874
363.781	25.139	832.228	658.083
364.796	25.292	831.776	658.230
365.810	25.198	831.630	657.711
366.825	25.188	831.282	657.343
367.840	24.828	830.204	655.114
368.854	24.409	829.418	652.902
369.869	24.614	829.111	653.354
370.883	24.632	828.532	652.905
371.898	24.442	828.059	651.781
372.913	24.523	827.989	651.962
373.927	24.689	827.490	652.116
374.942	24.924	827.088	652.600
375.956	24.945	826.683	652.299
376.971	25.107	826.360	652.574
377.986	25.104	825.817	652.078
379.000	25.057	825.507	651.606
380.015	24.911	824.823	650.478
381.029	24.948	824.049	649.943
382.044	25.165	823.563	650.290
383.059	25.175	822.979	649.807
384.073	25.096	822.739	649.276
385.088	25.149	821.976	648.805
386.102	24.859	821.512	647.332
387.117	24.983	820.925	647.261
388.132	24.556	819.380	644.446
389.146	24.134	818.454	642.139
390.161	24.498	818.541	643.464
391.175	24.626	818.504	643.840
392.190	24.457	817.818	642.633
393.205	23.238	815.271	636.198
394.219	21.715	813.587	629.362
395.234	21.939	812.742	629.456
396.248	23.470	814.490	636.251
397.263	24.707	815.914	641.751
398.278	24.693	815.260	641.132
399.292	24.294	814.772	639.257
400.307	24.620	813.852	639.650
401.321	24.605	813.600	639.339
402.336	24.756	813.915	640.071
403.350	25.339	813.695	641.928
404.365	25.640	813.153	642.516
405.380	25.856	813.010	643.117
406.394	25.827	812.166	642.290
407.409	25.802	811.765	641.826
408.423	25.747	811.604	641.446
409.438	25.689	811.449	641.060
410.453	25.815	811.026	641.119
411.467	25.870	810.002	640.449
412.482	25.768	809.535	639.661
413.496	25.936	809.379	640.078
414.511	25.687	809.524	639.252
415.526	25.793	808.647	638.877
416.540	25.766	807.786	638.045
417.555	25.551	807.064	636.657
418.569	25.531	806.816	636.336
419.584	25.400	806.297	635.406
420.599	25.282	805.634	634.408
421.613	158.632	1365.314	1796.573
422.628	137.937	1446.858	1796.689
