DTS Sentinel unit serial number:	SN413079Multiplexer serial number:	ORYXHardware model number:	OX4-SRSoftware version number:	ORYX F/W v4.00 Oryx Data Collector v3.7.2.0data status	okinstallation	princeton_trtdifferential loss correction	single-endedforward channel	channel 1reverse channel	N/Adate	2019/09/18time	13:30:35forward acquisition time	60.00reverse acquisition time	0.00gamma	496.2192k internal	0.2313k external	0.2313temperature offset calibration	0.9981default loss term (dB/km)	0.3790temperature slope calibration	1.0000multiplexer offset coefficient	1.0000multiplexer slope coefficient	1.0000fibre end	0.00T internal ref (°C)	34.25T ext. ref 1 (°C)	0.62T ext. ref 2 (°C)	31.09length (m)	temperature (°C)	Stokes	anti-Stokes-747.200	-200.000	-0.031	-0.153
-746.185	-200.000	-0.041	0.253
-745.171	800.000	-0.097	0.315
-744.156	15.621	0.234	0.186
-743.142	117.795	0.035	-0.044
-742.127	82.184	-0.029	0.032
-741.112	800.000	0.103	0.386
-740.098	-56.539	-0.234	-0.105
-739.083	800.000	-0.098	-0.312
-738.069	-131.474	-0.474	-0.063
-737.054	-38.011	-0.140	-0.075
-736.039	-200.000	0.013	-0.403
-735.025	-127.488	0.341	0.050
-734.010	-56.973	-0.141	-0.063
-732.996	223.336	-0.075	0.122
-731.981	-69.351	-0.046	0.018
-730.966	-31.414	0.266	-0.152
-729.952	61.415	0.100	-0.101
-728.937	417.959	0.206	0.446
-727.923	463.256	0.073	-0.166
-726.908	-200.000	0.020	-0.107
-725.894	-182.061	-0.476	-0.009
-724.879	-35.779	-0.105	0.058
-723.864	-88.657	-0.315	0.095
-722.850	22.182	0.349	0.289
-721.835	118.596	-0.157	-0.196
-720.821	-122.793	-0.256	-0.042
-719.806	39.133	0.097	0.088
-718.791	735.159	0.042	-0.113
-717.777	-120.357	-0.260	0.045
-716.762	-120.835	-0.073	0.012
-715.748	79.994	-0.255	-0.277
-714.733	339.160	-0.122	-0.241
-713.718	66.079	0.118	-0.121
-712.704	282.684	0.151	-0.275
-711.689	-200.000	0.013	0.098
-710.675	800.000	-0.095	-0.343
-709.660	-67.151	-0.270	-0.108
-708.645	-123.915	0.168	0.027
-707.631	-91.791	0.172	0.050
-706.616	-7.939	0.153	0.105
-705.602	-67.493	0.322	-0.128
-704.587	-27.557	-0.159	0.094
-703.572	800.000	0.098	0.325
-702.558	167.233	-0.161	-0.232
-701.543	117.515	0.252	0.313
-700.529	-110.163	-0.224	0.047
-699.514	598.209	0.057	-0.144
-698.499	748.543	0.100	-0.272
-697.485	-200.000	0.026	0.215
-696.470	34.116	-0.271	0.239
-695.456	-19.223	0.253	0.159
-694.441	174.081	0.158	0.231
-693.426	-200.000	0.046	-0.263
-692.412	800.000	-0.042	-0.136
-691.397	162.900	-0.094	0.133
-690.383	-54.937	0.234	0.107
-689.368	-112.748	0.181	0.036
-688.354	-66.391	0.113	-0.045
-687.339	-126.250	0.414	-0.063
-686.324	-200.000	-0.011	0.352
-685.310	-116.953	0.159	-0.029
-684.295	-23.639	0.210	-0.127
-683.281	239.583	-0.092	0.155
-682.266	-152.661	-0.221	0.016
-681.251	-200.000	0.048	-0.257
-680.237	751.481	0.148	-0.405
-679.222	-35.258	0.114	0.063
-678.208	136.604	0.072	0.095
-677.193	-95.291	0.314	0.086
-676.178	69.147	0.038	0.039
-675.164	-200.000	0.012	0.395
-674.149	0.582	-0.134	-0.097
-673.135	-165.693	0.286	-0.013
-672.120	-200.000	0.022	-0.141
-671.105	-200.000	-0.018	-0.123
-670.091	-107.569	0.435	-0.096
-669.076	-200.000	0.003	0.187
-668.062	247.851	-0.039	-0.067
-667.047	-145.409	0.093	-0.009
-666.032	-200.000	-0.098	0.537
-665.018	-200.000	0.008	-0.069
-664.003	-22.911	-0.405	-0.247
-662.989	-200.000	-0.481	0.001
-661.974	-5.369	0.260	-0.181
-660.959	36.375	-0.200	-0.178
-659.945	-200.000	0.084	0.376
-658.930	2.312	0.304	0.223
-657.916	69.444	-0.095	0.099
-656.901	-90.660	0.352	0.103
-655.886	114.410	0.154	0.189
-654.872	-106.451	0.165	-0.037
-653.857	800.000	-0.058	-0.194
-652.843	-87.442	0.130	0.040
-651.828	-152.317	0.228	0.017
-650.814	-44.067	0.151	0.077
-649.799	-91.524	0.224	-0.065
-648.784	86.173	-0.161	0.179
-647.770	316.379	0.120	-0.229
-646.755	85.913	-0.029	0.032
-645.741	-33.623	0.198	0.111
-644.726	800.000	-0.059	-0.210
-643.711	-165.419	0.477	0.021
-642.697	66.807	-0.219	-0.226
-641.682	-110.010	0.203	-0.043
-640.668	-200.000	-0.005	0.101
-639.653	-58.156	-0.248	-0.109
-638.638	-200.000	0.009	0.065
-637.624	-156.385	0.094	-0.006
-636.609	-200.000	0.041	0.274
-635.595	-200.000	0.031	-0.326
-634.580	-200.000	-0.003	0.030
-633.565	800.000	-0.077	-0.238
-632.551	800.000	-0.043	-0.188
-631.536	131.198	0.250	0.325
-630.522	-131.662	0.212	0.028
-629.507	16.413	0.216	-0.172
-628.492	-200.000	-0.042	0.408
-627.478	1.154	0.158	0.114
-626.463	750.891	0.159	0.433
-625.449	224.954	0.111	-0.181
-624.434	-6.172	-0.322	-0.222
-623.419	-200.000	0.008	-0.143
-622.405	-6.387	0.088	-0.061
-621.390	382.551	0.117	0.242
-620.376	800.000	-0.061	-0.184
-619.361	135.818	0.123	-0.162
-618.346	24.034	-0.045	-0.038
-617.332	800.000	-0.050	0.170
-616.317	58.019	-0.146	0.145
-615.303	-49.282	-0.208	0.100
-614.288	-118.577	-0.056	-0.010
-613.273	-37.414	-0.423	0.228
-612.259	3.858	0.125	0.092
-611.244	-70.045	0.248	0.095
-610.230	-5.461	0.124	-0.086
-609.215	108.901	-0.172	0.208
-608.201	-200.000	-0.047	-0.386
-607.186	-179.541	-0.254	-0.006
-606.171	66.987	0.186	0.191
-605.157	-154.596	0.239	0.016
-604.142	252.342	0.073	-0.125
-603.128	-148.555	-0.200	0.017
-602.113	-117.103	-0.194	-0.036
-601.098	25.488	0.139	0.117
-600.084	-114.298	0.264	-0.051
-599.069	134.507	-0.074	0.097
-598.055	-58.620	0.230	0.101
-597.040	-174.683	-0.284	-0.008
-596.025	-200.000	-0.014	0.102
-595.011	145.677	-0.149	-0.201
-593.996	-11.191	-0.156	0.103
-592.982	411.020	-0.115	-0.245
-591.967	287.972	-0.112	-0.204
-590.952	-63.461	0.276	-0.115
-589.938	800.000	0.040	-0.115
-588.923	338.246	-0.040	-0.079
-587.909	286.894	0.204	0.371
-586.894	-15.574	-0.105	0.068
-585.879	800.000	-0.049	0.200
-584.865	-103.326	0.206	-0.049
-583.850	96.587	-0.099	-0.115
-582.836	-200.000	0.001	0.123
-581.821	-18.270	-0.298	0.188
-580.806	800.000	-0.065	-0.185
-579.792	407.533	-0.197	0.421
-578.777	89.943	0.181	-0.204
-577.763	551.065	0.123	-0.297
-576.748	-200.000	-0.019	0.285
-575.733	-7.946	-0.063	-0.042
-574.719	-63.303	-0.383	-0.159
-573.704	-90.131	-0.264	-0.078
-572.690	800.000	-0.069	-0.287
-571.675	800.000	-0.020	0.061
-570.661	-30.878	-0.108	-0.061
-569.646	-175.243	-0.215	-0.006
-568.631	286.879	0.131	0.238
-567.617	535.333	0.065	-0.155
-566.602	-200.000	-0.009	0.253
-565.588	-200.000	-0.017	0.263
-564.573	-57.962	-0.252	-0.111
-563.558	321.267	-0.122	0.233
-562.544	342.490	0.086	0.170
-561.529	800.000	-0.052	0.196
-560.515	-123.223	-0.498	-0.080
-559.500	800.000	0.063	-0.185
-558.485	57.144	-0.090	0.089
-557.471	74.263	-0.104	0.110
-556.456	-157.325	-0.208	0.013
-555.442	-200.000	0.003	-0.078
-554.427	-170.714	0.381	0.013
-553.412	-142.070	0.269	0.027
-552.398	119.014	-0.224	-0.278
-551.383	-11.893	0.059	0.039
-550.369	-60.399	-0.293	0.125
-549.354	290.583	0.113	-0.207
-548.339	483.334	-0.125	-0.285
-547.325	-200.000	0.003	0.084
-546.310	-200.000	0.019	-0.094
-545.296	-17.257	-0.060	0.038
-544.281	-50.041	0.131	0.063
-543.266	-200.000	-0.056	0.368
-542.252	-62.888	-0.326	-0.136
-541.237	800.000	0.087	0.327
-540.223	-113.298	0.188	0.037
-539.208	304.611	-0.143	0.268
-538.193	89.572	-0.299	-0.335
-537.179	53.791	-0.119	-0.115
-536.164	-96.806	0.178	0.047
-535.150	-2.072	-0.087	-0.061
-534.135	-173.965	0.347	0.010
-533.121	42.600	0.078	-0.072
-532.106	-27.054	0.419	0.246
-531.091	-5.975	0.264	-0.182
-530.077	-2.030	-0.056	-0.039
-529.062	800.000	-0.129	0.392
-528.048	800.000	-0.044	-0.162
-527.033	22.448	0.184	-0.151
-526.018	800.000	0.136	0.465
-525.004	-59.828	0.233	0.100
-523.989	800.000	-0.054	0.177
-522.975	-20.525	-0.278	0.172
-521.960	321.579	0.097	0.185
-520.945	315.260	0.122	-0.231
-519.931	15.933	0.150	0.119
-518.916	-22.440	-0.261	-0.159
-517.902	720.176	0.019	0.052
-516.887	-147.242	0.279	0.024
-515.872	-48.424	-0.101	0.049
-514.858	-200.000	0.028	0.238
-513.843	-200.000	-0.028	-0.234
-512.829	-70.104	0.318	-0.122
-511.814	69.113	-0.172	-0.178
-510.799	-87.538	-0.196	-0.060
-509.785	-103.775	-0.244	0.057
-508.770	229.497	-0.156	-0.256
-507.756	30.574	0.384	-0.330
-506.741	800.000	-0.118	-0.358
-505.726	-100.604	0.393	-0.097
-504.712	169.405	0.237	0.341
-503.697	217.595	0.032	0.052
-502.683	-52.224	0.212	0.099
-501.668	147.405	0.165	0.223
-500.653	174.193	0.194	0.281
-499.639	-72.372	-0.297	-0.111
-498.624	-55.899	-0.226	0.101
-497.610	-82.147	-0.101	-0.033
-496.595	-57.514	-0.481	-0.212
-495.581	485.361	0.020	0.046
-494.566	-112.248	0.210	-0.042
-493.551	134.613	0.142	-0.185
-492.537	-58.431	0.144	-0.063
-491.522	-109.157	-0.112	0.024
-490.508	347.178	0.056	-0.111
-489.493	-99.733	-0.063	0.016
-488.478	800.000	-0.050	-0.182
-487.464	50.172	0.106	0.100
-486.449	-27.221	-0.077	0.045
-485.435	156.617	-0.072	0.100
-484.420	-200.000	-0.019	-0.158
-483.405	-174.539	0.384	0.011
-482.391	-78.589	0.187	-0.064
-481.376	4.458	0.167	0.123
-480.362	-2.361	-0.212	0.149
-479.347	-200.000	-0.030	-0.342
-478.332	207.088	-0.308	-0.483
-477.318	109.029	-0.087	0.104
-476.303	-39.994	-0.225	-0.118
-475.289	363.277	0.122	-0.245
-474.274	370.810	0.019	-0.039
-473.259	-200.000	0.073	-0.434
-472.245	-83.278	0.107	-0.035
-471.230	232.604	0.209	0.345
-470.216	-51.160	0.289	-0.136
-469.201	-200.000	-0.027	0.265
-468.186	124.359	-0.135	0.170
-467.172	-152.728	-0.420	0.030
-466.157	-42.003	-0.422	-0.217
-465.143	-61.970	-0.246	0.103
-464.128	-200.000	-0.018	-0.452
-463.113	157.578	-0.085	0.118
-462.099	316.040	-0.165	-0.312
-461.084	-138.630	-0.343	0.038
-460.070	-34.908	0.383	-0.210
-459.055	-200.000	0.043	-0.218
-458.040	-24.418	-0.148	0.089
-457.026	302.836	0.132	-0.245
-456.011	175.460	-0.129	-0.187
-454.997	-101.232	0.093	0.023
-453.982	52.715	0.183	0.175
-452.968	800.000	-0.115	-0.354
-451.953	135.364	0.167	0.218
-450.938	-200.000	0.015	0.237
-449.924	-52.386	0.065	0.030
-448.909	103.627	0.228	-0.269
-447.895	236.402	-0.089	0.148
-446.880	-200.000	-0.027	0.130
-445.865	-200.000	0.005	-0.068
-444.851	168.077	-0.099	-0.141
-443.836	7.924	0.182	0.137
-442.822	-129.605	-0.172	-0.024
-441.807	-80.299	-0.020	-0.007
-440.792	-92.969	-0.114	-0.032
-439.778	319.699	-0.078	0.148
-438.763	-30.958	0.341	-0.193
-437.749	-100.246	-0.357	0.089
-436.734	-112.431	-0.185	0.037
-435.719	62.702	0.164	-0.164
-434.705	-108.955	0.242	0.052
-433.690	800.000	0.046	-0.163
-432.676	-128.936	0.112	0.016
-431.661	800.000	-0.077	0.282
-430.646	800.000	-0.051	-0.146
-429.632	240.685	0.118	-0.197
-428.617	550.179	0.141	0.339
-427.603	800.000	-0.094	-0.411
-426.588	800.000	0.117	0.401
-425.573	-95.685	0.279	-0.075
-424.559	-10.589	-0.205	0.136
-423.544	-31.955	0.132	-0.074
-422.530	-200.000	0.013	0.115
-421.515	124.709	-0.164	-0.207
-420.500	347.738	0.131	-0.258
-419.486	14.151	0.203	-0.158
-418.471	-200.000	-0.001	0.010
-417.457	-4.599	-0.067	-0.046
-416.442	800.000	-0.105	0.387
-415.428	-200.000	0.021	0.136
-414.413	800.000	0.077	0.321
-413.398	-88.998	0.251	-0.074
-412.384	157.398	-0.160	0.222
-411.369	1.349	0.256	-0.184
-410.355	479.664	-0.042	-0.096
-409.340	-3.305	0.166	0.116
-408.325	-200.000	-0.006	-0.146
-407.311	8.561	0.221	-0.167
-406.296	-200.000	-0.073	-0.375
-405.282	195.734	-0.054	-0.082
-404.267	1.967	0.180	-0.130
-403.252	-145.011	0.090	-0.008
-402.238	-58.505	-0.243	-0.106
-401.223	53.547	-0.029	-0.028
-400.209	800.000	0.038	-0.130
-399.194	269.965	-0.102	0.179
-398.179	168.189	0.087	0.124
-397.165	-97.920	0.125	0.032
-396.150	-10.692	-0.270	-0.179
-395.136	-48.132	-0.292	0.141
-394.121	306.081	-0.111	-0.206
-393.106	-90.018	-0.204	-0.060
-392.092	-104.449	0.132	0.031
-391.077	-200.000	-0.041	-0.199
-390.063	-24.004	-0.168	-0.101
-389.048	30.322	0.096	-0.082
-388.033	-62.398	0.155	0.064
-387.019	119.571	-0.163	0.202
-386.004	233.031	-0.133	-0.218
-384.990	800.000	0.107	0.345
-383.975	635.297	0.207	0.526
-382.960	499.719	-0.105	0.242
-381.946	315.421	0.070	0.132
-380.931	-40.542	0.072	0.038
-379.917	800.000	-0.042	0.121
-378.902	-200.000	-0.009	-0.077
-377.888	3.057	-0.334	-0.242
-376.873	-69.469	0.257	0.098
-375.858	-104.680	0.189	-0.043
-374.844	-200.000	-0.053	-0.339
-373.829	800.000	-0.058	-0.204
-372.815	-18.935	0.223	0.139
-371.800	-13.489	0.070	0.045
-370.785	131.185	-0.175	-0.224
-369.771	-63.676	0.117	-0.048
-368.756	91.500	-0.148	-0.167
-367.742	28.912	0.055	-0.046
-366.727	-99.463	-0.182	0.046
-365.712	-24.441	-0.107	0.064
-364.698	-21.551	0.279	0.170
-363.683	-119.841	-0.209	-0.036
-362.669	143.483	0.170	-0.226
-361.654	-42.147	-0.340	-0.174
-360.639	800.000	-0.016	-0.057
-359.625	217.913	0.088	-0.141
-358.610	800.000	-0.029	0.101
-357.596	420.285	0.022	-0.047
-356.581	82.744	-0.101	-0.109
-355.566	-77.880	0.325	0.112
-354.552	365.447	0.042	-0.084
-353.537	-159.965	-0.163	-0.009
-352.523	32.136	0.076	-0.065
-351.508	-200.000	0.005	0.191
-350.493	-57.719	-0.190	-0.083
-349.479	620.943	0.062	-0.157
-348.464	178.335	0.060	-0.088
-347.450	-82.055	0.188	0.061
-346.435	177.194	0.118	-0.171
-345.420	-15.487	0.118	-0.075
-344.406	-194.315	-0.233	0.002
-343.391	800.000	0.061	0.171
-342.377	-200.000	-0.016	-0.192
-341.362	289.595	-0.057	0.102
-340.348	-200.000	-0.041	-0.297
-339.333	191.510	0.090	-0.135
-338.318	-16.028	-0.166	0.105
-337.304	-109.472	0.032	-0.007
-336.289	233.327	0.130	-0.214
-335.275	261.639	0.120	0.208
-334.260	800.000	-0.015	0.046
-333.245	-99.909	-0.261	0.065
-332.231	-168.992	0.369	0.014
-331.216	564.630	0.095	0.229
-330.202	-98.861	-0.090	-0.023
-329.187	174.490	-0.217	0.313
-328.172	-70.185	-0.285	0.108
-327.158	-200.000	-0.056	0.284
-326.143	78.461	0.189	-0.202
-325.129	-200.000	0.005	-0.097
-324.114	-151.090	0.222	-0.017
-323.099	-152.171	-0.328	-0.024
-322.085	-123.340	0.315	-0.050
-321.070	-136.443	0.187	0.022
-320.056	-13.540	0.154	-0.099
-319.041	-31.615	-0.277	-0.155
-318.026	-137.205	0.183	0.021
-317.012	-66.858	-0.127	0.050
-315.997	45.568	-0.120	0.110
-314.983	41.999	-0.337	-0.305
-313.968	-141.992	0.298	0.030
-312.953	482.326	0.046	0.104
-311.939	800.000	-0.063	0.191
-310.924	414.703	0.166	0.353
-309.910	25.968	0.074	-0.061
-308.895	543.245	0.081	0.193
-307.880	-106.292	0.178	0.040
-306.866	-77.859	0.206	0.071
-305.851	-94.898	0.330	0.089
-304.837	-38.616	0.116	-0.061
-303.822	-200.000	-0.006	0.078
-302.807	-200.000	-0.009	0.382
-301.793	620.408	-0.145	0.364
-300.778	171.650	-0.207	-0.296
-299.764	263.213	-0.067	-0.116
-298.749	-200.000	0.042	-0.303
-297.735	121.887	0.096	-0.120
-296.720	-200.000	-0.023	0.113
-295.705	-200.000	0.026	0.119
-294.691	21.854	-0.138	-0.112
-293.676	-176.998	0.105	0.003
-292.662	-9.802	-0.026	-0.017
-291.647	-93.770	0.432	-0.119
-290.632	800.000	0.055	-0.169
-289.618	-83.122	-0.126	-0.040
-288.603	-98.320	0.213	0.055
-287.589	-200.000	-0.069	-0.380
-286.574	-12.542	0.110	0.072
-285.559	-76.372	0.135	0.047
-284.545	125.515	0.151	-0.190
-283.530	-113.138	-0.305	-0.060
-282.516	118.696	0.107	-0.132
-281.501	-125.613	0.201	-0.030
-280.486	-63.164	-0.071	0.029
-279.472	44.663	-0.135	0.124
-278.457	800.000	-0.087	-0.335
-277.443	248.190	0.069	-0.117
-276.428	800.000	0.077	0.311
-275.413	-11.432	-0.354	0.232
-274.399	-69.486	-0.445	0.170
-273.384	-156.363	-0.135	0.008
-272.370	-200.000	-0.010	-0.057
-271.355	216.986	0.149	-0.237
-270.340	-173.329	0.330	0.010
-269.326	-200.000	0.044	0.194
-268.311	800.000	-0.061	0.224
-267.297	-141.432	-0.088	0.009
-266.282	-62.690	0.178	0.074
-265.267	-14.003	0.129	-0.083
-264.253	664.887	0.141	-0.363
-263.238	264.745	-0.261	0.453
-262.224	800.000	-0.050	0.157
-261.209	-85.046	0.189	-0.059
-260.195	-102.068	-0.165	0.040
-259.180	-144.028	-0.343	0.032
-258.165	-112.347	0.322	-0.064
-257.151	800.000	-0.036	0.140
-256.136	800.000	-0.007	0.027
-255.122	46.830	0.147	-0.136
-254.107	-35.997	-0.261	-0.140
-253.092	-52.568	-0.221	0.101
-252.078	142.007	-0.149	-0.196
-251.063	-151.102	0.327	0.024
-250.049	800.000	0.044	-0.182
-249.034	-200.000	-0.047	0.251
-248.019	-130.710	-0.123	-0.016
-247.005	-82.738	0.056	-0.018
-245.990	-83.260	0.256	0.082
-244.976	475.353	0.089	0.200
-243.961	238.666	-0.176	0.291
-242.946	26.561	-0.367	-0.306
-241.932	-71.994	0.475	-0.176
-240.917	-135.111	-0.185	-0.022
-239.903	-200.000	0.040	0.241
-238.888	138.233	-0.167	0.217
-237.873	18.263	0.154	0.122
-236.859	-200.000	-0.012	-0.203
-235.844	800.000	-0.045	-0.141
-234.830	397.766	-0.022	-0.047
-233.815	68.901	0.061	-0.063
-232.800	-29.594	-0.077	-0.044
-231.786	192.413	0.055	0.082
-230.771	-174.450	-0.007	-0.000
-229.757	81.794	0.026	0.028
-228.742	-200.000	-0.011	-0.056
-227.727	800.000	-0.032	-0.099
-226.713	208.654	-0.261	0.406
-225.698	-200.000	0.016	0.247
-224.684	-200.000	0.038	-0.179
-223.669	-77.468	-0.296	-0.102
-222.655	-35.917	-0.115	-0.062
-221.640	800.000	-0.066	0.182
-220.625	-114.050	-0.085	0.016
-219.611	587.257	0.061	-0.150
-218.596	113.300	0.166	0.200
-217.582	800.000	0.048	-0.207
-216.567	-127.568	0.158	0.023
-215.552	33.834	-0.125	0.108
-214.538	510.983	0.080	-0.185
-213.523	-10.065	-0.151	-0.100
-212.509	-104.582	-0.047	0.011
-211.494	88.617	0.076	0.084
-210.479	-200.000	-0.002	-0.044
-209.465	119.389	-0.149	0.184
-208.450	-200.000	-0.003	0.119
-207.436	113.402	0.146	-0.176
-206.421	800.000	-0.076	-0.260
-205.406	800.000	0.040	0.134
-204.392	-128.830	0.446	-0.062
-203.377	-131.768	-0.189	-0.025
-202.363	-125.145	-0.205	-0.031
-201.348	-80.239	-0.206	0.068
-200.333	-87.444	0.177	0.053
-199.319	-200.000	0.005	-0.115
-198.304	394.561	0.032	0.066
-197.290	-200.000	0.015	-0.090
-196.275	-161.968	-0.389	-0.019
-195.260	-114.421	0.366	-0.070
-194.246	255.983	-0.150	0.256
-193.231	-33.601	-0.161	-0.088
-192.217	34.214	-0.230	0.199
-191.202	-200.000	0.022	0.131
-190.187	-200.000	-0.001	0.104
-189.173	-21.094	0.291	0.177
-188.158	458.055	0.102	0.225
-187.144	-167.886	-0.079	-0.003
-186.129	86.172	-0.160	-0.175
-185.114	-89.879	-0.115	-0.033
-184.100	-94.882	-0.128	-0.034
-183.085	-200.000	-0.053	0.254
-182.071	-125.880	-0.138	0.021
-181.056	800.000	-0.031	0.105
-180.042	254.665	0.149	0.253
-179.027	-96.094	0.190	-0.050
-178.012	513.819	-0.067	-0.155
-176.998	-200.000	-0.003	-0.242
-175.983	-178.979	-0.084	0.002
-174.969	47.425	0.225	-0.208
-173.954	650.629	0.142	0.361
-172.939	800.000	-0.099	0.297
-171.925	488.538	-0.087	0.197
-170.910	-8.338	-0.030	-0.020
-169.896	-110.958	0.195	-0.040
-168.881	-60.598	-0.159	0.067
-167.866	71.061	0.164	0.168
-166.852	-114.302	-0.436	0.083
-165.837	-172.706	0.223	0.007
-164.823	-104.488	0.228	-0.052
-163.808	-48.466	-0.205	-0.098
-162.793	-200.000	-0.023	-0.190
-161.779	-15.417	-0.086	-0.054
-160.764	-25.865	0.128	0.075
-159.750	-200.000	-0.005	-0.075
-158.735	-200.000	0.078	0.417
-157.720	-89.571	-0.110	0.032
-156.706	-200.000	0.013	-0.302
-155.691	-200.000	0.005	0.034
-154.677	-63.717	-0.221	-0.090
-153.662	-103.133	-0.139	-0.033
-152.647	-200.000	-0.064	0.295
-151.633	-80.940	0.286	0.094
-150.618	3.139	0.166	0.120
-149.604	182.250	-0.237	-0.346
-148.589	800.000	-0.039	0.139
-147.574	-116.202	-0.287	0.053
-146.560	80.197	0.104	0.111
-145.545	-200.000	-0.008	0.061
-144.531	-200.000	-0.028	0.198
-143.516	-200.000	0.025	0.575
-142.502	192.229	0.104	-0.156
-141.487	305.025	-0.182	0.334
-140.472	180.897	-0.091	0.132
-139.458	67.952	-0.239	0.242
-138.443	68.542	0.254	0.258
-137.429	-200.000	-0.006	0.173
-136.414	-127.705	-0.036	-0.005
-135.399	-140.371	0.285	-0.029
-134.385	-125.818	0.037	-0.005
-133.370	800.000	-0.038	0.146
-132.356	-123.048	-0.522	-0.083
-131.341	-62.584	0.252	-0.104
-130.326	800.000	0.073	-0.208
-129.312	0.171	0.300	-0.212
-128.297	51.502	-0.169	-0.159
-127.283	-70.273	-0.301	0.113
-126.268	-14.434	0.367	-0.234
-125.253	800.000	-0.019	0.057
-124.239	89.649	-0.140	0.155
-123.224	7.402	0.153	0.113
-122.210	-107.913	0.196	0.042
-121.195	766.731	-0.089	-0.239
-120.180	-103.993	0.069	-0.016
-119.166	17.835	-0.136	0.107
-118.151	83.367	0.019	-0.020
-117.137	122.708	0.187	-0.231
-116.122	496.907	0.120	0.274
-115.107	-120.504	-0.139	-0.023
-114.093	-200.000	0.040	-0.297
-113.078	22.677	-0.291	-0.236
-112.064	-200.000	-0.017	-0.300
-111.049	534.470	0.072	-0.168
-110.034	-81.621	0.180	0.059
-109.020	-200.000	-0.013	-0.257
-108.005	-200.000	0.009	-0.242
-106.991	20.292	0.135	0.108
-105.976	108.112	-0.118	0.140
-104.962	247.281	0.104	-0.174
-103.947	-176.860	-0.167	0.004
-102.932	-8.909	-0.172	-0.114
-101.918	-175.346	0.297	0.008
-100.903	376.963	-0.083	0.169
-99.889	-200.000	-0.003	-0.108
-98.874	-200.000	-0.001	0.161
-97.859	-188.436	0.050	0.001
-96.845	682.356	-0.068	0.176
-95.830	-200.000	0.012	-0.266
-94.816	-8.806	0.313	0.207
-93.801	-200.000	0.009	0.094
-92.786	138.514	-0.223	0.290
-91.772	-200.000	0.032	-0.188
-90.757	18.473	-0.036	0.029
-89.743	-161.150	0.083	-0.004
-88.728	17.053	0.192	0.151
-87.713	117.791	-0.090	0.110
-86.699	60.227	0.208	0.204
-85.684	-61.418	-0.062	-0.026
-84.670	725.608	0.037	-0.097
-83.655	-200.000	0.005	0.136
-82.640	201.180	0.027	-0.042
-81.626	-51.415	0.183	-0.084
-80.611	304.311	-0.036	0.066
-79.597	-123.086	0.214	-0.034
-78.582	-23.566	0.457	0.271
-77.567	91.053	-0.089	0.099
-76.553	-34.033	0.337	-0.183
-75.538	-200.000	0.016	-0.156
-74.524	-67.290	0.148	0.057
-73.509	-200.000	-0.007	-0.249
-72.494	-70.453	0.036	-0.014
-71.480	-110.964	-0.231	-0.047
-70.465	-200.000	0.036	-0.241
-69.451	759.882	0.033	-0.088
-68.436	383.944	-0.128	0.260
-67.422	800.000	-0.059	0.169
-66.407	-200.000	-0.058	0.417
-65.392	370.909	-0.010	0.020
-64.378	-142.512	-0.157	0.015
-63.363	378.793	0.128	-0.259
-62.349	-59.418	0.275	-0.117
-61.334	459.040	-0.445	-0.977
-60.319	-18.855	0.489	0.301
-59.305	432.327	-0.469	-1.005
-58.290	482.822	0.517	1.161
-57.276	800.000	0.456	1.860
-56.261	-200.000	95.990	548.013
-55.246	502.746	1421.943	3245.480
-54.232	144.727	2648.213	3494.362
-53.217	110.494	2225.263	2640.956
-52.203	45.851	1663.834	1519.298
-51.188	37.618	1394.683	1222.062
-50.173	34.448	1351.383	1164.752
-49.159	54.705	1400.003	1333.072
-48.144	57.886	1418.220	1370.146
-47.130	37.967	1372.902	1204.942
-46.115	34.320	1355.484	1167.315
-45.100	34.218	1350.082	1161.993
-44.086	34.232	1347.849	1160.111
-43.071	34.167	1345.514	1157.657
-42.057	34.140	1343.411	1155.642
-41.042	34.092	1342.172	1154.236
-40.027	34.160	1340.283	1152.980
-39.013	34.096	1338.858	1151.320
-37.998	34.184	1336.568	1149.839
-36.984	34.216	1334.719	1148.396
-35.969	34.248	1332.849	1146.931
-34.954	34.277	1331.023	1145.487
-33.940	34.190	1330.720	1144.658
-32.925	34.382	1328.650	1143.985
-31.911	34.339	1327.065	1142.320
-30.896	34.419	1325.521	1141.424
-29.881	34.338	1324.402	1139.929
-28.867	34.395	1322.975	1138.998
-27.852	34.419	1321.263	1137.623
-26.838	34.488	1319.869	1136.787
-25.823	34.291	1319.031	1134.847
-24.809	34.295	1317.400	1133.424
-23.794	34.341	1315.715	1132.203
-22.779	34.336	1314.720	1131.273
-21.765	34.346	1313.295	1130.057
-20.750	34.359	1311.431	1128.485
-19.736	34.207	1310.415	1126.669
-18.721	34.156	1309.337	1125.397
-17.706	34.238	1307.786	1124.499
-16.692	34.221	1306.486	1123.239
-15.677	34.314	1305.106	1122.558
-14.663	34.106	1304.243	1120.543
-13.648	34.298	1302.966	1120.531
-12.633	34.135	1302.492	1119.119
-11.619	34.170	1301.725	1118.621
-10.604	34.119	1300.926	1117.591
-9.590	34.115	1299.963	1116.701
-8.575	34.217	1298.128	1115.673
-7.560	34.229	1297.962	1115.557
-6.546	34.147	1296.817	1114.047
-5.531	34.113	1296.252	1113.322
-4.517	34.286	1294.720	1112.974
-3.502	34.174	1294.166	1111.797
-2.487	34.152	1293.131	1110.734
-1.473	34.287	1289.738	1108.561
-0.458	33.278	1274.805	1089.879
0.556	28.468	1257.667	1051.368
1.571	24.382	1263.930	1032.910
2.586	22.895	1278.619	1036.106
3.600	21.736	1266.577	1019.517
4.615	15.894	1189.991	925.762
5.629	5.937	1108.748	811.242
6.644	0.874	1086.396	769.126
7.659	0.531	1084.382	765.893
8.673	0.549	1082.864	764.843
9.688	0.508	1081.368	763.511
10.702	0.831	1079.721	763.914
11.717	6.320	1088.010	797.585
12.731	15.018	1099.625	850.401
13.746	17.935	1102.111	867.082
14.761	17.206	1101.026	862.456
15.775	16.369	1098.303	856.006
16.790	15.362	1096.535	849.454
17.804	14.584	1095.431	844.591
18.819	14.232	1094.240	841.815
19.834	13.914	1093.270	839.388
20.848	13.845	1091.793	837.829
21.863	13.525	1091.006	835.540
22.877	13.297	1090.696	834.078
23.892	13.302	1089.445	833.071
24.907	13.356	1088.806	832.784
25.921	13.310	1088.252	832.054
26.936	13.361	1087.220	831.448
27.950	13.384	1086.447	830.899
28.965	13.491	1085.014	830.265
29.980	13.681	1083.212	829.764
30.994	13.535	1082.393	828.331
32.009	13.617	1081.533	828.010
33.023	13.641	1080.353	827.155
34.038	13.505	1079.582	825.810
35.053	13.600	1078.796	825.610
36.067	13.460	1077.977	824.213
37.082	13.559	1076.826	823.753
38.096	13.587	1076.078	823.247
39.111	13.433	1075.803	822.199
40.126	13.427	1074.570	821.154
41.140	13.426	1072.954	819.840
42.155	13.382	1072.090	818.894
43.169	13.356	1071.177	817.995
44.184	13.378	1069.782	816.965
45.199	13.299	1068.715	815.687
46.213	13.422	1067.701	815.448
47.228	13.378	1066.657	814.363
48.242	13.425	1065.446	813.596
49.257	13.389	1064.631	812.727
50.271	13.455	1063.921	812.436
51.286	13.479	1062.655	811.515
52.301	13.493	1061.559	810.673
53.315	13.513	1060.702	810.044
54.330	13.538	1059.043	808.827
55.344	13.507	1058.394	808.109
56.359	13.389	1057.935	807.113
57.374	13.340	1056.963	806.063
58.388	13.279	1056.043	804.992
59.403	13.243	1055.246	804.139
60.417	13.231	1054.556	803.484
61.432	13.345	1053.646	803.270
62.447	13.346	1052.507	802.337
63.461	13.254	1052.198	801.585
64.476	13.279	1051.172	800.854
65.490	13.279	1050.555	800.314
66.505	13.332	1049.410	799.627
67.520	13.328	1049.358	799.493
68.534	13.427	1047.916	798.806
69.549	13.299	1047.651	797.913
70.563	13.311	1046.652	797.138
71.578	13.359	1046.026	796.823
72.593	13.350	1045.040	795.959
73.607	13.155	1044.826	794.786
74.622	13.309	1043.846	794.710
75.636	13.355	1042.851	794.104
76.651	13.399	1041.844	793.479
77.666	13.135	1042.201	792.415
78.680	13.248	1041.493	792.347
79.695	13.352	1040.267	791.840
80.709	13.356	1039.808	791.440
81.724	13.282	1039.432	790.732
82.739	13.345	1038.068	789.924
83.753	13.458	1037.450	789.921
84.768	13.557	1036.021	789.240
85.782	13.541	1035.258	788.512
86.797	13.456	1034.796	787.684
87.812	13.488	1033.285	786.616
88.826	13.361	1033.082	785.789
89.841	13.575	1031.572	785.587
90.855	13.561	1030.866	784.915
91.870	13.438	1030.126	783.698
92.884	13.485	1029.503	783.377
93.899	13.612	1028.213	782.925
94.914	13.524	1027.596	781.972
95.928	13.571	1026.700	781.443
96.943	13.571	1025.336	780.336
97.957	13.584	1024.976	780.053
98.972	13.485	1024.141	778.884
99.987	13.655	1022.895	778.666
101.001	13.505	1022.219	777.376
102.016	13.506	1021.595	776.836
103.030	13.576	1020.861	776.540
104.045	13.522	1020.101	775.637
105.060	13.550	1019.161	774.990
106.074	13.470	1017.876	773.569
107.089	13.550	1017.080	773.268
108.103	13.359	1016.635	771.970
109.118	13.423	1015.151	771.072
110.133	13.415	1014.490	770.467
111.147	13.592	1013.074	770.143
112.162	13.454	1012.865	769.278
113.176	13.443	1011.948	768.460
114.191	13.515	1011.187	768.148
115.206	13.526	1010.452	767.572
116.220	13.400	1009.971	766.558
117.235	13.548	1008.557	766.099
118.249	13.415	1007.798	764.841
119.264	13.474	1006.923	764.380
120.279	13.391	1006.720	763.778
121.293	13.512	1005.380	763.249
122.308	13.426	1004.783	762.336
123.322	13.439	1003.498	761.349
124.337	13.544	1002.349	760.896
125.352	13.575	1001.438	760.279
126.366	13.471	1000.428	758.965
127.381	13.486	999.503	758.266
128.395	13.420	998.972	757.493
129.410	13.495	998.025	757.054
130.424	13.616	996.862	756.655
131.439	13.629	995.986	755.981
132.454	13.663	995.384	755.617
133.468	13.646	994.579	754.860
134.483	13.536	993.533	753.497
135.497	13.591	992.812	753.135
136.512	13.597	992.032	752.503
137.527	13.529	991.236	751.524
138.541	13.544	990.258	750.785
139.556	13.640	989.506	750.583
140.570	13.683	988.559	749.992
141.585	13.741	987.727	749.559
142.600	13.745	986.847	748.843
143.614	13.894	985.817	748.665
144.629	13.762	985.188	747.529
145.643	13.806	984.119	746.848
146.658	13.601	983.479	745.374
147.673	13.510	982.669	744.286
148.687	13.646	981.413	743.879
149.702	13.694	980.523	743.354
150.716	13.707	979.668	742.698
151.731	13.640	979.077	741.886
152.746	13.714	978.224	741.503
153.760	13.677	977.630	740.820
154.775	13.803	977.320	741.085
155.789	13.712	976.607	740.071
156.804	13.640	975.681	738.981
157.819	13.777	975.089	739.079
158.833	13.712	974.204	738.056
159.848	13.851	973.577	738.130
160.862	13.770	972.718	737.057
161.877	13.748	971.751	736.162
162.892	13.833	970.272	735.352
163.906	13.733	969.469	734.234
164.921	13.773	968.620	733.704
165.935	13.849	968.013	733.517
166.950	13.709	967.158	732.185
167.964	13.751	966.052	731.469
168.979	13.685	965.296	730.538
169.994	13.829	964.227	730.302
171.008	13.894	963.620	730.063
172.023	13.837	963.305	729.506
173.037	14.073	962.037	729.517
174.052	13.912	961.699	728.491
175.067	14.028	960.722	728.196
176.081	13.899	960.480	727.382
177.096	13.830	959.919	726.590
178.110	13.860	958.976	725.944
179.125	13.827	958.628	725.472
180.140	13.995	957.670	725.417
181.154	13.953	957.733	725.216
182.169	14.049	956.477	724.621
183.183	14.120	956.170	724.633
184.198	13.962	955.653	723.488
185.213	14.065	954.687	723.141
186.227	14.058	954.188	722.669
187.242	14.021	953.647	722.035
188.256	14.051	952.891	721.530
189.271	14.070	952.148	720.983
190.286	14.089	951.216	720.297
191.300	13.996	950.712	719.450
192.315	13.896	950.435	718.741
193.329	14.038	949.793	718.806
194.344	13.912	949.280	717.813
195.359	14.029	948.293	717.507
196.373	14.072	947.476	717.011
197.388	14.242	947.064	717.367
198.402	14.224	946.273	716.628
199.417	14.255	945.593	716.185
200.432	14.419	944.589	716.062
201.446	14.414	944.304	715.764
202.461	14.530	944.323	716.210
203.475	14.352	943.417	714.696
204.490	14.301	942.628	713.816
205.504	14.226	942.025	712.975
206.519	14.321	941.053	712.583
207.534	14.280	940.594	711.998
208.548	14.463	939.637	711.992
209.563	14.364	939.200	711.177
210.577	14.446	938.282	710.768
211.592	14.487	937.782	710.502
212.607	14.411	937.100	709.596
213.621	14.481	936.138	709.104
214.636	14.518	935.289	708.557
215.650	14.432	934.709	707.687
216.665	14.551	933.975	707.577
217.680	14.544	933.640	707.230
218.694	14.507	932.990	706.517
219.709	14.564	932.233	706.123
220.723	14.701	931.119	705.796
221.738	14.610	930.420	704.818
222.753	14.520	930.038	704.085
223.767	14.591	929.798	704.142
224.782	14.739	928.647	703.835
225.796	14.740	928.150	703.398
226.811	14.684	927.376	702.515
227.826	14.766	926.557	702.178
228.840	14.807	925.700	701.634
229.855	14.714	924.975	700.636
230.869	14.704	924.244	699.978
231.884	14.725	923.586	699.504
232.899	14.646	923.132	698.768
233.913	14.658	922.364	698.173
234.928	14.715	921.621	697.788
235.942	14.606	921.357	697.073
236.957	14.792	920.190	696.903
237.972	14.745	919.909	696.435
238.986	14.755	919.331	695.977
240.001	14.714	918.559	695.158
241.015	14.802	917.663	694.787
242.030	14.810	917.249	694.446
243.045	14.830	916.660	694.019
244.059	14.760	916.142	693.277
245.074	14.849	915.257	692.914
246.088	14.866	914.794	692.573
247.103	14.848	914.327	692.084
248.117	14.837	913.437	691.301
249.132	14.896	912.904	691.080
250.147	15.012	912.297	691.039
251.161	14.874	912.105	690.263
252.176	15.085	911.046	690.272
253.190	15.093	910.050	689.486
254.205	15.039	909.763	688.986
255.220	15.114	909.016	688.670
256.234	15.154	908.345	688.266
257.249	15.202	907.558	687.804
258.263	15.208	906.852	687.231
259.278	15.205	906.153	686.631
260.293	15.195	905.768	686.238
261.307	15.205	905.364	685.912
262.322	15.210	904.409	685.146
263.336	15.340	903.533	684.953
264.351	15.411	902.528	684.422
265.366	15.399	902.022	683.929
266.380	15.450	901.527	683.698
267.395	15.280	901.291	682.765
268.409	15.232	900.079	681.595
269.424	15.488	898.713	681.540
270.439	15.443	898.384	681.047
271.453	15.344	898.046	680.329
272.468	15.440	897.523	680.263
273.482	15.369	897.063	679.563
274.497	15.313	896.613	678.936
275.512	15.545	895.381	678.882
276.526	15.456	895.006	678.179
277.541	15.425	894.900	677.912
278.555	15.393	894.393	677.339
279.570	15.622	893.136	677.248
280.585	15.578	892.330	676.402
281.599	15.616	891.809	676.099
282.614	15.531	891.315	675.322
283.628	15.639	890.422	675.021
284.643	15.553	889.833	674.169
285.657	15.681	888.992	673.986
286.672	15.569	888.504	673.109
287.687	15.737	887.725	673.132
288.701	15.764	887.065	672.680
289.716	15.599	886.985	671.898
290.730	15.671	886.275	671.590
291.745	15.697	885.371	670.949
292.760	15.736	885.034	670.791
293.774	15.745	884.211	670.141
294.789	15.840	883.705	670.078
295.803	15.659	883.091	668.832
296.818	15.688	882.358	668.332
297.833	15.700	881.706	667.828
298.847	15.668	881.491	667.480
299.862	15.661	880.758	666.839
300.876	15.920	879.524	666.869
301.891	15.828	879.090	666.116
302.906	15.923	878.827	666.236
303.920	16.074	877.813	666.006
304.935	15.965	877.591	665.347
305.949	15.987	876.710	664.705
306.964	15.938	876.273	664.124
307.979	15.989	875.735	663.857
308.993	16.061	874.984	663.510
310.008	16.081	874.545	663.199
311.022	16.080	873.917	662.659
312.037	16.103	873.032	662.021
313.052	16.066	872.635	661.516
314.066	15.927	872.378	660.717
315.081	16.037	871.417	660.361
316.095	15.973	871.314	659.974
317.110	16.078	870.331	659.584
318.125	16.171	870.024	659.655
319.139	16.026	869.513	658.642
320.154	16.076	868.918	658.329
321.168	15.986	868.721	657.772
322.183	16.013	867.891	657.190
323.197	16.047	867.311	656.826
324.212	16.261	866.697	657.134
325.227	16.180	865.880	656.143
326.241	16.120	865.115	655.271
327.256	16.247	864.728	655.412
328.270	16.222	863.833	654.578
329.285	16.206	863.533	654.233
330.300	16.093	863.136	653.435
331.314	16.100	862.964	653.276
332.329	16.155	862.338	652.957
333.343	16.379	861.879	653.417
334.358	16.345	861.151	652.676
335.373	16.373	861.046	652.646
336.387	16.379	860.905	652.506
337.402	16.311	860.625	651.974
338.416	16.384	860.038	651.753
339.431	16.390	859.773	651.515
340.446	16.382	859.035	650.870
341.460	16.421	858.544	650.591
342.475	16.560	858.308	650.889
343.489	16.476	857.776	650.106
344.504	16.474	857.642	649.936
345.519	16.660	856.893	650.027
346.533	16.525	856.592	649.224
347.548	16.533	855.631	648.466
348.562	16.679	854.832	648.363
349.577	16.598	854.664	647.870
350.592	16.527	853.980	647.020
351.606	16.598	853.457	646.839
352.621	16.690	852.489	646.402
353.635	16.705	851.924	645.970
354.650	16.576	851.277	644.930
355.665	16.690	850.832	644.973
356.679	16.592	849.825	643.778
357.694	16.797	849.114	643.962
358.708	16.848	848.559	643.678
359.723	16.702	848.003	642.646
360.738	16.871	847.275	642.677
361.752	16.780	847.015	642.078
362.767	16.787	846.495	641.656
363.781	16.791	845.823	641.105
364.796	16.715	845.566	640.566
365.810	16.882	844.915	640.645
366.825	16.918	844.788	640.631
367.840	17.151	844.022	640.871
368.854	16.961	843.155	639.441
369.869	16.918	843.044	639.137
370.883	17.086	842.469	639.275
371.898	16.990	842.247	638.689
372.913	17.055	842.026	638.710
373.927	16.911	841.232	637.512
374.942	17.099	840.754	637.799
375.956	17.076	840.695	637.610
376.971	17.171	839.942	637.341
377.986	17.100	839.606	636.763
379.000	17.110	839.067	636.334
380.015	17.192	838.692	636.300
381.029	17.249	838.127	636.028
382.044	17.170	837.802	635.431
383.059	17.229	836.947	634.947
384.073	17.227	836.245	634.352
385.088	17.132	835.714	633.535
386.102	17.196	835.462	633.528
387.117	17.310	834.518	633.180
388.132	17.312	833.949	632.701
389.146	17.301	833.413	632.196
390.161	17.351	832.834	631.887
391.175	17.322	832.538	631.500
392.190	17.290	832.098	630.993
393.205	17.353	831.362	630.613
394.219	17.404	831.331	630.721
395.234	17.321	830.760	629.923
396.248	17.312	830.391	629.555
397.263	17.282	829.734	628.891
398.278	17.262	829.463	628.557
399.292	17.207	828.896	627.865
400.307	17.382	828.321	628.021
401.321	17.374	827.922	627.636
402.336	17.323	827.550	627.109
403.350	17.346	827.011	626.731
404.365	17.378	826.613	626.491
405.380	17.626	825.739	626.686
406.394	17.448	825.578	625.853
407.409	17.488	825.207	625.662
408.423	17.590	824.941	625.782
409.438	17.482	824.328	624.865
410.453	17.531	824.100	624.815
411.467	17.716	823.460	624.954
412.482	17.665	823.119	624.452
413.496	17.670	822.705	624.101
414.511	17.838	822.408	624.435
415.526	17.706	822.040	623.619
416.540	17.762	821.440	623.312
417.555	17.798	820.899	622.977
418.569	17.886	820.188	622.705
419.584	17.759	820.170	622.174
420.599	17.683	819.768	621.537
421.613	104.949	1286.797	1446.337
422.628	90.705	1354.859	1446.444
