DTS Sentinel unit serial number:	SN413079Multiplexer serial number:	ORYXHardware model number:	OX4-SRSoftware version number:	ORYX F/W v4.00 Oryx Data Collector v3.7.2.0data status	okinstallation	princeton_trtdifferential loss correction	single-endedforward channel	channel 1reverse channel	N/Adate	2019/09/15time	15:22:35forward acquisition time	60.00reverse acquisition time	0.00gamma	496.2192k internal	0.2292k external	0.2292temperature offset calibration	0.9948default loss term (dB/km)	0.3790temperature slope calibration	1.0000multiplexer offset coefficient	1.0000multiplexer slope coefficient	1.0000fibre end	0.00T internal ref (°C)	40.94T ext. ref 1 (°C)	5.05T ext. ref 2 (°C)	38.28length (m)	temperature (°C)	Stokes	anti-Stokes-747.200	-105.651	0.066	-0.015
-746.185	585.924	-0.077	0.195
-745.171	-7.581	-0.148	-0.102
-744.156	800.000	-0.076	0.319
-743.142	-154.557	0.190	0.013
-742.127	-141.142	-0.123	-0.013
-741.112	800.000	-0.065	0.291
-740.098	800.000	0.151	0.480
-739.083	252.242	-0.083	0.144
-738.069	800.000	-0.041	-0.145
-737.054	-200.000	-0.017	0.418
-736.039	-99.331	-0.377	-0.097
-735.025	229.593	0.117	0.195
-734.010	-200.000	-0.014	-0.171
-732.996	-30.233	-0.387	-0.225
-731.981	123.814	-0.059	0.075
-730.966	-65.432	0.086	0.036
-729.952	-200.000	-0.044	-0.374
-728.937	-98.523	-0.234	0.061
-727.923	800.000	-0.078	-0.270
-726.908	11.313	-0.209	-0.163
-725.894	-200.000	-0.018	0.242
-724.879	50.042	-0.251	-0.242
-723.864	-31.352	-0.187	-0.108
-722.850	19.402	-0.065	0.053
-721.835	119.929	-0.276	-0.350
-720.821	-107.847	-0.161	0.036
-719.806	-200.000	-0.014	-0.139
-718.791	-200.000	-0.015	-0.121
-717.777	44.936	-0.027	-0.026
-716.762	-200.000	0.003	-0.053
-715.748	-28.207	-0.095	-0.056
-714.733	-129.223	-0.113	-0.016
-713.718	-9.796	0.418	-0.284
-712.704	-23.978	-0.193	-0.118
-711.689	-9.597	0.186	-0.127
-710.675	74.637	-0.089	0.096
-709.660	800.000	0.079	0.275
-708.645	-75.343	-0.176	-0.064
-707.631	4.554	-0.082	-0.061
-706.616	-200.000	0.021	0.124
-705.602	137.903	0.300	0.401
-704.587	-200.000	-0.026	0.228
-703.572	487.581	-0.065	-0.151
-702.558	402.729	0.045	-0.096
-701.543	67.027	0.010	0.010
-700.529	500.992	0.052	-0.123
-699.514	-68.854	0.225	-0.089
-698.499	-128.008	0.426	-0.063
-697.485	800.000	0.103	0.329
-696.470	-164.563	-0.078	-0.004
-695.456	10.263	0.136	0.106
-694.441	214.100	-0.109	-0.176
-693.426	65.346	-0.118	0.122
-692.412	-58.744	0.407	-0.180
-691.397	-51.403	0.065	0.031
-690.383	73.056	-0.076	0.081
-689.368	260.607	0.143	0.253
-688.354	-38.725	-0.108	-0.058
-687.339	588.024	-0.066	-0.166
-686.324	-63.797	-0.207	0.086
-685.310	-200.000	0.010	0.094
-684.295	-126.992	0.090	-0.014
-683.281	-90.470	-0.084	-0.025
-682.266	617.715	0.138	-0.354
-681.251	800.000	-0.058	0.164
-680.237	144.391	-0.223	-0.304
-679.222	-81.839	0.495	-0.165
-678.208	-25.884	-0.073	-0.044
-677.193	141.154	-0.217	-0.293
-676.178	-92.469	-0.085	0.024
-675.164	-200.000	0.076	-0.587
-674.149	228.846	-0.111	-0.184
-673.135	-200.000	-0.000	0.254
-672.120	-161.714	-0.070	0.004
-671.105	262.509	0.087	0.154
-670.091	-200.000	-0.019	0.114
-669.076	191.325	0.069	-0.106
-668.062	205.470	-0.062	-0.098
-667.047	186.756	0.062	-0.095
-666.032	-200.000	-0.043	0.206
-665.018	40.254	0.160	-0.147
-664.003	-80.170	0.161	-0.055
-662.989	-8.043	0.087	-0.060
-661.974	-73.024	-0.186	0.070
-660.959	-96.418	0.206	0.056
-659.945	154.000	-0.162	-0.227
-658.930	115.317	-0.142	-0.177
-657.916	96.403	-0.129	-0.150
-656.901	800.000	-0.034	0.099
-655.886	800.000	0.022	0.086
-654.872	800.000	-0.037	0.137
-653.857	75.297	0.125	0.134
-652.843	84.807	-0.166	0.186
-651.828	-199.184	0.091	-0.000
-650.814	-102.354	-0.333	-0.081
-649.799	-200.000	0.015	-0.306
-648.784	-145.342	-0.157	0.014
-647.770	-6.879	-0.353	0.245
-646.755	192.616	0.035	-0.054
-645.741	-16.777	0.222	0.143
-644.726	-71.891	0.116	0.044
-643.711	69.834	-0.157	0.166
-642.697	223.431	0.114	0.187
-641.682	-95.020	0.271	0.075
-640.668	519.316	0.101	-0.242
-639.653	16.194	0.189	-0.152
-638.638	-181.780	0.142	0.003
-637.624	800.000	0.064	0.242
-636.609	297.020	-0.117	-0.218
-635.595	81.649	0.203	-0.224
-634.580	68.177	-0.193	0.201
-633.565	2.287	0.328	-0.242
-632.551	250.173	0.074	0.129
-631.536	11.180	-0.130	-0.101
-630.522	-200.000	0.017	0.108
-629.507	-53.449	-0.164	0.077
-628.492	169.954	0.123	-0.179
-627.478	785.543	-0.103	-0.288
-626.463	-98.278	-0.270	-0.071
-625.449	-43.005	-0.046	-0.024
-624.434	-49.730	-0.169	0.082
-623.419	35.709	-0.249	-0.223
-622.405	-32.502	0.320	-0.182
-621.390	114.737	0.089	0.110
-620.376	20.008	-0.149	-0.123
-619.361	-194.435	-0.066	0.001
-618.346	-23.262	0.330	0.202
-617.332	-64.757	-0.295	0.122
-616.317	-200.000	0.035	0.209
-615.303	10.625	0.192	0.149
-614.288	800.000	0.043	0.152
-613.273	800.000	-0.047	-0.151
-612.259	-76.567	0.064	-0.023
-611.244	-128.319	0.248	0.036
-610.230	40.088	-0.134	-0.123
-609.215	-29.724	0.178	0.104
-608.201	-104.235	0.107	0.025
-607.186	85.163	0.139	-0.155
-606.171	147.196	-0.210	0.288
-605.157	-5.109	-0.098	-0.068
-604.142	-124.592	0.157	0.025
-603.128	72.469	0.063	0.066
-602.113	180.333	0.104	0.155
-601.098	-150.943	0.522	0.040
-600.084	-200.000	0.024	-0.211
-599.069	192.002	0.095	-0.146
-598.055	639.492	-0.039	0.101
-597.040	43.237	0.193	0.179
-596.025	-200.000	0.015	0.210
-595.011	504.339	-0.101	-0.237
-593.996	-141.597	0.181	-0.019
-592.982	-200.000	-0.016	-0.138
-591.967	-200.000	0.014	0.245
-590.952	-91.007	-0.133	0.039
-589.938	-200.000	0.028	-0.293
-588.923	-90.897	-0.217	0.063
-587.909	119.795	0.106	0.133
-586.894	-200.000	-0.031	-0.214
-585.879	-72.888	-0.078	0.029
-584.865	39.754	-0.139	0.127
-583.850	26.258	-0.341	-0.290
-582.836	-141.776	-0.129	-0.013
-581.821	-74.695	0.216	0.079
-580.806	-200.000	0.020	0.143
-579.792	-59.066	-0.110	0.048
-578.777	-200.000	-0.023	0.183
-577.763	40.239	0.084	0.077
-576.748	31.366	-0.215	-0.188
-575.733	-200.000	-0.008	0.147
-574.719	523.128	-0.097	-0.232
-573.704	-98.043	-0.412	-0.108
-572.690	27.727	0.259	-0.222
-571.675	413.397	-0.114	0.246
-570.661	800.000	0.063	-0.218
-569.646	-123.773	0.217	0.035
-568.631	136.768	-0.187	0.248
-567.617	-51.605	0.188	-0.089
-566.602	-108.954	0.205	-0.045
-565.588	-200.000	0.090	0.498
-564.573	800.000	0.059	0.187
-563.558	-200.000	0.179	0.001
-562.544	800.000	0.072	0.240
-561.529	-93.031	0.245	0.069
-560.515	-106.107	0.047	0.011
-559.500	-155.285	0.071	0.005
-558.485	-200.000	0.005	0.142
-557.471	66.423	0.193	-0.199
-556.456	-200.000	0.042	-0.191
-555.442	34.327	0.154	-0.136
-554.427	118.952	-0.105	-0.132
-553.412	-200.000	0.041	0.299
-552.398	156.410	0.130	0.182
-551.383	-56.174	0.320	0.145
-550.369	-48.622	0.557	-0.272
-549.354	760.201	-0.060	-0.164
-548.339	267.336	-0.058	0.103
-547.325	-200.000	0.000	-0.120
-546.310	-18.995	-0.178	-0.113
-545.296	-35.282	-0.283	-0.156
-544.281	-86.064	-0.086	-0.027
-543.266	-116.274	0.048	-0.009
-542.252	-1.556	0.246	-0.176
-541.237	254.277	-0.056	-0.097
-540.223	-123.214	-0.068	0.011
-539.208	-200.000	0.003	-0.187
-538.193	-200.000	0.054	-0.313
-537.179	-200.000	-0.048	-0.232
-536.164	250.339	0.143	0.247
-535.150	-74.046	-0.070	-0.026
-534.135	-107.309	-0.063	-0.014
-533.121	-69.912	-0.227	0.088
-532.106	-50.236	-0.202	0.097
-531.091	76.328	0.097	-0.105
-530.077	-24.928	-0.128	0.077
-529.062	135.635	-0.118	-0.155
-528.048	-19.845	-0.073	0.046
-527.033	342.752	-0.073	0.145
-526.018	7.114	-0.132	0.100
-525.004	800.000	-0.082	-0.354
-523.989	800.000	-0.042	0.139
-522.975	48.837	0.233	0.222
-521.960	231.614	0.062	-0.104
-520.945	159.091	0.085	-0.119
-519.931	-200.000	-0.034	0.177
-518.916	519.021	0.058	-0.138
-517.902	279.848	0.108	-0.196
-516.887	-114.978	-0.132	-0.025
-515.872	28.865	-0.231	0.199
-514.858	-89.724	-0.160	-0.048
-513.843	32.205	-0.079	0.069
-512.829	202.576	0.023	0.036
-511.814	-78.375	0.229	0.080
-510.799	800.000	0.094	0.333
-509.785	-161.569	0.275	0.014
-508.770	-200.000	-0.021	0.206
-507.756	378.389	-0.085	-0.177
-506.741	246.636	-0.157	0.268
-505.726	-34.959	0.016	0.009
-504.712	41.828	0.272	-0.250
-503.697	-98.043	-0.130	0.034
-502.683	-90.789	0.014	-0.004
-501.668	-148.183	-0.375	0.031
-500.653	46.724	-0.250	0.236
-499.639	29.861	0.057	0.049
-498.624	324.352	0.135	0.261
-497.610	149.626	-0.153	-0.210
-496.595	181.764	-0.157	-0.234
-495.581	-109.557	-0.236	-0.050
-494.566	207.870	0.175	-0.277
-493.551	324.044	-0.077	-0.150
-492.537	-95.979	0.253	-0.068
-491.522	-170.091	0.022	-0.001
-490.508	-200.000	0.005	0.047
-489.493	-18.725	-0.127	-0.080
-488.478	-6.895	0.229	0.158
-487.464	-131.066	-0.190	-0.026
-486.449	-94.577	-0.157	-0.043
-485.435	53.676	0.109	0.106
-484.420	800.000	-0.116	-0.352
-483.405	-63.034	0.193	-0.081
-482.391	134.852	0.108	-0.142
-481.376	278.204	0.134	-0.242
-480.362	663.850	-0.041	-0.106
-479.347	19.169	0.176	-0.143
-478.332	-139.746	0.263	0.028
-477.318	-200.000	0.034	0.186
-476.303	-100.580	0.095	0.024
-475.289	-74.420	0.181	-0.066
-474.274	89.423	0.156	0.176
-473.259	-200.000	-0.022	-0.356
-472.245	-159.214	-0.431	-0.025
-471.230	-200.000	0.007	0.157
-470.216	246.824	0.011	-0.019
-469.201	800.000	0.080	-0.287
-468.186	52.370	-0.173	0.167
-467.172	-200.000	-0.007	0.048
-466.157	-41.408	-0.053	0.028
-465.143	-200.000	-0.019	-0.473
-464.128	114.232	-0.083	-0.103
-463.113	-120.680	-0.199	0.034
-462.099	-23.922	0.233	-0.141
-461.084	-160.404	0.222	-0.012
-460.070	-200.000	-0.009	0.191
-459.055	800.000	0.084	0.364
-458.040	-200.000	0.001	-0.166
-457.026	-70.085	-0.422	0.162
-456.011	800.000	0.087	-0.252
-454.997	-24.432	0.225	-0.136
-453.982	-200.000	-0.026	-0.227
-452.968	-167.929	-0.290	0.012
-451.953	-200.000	-0.072	-0.413
-450.938	800.000	0.080	-0.338
-449.924	800.000	0.113	0.331
-448.909	-200.000	0.028	0.175
-447.895	11.609	0.035	-0.027
-446.880	800.000	0.040	-0.170
-445.865	248.627	-0.091	0.156
-444.851	800.000	0.081	-0.268
-443.836	-85.578	-0.335	-0.105
-442.822	780.689	0.077	0.212
-441.807	800.000	0.087	0.250
-440.792	144.425	0.163	0.220
-439.778	-105.693	-0.071	0.016
-438.763	327.699	0.120	-0.233
-437.749	-15.100	-0.068	0.044
-436.734	350.960	-0.196	0.393
-435.719	-24.957	-0.174	-0.104
-434.705	316.454	0.138	0.264
-433.690	-200.000	-0.038	0.287
-432.676	125.095	0.154	-0.196
-431.661	-200.000	0.021	0.232
-430.646	-1.580	0.291	-0.207
-429.632	-82.410	-0.351	0.115
-428.617	94.939	0.304	0.350
-427.603	39.756	0.025	-0.023
-426.588	87.027	-0.073	0.081
-425.573	-200.000	-0.039	-0.405
-424.559	-200.000	0.022	-0.125
-423.544	194.447	-0.301	-0.462
-422.530	-111.562	-0.113	-0.023
-421.515	-35.197	-0.145	-0.080
-420.500	-76.020	0.322	0.115
-419.486	208.097	0.170	0.268
-418.471	-200.000	-0.017	0.200
-417.457	531.019	0.081	0.194
-416.442	800.000	0.116	-0.326
-415.428	-20.488	0.041	0.026
-414.413	-67.672	0.154	0.061
-413.398	-200.000	0.018	0.109
-412.384	-200.000	-0.048	0.379
-411.369	672.028	0.076	0.199
-410.355	-32.536	0.104	-0.058
-409.340	-200.000	-0.029	-0.346
-408.325	236.753	0.264	-0.442
-407.311	65.187	-0.157	-0.160
-406.296	-200.000	-0.008	-0.045
-405.282	-33.822	-0.074	0.041
-404.267	624.135	0.092	-0.234
-403.252	800.000	-0.070	0.304
-402.238	220.018	-0.125	0.202
-401.223	8.541	0.256	0.194
-400.209	-122.865	0.116	-0.019
-399.194	800.000	0.061	0.173
-398.179	83.865	0.107	0.118
-397.165	113.584	-0.081	0.099
-396.150	-102.066	-0.199	-0.048
-395.136	-91.937	-0.063	-0.018
-394.121	-92.541	0.369	0.105
-393.106	247.875	-0.085	0.145
-392.092	-94.130	-0.227	0.063
-391.077	800.000	-0.068	-0.240
-390.063	53.091	-0.095	0.092
-389.048	-200.000	0.025	0.167
-388.033	706.862	-0.076	-0.203
-387.019	-50.767	-0.273	-0.130
-386.004	-120.306	0.064	0.011
-384.990	34.972	0.113	-0.100
-383.975	70.653	0.059	-0.061
-382.960	99.648	-0.224	0.262
-381.946	206.961	0.076	0.120
-380.931	794.069	-0.143	0.397
-379.917	171.681	-0.117	0.170
-378.902	145.836	0.159	0.215
-377.888	115.263	-0.026	-0.032
-376.873	395.815	-0.137	0.289
-375.858	517.281	0.078	-0.184
-374.844	14.054	0.274	-0.215
-373.829	-200.000	-0.032	0.303
-372.815	-200.000	0.029	-0.211
-371.800	-200.000	0.016	-0.084
-370.785	-200.000	0.004	0.365
-369.771	36.483	-0.201	-0.179
-368.756	-44.580	0.247	-0.125
-367.742	28.176	-0.178	0.152
-366.727	733.067	-0.099	-0.268
-365.712	442.737	-0.074	-0.163
-364.698	-127.658	-0.087	0.013
-363.683	103.843	-0.119	0.141
-362.669	-23.183	0.387	0.235
-361.654	-115.591	0.066	0.013
-360.639	800.000	0.139	-0.442
-359.625	11.507	0.197	0.153
-358.610	-120.178	0.318	-0.055
-357.596	800.000	0.034	-0.100
-356.581	-125.563	-0.254	0.039
-355.566	371.898	0.149	0.306
-354.552	-52.476	0.257	-0.120
-353.537	-200.000	0.001	-0.101
-352.523	-170.065	-0.317	0.011
-351.508	253.880	0.064	-0.110
-350.493	78.684	0.106	0.114
-349.479	652.587	-0.082	-0.212
-348.464	-47.159	-0.248	0.122
-347.450	-90.734	-0.204	0.059
-346.435	-109.332	0.100	-0.021
-345.420	28.198	0.310	-0.264
-344.406	104.309	-0.070	-0.084
-343.391	-200.000	0.008	0.153
-342.377	147.355	0.066	0.090
-341.362	-166.200	0.350	0.015
-340.348	159.197	-0.039	-0.054
-339.333	-181.139	0.012	0.000
-338.318	163.760	0.067	-0.095
-337.304	-200.000	0.060	-0.320
-336.289	19.800	-0.088	-0.071
-335.275	-120.348	-0.497	0.085
-334.260	425.674	0.055	-0.118
-333.245	800.000	0.055	-0.206
-332.231	15.508	-0.340	0.269
-331.216	26.923	0.034	-0.029
-330.202	4.832	0.233	0.172
-329.187	266.164	0.048	-0.084
-328.172	-52.320	0.111	-0.052
-327.158	-200.000	0.055	-0.354
-326.143	-200.000	-0.003	-0.247
-325.129	-3.788	0.074	0.051
-324.114	-200.000	0.023	-0.213
-323.099	-10.705	0.037	-0.025
-322.085	-200.000	0.000	-0.098
-321.070	-89.547	0.068	-0.020
-320.056	-138.890	0.173	-0.019
-319.041	-158.303	0.206	-0.012
-318.026	-200.000	-0.055	-0.279
-317.012	63.615	-0.231	0.233
-315.997	-105.174	-0.101	-0.023
-314.983	194.339	0.191	-0.292
-313.968	39.927	-0.166	0.150
-312.953	-10.245	-0.298	0.199
-311.939	216.735	-0.018	0.028
-310.924	256.221	0.216	0.374
-309.910	-200.000	0.047	0.284
-308.895	-169.729	-0.295	-0.011
-307.880	-5.257	0.176	0.122
-306.866	-154.654	0.068	0.005
-305.851	26.508	0.396	0.333
-304.837	-24.715	-0.302	0.180
-303.822	-179.159	0.203	0.005
-302.807	-108.512	0.028	0.006
-301.793	34.269	0.103	0.091
-300.778	-200.000	-0.022	0.270
-299.764	54.495	-0.142	0.138
-298.749	-200.000	-0.086	-0.382
-297.735	-200.000	0.027	0.146
-296.720	15.773	0.057	0.045
-295.705	800.000	0.042	-0.127
-294.691	-26.636	-0.110	-0.065
-293.676	68.976	0.128	0.132
-292.662	-200.000	-0.023	0.125
-291.647	-200.000	-0.041	-0.254
-290.632	-64.510	0.276	0.113
-289.618	130.502	0.157	-0.202
-288.603	-14.976	-0.245	0.158
-287.589	113.962	-0.137	-0.167
-286.574	62.492	-0.250	0.251
-285.559	-200.000	0.003	-0.023
-284.545	-165.558	0.178	-0.008
-283.530	-200.000	-0.068	0.320
-282.516	-24.508	0.182	0.109
-281.501	-54.808	0.269	0.122
-280.486	303.033	0.256	0.476
-279.472	345.037	-0.104	0.204
-278.457	-200.000	0.041	0.258
-277.443	718.904	-0.123	-0.329
-276.428	-45.606	0.174	-0.087
-275.413	-84.351	0.112	-0.036
-274.399	800.000	-0.047	-0.177
-273.384	346.137	-0.005	-0.009
-272.370	559.668	0.111	0.268
-271.355	370.150	-0.076	-0.154
-270.340	0.317	0.112	-0.080
-269.326	158.889	-0.123	-0.172
-268.311	174.668	-0.239	-0.348
-267.297	92.484	0.112	0.127
-266.282	144.091	-0.213	0.286
-265.267	-9.706	0.194	-0.130
-264.253	800.000	-0.098	-0.306
-263.238	-8.769	0.184	-0.124
-262.224	-164.551	-0.108	-0.005
-261.209	-51.959	0.123	0.057
-260.195	800.000	-0.023	0.091
-259.180	-200.000	0.004	-0.108
-258.165	13.756	-0.106	0.083
-257.151	-138.264	0.243	-0.027
-256.136	800.000	-0.079	0.228
-255.122	337.793	0.092	0.180
-254.107	-43.651	-0.100	-0.051
-253.092	-6.226	0.100	0.068
-252.078	-125.051	0.029	-0.005
-251.063	118.705	-0.088	0.109
-250.049	800.000	0.063	0.249
-249.034	800.000	-0.051	0.179
-248.019	800.000	-0.033	0.120
-247.005	-164.162	-0.322	0.015
-245.990	-200.000	0.074	0.355
-244.976	-68.198	0.180	0.070
-243.961	221.202	-0.063	-0.102
-242.946	-200.000	0.057	-0.267
-241.932	-177.949	-0.343	-0.008
-240.917	513.283	-0.050	0.118
-239.903	-200.000	0.012	-0.094
-238.888	8.405	0.117	0.089
-237.873	-70.849	-0.203	0.077
-236.859	-125.706	-0.156	-0.024
-235.844	-40.310	0.125	-0.065
-234.830	24.342	0.120	-0.099
-233.815	-84.660	0.119	-0.038
-232.800	46.346	-0.101	-0.094
-231.786	-176.885	-0.061	-0.002
-230.771	48.937	0.031	0.029
-229.757	272.674	-0.109	0.192
-228.742	194.488	0.009	0.013
-227.727	40.988	0.035	0.032
-226.713	28.651	0.094	0.079
-225.698	-200.000	-0.011	0.394
-224.684	-130.256	-0.087	0.012
-223.669	-137.719	0.091	-0.010
-222.655	-32.932	0.200	0.111
-221.640	800.000	-0.063	0.202
-220.625	-200.000	0.039	0.370
-219.611	79.900	-0.201	-0.217
-218.596	-55.763	-0.223	-0.100
-217.582	7.832	-0.189	-0.142
-216.567	800.000	0.042	-0.121
-215.552	35.076	-0.097	0.085
-214.538	248.175	-0.154	-0.261
-213.523	-95.757	-0.032	0.009
-212.509	-84.208	0.137	0.043
-211.494	-200.000	-0.014	-0.160
-210.479	-100.553	-0.095	-0.024
-209.465	-5.742	0.040	0.028
-208.450	6.537	0.046	0.034
-207.436	-20.335	0.206	-0.127
-206.421	-200.000	-0.023	0.295
-205.406	-126.827	0.152	-0.022
-204.392	-107.337	-0.226	0.050
-203.377	-72.520	0.263	0.097
-202.363	-200.000	0.020	-0.110
-201.348	253.327	-0.006	-0.010
-200.333	-71.191	0.022	0.008
-199.319	-200.000	0.020	0.291
-198.304	79.397	-0.048	-0.052
-197.290	-116.904	-0.313	0.057
-196.275	198.265	0.071	-0.109
-195.260	800.000	-0.014	-0.053
-194.246	613.365	0.149	-0.374
-193.231	202.007	-0.264	-0.408
-192.217	-200.000	-0.034	-0.160
-191.202	-135.962	-0.303	0.036
-190.187	59.566	-0.298	-0.295
-189.173	428.527	-0.106	0.230
-188.158	355.799	0.060	-0.120
-187.144	207.427	-0.079	0.123
-186.129	800.000	0.088	0.337
-185.114	90.413	0.130	0.146
-184.100	800.000	-0.192	-0.592
-183.085	800.000	-0.045	-0.153
-182.071	-98.567	-0.196	-0.050
-181.056	56.756	-0.104	0.101
-180.042	-78.801	0.159	-0.054
-179.027	78.474	-0.352	-0.376
-178.012	-57.018	-0.118	0.052
-176.998	730.385	-0.134	-0.360
-175.983	149.806	0.122	0.165
-174.969	9.723	0.083	0.063
-173.954	-111.583	-0.272	-0.055
-172.939	-141.506	-0.143	0.014
-171.925	-42.309	0.240	-0.123
-170.910	-15.322	0.170	0.109
-169.896	109.588	0.059	0.071
-168.881	800.000	0.012	0.036
-167.866	-200.000	-0.032	-0.226
-166.852	688.436	0.132	-0.346
-165.837	765.445	0.059	-0.160
-164.823	-45.714	0.078	0.038
-163.808	-91.050	-0.553	-0.159
-162.793	-165.066	0.229	0.010
-161.779	800.000	-0.058	0.170
-160.764	102.836	-0.191	-0.223
-159.750	3.357	-0.149	0.109
-158.735	315.397	-0.065	0.123
-157.720	-40.271	-0.338	0.176
-156.706	-180.860	-0.200	-0.004
-155.691	-34.987	-0.276	-0.150
-154.677	155.023	-0.044	0.060
-153.662	-70.926	-0.065	0.024
-152.647	50.262	-0.174	0.164
-151.633	-140.298	-0.149	-0.016
-150.618	446.568	0.081	0.179
-149.604	197.189	0.179	-0.273
-148.589	-200.000	0.001	-0.097
-147.574	331.679	0.043	-0.083
-146.560	-200.000	0.011	-0.190
-145.545	293.702	-0.133	0.243
-144.531	-61.564	0.157	0.066
-143.516	4.518	0.314	0.230
-142.502	-38.397	-0.130	0.069
-141.487	227.109	0.059	-0.097
-140.472	371.677	-0.092	-0.186
-139.458	-200.000	0.025	0.128
-138.443	52.802	0.303	-0.289
-137.429	-52.678	0.192	-0.089
-136.414	-72.001	-0.133	0.049
-135.399	300.248	0.047	0.086
-134.385	-170.617	-0.144	0.005
-133.370	204.053	-0.168	-0.260
-132.356	-200.000	0.453	0.001
-131.341	-123.430	-0.109	-0.017
-130.326	510.613	0.084	0.194
-129.312	800.000	0.047	0.182
-128.297	-200.000	0.088	-0.403
-127.283	-45.835	0.154	0.076
-126.268	57.664	0.142	0.139
-125.253	-94.278	-0.215	0.059
-124.239	40.444	-0.344	-0.309
-123.224	-93.899	0.392	-0.108
-122.210	45.014	-0.254	-0.234
-121.195	800.000	-0.079	-0.283
-120.180	426.562	-0.056	0.121
-119.166	75.582	0.162	0.171
-118.151	-175.722	-0.245	-0.007
-117.137	-108.343	0.098	0.021
-116.122	-110.533	-0.131	-0.027
-115.107	-167.544	0.292	-0.012
-114.093	-200.000	0.064	0.294
-113.078	-133.292	0.135	-0.017
-112.064	-122.347	-0.027	-0.004
-111.049	-164.474	-0.229	-0.010
-110.034	304.769	0.239	-0.443
-109.020	-200.000	0.022	-0.355
-108.005	-88.748	-0.157	0.047
-106.991	-18.656	-0.265	0.165
-105.976	-56.122	0.306	-0.136
-104.962	-144.507	-0.070	-0.006
-103.947	-200.000	0.029	0.146
-102.932	-200.000	-0.007	-0.061
-101.918	-200.000	0.060	-0.397
-100.903	164.644	0.027	-0.038
-99.889	-53.933	-0.153	-0.070
-98.874	-3.546	-0.273	-0.190
-97.859	415.404	0.128	0.273
-96.845	520.606	-0.191	0.448
-95.830	47.113	-0.086	0.080
-94.816	317.027	0.030	0.057
-93.801	291.078	-0.165	0.299
-92.786	-91.702	-0.107	-0.030
-91.772	15.402	-0.329	0.258
-90.757	227.624	-0.082	-0.133
-89.743	800.000	0.114	0.389
-88.728	87.474	0.226	-0.249
-87.713	-8.174	-0.186	-0.125
-86.699	281.092	-0.028	-0.050
-85.684	108.432	-0.182	0.216
-84.670	-46.936	0.161	-0.078
-83.655	800.000	0.035	0.144
-82.640	78.705	0.083	-0.089
-81.626	-149.687	-0.287	0.022
-80.611	307.196	-0.133	0.246
-79.597	-110.358	0.198	-0.041
-78.582	165.185	-0.079	0.111
-77.567	715.021	-0.139	-0.369
-76.553	312.828	-0.144	-0.270
-75.538	68.374	0.101	0.103
-74.524	120.648	0.062	0.077
-73.509	36.436	0.235	-0.206
-72.494	782.738	-0.088	-0.240
-71.480	630.518	0.108	-0.271
-70.465	800.000	0.062	-0.189
-69.451	44.957	-0.119	0.109
-68.436	-140.282	0.101	-0.011
-67.422	607.317	0.130	0.324
-66.407	800.000	0.094	0.314
-65.392	-123.488	0.144	0.023
-64.378	616.104	0.063	0.158
-63.363	94.254	-0.052	-0.059
-62.349	-164.046	-0.438	-0.020
-61.334	-88.323	-1.080	-0.322
-60.319	-62.979	0.324	0.133
-59.305	-200.000	-0.160	-0.780
-58.290	800.000	0.316	0.892
-57.276	504.391	0.669	1.544
-56.261	-200.000	76.360	511.045
-55.246	514.943	1331.697	3097.429
-54.232	143.657	2571.424	3413.225
-53.217	117.922	2236.624	2745.001
-52.203	53.173	1672.843	1596.048
-51.188	44.823	1393.387	1277.327
-50.173	41.116	1347.162	1212.379
-49.159	59.680	1383.183	1359.349
-48.144	66.481	1401.499	1419.031
-47.130	45.275	1364.232	1253.175
-46.115	41.071	1347.668	1212.367
-45.100	40.889	1342.749	1206.793
-44.086	40.837	1340.382	1204.305
-43.071	40.661	1338.238	1201.261
-42.057	40.738	1335.554	1199.271
-41.042	40.770	1334.035	1198.052
-40.027	40.840	1332.340	1196.904
-39.013	40.857	1330.491	1195.296
-37.998	40.862	1328.557	1193.543
-36.984	40.803	1327.299	1192.014
-35.969	40.926	1325.411	1191.003
-34.954	40.969	1323.501	1189.499
-33.940	40.901	1322.103	1187.791
-32.925	41.020	1320.598	1187.099
-31.911	40.998	1319.100	1185.578
-30.896	41.123	1317.712	1185.024
-29.881	41.032	1316.427	1183.278
-28.867	41.062	1314.611	1181.783
-27.852	40.984	1313.654	1180.413
-26.838	41.060	1311.830	1179.177
-25.823	41.078	1310.758	1178.272
-24.809	41.067	1309.215	1176.773
-23.794	41.019	1307.485	1174.885
-22.779	40.895	1306.929	1173.611
-21.765	41.019	1305.186	1172.727
-20.750	41.087	1303.228	1171.323
-19.736	41.029	1302.386	1170.178
-18.721	40.861	1301.203	1168.081
-17.706	40.929	1300.084	1167.432
-16.692	40.856	1299.258	1166.216
-15.677	40.952	1297.295	1164.966
-14.663	40.898	1296.555	1163.942
-13.648	40.875	1295.265	1162.599
-12.633	40.989	1294.262	1162.320
-11.619	40.866	1293.569	1160.935
-10.604	40.828	1292.913	1160.077
-9.590	40.896	1291.644	1159.291
-8.575	40.765	1290.965	1157.871
-7.560	40.844	1289.531	1156.998
-6.546	40.930	1288.656	1156.667
-5.531	40.833	1288.017	1155.486
-4.517	40.895	1287.137	1155.010
-3.502	40.845	1285.989	1153.643
-2.487	41.014	1284.949	1153.647
-1.473	41.016	1281.758	1150.745
-0.458	40.271	1267.980	1134.064
0.556	35.226	1248.456	1095.433
1.571	30.916	1251.457	1073.211
2.586	29.050	1265.873	1074.596
3.600	27.488	1254.810	1056.060
4.615	21.146	1179.882	958.216
5.629	10.692	1098.640	838.440
6.644	5.561	1074.845	794.231
7.659	4.975	1071.739	788.901
8.673	4.831	1070.675	787.319
9.688	4.825	1069.201	786.138
10.702	5.368	1067.887	787.839
11.717	11.353	1077.366	825.112
12.731	19.000	1088.630	872.605
13.746	19.947	1087.423	876.358
14.761	17.731	1083.973	862.309
15.775	16.394	1081.506	853.518
16.790	15.309	1079.685	846.531
17.804	14.703	1077.651	841.808
18.819	14.300	1076.701	838.960
19.834	14.003	1075.436	836.405
20.848	13.676	1074.888	834.262
21.863	13.571	1073.762	832.786
22.877	13.395	1073.083	831.303
23.892	13.394	1072.326	830.635
24.907	13.373	1071.584	829.883
25.921	13.404	1070.674	829.261
26.936	13.488	1069.109	828.397
27.950	13.527	1067.926	827.598
28.965	13.544	1066.311	826.357
29.980	13.760	1064.263	825.776
30.994	13.642	1063.573	824.581
32.009	13.713	1062.683	824.169
33.023	13.554	1061.926	822.721
34.038	13.544	1060.362	821.384
35.053	13.595	1059.537	820.925
36.067	13.543	1058.708	819.954
37.082	13.463	1058.360	819.214
38.096	13.502	1057.479	818.656
39.111	13.682	1056.204	818.483
40.126	13.539	1054.975	816.754
41.140	13.335	1053.612	814.621
42.155	13.261	1052.884	813.623
43.169	13.211	1051.778	812.452
44.184	13.262	1050.671	811.772
45.199	13.235	1049.589	810.732
46.213	13.233	1048.536	809.837
47.228	13.319	1047.577	809.448
48.242	13.480	1046.422	809.273
49.257	13.477	1045.107	808.166
50.271	13.615	1044.617	808.388
51.286	13.463	1043.684	806.856
52.301	13.558	1042.807	806.568
53.315	13.400	1041.403	804.642
54.330	13.315	1040.698	803.612
55.344	13.260	1039.779	802.565
56.359	13.301	1038.673	801.843
57.374	13.331	1037.863	801.288
58.388	13.238	1037.093	800.174
59.403	13.133	1036.429	799.084
60.417	13.216	1035.308	798.550
61.432	13.193	1034.680	797.885
62.447	13.306	1033.804	797.680
63.461	13.209	1032.921	796.463
64.476	13.130	1032.236	795.482
65.490	13.144	1031.100	794.606
66.505	13.258	1030.394	794.541
67.520	13.230	1029.904	793.955
68.534	13.392	1028.789	793.805
69.549	13.167	1028.620	792.522
70.563	13.208	1027.399	791.709
71.578	13.146	1026.591	790.719
72.593	13.155	1026.045	790.271
73.607	13.024	1025.474	789.135
74.622	13.140	1024.770	789.079
75.636	13.173	1023.972	788.550
76.651	13.155	1023.056	787.691
77.666	13.176	1022.490	787.285
78.680	13.160	1021.701	786.531
79.695	13.119	1021.565	786.163
80.709	13.234	1020.983	786.192
81.724	13.201	1020.487	785.585
82.739	13.278	1019.592	785.189
83.753	13.466	1018.605	785.254
84.768	13.486	1017.722	784.600
85.782	13.675	1016.672	784.613
86.797	13.602	1015.840	783.556
87.812	13.553	1014.962	782.579
88.826	13.464	1014.010	781.355
89.841	13.575	1012.787	780.868
90.855	13.437	1012.394	779.844
91.870	13.526	1011.629	779.608
92.884	13.468	1010.647	778.509
93.899	13.582	1009.500	778.088
94.914	13.632	1009.080	777.935
95.928	13.637	1008.093	777.124
96.943	13.674	1006.998	776.388
97.957	13.578	1006.179	775.238
98.972	13.620	1004.922	774.399
99.987	13.611	1004.302	773.809
101.001	13.528	1003.240	772.533
102.016	13.562	1002.203	771.827
103.030	13.553	1001.924	771.501
104.045	13.598	1000.795	770.771
105.060	13.448	1000.218	769.564
106.074	13.381	998.989	768.240
107.089	13.358	997.955	767.270
108.103	13.302	996.940	766.163
109.118	13.362	996.290	765.873
110.133	13.196	995.612	764.515
111.147	13.212	994.514	763.676
112.162	13.380	993.516	763.621
113.176	13.393	992.622	762.923
114.191	13.355	992.196	762.354
115.206	13.459	991.406	762.160
116.220	13.416	990.406	761.124
117.235	13.276	989.646	759.831
118.249	13.411	988.835	759.758
119.264	13.329	988.518	759.070
120.279	13.408	987.166	758.330
121.293	13.324	986.283	757.198
122.308	13.429	985.380	756.920
123.322	13.330	984.355	755.614
124.337	13.283	983.367	754.574
125.352	13.370	982.322	754.100
126.366	13.254	981.472	752.852
127.381	13.267	980.360	751.991
128.395	13.363	979.470	751.681
129.410	13.408	978.484	751.060
130.424	13.447	977.854	750.689
131.439	13.531	976.947	750.306
132.454	13.597	975.909	749.742
133.468	13.537	975.483	749.074
134.483	13.491	974.801	748.280
135.497	13.549	973.994	747.855
136.512	13.501	973.104	746.887
137.527	13.642	972.067	746.661
138.541	13.646	971.240	745.979
139.556	13.532	970.681	744.969
140.570	13.634	970.125	744.937
141.585	13.804	969.369	745.055
142.600	13.777	968.504	744.202
143.614	13.817	967.492	743.537
144.629	13.744	966.824	742.633
145.643	13.803	966.075	742.254
146.658	13.795	964.092	740.626
147.673	13.678	964.078	740.033
148.687	13.453	963.417	738.452
149.702	13.495	962.212	737.653
150.716	13.471	961.321	736.795
151.731	13.513	960.881	736.583
152.746	13.488	959.949	735.691
153.760	13.602	959.046	735.438
154.775	13.706	958.549	735.453
155.789	13.646	958.124	734.795
156.804	13.661	956.982	733.923
157.819	13.777	956.510	734.009
158.833	13.670	956.404	733.388
159.848	13.687	955.339	732.584
160.862	13.727	953.955	731.633
161.877	13.735	952.783	730.703
162.892	13.646	951.927	729.595
163.906	13.528	951.168	728.427
164.921	13.707	950.232	728.433
165.935	13.777	949.408	728.045
166.950	13.709	948.456	726.951
167.964	13.733	947.924	726.582
168.979	13.689	946.883	725.529
169.994	13.797	945.917	725.198
171.008	13.754	944.886	724.154
172.023	13.814	944.703	724.214
173.037	13.823	944.054	723.688
174.052	13.889	943.177	723.243
175.067	13.705	942.743	722.045
176.081	13.686	941.969	721.305
177.096	13.752	941.133	720.889
178.110	13.868	940.993	721.222
179.125	13.676	940.468	719.918
180.140	13.656	940.001	719.411
181.154	13.908	939.114	719.760
182.169	13.939	938.989	719.735
183.183	14.074	937.957	719.465
184.198	13.953	937.380	718.436
185.213	14.043	936.704	718.244
186.227	13.937	936.086	717.249
187.242	14.009	935.647	717.160
188.256	14.046	934.911	716.691
189.271	14.039	933.921	715.839
190.286	13.898	933.225	714.633
191.300	13.725	932.633	713.373
192.315	13.733	931.757	712.676
193.329	13.770	931.338	712.453
194.344	13.818	930.710	712.113
195.359	13.982	929.738	712.010
196.373	14.065	929.616	712.207
197.388	14.128	928.950	711.904
198.402	14.179	928.576	711.773
199.417	14.189	927.925	711.254
200.432	14.184	927.431	710.792
201.446	14.387	927.002	711.265
202.461	14.278	926.777	710.566
203.475	14.341	925.968	710.151
204.490	14.262	924.789	708.849
205.504	14.200	924.308	708.152
206.519	14.163	923.405	707.239
207.534	14.210	922.561	706.734
208.548	14.297	921.755	706.420
209.563	14.122	921.945	705.762
210.577	14.348	920.527	705.573
211.592	14.391	919.771	705.110
212.607	14.445	919.081	704.747
213.621	14.312	918.688	703.821
214.636	14.307	918.190	703.359
215.650	14.263	917.404	702.508
216.665	14.364	916.472	702.157
217.680	14.494	915.954	702.248
218.694	14.484	915.344	701.672
219.709	14.412	914.491	700.654
220.723	14.461	913.929	700.370
221.738	14.343	913.532	699.508
222.753	14.446	912.573	699.141
223.767	14.482	911.960	698.763
224.782	14.717	911.122	699.042
225.796	14.616	911.098	698.540
226.811	14.626	910.265	697.882
227.826	14.441	909.794	696.682
228.840	14.496	908.647	695.973
229.855	14.391	908.023	694.997
230.869	14.460	907.557	694.867
231.884	14.466	906.678	694.156
232.899	14.480	906.038	693.661
233.913	14.407	905.208	692.664
234.928	14.480	904.730	692.538
235.942	14.532	903.643	691.862
236.957	14.450	903.318	691.210
237.972	14.447	902.875	690.799
238.986	14.598	902.173	690.826
240.001	14.556	901.736	690.256
241.015	14.678	900.609	689.838
242.030	14.628	900.025	689.121
243.045	14.476	899.900	688.336
244.059	14.590	899.164	688.184
245.074	14.744	898.122	687.959
246.088	14.679	897.622	687.248
247.103	14.696	897.434	687.112
248.117	14.769	897.089	687.087
249.132	14.865	896.513	686.983
250.147	15.025	895.803	687.032
251.161	15.037	895.282	686.622
252.176	15.041	894.544	686.014
253.190	15.143	893.417	685.504
254.205	15.124	892.954	685.011
255.220	15.067	892.113	684.074
256.234	15.145	891.465	683.833
257.249	15.223	890.864	683.631
258.263	15.181	889.926	682.677
259.278	15.158	889.478	682.181
260.293	15.077	889.416	681.743
261.307	15.115	888.621	681.230
262.322	15.235	887.737	680.977
263.336	15.331	886.908	680.671
264.351	15.217	886.653	679.953
265.366	15.308	885.724	679.548
266.380	15.286	885.019	678.860
267.395	15.268	884.298	678.174
268.409	15.290	883.573	677.647
269.424	15.339	882.798	677.189
270.439	15.366	882.052	676.665
271.453	15.262	881.560	675.809
272.468	15.247	881.074	675.319
273.482	15.320	880.357	675.000
274.497	15.327	880.014	674.705
275.512	15.183	879.337	673.551
276.526	15.257	879.023	673.546
277.541	15.216	878.776	673.132
278.555	15.419	877.873	673.195
279.570	15.585	876.922	673.071
280.585	15.543	876.163	672.262
281.599	15.510	875.364	671.457
282.614	15.391	874.913	670.577
283.628	15.442	874.421	670.343
284.643	15.459	873.652	669.763
285.657	15.541	872.683	669.289
286.672	15.536	872.702	669.223
287.687	15.672	871.612	668.871
288.701	15.614	870.923	668.052
289.716	15.475	870.433	667.063
290.730	15.541	870.153	667.054
291.745	15.658	869.530	666.979
292.760	15.561	869.031	666.154
293.774	15.833	867.998	666.378
294.789	15.736	867.144	665.281
295.803	15.653	866.571	664.455
296.818	15.661	866.103	664.067
297.833	15.640	865.291	663.303
298.847	15.662	864.910	663.041
299.862	15.717	864.077	662.559
300.876	15.740	863.930	662.481
301.891	15.638	863.515	661.702
302.906	15.708	862.591	661.211
303.920	15.881	862.219	661.545
304.935	15.890	861.634	661.072
305.949	15.882	860.656	660.234
306.964	15.821	860.397	659.738
307.979	15.714	860.238	659.137
308.993	15.889	859.086	658.882
310.008	16.009	858.492	658.837
311.022	15.946	858.091	658.226
312.037	15.918	857.263	657.421
313.052	15.943	856.486	656.866
314.066	15.795	856.257	656.054
315.081	15.801	855.501	655.441
316.095	15.822	855.200	655.232
317.110	15.779	854.731	654.649
318.125	15.844	854.147	654.395
319.139	15.937	853.386	654.118
320.154	15.912	853.273	653.874
321.168	15.837	852.730	653.111
322.183	16.030	851.513	652.868
323.197	16.042	851.166	652.590
324.212	16.007	850.632	651.988
325.227	15.979	850.157	651.459
326.241	15.950	849.468	650.762
327.256	15.834	849.558	650.325
328.270	15.876	848.626	649.713
329.285	15.901	847.978	649.258
330.300	16.025	847.331	649.181
331.314	15.963	846.845	648.515
332.329	16.091	846.338	648.561
333.343	16.194	845.791	648.481
334.358	16.200	845.714	648.385
335.373	16.213	844.938	647.783
336.387	16.176	845.007	647.638
337.402	16.177	844.678	647.333
338.416	16.233	844.058	647.014
339.431	16.306	843.660	646.933
340.446	16.347	843.475	646.891
341.460	16.431	842.830	646.659
342.475	16.323	842.784	646.153
343.489	16.416	842.149	645.964
344.504	16.528	841.281	645.671
345.519	16.618	840.975	645.720
346.533	16.684	840.005	645.172
347.548	16.424	839.949	644.081
348.562	16.365	839.849	643.723
349.577	16.404	838.633	642.881
350.592	16.500	838.086	642.770
351.606	16.470	837.188	641.909
352.621	16.495	836.645	641.533
353.635	16.390	836.334	640.840
354.650	16.461	835.334	640.284
355.665	16.594	834.824	640.340
356.679	16.514	834.244	639.536
357.694	16.475	833.900	639.067
358.708	16.563	833.309	638.892
359.723	16.558	832.808	638.432
360.738	16.557	832.250	637.942
361.752	16.712	831.365	637.792
362.767	16.699	830.675	637.157
363.781	16.607	830.752	636.816
364.796	16.733	829.987	636.647
365.810	16.812	829.521	636.530
366.825	16.730	829.399	636.071
367.840	16.718	828.465	635.254
368.854	16.908	827.987	635.544
369.869	16.690	828.055	634.722
370.883	16.825	827.155	634.482
371.898	16.845	827.262	634.582
372.913	16.796	826.671	633.890
373.927	16.857	826.153	633.664
374.942	16.884	825.439	633.161
375.956	16.941	825.289	633.202
376.971	16.963	824.999	633.007
377.986	16.992	824.302	632.524
379.000	17.006	823.744	632.090
380.015	17.054	823.159	631.766
381.029	17.041	822.386	631.067
382.044	17.163	822.044	631.203
383.059	17.166	821.455	630.707
384.073	17.141	821.124	630.304
385.088	17.012	820.130	629.006
386.102	16.920	819.708	628.288
387.117	17.007	819.392	628.312
388.132	16.960	818.761	627.596
389.146	16.946	818.113	626.994
390.161	17.216	817.395	627.384
391.175	17.173	817.215	627.033
392.190	17.149	816.486	626.327
393.205	17.173	816.208	626.148
394.219	16.988	815.927	625.196
395.234	17.074	815.319	624.993
396.248	17.153	814.682	624.738
397.263	17.091	814.433	624.266
398.278	17.069	814.003	623.799
399.292	17.042	813.763	623.462
400.307	17.164	813.022	623.284
401.321	17.054	812.675	622.562
402.336	17.157	812.025	622.385
403.350	17.254	811.729	622.459
404.365	17.235	811.239	621.956
405.380	17.372	810.757	622.035
406.394	17.319	810.505	621.592
407.409	17.357	809.725	621.076
408.423	17.419	809.980	621.445
409.438	17.500	809.424	621.260
410.453	17.486	808.779	620.657
411.467	17.590	808.669	620.898
412.482	17.475	808.176	620.046
413.496	17.689	807.719	620.418
414.511	17.627	807.127	619.684
415.526	17.573	806.969	619.312
416.540	17.480	806.513	618.569
417.555	17.670	805.804	618.658
418.569	17.523	805.910	618.151
419.584	17.657	804.915	617.822
420.599	17.670	804.916	617.813
421.613	90.742	1262.739	1365.166
422.628	77.542	1329.465	1365.273
