DTS Sentinel unit serial number:	SN413079Multiplexer serial number:	ORYXHardware model number:	OX4-SRSoftware version number:	ORYX F/W v4.00 Oryx Data Collector v3.7.2.0data status	okinstallation	princeton_trtdifferential loss correction	single-endedforward channel	channel 1reverse channel	N/Adate	2019/09/19time	01:10:35forward acquisition time	60.00reverse acquisition time	0.00gamma	496.2192k internal	0.2344k external	0.2344temperature offset calibration	1.0019default loss term (dB/km)	0.3790temperature slope calibration	1.0000multiplexer offset coefficient	1.0000multiplexer slope coefficient	1.0000fibre end	0.00T internal ref (°C)	21.81T ext. ref 1 (°C)	0.70T ext. ref 2 (°C)	15.35length (m)	temperature (°C)	Stokes	anti-Stokes-747.200	-200.000	0.021	0.155
-746.185	15.389	-0.255	0.200
-745.171	-200.000	-0.011	0.207
-744.156	800.000	-0.115	0.344
-743.142	-71.588	0.133	0.050
-742.127	135.299	-0.200	0.261
-741.112	-55.006	0.272	0.122
-740.098	-133.004	-0.418	0.053
-739.083	27.987	-0.254	0.214
-738.069	-16.967	-0.179	0.113
-737.054	-102.873	0.170	-0.041
-736.039	56.761	-0.167	-0.163
-735.025	157.789	0.167	-0.231
-734.010	645.260	-0.028	-0.072
-732.996	473.312	0.043	-0.096
-731.981	54.905	0.112	-0.108
-730.966	41.603	-0.272	-0.247
-729.952	-200.000	-0.031	-0.358
-728.937	78.902	-0.292	-0.312
-727.923	1.647	-0.262	-0.189
-726.908	115.449	-0.198	-0.242
-725.894	-110.278	-0.167	0.035
-724.879	201.339	-0.069	0.106
-723.864	-107.872	0.307	0.067
-722.850	106.856	-0.261	0.310
-721.835	800.000	-0.044	0.189
-720.821	512.107	0.089	-0.206
-719.806	-155.874	-0.180	-0.011
-718.791	-124.502	-0.073	-0.011
-717.777	800.000	0.140	0.449
-716.762	-1.758	-0.126	-0.088
-715.748	-200.000	0.004	-0.039
-714.733	-103.899	-0.272	-0.063
-713.718	-200.000	-0.037	0.163
-712.704	-200.000	0.037	-0.169
-711.689	7.244	-0.246	-0.184
-710.675	55.384	0.296	0.287
-709.660	111.502	0.072	-0.087
-708.645	800.000	0.060	-0.195
-707.631	-5.888	-0.041	0.028
-706.616	57.307	-0.063	-0.062
-705.602	19.640	-0.174	-0.140
-704.587	59.308	-0.212	-0.209
-703.572	-200.000	-0.003	0.105
-702.558	-52.553	0.249	-0.115
-701.543	-200.000	-0.006	0.238
-700.529	-200.000	-0.006	-0.279
-699.514	214.355	0.182	-0.287
-698.499	-200.000	0.390	-0.000
-697.485	0.486	-0.341	0.243
-696.470	-0.570	-0.161	0.114
-695.456	-200.000	0.010	0.299
-694.441	-63.533	-0.514	0.211
-693.426	186.879	-0.112	0.167
-692.412	616.030	0.024	0.059
-691.397	-200.000	-0.022	0.162
-690.383	41.150	-0.314	-0.284
-689.368	-119.883	-0.157	-0.027
-688.354	-197.055	-0.049	-0.000
-687.339	-44.067	-0.053	-0.027
-686.324	184.414	-0.150	0.222
-685.310	163.338	-0.188	-0.263
-684.295	-200.000	0.016	0.310
-683.281	76.060	0.106	-0.112
-682.266	-62.743	-0.522	-0.216
-681.251	340.402	-0.079	0.154
-680.237	-30.486	-0.383	-0.217
-679.222	-158.134	-0.063	0.004
-678.208	800.000	-0.082	-0.279
-677.193	-57.133	0.097	-0.043
-676.178	-122.741	0.182	0.029
-675.164	-104.247	0.254	0.059
-674.149	-200.000	-0.016	0.216
-673.135	556.159	0.065	0.157
-672.120	-200.000	0.001	0.086
-671.105	800.000	0.063	-0.274
-670.091	-31.525	0.423	-0.237
-669.076	-0.832	-0.402	-0.284
-668.062	255.491	0.197	-0.336
-667.047	170.610	0.132	0.188
-666.032	150.863	0.006	0.008
-665.018	42.154	0.041	0.037
-664.003	800.000	0.045	-0.153
-662.989	42.191	0.152	-0.137
-661.974	-50.604	-0.375	0.176
-660.959	43.255	-0.045	0.041
-659.945	-92.275	0.124	-0.035
-658.930	270.998	0.046	-0.081
-657.916	-5.857	0.140	-0.095
-656.901	-38.671	-0.320	0.169
-655.886	97.123	-0.231	0.264
-654.872	117.617	0.163	-0.200
-653.857	-200.000	0.017	-0.321
-652.843	421.373	0.058	-0.124
-651.828	-200.000	0.086	0.376
-650.814	-117.338	-0.291	-0.053
-649.799	-88.362	-0.104	0.031
-648.784	-86.913	-0.197	0.060
-647.770	501.646	-0.153	-0.351
-646.755	149.013	0.026	-0.035
-645.741	-108.930	-0.298	0.063
-644.726	87.590	-0.218	0.241
-643.711	53.440	-0.242	0.231
-642.697	-39.628	-0.255	0.133
-641.682	23.210	0.243	0.199
-640.668	800.000	0.055	-0.203
-639.653	4.979	-0.219	0.160
-638.638	667.664	0.070	-0.181
-637.624	-93.556	0.176	0.048
-636.609	-170.126	0.268	0.009
-635.595	89.996	0.138	-0.154
-634.580	177.479	0.202	-0.294
-633.565	800.000	0.010	0.039
-632.551	212.518	-0.226	0.355
-631.536	-44.529	-0.338	0.168
-630.522	800.000	0.051	0.163
-629.507	-67.903	-0.127	-0.049
-628.492	-95.683	0.148	0.039
-627.478	20.257	0.325	0.261
-626.463	352.436	0.074	-0.147
-625.449	154.770	0.264	0.361
-624.434	16.251	-0.499	0.392
-623.419	-137.289	0.098	0.011
-622.405	-200.000	0.008	-0.059
-621.390	5.122	-0.302	0.222
-620.376	447.979	-0.194	-0.426
-619.361	-4.635	-0.082	0.056
-618.346	148.233	0.164	-0.220
-617.332	1.160	-0.078	-0.056
-616.317	-46.649	-0.123	-0.060
-615.303	-44.464	0.307	-0.153
-614.288	127.754	0.163	0.207
-613.273	210.338	-0.061	0.095
-612.259	-200.000	-0.014	-0.133
-611.244	-87.317	-0.296	0.089
-610.230	666.503	0.058	0.148
-609.215	146.677	-0.201	0.269
-608.201	-12.104	-0.357	0.232
-607.186	129.592	0.212	-0.270
-606.171	51.865	0.283	0.268
-605.157	-19.051	-0.035	-0.022
-604.142	-159.709	-0.498	-0.027
-603.128	-200.000	0.013	-0.075
-602.113	-200.000	0.046	0.252
-601.098	-95.860	0.058	0.015
-600.084	-147.680	-0.185	0.015
-599.069	-11.350	-0.149	0.098
-598.055	-29.474	0.174	-0.099
-597.040	-200.000	0.004	0.240
-596.025	-132.274	0.446	0.057
-595.011	206.049	-0.097	-0.150
-593.996	44.723	-0.058	-0.053
-592.982	61.361	-0.172	0.170
-591.967	-43.887	0.122	0.061
-590.952	-89.191	0.125	-0.037
-589.938	-200.000	-0.004	0.086
-588.923	-200.000	0.009	-0.066
-587.909	47.689	0.151	-0.140
-586.894	31.574	-0.330	0.282
-585.879	-200.000	0.009	0.181
-584.865	-104.533	0.405	-0.093
-583.850	800.000	0.087	-0.329
-582.836	67.936	-0.194	-0.197
-581.821	-200.000	0.001	0.047
-580.806	89.692	0.044	-0.049
-579.792	-62.580	-0.140	-0.058
-578.777	800.000	0.058	-0.169
-577.763	139.939	-0.162	-0.212
-576.748	-68.671	0.115	0.044
-575.733	-200.000	-0.044	0.607
-574.719	10.609	0.145	-0.110
-573.704	21.297	0.222	-0.179
-572.690	-22.097	-0.084	-0.051
-571.675	93.023	0.117	0.131
-570.661	-54.252	-0.216	-0.097
-569.646	51.979	-0.036	-0.034
-568.631	-200.000	-0.036	0.208
-567.617	94.966	0.068	-0.077
-566.602	188.679	-0.037	-0.055
-565.588	800.000	-0.093	-0.287
-564.573	-64.606	-0.133	-0.054
-563.558	-110.266	0.092	0.019
-562.544	-118.448	0.297	0.052
-561.529	-103.224	-0.133	0.031
-560.515	-23.351	-0.124	0.074
-559.500	255.283	-0.199	-0.339
-558.485	-200.000	-0.010	-0.102
-557.471	-110.307	-0.300	0.062
-556.456	-200.000	-0.064	-0.412
-555.442	424.344	0.089	0.190
-554.427	-151.246	0.305	0.023
-553.412	800.000	0.056	-0.167
-552.398	21.352	-0.263	0.212
-551.383	82.318	-0.131	0.142
-550.369	800.000	0.054	0.171
-549.354	86.583	0.076	0.083
-548.339	-91.092	0.096	-0.027
-547.325	-200.000	0.022	-0.477
-546.310	12.148	0.102	-0.078
-545.296	-162.161	0.205	0.010
-544.281	-200.000	0.006	-0.109
-543.266	-74.731	-0.089	0.032
-542.252	-30.355	0.103	-0.058
-541.237	800.000	-0.072	0.291
-540.223	-200.000	0.083	0.468
-539.208	8.801	-0.197	-0.147
-538.193	-101.279	0.285	-0.069
-537.179	10.226	-0.190	0.143
-536.164	800.000	-0.146	0.408
-535.150	117.863	-0.199	-0.243
-534.135	-46.108	0.229	-0.112
-533.121	-200.000	-0.049	0.305
-532.106	-200.000	-0.043	0.198
-531.091	273.161	0.140	-0.246
-530.077	-200.000	-0.067	-0.336
-529.062	-20.035	-0.105	-0.064
-528.048	13.613	0.211	-0.163
-527.033	-162.057	0.303	0.015
-526.018	143.322	0.112	-0.148
-525.004	256.456	0.016	0.028
-523.989	176.909	-0.019	-0.027
-522.975	-170.109	-0.232	-0.008
-521.960	154.302	-0.040	-0.055
-520.945	103.401	0.007	0.008
-519.931	-200.000	0.000	0.015
-518.916	-17.597	-0.285	-0.178
-517.902	-200.000	0.005	0.304
-516.887	560.336	0.129	-0.308
-515.872	-132.101	-0.206	0.027
-514.858	800.000	-0.043	-0.120
-513.843	304.625	-0.359	-0.661
-512.829	43.785	0.240	-0.218
-511.814	-200.000	0.004	0.027
-510.799	70.212	0.161	-0.165
-509.785	-26.071	0.229	-0.134
-508.770	-27.318	-0.038	-0.022
-507.756	67.334	0.031	0.031
-506.741	12.175	0.229	0.175
-505.726	655.596	0.060	0.153
-504.712	81.651	0.112	0.120
-503.697	-20.034	0.202	-0.124
-502.683	800.000	0.033	-0.107
-501.668	-200.000	-0.004	-0.019
-500.653	124.151	-0.188	-0.234
-499.639	779.886	-0.104	-0.281
-498.624	285.610	-0.174	-0.312
-497.610	800.000	0.061	0.207
-496.595	-98.934	0.350	-0.088
-495.581	-200.000	0.026	-0.298
-494.566	-200.000	0.015	0.172
-493.551	-106.540	-0.263	0.058
-492.537	800.000	0.030	-0.102
-491.522	479.477	0.130	0.293
-490.508	-71.637	0.092	-0.034
-489.493	-200.000	0.059	-0.429
-488.478	-23.323	-0.209	0.125
-487.464	-166.223	-0.240	0.010
-486.449	800.000	0.042	0.173
-485.435	120.345	0.156	0.192
-484.420	-17.795	-0.097	-0.060
-483.405	396.410	-0.054	-0.112
-482.391	-147.112	-0.207	-0.018
-481.376	672.810	0.105	-0.269
-480.362	-100.798	0.160	-0.039
-479.347	4.310	-0.218	0.158
-478.332	-34.117	-0.093	0.051
-477.318	-94.253	-0.286	-0.077
-476.303	-46.862	0.237	0.115
-475.289	-87.078	0.211	-0.064
-474.274	-200.000	-0.025	-0.205
-473.259	-63.749	-0.213	0.086
-472.245	20.154	-0.177	-0.142
-471.230	-92.925	0.066	-0.018
-470.216	-50.283	0.180	0.084
-469.201	-200.000	-0.011	0.139
-468.186	-16.865	-0.122	-0.076
-467.172	800.000	-0.076	0.215
-466.157	6.592	0.046	0.034
-465.143	-8.651	-0.154	-0.102
-464.128	231.737	-0.304	-0.494
-463.113	-33.389	-0.112	-0.061
-462.099	505.254	-0.069	0.158
-461.084	223.909	-0.064	-0.102
-460.070	-194.845	-0.177	-0.001
-459.055	-200.000	0.028	0.226
-458.040	682.799	-0.057	-0.146
-457.026	-13.744	0.156	0.100
-456.011	-200.000	-0.010	-0.078
-454.997	216.395	0.041	-0.065
-453.982	226.193	-0.077	0.124
-452.968	22.313	-0.073	0.059
-451.953	19.989	-0.297	0.237
-450.938	-129.473	-0.180	0.025
-449.924	800.000	0.124	0.466
-448.909	0.366	-0.208	0.147
-447.895	-33.477	-0.252	0.138
-446.880	-148.778	-0.126	-0.010
-445.865	207.034	0.144	-0.221
-444.851	43.015	-0.278	-0.251
-443.836	35.306	-0.076	-0.066
-442.822	-146.554	0.093	-0.008
-441.807	800.000	-0.040	0.119
-440.792	55.343	-0.033	0.032
-439.778	267.959	-0.167	-0.289
-438.763	-195.703	-0.101	0.001
-437.749	-200.000	-0.016	0.299
-436.734	-120.712	0.249	0.042
-435.719	102.748	-0.249	0.288
-434.705	-200.000	0.021	0.253
-433.690	-46.493	-0.117	0.057
-432.676	-63.360	-0.227	-0.092
-431.661	-200.000	-0.002	0.195
-430.646	-175.009	-0.055	-0.002
-429.632	36.190	0.180	-0.157
-428.617	-200.000	-0.008	-0.038
-427.603	800.000	0.083	0.260
-426.588	800.000	-0.143	0.402
-425.573	290.951	0.073	-0.131
-424.559	-114.147	0.072	-0.014
-423.544	-32.144	-0.235	0.130
-422.530	21.039	-0.113	-0.091
-421.515	-19.306	-0.284	0.174
-420.500	-200.000	-0.008	0.128
-419.486	-24.148	0.134	-0.079
-418.471	800.000	0.066	-0.192
-417.457	-38.836	0.168	-0.088
-416.442	172.488	0.143	-0.204
-415.428	-200.000	-0.043	0.488
-414.413	-109.955	-0.509	-0.105
-413.398	160.503	0.080	-0.110
-412.384	315.622	0.021	0.039
-411.369	42.289	0.244	-0.219
-410.355	719.742	0.017	-0.045
-409.340	-169.993	-0.076	-0.003
-408.325	179.857	-0.101	-0.146
-407.311	800.000	-0.030	0.118
-406.296	-155.943	0.256	-0.016
-405.282	-94.918	-0.088	-0.024
-404.267	591.175	0.077	-0.187
-403.252	-200.000	-0.023	-0.289
-402.238	-200.000	-0.003	-0.020
-401.223	800.000	0.069	0.296
-400.209	362.943	-0.082	0.163
-399.194	-9.728	0.218	-0.143
-398.179	290.062	0.183	-0.328
-397.165	149.754	-0.331	-0.443
-396.150	-53.287	-0.189	-0.086
-395.136	125.673	0.119	0.148
-394.121	456.902	-0.176	-0.386
-393.106	23.919	0.049	0.040
-392.092	-122.911	-0.218	-0.035
-391.077	-200.000	0.000	-0.175
-390.063	800.000	0.020	-0.058
-389.048	465.871	-0.027	-0.061
-388.033	503.274	-0.110	0.252
-387.019	65.988	0.131	0.131
-386.004	398.178	-0.091	0.187
-384.990	298.926	-0.142	0.258
-383.975	382.711	-0.153	-0.310
-382.960	381.386	-0.142	-0.288
-381.946	800.000	-0.047	-0.144
-380.931	-200.000	-0.040	0.191
-379.917	719.103	0.057	-0.148
-378.902	49.699	0.077	-0.072
-377.888	-163.215	0.125	0.006
-376.873	-11.357	0.177	-0.115
-375.858	-130.620	0.164	0.022
-374.844	133.706	0.204	0.260
-373.829	-92.094	0.112	0.031
-372.815	-200.000	-0.018	0.099
-371.800	444.428	0.157	0.340
-370.785	172.366	-0.051	-0.073
-369.771	578.736	0.025	-0.060
-368.756	-101.146	-0.231	-0.056
-367.742	227.021	0.294	-0.472
-366.727	12.399	-0.066	-0.050
-365.712	-65.018	-0.228	-0.091
-364.698	-21.903	0.193	-0.116
-363.683	7.234	0.168	0.124
-362.669	-72.948	0.155	-0.056
-361.654	194.581	-0.120	-0.180
-360.639	79.642	0.184	-0.195
-359.625	-67.424	0.273	0.106
-358.610	88.723	0.162	-0.178
-357.596	-86.497	-0.416	-0.126
-356.581	-9.459	0.058	-0.038
-355.566	-36.463	-0.248	-0.132
-354.552	-200.000	0.039	0.402
-353.537	176.349	-0.064	0.092
-352.523	-122.555	0.207	-0.033
-351.508	254.560	0.129	0.217
-350.493	-82.438	0.249	-0.080
-349.479	-103.969	0.194	0.045
-348.464	800.000	-0.055	-0.227
-347.450	-134.721	-0.253	0.030
-346.435	-52.868	-0.330	-0.150
-345.420	-200.000	0.018	-0.097
-344.406	800.000	-0.026	0.080
-343.391	800.000	0.027	0.108
-342.377	128.152	0.073	0.092
-341.362	-200.000	0.026	0.435
-340.348	-162.506	0.268	0.013
-339.333	-29.233	0.227	-0.128
-338.318	260.702	0.148	-0.252
-337.304	1.460	0.484	0.343
-336.289	309.041	-0.137	-0.252
-335.275	-111.253	-0.237	0.048
-334.260	800.000	0.054	-0.162
-333.245	800.000	-0.128	-0.397
-332.231	-104.347	0.161	-0.037
-331.216	5.200	0.166	0.121
-330.202	35.337	0.154	0.133
-329.187	58.507	0.157	0.152
-328.172	3.087	-0.128	-0.092
-327.158	800.000	0.056	0.239
-326.143	-93.885	0.175	-0.048
-325.129	800.000	-0.034	0.105
-324.114	-200.000	0.053	0.403
-323.099	7.306	0.027	-0.020
-322.085	-200.000	-0.053	0.344
-321.070	800.000	0.043	-0.119
-320.056	159.559	-0.117	-0.160
-319.041	222.193	-0.080	0.126
-318.026	-1.888	0.220	0.152
-317.012	531.504	-0.056	0.130
-315.997	800.000	0.103	-0.295
-314.983	-200.000	0.022	-0.120
-313.968	331.686	-0.041	-0.078
-312.953	-92.471	0.231	-0.064
-311.939	-13.904	0.020	-0.013
-310.924	9.889	0.308	0.230
-309.910	-200.000	0.077	0.359
-308.895	-200.000	0.002	0.094
-307.880	800.000	0.056	-0.235
-306.866	-138.038	0.238	0.026
-305.851	-27.687	-0.215	-0.122
-304.837	-79.437	-0.232	0.077
-303.822	-200.000	-0.014	0.330
-302.807	69.777	-0.227	-0.230
-301.793	800.000	0.054	-0.201
-300.778	-47.767	0.020	-0.009
-299.764	145.390	0.094	-0.124
-298.749	-52.139	0.197	0.090
-297.735	800.000	-0.051	-0.178
-296.720	-200.000	-0.007	-0.044
-295.705	800.000	-0.089	0.299
-294.691	-139.020	0.183	-0.019
-293.676	30.997	-0.236	0.199
-292.662	800.000	0.060	0.193
-291.647	-21.131	0.260	0.156
-290.632	-200.000	0.016	0.396
-289.618	103.606	-0.164	0.190
-288.603	-200.000	-0.031	0.141
-287.589	396.175	0.009	0.018
-286.574	-200.000	0.012	-0.733
-285.559	301.484	-0.132	-0.239
-284.545	446.634	-0.097	-0.210
-283.530	35.092	-0.200	-0.172
-282.516	-121.395	0.206	-0.034
-281.501	185.745	-0.183	-0.267
-280.486	800.000	-0.070	0.237
-279.472	-33.241	0.147	0.080
-278.457	461.807	0.016	-0.034
-277.443	-200.000	-0.028	-0.210
-276.428	185.243	0.078	0.114
-275.413	-58.852	0.039	0.016
-274.399	-96.792	0.670	-0.173
-273.384	-0.678	-0.116	0.081
-272.370	-36.664	0.122	0.065
-271.355	-125.639	0.205	-0.031
-270.340	27.497	-0.145	-0.120
-269.326	-38.470	-0.190	-0.099
-268.311	-70.318	0.193	-0.072
-267.297	-200.000	0.002	0.341
-266.282	800.000	-0.072	-0.240
-265.267	119.800	-0.195	0.238
-264.253	252.762	-0.113	-0.189
-263.238	-34.770	0.141	0.076
-262.224	-200.000	0.009	0.191
-261.209	-70.419	0.217	0.081
-260.195	-128.209	0.249	-0.035
-259.180	800.000	0.019	-0.060
-258.165	-200.000	0.004	0.280
-257.151	-200.000	0.009	-0.239
-256.136	800.000	-0.021	-0.066
-255.122	-87.159	0.224	0.067
-254.107	-25.645	0.293	-0.170
-253.092	-115.047	-0.381	-0.071
-252.078	-44.374	-0.180	-0.089
-251.063	-86.778	-0.150	0.045
-250.049	340.168	0.031	-0.060
-249.034	445.346	-0.055	0.118
-248.019	97.586	-0.049	0.055
-247.005	17.049	-0.181	0.141
-245.990	88.792	0.051	-0.056
-244.976	-70.302	0.123	0.046
-243.961	146.968	0.075	-0.099
-242.946	59.248	-0.187	0.181
-241.932	58.669	0.269	0.260
-240.917	-200.000	0.043	0.190
-239.903	221.596	0.079	0.125
-238.888	-200.000	-0.012	-0.109
-237.873	-110.638	0.110	0.022
-236.859	-83.067	0.568	0.179
-235.844	-69.814	0.221	-0.083
-234.830	-200.000	0.003	0.134
-233.815	470.665	0.118	-0.260
-232.800	800.000	-0.097	-0.323
-231.786	-137.810	-0.134	0.015
-230.771	-64.821	0.132	-0.052
-229.757	19.522	-0.119	0.094
-228.742	-136.163	0.403	0.046
-227.727	175.759	0.155	0.220
-226.713	187.025	0.110	-0.160
-225.698	-200.000	-0.003	0.251
-224.684	536.945	0.061	0.143
-223.669	-200.000	-0.006	-0.049
-222.655	-187.811	-0.418	-0.005
-221.640	532.518	-0.013	0.031
-220.625	-200.000	0.011	-0.050
-219.611	-46.706	0.104	0.050
-218.596	-76.266	-0.322	0.111
-217.582	-168.540	-0.289	0.011
-216.567	-59.749	0.144	-0.061
-215.552	800.000	-0.020	0.061
-214.538	-79.688	-0.217	-0.072
-213.523	-29.712	0.150	-0.084
-212.509	-161.727	0.205	-0.010
-211.494	-138.828	-0.242	-0.026
-210.479	262.102	0.088	0.149
-209.465	-200.000	0.003	-0.082
-208.450	-161.684	0.296	0.015
-207.436	19.516	-0.022	0.017
-206.421	15.974	0.267	-0.206
-205.406	362.143	-0.085	0.167
-204.392	89.202	-0.103	0.113
-203.377	-71.796	0.289	0.106
-202.363	118.066	0.140	0.169
-201.348	20.629	0.080	-0.063
-200.333	-200.000	-0.051	0.310
-199.319	-131.857	-0.076	-0.010
-198.304	58.150	-0.057	0.054
-197.290	-46.105	-0.520	-0.251
-196.275	230.936	0.245	0.393
-195.260	-79.419	-0.278	-0.092
-194.246	77.611	-0.168	0.176
-193.231	-44.348	-0.213	0.104
-192.217	759.542	0.037	0.099
-191.202	-77.711	-0.091	0.031
-190.187	108.814	-0.183	-0.214
-189.173	800.000	-0.116	-0.329
-188.158	-47.129	-0.292	-0.139
-187.144	81.712	0.146	-0.154
-186.129	800.000	-0.056	-0.195
-185.114	395.888	-0.041	-0.084
-184.100	-93.714	-0.304	0.082
-183.085	-200.000	-0.023	0.225
-182.071	64.225	0.183	-0.180
-181.056	-50.147	0.211	0.098
-180.042	-59.865	0.284	-0.119
-179.027	150.445	-0.048	-0.064
-178.012	2.651	-0.111	0.079
-176.998	-77.026	0.132	0.045
-175.983	-23.167	0.102	-0.060
-174.969	-200.000	0.055	-0.395
-173.954	800.000	0.105	-0.421
-172.939	-100.500	0.392	-0.095
-171.925	-200.000	-0.008	0.223
-170.910	73.241	0.191	0.196
-169.896	619.194	-0.101	0.249
-168.881	650.107	0.031	-0.077
-167.866	800.000	0.076	-0.244
-166.852	382.032	-0.039	0.079
-165.837	800.000	0.020	0.066
-164.823	-80.164	0.183	0.060
-163.808	20.445	-0.094	-0.075
-162.793	-181.554	-0.142	-0.003
-161.779	-38.063	0.323	0.168
-160.764	401.416	-0.123	0.252
-159.750	-80.171	0.238	-0.078
-158.735	800.000	0.113	0.364
-157.720	-7.994	0.191	0.126
-156.706	-153.396	-0.258	-0.018
-155.691	-38.422	0.089	0.046
-154.677	-65.430	0.169	-0.066
-153.662	-158.872	-0.139	-0.008
-152.647	-71.746	-0.470	-0.171
-151.633	-59.204	-0.084	-0.035
-150.618	-162.569	-0.320	0.015
-149.604	247.411	0.102	-0.169
-148.589	654.881	0.030	-0.076
-147.574	49.361	0.085	-0.078
-146.560	59.720	-0.201	0.194
-145.545	800.000	-0.042	-0.174
-144.531	1.535	-0.240	0.169
-143.516	-56.460	-0.027	0.012
-142.502	91.752	-0.023	-0.026
-141.487	603.008	-0.114	-0.276
-140.472	-19.903	0.358	0.216
-139.458	16.040	-0.135	0.104
-138.443	-118.796	-0.284	-0.049
-137.429	800.000	-0.044	-0.151
-136.414	-103.721	0.233	0.053
-135.399	-167.443	0.208	0.008
-134.385	-140.020	0.158	0.016
-133.370	11.625	-0.105	-0.079
-132.356	-123.291	-0.112	-0.018
-131.341	800.000	-0.048	-0.163
-130.326	-200.000	0.008	-0.269
-129.312	83.279	-0.116	-0.123
-128.297	-159.556	0.214	-0.012
-127.283	-200.000	0.011	0.074
-126.268	-127.422	-0.105	-0.015
-125.253	694.972	-0.147	-0.377
-124.239	232.493	-0.078	-0.125
-123.224	-184.177	0.201	0.003
-122.210	-75.744	0.142	-0.049
-121.195	-200.000	0.036	0.169
-120.180	-34.248	-0.111	0.060
-119.166	327.145	0.170	0.318
-118.151	-59.135	-0.087	0.037
-117.137	-200.000	-0.001	-0.121
-116.122	301.956	0.089	-0.161
-115.107	-103.904	0.146	-0.033
-114.093	800.000	0.032	0.099
-113.078	800.000	0.049	-0.140
-112.064	501.279	0.172	0.387
-111.049	-37.586	0.146	-0.076
-110.034	68.043	-0.236	-0.236
-109.020	235.414	0.249	-0.401
-108.005	-200.000	0.016	-0.378
-106.991	389.750	-0.074	0.149
-105.976	-200.000	0.047	0.208
-104.962	-17.972	-0.091	-0.056
-103.947	116.044	-0.232	0.277
-102.932	-36.385	-0.132	-0.069
-101.918	800.000	0.054	-0.223
-100.903	-77.801	-0.182	-0.061
-99.889	-77.178	-0.203	0.069
-98.874	-128.809	0.272	-0.037
-97.859	-64.763	0.257	-0.102
-96.845	-93.011	0.149	-0.041
-95.830	11.586	-0.142	-0.106
-94.816	268.197	0.133	-0.227
-93.801	-116.472	0.128	0.023
-92.786	217.375	0.083	-0.128
-91.772	-142.763	0.178	0.017
-90.757	23.305	0.273	0.219
-89.743	-200.000	0.007	0.540
-88.728	250.616	-0.160	0.265
-87.713	19.074	0.328	0.257
-86.699	68.603	-0.254	-0.254
-85.684	-74.925	0.064	0.022
-84.670	95.576	-0.126	0.140
-83.655	-67.517	0.457	-0.175
-82.640	-137.500	0.159	0.017
-81.626	-200.000	0.006	0.110
-80.611	-44.606	0.085	-0.042
-79.597	290.847	-0.047	-0.083
-78.582	-146.575	-0.292	0.025
-77.567	-34.461	0.340	0.182
-76.553	49.884	-0.168	-0.154
-75.538	-127.786	0.225	0.032
-74.524	800.000	0.079	-0.328
-73.509	-147.550	0.159	-0.013
-72.494	-200.000	-0.003	-0.075
-71.480	800.000	0.074	0.232
-70.465	51.553	0.214	0.198
-69.451	143.324	-0.215	0.279
-68.436	77.479	0.215	0.223
-67.422	-200.000	0.005	-0.326
-66.407	-84.726	-0.230	0.070
-65.392	47.467	-0.023	-0.021
-64.378	631.244	-0.026	-0.063
-63.363	165.332	-0.088	-0.122
-62.349	-35.188	0.088	-0.047
-61.334	24.339	-1.446	-1.164
-60.319	79.385	0.595	0.621
-59.305	800.000	-0.409	-1.214
-58.290	800.000	0.497	1.740
-57.276	680.608	0.712	1.806
-56.261	-200.000	134.962	688.619
-55.246	352.679	1667.593	3221.390
-54.232	134.297	2801.178	3537.627
-53.217	91.012	2167.152	2367.971
-52.203	33.101	1596.706	1348.312
-51.188	25.043	1343.338	1085.717
-50.173	22.829	1306.023	1042.463
-49.159	50.861	1380.364	1273.733
-48.144	47.246	1389.329	1259.993
-47.130	25.117	1336.281	1080.290
-46.115	22.086	1316.707	1046.395
-45.100	21.822	1311.766	1040.860
-44.086	21.758	1309.276	1038.465
-43.071	21.660	1307.047	1036.080
-42.057	21.692	1305.082	1034.665
-41.042	21.679	1303.921	1033.630
-40.027	21.669	1302.329	1032.269
-39.013	21.785	1299.678	1030.806
-37.998	21.796	1298.046	1029.538
-36.984	21.821	1296.578	1028.479
-35.969	21.850	1294.944	1027.313
-34.954	21.859	1292.998	1025.782
-33.940	21.897	1291.869	1025.064
-32.925	21.830	1290.654	1023.669
-31.911	21.851	1289.147	1022.557
-30.896	21.826	1288.043	1021.491
-29.881	21.938	1286.581	1020.947
-28.867	22.028	1285.237	1020.361
-27.852	21.994	1283.789	1018.976
-26.838	21.862	1282.328	1017.008
-25.823	21.782	1281.124	1015.548
-24.809	21.841	1279.974	1014.941
-23.794	21.856	1278.668	1013.951
-22.779	21.944	1277.098	1013.175
-21.765	21.990	1275.514	1012.140
-20.750	21.834	1274.647	1010.515
-19.736	21.735	1273.602	1009.077
-18.721	21.750	1272.456	1008.214
-17.706	21.837	1271.044	1007.555
-16.692	21.734	1270.055	1006.141
-15.677	21.715	1268.774	1004.978
-14.663	21.745	1267.554	1004.141
-13.648	21.742	1266.662	1003.376
-12.633	21.798	1265.681	1002.882
-11.619	21.806	1265.382	1002.648
-10.604	21.796	1264.515	1001.869
-9.590	21.728	1263.291	1000.472
-8.575	21.614	1262.905	999.473
-7.560	21.764	1261.200	998.937
-6.546	21.682	1260.816	998.130
-5.531	21.797	1259.846	997.978
-4.517	21.714	1259.037	996.824
-3.502	21.704	1258.463	996.273
-2.487	21.760	1257.099	995.471
-1.473	21.747	1252.795	991.947
-0.458	19.888	1237.969	969.766
0.556	15.526	1222.226	932.875
1.571	11.942	1230.075	918.718
2.586	11.176	1246.100	926.249
3.600	11.381	1233.372	917.861
4.615	8.395	1162.835	849.432
5.629	3.257	1093.259	772.802
6.644	0.918	1076.787	749.517
7.659	0.689	1075.116	747.157
8.673	0.507	1074.581	745.820
9.688	0.696	1072.836	745.472
10.702	0.837	1070.271	744.322
11.717	4.235	1073.631	763.339
12.731	10.578	1082.588	801.043
13.746	15.662	1089.392	831.206
14.761	17.311	1090.952	840.480
15.775	16.525	1089.305	835.256
16.790	15.599	1087.177	828.984
17.804	14.958	1085.764	824.674
18.819	14.568	1084.636	821.824
19.834	14.361	1083.557	819.915
20.848	13.969	1083.092	817.564
21.863	13.967	1081.909	816.585
22.877	13.743	1081.076	814.784
23.892	13.566	1080.859	813.680
24.907	13.659	1079.670	813.171
25.921	13.731	1078.848	812.831
26.936	13.694	1078.422	812.258
27.950	13.691	1077.348	811.363
28.965	13.721	1076.001	810.425
29.980	13.803	1074.499	809.620
30.994	13.903	1073.461	809.254
32.009	13.936	1072.867	808.894
33.023	13.857	1071.751	807.597
34.038	13.814	1070.398	806.295
35.053	13.879	1069.603	805.943
36.067	13.805	1068.834	804.933
37.082	13.913	1068.059	804.802
38.096	13.942	1066.949	804.037
39.111	13.949	1066.038	803.311
40.126	13.890	1065.158	802.294
41.140	13.744	1064.019	800.657
42.155	13.614	1062.818	799.058
43.169	13.616	1061.651	798.120
44.184	13.719	1060.696	797.827
45.199	13.656	1059.663	796.674
46.213	13.728	1058.441	796.031
47.228	13.735	1057.491	795.280
48.242	13.809	1056.092	794.512
49.257	13.749	1055.258	793.525
50.271	13.737	1054.963	793.179
51.286	13.800	1053.602	792.387
52.301	13.753	1053.038	791.666
53.315	13.764	1051.751	790.680
54.330	13.691	1051.181	789.834
55.344	13.734	1049.825	788.951
56.359	13.748	1049.240	788.507
57.374	13.775	1048.265	787.834
58.388	13.588	1047.425	786.247
59.403	13.569	1046.782	785.602
60.417	13.718	1045.817	785.514
61.432	13.638	1044.478	784.063
62.447	13.576	1044.150	783.455
63.461	13.592	1043.335	782.850
64.476	13.609	1042.635	782.333
65.490	13.603	1041.586	781.450
66.505	13.585	1040.881	780.764
67.520	13.673	1040.085	780.513
68.534	13.681	1039.919	780.357
69.549	13.642	1038.844	779.300
70.563	13.634	1037.683	778.321
71.578	13.597	1037.122	777.658
72.593	13.645	1036.196	777.119
73.607	13.499	1035.928	776.167
74.622	13.652	1035.016	776.129
75.636	13.559	1034.345	775.122
76.651	13.577	1033.881	774.794
77.666	13.621	1033.055	774.309
78.680	13.669	1032.522	774.066
79.695	13.691	1031.537	773.360
80.709	13.692	1031.098	772.968
81.724	13.623	1030.513	772.139
82.739	13.606	1029.678	771.368
83.753	13.829	1028.814	771.687
84.768	13.901	1027.511	770.976
85.782	13.899	1026.621	770.232
86.797	13.834	1025.985	769.387
87.812	13.743	1025.491	768.527
88.826	13.773	1024.315	767.714
89.841	13.910	1022.965	767.267
90.855	13.792	1022.528	766.325
91.870	13.847	1021.373	765.649
92.884	13.858	1020.283	764.814
93.899	13.856	1019.601	764.227
94.914	13.963	1018.910	764.133
95.928	13.870	1018.182	763.089
96.943	13.782	1017.622	762.200
97.957	13.809	1016.333	761.289
98.972	13.978	1015.302	761.226
99.987	13.765	1015.232	760.128
101.001	13.824	1013.779	759.245
102.016	13.847	1012.380	758.235
103.030	13.889	1011.546	757.737
104.045	13.866	1010.969	757.128
105.060	13.916	1009.910	756.498
106.074	13.719	1009.576	755.285
107.089	13.704	1008.705	754.499
108.103	13.657	1007.695	753.463
109.118	13.729	1006.701	752.979
110.133	13.691	1005.691	751.983
111.147	13.652	1004.903	751.150
112.162	13.692	1004.016	750.603
113.176	13.722	1003.448	750.246
114.191	13.745	1002.430	749.525
115.206	13.859	1001.406	749.207
116.220	13.833	1000.620	748.435
117.235	13.870	999.752	747.885
118.249	13.762	999.325	747.015
119.264	13.696	998.490	746.028
120.279	13.765	997.837	745.783
121.293	13.769	997.032	745.134
122.308	13.715	995.961	744.025
123.322	13.824	994.414	743.294
124.337	13.711	993.987	742.403
125.352	13.827	992.525	741.761
126.366	13.739	991.493	740.535
127.381	13.787	990.172	739.693
128.395	13.837	989.673	739.480
129.410	13.766	988.796	738.443
130.424	13.837	987.853	737.987
131.439	13.799	986.806	736.974
132.454	13.793	986.506	736.655
133.468	13.914	985.389	736.295
134.483	13.812	984.583	735.174
135.497	13.770	983.130	733.838
136.512	13.771	982.688	733.447
137.527	13.807	981.947	732.989
138.541	13.868	981.094	732.555
139.556	13.810	980.519	731.806
140.570	13.892	980.061	731.760
141.585	13.980	978.823	731.162
142.600	14.016	977.927	730.586
143.614	14.016	977.109	729.908
144.629	14.056	976.504	729.566
145.643	14.135	975.485	729.088
146.658	14.034	974.537	727.875
147.673	13.896	973.453	726.394
148.687	13.940	972.864	726.082
149.702	13.933	971.812	725.202
150.716	13.988	970.946	724.732
151.731	13.963	970.241	724.032
152.746	14.105	969.376	723.941
153.760	14.036	969.258	723.491
154.775	14.010	968.196	722.519
155.789	14.135	967.800	722.702
156.804	14.091	967.205	722.005
157.819	14.179	966.065	721.472
158.833	14.261	965.570	721.394
159.848	14.254	964.828	720.745
160.862	14.050	964.467	719.529
161.877	14.259	962.899	719.199
162.892	14.036	962.422	717.814
163.906	14.152	961.022	717.206
164.921	14.148	960.520	716.752
165.935	14.048	959.548	715.534
166.950	14.178	958.717	715.409
167.964	14.174	957.902	714.719
168.979	14.143	957.018	713.864
169.994	14.206	956.118	713.400
171.008	14.183	955.579	712.837
172.023	14.199	954.472	712.018
173.037	14.275	954.131	712.022
174.052	14.364	952.859	711.394
175.067	14.235	952.503	710.513
176.081	14.142	952.113	709.763
177.096	14.136	951.611	709.298
178.110	14.345	950.814	709.534
179.125	14.261	950.114	708.592
180.140	14.265	949.964	708.432
181.154	14.231	949.222	707.670
182.169	14.316	948.810	707.665
183.183	14.343	948.326	707.355
184.198	14.334	947.134	706.366
185.213	14.491	946.075	706.178
186.227	14.537	945.428	705.826
187.242	14.348	945.109	704.725
188.256	14.516	944.341	704.803
189.271	14.364	943.496	703.467
190.286	14.343	942.912	702.880
191.300	14.288	941.708	701.688
192.315	14.371	941.315	701.685
193.329	14.272	941.306	701.196
194.344	14.252	940.579	700.509
195.359	14.409	939.208	700.087
196.373	14.487	938.878	700.106
197.388	14.664	938.217	700.294
198.402	14.617	937.631	699.597
199.417	14.619	937.492	699.438
200.432	14.565	936.723	698.578
201.446	14.673	936.054	698.471
202.461	14.691	935.884	698.358
203.475	14.686	934.953	697.579
204.490	14.760	934.170	697.241
205.504	14.654	933.714	696.400
206.519	14.741	932.713	695.950
207.534	14.776	931.867	695.405
208.548	14.584	931.578	694.330
209.563	14.790	930.847	694.580
210.577	14.785	929.904	693.795
211.592	14.686	929.664	693.143
212.607	14.837	928.410	692.771
213.621	14.787	927.984	692.184
214.636	14.835	927.468	691.940
215.650	14.817	926.575	691.136
216.665	14.874	925.597	690.582
217.680	14.790	924.951	689.692
218.694	14.858	924.818	689.810
219.709	15.040	923.843	689.774
220.723	14.932	922.820	688.502
221.738	14.901	922.239	687.879
222.753	14.954	921.916	687.796
223.767	15.013	921.320	687.534
224.782	14.902	920.999	686.778
225.796	15.097	920.185	686.912
226.811	15.042	919.425	686.059
227.826	14.968	918.731	685.174
228.840	15.067	917.690	684.742
229.855	14.931	917.302	683.838
230.869	15.131	916.222	683.790
231.884	15.088	915.962	683.359
232.899	14.981	914.829	682.015
233.913	15.068	914.452	682.029
234.928	15.025	914.154	681.571
235.942	14.976	913.326	680.695
236.957	14.989	912.377	679.980
237.972	14.961	911.830	679.398
238.986	15.156	911.025	679.530
240.001	15.013	910.945	678.829
241.015	15.131	910.156	678.660
242.030	15.130	909.426	678.051
243.045	15.169	908.771	677.661
244.059	15.054	908.402	676.861
245.074	15.159	907.569	676.603
246.088	15.115	906.885	675.858
247.103	15.372	905.819	676.041
248.117	15.368	905.573	675.779
249.132	15.351	905.223	675.389
250.147	15.453	904.341	675.080
251.161	15.399	903.734	674.352
252.176	15.463	902.742	673.809
253.190	15.364	902.542	673.204
254.205	15.357	901.748	672.524
255.220	15.508	900.829	672.384
256.234	15.452	900.610	671.938
257.249	15.398	899.795	671.052
258.263	15.492	899.389	671.065
259.278	15.572	898.050	670.326
260.293	15.704	897.760	670.577
261.307	15.774	897.494	670.598
262.322	15.608	896.795	669.355
263.336	15.660	895.849	668.796
264.351	15.795	894.576	668.323
265.366	15.811	894.338	668.151
266.380	15.663	893.897	667.173
267.395	15.590	893.541	666.561
268.409	15.816	892.308	666.476
269.424	15.707	891.773	665.587
270.439	15.747	891.031	665.133
271.453	15.850	890.212	664.870
272.468	15.760	889.572	663.979
273.482	15.670	889.371	663.414
274.497	15.736	888.509	662.970
275.512	15.825	888.073	662.939
276.526	15.772	887.635	662.343
277.541	15.821	887.339	662.257
278.555	15.936	886.308	661.882
279.570	15.853	885.637	660.995
280.585	15.957	884.687	660.634
281.599	15.977	883.978	660.127
282.614	16.031	883.571	659.975
283.628	15.769	883.227	658.634
284.643	15.969	882.504	658.818
285.657	15.934	881.929	658.196
286.672	15.996	880.958	657.654
287.687	16.012	880.429	657.263
288.701	15.990	879.692	656.571
289.716	16.052	879.390	656.526
290.730	15.981	878.974	655.883
291.745	16.159	878.160	655.911
292.760	16.169	877.448	655.357
293.774	16.197	876.614	654.786
294.789	16.113	875.921	653.885
295.803	16.064	875.530	653.344
296.818	16.041	875.061	652.847
297.833	16.254	873.791	652.665
298.847	16.160	873.875	652.310
299.862	16.229	872.859	651.760
300.876	16.320	872.083	651.473
301.891	16.152	872.010	650.710
302.906	16.252	871.503	650.661
303.920	16.382	870.931	650.678
304.935	16.419	870.041	650.100
305.949	16.386	869.292	649.353
306.964	16.460	868.449	648.950
307.979	16.293	868.673	648.420
308.993	16.338	867.663	647.781
310.008	16.471	866.611	647.448
311.022	16.476	866.150	647.064
312.037	16.401	865.851	646.495
313.052	16.447	864.881	645.890
314.066	16.336	864.637	645.227
315.081	16.356	864.259	644.964
316.095	16.392	863.563	644.527
317.110	16.425	863.055	644.216
318.125	16.507	862.508	644.063
319.139	16.390	862.412	643.488
320.154	16.361	861.654	642.754
321.168	16.432	861.182	642.617
322.183	16.505	860.342	642.209
323.197	16.450	859.986	641.681
324.212	16.531	859.405	641.496
325.227	16.505	858.877	640.946
326.241	16.562	858.086	640.515
327.256	16.618	857.494	640.231
328.270	16.557	856.874	639.479
329.285	16.558	856.558	639.191
330.300	16.552	855.733	638.494
331.314	16.708	855.387	638.770
332.329	16.687	855.004	638.346
333.343	16.534	854.391	637.258
334.358	16.617	854.066	637.270
335.373	16.930	853.462	637.940
336.387	16.729	853.101	636.859
337.402	16.632	853.190	636.506
338.416	16.621	853.132	636.363
339.431	16.723	852.255	636.037
340.446	16.781	851.846	635.893
341.460	16.899	851.324	635.889
342.475	16.944	850.859	635.653
343.489	16.989	850.330	635.370
344.504	16.878	850.064	634.700
345.519	16.980	849.518	634.617
346.533	17.043	848.788	634.250
347.548	16.949	848.353	633.521
348.562	16.907	847.867	632.943
349.577	17.000	847.152	632.700
350.592	16.977	846.522	632.090
351.606	16.923	845.763	631.264
352.621	16.966	845.155	630.915
353.635	16.966	844.657	630.488
354.650	16.925	844.367	630.063
355.665	16.938	843.522	629.427
356.679	17.042	842.833	629.242
357.694	17.082	842.306	628.941
358.708	17.065	841.798	628.443
359.723	17.075	841.230	628.002
360.738	17.031	840.760	627.431
361.752	17.153	839.931	627.208
362.767	17.215	838.879	626.594
363.781	17.179	838.887	626.413
364.796	17.054	838.497	625.604
365.810	17.164	838.152	625.699
366.825	17.214	837.548	625.374
367.840	17.323	837.166	625.436
368.854	17.243	836.081	624.275
369.869	17.385	835.855	624.574
370.883	17.261	835.856	624.063
371.898	17.442	835.354	624.297
372.913	17.373	834.870	623.628
373.927	17.362	834.502	623.255
374.942	17.403	833.936	622.929
375.956	17.451	833.969	623.075
376.971	17.402	833.483	622.478
377.986	17.611	832.318	622.317
379.000	17.532	832.125	621.826
380.015	17.598	831.716	621.708
381.029	17.654	830.763	621.143
382.044	17.564	830.416	620.501
383.059	17.635	829.562	620.067
384.073	17.653	829.431	619.982
385.088	17.708	828.706	619.582
386.102	17.574	828.110	618.598
387.117	17.598	827.799	618.397
388.132	17.625	827.144	617.951
389.146	17.501	826.894	617.259
390.161	17.657	826.182	617.238
391.175	17.545	825.871	616.546
392.190	17.697	825.085	616.453
393.205	17.619	824.811	615.914
394.219	17.742	824.353	615.961
395.234	17.695	823.771	615.301
396.248	17.708	823.216	614.879
397.263	17.637	823.118	614.497
398.278	17.752	822.399	614.318
399.292	17.669	822.169	613.795
400.307	17.702	821.598	613.431
401.321	17.891	821.048	613.647
402.336	17.857	820.533	613.087
403.350	17.751	820.158	612.371
404.365	17.861	819.598	612.292
405.380	17.921	819.273	612.210
406.394	17.956	818.783	611.916
407.409	17.814	818.581	611.203
408.423	17.981	817.965	611.287
409.438	17.969	817.793	611.060
410.453	18.044	817.095	610.754
411.467	17.942	816.754	610.080
412.482	18.050	816.254	610.038
413.496	18.093	816.001	609.949
414.511	17.979	815.979	609.472
415.526	18.021	815.455	609.176
416.540	18.140	814.474	608.814
417.555	18.099	814.613	608.715
418.569	18.136	813.878	608.245
419.584	18.102	813.268	607.616
420.599	18.198	812.791	607.544
421.613	115.924	1300.481	1490.925
422.628	100.396	1371.473	1490.995
