DTS Sentinel unit serial number:	SN413079Multiplexer serial number:	ORYXHardware model number:	OX4-SRSoftware version number:	ORYX F/W v4.00 Oryx Data Collector v3.7.2.0data status	okinstallation	princeton_trtdifferential loss correction	single-endedforward channel	channel 1reverse channel	N/Adate	2019/09/13time	11:42:35forward acquisition time	60.00reverse acquisition time	0.00gamma	496.2192k internal	0.2313k external	0.2313temperature offset calibration	1.0157default loss term (dB/km)	0.3790temperature slope calibration	1.0000multiplexer offset coefficient	1.0000multiplexer slope coefficient	1.0000fibre end	0.00T internal ref (°C)	33.11T ext. ref 1 (°C)	4.50T ext. ref 2 (°C)	30.31length (m)	temperature (°C)	Stokes	anti-Stokes-747.200	125.706	-0.122	-0.157
-746.185	800.000	0.060	-0.183
-745.171	267.320	0.174	-0.309
-744.156	456.164	-0.008	-0.018
-743.142	-63.978	0.272	0.113
-742.127	-142.191	-0.392	0.039
-741.112	22.889	-0.184	0.153
-740.098	32.823	0.187	0.164
-739.083	473.266	0.052	-0.119
-738.069	370.688	-0.148	0.305
-737.054	406.538	-0.006	0.013
-736.039	371.419	-0.142	0.291
-735.025	0.606	0.036	0.026
-734.010	328.280	-0.065	-0.127
-732.996	-13.678	0.017	0.011
-731.981	506.642	0.051	-0.120
-730.966	-34.346	-0.395	-0.220
-729.952	-160.058	-0.264	0.015
-728.937	262.742	0.065	0.115
-727.923	-111.524	-0.184	-0.038
-726.908	38.302	0.148	0.134
-725.894	-200.000	0.074	-0.383
-724.879	-74.771	0.127	-0.046
-723.864	-12.193	0.130	0.086
-722.850	207.826	-0.122	0.194
-721.835	-200.000	-0.020	-0.342
-720.821	-46.085	-0.155	-0.078
-719.806	-72.061	-0.396	-0.149
-718.791	21.047	-0.171	-0.141
-717.777	-44.451	0.335	-0.170
-716.762	-41.614	0.214	-0.112
-715.748	800.000	0.047	-0.150
-714.733	19.415	-0.117	0.095
-713.718	-106.442	-0.360	0.081
-712.704	108.887	-0.144	0.174
-711.689	71.380	-0.195	-0.205
-710.675	-200.000	0.053	-0.285
-709.660	-59.459	0.217	0.094
-708.645	61.432	-0.175	-0.176
-707.631	70.754	0.063	-0.066
-706.616	-200.000	-0.017	-0.201
-705.602	-31.593	0.053	0.030
-704.587	155.108	0.142	-0.198
-703.572	31.003	0.150	0.130
-702.558	-36.467	0.247	0.135
-701.543	-108.410	0.222	0.048
-700.529	-68.545	-0.162	-0.064
-699.514	6.989	0.229	0.173
-698.499	800.000	-0.078	-0.234
-697.485	-158.291	-0.144	0.008
-696.470	774.877	0.041	0.114
-695.456	-15.356	0.283	-0.183
-694.441	-107.320	-0.202	-0.045
-693.426	132.691	0.103	-0.135
-692.412	-74.292	-0.330	0.121
-691.397	72.687	0.184	-0.194
-690.383	-12.809	0.092	-0.061
-689.368	800.000	-0.039	0.136
-688.354	117.640	0.107	-0.133
-687.339	-59.305	0.169	0.074
-686.324	25.395	0.250	-0.210
-685.310	73.108	-0.268	0.284
-684.295	-200.000	0.010	-0.282
-683.281	-200.000	-0.010	-0.226
-682.266	129.076	0.147	-0.189
-681.251	-111.205	-0.216	-0.045
-680.237	232.257	0.311	0.517
-679.222	-200.000	-0.015	0.211
-678.208	800.000	-0.088	0.362
-677.193	800.000	-0.125	-0.500
-676.178	-13.942	-0.203	-0.133
-675.164	-200.000	-0.024	0.425
-674.149	-11.408	-0.060	0.040
-673.135	34.510	0.196	-0.173
-672.120	800.000	-0.081	0.250
-671.105	800.000	-0.017	-0.073
-670.091	800.000	0.016	-0.053
-669.076	-200.000	0.001	-0.006
-668.062	188.560	-0.042	0.063
-667.047	-104.255	-0.224	0.053
-666.032	6.003	-0.031	0.023
-665.018	-65.776	0.260	0.105
-664.003	-200.000	-0.034	0.264
-662.989	483.905	-0.061	0.140
-661.974	160.894	-0.038	-0.054
-660.959	-37.185	0.049	0.026
-659.945	-180.190	0.098	-0.002
-658.930	-200.000	-0.075	-0.336
-657.916	578.393	0.123	0.304
-656.901	-41.865	-0.148	0.077
-655.886	-87.178	-0.115	-0.035
-654.872	800.000	0.034	-0.132
-653.857	-200.000	-0.005	0.054
-652.843	472.487	-0.122	0.277
-651.828	38.150	-0.106	0.095
-650.814	-172.620	0.094	0.003
-649.799	69.916	-0.047	-0.049
-648.784	-102.266	-0.210	0.051
-647.770	-155.282	-0.061	-0.004
-646.755	-200.000	-0.058	0.260
-645.741	-180.011	0.456	-0.010
-644.726	0.179	0.182	0.131
-643.711	-200.000	0.023	0.142
-642.697	-2.105	0.363	-0.258
-641.682	5.946	-0.269	0.202
-640.668	-53.680	-0.267	-0.123
-639.653	800.000	0.073	-0.231
-638.638	476.360	0.055	-0.125
-637.624	-54.100	0.234	0.108
-636.609	800.000	0.047	-0.135
-635.595	182.980	0.025	-0.038
-634.580	-200.000	-0.005	0.069
-633.565	334.014	-0.075	-0.147
-632.551	-181.417	0.104	-0.002
-631.536	-186.655	-0.229	0.003
-630.522	-62.005	-0.291	-0.123
-629.507	115.446	0.132	-0.163
-628.492	-105.423	0.114	-0.026
-627.478	-200.000	-0.014	0.323
-626.463	-181.492	0.384	-0.008
-625.449	193.149	-0.071	-0.109
-624.434	493.698	-0.065	0.150
-623.419	316.366	0.080	-0.153
-622.405	-44.067	0.284	-0.144
-621.390	-128.001	-0.351	-0.051
-620.376	-144.487	0.040	0.004
-619.361	-76.397	0.236	0.084
-618.346	-122.634	-0.213	-0.035
-617.332	800.000	0.060	-0.181
-616.317	-123.315	-0.272	0.044
-615.303	-47.026	0.074	0.037
-614.288	198.072	-0.278	0.428
-613.273	-103.873	0.162	-0.038
-612.259	-49.892	-0.330	-0.158
-611.244	653.380	0.113	-0.292
-610.230	0.491	0.142	-0.103
-609.215	58.532	-0.146	0.145
-608.201	800.000	0.044	-0.192
-607.186	-31.968	-0.335	0.189
-606.171	-200.000	0.013	-0.272
-605.157	-64.895	-0.163	-0.067
-604.142	-200.000	0.005	0.299
-603.128	623.192	0.168	-0.428
-602.113	-53.016	0.278	-0.129
-601.098	-148.914	0.233	0.019
-600.084	-54.082	0.290	0.133
-599.069	-200.000	0.001	-0.249
-598.055	156.302	-0.245	-0.341
-597.040	79.174	-0.006	-0.007
-596.025	-81.065	-0.295	-0.099
-595.011	574.808	-0.061	-0.150
-593.996	61.632	0.071	-0.071
-592.982	16.698	0.086	-0.069
-591.967	-77.751	0.080	-0.028
-590.952	288.930	-0.143	-0.261
-589.938	-101.501	0.086	0.021
-588.923	16.557	0.250	0.199
-587.909	-147.685	-0.379	-0.032
-586.894	251.046	-0.142	-0.244
-585.879	-88.998	-0.397	0.119
-584.865	-101.065	-0.108	-0.027
-583.850	-200.000	0.070	0.333
-582.836	190.407	-0.090	0.137
-581.821	-119.461	-0.309	-0.054
-580.806	-65.910	0.214	0.086
-579.792	800.000	-0.010	-0.043
-578.777	-125.221	-0.111	-0.017
-577.763	24.727	0.440	-0.367
-576.748	-76.614	0.107	0.038
-575.733	500.155	-0.049	-0.114
-574.719	29.225	0.138	-0.118
-573.704	-25.838	0.071	0.042
-572.690	-200.000	-0.042	0.318
-571.675	-129.647	0.364	-0.051
-570.661	298.935	0.079	0.146
-569.646	-126.049	-0.060	0.009
-568.631	-104.540	-0.315	0.073
-567.617	786.479	-0.032	0.088
-566.602	800.000	0.021	-0.073
-565.588	-61.947	0.111	0.047
-564.573	800.000	0.084	0.360
-563.558	26.950	-0.082	-0.069
-562.544	800.000	0.034	0.118
-561.529	-184.701	0.330	-0.005
-560.515	319.680	-0.158	-0.302
-559.500	-89.038	0.140	-0.042
-558.485	800.000	-0.027	0.111
-557.471	800.000	-0.053	-0.230
-556.456	137.567	0.219	0.288
-555.442	-30.983	-0.017	0.010
-554.427	331.570	0.020	-0.038
-553.412	-105.974	0.151	-0.034
-552.398	-200.000	0.006	0.052
-551.383	64.065	0.114	-0.116
-550.369	-200.000	-0.029	-0.281
-549.354	-0.843	-0.176	-0.125
-548.339	604.097	0.080	0.201
-547.325	-49.581	0.208	-0.100
-546.310	-200.000	0.018	0.278
-545.296	38.928	0.056	-0.051
-544.281	-200.000	0.035	0.225
-543.266	-63.717	0.396	0.163
-542.252	65.289	-0.341	0.347
-541.237	288.760	-0.124	-0.226
-540.223	-104.297	-0.218	0.051
-539.208	-64.703	-0.210	0.086
-538.193	-200.000	0.000	0.038
-537.179	-200.000	0.008	-0.115
-536.164	-59.677	-0.136	-0.058
-535.150	-148.615	0.196	0.016
-534.135	203.216	0.220	0.342
-533.121	-110.818	0.057	0.012
-532.106	-200.000	0.077	-0.376
-531.091	-31.565	-0.181	-0.103
-530.077	-50.857	0.148	0.070
-529.062	-96.544	0.015	0.004
-528.048	800.000	-0.025	0.089
-527.033	-200.000	0.033	0.163
-526.018	-200.000	0.050	-0.278
-525.004	-200.000	0.055	-0.267
-523.989	-21.724	-0.112	-0.069
-522.975	36.900	0.185	-0.165
-521.960	29.048	0.227	-0.194
-520.945	31.580	-0.052	0.045
-519.931	-27.070	0.267	-0.156
-518.916	631.014	0.075	0.190
-517.902	-200.000	-0.017	0.196
-516.887	-100.327	-0.195	-0.049
-515.872	800.000	-0.076	0.224
-514.858	-9.126	-0.183	-0.123
-513.843	-47.973	-0.025	-0.012
-512.829	37.588	-0.142	0.127
-511.814	269.284	-0.093	-0.165
-510.799	-200.000	0.469	-0.001
-509.785	-14.795	0.103	0.066
-508.770	693.560	-0.068	-0.179
-507.756	13.237	-0.289	-0.225
-506.741	-15.454	-0.333	-0.214
-505.726	-100.218	-0.417	-0.104
-504.712	-54.910	0.254	0.115
-503.697	-200.000	-0.059	-0.373
-502.683	-131.220	-0.455	0.061
-501.668	-200.000	-0.036	0.309
-500.653	-162.380	0.211	-0.011
-499.639	152.111	-0.275	-0.377
-498.624	-200.000	-0.003	0.083
-497.610	-200.000	-0.007	0.451
-496.595	464.734	-0.203	0.455
-495.581	205.067	-0.182	0.284
-494.566	-56.001	0.135	0.061
-493.551	-200.000	0.044	-0.193
-492.537	-161.987	0.187	-0.009
-491.522	-26.405	-0.301	0.177
-490.508	-19.910	0.193	-0.120
-489.493	-157.251	-0.225	-0.014
-488.478	116.062	-0.149	0.183
-487.464	-200.000	0.005	-0.065
-486.449	-148.934	-0.110	0.009
-485.435	-200.000	-0.037	-0.412
-484.420	800.000	0.103	-0.300
-483.405	-200.000	-0.034	-0.185
-482.391	-50.138	-0.120	-0.057
-481.376	800.000	-0.019	-0.055
-480.362	5.039	-0.127	0.094
-479.347	-8.873	0.052	0.035
-478.332	-54.375	-0.172	0.078
-477.318	800.000	0.098	0.288
-476.303	246.345	0.026	-0.045
-475.289	211.925	0.120	-0.190
-474.274	-76.958	0.201	0.071
-473.259	437.017	0.026	0.056
-472.245	141.145	-0.182	-0.241
-471.230	54.677	-0.169	-0.163
-470.216	800.000	-0.057	-0.179
-469.201	-48.892	0.212	0.102
-468.186	-31.646	-0.108	-0.061
-467.172	4.502	-0.254	0.187
-466.157	511.394	0.009	0.020
-465.143	-123.878	0.115	0.018
-464.128	23.575	0.136	-0.112
-463.113	23.050	-0.159	0.131
-462.099	-162.701	-0.139	-0.007
-461.084	-60.475	0.155	-0.066
-460.070	124.738	0.207	0.261
-459.055	800.000	0.046	0.170
-458.040	-65.646	0.170	-0.068
-457.026	319.622	0.030	-0.057
-456.011	-200.000	0.020	-0.140
-454.997	465.850	-0.089	0.199
-453.982	-200.000	0.032	0.321
-452.968	122.203	-0.028	-0.035
-451.953	-200.000	-0.009	-0.194
-450.938	-78.507	-0.272	0.093
-449.924	22.413	-0.299	-0.245
-448.909	-137.904	0.248	0.028
-447.895	-19.539	0.110	0.069
-446.880	-106.263	-0.290	-0.065
-445.865	-200.000	0.048	0.263
-444.851	-165.313	-0.088	-0.004
-443.836	551.175	-0.104	-0.251
-442.822	749.362	0.134	-0.362
-441.807	-81.777	0.210	-0.069
-440.792	231.795	-0.052	-0.086
-439.778	4.647	-0.234	0.172
-438.763	-75.402	0.391	-0.140
-437.749	283.883	0.123	0.222
-436.734	-200.000	0.021	0.369
-435.719	-48.755	0.029	-0.014
-434.705	247.059	-0.062	0.104
-433.690	-47.359	0.276	0.134
-432.676	45.922	0.076	0.070
-431.661	-8.836	-0.213	-0.143
-430.646	-69.850	-0.135	-0.052
-429.632	-197.660	0.341	0.002
-428.617	800.000	0.064	-0.200
-427.603	-200.000	-0.006	0.087
-426.588	-200.000	0.019	-0.089
-425.573	-122.499	-0.295	0.048
-424.559	-200.000	-0.006	-0.126
-423.544	27.408	-0.137	0.115
-422.530	800.000	-0.024	-0.096
-421.515	24.386	0.131	-0.109
-420.500	349.454	0.130	0.258
-419.486	8.819	0.085	0.064
-418.471	-168.272	-0.353	-0.014
-417.457	-73.511	0.303	-0.111
-416.442	-45.829	-0.306	-0.151
-415.428	-61.286	0.176	0.074
-414.413	303.246	-0.108	0.199
-413.398	-175.887	-0.290	0.008
-412.384	800.000	0.072	-0.200
-411.369	155.990	-0.203	0.280
-410.355	-45.868	0.351	-0.173
-409.340	-200.000	-0.047	0.309
-408.325	-200.000	-0.266	-0.001
-407.311	800.000	0.100	-0.336
-406.296	449.894	-0.128	0.283
-405.282	-166.598	0.442	-0.018
-404.267	-166.403	0.085	-0.004
-403.252	-120.534	-0.260	0.044
-402.238	302.492	0.109	-0.202
-401.223	92.025	-0.134	0.151
-400.209	800.000	-0.102	-0.380
-399.194	800.000	0.155	0.450
-398.179	-45.924	0.098	0.049
-397.165	-200.000	0.009	-0.452
-396.150	-200.000	0.045	0.205
-395.136	327.726	0.056	0.108
-394.121	11.297	0.154	0.118
-393.106	634.210	-0.127	-0.323
-392.092	17.811	0.118	-0.094
-391.077	170.417	-0.274	0.392
-390.063	-200.000	0.007	-0.621
-389.048	-200.000	-0.039	-0.204
-388.033	-116.496	0.181	-0.033
-387.019	800.000	0.061	0.207
-386.004	-11.758	-0.220	-0.145
-384.990	48.478	-0.131	0.122
-383.975	-119.019	0.380	0.067
-382.960	215.617	-0.170	0.269
-381.946	408.362	0.031	-0.066
-380.931	43.829	0.154	-0.141
-379.917	-198.365	-0.129	-0.001
-378.902	62.317	0.179	-0.179
-377.888	649.522	-0.058	-0.149
-376.873	-165.614	0.253	-0.011
-375.858	-2.143	-0.361	-0.254
-374.844	-61.269	0.214	0.090
-373.829	-17.780	0.207	0.130
-372.815	-77.086	0.273	0.095
-371.800	5.592	-0.019	-0.014
-370.785	-200.000	-0.044	-0.335
-369.771	18.150	-0.071	-0.057
-368.756	-41.981	-0.195	-0.100
-367.742	20.760	0.193	0.156
-366.727	-60.158	0.142	0.060
-365.712	-200.000	-0.005	0.203
-364.698	-53.765	0.161	-0.073
-363.683	85.954	0.079	0.086
-362.669	4.717	-0.416	0.305
-361.654	-200.000	-0.001	0.060
-360.639	9.044	0.059	-0.044
-359.625	-200.000	0.020	0.141
-358.610	-93.179	-0.172	-0.048
-357.596	-200.000	-0.003	0.290
-356.581	431.544	0.092	-0.200
-355.566	206.453	0.137	0.213
-354.552	99.393	0.057	-0.066
-353.537	43.749	-0.214	-0.196
-352.523	-84.573	-0.138	-0.043
-351.508	151.731	-0.113	0.154
-350.493	-187.205	-0.217	-0.003
-349.479	-133.028	0.255	-0.032
-348.464	-40.038	-0.389	0.203
-347.450	-108.908	0.187	-0.040
-346.435	450.518	-0.151	0.333
-345.420	-134.310	-0.110	-0.014
-344.406	-16.035	0.174	0.111
-343.391	360.121	-0.108	0.216
-342.377	57.499	-0.131	-0.128
-341.362	136.200	-0.158	-0.206
-340.348	-200.000	0.029	0.153
-339.333	-8.284	0.349	-0.234
-338.318	298.018	-0.062	0.114
-337.304	-31.540	0.164	0.092
-336.289	-47.831	-0.206	-0.100
-335.275	360.072	0.042	0.084
-334.260	-59.564	0.240	-0.103
-333.245	-171.729	0.113	0.004
-332.231	-200.000	-0.042	-0.209
-331.216	-149.360	-0.241	0.019
-330.202	-24.700	0.257	0.153
-329.187	-59.386	-0.276	-0.118
-328.172	1.601	0.121	0.087
-327.158	-70.938	0.115	-0.043
-326.143	45.213	-0.244	-0.225
-325.129	-200.000	0.009	0.168
-324.114	420.857	-0.051	-0.109
-323.099	146.568	-0.192	0.257
-322.085	-136.842	-0.085	-0.010
-321.070	-24.085	-0.175	-0.104
-320.056	48.767	0.074	0.069
-319.041	19.220	0.070	-0.056
-318.026	-137.186	-0.076	-0.009
-317.012	-200.000	0.030	0.188
-315.997	194.634	-0.127	0.192
-314.983	-91.595	-0.531	-0.151
-313.968	-63.502	-0.244	-0.100
-312.953	-94.265	-0.165	-0.045
-311.939	-18.638	0.139	0.087
-310.924	-31.670	-0.206	0.115
-309.910	-141.347	-0.277	0.028
-308.895	-200.000	-0.013	0.193
-307.880	-140.062	0.433	-0.045
-306.866	-200.000	-0.008	0.043
-305.851	135.599	-0.080	0.103
-304.837	-63.553	0.147	0.060
-303.822	252.520	0.081	0.138
-302.807	3.990	-0.065	-0.047
-301.793	-108.526	0.259	-0.055
-300.778	240.874	-0.047	0.079
-299.764	604.577	0.042	-0.104
-298.749	800.000	-0.103	-0.302
-297.735	-60.861	-0.148	-0.062
-296.720	-200.000	0.006	-0.097
-295.705	-200.000	-0.007	0.048
-294.691	-154.326	0.188	-0.013
-293.676	6.793	0.066	0.049
-292.662	11.156	0.139	0.106
-291.647	-200.000	0.042	0.186
-290.632	-139.026	-0.371	-0.040
-289.618	38.425	-0.061	-0.054
-288.603	-200.000	0.027	-0.471
-287.589	757.072	0.128	-0.346
-286.574	41.749	0.268	0.242
-285.559	9.824	0.134	-0.101
-284.545	-55.744	0.158	0.070
-283.530	-140.462	0.231	0.024
-282.516	-158.031	-0.030	-0.002
-281.501	52.803	0.091	0.086
-280.486	-190.830	0.028	-0.000
-279.472	-99.566	0.158	0.039
-278.457	75.072	0.107	0.112
-277.443	-90.206	0.146	0.042
-276.428	-200.000	0.006	0.327
-275.413	-200.000	-0.014	-0.091
-274.399	248.472	-0.195	-0.328
-273.384	-150.683	0.198	0.015
-272.370	606.342	0.091	0.227
-271.355	-13.206	-0.243	0.157
-270.340	-19.553	0.315	0.194
-269.326	-200.000	-0.037	0.249
-268.311	22.614	0.168	-0.137
-267.297	800.000	-0.059	0.222
-266.282	800.000	-0.046	-0.193
-265.267	510.304	0.034	0.079
-264.253	-114.734	-0.090	0.017
-263.238	9.035	-0.107	0.080
-262.224	-200.000	0.037	0.226
-261.209	75.683	-0.159	-0.168
-260.195	-17.207	0.352	0.221
-259.180	197.939	-0.049	-0.074
-258.165	-67.670	-0.076	-0.030
-257.151	-200.000	0.069	-0.398
-256.136	11.712	0.143	-0.109
-255.122	-144.833	-0.379	0.035
-254.107	-159.970	0.371	-0.020
-253.092	-128.777	-0.121	0.017
-252.078	-39.292	0.082	-0.043
-251.063	70.772	0.376	-0.387
-250.049	-83.646	0.119	-0.038
-249.034	-70.040	-0.220	-0.083
-248.019	-200.000	0.009	0.087
-247.005	-92.161	-0.266	-0.075
-245.990	6.446	0.133	0.098
-244.976	-200.000	-0.043	-0.214
-243.961	193.868	0.124	0.186
-242.946	-11.683	-0.089	0.058
-241.932	205.773	0.153	-0.236
-240.917	-78.472	0.078	-0.027
-239.903	-200.000	0.010	0.051
-238.888	334.904	-0.144	0.278
-237.873	-200.000	0.030	0.232
-236.859	-17.173	-0.150	0.094
-235.844	-51.513	0.560	0.260
-234.830	390.810	-0.093	-0.191
-233.815	-158.686	-0.083	-0.005
-232.800	602.407	0.045	0.110
-231.786	-58.684	-0.177	0.076
-230.771	800.000	-0.036	0.140
-229.757	21.327	-0.146	0.118
-228.742	800.000	-0.107	0.351
-227.727	-36.600	0.270	-0.144
-226.713	-9.918	-0.189	0.125
-225.698	-16.116	-0.248	0.157
-224.684	-49.717	-0.201	0.095
-223.669	800.000	0.115	-0.357
-222.655	-6.173	0.124	-0.084
-221.640	-136.371	-0.523	0.061
-220.625	-200.000	-0.008	-0.044
-219.611	702.010	-0.136	-0.357
-218.596	279.857	0.058	0.102
-217.582	-114.841	-0.554	0.105
-216.567	-200.000	-0.017	0.178
-215.552	800.000	0.066	-0.187
-214.538	-50.965	0.260	-0.121
-213.523	389.565	-0.179	-0.369
-212.509	-200.000	-0.028	0.123
-211.494	-111.527	-0.096	0.019
-210.479	-35.538	-0.014	0.008
-209.465	-137.159	-0.283	0.032
-208.450	-200.000	-0.009	-0.092
-207.436	89.302	0.182	0.201
-206.421	118.724	0.191	-0.234
-205.406	-27.147	0.281	0.163
-204.392	-51.745	-0.173	-0.080
-203.377	-200.000	0.022	-0.272
-202.363	-177.505	-0.385	-0.009
-201.348	209.701	0.234	0.364
-200.333	102.279	0.175	0.203
-199.319	-49.569	0.186	-0.088
-198.304	800.000	0.066	-0.193
-197.290	-25.494	0.161	0.094
-196.275	-200.000	0.026	-0.130
-195.260	-200.000	0.051	0.276
-194.246	-121.683	-0.107	-0.018
-193.231	70.073	-0.166	0.170
-192.217	-61.162	0.319	-0.134
-191.202	148.250	0.290	-0.389
-190.187	-84.725	0.184	0.057
-189.173	800.000	-0.055	0.207
-188.158	-68.773	-0.063	-0.024
-187.144	-57.030	0.424	0.186
-186.129	245.736	-0.146	0.244
-185.114	51.600	0.169	0.159
-184.100	426.816	0.059	-0.126
-183.085	70.112	-0.137	0.140
-182.071	82.269	0.158	0.170
-181.056	-200.000	-0.017	-0.251
-180.042	289.866	-0.305	0.550
-179.027	-45.618	0.134	-0.066
-178.012	606.288	-0.010	-0.025
-176.998	71.059	-0.213	-0.219
-175.983	800.000	0.095	-0.264
-174.969	-200.000	0.043	0.197
-173.954	800.000	0.129	0.359
-172.939	-4.470	0.328	0.225
-171.925	-122.221	0.150	0.024
-170.910	41.192	-0.307	-0.275
-169.896	-65.536	-0.064	0.025
-168.881	-111.029	-0.461	-0.094
-167.866	800.000	0.051	0.161
-166.852	454.727	0.085	0.187
-165.837	198.002	0.132	0.199
-164.823	-149.920	-0.052	0.004
-163.808	800.000	-0.024	-0.084
-162.793	-200.000	-0.038	-0.388
-161.779	-113.626	0.269	0.052
-160.764	-180.515	-0.261	0.005
-159.750	-92.854	0.291	0.081
-158.735	25.708	0.420	-0.346
-157.720	-24.347	-0.304	-0.180
-156.706	-200.000	-0.038	-0.275
-155.691	418.248	-0.094	-0.200
-154.677	-200.000	-0.033	0.226
-153.662	-170.095	0.156	0.006
-152.647	-200.000	0.047	0.286
-151.633	-113.943	-0.388	-0.075
-150.618	30.766	-0.123	-0.104
-149.604	-154.904	0.157	0.010
-148.589	-200.000	-0.016	-0.086
-147.574	96.320	0.190	-0.215
-146.560	-200.000	-0.010	0.262
-145.545	329.862	-0.101	-0.192
-144.531	-1.562	-0.293	-0.205
-143.516	-142.091	-0.143	0.014
-142.502	-119.420	-0.212	-0.037
-141.487	-105.567	0.176	0.039
-140.472	-18.314	0.063	0.039
-139.458	-200.000	-0.007	-0.069
-138.443	800.000	-0.091	-0.312
-137.429	800.000	0.099	0.323
-136.414	135.490	0.052	-0.067
-135.399	139.077	0.156	-0.203
-134.385	253.052	-0.127	-0.215
-133.370	-95.754	0.303	0.080
-132.356	-99.825	-0.158	0.039
-131.341	-46.346	0.111	0.054
-130.326	800.000	-0.023	-0.071
-129.312	-73.114	-0.371	-0.135
-128.297	-200.000	0.067	-0.299
-127.283	-23.364	0.068	0.040
-126.268	105.198	0.211	0.247
-125.253	90.975	0.134	-0.149
-124.239	-31.154	0.244	0.136
-123.224	-95.853	0.459	0.121
-122.210	-9.646	0.233	-0.153
-121.195	636.552	0.142	0.356
-120.180	268.388	0.233	0.404
-119.166	-200.000	-0.040	-0.310
-118.151	-200.000	-0.017	0.146
-117.137	74.354	-0.165	0.172
-116.122	-3.744	0.425	0.292
-115.107	21.811	-0.160	0.129
-114.093	93.183	-0.090	-0.101
-113.078	-200.000	0.033	0.385
-112.064	-127.096	0.180	-0.026
-111.049	770.979	0.063	-0.171
-110.034	-93.549	0.192	0.052
-109.020	800.000	0.106	-0.381
-108.005	-83.625	0.340	0.108
-106.991	-155.578	-0.182	-0.012
-105.976	5.444	0.155	0.113
-104.962	162.720	0.125	0.174
-103.947	641.712	0.130	-0.327
-102.932	-200.000	0.010	-0.228
-101.918	-118.094	-0.145	0.026
-100.903	800.000	0.065	0.213
-99.889	-24.306	-0.065	-0.038
-98.874	194.813	0.040	0.060
-97.859	-7.641	-0.100	0.067
-96.845	312.067	0.104	0.194
-95.830	0.904	0.029	0.020
-94.816	162.189	-0.066	-0.091
-93.801	64.907	0.113	0.113
-92.786	800.000	0.084	0.324
-91.772	254.059	-0.196	0.331
-90.757	800.000	0.111	-0.468
-89.743	295.789	-0.152	-0.276
-88.728	-86.023	-0.041	-0.012
-87.713	9.372	0.226	0.169
-86.699	-6.438	-0.211	0.142
-85.684	48.329	0.251	0.232
-84.670	440.172	-0.140	-0.302
-83.655	-71.384	0.352	0.130
-82.640	-200.000	0.043	-0.465
-81.626	290.657	0.045	-0.081
-80.611	-2.276	-0.197	0.136
-79.597	289.057	0.045	0.080
-78.582	50.164	0.260	0.242
-77.567	102.469	-0.306	0.354
-76.553	62.993	0.074	-0.073
-75.538	-158.771	0.207	-0.012
-74.524	543.903	-0.031	-0.073
-73.509	800.000	-0.063	0.179
-72.494	800.000	-0.070	-0.198
-71.480	72.438	0.297	0.306
-70.465	-200.000	0.050	-0.488
-69.451	18.183	-0.223	0.176
-68.436	-10.196	-0.259	0.170
-67.422	454.164	0.090	0.198
-66.407	-200.000	0.008	-0.195
-65.392	800.000	-0.090	0.340
-64.378	405.383	0.132	0.275
-63.363	-26.765	0.083	0.048
-62.349	102.438	0.121	0.140
-61.334	32.688	-0.919	-0.785
-60.319	-120.241	0.367	0.062
-59.305	-200.000	-0.139	-1.221
-58.290	800.000	0.300	1.261
-57.276	800.000	0.570	1.650
-56.261	-200.000	97.708	594.339
-55.246	611.079	1433.670	3538.217
-54.232	182.035	2640.115	3838.983
-53.217	118.523	2193.884	2673.115
-52.203	44.783	1637.629	1487.260
-51.188	36.713	1370.853	1195.344
-50.173	33.353	1328.034	1137.811
-49.159	55.670	1376.588	1316.335
-48.144	58.682	1392.876	1350.229
-47.130	36.909	1349.910	1178.085
-46.115	33.331	1331.713	1140.646
-45.100	33.167	1326.729	1135.349
-44.086	33.038	1324.354	1132.499
-43.071	32.998	1322.330	1130.485
-42.057	32.940	1320.855	1128.829
-41.042	32.965	1318.623	1127.028
-40.027	32.997	1317.783	1126.454
-39.013	33.069	1315.489	1124.876
-37.998	33.039	1313.454	1122.918
-36.984	33.082	1312.183	1122.040
-35.969	33.120	1310.101	1120.441
-34.954	33.188	1308.491	1119.423
-33.940	33.277	1306.898	1118.539
-32.925	33.276	1305.285	1117.109
-31.911	33.186	1304.133	1115.548
-30.896	33.174	1302.499	1114.034
-29.881	33.186	1301.354	1113.086
-28.867	33.241	1299.984	1112.189
-27.852	33.262	1298.317	1110.842
-26.838	33.231	1296.828	1109.344
-25.823	33.179	1295.740	1108.064
-24.809	33.199	1294.380	1106.972
-23.794	33.225	1292.842	1105.768
-22.779	33.221	1291.317	1104.394
-21.765	33.130	1290.529	1103.148
-20.750	33.198	1289.410	1102.544
-19.736	33.127	1287.728	1100.645
-18.721	32.985	1286.578	1098.792
-17.706	32.981	1285.945	1098.186
-16.692	33.084	1284.275	1097.314
-15.677	33.068	1283.282	1096.331
-14.663	33.014	1282.065	1094.935
-13.648	33.171	1280.518	1094.481
-12.633	33.088	1279.888	1093.414
-11.619	33.033	1279.162	1092.434
-10.604	33.003	1278.507	1091.656
-9.590	33.020	1277.246	1090.637
-8.575	32.938	1276.417	1089.415
-7.560	32.957	1275.760	1088.920
-6.546	32.974	1274.625	1088.005
-5.531	33.024	1273.557	1087.339
-4.517	32.997	1273.419	1087.022
-3.502	33.061	1272.281	1086.373
-2.487	33.070	1270.873	1085.180
-1.473	33.077	1266.976	1081.851
-0.458	32.079	1252.629	1063.906
0.556	30.278	1234.315	1023.813
1.571	26.342	1239.357	1006.048
2.586	24.937	1254.214	1010.101
3.600	23.165	1241.299	989.707
4.615	17.236	1167.665	899.624
5.629	8.731	1092.628	799.435
6.644	4.837	1071.417	764.756
7.659	4.457	1069.411	761.396
8.673	4.369	1067.549	759.569
9.688	4.328	1066.151	758.310
10.702	4.818	1065.425	760.116
11.717	10.475	1073.797	793.789
12.731	18.810	1085.401	843.384
13.746	22.336	1088.352	862.926
14.761	21.980	1087.722	860.609
15.775	21.108	1086.231	855.082
16.790	19.982	1084.462	848.103
17.804	19.346	1082.627	843.478
18.819	19.082	1081.478	841.221
19.834	19.103	1080.986	840.865
20.848	18.741	1080.720	838.817
21.863	18.700	1079.154	837.328
22.877	18.640	1078.338	836.326
23.892	18.567	1077.842	835.515
24.907	18.666	1076.758	835.082
25.921	18.631	1075.472	833.839
26.936	18.571	1074.749	832.914
27.950	18.596	1073.122	831.702
28.965	18.701	1071.875	831.168
29.980	18.939	1070.488	831.168
30.994	18.847	1069.880	830.180
32.009	18.856	1069.012	829.476
33.023	18.949	1067.359	828.568
34.038	18.840	1066.472	827.282
35.053	18.659	1065.735	825.767
36.067	18.645	1064.551	824.711
37.082	18.811	1063.652	824.738
38.096	18.941	1063.118	824.875
39.111	18.817	1062.883	824.022
40.126	18.661	1061.074	821.801
41.140	18.367	1059.335	818.975
42.155	18.333	1057.827	817.575
43.169	18.162	1057.329	816.300
44.184	18.212	1056.104	815.522
45.199	18.280	1055.184	815.062
46.213	18.441	1054.388	815.145
47.228	18.729	1053.281	815.583
48.242	18.776	1052.511	815.136
49.257	18.715	1051.143	813.714
50.271	18.735	1050.818	813.487
51.286	18.686	1050.444	812.894
52.301	18.716	1049.124	811.942
53.315	18.635	1047.899	810.541
54.330	18.555	1046.560	809.054
55.344	18.435	1046.154	808.104
56.359	18.467	1045.693	807.829
57.374	18.392	1044.427	806.424
58.388	18.333	1043.374	805.263
59.403	18.282	1042.549	804.313
60.417	18.337	1041.528	803.713
61.432	18.211	1040.866	802.540
62.447	18.039	1040.277	801.210
63.461	18.099	1039.050	800.474
64.476	18.079	1038.355	799.777
65.490	17.948	1037.531	798.457
66.505	18.147	1037.056	798.951
67.520	18.244	1036.402	798.827
68.534	18.106	1035.876	797.710
69.549	18.112	1034.560	796.652
70.563	17.964	1034.190	795.609
71.578	17.932	1032.889	794.388
72.593	17.785	1032.723	793.506
73.607	17.756	1031.703	792.518
74.622	17.938	1031.042	792.785
75.636	18.006	1030.512	792.625
76.651	17.984	1029.775	791.886
77.666	17.967	1029.216	791.304
78.680	18.041	1028.443	790.982
79.695	18.027	1028.143	790.620
80.709	18.129	1027.859	790.803
81.724	18.357	1026.629	790.838
82.739	18.453	1026.064	790.775
83.753	18.611	1025.101	790.690
84.768	18.931	1024.662	791.759
85.782	18.981	1023.695	791.169
86.797	18.841	1023.207	790.080
87.812	18.695	1021.723	788.193
88.826	18.723	1020.941	787.650
89.841	18.886	1019.878	787.508
90.855	18.864	1019.310	786.898
91.870	18.934	1018.012	786.147
92.884	18.947	1017.085	785.418
93.899	18.986	1016.663	785.202
94.914	19.091	1015.882	785.009
95.928	19.067	1014.755	783.958
96.943	18.965	1013.285	782.290
97.957	18.847	1012.682	781.220
98.972	18.890	1011.945	780.777
99.987	18.970	1010.845	780.221
101.001	18.863	1010.228	779.193
102.016	18.787	1009.523	778.233
103.030	18.867	1008.988	778.114
104.045	18.932	1007.801	777.425
105.060	18.912	1006.472	776.239
106.074	18.438	1005.458	773.251
107.089	18.238	1004.470	771.521
108.103	18.300	1003.154	770.721
109.118	18.264	1002.355	769.879
110.133	18.079	1001.522	768.338
111.147	18.181	1000.439	767.898
112.162	18.244	999.855	767.663
113.176	18.322	999.491	767.668
114.191	18.484	998.609	767.645
115.206	18.365	997.964	766.551
116.220	18.257	996.907	765.187
117.235	18.304	996.022	764.652
118.249	18.316	995.003	763.855
119.264	18.154	994.190	762.440
120.279	18.162	993.530	761.900
121.293	18.091	992.612	760.813
122.308	17.967	991.670	759.471
123.322	17.971	990.769	758.734
124.337	18.015	989.416	757.827
125.352	17.911	988.763	756.796
126.366	17.777	988.002	755.557
127.381	17.871	986.628	754.855
128.395	17.973	985.879	754.662
129.410	18.102	984.988	754.486
130.424	18.204	984.355	754.383
131.439	18.335	983.609	754.320
132.454	18.299	983.018	753.642
133.468	18.506	981.424	753.263
134.483	18.320	981.206	752.214
135.497	18.390	980.382	751.821
136.512	18.336	979.470	750.818
137.527	18.465	978.730	750.749
138.541	18.446	977.735	749.840
139.556	18.474	977.428	749.659
140.570	18.751	976.392	750.007
141.585	18.819	975.986	749.927
142.600	18.968	974.995	749.750
143.614	18.988	974.253	749.198
144.629	18.976	973.385	748.414
145.643	18.914	972.438	747.347
146.658	18.774	971.054	745.611
147.673	18.616	970.008	744.056
148.687	18.461	969.397	742.853
149.702	18.374	968.518	741.734
150.716	18.375	967.670	741.023
151.731	18.517	966.358	740.568
152.746	18.577	965.875	740.389
153.760	18.537	965.583	739.930
154.775	18.778	964.910	740.388
155.789	18.666	964.440	739.479
156.804	18.641	963.956	738.932
157.819	18.884	962.751	738.989
158.833	18.982	962.507	739.160
159.848	19.066	961.446	738.639
160.862	18.910	960.302	737.025
161.877	18.510	959.546	734.664
162.892	18.450	958.158	733.282
163.906	18.394	957.090	732.161
164.921	18.443	956.394	731.772
165.935	18.548	955.633	731.576
166.950	18.710	954.670	731.462
167.964	18.679	953.938	730.703
168.979	18.443	952.964	728.891
169.994	18.592	951.965	728.696
171.008	18.726	951.237	728.639
172.023	18.751	951.319	728.744
173.037	19.037	950.257	729.082
174.052	18.715	949.792	727.293
175.067	18.559	948.592	725.652
176.081	18.417	948.262	724.734
177.096	18.363	947.743	724.045
178.110	18.432	947.389	724.001
179.125	18.423	946.546	723.256
180.140	18.543	946.122	723.373
181.154	18.728	945.900	723.921
182.169	18.921	945.215	724.145
183.183	19.055	944.306	723.949
184.198	19.031	943.375	723.069
185.213	19.042	942.902	722.688
186.227	19.098	942.529	722.575
187.242	19.132	941.903	722.171
188.256	19.189	941.557	722.083
189.271	19.118	940.413	720.843
190.286	18.666	939.815	718.432
191.300	18.284	938.642	715.873
192.315	18.308	937.609	715.121
193.329	18.414	937.259	715.235
194.344	18.611	936.339	715.291
195.359	18.854	936.029	716.003
196.373	18.810	935.654	715.471
197.388	18.934	935.236	715.601
198.402	19.180	934.901	716.305
199.417	19.319	934.135	716.234
200.432	19.405	933.562	716.087
201.446	19.477	933.742	716.461
202.461	19.447	933.395	716.008
203.475	19.343	932.178	714.579
204.490	19.167	930.604	712.583
205.504	19.071	930.508	712.050
206.519	19.090	929.331	711.164
207.534	19.028	928.897	710.513
208.548	19.018	928.022	709.739
209.563	19.072	927.129	709.218
210.577	19.164	926.791	709.272
211.592	19.406	926.286	709.818
212.607	19.430	925.712	709.416
213.621	19.178	925.107	707.855
214.636	19.379	923.682	707.525
215.650	19.310	923.233	706.837
216.665	19.433	922.872	707.002
217.680	19.651	922.270	707.368
218.694	19.472	921.475	705.963
219.709	19.435	920.999	705.387
220.723	19.475	920.032	704.747
221.738	19.293	919.738	703.715
222.753	19.426	918.871	703.532
223.767	19.544	918.862	703.944
224.782	19.636	917.974	703.577
225.796	19.581	917.699	703.079
226.811	19.529	917.054	702.314
227.826	19.462	915.928	701.115
228.840	19.253	915.276	699.705
229.855	19.414	913.990	699.315
230.869	19.317	913.782	698.701
231.884	19.338	912.695	697.893
232.899	19.183	912.181	696.809
233.913	19.201	911.178	696.057
234.928	19.014	910.813	694.960
235.942	19.119	910.080	694.760
236.957	19.205	909.259	694.421
237.972	19.208	909.006	694.177
238.986	19.262	908.061	693.614
240.001	19.310	907.396	693.238
241.015	19.277	907.340	692.999
242.030	19.473	906.630	693.181
243.045	19.313	906.190	692.142
244.059	19.346	905.699	691.841
245.074	19.566	904.764	691.946
246.088	19.582	904.125	691.461
247.103	19.718	903.552	691.503
248.117	19.881	903.214	691.838
249.132	20.135	903.245	692.815
250.147	20.371	902.528	693.146
251.161	20.267	902.342	692.525
252.176	20.309	901.348	691.869
253.190	20.361	900.503	691.368
254.205	20.486	900.018	691.430
255.220	20.429	899.210	690.521
256.234	20.419	898.249	689.682
257.249	20.303	898.019	688.983
258.263	20.384	897.309	688.699
259.278	20.474	896.639	688.484
260.293	20.601	895.785	688.267
261.307	20.494	895.564	687.615
262.322	20.636	894.826	687.549
263.336	20.408	894.450	686.297
264.351	20.654	893.212	686.255
265.366	20.561	892.901	685.591
266.380	20.455	892.280	684.635
267.395	20.340	891.630	683.622
268.409	20.417	890.558	683.046
269.424	20.272	890.096	682.059
270.439	20.255	889.427	681.419
271.453	20.199	888.191	680.192
272.468	20.097	888.056	679.629
273.482	20.250	887.350	679.629
274.497	20.185	887.106	679.127
275.512	20.143	886.540	678.467
276.526	20.274	885.838	678.382
277.541	20.477	884.956	678.440
278.555	20.436	885.077	678.314
279.570	20.648	884.407	678.567
280.585	20.708	883.263	677.863
281.599	20.531	882.651	676.644
282.614	20.433	881.892	675.621
283.628	20.298	881.636	674.843
284.643	20.294	880.721	674.066
285.657	20.414	880.083	673.982
286.672	20.413	879.758	673.673
287.687	20.357	879.072	672.868
288.701	20.334	878.566	672.334
289.716	20.404	877.908	672.041
290.730	20.467	877.287	671.750
291.745	20.553	876.644	671.531
292.760	20.538	875.718	670.703
293.774	20.702	875.505	671.111
294.789	20.629	875.108	670.470
295.803	20.500	874.072	669.118
296.818	20.511	873.256	668.478
297.833	20.315	872.944	667.426
298.847	20.423	872.347	667.322
299.862	20.466	871.669	666.913
300.876	20.749	871.413	667.744
301.891	20.774	870.926	667.406
302.906	20.883	870.394	667.356
303.920	20.966	869.962	667.286
304.935	21.156	869.255	667.410
305.949	20.914	868.632	665.948
306.964	20.784	867.922	664.848
307.979	20.810	867.580	664.625
308.993	21.029	866.479	664.557
310.008	20.852	865.982	663.445
311.022	20.817	865.418	662.823
312.037	20.665	864.648	661.594
313.052	20.416	864.306	660.328
314.066	20.416	863.410	659.585
315.081	20.439	862.960	659.269
316.095	20.540	862.141	658.968
317.110	20.442	861.589	658.116
318.125	20.439	861.383	657.889
319.139	20.483	860.697	657.473
320.154	20.497	860.401	657.244
321.168	20.652	859.816	657.323
322.183	20.637	859.245	656.774
323.197	20.714	858.726	656.610
324.212	20.596	858.162	655.676
325.227	20.717	857.450	655.526
326.241	20.667	856.633	654.657
327.256	20.692	856.208	654.368
328.270	20.667	855.875	653.964
329.285	20.527	855.217	652.876
330.300	20.615	854.357	652.490
331.314	20.679	854.026	652.422
332.329	20.845	853.800	652.814
333.343	20.875	853.551	652.678
334.358	20.907	853.094	652.391
335.373	21.004	852.640	652.345
336.387	20.941	852.284	651.782
337.402	21.086	852.263	652.252
338.416	21.197	852.021	652.423
339.431	21.239	852.013	652.516
340.446	21.343	850.961	652.041
341.460	21.463	850.495	652.071
342.475	21.438	850.629	652.026
343.489	21.588	850.047	652.079
344.504	21.583	849.394	651.503
345.519	21.736	848.927	651.654
346.533	21.577	848.382	650.587
347.548	21.214	847.999	648.887
348.562	21.140	846.993	647.788
349.577	21.027	846.271	646.759
350.592	20.880	845.482	645.553
351.606	21.038	844.849	645.597
352.621	21.124	844.231	645.386
353.635	21.104	844.005	645.083
354.650	21.205	843.447	644.973
355.665	21.292	842.660	644.636
356.679	21.312	841.980	644.129
357.694	21.426	841.268	643.949
358.708	21.388	840.975	643.527
359.723	21.291	840.526	642.771
360.738	21.346	839.464	642.105
361.752	21.435	838.695	641.786
362.767	21.643	838.290	642.181
363.781	21.596	838.229	641.907
364.796	21.879	837.671	642.458
365.810	21.894	837.390	642.239
366.825	21.943	837.028	642.084
367.840	21.838	836.829	641.490
368.854	21.618	835.936	639.945
369.869	21.648	835.243	639.470
370.883	21.713	835.023	639.481
371.898	21.860	834.718	639.726
372.913	21.903	834.356	639.550
373.927	21.666	834.142	638.465
374.942	21.667	833.330	637.790
375.956	21.951	832.998	638.512
376.971	22.065	832.204	638.265
377.986	22.191	831.973	638.486
379.000	22.108	831.538	637.796
380.015	22.030	831.238	637.226
381.029	22.080	830.362	636.678
382.044	22.089	829.775	636.206
383.059	22.156	829.135	635.900
384.073	22.086	828.097	634.795
385.088	21.898	827.921	633.925
386.102	21.739	827.184	632.731
387.117	21.518	826.577	631.412
388.132	21.700	825.930	631.518
389.146	21.833	825.442	631.569
390.161	22.003	825.036	631.814
391.175	21.985	825.060	631.713
392.190	21.928	823.872	630.542
393.205	21.752	823.535	629.596
394.219	21.789	823.111	629.348
395.234	21.577	823.157	628.568
396.248	21.485	822.181	627.435
397.263	21.436	821.281	626.519
398.278	21.556	821.437	627.014
399.292	21.476	821.101	626.414
400.307	21.301	820.824	625.522
401.321	21.493	819.712	625.302
402.336	21.738	819.269	625.784
403.350	21.770	818.828	625.507
404.365	22.039	818.778	626.374
405.380	21.939	818.738	625.931
406.394	22.197	817.707	626.006
407.409	22.330	817.176	626.018
408.423	22.329	817.006	625.828
409.438	22.424	817.211	626.268
410.453	22.429	816.463	625.659
411.467	22.552	815.875	625.586
412.482	22.564	815.745	625.475
413.496	22.569	815.403	625.177
414.511	22.546	814.967	624.703
415.526	22.520	814.228	623.991
416.540	22.571	813.315	623.416
417.555	22.599	813.151	623.335
418.569	22.575	812.543	622.730
419.584	22.473	812.757	622.477
420.599	22.440	812.289	621.945
421.613	161.000	1369.715	1791.917
422.628	140.220	1450.931	1792.021
