DTS Sentinel unit serial number:	SN413079Multiplexer serial number:	ORYXHardware model number:	OX4-SRSoftware version number:	ORYX F/W v4.00 Oryx Data Collector v3.7.2.0data status	okinstallation	princeton_trtdifferential loss correction	single-endedforward channel	channel 1reverse channel	N/Adate	2019/09/19time	05:22:35forward acquisition time	60.00reverse acquisition time	0.00gamma	496.2192k internal	0.2343k external	0.2343temperature offset calibration	1.0020default loss term (dB/km)	0.3790temperature slope calibration	1.0000multiplexer offset coefficient	1.0000multiplexer slope coefficient	1.0000fibre end	0.00T internal ref (°C)	19.44T ext. ref 1 (°C)	0.60T ext. ref 2 (°C)	12.98length (m)	temperature (°C)	Stokes	anti-Stokes-747.200	279.421	0.173	-0.309
-746.185	26.777	-0.099	0.083
-745.171	-48.650	-0.154	0.074
-744.156	426.665	0.096	0.207
-743.142	-200.000	0.014	0.086
-742.127	-1.668	0.200	0.141
-741.112	67.439	0.239	0.244
-740.098	40.455	-0.182	0.164
-739.083	125.059	0.101	0.127
-738.069	196.642	-0.136	0.208
-737.054	-200.000	-0.008	0.231
-736.039	562.386	-0.210	0.509
-735.025	-33.892	0.298	0.164
-734.010	-88.557	-0.116	-0.035
-732.996	-99.367	-0.309	0.078
-731.981	800.000	-0.073	0.226
-730.966	47.444	0.121	-0.113
-729.952	178.078	-0.122	-0.179
-728.937	-140.531	-0.206	0.021
-727.923	426.940	-0.045	0.096
-726.908	-40.852	0.112	-0.058
-725.894	-200.000	-0.000	-0.092
-724.879	-115.131	-0.275	-0.052
-723.864	-200.000	-0.007	0.055
-722.850	-200.000	-0.006	-0.048
-721.835	-200.000	-0.063	-0.356
-720.821	-22.407	-0.160	-0.097
-719.806	-139.145	-0.371	0.040
-718.791	-200.000	-0.015	-0.193
-717.777	-142.728	0.304	-0.030
-716.762	-145.459	0.249	-0.022
-715.748	61.458	0.178	-0.177
-714.733	-101.052	-0.409	-0.100
-713.718	257.700	-0.075	-0.130
-712.704	51.848	0.343	-0.326
-711.689	-200.000	0.046	-0.205
-710.675	410.796	0.069	-0.146
-709.660	-18.602	-0.304	-0.189
-708.645	-190.947	-0.282	-0.003
-707.631	-200.000	-0.001	-0.184
-706.616	112.479	-0.100	0.121
-705.602	-30.844	-0.209	0.118
-704.587	6.218	-0.164	0.122
-703.572	-200.000	0.031	-0.309
-702.558	110.819	0.208	0.250
-701.543	9.323	0.060	0.045
-700.529	-24.495	0.175	-0.104
-699.514	-73.282	-0.172	-0.063
-698.499	-35.092	-0.447	-0.244
-697.485	-56.702	0.191	0.084
-696.470	188.124	0.116	0.173
-695.456	-50.668	0.341	-0.161
-694.441	-60.403	-0.420	-0.178
-693.426	-135.369	0.497	-0.059
-692.412	-200.000	-0.070	-0.000
-691.397	411.478	-0.090	0.191
-690.383	-200.000	0.033	0.289
-689.368	-37.342	-0.116	-0.062
-688.354	-101.652	0.135	-0.033
-687.339	-153.923	0.061	0.004
-686.324	228.984	-0.053	0.086
-685.310	-200.000	0.061	-0.000
-684.295	-56.205	0.140	0.062
-683.281	800.000	0.036	0.131
-682.266	-19.374	0.172	0.107
-681.251	732.949	0.057	-0.153
-680.237	-20.815	0.135	-0.083
-679.222	800.000	0.051	0.182
-678.208	-144.107	0.229	0.021
-677.193	-70.865	0.279	0.105
-676.178	800.000	-0.080	0.270
-675.164	203.573	0.045	-0.069
-674.149	800.000	0.042	0.148
-673.135	-109.110	-0.268	-0.057
-672.120	134.949	0.102	-0.132
-671.105	145.246	-0.133	0.177
-670.091	-200.000	-0.084	0.546
-669.076	-115.458	-0.173	-0.033
-668.062	-174.061	-0.133	0.004
-667.047	56.385	0.112	-0.109
-666.032	-81.410	-0.118	0.039
-665.018	415.399	0.026	-0.056
-664.003	211.516	-0.143	0.224
-662.989	-200.000	0.043	0.508
-661.974	-200.000	0.027	-0.258
-660.959	-200.000	-0.013	-0.169
-659.945	-200.000	0.007	-0.206
-658.930	256.538	0.115	-0.198
-657.916	126.471	-0.074	0.093
-656.901	367.461	0.053	-0.107
-655.886	300.494	0.085	0.157
-654.872	85.436	-0.219	0.240
-653.857	800.000	0.130	0.483
-652.843	4.183	0.210	-0.153
-651.828	-81.873	-0.387	-0.126
-650.814	-6.011	-0.117	0.080
-649.799	-50.769	0.353	0.166
-648.784	800.000	-0.083	-0.274
-647.770	20.274	-0.369	-0.297
-646.755	-77.989	-0.212	-0.073
-645.741	-200.000	-0.004	-0.257
-644.726	-98.433	-0.165	0.042
-643.711	-66.031	0.245	-0.098
-642.697	-155.564	0.065	-0.004
-641.682	-200.000	-0.039	-0.192
-640.668	-69.360	0.086	0.033
-639.653	800.000	0.027	-0.076
-638.638	-10.335	-0.256	0.169
-637.624	258.921	-0.144	0.247
-636.609	16.626	-0.201	0.158
-635.595	745.601	0.037	0.100
-634.580	-159.627	0.438	-0.024
-633.565	34.047	0.180	-0.156
-632.551	579.869	-0.048	-0.116
-631.536	-50.417	-0.146	-0.069
-630.522	295.808	-0.073	0.133
-629.507	-33.113	0.332	0.183
-628.492	116.303	-0.072	-0.089
-627.478	-200.000	-0.013	-0.157
-626.463	667.931	-0.068	0.175
-625.449	2.109	-0.190	0.137
-624.434	230.140	-0.199	0.324
-623.419	-200.000	-0.028	0.128
-622.405	800.000	0.046	0.159
-621.390	74.151	0.226	0.237
-620.376	-15.286	-0.087	0.055
-619.361	11.585	0.172	0.132
-618.346	-200.000	0.004	-0.163
-617.332	-29.350	0.120	-0.069
-616.317	457.810	0.121	0.268
-615.303	452.196	-0.108	-0.238
-614.288	47.765	-0.174	-0.162
-613.273	-50.001	0.229	-0.108
-612.259	-12.240	0.119	0.078
-611.244	800.000	-0.084	0.282
-610.230	-200.000	0.013	-0.369
-609.215	653.711	-0.120	0.306
-608.201	-121.450	-0.166	-0.027
-607.186	800.000	-0.128	0.369
-606.171	-200.000	-0.005	0.206
-605.157	-200.000	-0.070	0.446
-604.142	249.337	0.084	0.142
-603.128	-164.962	0.243	-0.011
-602.113	342.990	-0.055	0.107
-601.098	-200.000	0.011	-0.194
-600.084	509.027	-0.046	0.106
-599.069	-200.000	-0.012	-0.131
-598.055	449.136	0.117	0.257
-597.040	50.359	-0.061	0.057
-596.025	-105.549	0.349	-0.079
-595.011	-73.896	-0.190	-0.069
-593.996	-10.629	-0.236	0.155
-592.982	24.887	-0.233	-0.193
-591.967	153.927	0.163	0.223
-590.952	-61.111	-0.169	-0.071
-589.938	800.000	-0.013	-0.056
-588.923	800.000	0.131	0.376
-587.909	217.111	0.136	0.216
-586.894	7.779	-0.191	0.142
-585.879	139.976	0.241	0.317
-584.865	-200.000	0.007	0.075
-583.850	303.198	0.182	0.336
-582.836	-106.212	-0.143	0.032
-581.821	-200.000	-0.017	-0.116
-580.806	-200.000	-0.027	0.135
-579.792	-200.000	0.015	0.113
-578.777	173.444	-0.077	-0.110
-577.763	-34.008	-0.161	0.088
-576.748	63.779	-0.115	-0.115
-575.733	-158.779	0.220	0.012
-574.719	651.342	-0.146	0.373
-573.704	7.990	0.211	0.158
-572.690	-79.011	0.177	0.060
-571.675	-200.000	-0.021	0.110
-570.661	-89.884	-0.492	-0.143
-569.646	195.140	-0.125	-0.188
-568.631	-14.594	-0.125	0.080
-567.617	153.583	-0.136	0.185
-566.602	800.000	-0.025	-0.088
-565.588	52.301	0.032	0.030
-564.573	49.904	-0.132	-0.124
-563.558	-6.127	0.095	-0.064
-562.544	433.289	-0.079	-0.171
-561.529	-78.696	0.371	-0.126
-560.515	800.000	0.098	0.404
-559.500	-35.541	0.114	0.062
-558.485	69.147	0.265	0.271
-557.471	800.000	0.024	-0.097
-556.456	161.433	0.122	-0.169
-555.442	655.551	-0.137	-0.349
-554.427	207.614	-0.188	0.292
-553.412	800.000	0.105	0.318
-552.398	-161.591	-0.100	0.005
-551.383	14.389	0.076	-0.059
-550.369	800.000	0.044	0.178
-549.354	38.905	0.133	-0.118
-548.339	-65.054	-0.137	0.055
-547.325	-35.015	-0.135	0.073
-546.310	101.589	0.051	0.059
-545.296	-141.671	-0.207	0.021
-544.281	-200.000	-0.018	-0.314
-543.266	800.000	0.125	-0.496
-542.252	-200.000	-0.032	-0.156
-541.237	-131.661	0.151	-0.020
-540.223	-200.000	-0.030	0.358
-539.208	-112.047	0.519	0.104
-538.193	-103.542	0.064	-0.015
-537.179	-200.000	-0.020	0.119
-536.164	14.605	-0.166	0.129
-535.150	-13.911	0.190	-0.122
-534.135	-23.580	-0.199	-0.118
-533.121	358.604	-0.116	0.230
-532.106	583.342	-0.132	0.321
-531.091	-200.000	0.013	-0.126
-530.077	-86.864	-0.281	-0.085
-529.062	-200.000	-0.006	-0.191
-528.048	16.562	-0.047	0.037
-527.033	-89.340	0.112	-0.033
-526.018	-131.157	0.308	0.041
-525.004	-60.765	-0.180	-0.076
-523.989	800.000	0.026	0.099
-522.975	-9.020	0.187	-0.124
-521.960	92.378	0.254	-0.285
-520.945	-96.279	-0.071	-0.019
-519.931	60.541	0.105	-0.103
-518.916	249.482	0.087	-0.147
-517.902	261.528	0.217	-0.374
-516.887	-21.143	0.075	-0.046
-515.872	-121.093	-0.100	-0.017
-514.858	-200.000	-0.021	-0.270
-513.843	69.542	0.158	0.161
-512.829	-58.695	-0.176	0.075
-511.814	-200.000	-0.044	0.344
-510.799	236.950	0.143	0.235
-509.785	-65.628	-0.231	-0.092
-508.770	54.847	-0.125	0.120
-507.756	-150.829	-0.049	-0.004
-506.741	97.095	-0.088	-0.101
-505.726	-35.306	-0.119	-0.064
-504.712	42.790	0.252	-0.228
-503.697	-35.000	-0.129	-0.070
-502.683	-200.000	0.023	0.309
-501.668	800.000	-0.065	0.267
-500.653	297.125	-0.012	0.022
-499.639	-52.412	0.225	0.103
-498.624	43.354	-0.055	-0.050
-497.610	-103.858	0.302	-0.070
-496.595	800.000	-0.054	-0.198
-495.581	800.000	0.020	0.081
-494.566	-21.389	-0.150	-0.091
-493.551	13.230	-0.244	-0.188
-492.537	39.407	-0.138	-0.123
-491.522	142.550	-0.323	0.425
-490.508	-91.509	-0.284	0.080
-489.493	-34.151	0.489	0.266
-488.478	-200.000	0.002	-0.223
-487.464	-20.583	-0.045	-0.027
-486.449	-200.000	-0.044	0.259
-485.435	-154.871	-0.064	0.004
-484.420	-200.000	-0.014	-0.223
-483.405	296.345	0.236	-0.429
-482.391	66.980	-0.127	0.128
-481.376	-200.000	-0.021	-0.282
-480.362	-200.000	-0.032	-0.364
-479.347	390.160	0.060	-0.124
-478.332	-21.374	-0.148	-0.089
-477.318	-27.972	0.264	0.152
-476.303	170.233	0.163	0.231
-475.289	210.605	0.104	0.161
-474.274	-86.854	0.151	-0.046
-473.259	-200.000	-0.007	-0.229
-472.245	259.458	0.122	0.208
-471.230	269.143	-0.203	-0.353
-470.216	26.108	0.245	-0.202
-469.201	28.939	0.130	0.110
-468.186	-200.000	-0.067	0.565
-467.172	7.618	-0.098	0.073
-466.157	-118.564	-0.250	0.044
-465.143	14.897	0.206	0.160
-464.128	19.840	0.188	-0.150
-463.113	-200.000	0.028	0.191
-462.099	-200.000	-0.021	0.141
-461.084	639.487	-0.089	0.223
-460.070	-135.767	-0.151	-0.018
-459.055	-200.000	-0.057	0.309
-458.040	-19.661	0.218	-0.134
-457.026	61.545	-0.163	-0.161
-456.011	35.840	0.080	-0.069
-454.997	-185.130	-0.470	-0.007
-453.982	-22.240	0.154	-0.093
-452.968	-200.000	-0.086	-0.396
-451.953	14.432	-0.162	0.125
-450.938	21.131	-0.198	0.159
-449.924	-20.441	0.464	0.282
-448.909	351.724	0.104	-0.204
-447.895	-109.248	0.255	-0.053
-446.880	71.973	-0.048	-0.049
-445.865	-200.000	0.067	0.311
-444.851	124.724	0.059	-0.074
-443.836	265.837	0.221	-0.382
-442.822	-41.905	0.216	-0.109
-441.807	-150.288	0.640	-0.049
-440.792	-114.280	0.388	0.074
-439.778	-42.495	-0.221	-0.111
-438.763	706.710	-0.104	-0.273
-437.749	14.761	0.179	-0.139
-436.734	-200.000	0.017	0.076
-435.719	43.657	0.200	-0.181
-434.705	56.076	-0.136	-0.131
-433.690	238.364	0.051	-0.084
-432.676	169.030	0.056	-0.079
-431.661	800.000	0.075	-0.309
-430.646	53.981	0.038	0.036
-429.632	312.025	0.017	0.031
-428.617	454.604	0.094	0.205
-427.603	-147.243	0.182	-0.015
-426.588	258.241	0.052	0.089
-425.573	-126.595	-0.139	0.020
-424.559	-16.216	0.059	-0.037
-423.544	-135.446	-0.322	0.038
-422.530	800.000	0.094	-0.300
-421.515	-28.026	0.166	-0.095
-420.500	800.000	-0.014	-0.040
-419.486	-130.647	0.132	-0.018
-418.471	-34.207	0.254	-0.138
-417.457	-200.000	-0.024	-0.209
-416.442	-200.000	0.002	0.041
-415.428	-69.657	0.403	-0.152
-414.413	-200.000	-0.038	-0.171
-413.398	322.724	-0.051	-0.095
-412.384	-76.717	-0.054	-0.019
-411.369	139.345	0.111	-0.144
-410.355	-38.574	0.173	-0.091
-409.340	800.000	-0.089	-0.276
-408.325	139.243	-0.420	-0.546
-407.311	20.629	-0.089	-0.071
-406.296	-60.417	0.316	-0.133
-405.282	98.672	0.171	-0.194
-404.267	-200.000	0.041	0.273
-403.252	-31.473	0.049	-0.027
-402.238	-40.074	-0.161	-0.083
-401.223	-125.611	-0.136	0.020
-400.209	133.532	-0.179	-0.229
-399.194	-81.504	0.177	0.058
-398.179	-80.258	-0.219	-0.072
-397.165	16.665	0.081	0.063
-396.150	227.889	0.201	-0.323
-395.136	-200.000	0.030	0.135
-394.121	-44.976	-0.241	-0.119
-393.106	233.316	0.079	-0.129
-392.092	746.479	0.103	0.273
-391.077	-200.000	0.063	-0.460
-390.063	-41.890	0.202	-0.102
-389.048	24.712	-0.188	0.154
-388.033	-33.647	-0.262	-0.143
-387.019	63.579	0.327	-0.324
-386.004	-200.000	-0.096	-0.639
-384.990	695.748	-0.134	-0.347
-383.975	-200.000	-0.003	0.162
-382.960	-123.034	-0.177	0.028
-381.946	-150.728	0.157	0.012
-380.931	-122.854	-0.143	-0.023
-379.917	-200.000	0.034	0.253
-378.902	209.362	-0.079	-0.122
-377.888	-129.398	0.189	0.026
-376.873	184.638	-0.120	-0.175
-375.858	-200.000	0.012	0.216
-374.844	800.000	0.079	0.236
-373.829	196.129	-0.136	-0.204
-372.815	-95.066	0.198	0.053
-371.800	-50.858	0.204	-0.095
-370.785	7.824	-0.123	-0.091
-369.771	-200.000	-0.044	-0.208
-368.756	360.447	0.223	-0.442
-367.742	800.000	-0.066	-0.204
-366.727	800.000	-0.025	0.071
-365.712	-68.772	-0.422	-0.161
-364.698	-73.638	0.256	0.092
-363.683	-141.595	-0.349	-0.035
-362.669	105.963	0.109	0.127
-361.654	384.403	0.044	0.090
-360.639	543.865	0.062	0.147
-359.625	-200.000	0.008	0.145
-358.610	685.989	-0.058	0.148
-357.596	57.208	-0.191	-0.184
-356.581	800.000	0.035	0.149
-355.566	-200.000	0.000	0.123
-354.552	219.160	-0.070	0.111
-353.537	-74.584	0.100	0.035
-352.523	-8.752	0.073	-0.049
-351.508	50.856	0.157	0.147
-350.493	800.000	-0.039	0.134
-349.479	58.939	0.161	-0.156
-348.464	800.000	-0.101	0.416
-347.450	-119.197	0.106	0.018
-346.435	104.325	0.166	0.192
-345.420	126.798	-0.302	0.378
-344.406	62.281	0.214	0.210
-343.391	405.794	0.138	-0.288
-342.377	-200.000	-0.044	-0.457
-341.362	-59.524	-0.278	0.118
-340.348	-70.649	-0.415	-0.155
-339.333	36.244	-0.109	0.094
-338.318	-103.953	-0.125	-0.029
-337.304	9.717	-0.244	0.182
-336.289	-200.000	-0.023	-0.186
-335.275	-200.000	-0.005	0.162
-334.260	344.518	-0.105	-0.202
-333.245	800.000	-0.051	-0.209
-332.231	-200.000	-0.079	0.356
-331.216	-78.424	0.258	0.087
-330.202	199.244	-0.084	-0.126
-329.187	-200.000	-0.007	-0.081
-328.172	-104.671	-0.243	-0.055
-327.158	680.596	0.025	-0.064
-326.143	5.609	-0.317	0.231
-325.129	312.824	-0.083	0.153
-324.114	-20.757	-0.305	0.184
-323.099	11.762	0.161	0.122
-322.085	274.244	0.165	-0.288
-321.070	67.344	0.093	-0.094
-320.056	-136.367	0.128	0.015
-319.041	-200.000	-0.016	0.240
-318.026	-32.724	0.335	0.184
-317.012	-167.054	0.395	-0.016
-315.997	-200.000	-0.012	0.347
-314.983	707.664	-0.121	-0.315
-313.968	-200.000	0.019	-0.292
-312.953	-57.459	-0.401	-0.173
-311.939	61.600	-0.115	0.113
-310.924	-62.104	0.355	0.146
-309.910	82.828	-0.379	0.406
-308.895	-113.905	0.247	0.047
-307.880	220.420	-0.064	0.101
-306.866	-81.600	-0.173	-0.056
-305.851	-73.624	-0.114	0.041
-304.837	-200.000	-0.004	-0.153
-303.822	-200.000	-0.035	0.252
-302.807	-93.012	0.249	-0.068
-301.793	-78.552	0.080	-0.027
-300.778	-125.428	0.190	0.029
-299.764	793.907	0.091	0.246
-298.749	17.530	-0.151	-0.118
-297.735	-97.573	-0.155	0.040
-296.720	-55.126	-0.174	0.077
-295.705	-180.954	-0.106	0.002
-294.691	-89.552	0.129	0.037
-293.676	800.000	-0.048	0.162
-292.662	-200.000	-0.004	-0.063
-291.647	-123.299	-0.324	0.051
-290.632	-200.000	-0.011	-0.195
-289.618	-200.000	0.006	-0.095
-288.603	-35.817	0.133	0.071
-287.589	283.827	0.063	0.111
-286.574	-135.864	0.165	0.019
-285.559	-170.065	0.017	-0.001
-284.545	12.927	-0.278	-0.211
-283.530	-200.000	0.041	-0.341
-282.516	-141.744	0.176	0.017
-281.501	-127.659	-0.112	0.016
-280.486	75.522	0.012	-0.012
-279.472	-108.399	-0.128	-0.027
-278.457	120.044	-0.071	-0.086
-277.443	133.000	-0.056	-0.071
-276.428	682.712	-0.025	-0.064
-275.413	800.000	-0.056	-0.214
-274.399	-49.791	-0.217	0.101
-273.384	-104.504	0.265	-0.060
-272.370	-5.143	0.175	0.118
-271.355	-7.740	-0.160	0.106
-270.340	-200.000	0.008	0.254
-269.326	-200.000	0.021	-0.125
-268.311	-114.001	0.140	-0.027
-267.297	-57.618	-0.248	-0.107
-266.282	-87.939	0.422	-0.125
-265.267	27.226	-0.061	-0.050
-264.253	-72.516	-0.325	0.118
-263.238	-1.839	-0.221	0.153
-262.224	-14.209	-0.087	0.055
-261.209	800.000	0.109	-0.319
-260.195	800.000	-0.033	0.118
-259.180	-200.000	0.036	-0.341
-258.165	-159.604	0.199	-0.011
-257.151	-72.345	-0.377	0.137
-256.136	404.749	-0.164	0.340
-255.122	0.277	0.301	0.211
-254.107	135.559	-0.126	-0.161
-253.092	-35.880	0.201	-0.107
-252.078	-120.967	-0.260	0.043
-251.063	417.487	0.077	0.161
-250.049	-75.738	-0.161	-0.056
-249.034	78.258	-0.087	0.091
-248.019	-200.000	0.043	-0.331
-247.005	-25.815	-0.138	0.080
-245.990	-117.157	0.101	0.018
-244.976	-200.000	-0.001	0.114
-243.961	-52.699	0.249	0.113
-242.946	-137.127	0.014	-0.002
-241.932	474.658	0.060	-0.133
-240.917	230.739	-0.171	-0.275
-239.903	-200.000	0.044	0.300
-238.888	275.077	0.056	0.097
-237.873	-76.056	0.273	-0.095
-236.859	173.972	-0.124	-0.176
-235.844	-1.028	-0.078	0.054
-234.830	10.065	-0.268	-0.200
-233.815	-18.621	-0.243	-0.149
-232.800	-84.705	0.226	0.070
-231.786	-29.260	0.081	0.045
-230.771	62.760	-0.135	0.133
-229.757	-52.511	-0.205	-0.093
-228.742	-76.260	0.183	-0.063
-227.727	11.791	0.127	0.096
-226.713	-200.000	-0.002	0.231
-225.698	83.049	-0.124	-0.133
-224.684	130.607	-0.227	0.285
-223.669	45.020	0.034	-0.031
-222.655	180.173	-0.158	0.227
-221.640	-200.000	0.031	-0.153
-220.625	-36.283	-0.163	-0.086
-219.611	10.177	0.472	0.352
-218.596	-39.648	-0.145	-0.074
-217.582	-75.120	0.232	-0.081
-216.567	-113.385	-0.171	-0.033
-215.552	15.090	0.162	0.125
-214.538	-117.819	0.278	0.049
-213.523	-108.222	-0.267	-0.057
-212.509	-200.000	0.014	0.152
-211.494	-200.000	0.003	-0.325
-210.479	676.771	0.068	0.172
-209.465	-200.000	0.005	-0.283
-208.450	-73.614	-0.370	0.132
-207.436	-163.627	0.289	0.013
-206.421	-138.993	-0.270	0.029
-205.406	-137.747	0.063	-0.007
-204.392	-192.522	-0.242	-0.002
-203.377	-58.230	-0.186	0.079
-202.363	-194.579	0.155	0.001
-201.348	-200.000	0.017	0.076
-200.333	331.946	-0.240	-0.453
-199.319	-200.000	0.407	-0.002
-198.304	-60.494	-0.209	0.087
-197.290	-200.000	0.016	0.134
-196.275	-200.000	-0.037	0.319
-195.260	-200.000	0.030	0.233
-194.246	-200.000	-0.052	0.233
-193.231	-200.000	0.032	-0.213
-192.217	-23.252	0.215	-0.127
-191.202	4.850	-0.183	-0.132
-190.187	232.006	0.138	-0.222
-189.173	25.379	-0.083	0.068
-188.158	-42.546	0.129	-0.065
-187.144	800.000	-0.066	0.193
-186.129	-75.759	-0.127	0.044
-185.114	144.944	0.184	0.241
-184.100	-200.000	0.026	-0.225
-183.085	-200.000	-0.015	0.106
-182.071	800.000	-0.033	-0.121
-181.056	-63.186	-0.150	-0.061
-180.042	-200.000	0.020	-0.360
-179.027	414.928	-0.069	-0.145
-178.012	106.954	-0.271	0.315
-176.998	-200.000	0.017	0.097
-175.983	-200.000	-0.007	-0.215
-174.969	727.644	-0.088	-0.230
-173.954	800.000	0.142	0.422
-172.939	85.539	-0.131	0.141
-171.925	800.000	-0.090	0.274
-170.910	-200.000	0.030	0.454
-169.896	745.578	0.090	-0.237
-168.881	12.832	0.040	-0.030
-167.866	-128.620	-0.279	-0.039
-166.852	-70.825	0.437	0.161
-165.837	-52.230	0.211	0.096
-164.823	61.949	-0.021	-0.020
-163.808	726.980	-0.003	0.007
-162.793	352.882	-0.055	-0.106
-161.779	190.467	0.225	-0.330
-160.764	-200.000	0.036	0.262
-159.750	39.232	-0.295	-0.259
-158.735	-72.147	0.102	0.037
-157.720	-200.000	0.011	-0.123
-156.706	110.737	-0.311	-0.367
-155.691	-116.709	0.076	-0.014
-154.677	-94.809	-0.028	0.007
-153.662	85.000	0.096	0.103
-152.647	800.000	-0.036	0.104
-151.633	800.000	0.113	0.322
-150.618	231.454	-0.261	0.418
-149.604	-5.371	-0.244	-0.164
-148.589	51.822	-0.039	0.036
-147.574	-52.557	0.159	0.072
-146.560	800.000	0.067	-0.258
-145.545	-127.441	0.243	-0.035
-144.531	-53.903	-0.204	0.091
-143.516	7.986	0.479	0.352
-142.502	212.532	0.146	0.225
-141.487	116.815	-0.215	0.258
-140.472	14.029	0.116	0.088
-139.458	55.482	0.073	-0.069
-138.443	629.363	-0.032	0.080
-137.429	523.359	0.096	0.220
-136.414	404.458	0.081	0.166
-135.399	81.140	-0.192	-0.202
-134.385	-183.999	0.219	0.004
-133.370	763.500	-0.035	-0.094
-132.356	800.000	-0.045	0.162
-131.341	-43.840	-0.122	-0.060
-130.326	219.191	0.177	-0.277
-129.312	312.888	-0.150	0.275
-128.297	119.254	-0.174	0.211
-127.283	89.815	-0.036	0.040
-126.268	26.567	0.058	0.047
-125.253	577.593	0.169	0.405
-124.239	-17.761	-0.208	0.128
-123.224	-159.815	-0.252	0.014
-122.210	19.140	0.283	0.222
-121.195	113.946	-0.179	0.212
-120.180	2.927	-0.458	-0.325
-119.166	-46.232	0.197	0.095
-118.151	238.711	-0.069	0.112
-117.137	23.077	-0.118	-0.094
-116.122	287.181	0.111	0.195
-115.107	-85.649	0.171	0.052
-114.093	800.000	0.101	0.359
-113.078	607.442	0.226	0.550
-112.064	288.358	-0.114	-0.201
-111.049	-41.206	0.182	-0.092
-110.034	178.230	-0.230	0.328
-109.020	-111.300	0.155	0.031
-108.005	-70.697	0.372	-0.137
-106.991	310.151	0.148	0.270
-105.976	122.743	0.158	0.193
-104.962	-71.813	-0.239	0.087
-103.947	-102.937	-0.147	0.034
-102.932	129.905	0.383	-0.479
-101.918	-200.000	0.018	0.100
-100.903	0.899	0.135	-0.095
-99.889	-90.238	-0.235	-0.067
-98.874	-81.795	0.120	-0.038
-97.859	151.314	0.203	0.270
-96.845	-200.000	-0.007	-0.112
-95.830	-200.000	-0.084	-0.374
-94.816	233.815	0.004	-0.006
-93.801	-200.000	0.023	0.136
-92.786	-126.530	-0.119	0.017
-91.772	-14.620	0.270	0.170
-90.757	76.409	-0.088	0.091
-89.743	-33.031	0.185	0.100
-88.728	456.382	-0.042	0.090
-87.713	136.977	0.092	-0.117
-86.699	-100.242	0.246	0.060
-85.684	-68.366	0.287	-0.109
-84.670	-200.000	-0.006	-0.055
-83.655	-200.000	-0.076	0.339
-82.640	-40.304	0.154	-0.078
-81.626	335.375	0.028	-0.054
-80.611	12.902	-0.103	-0.078
-79.597	-28.848	-0.048	0.027
-78.582	-151.176	0.201	0.015
-77.567	-179.716	-0.093	0.002
-76.553	-128.084	0.160	0.022
-75.538	-64.513	-0.321	0.127
-74.524	274.134	0.104	0.180
-73.509	184.207	-0.147	0.212
-72.494	-106.828	0.161	-0.035
-71.480	-62.671	-0.077	-0.031
-70.465	116.245	-0.214	0.255
-69.451	800.000	0.063	0.237
-68.436	125.595	-0.156	0.193
-67.422	800.000	0.084	0.275
-66.407	-112.127	0.261	-0.051
-65.392	344.776	0.087	0.167
-64.378	164.486	-0.239	0.328
-63.363	305.833	0.019	-0.034
-62.349	-22.788	0.302	-0.178
-61.334	50.657	-1.322	-1.220
-60.319	133.031	0.608	0.765
-59.305	373.318	-0.553	-1.095
-58.290	487.354	0.666	1.481
-57.276	614.393	0.523	1.278
-56.261	-200.000	136.727	630.453
-55.246	341.810	1641.753	3128.954
-54.232	137.225	2772.579	3533.894
-53.217	82.008	2154.618	2275.506
-52.203	30.011	1590.758	1321.966
-51.188	22.389	1344.148	1070.810
-50.173	20.543	1309.478	1032.199
-49.159	47.329	1383.840	1256.213
-48.144	42.714	1392.535	1235.783
-47.130	22.512	1341.201	1069.038
-46.115	19.601	1322.016	1036.268
-45.100	19.367	1317.058	1030.945
-44.086	19.396	1314.174	1028.814
-43.071	19.269	1312.283	1026.538
-42.057	19.285	1310.312	1025.048
-41.042	19.352	1308.759	1024.193
-40.027	19.392	1306.892	1022.930
-39.013	19.356	1304.971	1021.172
-37.998	19.430	1303.475	1020.397
-36.984	19.492	1301.520	1019.196
-35.969	19.504	1300.077	1018.092
-34.954	19.452	1298.537	1016.540
-33.940	19.402	1296.826	1014.867
-32.925	19.391	1296.143	1014.225
-31.911	19.467	1294.243	1013.148
-30.896	19.529	1292.747	1012.297
-29.881	19.650	1290.784	1011.433
-28.867	19.539	1290.030	1010.150
-27.852	19.520	1288.023	1008.426
-26.838	19.517	1287.155	1007.690
-25.823	19.624	1285.444	1006.936
-24.809	19.583	1284.576	1005.979
-23.794	19.517	1283.419	1004.644
-22.779	19.478	1281.765	1003.084
-21.765	19.515	1280.886	1002.570
-20.750	19.461	1279.648	1001.248
-19.736	19.389	1278.319	999.754
-18.721	19.406	1276.908	998.707
-17.706	19.459	1275.448	997.835
-16.692	19.299	1274.678	996.266
-15.677	19.235	1273.833	995.197
-14.663	19.372	1272.207	994.680
-13.648	19.364	1271.137	993.754
-12.633	19.368	1270.132	992.954
-11.619	19.379	1269.709	992.646
-10.604	19.469	1268.658	992.302
-9.590	19.451	1267.782	991.472
-8.575	19.378	1267.108	990.490
-7.560	19.367	1265.766	989.335
-6.546	19.383	1264.898	988.712
-5.531	19.332	1264.079	987.737
-4.517	19.447	1262.638	987.235
-3.502	19.350	1262.863	986.817
-2.487	19.411	1261.372	985.960
-1.473	19.358	1256.765	982.014
-0.458	17.606	1241.837	960.447
0.556	13.186	1226.540	923.477
1.571	9.598	1234.466	909.148
2.586	8.960	1249.821	916.727
3.600	9.090	1237.052	908.017
4.615	6.986	1166.077	844.615
5.629	2.789	1098.061	774.141
6.644	0.703	1082.733	752.881
7.659	0.471	1081.312	750.673
8.673	0.576	1080.480	750.549
9.688	0.661	1079.277	750.071
10.702	0.815	1076.064	748.532
11.717	3.449	1079.108	763.642
12.731	9.510	1087.311	799.555
13.746	14.996	1094.830	832.370
14.761	17.121	1096.822	844.393
15.775	16.469	1095.551	840.097
16.790	15.530	1093.023	833.431
17.804	14.834	1091.620	828.835
18.819	14.406	1090.860	826.064
19.834	14.235	1089.863	824.389
20.848	14.145	1088.760	823.037
21.863	13.841	1087.814	820.745
22.877	13.662	1087.398	819.473
23.892	13.689	1086.406	818.785
24.907	13.610	1085.721	817.808
25.921	13.553	1085.255	817.106
26.936	13.580	1084.496	816.592
27.950	13.742	1083.347	816.452
28.965	13.684	1081.856	814.974
29.980	13.785	1080.366	814.276
30.994	13.990	1078.823	814.045
32.009	13.805	1078.403	812.747
33.023	13.824	1077.602	812.167
34.038	13.789	1076.195	810.864
35.053	13.759	1075.594	810.192
36.067	13.818	1074.522	809.602
37.082	13.824	1073.611	808.871
38.096	13.775	1073.226	808.270
39.111	13.677	1072.480	807.159
40.126	13.714	1070.749	805.967
41.140	13.752	1069.680	805.273
42.155	13.790	1068.117	804.211
43.169	13.682	1067.557	803.193
44.184	13.661	1066.662	802.348
45.199	13.714	1065.132	801.383
46.213	13.650	1064.058	800.194
47.228	13.696	1062.862	799.449
48.242	13.730	1061.913	798.825
49.257	13.692	1060.936	797.839
50.271	13.771	1060.262	797.642
51.286	13.741	1059.460	796.820
52.301	13.724	1058.481	795.933
53.315	13.852	1057.059	795.406
54.330	13.719	1056.091	793.971
55.344	13.686	1055.301	793.149
56.359	13.776	1054.311	792.765
57.374	13.704	1053.640	791.846
58.388	13.604	1052.546	790.479
59.403	13.666	1051.990	790.284
60.417	13.719	1050.763	789.547
61.432	13.541	1050.556	788.473
62.447	13.625	1049.327	787.880
63.461	13.587	1048.530	787.033
64.476	13.588	1047.466	786.167
65.490	13.552	1046.885	785.491
66.505	13.569	1046.204	784.992
67.520	13.595	1045.495	784.517
68.534	13.666	1044.459	784.002
69.549	13.597	1043.856	783.157
70.563	13.668	1042.522	782.421
71.578	13.522	1041.891	781.191
72.593	13.447	1041.553	780.512
73.607	13.531	1040.550	780.088
74.622	13.531	1039.999	779.605
75.636	13.521	1039.409	779.049
76.651	13.560	1038.332	778.357
77.666	13.585	1037.688	777.922
78.680	13.530	1037.103	777.155
79.695	13.554	1036.657	776.865
80.709	13.648	1035.657	776.486
81.724	13.632	1035.088	775.916
82.739	13.636	1034.228	775.219
83.753	13.616	1033.869	774.790
84.768	13.760	1032.583	774.432
85.782	13.804	1031.522	773.773
86.797	13.682	1030.902	772.671
87.812	13.664	1030.161	771.963
88.826	13.722	1029.030	771.316
89.841	13.804	1027.932	770.806
90.855	13.667	1027.134	769.503
91.870	13.847	1025.870	769.324
92.884	13.770	1025.914	768.932
93.899	13.782	1024.606	767.938
94.914	13.879	1023.905	767.792
95.928	13.775	1023.286	766.781
96.943	13.864	1021.963	766.134
97.957	13.977	1020.835	765.739
98.972	13.860	1020.280	764.718
99.987	13.860	1019.056	763.731
101.001	13.807	1018.818	763.242
102.016	13.886	1017.453	762.515
103.030	13.844	1017.042	761.946
104.045	13.895	1015.988	761.322
105.060	13.802	1015.337	760.343
106.074	13.757	1014.393	759.359
107.089	13.797	1013.036	758.462
108.103	13.728	1012.263	757.502
109.118	13.671	1011.683	756.736
110.133	13.762	1010.673	756.333
111.147	13.772	1009.610	755.513
112.162	13.612	1009.290	754.480
113.176	13.779	1008.221	754.373
114.191	13.856	1007.132	753.839
115.206	13.775	1007.044	753.343
116.220	13.724	1005.952	752.227
117.235	13.711	1004.643	751.124
118.249	13.755	1003.680	750.534
119.264	13.632	1003.070	749.454
120.279	13.728	1002.546	749.432
121.293	13.795	1001.663	749.006
122.308	13.638	1000.837	747.614
123.322	13.697	999.820	747.057
124.337	13.728	998.645	746.253
125.352	13.619	997.822	745.081
126.366	13.778	995.974	744.349
127.381	13.543	995.802	743.100
128.395	13.676	994.546	742.694
129.410	13.654	993.229	741.546
130.424	13.737	992.446	741.266
131.439	13.639	991.902	740.355
132.454	13.834	991.214	740.646
133.468	13.800	990.292	739.742
134.483	13.719	989.442	738.681
135.497	13.801	988.575	738.333
136.512	13.878	987.561	737.853
137.527	13.752	986.753	736.625
138.541	13.689	986.372	735.995
139.556	13.797	985.372	735.661
140.570	13.788	985.232	735.450
141.585	13.911	983.550	734.675
142.600	14.029	982.513	734.358
143.614	13.867	982.089	733.262
144.629	13.979	981.338	733.129
145.643	14.012	979.936	732.160
146.658	13.861	979.627	731.203
147.673	13.945	978.428	730.612
148.687	13.897	977.465	729.615
149.702	13.989	976.704	729.390
150.716	13.886	976.116	728.434
151.731	13.923	975.210	727.853
152.746	14.005	974.427	727.565
153.760	13.958	973.872	726.881
154.775	13.931	973.701	726.571
155.789	14.090	972.382	726.217
156.804	14.105	971.880	725.840
157.819	14.021	970.995	724.752
158.833	14.089	970.416	724.549
159.848	14.189	969.753	724.425
160.862	14.181	968.420	723.334
161.877	14.055	967.786	722.246
162.892	14.045	966.793	721.399
163.906	14.041	965.820	720.590
164.921	14.145	964.999	720.367
165.935	14.152	964.255	719.776
166.950	14.142	963.946	719.439
167.964	14.111	962.629	718.260
168.979	14.146	961.767	717.705
169.994	14.004	961.168	716.579
171.008	14.264	959.817	716.628
172.023	14.279	958.988	716.011
173.037	14.153	959.154	715.528
174.052	14.299	958.048	715.268
175.067	14.082	957.608	713.945
176.081	14.123	956.821	713.473
177.096	14.174	956.232	713.188
178.110	14.232	955.765	713.027
179.125	14.300	954.726	712.478
180.140	14.322	954.344	712.225
181.154	14.328	953.995	711.924
182.169	14.261	953.834	711.457
183.183	14.346	953.124	711.226
184.198	14.278	951.957	710.003
185.213	14.436	951.155	710.015
186.227	14.333	950.651	709.137
187.242	14.300	950.296	708.671
188.256	14.476	949.442	708.719
189.271	14.518	948.002	707.758
190.286	14.368	947.696	706.831
191.300	14.289	947.137	706.018
192.315	14.258	946.708	705.503
193.329	14.284	946.298	705.245
194.344	14.333	945.648	704.904
195.359	14.360	945.159	704.595
196.373	14.413	944.228	704.062
197.388	14.505	943.756	704.033
198.402	14.486	943.105	703.408
199.417	14.651	941.986	703.207
200.432	14.631	941.740	702.874
201.446	14.623	941.251	702.414
202.461	14.756	940.840	702.606
203.475	14.551	940.132	701.155
204.490	14.656	939.267	700.887
205.504	14.737	938.305	700.446
206.519	14.577	938.320	699.726
207.534	14.646	937.335	699.219
208.548	14.635	936.687	698.625
209.563	14.606	936.044	697.965
210.577	14.574	935.039	697.017
211.592	14.850	934.060	697.377
212.607	14.629	933.874	696.258
213.621	14.746	932.639	695.761
214.636	14.870	931.848	695.627
215.650	14.891	931.235	695.195
216.665	14.831	930.744	694.518
217.680	14.851	929.706	693.762
218.694	14.892	928.962	693.317
219.709	14.963	928.372	693.110
220.723	14.840	927.873	692.165
221.738	14.891	927.267	691.865
222.753	14.819	926.986	691.295
223.767	14.886	925.953	690.741
224.782	14.986	925.592	690.822
225.796	15.000	925.231	690.551
226.811	14.917	924.375	689.507
227.826	14.881	923.786	688.858
228.840	14.938	923.016	688.461
229.855	15.025	921.641	687.729
230.869	14.950	921.020	686.896
231.884	15.056	920.534	686.908
232.899	15.108	919.396	686.212
233.913	15.027	918.842	685.405
234.928	14.970	918.669	684.983
235.942	15.009	917.767	684.411
236.957	14.892	917.701	683.823
237.972	15.068	916.177	683.342
238.986	15.032	915.767	682.829
240.001	14.977	915.834	682.595
241.015	15.044	914.487	681.803
242.030	15.125	913.992	681.705
243.045	15.223	913.226	681.470
244.059	15.160	913.221	681.150
245.074	15.130	912.752	680.618
246.088	15.162	911.529	679.775
247.103	15.112	911.050	679.156
248.117	15.084	910.712	678.729
249.132	15.293	909.602	678.692
250.147	15.406	908.674	678.395
251.161	15.425	908.205	678.063
252.176	15.349	907.494	677.166
253.190	15.359	907.002	676.777
254.205	15.456	906.211	676.518
255.220	15.405	905.458	675.690
256.234	15.537	904.885	675.736
257.249	15.537	903.978	674.999
258.263	15.472	903.388	674.236
259.278	15.581	902.458	673.921
260.293	15.491	902.391	673.449
261.307	15.683	901.752	673.680
262.322	15.775	900.833	673.303
263.336	15.620	900.085	672.067
264.351	15.676	899.195	671.565
265.366	15.618	899.119	671.218
266.380	15.781	898.267	671.173
267.395	15.709	897.541	670.285
268.409	15.813	896.510	669.866
269.424	15.715	896.151	669.148
270.439	15.620	895.701	668.379
271.453	15.590	895.109	667.758
272.468	15.755	894.055	667.567
273.482	15.819	893.809	667.579
274.497	15.850	893.043	667.070
275.512	15.713	892.779	666.272
276.526	15.820	892.131	666.152
277.541	15.811	891.717	665.749
278.555	15.863	890.917	665.298
279.570	15.930	890.257	665.010
280.585	15.829	889.579	664.044
281.599	15.995	888.092	663.533
282.614	15.874	887.982	662.914
283.628	15.885	887.300	662.389
284.643	15.933	887.327	662.538
285.657	16.024	886.069	661.900
286.672	15.924	885.469	661.002
287.687	15.929	884.840	660.493
288.701	16.012	884.531	660.530
289.716	16.022	883.951	660.076
290.730	15.986	883.475	659.519
291.745	16.121	882.751	659.449
292.760	16.072	881.886	658.556
293.774	16.041	881.391	658.004
294.789	16.056	881.131	657.813
295.803	16.002	880.175	656.830
296.818	16.063	879.301	656.356
297.833	16.031	878.796	655.798
298.847	16.276	877.493	655.719
299.862	16.225	877.367	655.367
300.876	16.215	876.757	654.816
301.891	16.254	875.876	654.250
302.906	16.277	875.313	653.862
303.920	16.267	875.041	653.564
304.935	16.359	874.591	653.523
305.949	16.392	873.931	653.100
306.964	16.338	873.460	652.481
307.979	16.396	872.701	652.080
308.993	16.378	872.250	651.617
310.008	16.341	871.534	650.883
311.022	16.341	870.971	650.403
312.037	16.313	870.577	649.944
313.052	16.341	870.168	649.689
314.066	16.278	869.679	649.025
315.081	16.345	868.401	648.272
316.095	16.446	867.638	648.029
317.110	16.525	867.465	648.148
318.125	16.463	867.056	647.546
319.139	16.365	866.692	646.844
320.154	16.470	865.887	646.584
321.168	16.359	865.534	645.840
322.183	16.548	864.528	645.753
323.197	16.342	864.481	644.877
324.212	16.506	864.045	645.120
325.227	16.422	863.080	644.019
326.241	16.534	862.373	643.863
327.256	16.513	862.084	643.510
328.270	16.440	861.593	642.810
329.285	16.465	861.112	642.487
330.300	16.636	860.096	642.321
331.314	16.544	859.989	641.835
332.329	16.531	859.566	641.414
333.343	16.604	858.956	641.180
334.358	16.597	858.559	640.799
335.373	16.608	858.147	640.476
336.387	16.590	857.790	640.085
337.402	16.676	857.483	640.125
338.416	16.702	857.137	639.908
339.431	16.774	856.371	639.553
340.446	16.825	856.200	639.561
341.460	16.852	855.370	638.985
342.475	16.812	855.851	639.139
343.489	16.931	854.842	638.778
344.504	16.865	854.804	638.443
345.519	16.874	853.988	637.809
346.533	16.915	853.224	637.337
347.548	16.796	852.877	636.576
348.562	16.773	852.558	636.195
349.577	16.928	851.842	636.186
350.592	16.978	851.420	636.000
351.606	16.907	850.481	634.975
352.621	16.905	849.561	634.227
353.635	16.906	849.192	633.898
354.650	17.008	848.337	633.585
355.665	17.124	847.771	633.540
356.679	16.942	847.127	632.326
357.694	16.937	846.726	631.950
358.708	17.031	845.841	631.584
359.723	17.020	845.305	631.085
360.738	17.004	844.782	630.582
361.752	17.129	844.430	630.726
362.767	17.117	843.604	630.009
363.781	17.189	843.214	629.930
364.796	17.291	842.310	629.576
365.810	17.176	842.280	629.073
366.825	17.184	841.992	628.831
367.840	17.218	841.307	628.390
368.854	17.247	840.827	628.082
369.869	17.257	840.212	627.603
370.883	17.149	839.848	626.877
371.898	17.247	839.797	627.147
372.913	17.258	839.389	626.827
373.927	17.358	838.668	626.600
374.942	17.329	837.979	625.924
375.956	17.331	837.943	625.849
376.971	17.423	837.505	625.804
377.986	17.526	836.686	625.515
379.000	17.510	836.110	624.970
380.015	17.546	835.530	624.614
381.029	17.451	835.098	623.889
382.044	17.577	834.700	623.998
383.059	17.587	834.107	623.536
384.073	17.444	833.559	622.548
385.088	17.578	832.445	622.150
386.102	17.527	832.003	621.579
387.117	17.464	831.812	621.149
388.132	17.525	831.634	621.186
389.146	17.581	830.748	620.674
390.161	17.586	830.217	620.239
391.175	17.664	829.858	620.198
392.190	17.687	829.122	619.679
393.205	17.516	828.784	618.751
394.219	17.577	828.756	618.896
395.234	17.572	827.950	618.221
396.248	17.639	827.343	617.956
397.263	17.683	826.910	617.737
398.278	17.716	826.350	617.384
399.292	17.577	826.465	616.911
400.307	17.664	825.894	616.745
401.321	17.625	825.131	615.980
402.336	17.733	824.741	616.024
403.350	17.895	824.103	616.077
404.365	17.870	823.673	615.611
405.380	17.777	823.474	615.075
406.394	17.799	822.783	614.582
407.409	17.782	822.489	614.249
408.423	17.752	822.293	613.938
409.438	17.960	821.596	614.112
410.453	17.930	820.941	613.461
411.467	17.908	820.479	612.983
412.482	17.871	820.403	612.739
413.496	18.069	819.759	612.912
414.511	18.140	819.648	613.029
415.526	18.031	819.162	612.223
416.540	18.178	818.520	612.214
417.555	18.138	818.004	611.632
418.569	18.125	817.795	611.374
419.584	18.079	817.267	610.761
420.599	18.120	816.914	610.590
421.613	115.503	1301.661	1490.807
422.628	100.105	1372.229	1490.861
