DTS Sentinel unit serial number:	SN413079Multiplexer serial number:	ORYXHardware model number:	OX4-SRSoftware version number:	ORYX F/W v4.00 Oryx Data Collector v3.7.2.0data status	okinstallation	princeton_trtdifferential loss correction	single-endedforward channel	channel 1reverse channel	N/Adate	2019/09/17time	09:26:35forward acquisition time	60.00reverse acquisition time	0.00gamma	496.2192k internal	0.2325k external	0.2325temperature offset calibration	0.9957default loss term (dB/km)	0.3790temperature slope calibration	1.0000multiplexer offset coefficient	1.0000multiplexer slope coefficient	1.0000fibre end	0.00T internal ref (°C)	28.87T ext. ref 1 (°C)	0.14T ext. ref 2 (°C)	25.60length (m)	temperature (°C)	Stokes	anti-Stokes-747.200	208.479	-0.227	0.358
-746.185	-180.413	-0.159	-0.003
-745.171	-200.000	-0.002	-0.331
-744.156	-187.572	0.005	0.000
-743.142	-200.000	0.050	0.250
-742.127	-200.000	-0.075	0.345
-741.112	-200.000	-0.019	0.113
-740.098	168.266	-0.193	0.278
-739.083	-91.616	-0.092	0.026
-738.069	211.383	0.046	0.073
-737.054	229.348	0.206	0.340
-736.039	-15.150	-0.437	0.282
-735.025	800.000	-0.004	-0.014
-734.010	-48.068	0.160	-0.078
-732.996	-200.000	0.079	-0.425
-731.981	-179.393	-0.083	-0.002
-730.966	-40.197	-0.139	0.073
-729.952	130.922	0.093	-0.121
-728.937	-172.737	-0.177	0.006
-727.923	157.104	-0.086	-0.121
-726.908	74.965	-0.034	-0.036
-725.894	433.022	-0.018	-0.039
-724.879	800.000	-0.050	-0.147
-723.864	187.076	0.153	0.231
-722.850	-56.000	-0.081	-0.037
-721.835	-53.485	0.187	0.086
-720.821	-57.593	-0.172	-0.076
-719.806	89.159	-0.440	-0.494
-718.791	-149.512	-0.159	-0.013
-717.777	-200.000	-0.008	-0.237
-716.762	-200.000	0.022	-0.255
-715.748	-50.085	-0.267	-0.128
-714.733	800.000	-0.053	0.225
-713.718	-46.678	0.143	-0.070
-712.704	-50.982	0.345	0.163
-711.689	23.118	-0.136	-0.113
-710.675	-200.000	0.011	-0.246
-709.660	173.639	0.279	0.405
-708.645	129.758	-0.431	0.555
-707.631	-200.000	0.023	0.284
-706.616	-139.726	0.242	-0.026
-705.602	-200.000	0.031	0.139
-704.587	-200.000	0.010	0.211
-703.572	-2.873	-0.268	-0.189
-702.558	-9.480	0.216	0.145
-701.543	-173.036	-0.199	0.006
-700.529	-200.000	0.008	-0.335
-699.514	-200.000	-0.002	0.021
-698.499	590.217	-0.110	0.272
-697.485	-8.973	-0.473	0.319
-696.470	800.000	0.023	-0.088
-695.456	-102.907	-0.006	0.001
-694.441	800.000	0.011	-0.042
-693.426	277.041	-0.123	-0.220
-692.412	-116.950	0.251	-0.046
-691.397	-77.326	-0.191	-0.067
-690.383	-21.268	0.163	-0.100
-689.368	-50.830	-0.120	0.057
-688.354	-200.000	0.014	0.081
-687.339	67.537	-0.051	0.052
-686.324	-117.325	0.367	-0.067
-685.310	-83.704	-0.263	-0.084
-684.295	800.000	-0.088	-0.262
-683.281	-200.000	-0.031	0.194
-682.266	217.594	0.141	0.227
-681.251	-48.476	-0.248	0.120
-680.237	-200.000	-0.069	0.422
-679.222	270.682	-0.087	0.154
-678.208	255.265	-0.073	-0.125
-677.193	-14.303	-0.093	0.060
-676.178	-104.483	-0.177	-0.041
-675.164	800.000	-0.096	-0.424
-674.149	-200.000	0.028	-0.239
-673.135	-116.441	0.252	0.047
-672.120	-53.542	-0.153	0.071
-671.105	-51.960	0.256	-0.120
-670.091	-23.213	0.053	-0.032
-669.076	-76.116	-0.271	0.096
-668.062	-120.822	-0.253	-0.043
-667.047	-33.028	-0.322	-0.180
-666.032	110.371	0.224	0.271
-665.018	800.000	-0.059	-0.190
-664.003	800.000	-0.042	0.143
-662.989	48.921	0.151	-0.142
-661.974	-112.710	-0.071	-0.014
-660.959	41.243	-0.212	-0.193
-659.945	800.000	0.093	0.320
-658.930	-85.815	-0.109	-0.034
-657.916	46.469	-0.092	0.086
-656.901	-200.000	-0.002	-0.108
-655.886	-200.000	0.012	-0.123
-654.872	207.152	-0.076	0.119
-653.857	-53.824	0.202	0.093
-652.843	592.182	-0.041	0.103
-651.828	-200.000	-0.024	0.135
-650.814	431.764	0.028	0.061
-649.799	-160.399	0.196	-0.011
-648.784	-29.116	-0.081	-0.046
-647.770	260.318	-0.147	-0.256
-646.755	326.474	0.073	-0.140
-645.741	-200.000	0.014	-0.182
-644.726	-149.385	-0.062	0.005
-643.711	17.851	0.072	-0.058
-642.697	80.751	0.148	0.161
-641.682	213.374	0.071	0.112
-640.668	2.871	-0.290	-0.211
-639.653	-84.820	0.045	0.014
-638.638	477.907	-0.084	-0.191
-637.624	-104.321	0.157	-0.037
-636.609	-200.000	-0.052	0.250
-635.595	93.403	-0.082	-0.093
-634.580	-148.918	-0.327	0.027
-633.565	-200.000	0.009	0.057
-632.551	-100.278	0.128	0.032
-631.536	-156.312	0.091	0.006
-630.522	260.451	0.259	-0.449
-629.507	473.363	0.019	-0.043
-628.492	196.445	-0.182	-0.278
-627.478	429.543	0.152	-0.330
-626.463	4.022	-0.074	0.054
-625.449	-55.140	-0.243	-0.110
-624.434	-200.000	-0.010	-0.128
-623.419	800.000	0.021	0.076
-622.405	800.000	-0.041	0.157
-621.390	800.000	0.042	0.158
-620.376	148.341	0.123	-0.166
-619.361	800.000	0.060	-0.257
-618.346	60.922	0.057	0.057
-617.332	336.989	0.045	0.088
-616.317	33.697	-0.276	-0.241
-615.303	137.863	0.125	0.164
-614.288	-200.000	0.297	0.001
-613.273	698.340	-0.135	0.355
-612.259	-200.000	-0.009	-0.149
-611.244	800.000	0.031	0.108
-610.230	-143.162	-0.437	-0.042
-609.215	-200.000	0.033	0.150
-608.201	389.318	-0.101	0.209
-607.186	-200.000	0.005	0.306
-606.171	49.447	-0.175	-0.165
-605.157	232.438	-0.177	0.291
-604.142	800.000	-0.077	-0.317
-603.128	-173.356	-0.222	-0.007
-602.113	800.000	0.023	0.084
-601.098	661.015	-0.043	0.112
-600.084	99.462	0.029	0.034
-599.069	-17.355	-0.153	0.097
-598.055	-32.711	-0.123	0.069
-597.040	734.277	0.050	-0.135
-596.025	30.837	-0.067	-0.058
-595.011	4.190	-0.325	0.239
-593.996	165.244	-0.105	0.148
-592.982	-54.167	0.300	-0.137
-591.967	19.443	0.218	-0.176
-590.952	-107.152	0.307	-0.068
-589.938	554.099	0.131	-0.317
-588.923	-200.000	-0.046	-0.234
-587.909	580.996	0.098	-0.240
-586.894	-117.160	-0.136	0.025
-585.879	471.187	0.062	0.139
-584.865	-200.000	-0.028	-0.180
-583.850	590.587	0.123	0.305
-582.836	30.643	-0.147	-0.126
-581.821	-39.729	0.263	-0.138
-580.806	-99.341	-0.094	0.024
-579.792	-200.000	0.014	-0.068
-578.777	-200.000	-0.014	-0.241
-577.763	9.728	0.249	-0.189
-576.748	-3.083	0.305	-0.213
-575.733	77.412	0.019	0.020
-574.719	463.307	-0.070	-0.156
-573.704	-193.118	0.193	0.002
-572.690	159.309	0.049	-0.068
-571.675	230.585	-0.100	0.163
-570.661	-200.000	-0.015	-0.196
-569.646	44.138	0.196	0.180
-568.631	28.167	0.123	0.104
-567.617	-178.898	-0.056	0.001
-566.602	103.641	-0.077	0.091
-565.588	241.774	-0.103	0.172
-564.573	189.483	0.218	0.328
-563.558	-81.796	-0.160	0.052
-562.544	64.086	-0.121	0.122
-561.529	-200.000	-0.041	0.208
-560.515	-10.427	0.244	-0.162
-559.500	-145.438	-0.339	-0.031
-558.485	37.689	0.148	-0.132
-557.471	-140.210	0.087	-0.009
-556.456	201.008	-0.026	0.041
-555.442	447.526	0.146	-0.323
-554.427	-54.980	0.438	-0.198
-553.412	-49.803	-0.165	0.079
-552.398	-99.190	-0.145	-0.037
-551.383	-111.519	0.046	0.009
-550.369	390.063	-0.045	-0.093
-549.354	518.502	-0.103	-0.242
-548.339	20.453	0.316	0.256
-547.325	-200.000	-0.040	-0.294
-546.310	-144.583	0.293	-0.027
-545.296	187.859	0.077	0.116
-544.281	800.000	-0.082	0.265
-543.266	36.381	0.209	0.184
-542.252	-200.000	0.026	-0.172
-541.237	-78.404	-0.234	-0.080
-540.223	23.442	0.302	0.248
-539.208	-200.000	0.056	-0.398
-538.193	315.006	0.196	-0.370
-537.179	-34.734	0.277	0.152
-536.164	-8.642	-0.206	0.138
-535.150	203.073	-0.105	-0.162
-534.135	-41.583	0.108	-0.056
-533.121	-200.000	-0.000	0.036
-532.106	739.261	0.032	0.085
-531.091	49.538	-0.075	0.071
-530.077	-175.059	-0.194	-0.005
-529.062	-200.000	-0.049	-0.243
-528.048	-61.995	0.211	0.088
-527.033	594.106	0.046	0.113
-526.018	66.449	-0.135	-0.137
-525.004	-103.793	0.167	0.039
-523.989	-16.485	0.102	-0.065
-522.975	161.133	0.080	-0.112
-521.960	800.000	0.025	-0.106
-520.945	-92.550	-0.265	-0.074
-519.931	-35.533	-0.204	0.111
-518.916	18.861	-0.292	0.234
-517.902	296.482	-0.130	0.239
-516.887	800.000	-0.035	-0.099
-515.872	-58.125	-0.123	0.054
-514.858	75.700	0.070	0.074
-513.843	-200.000	-0.002	0.213
-512.829	3.458	0.229	0.167
-511.814	139.435	0.144	0.190
-510.799	-59.512	0.321	-0.138
-509.785	-145.885	-0.368	0.033
-508.770	159.185	-0.101	-0.140
-507.756	-95.367	-0.092	0.025
-506.741	112.200	-0.079	-0.095
-505.726	248.669	0.175	0.296
-504.712	-68.066	-0.206	0.080
-503.697	541.175	-0.051	-0.121
-502.683	-200.000	0.011	-0.286
-501.668	21.721	-0.163	-0.133
-500.653	50.698	0.319	-0.302
-499.639	-200.000	-0.037	0.199
-498.624	39.275	-0.016	0.014
-497.610	-200.000	0.033	-0.233
-496.595	594.665	-0.055	-0.135
-495.581	-58.485	-0.185	-0.080
-494.566	800.000	-0.098	0.333
-493.551	22.818	0.230	0.188
-492.537	-200.000	0.066	-0.460
-491.522	341.150	0.112	-0.218
-490.508	12.807	0.114	-0.088
-489.493	543.599	0.062	-0.147
-488.478	-5.892	0.220	0.151
-487.464	-176.941	-0.363	0.009
-486.449	19.761	-0.242	0.195
-485.435	225.694	-0.115	-0.186
-484.420	-106.157	-0.329	0.074
-483.405	518.811	-0.119	-0.279
-482.391	415.896	-0.136	-0.289
-481.376	-129.218	-0.114	-0.016
-480.362	70.567	-0.070	-0.072
-479.347	-200.000	-0.062	-0.324
-478.332	-74.092	-0.077	-0.028
-477.318	79.803	-0.073	0.078
-476.303	-181.382	0.208	-0.004
-475.289	209.951	-0.194	-0.304
-474.274	605.533	0.064	0.159
-473.259	800.000	0.041	-0.165
-472.245	457.936	-0.059	0.131
-471.230	-200.000	0.025	0.151
-470.216	376.355	0.034	0.068
-469.201	-200.000	-0.000	-0.161
-468.186	-152.904	-0.232	-0.016
-467.172	-70.225	0.249	-0.094
-466.157	174.538	0.086	0.124
-465.143	-170.872	0.267	-0.009
-464.128	-73.206	-0.234	-0.086
-463.113	29.831	-0.094	-0.080
-462.099	-200.000	-0.021	0.317
-461.084	-130.316	-0.246	-0.033
-460.070	800.000	-0.068	0.238
-459.055	222.781	-0.082	0.132
-458.040	-2.495	0.151	-0.105
-457.026	7.472	-0.129	0.096
-456.011	189.127	-0.167	0.250
-454.997	-85.676	0.081	-0.025
-453.982	-151.076	-0.363	-0.027
-452.968	430.247	-0.015	-0.032
-451.953	638.707	-0.161	-0.409
-450.938	335.875	0.042	-0.081
-449.924	223.810	0.313	0.504
-448.909	-59.639	0.262	0.112
-447.895	-199.316	0.153	-0.001
-446.880	-10.919	-0.133	0.088
-445.865	-96.157	0.234	0.062
-444.851	439.173	0.145	-0.315
-443.836	104.832	-0.228	0.268
-442.822	567.801	0.104	0.251
-441.807	24.910	-0.099	0.082
-440.792	-13.347	-0.254	-0.164
-439.778	-16.592	0.275	0.174
-438.763	437.279	-0.146	0.316
-437.749	-59.760	0.323	0.138
-436.734	-24.327	-0.123	-0.073
-435.719	174.365	0.075	-0.108
-434.705	-84.732	0.197	0.062
-433.690	-63.972	0.339	-0.138
-432.676	-190.093	-0.393	-0.004
-431.661	-92.158	0.178	-0.050
-430.646	800.000	0.042	-0.131
-429.632	-173.211	-0.427	0.013
-428.617	-55.255	0.191	-0.085
-427.603	-94.744	0.049	0.013
-426.588	224.452	-0.288	-0.464
-425.573	-36.976	-0.048	0.026
-424.559	-179.768	0.065	-0.001
-423.544	-24.410	-0.197	-0.117
-422.530	179.650	-0.132	0.192
-421.515	159.107	0.121	0.168
-420.500	161.925	0.153	-0.214
-419.486	-150.057	-0.056	-0.004
-418.471	-47.016	-0.188	-0.091
-417.457	-92.217	-0.420	-0.118
-416.442	-200.000	0.056	0.305
-415.428	203.728	0.185	0.285
-414.413	135.871	0.093	0.120
-413.398	586.362	-0.056	-0.138
-412.384	123.668	-0.029	-0.036
-411.369	-168.772	0.223	-0.008
-410.355	6.792	-0.293	0.217
-409.340	-200.000	-0.014	-0.231
-408.325	800.000	0.137	0.565
-407.311	269.608	0.051	-0.089
-406.296	-9.471	-0.071	-0.047
-405.282	-34.373	0.110	0.060
-404.267	55.619	-0.124	-0.120
-403.252	22.851	0.217	0.177
-402.238	43.285	0.119	-0.108
-401.223	225.101	-0.154	-0.248
-400.209	-54.257	-0.104	0.047
-399.194	-200.000	0.019	-0.485
-398.179	-200.000	-0.001	-0.150
-397.165	-167.915	0.279	-0.011
-396.150	-71.643	-0.099	0.037
-395.136	-200.000	-0.008	0.221
-394.121	10.696	0.163	-0.123
-393.106	149.732	-0.128	0.172
-392.092	42.002	0.132	0.119
-391.077	-200.000	0.046	0.353
-390.063	-54.924	-0.272	0.122
-389.048	42.259	0.237	-0.214
-388.033	-160.005	0.305	-0.017
-387.019	13.872	0.097	0.075
-386.004	87.324	0.197	-0.217
-384.990	50.448	-0.107	-0.100
-383.975	-200.000	-0.019	0.136
-382.960	281.800	0.106	-0.190
-381.946	-117.375	-0.130	-0.023
-380.931	85.364	0.193	0.211
-379.917	-42.601	-0.171	0.087
-378.902	-28.232	0.142	0.082
-377.888	202.302	-0.050	-0.076
-376.873	175.292	0.156	-0.224
-375.858	107.830	-0.132	0.157
-374.844	-157.940	-0.189	0.011
-373.829	-127.512	-0.181	0.026
-372.815	-163.054	0.100	-0.005
-371.800	-123.972	0.306	-0.048
-370.785	15.469	0.110	-0.085
-369.771	-108.326	-0.054	0.012
-368.756	-119.081	-0.284	0.049
-367.742	800.000	-0.024	0.086
-366.727	428.557	0.150	0.323
-365.712	-23.143	-0.155	0.093
-364.698	-158.150	0.272	0.016
-363.683	-137.967	-0.360	0.040
-362.669	-133.504	0.213	0.027
-361.654	-74.862	0.198	0.071
-360.639	734.823	-0.095	0.252
-359.625	-136.796	0.197	0.023
-358.610	-200.000	-0.061	0.339
-357.596	-200.000	-0.012	-0.192
-356.581	-40.869	-0.214	-0.110
-355.566	194.069	0.091	0.137
-354.552	-200.000	0.032	0.162
-353.537	-103.193	-0.262	-0.062
-352.523	-200.000	0.036	0.401
-351.508	273.669	0.116	0.204
-350.493	233.361	-0.055	0.091
-349.479	48.382	0.137	-0.128
-348.464	-200.000	-0.037	-0.522
-347.450	-200.000	0.048	0.215
-346.435	-170.625	-0.063	0.002
-345.420	-3.362	0.023	-0.016
-344.406	-146.825	-0.183	-0.016
-343.391	-200.000	0.010	0.131
-342.377	-98.452	0.260	0.066
-341.362	-200.000	0.040	0.185
-340.348	800.000	-0.071	0.213
-339.333	800.000	-0.071	-0.268
-338.318	-125.640	0.353	0.053
-337.304	-66.076	0.340	0.135
-336.289	-0.327	0.253	-0.179
-335.275	-200.000	0.027	0.356
-334.260	654.182	-0.072	0.184
-333.245	345.961	-0.080	-0.156
-332.231	-85.441	-0.259	0.080
-331.216	-76.721	-0.043	0.015
-330.202	-57.616	-0.298	0.129
-329.187	-77.841	-0.329	-0.113
-328.172	486.521	0.156	0.354
-327.158	268.198	-0.040	-0.069
-326.143	133.832	-0.019	0.024
-325.129	-123.983	0.296	0.046
-324.114	800.000	0.041	-0.147
-323.099	-14.829	0.151	-0.096
-322.085	263.606	0.109	-0.188
-321.070	226.362	0.076	-0.123
-320.056	-71.726	-0.044	-0.016
-319.041	214.611	0.034	0.053
-318.026	793.242	-0.049	0.134
-317.012	800.000	0.058	-0.213
-315.997	800.000	0.024	-0.073
-314.983	103.825	0.078	0.091
-313.968	-117.479	-0.195	0.035
-312.953	-87.023	0.188	0.057
-311.939	-200.000	-0.018	-0.198
-310.924	-42.833	0.147	-0.074
-309.910	800.000	0.127	-0.484
-308.895	-137.979	0.237	-0.026
-307.880	-200.000	0.026	-0.208
-306.866	187.001	0.084	-0.125
-305.851	51.933	-0.183	0.173
-304.837	-6.950	-0.227	0.153
-303.822	11.860	-0.053	-0.040
-302.807	-107.580	0.139	-0.030
-301.793	16.396	0.159	0.125
-300.778	-26.042	-0.079	-0.046
-299.764	-57.722	-0.288	-0.125
-298.749	-46.292	-0.181	-0.088
-297.735	-200.000	0.000	-0.146
-296.720	-200.000	0.032	0.231
-295.705	87.407	-0.241	0.265
-294.691	521.626	0.037	0.087
-293.676	-34.008	0.096	-0.053
-292.662	33.124	-0.155	-0.133
-291.647	-23.615	-0.119	-0.070
-290.632	45.080	-0.185	-0.169
-289.618	-68.195	0.099	0.038
-288.603	-157.011	-0.185	-0.011
-287.589	-157.800	-0.524	0.031
-286.574	-200.000	0.004	0.117
-285.559	-156.869	-0.165	-0.010
-284.545	344.689	-0.040	0.077
-283.530	172.670	0.159	0.227
-282.516	800.000	-0.096	0.273
-281.501	232.782	0.040	-0.065
-280.486	9.785	0.075	-0.056
-279.472	511.532	-0.030	-0.070
-278.457	101.875	0.164	0.189
-277.443	317.853	0.117	0.219
-276.428	51.436	0.286	-0.269
-275.413	-54.860	0.089	-0.040
-274.399	800.000	-0.099	0.290
-273.384	-66.778	0.226	-0.088
-272.370	-70.847	-0.155	0.058
-271.355	-147.024	-0.181	0.015
-270.340	553.886	0.036	0.085
-269.326	-86.273	0.267	-0.081
-268.311	-147.344	0.164	0.014
-267.297	12.239	0.204	0.155
-266.282	250.901	0.112	0.188
-265.267	-164.750	0.212	0.009
-264.253	-128.129	0.086	0.012
-263.238	800.000	0.026	0.083
-262.224	196.296	0.220	-0.331
-261.209	133.360	0.061	0.078
-260.195	-158.769	0.373	-0.021
-259.180	-38.716	-0.275	0.144
-258.165	164.976	0.085	0.119
-257.151	800.000	0.089	0.303
-256.136	412.267	-0.054	-0.113
-255.122	367.641	-0.116	-0.232
-254.107	-130.506	-0.171	-0.023
-253.092	-129.966	0.235	-0.032
-252.078	76.886	-0.051	0.054
-251.063	66.905	-0.068	0.069
-250.049	3.721	0.045	0.032
-249.034	-200.000	0.030	-0.262
-248.019	3.867	-0.221	-0.160
-247.005	176.605	0.088	0.127
-245.990	-164.959	-0.328	0.014
-244.976	446.924	-0.101	-0.221
-243.961	229.348	0.122	0.197
-242.946	-34.098	0.056	-0.030
-241.932	210.635	-0.076	-0.118
-240.917	498.339	0.023	0.053
-239.903	147.368	-0.068	0.091
-238.888	-78.825	0.383	-0.129
-237.873	-54.287	-0.094	-0.042
-236.859	-18.901	0.074	-0.046
-235.844	-200.000	-0.038	-0.425
-234.830	-200.000	0.034	-0.205
-233.815	-200.000	-0.005	-0.287
-232.800	-200.000	-0.013	0.080
-231.786	24.521	-0.161	-0.132
-230.771	-200.000	0.027	0.258
-229.757	-81.075	0.347	0.114
-228.742	-200.000	0.002	0.078
-227.727	-75.967	-0.209	0.073
-226.713	220.185	-0.045	-0.071
-225.698	238.454	-0.066	0.108
-224.684	800.000	0.078	0.272
-223.669	-84.509	-0.163	-0.051
-222.655	-16.928	-0.219	-0.137
-221.640	-123.091	-0.163	-0.026
-220.625	800.000	-0.082	-0.274
-219.611	61.307	-0.131	0.129
-218.596	-200.000	-0.011	0.144
-217.582	122.091	0.072	0.088
-216.567	-151.839	0.311	-0.022
-215.552	-26.504	-0.158	0.091
-214.538	-71.721	-0.371	0.137
-213.523	28.544	0.106	-0.089
-212.509	66.901	0.223	0.224
-211.494	-35.523	-0.168	-0.090
-210.479	-85.702	-0.290	-0.089
-209.465	-200.000	0.001	-0.072
-208.450	-90.417	0.135	0.039
-207.436	-200.000	0.025	-0.115
-206.421	192.622	0.165	-0.246
-205.406	120.785	0.140	-0.172
-204.392	-132.851	-0.199	0.025
-203.377	-57.488	0.164	0.071
-202.363	187.529	-0.178	-0.262
-201.348	800.000	-0.181	-0.650
-200.333	79.822	-0.092	0.097
-199.319	48.843	0.110	0.102
-198.304	-200.000	0.053	0.435
-197.290	237.700	0.164	-0.268
-196.275	-157.293	0.170	-0.010
-195.260	95.271	0.229	0.257
-194.246	-200.000	0.025	0.110
-193.231	107.782	0.184	0.216
-192.217	800.000	-0.023	-0.067
-191.202	54.358	0.213	-0.202
-190.187	302.825	-0.142	0.259
-189.173	800.000	-0.033	-0.120
-188.158	-26.540	-0.163	-0.094
-187.144	-98.866	-0.139	-0.035
-186.129	-125.171	0.242	0.037
-185.114	58.879	-0.361	-0.350
-184.100	-105.616	-0.146	0.033
-183.085	-200.000	-0.046	0.358
-182.071	800.000	-0.028	0.118
-181.056	-85.080	0.266	0.082
-180.042	-200.000	-0.040	0.296
-179.027	-200.000	0.049	0.303
-178.012	158.764	-0.169	-0.232
-176.998	-79.400	-0.142	0.047
-175.983	37.038	0.194	-0.169
-174.969	-200.000	-0.081	0.384
-173.954	92.367	0.231	0.257
-172.939	215.122	0.093	0.145
-171.925	463.205	-0.085	0.188
-170.910	163.374	-0.054	0.074
-169.896	-150.917	-0.330	-0.025
-168.881	5.847	0.089	-0.065
-167.866	-117.757	-0.210	-0.037
-166.852	-174.865	-0.196	0.005
-165.837	-121.735	0.252	-0.041
-164.823	282.206	0.061	0.108
-163.808	-186.979	0.115	0.002
-162.793	800.000	0.102	0.281
-161.779	-200.000	-0.005	0.115
-160.764	-42.961	0.203	0.102
-159.750	-200.000	0.006	-0.085
-158.735	-114.906	-0.264	0.050
-157.720	800.000	-0.037	-0.135
-156.706	800.000	0.099	-0.274
-155.691	-76.679	-0.275	-0.095
-154.677	-50.590	-0.202	0.094
-153.662	-82.910	-0.169	-0.054
-152.647	-138.275	-0.125	-0.014
-151.633	-103.111	0.094	-0.022
-150.618	-137.938	0.252	-0.028
-149.604	-45.085	0.132	-0.065
-148.589	-200.000	-0.028	0.127
-147.574	254.626	0.017	-0.029
-146.560	-17.733	-0.087	-0.054
-145.545	-200.000	-0.010	0.067
-144.531	-123.907	0.126	-0.020
-143.516	-200.000	0.047	0.334
-142.502	-121.237	0.155	0.025
-141.487	438.082	0.020	0.044
-140.472	-124.183	-0.340	-0.053
-139.458	-200.000	-0.002	0.210
-138.443	424.409	-0.134	-0.284
-137.429	-136.564	0.103	-0.012
-136.414	93.955	0.108	-0.121
-135.399	17.212	0.011	-0.009
-134.385	-93.159	-0.232	-0.064
-133.370	97.349	0.233	0.263
-132.356	800.000	0.085	-0.256
-131.341	638.488	-0.069	-0.172
-130.326	253.396	0.125	0.211
-129.312	543.585	0.059	-0.140
-128.297	44.373	-0.093	0.084
-127.283	52.693	0.231	0.217
-126.268	253.425	-0.063	-0.107
-125.253	-106.461	0.204	-0.045
-124.239	61.502	-0.078	-0.077
-123.224	-162.824	-0.246	0.012
-122.210	800.000	-0.073	-0.221
-121.195	90.308	0.143	0.157
-120.180	40.526	-0.149	-0.133
-119.166	-48.203	0.192	0.091
-118.151	800.000	0.071	0.214
-117.137	-181.117	-0.269	0.005
-116.122	146.334	-0.150	-0.199
-115.107	33.357	0.304	-0.260
-114.093	-200.000	-0.048	-0.325
-113.078	-156.029	0.351	-0.022
-112.064	-200.000	-0.122	0.650
-111.049	-28.150	0.171	-0.097
-110.034	-92.444	-0.242	-0.067
-109.020	2.480	0.156	-0.111
-108.005	-70.865	0.281	0.104
-106.991	-115.483	-0.167	-0.031
-105.976	-200.000	0.034	-0.164
-104.962	57.931	-0.184	-0.177
-103.947	-66.302	0.206	-0.081
-102.932	408.957	0.060	0.125
-101.918	-31.599	0.089	0.049
-100.903	-200.000	0.020	0.098
-99.889	-159.535	0.444	-0.024
-98.874	800.000	-0.081	0.259
-97.859	-200.000	0.024	-0.258
-96.845	800.000	-0.118	0.364
-95.830	-200.000	0.034	0.409
-94.816	-4.367	-0.245	-0.166
-93.801	-110.114	0.083	-0.017
-92.786	-133.091	0.091	0.011
-91.772	16.421	0.016	-0.012
-90.757	309.605	0.051	-0.095
-89.743	-77.361	0.438	-0.150
-88.728	-68.736	-0.107	0.041
-87.713	-79.616	0.161	0.053
-86.699	800.000	-0.047	0.201
-85.684	24.064	0.072	0.058
-84.670	138.737	0.134	-0.173
-83.655	101.861	-0.199	0.229
-82.640	-11.789	0.496	0.320
-81.626	13.932	0.222	0.170
-80.611	-69.448	-0.241	0.091
-79.597	563.349	-0.153	0.364
-78.582	800.000	0.126	-0.359
-77.567	800.000	0.058	-0.215
-76.553	524.149	-0.071	-0.164
-75.538	-66.604	0.150	-0.058
-74.524	-133.485	-0.073	0.009
-73.509	75.743	-0.216	-0.225
-72.494	240.566	0.034	-0.056
-71.480	67.763	0.085	-0.086
-70.465	-103.684	0.345	-0.079
-69.451	-200.000	-0.007	0.041
-68.436	-200.000	-0.069	0.362
-67.422	174.988	0.022	0.032
-66.407	-89.269	-0.301	-0.087
-65.392	-200.000	-0.026	0.111
-64.378	-55.522	-0.205	-0.090
-63.363	-171.513	0.135	0.004
-62.349	-118.671	-0.168	0.029
-61.334	25.266	-0.973	-0.794
-60.319	553.571	0.178	0.421
-59.305	800.000	-0.367	-1.295
-58.290	522.564	0.418	0.964
-57.276	800.000	0.512	1.523
-56.261	-200.000	107.054	575.131
-55.246	430.118	1490.403	3167.288
-54.232	144.829	2680.860	3519.546
-53.217	103.709	2170.263	2502.939
-52.203	40.080	1613.366	1423.935
-51.188	32.237	1352.496	1146.054
-50.173	29.247	1311.718	1093.746
-49.159	52.737	1365.804	1281.781
-48.144	52.897	1381.187	1297.139
-47.130	32.475	1336.531	1133.780
-46.115	29.117	1318.596	1098.527
-45.100	28.879	1313.982	1093.227
-44.086	28.824	1311.342	1090.662
-43.071	28.738	1309.431	1088.519
-42.057	28.655	1307.171	1086.102
-41.042	28.744	1305.279	1085.014
-40.027	28.768	1303.726	1083.824
-39.013	28.816	1301.692	1082.371
-37.998	28.878	1299.272	1080.680
-36.984	28.938	1297.607	1079.607
-35.969	29.005	1295.584	1078.271
-34.954	28.911	1294.851	1077.068
-33.940	28.935	1292.968	1075.602
-32.925	28.950	1291.929	1074.783
-31.911	28.991	1290.498	1073.785
-30.896	29.018	1289.201	1072.820
-29.881	29.051	1287.818	1071.820
-28.867	28.974	1286.390	1070.141
-27.852	28.993	1284.504	1068.639
-26.838	28.972	1282.897	1067.140
-25.823	28.968	1282.202	1066.497
-24.809	28.914	1280.805	1064.979
-23.794	28.923	1279.443	1063.856
-22.779	28.902	1277.683	1062.228
-21.765	29.025	1276.679	1062.062
-20.750	28.899	1275.489	1060.301
-19.736	28.765	1274.471	1058.645
-18.721	28.755	1273.136	1057.432
-17.706	28.777	1272.071	1056.634
-16.692	28.773	1270.758	1055.476
-15.677	28.808	1269.509	1054.604
-14.663	28.882	1268.763	1054.364
-13.648	28.963	1266.680	1053.053
-12.633	28.794	1266.418	1051.827
-11.619	28.775	1265.718	1051.094
-10.604	28.813	1265.089	1050.752
-9.590	28.782	1264.354	1049.920
-8.575	28.732	1263.048	1048.511
-7.560	28.754	1262.105	1047.811
-6.546	28.720	1261.371	1046.965
-5.531	28.823	1260.495	1046.781
-4.517	28.874	1259.302	1046.038
-3.502	28.877	1258.593	1045.426
-2.487	28.914	1257.668	1044.830
-1.473	28.790	1253.908	1040.959
-0.458	27.646	1238.849	1022.010
0.556	22.856	1222.724	987.891
1.571	19.391	1230.260	974.348
2.586	18.730	1245.294	982.386
3.600	18.417	1233.658	971.348
4.615	13.291	1160.257	886.071
5.629	4.635	1083.950	784.227
6.644	0.404	1064.528	749.121
7.659	0.068	1062.309	745.826
8.673	0.133	1060.644	744.913
9.688	-0.024	1059.246	743.091
10.702	0.332	1057.448	743.519
11.717	5.273	1064.421	772.844
12.731	13.530	1075.319	821.811
13.746	17.087	1079.333	842.490
14.761	16.933	1078.195	840.762
15.775	15.981	1076.054	834.304
16.790	15.044	1074.110	828.093
17.804	14.229	1072.555	822.793
18.819	13.890	1071.658	820.357
19.834	13.685	1070.604	818.464
20.848	13.481	1069.657	816.660
21.863	13.143	1069.233	814.600
22.877	13.112	1067.968	813.413
23.892	13.095	1067.170	812.645
24.907	13.148	1066.503	812.330
25.921	13.043	1065.820	811.219
26.936	13.071	1064.881	810.572
27.950	13.213	1064.139	810.631
28.965	13.231	1062.756	809.593
29.980	13.272	1061.377	808.671
30.994	13.318	1060.675	808.291
32.009	13.253	1059.778	807.217
33.023	13.400	1058.125	806.604
34.038	13.342	1057.489	805.764
35.053	13.194	1056.639	804.325
36.067	13.312	1055.875	804.246
37.082	13.216	1054.981	803.030
38.096	13.260	1054.362	802.702
39.111	13.246	1053.489	801.899
40.126	13.167	1052.406	800.620
41.140	13.132	1051.121	799.401
42.155	13.147	1049.550	798.208
43.169	13.089	1048.904	797.368
44.184	13.021	1048.033	796.305
45.199	13.005	1047.220	795.542
46.213	13.118	1046.442	795.422
47.228	13.131	1044.945	794.276
48.242	13.170	1044.077	793.736
49.257	13.073	1043.118	792.472
50.271	13.161	1041.900	791.898
51.286	13.255	1040.934	791.541
52.301	13.110	1040.054	790.109
53.315	13.091	1038.946	789.108
54.330	13.046	1038.133	788.204
55.344	13.141	1037.301	787.956
56.359	13.140	1036.411	787.206
57.374	13.008	1035.826	786.064
58.388	12.951	1034.555	784.757
59.403	13.014	1034.113	784.652
60.417	13.031	1033.248	784.010
61.432	13.024	1032.563	783.388
62.447	12.987	1031.281	782.169
63.461	12.980	1030.816	781.715
64.476	12.960	1029.882	780.841
65.490	12.948	1029.210	780.205
66.505	12.946	1028.278	779.423
67.520	13.053	1027.417	779.205
68.534	12.991	1027.199	778.676
69.549	13.021	1026.301	778.072
70.563	12.888	1025.823	777.013
71.578	12.976	1024.451	776.318
72.593	12.895	1024.329	775.774
73.607	12.884	1023.474	775.008
74.622	12.929	1022.789	774.631
75.636	12.956	1021.462	773.684
76.651	12.845	1021.413	773.059
77.666	12.852	1020.896	772.632
78.680	12.951	1019.941	772.304
79.695	12.903	1019.162	771.420
80.709	12.976	1018.513	771.202
81.724	13.053	1017.671	770.855
82.739	13.026	1017.154	770.269
83.753	13.175	1016.431	770.349
84.768	13.167	1015.481	769.523
85.782	13.185	1014.542	768.827
86.797	13.217	1013.466	768.097
87.812	13.127	1012.577	766.934
88.826	13.112	1012.005	766.363
89.841	13.079	1011.137	765.487
90.855	13.183	1010.308	765.273
91.870	13.071	1009.801	764.301
92.884	13.184	1008.544	763.805
93.899	13.231	1007.454	763.131
94.914	13.316	1006.622	762.825
95.928	13.193	1005.936	761.669
96.943	13.085	1005.271	760.601
97.957	13.249	1004.347	760.591
98.972	13.247	1003.127	759.588
99.987	13.280	1002.445	759.156
101.001	13.277	1001.124	758.075
102.016	13.127	1000.688	756.989
103.030	13.239	999.969	756.892
104.045	13.268	999.099	756.302
105.060	13.254	998.193	755.485
106.074	13.051	997.248	753.776
107.089	13.059	995.973	752.782
108.103	13.141	995.404	752.659
109.118	13.115	994.314	751.649
110.133	13.050	993.421	750.610
111.147	13.026	992.850	750.007
112.162	13.078	991.970	749.511
113.176	13.139	990.998	748.985
114.191	13.196	990.480	748.785
115.206	13.227	989.508	748.125
116.220	13.117	988.779	747.012
117.235	13.177	987.683	746.389
118.249	13.294	986.819	746.198
119.264	13.248	986.007	745.308
120.279	13.159	985.874	744.742
121.293	13.220	984.348	743.798
122.308	13.093	983.348	742.405
123.322	13.107	982.547	741.796
124.337	13.163	981.134	740.917
125.352	13.175	980.189	740.193
126.366	13.037	979.568	739.037
127.381	13.083	978.502	738.374
128.395	13.146	977.968	738.188
129.410	13.161	976.956	737.427
130.424	13.159	975.956	736.597
131.439	13.316	974.856	736.401
132.454	13.209	974.396	735.511
133.468	13.307	973.359	735.099
134.483	13.249	972.397	734.050
135.497	13.205	971.904	733.416
136.512	13.239	970.925	732.763
137.527	13.260	970.083	732.158
138.541	13.226	969.570	731.554
139.556	13.272	968.449	730.848
140.570	13.224	968.009	730.239
141.585	13.318	967.106	729.906
142.600	13.268	966.631	729.265
143.614	13.335	965.615	728.728
144.629	13.359	964.688	728.069
145.643	13.453	963.403	727.448
146.658	13.196	962.598	725.648
147.673	13.268	961.322	724.939
148.687	13.195	961.073	724.365
149.702	13.262	960.283	724.002
150.716	13.360	959.111	723.482
151.731	13.314	958.870	723.034
152.746	13.314	958.090	722.384
153.760	13.318	957.255	721.707
154.775	13.358	956.990	721.616
155.789	13.326	956.192	720.812
156.804	13.330	955.599	720.317
157.819	13.484	954.809	720.330
158.833	13.568	953.905	719.951
159.848	13.540	953.331	719.328
160.862	13.424	952.380	718.046
161.877	13.374	951.541	717.131
162.892	13.383	950.892	716.619
163.906	13.369	949.770	715.651
164.921	13.370	948.906	714.940
165.935	13.453	947.933	714.503
166.950	13.423	946.843	713.487
167.964	13.499	945.966	713.090
168.979	13.513	945.127	712.454
169.994	13.490	944.579	711.879
171.008	13.433	944.097	711.208
172.023	13.594	943.241	711.191
173.037	13.700	942.134	710.751
174.052	13.442	941.875	709.387
175.067	13.490	941.083	708.931
176.081	13.420	941.002	708.508
177.096	13.535	939.967	708.157
178.110	13.488	939.313	707.404
179.125	13.563	938.638	707.150
180.140	13.616	938.380	707.119
181.154	13.549	937.970	706.463
182.169	13.641	937.088	706.130
183.183	13.658	936.148	705.430
184.198	13.690	935.579	705.077
185.213	13.761	934.740	704.684
186.227	13.607	934.607	703.864
187.242	13.791	933.436	703.703
188.256	13.749	933.006	703.137
189.271	13.814	931.879	702.502
190.286	13.617	931.341	701.202
191.300	13.561	930.841	700.525
192.315	13.482	929.964	699.467
193.329	13.455	929.775	699.149
194.344	13.640	929.041	699.318
195.359	13.670	928.473	698.953
196.373	13.711	927.574	698.389
197.388	13.894	927.137	698.767
198.402	13.935	926.778	698.607
199.417	13.889	926.155	697.882
200.432	13.820	925.800	697.264
201.446	13.903	925.602	697.400
202.461	14.010	924.855	697.227
203.475	14.043	923.856	696.550
204.490	13.896	923.436	695.556
205.504	13.966	922.603	695.158
206.519	13.973	921.774	694.504
207.534	13.981	920.789	693.734
208.548	13.917	920.364	693.085
209.563	13.994	919.619	692.784
210.577	14.075	919.026	692.610
211.592	14.099	918.307	692.110
212.607	14.192	917.650	691.939
213.621	14.182	916.575	691.025
214.636	14.154	915.987	690.405
215.650	14.023	915.902	689.738
216.665	14.151	914.987	689.516
217.680	14.316	913.917	689.334
218.694	14.286	913.221	688.621
219.709	14.335	912.872	688.499
220.723	14.156	912.382	687.330
221.738	14.014	911.618	686.108
222.753	14.094	911.053	685.953
223.767	14.192	910.263	685.702
224.782	14.353	909.732	685.903
225.796	14.294	909.494	685.420
226.811	14.290	908.729	684.769
227.826	14.291	907.540	683.813
228.840	14.302	906.798	683.241
229.855	14.320	906.241	682.833
230.869	14.288	905.393	682.002
231.884	14.289	904.632	681.375
232.899	14.401	904.035	681.322
233.913	14.305	903.439	680.421
234.928	14.272	902.343	679.400
235.942	14.301	902.195	679.344
236.957	14.275	901.575	678.713
237.972	14.249	901.102	678.189
238.986	14.445	900.529	678.499
240.001	14.403	899.624	677.585
241.015	14.400	899.385	677.335
242.030	14.464	898.495	676.863
243.045	14.464	897.913	676.366
244.059	14.443	897.393	675.826
245.074	14.365	896.694	674.925
246.088	14.470	895.765	674.590
247.103	14.526	895.137	674.283
248.117	14.651	894.600	674.325
249.132	14.717	893.869	673.982
250.147	14.633	893.426	673.249
251.161	14.777	892.540	673.102
252.176	14.808	892.024	672.780
253.190	14.599	891.633	671.582
254.205	14.682	891.120	671.469
255.220	14.825	890.469	671.497
256.234	14.718	889.945	670.611
257.249	14.823	888.658	670.002
258.263	14.811	888.058	669.443
259.278	14.823	887.666	669.138
260.293	14.915	886.997	668.942
261.307	14.902	886.442	668.412
262.322	14.893	885.594	667.678
263.336	14.967	885.056	667.510
264.351	15.034	884.258	667.112
265.366	15.012	883.507	666.400
266.380	15.064	883.251	666.357
267.395	15.078	882.321	665.649
268.409	15.130	881.631	665.279
269.424	15.015	880.719	664.075
270.439	15.087	880.149	663.872
271.453	14.972	879.786	663.084
272.468	14.987	879.328	662.739
273.482	15.165	877.957	662.350
274.497	15.055	878.131	661.988
275.512	14.896	877.264	660.649
276.526	15.142	876.726	661.157
277.541	15.106	876.336	660.662
278.555	15.040	875.751	659.902
279.570	15.157	875.185	659.876
280.585	15.203	874.229	659.280
281.599	15.081	873.669	658.319
282.614	15.134	872.821	657.830
283.628	15.252	872.314	657.853
284.643	15.221	871.591	657.127
285.657	15.184	870.970	656.455
286.672	15.281	870.206	656.201
287.687	15.190	869.787	655.470
288.701	15.338	869.320	655.641
289.716	15.370	868.683	655.226
290.730	15.364	868.149	654.742
291.745	15.322	867.240	653.836
292.760	15.319	867.063	653.635
293.774	15.311	866.274	652.948
294.789	15.441	865.484	652.803
295.803	15.329	864.993	651.938
296.818	15.494	863.816	651.632
297.833	15.207	863.879	650.508
298.847	15.415	863.127	650.691
299.862	15.315	862.676	649.906
300.876	15.502	861.843	649.947
301.891	15.453	861.471	649.419
302.906	15.428	861.202	649.060
303.920	15.610	860.524	649.196
304.935	15.652	859.843	648.786
305.949	15.638	859.123	648.131
306.964	15.801	858.201	648.007
307.979	15.746	857.654	647.324
308.993	15.625	857.404	646.613
310.008	15.685	856.727	646.275
311.022	15.696	856.105	645.791
312.037	15.632	855.545	645.069
313.052	15.726	855.062	645.005
314.066	15.683	854.469	644.336
315.081	15.657	853.970	643.805
316.095	15.621	853.316	643.115
317.110	15.621	852.698	642.593
318.125	15.669	852.538	642.601
319.139	15.637	852.108	642.097
320.154	15.729	851.110	641.640
321.168	15.899	850.570	641.822
322.183	15.563	850.203	640.207
323.197	15.666	849.749	640.204
324.212	15.768	849.292	640.190
325.227	15.837	848.099	639.497
326.241	15.742	848.147	639.116
327.256	15.731	847.587	638.595
328.270	15.692	846.679	637.708
329.285	15.724	846.482	637.622
330.300	15.859	845.610	637.422
331.314	15.790	845.007	636.647
332.329	15.978	844.453	636.885
333.343	15.987	844.030	636.547
334.358	15.752	843.939	635.532
335.373	15.933	843.310	635.686
336.387	15.919	843.232	635.518
337.402	15.917	842.909	635.208
338.416	15.979	842.430	635.025
339.431	15.918	842.086	634.479
340.446	15.963	841.881	634.440
341.460	16.058	841.267	634.280
342.475	16.078	840.925	634.040
343.489	16.011	840.539	633.440
344.504	16.153	839.836	633.387
345.519	16.259	839.230	633.273
346.533	16.236	838.796	632.805
347.548	16.165	838.149	631.994
348.562	16.210	837.846	631.879
349.577	16.208	837.299	631.400
350.592	16.194	836.316	630.551
351.606	16.155	835.901	630.037
352.621	16.172	835.079	629.424
353.635	16.172	834.610	629.016
354.650	16.206	834.195	628.774
355.665	16.195	833.323	628.021
356.679	16.340	832.766	628.085
357.694	16.276	832.449	627.552
358.708	16.308	831.338	626.778
359.723	16.372	830.956	626.671
360.738	16.299	830.588	626.067
361.752	16.284	829.568	625.187
362.767	16.404	829.275	625.358
363.781	16.400	828.732	624.875
364.796	16.483	828.380	624.864
365.810	16.516	827.911	624.576
366.825	16.631	827.430	624.583
367.840	16.443	827.256	623.701
368.854	16.468	826.808	623.401
369.869	16.593	826.009	623.203
370.883	16.511	825.827	622.711
371.898	16.495	825.745	622.534
372.913	16.664	824.922	622.482
373.927	16.706	824.489	622.251
374.942	16.677	824.109	621.805
375.956	16.588	823.717	621.125
376.971	16.688	823.318	621.138
377.986	16.832	822.515	621.006
379.000	16.789	822.594	620.851
380.015	16.851	821.655	620.314
381.029	16.798	821.169	619.698
382.044	16.894	820.435	619.443
383.059	16.764	820.201	618.734
384.073	16.860	819.170	618.251
385.088	16.839	818.775	617.823
386.102	16.650	818.271	616.699
387.117	16.843	817.361	616.662
388.132	17.039	816.717	616.833
389.146	16.842	816.400	615.822
390.161	16.949	816.193	616.003
391.175	16.833	815.656	615.123
392.190	16.946	814.983	614.968
393.205	17.022	814.357	614.719
394.219	16.802	814.516	613.984
395.234	16.899	814.215	614.055
396.248	16.799	813.690	613.243
397.263	16.777	813.008	612.597
398.278	16.865	812.457	612.444
399.292	16.882	812.344	612.368
400.307	16.858	812.055	612.008
401.321	16.965	811.535	611.947
402.336	17.019	810.610	611.391
403.350	17.022	810.242	611.070
404.365	17.013	809.951	610.763
405.380	17.087	809.720	610.801
406.394	17.164	808.899	610.404
407.409	17.336	808.453	610.634
408.423	16.997	808.391	609.314
409.438	17.269	807.949	609.905
410.453	17.254	806.867	608.980
411.467	17.323	806.865	609.171
412.482	17.361	806.433	608.929
413.496	17.268	806.335	608.465
414.511	17.284	805.947	608.176
415.526	17.385	805.066	607.820
416.540	17.294	804.803	607.241
417.555	17.388	804.197	607.067
418.569	17.367	803.866	606.688
419.584	17.531	803.700	607.095
420.599	17.361	803.213	606.065
421.613	109.665	1292.197	1471.788
422.628	94.494	1363.414	1471.890
