DTS Sentinel unit serial number:	SN413079Multiplexer serial number:	ORYXHardware model number:	OX4-SRSoftware version number:	ORYX F/W v4.00 Oryx Data Collector v3.7.2.0data status	okinstallation	princeton_trtdifferential loss correction	single-endedforward channel	channel 1reverse channel	N/Adate	2019/09/13time	08:26:35forward acquisition time	60.00reverse acquisition time	0.00gamma	496.2192k internal	0.2330k external	0.2330temperature offset calibration	1.0161default loss term (dB/km)	0.3790temperature slope calibration	1.0000multiplexer offset coefficient	1.0000multiplexer slope coefficient	1.0000fibre end	0.00T internal ref (°C)	27.39T ext. ref 1 (°C)	4.27T ext. ref 2 (°C)	23.99length (m)	temperature (°C)	Stokes	anti-Stokes-747.200	800.000	-0.040	0.173
-746.185	48.665	0.155	-0.146
-745.171	42.340	-0.131	0.120
-744.156	179.711	0.033	-0.048
-743.142	-130.831	-0.054	-0.007
-742.127	-94.271	-0.263	-0.072
-741.112	60.693	0.085	0.085
-740.098	-111.721	-0.204	0.042
-739.083	800.000	-0.045	-0.156
-738.069	92.257	-0.202	0.229
-737.054	-54.926	-0.404	0.183
-736.039	60.126	-0.250	0.249
-735.025	-181.508	-0.175	0.003
-734.010	-200.000	-0.088	0.508
-732.996	-27.492	-0.098	-0.057
-731.981	-200.000	-0.023	0.103
-730.966	-172.018	-0.318	-0.010
-729.952	396.775	-0.060	-0.127
-728.937	-200.000	-0.242	0.000
-727.923	-200.000	0.033	-0.275
-726.908	-200.000	0.001	-0.086
-725.894	54.619	0.110	-0.107
-724.879	-144.445	0.159	0.015
-723.864	-114.063	0.129	0.025
-722.850	800.000	-0.122	-0.407
-721.835	-200.000	-0.012	0.123
-720.821	-81.144	-0.280	-0.093
-719.806	48.697	-0.189	-0.179
-718.791	-200.000	-0.007	0.158
-717.777	-5.916	0.083	0.057
-716.762	-200.000	-0.015	0.318
-715.748	-20.614	0.076	0.047
-714.733	-36.817	0.216	-0.117
-713.718	-153.315	0.318	0.022
-712.704	-130.611	-0.377	-0.051
-711.689	133.829	0.154	0.200
-710.675	800.000	0.070	-0.195
-709.660	-65.407	-0.124	-0.050
-708.645	51.679	0.281	-0.269
-707.631	779.055	-0.041	-0.113
-706.616	-200.000	-0.049	-0.505
-705.602	-200.000	-0.027	-0.118
-704.587	-45.336	0.329	-0.164
-703.572	-102.278	0.344	-0.083
-702.558	-200.000	0.005	0.117
-701.543	423.981	0.098	-0.212
-700.529	316.690	-0.106	-0.200
-699.514	-4.367	0.097	-0.067
-698.499	-71.637	-0.216	-0.081
-697.485	-200.000	0.011	0.145
-696.470	-84.109	-0.230	-0.073
-695.456	-200.000	0.055	-0.291
-694.441	-47.266	-0.121	-0.059
-693.426	-163.083	-0.113	-0.005
-692.412	252.945	0.019	0.033
-691.397	134.790	-0.050	0.066
-690.383	-60.260	-0.258	-0.110
-689.368	-99.012	0.035	-0.009
-688.354	326.788	-0.172	-0.332
-687.339	-200.000	-0.013	0.059
-686.324	36.921	-0.053	-0.047
-685.310	-149.980	-0.491	-0.038
-684.295	221.882	0.063	0.102
-683.281	-200.000	-0.062	-0.348
-682.266	-13.844	-0.141	0.091
-681.251	-113.481	-0.281	-0.055
-680.237	143.579	-0.059	0.080
-679.222	-121.641	-0.036	0.006
-678.208	149.752	-0.176	0.239
-677.193	-57.421	-0.092	0.041
-676.178	-67.021	-0.423	-0.167
-675.164	-84.131	-0.059	-0.019
-674.149	224.459	-0.050	-0.082
-673.135	800.000	-0.104	0.364
-672.120	-200.000	-0.049	0.219
-671.105	-63.318	-0.069	-0.028
-670.091	95.067	0.156	0.179
-669.076	27.092	0.028	-0.024
-668.062	648.408	0.127	-0.327
-667.047	-32.013	0.285	-0.160
-666.032	33.542	-0.110	0.096
-665.018	140.330	-0.144	-0.191
-664.003	260.730	0.159	-0.277
-662.989	201.961	-0.172	0.266
-661.974	800.000	-0.048	0.191
-660.959	334.550	-0.117	-0.228
-659.945	-200.000	-0.045	-0.243
-658.930	-41.654	-0.196	0.101
-657.916	800.000	0.010	0.036
-656.901	370.743	-0.064	0.130
-655.886	52.047	-0.175	-0.168
-654.872	-21.765	0.065	-0.040
-653.857	169.363	-0.229	-0.328
-652.843	140.336	0.012	0.017
-651.828	-67.614	0.164	-0.064
-650.814	256.185	-0.085	-0.146
-649.799	-78.088	0.190	0.066
-648.784	130.188	-0.195	0.251
-647.770	-96.132	-0.221	0.059
-646.755	13.165	-0.272	0.211
-645.741	9.470	0.064	-0.049
-644.726	-64.023	-0.016	-0.007
-643.711	-75.766	0.089	0.032
-642.697	155.559	-0.247	0.341
-641.682	551.866	0.058	-0.139
-640.668	323.897	0.043	-0.083
-639.653	-200.000	-0.017	-0.287
-638.638	1.327	0.296	-0.213
-637.624	412.690	0.059	-0.126
-636.609	208.557	0.156	0.245
-635.595	-84.693	0.154	-0.049
-634.580	-92.108	0.166	-0.047
-633.565	-43.061	-0.226	0.115
-632.551	43.421	-0.093	-0.085
-631.536	130.907	0.081	0.105
-630.522	452.963	0.029	0.064
-629.507	-200.000	0.010	-0.130
-628.492	192.387	0.103	-0.156
-627.478	-127.614	0.071	0.010
-626.463	-140.466	0.288	0.030
-625.449	800.000	-0.025	0.093
-624.434	-32.899	-0.132	0.074
-623.419	-200.000	-0.023	-0.136
-622.405	-158.329	-0.122	-0.007
-621.390	-4.486	0.162	-0.112
-620.376	-83.718	-0.282	0.090
-619.361	112.229	-0.180	0.218
-618.346	158.555	0.121	-0.168
-617.332	-8.711	0.252	-0.169
-616.317	-66.009	-0.077	-0.031
-615.303	29.872	0.154	0.132
-614.288	800.000	-0.061	0.197
-613.273	-35.175	-0.348	0.190
-612.259	800.000	0.033	0.127
-611.244	156.894	-0.189	0.262
-610.230	11.613	0.102	0.078
-609.215	413.532	-0.140	-0.298
-608.201	-24.685	0.072	-0.043
-607.186	684.357	-0.130	-0.339
-606.171	-30.225	0.182	-0.104
-605.157	746.340	0.011	-0.031
-604.142	-145.222	-0.056	0.005
-603.128	-155.342	-0.188	0.012
-602.113	-200.000	-0.025	0.251
-601.098	115.815	-0.168	0.206
-600.084	-116.695	-0.057	0.010
-599.069	122.411	0.144	-0.181
-598.055	-59.864	-0.251	0.107
-597.040	-142.818	-0.007	-0.001
-596.025	40.616	0.210	-0.189
-595.011	262.273	0.074	-0.128
-593.996	800.000	0.039	0.127
-592.982	-160.422	-0.114	0.006
-591.967	130.839	0.067	0.086
-590.952	118.547	0.109	0.135
-589.938	2.220	0.134	-0.097
-588.923	99.615	-0.095	0.110
-587.909	126.214	0.211	0.267
-586.894	66.785	0.165	0.168
-585.879	-200.000	-0.031	-0.213
-584.865	143.724	0.201	-0.268
-583.850	374.454	0.157	0.321
-582.836	116.729	0.185	-0.227
-581.821	-145.799	-0.204	0.018
-580.806	-200.000	-0.011	0.084
-579.792	800.000	0.081	-0.318
-578.777	8.241	-0.167	0.125
-577.763	136.326	-0.144	-0.188
-576.748	-11.033	0.185	0.122
-575.733	-147.888	0.278	0.023
-574.719	-36.759	0.286	-0.154
-573.704	82.559	0.027	-0.030
-572.690	800.000	-0.056	-0.161
-571.675	-24.635	0.172	-0.103
-570.661	-200.000	-0.006	0.314
-569.646	-200.000	-0.028	0.225
-568.631	91.573	0.106	0.119
-567.617	800.000	-0.064	-0.185
-566.602	202.708	-0.139	0.214
-565.588	-95.225	0.205	-0.055
-564.573	800.000	-0.074	-0.226
-563.558	-67.234	-0.166	-0.065
-562.544	298.136	-0.170	0.312
-561.529	-83.225	-0.220	-0.071
-560.515	-60.179	0.314	-0.134
-559.500	-22.173	-0.330	0.200
-558.485	800.000	0.048	0.200
-557.471	800.000	-0.044	0.130
-556.456	-124.942	-0.245	0.038
-555.442	243.016	0.175	-0.293
-554.427	-8.948	0.407	-0.273
-553.412	-99.431	0.099	-0.025
-552.398	-105.459	0.110	-0.025
-551.383	-200.000	0.044	-0.229
-550.369	-55.296	-0.263	-0.118
-549.354	354.981	-0.051	-0.101
-548.339	82.890	-0.041	-0.045
-547.325	-105.316	0.212	-0.048
-546.310	-44.465	0.084	0.042
-545.296	-155.385	-0.163	0.011
-544.281	256.557	0.044	-0.076
-543.266	-64.047	0.166	0.068
-542.252	15.528	-0.089	-0.070
-541.237	-51.832	0.320	0.149
-540.223	-200.000	0.021	0.296
-539.208	257.652	0.100	-0.171
-538.193	30.645	-0.160	-0.137
-537.179	800.000	-0.085	0.349
-536.164	-200.000	-0.041	-0.226
-535.150	341.371	-0.189	-0.370
-534.135	800.000	-0.043	-0.126
-533.121	15.413	0.111	0.087
-532.106	-70.888	0.045	0.017
-531.091	-23.861	-0.207	-0.124
-530.077	-200.000	-0.024	0.131
-529.062	800.000	0.088	0.295
-528.048	-200.000	0.016	-0.080
-527.033	712.325	0.124	-0.328
-526.018	389.664	0.091	0.188
-525.004	516.822	0.089	0.209
-523.989	-113.893	-0.284	-0.055
-522.975	-31.371	-0.222	0.125
-521.960	-44.963	-0.184	-0.091
-520.945	-3.514	0.247	-0.171
-519.931	499.494	0.049	-0.113
-518.916	194.806	0.221	-0.335
-517.902	-200.000	0.056	0.258
-516.887	-63.425	0.394	0.162
-515.872	-158.709	-0.094	0.005
-514.858	-11.523	0.225	-0.148
-513.843	703.833	0.072	-0.189
-512.829	21.807	-0.373	0.303
-511.814	800.000	0.046	0.157
-510.799	121.961	0.122	-0.151
-509.785	653.418	0.105	-0.269
-508.770	-200.000	-0.018	0.104
-507.756	-72.476	0.124	0.046
-506.741	-19.693	0.058	-0.036
-505.726	97.125	-0.144	0.165
-504.712	-200.000	0.022	-0.129
-503.697	800.000	0.009	0.038
-502.683	-68.939	0.242	0.093
-501.668	-94.925	0.251	0.068
-500.653	-200.000	0.035	0.194
-499.639	-200.000	-0.004	0.043
-498.624	-16.469	-0.141	-0.089
-497.610	649.595	-0.094	-0.239
-496.595	67.353	0.077	0.079
-495.581	-200.000	-0.055	-0.258
-494.566	800.000	0.032	-0.134
-493.551	74.558	-0.125	-0.132
-492.537	109.017	-0.309	-0.368
-491.522	189.384	0.272	-0.406
-490.508	24.517	-0.043	0.036
-489.493	-73.066	0.241	0.088
-488.478	-200.000	-0.010	0.063
-487.464	39.487	-0.055	-0.050
-486.449	-28.468	0.032	0.018
-485.435	-42.406	-0.182	-0.092
-484.420	37.106	-0.258	-0.228
-483.405	145.158	-0.183	0.244
-482.391	-149.161	-0.390	-0.031
-481.376	265.739	0.047	-0.082
-480.362	54.725	-0.104	0.100
-479.347	800.000	-0.062	0.183
-478.332	800.000	-0.010	0.039
-477.318	263.221	0.127	-0.220
-476.303	564.486	0.098	0.236
-475.289	-27.311	0.387	0.225
-474.274	-60.521	0.094	-0.040
-473.259	-125.581	-0.395	0.060
-472.245	-126.213	0.092	0.014
-471.230	-99.770	-0.235	0.059
-470.216	-35.564	0.186	-0.100
-469.201	-139.776	0.285	-0.030
-468.186	-68.231	-0.028	0.011
-467.172	114.543	-0.211	0.256
-466.157	-110.070	-0.078	0.016
-465.143	-80.926	-0.067	-0.022
-464.128	-71.360	-0.086	-0.032
-463.113	-200.000	0.000	0.042
-462.099	441.468	0.036	-0.078
-461.084	164.258	0.159	0.223
-460.070	-146.546	-0.166	0.014
-459.055	21.828	0.023	-0.019
-458.040	212.242	-0.173	-0.271
-457.026	-95.569	-0.486	-0.130
-456.011	249.427	-0.120	-0.203
-454.997	-124.163	0.038	0.006
-453.982	-200.000	-0.028	0.288
-452.968	60.030	-0.162	0.159
-451.953	443.207	-0.083	-0.181
-450.938	-148.018	0.047	0.004
-449.924	202.024	-0.124	0.191
-448.909	-200.000	-0.054	0.262
-447.895	-200.000	0.052	-0.255
-446.880	-124.354	0.184	-0.029
-445.865	228.257	-0.117	-0.190
-444.851	-53.018	0.142	-0.065
-443.836	157.016	0.110	0.151
-442.822	-180.648	-0.096	0.002
-441.807	210.540	-0.152	-0.238
-440.792	-200.000	-0.043	0.337
-439.778	-172.817	-0.282	-0.009
-438.763	800.000	-0.087	-0.299
-437.749	-200.000	-0.047	-0.264
-436.734	-106.775	-0.085	-0.019
-435.719	-200.000	-0.029	-0.248
-434.705	453.786	0.066	0.146
-433.690	-109.197	0.206	0.044
-432.676	83.696	-0.243	0.264
-431.661	-64.763	-0.136	0.055
-430.646	33.717	-0.169	0.146
-429.632	352.635	0.117	0.230
-428.617	557.659	-0.104	-0.251
-427.603	189.339	0.047	-0.070
-426.588	64.584	0.134	-0.135
-425.573	-200.000	-0.016	-0.099
-424.559	-200.000	-0.069	-0.359
-423.544	800.000	0.027	0.110
-422.530	-200.000	0.017	0.082
-421.515	-24.838	-0.105	-0.062
-420.500	-9.996	-0.186	-0.123
-419.486	3.820	-0.191	-0.138
-418.471	-109.099	-0.053	-0.011
-417.457	800.000	-0.088	0.283
-416.442	67.584	0.197	-0.200
-415.428	645.694	-0.163	-0.413
-414.413	67.794	-0.056	-0.057
-413.398	108.662	0.103	-0.122
-412.384	6.088	0.217	-0.160
-411.369	748.589	0.050	-0.133
-410.355	-150.863	0.338	0.025
-409.340	66.031	0.250	0.252
-408.325	615.953	0.090	0.224
-407.311	-111.367	0.106	0.021
-406.296	800.000	-0.038	-0.147
-405.282	-200.000	-0.014	-0.131
-404.267	124.170	0.142	-0.178
-403.252	-200.000	0.003	-0.222
-402.238	771.947	-0.074	0.200
-401.223	800.000	-0.048	0.193
-400.209	-89.331	-0.138	0.040
-399.194	410.358	-0.048	-0.102
-398.179	758.851	-0.094	-0.252
-397.165	-38.633	-0.288	-0.151
-396.150	-200.000	0.002	-0.022
-395.136	226.124	-0.074	-0.119
-394.121	82.264	-0.196	0.212
-393.106	-21.556	0.195	-0.118
-392.092	-151.788	0.328	0.024
-391.077	-52.022	-0.416	0.192
-390.063	-113.929	0.025	-0.005
-389.048	-125.101	-0.133	0.020
-388.033	-79.815	0.303	0.101
-387.019	-93.828	-0.173	0.047
-386.004	-200.000	-0.001	-0.218
-384.990	-200.000	0.002	0.206
-383.975	106.576	0.174	0.204
-382.960	800.000	-0.023	-0.069
-381.946	131.805	-0.109	0.140
-380.931	-28.742	0.047	-0.027
-379.917	-136.287	0.133	-0.015
-378.902	21.838	-0.354	-0.286
-377.888	-115.868	-0.416	-0.077
-376.873	-44.732	-0.136	-0.067
-375.858	-56.265	0.192	0.085
-374.844	-55.484	-0.196	-0.087
-373.829	70.546	0.234	0.240
-372.815	81.427	0.133	0.142
-371.800	-200.000	-0.013	0.218
-370.785	251.702	0.169	-0.286
-369.771	-105.412	-0.208	-0.047
-368.756	55.374	-0.180	-0.173
-367.742	128.885	0.230	0.291
-366.727	800.000	0.071	0.306
-365.712	-200.000	-0.019	-0.187
-364.698	-83.752	-0.458	-0.145
-363.683	-173.284	-0.187	0.006
-362.669	6.161	-0.113	-0.083
-361.654	-93.144	-0.317	-0.088
-360.639	800.000	-0.075	-0.320
-359.625	44.407	0.238	-0.217
-358.610	-200.000	-0.004	0.139
-357.596	-200.000	-0.057	-0.364
-356.581	24.869	-0.270	-0.222
-355.566	39.596	0.186	-0.165
-354.552	-50.741	0.302	-0.141
-353.537	-139.795	-0.324	-0.034
-352.523	387.401	0.039	-0.079
-351.508	800.000	-0.039	-0.133
-350.493	800.000	-0.043	0.185
-349.479	-131.104	0.158	-0.021
-348.464	274.938	-0.094	-0.166
-347.450	-200.000	-0.011	0.090
-346.435	684.186	0.115	0.297
-345.420	3.810	0.065	-0.047
-344.406	-200.000	-0.020	0.275
-343.391	727.628	-0.078	0.207
-342.377	-27.505	-0.208	-0.120
-341.362	-33.740	-0.245	0.134
-340.348	-101.697	0.272	0.065
-339.333	133.584	0.160	-0.205
-338.318	-108.739	-0.232	0.049
-337.304	-51.422	0.098	-0.046
-336.289	-144.456	0.178	-0.016
-335.275	0.732	0.194	-0.138
-334.260	-116.747	0.426	-0.077
-333.245	-142.075	0.191	-0.019
-332.231	-131.940	0.299	0.039
-331.216	208.152	0.054	0.084
-330.202	-112.315	0.109	-0.022
-329.187	-38.383	0.280	0.147
-328.172	130.594	-0.168	-0.213
-327.158	181.250	-0.210	0.306
-326.143	-167.256	-0.126	-0.005
-325.129	123.478	0.146	-0.182
-324.114	499.885	-0.112	0.255
-323.099	-36.949	0.096	-0.051
-322.085	-76.853	-0.352	-0.122
-321.070	800.000	0.112	-0.422
-320.056	-8.990	0.090	-0.060
-319.041	-157.769	0.154	0.009
-318.026	243.324	-0.094	0.157
-317.012	59.008	-0.074	-0.072
-315.997	114.280	-0.043	0.052
-314.983	108.698	-0.197	-0.233
-313.968	130.000	0.028	0.035
-312.953	-36.666	0.105	-0.056
-311.939	-154.789	-0.555	0.036
-310.924	-200.000	0.010	-0.208
-309.910	110.337	-0.063	-0.074
-308.895	-200.000	-0.010	0.070
-307.880	-200.000	-0.009	-0.174
-306.866	-200.000	-0.032	-0.233
-305.851	-125.314	-0.144	0.022
-304.837	-121.557	0.201	-0.033
-303.822	332.667	-0.095	0.181
-302.807	96.361	-0.126	0.143
-301.793	-200.000	0.023	-0.135
-300.778	-123.112	-0.225	-0.036
-299.764	55.653	0.094	-0.090
-298.749	259.836	-0.132	-0.225
-297.735	-67.284	0.331	0.129
-296.720	-50.804	0.190	-0.089
-295.705	-178.847	-0.158	-0.004
-294.691	-164.335	-0.145	0.007
-293.676	-43.107	-0.186	-0.093
-292.662	-200.000	-0.002	0.067
-291.647	224.015	0.125	-0.200
-290.632	-47.360	0.112	0.054
-289.618	277.441	-0.232	0.408
-288.603	184.715	0.228	0.334
-287.589	-76.941	0.086	0.030
-286.574	-33.222	0.147	0.081
-285.559	-65.725	-0.154	0.061
-284.545	19.403	0.246	-0.195
-283.530	103.441	0.102	0.118
-282.516	-50.364	-0.044	0.021
-281.501	-200.000	0.003	-0.132
-280.486	1.132	0.172	-0.122
-279.472	-82.434	0.162	0.052
-278.457	800.000	-0.043	-0.148
-277.443	-200.000	-0.037	0.432
-276.428	260.756	0.215	0.367
-275.413	90.061	0.177	-0.195
-274.399	800.000	-0.057	-0.226
-273.384	800.000	0.040	0.143
-272.370	-200.000	0.014	-0.078
-271.355	38.109	-0.338	-0.298
-270.340	300.582	-0.111	0.202
-269.326	800.000	-0.041	0.139
-268.311	-177.699	-0.142	-0.003
-267.297	212.338	0.097	0.151
-266.282	-38.479	-0.343	-0.180
-265.267	-147.910	-0.306	-0.025
-264.253	-117.729	-0.250	-0.044
-263.238	-156.539	0.227	-0.014
-262.224	-6.243	0.123	-0.083
-261.209	32.314	-0.139	0.119
-260.195	-84.218	0.211	0.066
-259.180	474.868	-0.091	0.203
-258.165	-176.500	-0.449	0.011
-257.151	-81.266	0.241	-0.079
-256.136	-45.193	0.254	0.125
-255.122	375.012	-0.086	-0.173
-254.107	-42.586	-0.213	-0.107
-253.092	82.883	0.170	-0.183
-252.078	-28.738	-0.307	0.174
-251.063	-200.000	-0.012	-0.243
-250.049	-200.000	0.023	-0.138
-249.034	-40.694	0.180	-0.092
-248.019	-141.785	-0.295	-0.029
-247.005	61.605	-0.155	0.153
-245.990	-102.671	-0.188	0.044
-244.976	8.172	0.306	-0.227
-243.961	-200.000	-0.081	0.454
-242.946	397.360	0.035	-0.072
-241.932	-200.000	0.008	0.236
-240.917	124.273	0.065	0.080
-239.903	24.367	-0.175	-0.143
-238.888	-200.000	-0.035	0.239
-237.873	160.876	0.050	0.069
-236.859	800.000	0.051	0.180
-235.844	-200.000	-0.032	-0.218
-234.830	335.539	0.126	0.241
-233.815	110.375	0.062	0.074
-232.800	152.968	-0.106	-0.143
-231.786	-170.434	0.057	0.002
-230.771	-200.000	-0.029	0.323
-229.757	-92.188	-0.128	-0.036
-228.742	467.561	0.121	0.269
-227.727	196.513	0.030	0.046
-226.713	83.176	-0.140	0.150
-225.698	563.386	-0.115	0.276
-224.684	-37.655	0.419	0.221
-223.669	34.936	0.075	-0.064
-222.655	800.000	0.036	0.118
-221.640	148.166	0.252	-0.336
-220.625	-89.070	-0.111	-0.033
-219.611	-90.602	0.307	0.087
-218.596	-106.877	0.323	0.071
-217.582	554.377	-0.101	0.241
-216.567	87.646	0.178	0.195
-215.552	250.947	0.120	0.201
-214.538	47.096	0.258	0.237
-213.523	-98.190	-0.135	-0.034
-212.509	-108.415	-0.159	-0.034
-211.494	-124.182	0.241	-0.037
-210.479	256.842	-0.124	-0.209
-209.465	414.764	0.302	0.634
-208.450	44.973	0.234	0.213
-207.436	381.165	0.108	0.219
-206.421	130.114	0.121	-0.152
-205.406	201.171	0.058	-0.087
-204.392	-107.488	0.134	0.029
-203.377	800.000	-0.038	-0.135
-202.363	39.678	-0.142	0.126
-201.348	177.644	-0.291	-0.418
-200.333	-87.132	0.063	0.019
-199.319	25.120	-0.284	-0.233
-198.304	-134.433	-0.061	-0.007
-197.290	-79.455	-0.203	0.068
-196.275	127.596	0.302	0.379
-195.260	800.000	-0.099	0.385
-194.246	-108.124	0.387	-0.083
-193.231	25.580	-0.165	-0.135
-192.217	205.005	-0.252	0.385
-191.202	800.000	-0.130	-0.431
-190.187	-28.807	0.203	0.115
-189.173	97.018	0.116	0.131
-188.158	797.316	-0.067	-0.182
-187.144	32.106	0.079	-0.068
-186.129	-110.509	0.254	-0.052
-185.114	-200.000	0.015	0.070
-184.100	81.754	-0.096	0.102
-183.085	-144.901	-0.127	-0.011
-182.071	-149.016	0.427	-0.034
-181.056	-114.221	0.068	0.013
-180.042	-112.683	-0.421	0.082
-179.027	31.324	0.133	0.113
-178.012	-200.000	0.021	-0.230
-176.998	4.513	-0.199	-0.144
-175.983	374.341	-0.155	-0.311
-174.969	-200.000	0.240	-0.000
-173.954	3.467	0.101	0.073
-172.939	-21.706	-0.312	0.187
-171.925	-200.000	-0.030	0.236
-170.910	800.000	0.071	-0.259
-169.896	-52.256	0.166	0.076
-168.881	-94.501	0.068	0.018
-167.866	242.576	-0.142	-0.235
-166.852	-48.082	0.462	0.220
-165.837	129.621	0.181	-0.228
-164.823	-120.279	-0.240	0.040
-163.808	-54.075	0.234	0.105
-162.793	152.169	0.243	0.326
-161.779	-200.000	0.003	-0.131
-160.764	-200.000	0.004	0.104
-159.750	-106.284	-0.123	-0.027
-158.735	2.425	0.152	0.109
-157.720	42.559	0.190	0.170
-156.706	-200.000	0.058	0.342
-155.691	68.614	-0.063	0.063
-154.677	75.437	-0.225	0.233
-153.662	-200.000	-0.015	0.097
-152.647	20.645	-0.136	-0.109
-151.633	-200.000	0.013	-0.173
-150.618	-132.068	0.294	0.038
-149.604	-10.024	-0.088	-0.058
-148.589	353.224	-0.163	-0.319
-147.574	-55.179	-0.319	0.141
-146.560	-5.576	0.030	0.020
-145.545	-200.000	-0.040	0.395
-144.531	-169.021	0.428	-0.016
-143.516	-200.000	0.005	0.174
-142.502	-110.704	0.158	-0.032
-141.487	-59.859	0.206	-0.087
-140.472	300.593	-0.098	-0.178
-139.458	120.087	0.227	-0.277
-138.443	697.976	0.122	-0.316
-137.429	-145.590	-0.074	-0.007
-136.414	-39.415	0.299	0.154
-135.399	104.722	0.137	-0.159
-134.385	6.978	-0.173	-0.127
-133.370	-198.753	0.357	0.002
-132.356	49.382	-0.094	0.087
-131.341	-38.150	0.020	-0.011
-130.326	-200.000	0.005	-0.050
-129.312	-117.919	-0.375	-0.066
-128.297	800.000	0.039	-0.119
-127.283	-135.284	-0.183	-0.022
-126.268	-50.907	0.106	-0.049
-125.253	198.715	-0.077	0.116
-124.239	569.684	-0.054	0.130
-123.224	353.910	-0.053	-0.104
-122.210	-96.829	-0.159	0.041
-121.195	-200.000	0.018	-0.258
-120.180	90.994	-0.150	-0.165
-119.166	-200.000	0.001	-0.269
-118.151	231.486	-0.096	-0.155
-117.137	135.266	0.074	0.094
-116.122	-61.881	-0.180	0.074
-115.107	800.000	0.054	-0.198
-114.093	316.229	-0.088	0.164
-113.078	800.000	-0.053	-0.154
-112.064	629.741	0.053	-0.131
-111.049	25.134	0.118	0.096
-110.034	-195.048	-0.294	-0.002
-109.020	-49.152	-0.232	0.109
-108.005	502.238	-0.073	0.165
-106.991	425.076	0.146	0.308
-105.976	-63.436	0.354	0.143
-104.962	-90.360	-0.221	0.063
-103.947	-75.639	-0.219	-0.076
-102.932	-200.000	0.052	-0.433
-101.918	-200.000	-0.006	-0.035
-100.903	-200.000	-0.025	0.376
-99.889	141.705	-0.212	-0.275
-98.874	800.000	-0.049	-0.162
-97.859	-69.363	-0.080	0.030
-96.845	768.896	-0.111	0.296
-95.830	-200.000	-0.020	-0.431
-94.816	-101.943	0.079	-0.019
-93.801	-200.000	-0.042	-0.240
-92.786	-137.519	0.189	-0.021
-91.772	31.796	-0.194	-0.164
-90.757	-77.144	0.490	0.168
-89.743	-159.546	-0.047	0.003
-88.728	82.299	0.179	-0.190
-87.713	-23.249	0.391	-0.231
-86.699	550.464	0.064	-0.151
-85.684	-46.967	0.368	0.176
-84.670	800.000	-0.134	0.371
-83.655	-155.096	-0.083	-0.005
-82.640	247.786	0.037	-0.061
-81.626	-108.716	0.080	-0.017
-80.611	-200.000	-0.002	0.241
-79.597	-2.463	-0.076	0.052
-78.582	76.854	0.040	0.042
-77.567	-200.000	0.041	-0.329
-76.553	-85.870	-0.056	-0.017
-75.538	512.748	-0.160	0.366
-74.524	-135.567	-0.136	-0.016
-73.509	391.997	-0.052	-0.106
-72.494	-105.164	0.233	0.052
-71.480	9.797	0.060	-0.045
-70.465	191.725	-0.120	-0.177
-69.451	-200.000	-0.046	-0.205
-68.436	-200.000	-0.015	0.352
-67.422	75.285	-0.274	0.283
-66.407	800.000	0.065	-0.252
-65.392	425.867	0.111	-0.234
-64.378	-27.037	-0.307	0.176
-63.363	-174.756	-0.162	0.004
-62.349	-31.751	0.121	0.066
-61.334	65.298	-0.938	-0.930
-60.319	507.776	0.327	0.743
-59.305	307.041	-0.598	-1.092
-58.290	261.883	0.641	1.089
-57.276	635.167	0.669	1.664
-56.261	-200.000	113.024	639.123
-55.246	527.294	1527.997	3530.895
-54.232	176.298	2698.453	3842.406
-53.217	108.841	2165.510	2537.213
-52.203	39.198	1606.180	1408.587
-51.188	30.833	1350.544	1133.692
-50.173	27.878	1312.370	1084.094
-49.159	55.752	1369.695	1301.030
-48.144	53.861	1383.599	1302.770
-47.130	30.909	1338.067	1123.502
-46.115	27.514	1320.398	1088.378
-45.100	27.328	1315.653	1083.314
-44.086	27.180	1313.562	1080.668
-43.071	27.217	1311.220	1078.919
-42.057	27.181	1309.013	1076.847
-41.042	27.280	1306.942	1075.686
-40.027	27.261	1305.805	1074.595
-39.013	27.237	1303.961	1072.899
-37.998	27.372	1301.841	1071.904
-36.984	27.469	1300.064	1070.967
-35.969	27.318	1298.349	1068.625
-34.954	27.362	1297.055	1067.777
-33.940	27.451	1295.633	1067.084
-32.925	27.480	1294.246	1066.072
-31.911	27.434	1292.540	1064.353
-30.896	27.548	1291.261	1063.926
-29.881	27.483	1289.864	1062.355
-28.867	27.579	1288.371	1061.643
-27.852	27.464	1287.074	1059.857
-26.838	27.554	1285.172	1058.776
-25.823	27.432	1284.892	1057.793
-24.809	27.444	1283.119	1056.364
-23.794	27.506	1281.777	1055.575
-22.779	27.442	1280.664	1054.246
-21.765	27.372	1279.487	1052.828
-20.750	27.430	1277.764	1051.707
-19.736	27.311	1276.308	1049.776
-18.721	27.382	1275.447	1049.438
-17.706	27.334	1274.628	1048.448
-16.692	27.341	1273.150	1047.230
-15.677	27.301	1272.203	1046.178
-14.663	27.428	1270.775	1045.689
-13.648	27.334	1269.717	1044.239
-12.633	27.330	1269.395	1043.909
-11.619	27.403	1268.242	1043.338
-10.604	27.437	1267.160	1042.603
-9.590	27.322	1266.167	1041.086
-8.575	27.258	1265.058	1039.768
-7.560	27.277	1263.918	1038.895
-6.546	27.343	1263.304	1038.731
-5.531	27.331	1262.767	1038.174
-4.517	27.276	1262.026	1037.215
-3.502	27.336	1261.102	1036.757
-2.487	27.282	1259.940	1035.452
-1.473	27.426	1255.580	1032.641
-0.458	26.113	1241.539	1013.683
0.556	24.722	1224.973	978.225
1.571	21.039	1231.024	962.685
2.586	20.128	1245.199	968.594
3.600	19.369	1233.145	954.931
4.615	14.808	1161.664	875.650
5.629	7.721	1089.153	785.989
6.644	4.576	1070.826	757.393
7.659	4.274	1068.491	754.202
8.673	4.083	1067.074	752.208
9.688	4.148	1065.640	751.450
10.702	4.558	1064.046	752.242
11.717	9.261	1070.709	779.748
12.731	16.971	1081.758	825.379
13.746	21.209	1086.508	849.596
14.761	21.954	1087.535	853.950
15.775	21.274	1085.879	849.267
16.790	20.407	1083.717	843.292
17.804	19.662	1082.274	838.484
18.819	19.394	1081.480	836.496
19.834	19.435	1080.522	835.876
20.848	19.222	1080.312	834.608
21.863	19.095	1079.403	833.220
22.877	18.945	1078.680	831.863
23.892	18.976	1077.502	831.027
24.907	18.846	1077.251	830.133
25.921	18.957	1075.504	829.247
26.936	18.934	1074.006	827.911
27.950	19.069	1072.664	827.452
28.965	18.870	1071.956	825.876
29.980	19.236	1070.158	826.175
30.994	19.266	1069.558	825.782
32.009	19.344	1068.426	825.205
33.023	19.248	1067.457	823.928
34.038	19.099	1066.362	822.296
35.053	19.005	1065.357	821.001
36.067	19.167	1064.302	820.887
37.082	19.083	1063.886	820.095
38.096	19.236	1063.042	820.100
39.111	19.287	1062.269	819.674
40.126	19.038	1060.794	817.281
41.140	18.741	1059.568	814.853
42.155	18.558	1057.719	812.493
43.169	18.575	1056.665	811.689
44.184	18.573	1055.789	810.939
45.199	18.568	1055.434	810.569
46.213	18.795	1053.938	810.421
47.228	19.032	1053.527	811.147
48.242	18.981	1052.625	810.143
49.257	18.969	1051.830	809.401
50.271	19.175	1050.783	809.495
51.286	19.197	1050.047	808.960
52.301	19.119	1048.797	807.556
53.315	18.907	1048.101	805.955
54.330	18.791	1046.917	804.430
55.344	18.707	1045.904	803.191
56.359	18.852	1044.630	802.818
57.374	18.760	1043.912	801.767
58.388	18.510	1043.442	800.165
59.403	18.574	1042.098	799.365
60.417	18.549	1041.836	798.974
61.432	18.431	1041.318	797.956
62.447	18.523	1039.780	797.137
63.461	18.365	1038.878	795.642
64.476	18.297	1038.065	794.632
65.490	18.233	1037.361	793.725
66.505	18.504	1036.689	794.395
67.520	18.484	1036.165	793.833
68.534	18.342	1035.122	792.308
69.549	18.294	1034.502	791.540
70.563	18.248	1033.484	790.478
71.578	18.198	1032.408	789.353
72.593	18.158	1031.743	788.594
73.607	18.153	1031.025	787.952
74.622	18.118	1030.668	787.446
75.636	18.202	1030.397	787.558
76.651	18.320	1029.157	787.082
77.666	18.171	1028.714	785.986
78.680	18.336	1028.079	786.193
79.695	18.318	1028.127	786.077
80.709	18.442	1027.001	785.715
81.724	18.618	1026.480	786.054
82.739	18.745	1025.563	785.861
83.753	18.998	1025.389	786.817
84.768	19.246	1024.488	787.189
85.782	19.481	1023.649	787.545
86.797	19.251	1022.823	785.791
87.812	19.099	1021.675	784.151
88.826	19.161	1020.750	783.654
89.841	19.195	1020.077	783.222
90.855	19.392	1018.787	783.055
91.870	19.284	1018.423	782.214
92.884	19.342	1017.293	781.541
93.899	19.290	1016.745	780.816
94.914	19.475	1015.450	780.590
95.928	19.217	1014.870	778.906
96.943	19.212	1013.414	777.697
97.957	19.132	1013.175	777.083
98.972	19.009	1012.621	776.036
99.987	19.252	1011.072	775.878
101.001	19.362	1010.151	775.593
102.016	19.275	1008.628	773.966
103.030	19.278	1008.634	773.916
104.045	19.100	1007.898	772.482
105.060	19.024	1007.022	771.404
106.074	18.814	1005.114	768.933
107.089	18.501	1004.343	766.878
108.103	18.448	1003.285	765.765
109.118	18.290	1002.711	764.551
110.133	18.332	1001.650	763.863
111.147	18.403	1000.281	763.068
112.162	18.407	999.921	762.742
113.176	18.587	999.294	762.997
114.191	18.555	998.909	762.496
115.206	18.598	997.616	761.631
116.220	18.518	996.781	760.571
117.235	18.481	995.864	759.639
118.249	18.443	995.135	758.847
119.264	18.374	994.462	757.964
120.279	18.437	993.174	757.192
121.293	18.211	992.678	755.749
122.308	18.260	991.141	754.727
123.322	18.098	990.192	753.227
124.337	18.102	989.517	752.663
125.352	18.086	988.700	751.906
126.366	18.192	987.467	751.366
127.381	18.193	986.417	750.506
128.395	18.224	985.565	749.925
129.410	18.235	984.850	749.365
130.424	18.392	983.795	749.181
131.439	18.594	983.429	749.719
132.454	18.598	982.642	749.069
133.468	18.737	981.625	748.837
134.483	18.507	981.341	747.551
135.497	18.661	980.081	747.196
136.512	18.685	979.196	746.560
137.527	18.667	978.073	745.559
138.541	18.605	978.407	745.478
139.556	18.755	977.538	745.401
140.570	18.985	976.203	745.312
141.585	19.147	975.807	745.644
142.600	19.136	975.074	744.974
143.614	19.301	974.261	744.997
144.629	19.435	973.324	744.797
145.643	19.219	972.526	743.186
146.658	18.915	971.701	741.182
147.673	18.845	970.255	739.711
148.687	18.685	969.017	738.012
149.702	18.627	968.169	737.053
150.716	18.710	967.303	736.683
151.731	18.713	966.615	736.109
152.746	18.664	966.326	735.614
153.760	18.843	965.178	735.442
154.775	18.910	964.922	735.467
155.789	18.902	964.372	734.948
156.804	18.998	963.377	734.534
157.819	19.251	962.566	734.930
158.833	19.291	962.282	734.820
159.848	19.358	961.640	734.548
160.862	19.224	960.417	732.979
161.877	18.812	959.295	730.308
162.892	18.704	957.936	728.751
163.906	18.660	956.994	727.782
164.921	18.705	956.301	727.382
165.935	18.806	955.645	727.246
166.950	18.908	954.770	726.947
167.964	18.852	953.737	725.860
168.979	18.680	952.692	724.275
169.994	18.922	951.608	724.408
171.008	18.841	951.707	724.075
172.023	18.997	951.096	724.205
173.037	19.268	950.239	724.627
174.052	19.175	949.437	723.560
175.067	18.724	948.577	720.948
176.081	18.709	947.772	720.209
177.096	18.787	946.984	719.875
178.110	18.664	946.530	718.950
179.125	18.698	945.892	718.543
180.140	18.804	945.815	718.865
181.154	19.029	945.343	719.383
182.169	19.107	945.526	719.785
183.183	19.211	944.267	719.198
184.198	19.246	943.425	718.640
185.213	19.264	942.933	718.277
186.227	19.237	942.370	717.670
187.242	19.303	941.765	717.419
188.256	19.470	941.317	717.710
189.271	19.479	940.427	717.007
190.286	19.229	939.203	714.974
191.300	18.559	938.430	711.543
192.315	18.502	937.290	710.376
193.329	18.474	937.512	710.368
194.344	18.946	936.284	711.327
195.359	19.035	936.215	711.581
196.373	19.144	935.319	711.286
197.388	19.363	934.828	711.755
198.402	19.482	935.029	712.337
199.417	19.577	934.036	711.908
200.432	19.729	933.439	712.015
201.446	19.805	933.231	712.107
202.461	19.893	932.415	711.784
203.475	19.732	931.931	710.689
204.490	19.351	931.254	708.544
205.504	19.404	929.778	707.578
206.519	19.174	929.253	706.170
207.534	19.398	928.066	706.124
208.548	19.401	928.117	706.113
209.563	19.415	927.434	705.588
210.577	19.344	927.124	704.999
211.592	19.598	926.285	705.335
212.607	19.661	925.630	705.032
213.621	19.584	924.614	703.884
214.636	19.509	924.569	703.478
215.650	19.576	923.898	703.181
216.665	19.711	923.044	703.019
217.680	19.835	922.352	702.931
218.694	19.771	921.947	702.302
219.709	19.746	921.009	701.425
220.723	19.685	920.753	700.917
221.738	19.615	919.663	699.741
222.753	19.693	919.128	699.588
223.767	19.698	918.639	699.176
224.782	20.017	918.022	699.935
225.796	20.015	917.656	699.584
226.811	19.717	916.659	697.559
227.826	19.584	916.319	696.703
228.840	19.548	915.491	695.868
229.855	19.562	914.415	695.043
230.869	19.474	913.759	694.130
231.884	19.567	912.743	693.669
232.899	19.443	911.971	692.522
233.913	19.307	911.465	691.534
234.928	19.394	910.378	690.995
235.942	19.318	909.807	690.197
236.957	19.274	909.813	689.964
237.972	19.357	908.844	689.501
238.986	19.481	908.073	689.351
240.001	19.343	908.235	688.862
241.015	19.438	907.441	688.576
242.030	19.564	906.655	688.423
243.045	19.656	906.191	688.373
244.059	19.500	905.768	687.369
245.074	19.860	904.882	688.071
246.088	19.842	904.341	687.527
247.103	20.055	903.466	687.645
248.117	20.037	903.894	687.840
249.132	20.323	903.215	688.396
250.147	20.515	902.789	688.772
251.161	20.458	902.633	688.365
252.176	20.558	901.672	687.967
253.190	20.777	900.882	688.172
254.205	20.784	900.350	687.731
255.220	20.504	899.571	685.968
256.234	20.493	898.914	685.364
257.249	20.630	898.127	685.241
258.263	20.537	897.226	684.129
259.278	20.526	897.028	683.875
260.293	20.511	896.722	683.520
261.307	20.923	895.468	684.122
262.322	20.797	895.414	683.525
263.336	20.727	894.558	682.539
264.351	21.050	893.145	682.664
265.366	20.792	893.222	681.652
266.380	20.741	892.366	680.738
267.395	20.711	891.837	680.159
268.409	20.523	890.715	678.508
269.424	20.641	889.999	678.362
270.439	20.529	889.264	677.308
271.453	20.476	888.656	676.577
272.468	20.499	888.183	676.246
273.482	20.352	887.661	675.219
274.497	20.341	887.363	674.887
275.512	20.448	886.303	674.438
276.526	20.366	886.237	674.010
277.541	20.610	885.529	674.357
278.555	20.864	885.033	674.907
279.570	20.900	884.613	674.666
280.585	20.772	883.821	673.507
281.599	20.732	882.806	672.517
282.614	20.471	882.269	671.040
283.628	20.509	881.449	670.507
284.643	20.666	880.391	670.244
285.657	20.488	880.396	669.505
286.672	20.626	879.725	669.465
287.687	20.513	879.195	668.570
288.701	20.640	878.342	668.351
289.716	20.664	878.118	668.212
290.730	20.751	877.660	668.137
291.745	20.656	876.895	667.134
292.760	20.890	876.228	667.462
293.774	21.146	875.605	667.909
294.789	20.718	874.883	665.662
295.803	20.628	874.481	664.953
296.818	20.541	873.470	663.795
297.833	20.657	872.984	663.809
298.847	20.695	872.413	663.461
299.862	20.683	871.880	662.951
300.876	20.867	871.416	663.241
301.891	21.116	871.032	663.835
302.906	21.090	870.288	663.111
303.920	21.169	870.388	663.429
304.935	21.389	869.149	663.260
305.949	21.201	868.928	662.322
306.964	20.955	868.207	660.778
307.979	20.994	867.529	660.353
308.993	21.203	867.474	661.043
310.008	21.169	866.437	660.067
311.022	21.051	866.009	659.235
312.037	20.971	865.247	658.296
313.052	20.663	864.439	656.461
314.066	20.633	863.646	655.687
315.081	20.677	863.274	655.512
316.095	20.684	862.469	654.871
317.110	20.658	861.963	654.330
318.125	20.682	861.353	653.898
319.139	20.681	861.251	653.760
320.154	20.639	860.933	653.301
321.168	20.743	859.910	652.858
322.183	20.900	859.316	652.938
323.197	20.821	858.923	652.287
324.212	20.933	858.635	652.431
325.227	20.980	857.597	651.760
326.241	20.790	857.213	650.701
327.256	20.795	856.550	650.159
328.270	20.791	855.909	649.598
329.285	20.860	855.342	649.368
330.300	20.660	855.036	648.332
331.314	20.865	854.236	648.432
332.329	21.012	853.733	648.540
333.343	21.189	853.589	649.031
334.358	21.142	853.495	648.726
335.373	21.099	852.998	648.131
336.387	21.180	852.744	648.184
337.402	21.155	852.823	648.092
338.416	21.302	852.699	648.488
339.431	21.607	851.904	648.957
340.446	21.624	851.593	648.725
341.460	21.818	851.112	649.018
342.475	21.758	850.866	648.551
343.489	21.654	850.603	647.907
344.504	21.773	849.983	647.817
345.519	21.773	849.763	647.594
346.533	21.701	848.903	646.615
347.548	21.557	848.118	645.428
348.562	21.322	847.364	643.931
349.577	21.246	846.529	642.962
350.592	21.230	846.149	642.555
351.606	21.040	845.265	641.129
352.621	21.304	844.688	641.604
353.635	21.284	844.135	641.056
354.650	21.428	843.345	640.927
355.665	21.493	842.686	640.606
356.679	21.618	842.083	640.548
357.694	21.595	841.411	639.896
358.708	21.486	840.970	639.108
359.723	21.514	840.439	638.750
360.738	21.394	839.940	637.875
361.752	21.632	839.023	637.989
362.767	21.787	838.642	638.206
363.781	21.860	838.483	638.295
364.796	22.066	837.964	638.593
365.810	22.064	837.736	638.355
366.825	22.091	837.691	638.361
367.840	22.018	836.893	637.433
368.854	21.888	836.311	636.464
369.869	21.898	835.354	635.713
370.883	22.030	834.874	635.769
371.898	21.941	835.001	635.490
372.913	22.062	834.387	635.402
373.927	21.872	834.218	634.531
374.942	21.889	833.738	634.170
375.956	22.170	832.950	634.529
376.971	22.387	832.656	635.033
377.986	22.342	832.781	634.909
379.000	22.434	831.817	634.450
380.015	22.427	831.070	633.800
381.029	22.247	830.642	632.769
382.044	22.254	829.915	632.185
383.059	22.364	829.585	632.271
384.073	22.104	828.952	630.802
385.088	21.892	828.101	629.337
386.102	21.899	827.400	628.773
387.117	21.850	826.866	628.137
388.132	21.822	826.247	627.509
389.146	21.947	825.634	627.436
390.161	22.099	825.453	627.785
391.175	22.306	825.032	628.148
392.190	22.050	824.238	626.576
393.205	22.032	823.720	626.062
394.219	21.986	823.189	625.441
395.234	21.857	822.861	624.676
396.248	21.729	822.429	623.836
397.263	21.712	821.648	623.129
398.278	21.460	821.588	622.132
399.292	21.486	821.420	622.041
400.307	21.794	820.398	622.305
401.321	21.713	820.207	621.819
402.336	21.864	819.654	621.881
403.350	22.177	818.765	622.259
404.365	22.101	818.944	622.072
405.380	22.371	818.663	622.759
406.394	22.461	817.734	622.314
407.409	22.505	817.563	622.286
408.423	22.540	817.630	622.403
409.438	22.693	817.114	622.497
410.453	22.639	816.643	621.893
411.467	22.729	816.071	621.719
412.482	22.786	815.954	621.776
413.496	22.893	815.703	621.905
414.511	22.860	815.182	621.339
415.526	22.746	814.261	620.180
416.540	22.786	813.482	619.672
417.555	22.659	813.856	619.456
418.569	22.745	813.360	619.327
419.584	22.692	812.868	618.709
420.599	22.692	812.215	618.159
421.613	164.204	1371.799	1796.308
422.628	143.079	1453.311	1796.393
