DTS Sentinel unit serial number:	SN413079Multiplexer serial number:	ORYXHardware model number:	OX4-SRSoftware version number:	ORYX F/W v4.00 Oryx Data Collector v3.7.2.0data status	okinstallation	princeton_trtdifferential loss correction	single-endedforward channel	channel 1reverse channel	N/Adate	2019/09/11time	01:28:12forward acquisition time	60.00reverse acquisition time	0.00gamma	496.2192k internal	0.2331k external	0.2331temperature offset calibration	0.9930default loss term (dB/km)	0.3790temperature slope calibration	1.0000multiplexer offset coefficient	1.0000multiplexer slope coefficient	1.0000fibre end	0.00T internal ref (°C)	29.12T ext. ref 1 (°C)	-0.29T ext. ref 2 (°C)	23.51length (m)	temperature (°C)	Stokes	anti-Stokes-747.200	-59.756	0.278	-0.120
-746.185	201.578	-0.072	0.112
-745.171	53.241	-0.198	0.190
-744.156	-154.918	-0.258	-0.017
-743.142	259.307	0.123	-0.213
-742.127	-124.735	-0.423	-0.066
-741.112	118.811	-0.218	0.271
-740.098	-200.000	-0.075	-0.000
-739.083	-124.045	0.275	0.043
-738.069	113.651	0.283	0.346
-737.054	-129.381	0.028	0.004
-736.039	-200.000	0.013	0.133
-735.025	-200.000	-0.018	0.190
-734.010	-105.397	-0.313	-0.072
-732.996	83.113	0.244	-0.267
-731.981	-159.910	-0.189	0.010
-730.966	-200.000	-0.030	-0.303
-729.952	104.581	-0.098	-0.117
-728.937	232.232	-0.162	0.268
-727.923	-55.359	-0.289	0.130
-726.908	-45.148	0.094	-0.047
-725.894	241.700	0.115	-0.194
-724.879	70.102	-0.148	-0.154
-723.864	-73.646	0.044	0.016
-722.850	339.671	0.050	-0.097
-721.835	800.000	0.056	-0.215
-720.821	60.828	0.056	0.056
-719.806	-133.230	0.120	-0.015
-718.791	-116.694	-0.163	-0.030
-717.777	-12.379	0.131	-0.086
-716.762	-57.863	-0.349	-0.153
-715.748	-118.779	0.414	0.073
-714.733	-154.782	0.371	-0.025
-713.718	800.000	0.081	0.264
-712.704	416.708	-0.066	0.141
-711.689	-24.003	-0.259	0.156
-710.675	133.739	-0.151	0.196
-709.660	-200.000	-0.012	-0.077
-708.645	-200.000	-0.005	-0.424
-707.631	159.920	0.062	-0.087
-706.616	-27.317	0.311	0.182
-705.602	181.857	-0.173	-0.256
-704.587	455.553	-0.131	0.291
-703.572	146.726	-0.210	0.283
-702.558	62.338	-0.147	-0.147
-701.543	-132.140	-0.256	0.033
-700.529	53.049	0.159	0.153
-699.514	-200.000	0.015	-0.215
-698.499	-77.941	-0.082	-0.028
-697.485	91.264	-0.085	-0.096
-696.470	-17.615	0.145	0.092
-695.456	-200.000	-0.022	0.151
-694.441	26.896	0.169	-0.142
-693.426	16.544	-0.036	0.028
-692.412	-79.089	0.109	-0.037
-691.397	200.912	-0.137	0.212
-690.383	-10.096	-0.047	-0.031
-689.368	-87.804	0.025	0.008
-688.354	543.544	0.089	-0.213
-687.339	139.504	0.156	0.206
-686.324	-45.942	-0.074	-0.036
-685.310	-33.310	-0.042	-0.023
-684.295	-200.000	0.024	-0.228
-683.281	530.989	0.103	0.245
-682.266	64.632	-0.108	-0.110
-681.251	421.618	-0.090	-0.193
-680.237	-42.437	-0.298	0.152
-679.222	207.632	0.093	-0.146
-678.208	-85.693	-0.119	0.037
-677.193	800.000	-0.086	0.293
-676.178	-2.637	-0.265	-0.186
-675.164	133.370	0.212	-0.276
-674.149	352.684	0.133	0.264
-673.135	-16.627	-0.413	-0.262
-672.120	44.240	0.163	0.151
-671.105	-130.779	0.175	-0.024
-670.091	-70.982	-0.240	0.091
-669.076	-170.517	0.055	-0.002
-668.062	800.000	0.079	-0.330
-667.047	800.000	-0.096	-0.325
-666.032	-200.000	-0.013	-0.234
-665.018	-19.053	0.188	0.117
-664.003	273.803	0.087	0.155
-662.989	5.187	-0.058	0.043
-661.974	58.903	0.077	0.076
-660.959	-30.393	0.280	-0.159
-659.945	-200.000	-0.028	-0.148
-658.930	101.856	0.145	-0.170
-657.916	800.000	-0.060	0.211
-656.901	-83.185	0.294	0.095
-655.886	-100.539	-0.384	-0.095
-654.872	203.115	-0.046	-0.072
-653.857	36.946	0.175	0.155
-652.843	-150.532	-0.381	0.029
-651.828	-103.830	-0.274	0.064
-650.814	800.000	0.084	-0.303
-649.799	-86.203	0.203	-0.063
-648.784	-181.437	-0.431	-0.008
-647.770	87.885	-0.195	-0.216
-646.755	142.041	0.126	-0.167
-645.741	-200.000	-0.041	-0.381
-644.726	4.620	0.216	0.159
-643.711	148.847	0.189	0.257
-642.697	-115.061	-0.261	0.050
-641.682	-39.400	0.199	-0.105
-640.668	-154.397	0.126	0.008
-639.653	-149.971	-0.102	0.008
-638.638	-149.487	0.237	0.019
-637.624	800.000	-0.055	-0.173
-636.609	632.345	-0.079	0.200
-635.595	276.375	0.084	0.149
-634.580	260.565	0.095	-0.165
-633.565	-132.240	-0.296	0.038
-632.551	263.819	-0.106	0.185
-631.536	-127.457	-0.251	-0.037
-630.522	-68.882	0.228	-0.088
-629.507	90.573	0.237	-0.266
-628.492	800.000	0.049	-0.168
-627.478	-48.959	-0.043	-0.021
-626.463	-53.029	-0.354	-0.163
-625.449	33.502	0.253	0.220
-624.434	466.862	0.021	0.046
-623.419	-200.000	0.013	-0.130
-622.405	-200.000	0.003	-0.356
-621.390	263.812	0.130	-0.226
-620.376	-35.536	-0.339	-0.184
-619.361	800.000	0.034	0.108
-618.346	75.605	0.105	-0.111
-617.332	800.000	0.034	0.140
-616.317	-200.000	-0.001	-0.288
-615.303	-111.133	-0.179	0.037
-614.288	-75.893	-0.216	-0.076
-613.273	-50.232	-0.172	0.081
-612.259	317.572	-0.067	0.128
-611.244	-34.159	0.234	-0.129
-610.230	262.416	-0.170	0.295
-609.215	-0.257	0.277	0.197
-608.201	-50.627	0.292	-0.138
-607.186	-200.000	-0.016	0.087
-606.171	29.109	0.036	-0.030
-605.157	-200.000	0.019	-0.273
-604.142	-161.986	-0.150	-0.008
-603.128	75.283	0.128	0.135
-602.113	392.416	-0.105	-0.218
-601.098	-200.000	-0.009	0.177
-600.084	-2.131	-0.115	-0.081
-599.069	-200.000	0.035	0.203
-598.055	-151.904	0.211	-0.015
-597.040	-75.009	0.117	-0.042
-596.025	19.895	-0.145	-0.117
-595.011	18.213	-0.025	-0.020
-593.996	-68.788	0.096	0.037
-592.982	71.059	0.080	0.083
-591.967	303.762	-0.171	-0.317
-590.952	-60.988	0.199	-0.084
-589.938	-44.899	-0.325	0.162
-588.923	-21.148	-0.142	0.087
-587.909	97.720	-0.098	0.113
-586.894	-53.120	0.068	-0.031
-585.879	-200.000	-0.009	0.241
-584.865	-200.000	-0.048	-0.224
-583.850	-11.837	0.174	0.114
-582.836	-142.617	0.212	0.021
-581.821	94.521	0.213	-0.242
-580.806	-38.920	0.190	0.100
-579.792	621.080	0.056	0.142
-578.777	-52.806	0.437	0.201
-577.763	-113.517	0.174	-0.034
-576.748	580.565	-0.050	-0.122
-575.733	-68.228	0.201	-0.078
-574.719	-200.000	0.010	-0.069
-573.704	32.567	-0.159	-0.138
-572.690	622.966	0.113	-0.284
-571.675	-95.721	0.439	-0.117
-570.661	664.607	0.192	-0.496
-569.646	163.660	0.226	-0.318
-568.631	264.532	-0.062	0.108
-567.617	396.098	-0.142	-0.297
-566.602	-200.000	0.233	-0.000
-565.588	-200.000	-0.026	-0.126
-564.573	700.535	0.070	0.183
-563.558	264.373	-0.058	0.100
-562.544	315.223	0.092	0.173
-561.529	-200.000	-0.011	-0.059
-560.515	68.001	-0.193	-0.198
-559.500	124.866	0.118	0.148
-558.485	57.067	-0.328	-0.319
-557.471	-118.253	-0.046	-0.008
-556.456	800.000	0.045	-0.125
-555.442	-89.070	0.241	0.071
-554.427	800.000	0.049	-0.137
-553.412	-23.344	0.127	-0.076
-552.398	-200.000	-0.021	0.109
-551.383	-200.000	-0.007	0.037
-550.369	24.794	0.106	-0.088
-549.354	-31.687	-0.072	0.040
-548.339	800.000	0.093	0.321
-547.325	-8.153	0.245	0.165
-546.310	195.164	0.109	-0.165
-545.296	75.584	-0.069	-0.073
-544.281	-200.000	0.003	0.190
-543.266	337.309	-0.183	-0.356
-542.252	-200.000	0.046	-0.220
-541.237	-72.821	-0.124	-0.046
-540.223	24.027	-0.191	-0.157
-539.208	-200.000	-0.037	0.179
-538.193	-200.000	-0.016	-0.071
-537.179	-97.088	-0.302	-0.079
-536.164	13.878	-0.081	0.063
-535.150	800.000	0.086	0.302
-534.135	-16.054	0.285	-0.181
-533.121	-105.077	-0.243	-0.055
-532.106	-200.000	-0.046	-0.203
-531.091	-38.903	0.119	0.063
-530.077	-100.090	0.270	0.067
-529.062	-200.000	0.016	0.432
-528.048	-23.257	-0.258	0.155
-527.033	-200.000	-0.048	0.216
-526.018	-200.000	-0.091	0.511
-525.004	394.762	-0.069	-0.143
-523.989	22.252	-0.255	-0.208
-522.975	-200.000	-0.023	-0.217
-521.960	800.000	-0.081	0.257
-520.945	433.490	-0.142	0.308
-519.931	65.342	0.270	-0.273
-518.916	-80.351	0.306	-0.102
-517.902	800.000	-0.066	0.263
-516.887	47.315	0.043	-0.040
-515.872	-29.360	0.015	0.009
-514.858	-84.461	-0.375	-0.118
-513.843	601.482	-0.124	-0.307
-512.829	44.714	0.196	-0.180
-511.814	-31.083	-0.104	0.059
-510.799	72.736	0.057	-0.059
-509.785	155.648	-0.048	0.066
-508.770	-122.108	0.607	0.099
-507.756	77.926	-0.149	-0.158
-506.741	-200.000	-0.015	0.140
-505.726	231.177	0.133	-0.217
-504.712	-200.000	-0.034	0.248
-503.697	-200.000	0.014	0.323
-502.683	-200.000	0.005	0.269
-501.668	-200.000	-0.026	-0.154
-500.653	67.546	-0.086	0.087
-499.639	800.000	-0.077	0.296
-498.624	-200.000	-0.010	0.203
-497.610	40.726	-0.187	0.168
-496.595	182.143	0.267	0.393
-495.581	528.052	0.019	-0.046
-494.566	26.071	0.252	-0.209
-493.551	-126.647	0.430	-0.063
-492.537	282.124	-0.099	0.177
-491.522	800.000	-0.011	-0.034
-490.508	800.000	0.151	0.445
-489.493	-110.009	-0.215	-0.045
-488.478	-200.000	0.012	0.398
-487.464	-14.212	0.219	-0.141
-486.449	-200.000	-0.059	0.368
-485.435	-164.021	-0.159	0.007
-484.420	-53.671	0.203	0.092
-483.405	-112.387	0.061	0.012
-482.391	-200.000	0.024	0.205
-481.376	-15.057	-0.251	0.160
-480.362	800.000	0.034	0.104
-479.347	-51.669	0.303	-0.141
-478.332	362.947	0.088	-0.177
-477.318	-8.162	-0.219	0.147
-476.303	69.335	0.232	-0.237
-475.289	597.923	-0.044	-0.109
-474.274	-200.000	0.087	0.449
-473.259	-119.295	0.159	-0.028
-472.245	-5.902	-0.234	0.159
-471.230	374.111	-0.120	-0.244
-470.216	25.698	-0.108	0.090
-469.201	-8.025	-0.176	0.118
-468.186	674.535	0.094	-0.244
-467.172	800.000	0.041	0.129
-466.157	800.000	0.062	-0.191
-465.143	-15.451	0.062	0.039
-464.128	218.944	0.216	-0.344
-463.113	122.871	0.180	0.224
-462.099	-192.856	-0.182	-0.002
-461.084	-200.000	-0.032	0.149
-460.070	24.681	-0.111	0.092
-459.055	-141.180	0.241	0.024
-458.040	-170.149	0.434	-0.015
-457.026	-52.494	-0.195	0.090
-456.011	593.219	0.045	-0.112
-454.997	-28.726	-0.101	-0.058
-453.982	-42.497	0.232	0.118
-452.968	67.097	0.111	-0.113
-451.953	45.355	-0.046	0.043
-450.938	800.000	-0.160	-0.470
-449.924	-62.237	0.010	0.004
-448.909	8.878	0.139	0.104
-447.895	-40.386	0.259	0.134
-446.880	39.281	-0.094	0.084
-445.865	306.781	0.202	0.374
-444.851	-20.955	-0.192	-0.117
-443.836	466.081	-0.019	0.042
-442.822	-200.000	0.032	-0.303
-441.807	800.000	-0.081	0.243
-440.792	800.000	-0.098	0.313
-439.778	-200.000	-0.042	0.275
-438.763	47.700	-0.160	0.149
-437.749	51.101	0.111	-0.104
-436.734	-24.762	-0.246	0.145
-435.719	127.145	-0.108	0.136
-434.705	-58.210	-0.373	-0.162
-433.690	-65.118	0.123	-0.049
-432.676	800.000	0.079	0.229
-431.661	423.179	-0.322	-0.687
-430.646	-26.269	-0.324	-0.189
-429.632	88.684	0.224	0.247
-428.617	14.714	-0.211	0.164
-427.603	-111.746	0.292	-0.059
-426.588	-96.376	-0.350	0.092
-425.573	-45.945	0.002	-0.001
-424.559	127.545	0.111	0.141
-423.544	-79.702	0.169	0.057
-422.530	129.803	-0.011	0.014
-421.515	210.854	-0.016	-0.025
-420.500	800.000	0.029	-0.111
-419.486	158.543	-0.105	-0.145
-418.471	258.310	0.064	0.110
-417.457	94.642	0.168	-0.190
-416.442	-120.055	-0.107	0.018
-415.428	-200.000	0.089	-0.467
-414.413	63.804	0.179	0.179
-413.398	-200.000	0.059	-0.344
-412.384	459.517	0.057	-0.126
-411.369	155.475	-0.200	0.273
-410.355	-130.023	-0.211	-0.029
-409.340	215.027	-0.071	-0.111
-408.325	-21.984	0.240	-0.145
-407.311	-200.000	0.036	0.298
-406.296	800.000	0.052	-0.213
-405.282	-83.283	-0.259	0.083
-404.267	-25.881	0.163	-0.095
-403.252	-26.406	-0.157	0.091
-402.238	-200.000	-0.011	0.154
-401.223	117.907	-0.115	-0.140
-400.209	5.953	0.201	-0.148
-399.194	-81.114	-0.422	-0.139
-398.179	247.918	0.125	0.210
-397.165	-18.305	0.194	-0.120
-396.150	-77.779	-0.236	0.081
-395.136	-200.000	-0.009	-0.052
-394.121	-2.564	-0.104	-0.072
-393.106	-19.061	-0.139	-0.086
-392.092	-126.006	0.366	0.055
-391.077	-119.788	0.237	0.041
-390.063	800.000	0.074	-0.253
-389.048	517.575	0.108	0.252
-388.033	-64.421	0.253	-0.102
-387.019	11.621	0.173	-0.132
-386.004	-200.000	0.004	0.265
-384.990	-54.081	0.059	0.027
-383.975	-143.045	0.299	-0.029
-382.960	-26.899	0.240	-0.139
-381.946	-61.536	0.210	-0.087
-380.931	-200.000	0.035	-0.417
-379.917	459.072	-0.141	-0.311
-378.902	12.400	-0.184	0.141
-377.888	800.000	0.093	-0.307
-376.873	-200.000	0.002	-0.356
-375.858	-47.283	0.070	-0.034
-374.844	800.000	-0.012	-0.032
-373.829	94.126	-0.187	-0.210
-372.815	290.442	0.086	-0.155
-371.800	-200.000	0.032	-0.281
-370.785	88.892	0.286	0.316
-369.771	-122.615	0.169	-0.027
-368.756	443.401	0.185	-0.403
-367.742	436.413	-0.038	0.083
-366.727	71.616	-0.134	0.139
-365.712	-135.051	0.277	0.033
-364.698	-25.354	0.170	-0.099
-363.683	-133.379	0.321	-0.040
-362.669	-154.816	-0.258	0.017
-361.654	-99.976	-0.361	-0.089
-360.639	-200.000	0.014	-0.116
-359.625	128.231	0.113	-0.142
-358.610	-200.000	-0.035	0.176
-357.596	247.299	0.142	0.238
-356.581	-8.992	-0.261	0.173
-355.566	62.219	0.151	0.149
-354.552	-127.692	-0.181	-0.026
-353.537	211.377	0.035	0.055
-352.523	-90.017	-0.098	0.028
-351.508	476.615	0.070	-0.158
-350.493	-27.757	0.282	0.162
-349.479	-159.486	0.085	0.005
-348.464	-24.679	0.300	0.177
-347.450	-59.233	0.251	0.107
-346.435	-91.330	-0.197	0.056
-345.420	-80.217	-0.238	-0.079
-344.406	-200.000	0.020	-0.291
-343.391	-200.000	0.040	-0.283
-342.377	54.393	-0.151	0.144
-341.362	-83.308	-0.143	0.045
-340.348	800.000	-0.048	-0.169
-339.333	-60.583	0.188	-0.079
-338.318	800.000	-0.050	-0.163
-337.304	-200.000	0.040	-0.572
-336.289	-94.246	-0.116	-0.031
-335.275	113.425	0.011	0.013
-334.260	236.102	-0.118	-0.193
-333.245	-119.944	-0.055	0.009
-332.231	108.745	-0.315	0.373
-331.216	259.133	-0.155	0.264
-330.202	3.270	0.121	0.087
-329.187	81.330	0.287	-0.307
-328.172	-126.213	0.322	0.048
-327.158	99.374	-0.137	-0.157
-326.143	-14.918	-0.185	0.117
-325.129	37.685	-0.304	0.267
-324.114	292.472	0.029	0.052
-323.099	-26.670	0.026	0.015
-322.085	17.569	-0.178	-0.140
-321.070	-98.452	0.190	0.048
-320.056	470.786	-0.047	-0.104
-319.041	-81.618	0.221	0.072
-318.026	126.875	0.081	0.102
-317.012	103.252	-0.107	0.124
-315.997	-57.106	-0.223	-0.097
-314.983	-124.530	0.227	-0.035
-313.968	-67.973	0.253	0.098
-312.953	-3.936	-0.159	0.109
-311.939	-121.002	-0.156	0.026
-310.924	-132.455	-0.110	-0.014
-309.910	-6.759	-0.270	-0.182
-308.895	181.138	-0.093	0.136
-307.880	-50.966	0.022	0.010
-306.866	-200.000	0.038	0.166
-305.851	800.000	0.067	0.249
-304.837	-65.533	-0.222	0.088
-303.822	-200.000	0.012	0.336
-302.807	-50.549	-0.175	0.081
-301.793	329.227	0.066	-0.126
-300.778	742.693	-0.027	0.072
-299.764	-155.310	-0.196	0.013
-298.749	-182.691	-0.129	0.002
-297.735	130.692	0.082	-0.104
-296.720	331.096	0.073	-0.139
-295.705	134.121	-0.191	0.244
-294.691	-200.000	0.011	-0.078
-293.676	-62.977	-0.205	-0.084
-292.662	361.442	0.160	-0.317
-291.647	-159.209	-0.056	0.003
-290.632	-200.000	0.041	0.288
-289.618	346.730	-0.071	-0.139
-288.603	19.914	0.492	0.392
-287.589	115.600	-0.116	-0.140
-286.574	30.637	0.106	-0.090
-285.559	-37.404	-0.334	0.177
-284.545	-92.875	0.100	-0.028
-283.530	245.309	0.129	0.215
-282.516	-200.000	0.020	0.134
-281.501	-200.000	-0.055	0.376
-280.486	800.000	-0.090	0.357
-279.472	-179.528	-0.171	0.004
-278.457	-200.000	0.027	0.151
-277.443	-136.054	-0.093	-0.011
-276.428	-67.692	0.034	0.013
-275.413	413.793	-0.137	-0.289
-274.399	342.937	-0.171	-0.331
-273.384	-200.000	-0.018	0.092
-272.370	-200.000	-0.045	0.216
-271.355	-88.953	-0.283	-0.083
-270.340	-88.738	-0.105	0.031
-269.326	75.300	0.260	0.271
-268.311	-63.810	-0.154	-0.062
-267.297	-72.856	0.169	-0.061
-266.282	-184.644	-0.174	0.003
-265.267	-84.803	-0.389	-0.121
-264.253	470.749	-0.048	0.108
-263.238	-11.476	0.224	0.146
-262.224	-200.000	0.006	-0.050
-261.209	800.000	0.009	0.038
-260.195	107.519	-0.077	0.090
-259.180	100.818	0.109	-0.125
-258.165	151.967	-0.150	-0.201
-257.151	800.000	-0.034	-0.129
-256.136	-200.000	-0.007	0.278
-255.122	-181.574	0.162	0.003
-254.107	493.817	-0.115	0.261
-253.092	-200.000	0.041	-0.196
-252.078	-123.721	-0.222	-0.035
-251.063	90.878	0.194	-0.215
-250.049	87.710	0.173	0.189
-249.034	-166.272	-0.317	0.013
-248.019	-33.969	-0.095	-0.052
-247.005	-145.010	0.218	-0.020
-245.990	160.938	-0.259	-0.357
-244.976	-200.000	-0.273	0.001
-243.961	-11.164	0.252	0.164
-242.946	-118.834	0.111	-0.019
-241.932	27.405	-0.186	-0.155
-240.917	-142.863	-0.279	-0.027
-239.903	-16.987	-0.296	0.185
-238.888	800.000	-0.027	0.093
-237.873	769.427	0.021	-0.056
-236.859	-104.330	0.147	-0.034
-235.844	-78.667	-0.317	-0.107
-234.830	36.572	0.097	-0.084
-233.815	40.641	0.336	0.299
-232.800	-8.305	-0.194	0.129
-231.786	-119.376	0.139	0.024
-230.771	-131.592	0.097	0.013
-229.757	127.906	-0.030	0.038
-228.742	-129.293	0.065	-0.009
-227.727	207.661	-0.153	0.235
-226.713	121.492	0.282	-0.347
-225.698	-190.835	-0.152	0.002
-224.684	-176.106	-0.240	-0.006
-223.669	-99.305	0.044	-0.011
-222.655	447.780	0.156	0.338
-221.640	-156.305	0.472	-0.029
-220.625	210.611	-0.044	-0.069
-219.611	-15.381	-0.238	-0.150
-218.596	226.445	-0.075	0.120
-217.582	458.714	-0.138	-0.302
-216.567	515.562	-0.144	0.331
-215.552	800.000	-0.092	0.284
-214.538	21.266	-0.223	-0.179
-213.523	-149.212	-0.141	0.011
-212.509	-61.180	-0.183	-0.076
-211.494	-29.958	-0.480	-0.269
-210.479	243.609	-0.084	-0.138
-209.465	800.000	-0.033	0.129
-208.450	337.053	-0.021	0.041
-207.436	800.000	0.015	0.043
-206.421	-200.000	-0.025	-0.127
-205.406	800.000	0.115	0.319
-204.392	-200.000	0.075	0.344
-203.377	30.502	0.069	0.058
-202.363	-200.000	-0.008	0.094
-201.348	121.143	-0.127	-0.156
-200.333	119.298	-0.058	0.071
-199.319	125.728	-0.087	0.108
-198.304	-136.804	-0.137	0.016
-197.290	-200.000	-0.048	-0.211
-196.275	-38.601	0.163	-0.085
-195.260	-3.080	-0.347	0.238
-194.246	87.512	-0.256	-0.279
-193.231	568.138	0.056	0.133
-192.217	-107.866	0.266	-0.057
-191.202	-200.000	0.019	0.092
-190.187	-200.000	0.065	0.376
-189.173	308.756	0.100	-0.184
-188.158	-82.604	-0.400	0.128
-187.144	-200.000	0.031	0.199
-186.129	-92.566	0.206	-0.057
-185.114	-200.000	0.007	-0.343
-184.100	-47.344	-0.017	0.008
-183.085	-200.000	0.019	-0.331
-182.071	-15.597	0.307	0.193
-181.056	-103.298	-0.213	0.050
-180.042	97.633	0.370	-0.419
-179.027	-142.597	0.129	0.012
-178.012	72.947	-0.055	-0.056
-176.998	-107.975	0.032	-0.007
-175.983	-72.449	0.135	0.049
-174.969	-200.000	0.020	0.208
-173.954	-200.000	0.032	-0.376
-172.939	-5.374	0.120	-0.081
-171.925	-200.000	-0.001	0.028
-170.910	148.454	-0.069	0.092
-169.896	-23.255	0.462	0.274
-168.881	-200.000	0.001	0.217
-167.866	84.391	-0.120	0.129
-166.852	156.683	-0.217	0.295
-165.837	-31.193	-0.341	-0.189
-164.823	-140.838	-0.355	-0.036
-163.808	153.160	0.190	-0.255
-162.793	-93.534	0.181	-0.049
-161.779	-46.125	-0.319	0.154
-160.764	22.599	-0.051	-0.041
-159.750	115.578	-0.172	-0.207
-158.735	-49.699	0.180	-0.084
-157.720	-115.443	0.279	0.052
-156.706	-182.510	0.225	-0.004
-155.691	620.954	-0.017	0.042
-154.677	-70.242	-0.151	-0.056
-153.662	-83.374	-0.120	-0.038
-152.647	-200.000	-0.067	0.389
-151.633	692.638	-0.089	-0.230
-150.618	88.691	-0.212	0.232
-149.604	-200.000	-0.038	0.264
-148.589	437.502	0.196	0.421
-147.574	271.080	-0.096	-0.165
-146.560	-110.993	0.129	0.026
-145.545	569.056	0.047	0.113
-144.531	125.518	-0.048	-0.059
-143.516	-162.607	0.172	0.008
-142.502	88.824	-0.134	0.147
-141.487	70.067	-0.198	-0.201
-140.472	105.240	0.200	-0.232
-139.458	-49.609	-0.189	0.088
-138.443	-200.000	0.043	-0.350
-137.429	238.289	0.081	-0.133
-136.414	800.000	-0.037	-0.113
-135.399	200.739	-0.182	-0.275
-134.385	-145.433	0.504	-0.045
-133.370	-120.083	-0.221	-0.037
-132.356	-31.346	0.377	0.209
-131.341	800.000	-0.027	-0.092
-130.326	-27.146	-0.343	-0.197
-129.312	-200.000	0.026	0.162
-128.297	-105.079	0.165	0.037
-127.283	15.291	-0.074	0.057
-126.268	68.074	0.071	-0.072
-125.253	108.031	-0.148	0.173
-124.239	145.260	0.122	0.161
-123.224	154.114	-0.072	0.098
-122.210	43.515	-0.144	-0.129
-121.195	742.445	-0.080	-0.210
-120.180	224.351	-0.216	0.342
-119.166	76.335	0.116	0.121
-118.151	-200.000	0.002	-0.070
-117.137	236.483	-0.109	0.177
-116.122	800.000	-0.091	0.297
-115.107	122.357	-0.221	0.272
-114.093	-118.908	-0.073	-0.013
-113.078	800.000	0.055	-0.179
-112.064	453.284	-0.051	-0.112
-111.049	50.131	-0.115	-0.106
-110.034	-200.000	-0.012	0.127
-109.020	-63.144	0.175	-0.071
-108.005	-129.068	0.182	0.025
-106.991	358.243	0.111	0.218
-105.976	-116.448	0.129	0.023
-104.962	25.078	-0.172	0.140
-103.947	-104.801	-0.435	0.098
-102.932	800.000	-0.111	0.302
-101.918	207.336	0.142	-0.218
-100.903	337.172	0.176	-0.335
-99.889	513.669	0.085	0.196
-98.874	420.782	-0.096	-0.202
-97.859	-130.691	-0.203	0.027
-96.845	-200.000	0.046	-0.362
-95.830	255.133	0.150	0.252
-94.816	262.525	-0.329	0.560
-93.801	-157.866	0.292	-0.017
-92.786	-10.732	0.277	0.180
-91.772	-200.000	0.023	0.357
-90.757	-29.003	-0.205	-0.116
-89.743	93.407	-0.111	-0.123
-88.728	-200.000	0.063	0.311
-87.713	-200.000	0.024	0.167
-86.699	-200.000	-0.033	0.305
-85.684	-120.586	-0.285	-0.047
-84.670	-200.000	0.024	0.380
-83.655	38.971	-0.395	0.346
-82.640	-31.606	0.157	0.087
-81.626	284.484	-0.099	-0.175
-80.611	407.724	-0.101	0.210
-79.597	-101.180	-0.263	-0.063
-78.582	5.444	-0.246	-0.178
-77.567	537.622	0.056	0.131
-76.553	-3.532	-0.297	-0.203
-75.538	-45.201	-0.115	0.056
-74.524	-165.883	0.272	-0.011
-73.509	377.890	0.029	-0.057
-72.494	46.138	0.123	0.112
-71.480	111.526	-0.255	0.302
-70.465	138.707	0.158	-0.203
-69.451	41.203	-0.078	-0.069
-68.436	75.289	0.156	-0.162
-67.422	-4.140	-0.309	-0.210
-66.407	-200.000	-0.025	0.133
-65.392	-36.415	0.230	0.122
-64.378	-200.000	-0.001	0.060
-63.363	262.557	-0.227	-0.385
-62.349	-200.000	0.002	0.365
-61.334	11.271	-1.035	-0.776
-60.319	381.617	0.282	0.568
-59.305	800.000	-0.345	-0.988
-58.290	259.169	0.822	1.390
-57.276	-200.000	0.201	1.398
-56.261	-200.000	107.042	627.654
-55.246	522.666	1514.889	3485.730
-54.232	176.185	2703.546	3846.080
-53.217	111.986	2161.202	2557.494
-52.203	41.155	1599.577	1415.820
-51.188	32.725	1336.500	1132.552
-50.173	29.554	1295.946	1079.634
-49.159	53.755	1350.919	1270.598
-48.144	53.941	1365.259	1285.143
-47.130	32.651	1320.171	1118.099
-46.115	29.274	1302.456	1083.244
-45.100	29.168	1297.338	1078.323
-44.086	28.982	1294.953	1075.208
-43.071	29.008	1292.700	1073.449
-42.057	28.971	1290.765	1071.582
-41.042	28.910	1289.384	1070.038
-40.027	29.028	1287.340	1068.988
-39.013	29.003	1285.368	1067.161
-37.998	28.999	1283.415	1065.472
-36.984	29.096	1281.768	1064.623
-35.969	29.156	1279.949	1063.416
-34.954	29.193	1278.238	1062.170
-33.940	29.220	1276.629	1060.946
-32.925	29.135	1275.659	1059.609
-31.911	29.092	1274.489	1058.349
-30.896	29.244	1272.892	1057.849
-29.881	29.212	1271.720	1056.654
-28.867	29.242	1269.813	1055.200
-27.852	29.275	1268.514	1054.267
-26.838	29.255	1267.284	1053.084
-25.823	29.270	1266.184	1052.213
-24.809	29.147	1264.527	1050.094
-23.794	29.090	1263.675	1049.020
-22.779	29.210	1262.200	1048.440
-21.765	29.258	1260.710	1047.432
-20.750	29.309	1259.326	1046.529
-19.736	29.119	1258.431	1044.665
-18.721	29.116	1256.997	1043.416
-17.706	29.038	1255.906	1042.031
-16.692	29.102	1254.356	1041.066
-15.677	29.106	1253.591	1040.412
-14.663	29.076	1252.611	1039.386
-13.648	29.040	1251.840	1038.500
-12.633	29.115	1250.560	1037.824
-11.619	29.120	1249.699	1037.096
-10.604	29.083	1248.950	1036.223
-9.590	29.045	1247.629	1034.871
-8.575	28.925	1247.435	1033.996
-7.560	29.055	1246.345	1033.783
-6.546	29.050	1245.570	1033.070
-5.531	29.090	1244.436	1032.312
-4.517	29.092	1243.732	1031.697
-3.502	29.190	1243.076	1031.664
-2.487	29.048	1242.074	1029.996
-1.473	29.115	1237.955	1026.913
-0.458	27.764	1223.153	1007.141
0.556	22.040	1206.338	970.273
1.571	18.671	1212.416	956.337
2.586	18.084	1226.933	964.389
3.600	17.931	1216.677	955.385
4.615	13.072	1145.272	873.587
5.629	4.082	1071.070	772.257
6.644	0.012	1050.593	737.491
7.659	-0.404	1048.390	733.843
8.673	-0.365	1046.960	732.968
9.688	-0.422	1045.555	731.640
10.702	-0.157	1044.243	731.952
11.717	5.419	1051.991	764.635
12.731	14.567	1065.204	819.286
13.746	19.142	1071.196	846.362
14.761	20.155	1071.536	851.532
15.775	20.057	1071.553	850.989
16.790	19.962	1070.452	849.574
17.804	19.915	1069.752	848.711
18.819	20.015	1069.466	848.902
19.834	20.080	1068.719	848.554
20.848	20.158	1068.518	848.697
21.863	20.125	1067.799	847.893
22.877	19.964	1067.588	846.862
23.892	20.092	1066.315	846.400
24.907	20.095	1065.948	846.052
25.921	20.056	1064.703	844.798
26.936	20.082	1063.050	843.537
27.950	19.946	1061.693	841.727
28.965	19.852	1060.023	839.871
29.980	19.995	1058.107	838.971
30.994	20.099	1057.392	838.830
32.009	20.129	1056.151	837.920
33.023	19.934	1054.341	835.466
34.038	19.965	1053.972	835.252
35.053	20.114	1053.439	835.472
36.067	20.162	1052.493	834.881
37.082	20.237	1051.664	834.509
38.096	20.235	1051.324	834.157
39.111	20.372	1050.500	834.086
40.126	20.155	1048.859	831.669
41.140	19.823	1047.201	828.690
42.155	19.718	1045.616	826.859
43.169	19.732	1044.818	826.225
44.184	19.744	1043.896	825.478
45.199	19.731	1042.509	824.247
46.213	19.779	1041.824	823.860
47.228	19.927	1040.484	823.431
48.242	19.880	1039.556	822.402
49.257	20.043	1039.009	822.669
50.271	20.149	1037.816	822.155
51.286	20.107	1037.263	821.448
52.301	20.194	1036.041	820.816
53.315	20.203	1035.481	820.345
54.330	20.146	1034.279	819.050
55.344	20.192	1033.507	818.581
56.359	20.119	1032.593	817.442
57.374	19.913	1031.336	815.407
58.388	19.967	1030.934	815.270
59.403	19.785	1030.170	813.735
60.417	19.700	1029.488	812.725
61.432	19.897	1028.081	812.470
62.447	19.970	1028.029	812.699
63.461	19.982	1027.305	812.109
64.476	19.876	1026.240	810.700
65.490	19.765	1025.495	809.518
66.505	20.017	1024.087	809.514
67.520	19.915	1023.943	808.851
68.534	19.720	1022.806	806.970
69.549	19.400	1021.675	804.516
70.563	19.494	1020.869	804.249
71.578	19.533	1019.738	803.468
72.593	19.391	1018.800	801.998
73.607	19.454	1018.911	802.308
74.622	19.962	1017.507	803.491
75.636	19.761	1017.286	802.312
76.651	19.681	1016.272	801.070
77.666	19.622	1015.734	800.303
78.680	19.594	1015.007	799.528
79.695	19.799	1014.197	799.765
80.709	19.827	1013.662	799.401
81.724	19.704	1012.797	798.084
82.739	19.814	1012.399	798.207
83.753	20.146	1011.806	799.201
84.768	20.238	1010.798	798.756
85.782	20.400	1009.929	798.742
86.797	20.266	1008.495	796.920
87.812	20.121	1007.619	795.493
88.826	20.304	1006.170	795.118
89.841	20.283	1005.579	794.484
90.855	20.393	1004.570	794.120
91.870	20.280	1004.049	793.124
92.884	20.096	1002.959	791.353
93.899	20.157	1001.572	790.463
94.914	20.324	1001.049	790.743
95.928	20.128	999.683	788.700
96.943	19.939	998.776	787.057
97.957	19.673	997.393	784.689
98.972	19.668	996.372	783.796
99.987	19.968	995.739	784.588
101.001	20.069	995.129	784.497
102.016	19.995	993.940	783.152
103.030	19.966	993.300	782.448
104.045	19.798	991.972	780.575
105.060	19.622	991.022	778.964
106.074	19.831	990.285	779.259
107.089	20.249	989.727	780.630
108.103	20.111	988.842	779.246
109.118	20.035	987.307	777.623
110.133	19.797	986.627	775.950
111.147	19.748	985.224	774.561
112.162	19.686	984.328	773.513
113.176	19.831	983.719	773.611
114.191	19.779	982.598	772.431
115.206	19.499	981.315	770.105
116.220	19.462	980.544	769.267
117.235	19.509	979.915	768.913
118.249	19.562	979.034	768.389
119.264	19.622	978.240	767.967
120.279	19.535	977.381	766.836
121.293	19.627	976.440	766.438
122.308	19.813	975.508	766.462
123.322	19.626	974.336	764.647
124.337	19.435	972.987	762.676
125.352	18.984	971.751	759.649
126.366	18.908	970.751	758.464
127.381	19.652	970.319	761.338
128.395	20.033	970.053	762.741
129.410	20.272	968.553	762.547
130.424	20.172	967.730	761.393
131.439	20.115	966.767	760.315
132.454	20.028	966.045	759.302
133.468	20.031	964.961	758.393
134.483	20.151	964.142	758.208
135.497	20.313	963.687	758.492
136.512	20.279	962.989	757.725
137.527	20.307	961.786	756.836
138.541	20.302	961.322	756.381
139.556	20.326	960.202	755.536
140.570	20.372	959.794	755.349
141.585	20.353	958.436	754.132
142.600	20.289	957.469	753.024
143.614	20.539	956.768	753.491
144.629	20.446	956.551	752.853
145.643	20.493	954.685	751.521
146.658	20.312	953.305	749.585
147.673	20.166	952.598	748.332
148.687	20.078	951.589	747.094
149.702	20.060	950.904	746.412
150.716	20.099	949.655	745.534
151.731	20.333	948.706	745.728
152.746	20.508	948.367	746.149
153.760	20.621	947.689	746.034
154.775	20.519	946.934	744.937
155.789	20.530	946.060	744.227
156.804	20.431	945.151	743.023
157.819	20.402	944.064	741.981
158.833	20.710	943.544	742.821
159.848	20.528	942.482	741.143
160.862	20.405	941.344	739.657
161.877	20.484	940.319	739.124
162.892	20.593	939.422	738.819
163.906	20.546	938.727	738.005
164.921	20.516	937.607	736.933
165.935	20.527	936.732	736.227
166.950	20.459	935.958	735.264
167.964	20.446	935.387	734.698
168.979	20.207	934.053	732.575
169.994	20.381	933.188	732.566
171.008	20.605	932.294	732.742
172.023	20.446	931.785	731.608
173.037	20.315	930.733	730.166
174.052	20.187	929.784	728.818
175.067	20.337	928.872	728.671
176.081	20.395	928.464	728.527
177.096	20.218	927.611	727.051
178.110	20.111	926.529	725.693
179.125	19.813	926.333	724.225
180.140	20.052	925.683	724.654
181.154	20.062	925.524	724.510
182.169	20.305	925.120	725.144
183.183	20.416	924.903	725.373
184.198	20.318	924.069	724.245
185.213	20.416	922.955	723.716
186.227	20.505	922.210	723.439
187.242	20.603	921.391	723.139
188.256	20.534	920.877	722.388
189.271	20.481	920.837	722.072
190.286	20.323	919.190	720.059
191.300	19.797	917.845	716.764
192.315	19.098	916.240	712.552
193.329	18.925	916.097	711.664
194.344	19.856	916.469	715.741
195.359	20.437	915.957	717.681
196.373	20.461	915.389	717.270
197.388	20.409	914.667	716.427
198.402	20.373	914.076	715.753
199.417	20.455	913.135	715.288
200.432	19.975	912.347	712.636
201.446	19.857	911.651	711.543
202.461	19.888	911.344	711.369
203.475	19.086	909.173	706.321
204.490	18.409	908.270	702.777
205.504	19.481	908.710	707.454
206.519	19.918	908.273	708.840
207.534	20.074	907.450	708.775
208.548	20.415	907.480	710.130
209.563	20.152	906.666	708.355
210.577	20.108	906.138	707.702
211.592	20.489	905.777	708.911
212.607	20.452	904.445	707.653
213.621	20.625	903.712	707.725
214.636	20.555	903.011	706.827
215.650	20.494	902.404	706.039
216.665	20.605	901.894	706.033
217.680	20.567	901.040	705.144
218.694	20.021	899.609	701.754
219.709	19.969	899.234	701.187
220.723	20.383	898.757	702.427
221.738	20.334	898.446	701.924
222.753	20.331	897.198	700.876
223.767	20.336	897.506	701.073
224.782	20.559	896.933	701.464
225.796	20.518	896.123	700.605
226.811	19.947	894.581	697.036
227.826	19.374	893.748	694.023
228.840	19.527	893.014	694.006
229.855	19.597	892.207	693.598
230.869	19.338	891.266	691.764
231.884	19.885	890.795	693.532
232.899	20.422	891.282	696.001
233.913	20.352	890.387	694.961
234.928	20.354	889.761	694.420
235.942	20.328	888.903	693.584
236.957	20.030	888.312	691.872
237.972	19.961	888.138	691.401
238.986	20.209	887.116	691.533
240.001	20.139	886.557	690.756
241.015	20.291	886.180	691.008
242.030	20.337	885.456	690.563
243.045	20.444	884.741	690.370
244.059	20.537	884.795	690.720
245.074	20.269	883.727	688.764
246.088	19.921	882.755	686.564
247.103	20.150	882.293	687.051
248.117	20.782	881.943	689.222
249.132	21.119	881.396	690.067
250.147	21.089	881.150	689.692
251.161	21.272	880.307	689.695
252.176	21.245	879.568	688.949
253.190	21.514	879.030	689.524
254.205	21.365	879.183	688.999
255.220	21.314	878.448	688.161
256.234	21.203	877.452	686.882
257.249	21.212	876.434	686.060
258.263	21.161	875.928	685.404
259.278	21.225	875.329	685.125
260.293	21.261	874.554	684.600
261.307	21.114	874.123	683.624
262.322	21.014	872.832	682.162
263.336	20.029	871.238	677.010
264.351	19.164	868.981	671.822
265.366	19.355	868.990	672.516
266.380	20.401	869.742	677.118
267.395	20.813	869.496	678.472
268.409	20.797	868.698	677.728
269.424	21.049	868.011	678.110
270.439	21.038	867.393	677.527
271.453	21.155	866.709	677.386
272.468	21.234	866.600	677.547
273.482	21.343	866.121	677.537
274.497	20.934	864.544	674.659
275.512	20.552	863.806	672.545
276.526	20.889	863.680	673.692
277.541	20.875	863.764	673.641
278.555	20.964	862.304	672.789
279.570	20.803	861.220	671.264
280.585	20.977	860.700	671.467
281.599	20.909	859.880	670.507
282.614	20.290	859.028	667.404
283.628	20.387	858.284	667.139
284.643	20.706	858.018	668.099
285.657	20.237	857.028	665.470
286.672	20.153	856.033	664.317
287.687	20.618	856.250	666.206
288.701	20.683	855.668	665.945
289.716	20.228	854.706	663.398
290.730	20.386	854.173	663.528
291.745	20.052	852.822	661.145
292.760	20.285	852.931	662.060
293.774	21.229	853.356	665.934
294.789	21.616	852.975	667.051
295.803	21.683	852.275	666.701
296.818	21.738	851.608	666.327
297.833	21.139	850.709	663.292
298.847	21.008	849.881	662.088
299.862	21.382	849.651	663.269
300.876	21.654	849.120	663.830
301.891	21.386	848.602	662.350
302.906	21.106	847.254	660.179
303.920	21.275	847.117	660.652
304.935	21.491	847.263	661.528
305.949	21.328	846.412	660.188
306.964	21.178	845.675	658.988
307.979	21.202	845.257	658.694
308.993	21.666	845.261	660.391
310.008	21.695	844.130	659.556
311.022	21.370	843.134	657.497
312.037	21.259	842.940	656.871
313.052	21.049	842.106	655.374
314.066	20.205	840.407	650.828
315.081	19.981	839.757	649.426
316.095	20.943	839.680	652.916
317.110	21.362	839.750	654.479
318.125	20.482	838.349	650.041
319.139	19.461	837.197	645.272
320.154	19.534	836.642	645.061
321.168	20.468	837.054	648.812
322.183	20.778	837.273	650.081
323.197	21.240	836.830	651.405
324.212	21.492	836.148	651.756
325.227	21.457	835.829	651.319
326.241	21.229	835.312	650.010
327.256	21.186	834.454	649.123
328.270	21.055	833.685	647.982
329.285	20.928	833.137	647.027
330.300	20.722	832.448	645.670
331.314	20.854	832.128	645.853
332.329	21.252	831.840	647.048
333.343	21.356	831.432	647.060
334.358	21.407	830.799	646.698
335.373	21.606	830.642	647.254
336.387	21.633	830.554	647.229
337.402	21.874	830.258	647.830
338.416	21.862	829.562	647.186
339.431	21.884	829.061	646.820
340.446	22.041	829.001	647.291
341.460	21.713	828.622	645.731
342.475	21.690	828.039	645.134
343.489	21.762	827.753	645.119
344.504	21.984	827.491	645.675
345.519	22.037	827.104	645.512
346.533	22.219	826.550	645.688
347.548	22.304	825.703	645.285
348.562	22.400	825.458	645.387
349.577	22.261	824.589	644.139
350.592	22.137	824.336	643.432
351.606	22.088	823.566	642.593
352.621	22.016	822.758	641.643
353.635	22.110	821.460	640.918
354.650	21.384	819.967	637.052
355.665	20.322	819.146	632.490
356.679	20.933	818.596	634.232
357.694	21.298	818.046	635.079
358.708	21.293	817.525	634.599
359.723	21.630	817.360	635.639
360.738	21.794	817.424	636.229
361.752	22.039	816.568	636.392
362.767	22.385	815.926	637.087
363.781	22.497	815.807	637.347
364.796	22.473	815.428	636.905
365.810	22.558	815.343	637.091
366.825	22.375	814.735	635.898
367.840	22.170	813.815	634.382
368.854	21.838	812.776	632.320
369.869	21.788	812.818	632.118
370.883	22.017	812.170	632.384
371.898	21.856	811.399	631.147
372.913	22.049	811.265	631.681
373.927	22.019	811.137	631.418
374.942	22.088	811.038	631.531
375.956	22.331	809.989	631.530
376.971	22.239	809.761	630.967
377.986	22.402	809.655	631.415
379.000	22.395	809.149	630.939
380.015	22.286	808.619	630.078
381.029	22.400	807.955	629.913
382.044	22.422	807.474	629.562
383.059	22.598	806.438	629.329
384.073	22.533	806.239	628.886
385.088	22.518	805.484	628.185
386.102	22.357	804.846	627.058
387.117	22.240	804.190	626.078
388.132	21.805	803.125	623.644
389.146	21.496	802.271	621.829
390.161	21.957	802.083	623.266
391.175	22.327	802.103	624.539
392.190	21.965	801.051	622.382
393.205	20.702	798.579	615.939
394.219	19.387	797.400	610.326
395.234	19.386	797.063	610.008
396.248	21.001	798.502	616.772
397.263	22.236	799.217	621.639
398.278	22.088	798.830	620.762
399.292	22.056	798.058	619.993
400.307	21.798	797.986	618.972
401.321	22.026	797.478	619.328
402.336	22.337	797.441	620.340
403.350	22.766	797.034	621.480
404.365	23.071	796.591	622.152
405.380	23.157	796.197	622.092
406.394	23.260	796.001	622.244
407.409	23.076	795.595	621.227
408.423	22.914	795.345	620.409
409.438	23.186	794.782	620.868
410.453	23.417	794.252	621.208
411.467	23.126	793.613	619.636
412.482	23.165	793.299	619.471
413.496	23.363	792.849	619.757
414.511	23.253	792.372	618.946
415.526	23.219	792.203	618.639
416.540	23.098	791.343	617.492
417.555	22.963	790.316	616.165
418.569	22.953	789.982	615.816
419.584	22.867	789.818	615.335
420.599	22.626	789.486	614.183
421.613	158.558	1364.146	1799.665
422.628	137.338	1447.860	1799.755
