DTS Sentinel unit serial number:	SN413079Multiplexer serial number:	ORYXHardware model number:	OX4-SRSoftware version number:	ORYX F/W v4.00 Oryx Data Collector v3.7.2.0data status	okinstallation	princeton_trtdifferential loss correction	single-endedforward channel	channel 1reverse channel	N/Adate	2019/09/16time	01:34:35forward acquisition time	60.00reverse acquisition time	0.00gamma	496.2192k internal	0.2333k external	0.2333temperature offset calibration	0.9977default loss term (dB/km)	0.3790temperature slope calibration	1.0000multiplexer offset coefficient	1.0000multiplexer slope coefficient	1.0000fibre end	0.00T internal ref (°C)	27.31T ext. ref 1 (°C)	9.95T ext. ref 2 (°C)	22.14length (m)	temperature (°C)	Stokes	anti-Stokes-747.200	-97.820	0.176	0.046
-746.185	42.049	-0.310	0.283
-745.171	-200.000	0.003	-0.023
-744.156	-108.475	-0.554	-0.120
-743.142	-200.000	-0.036	0.187
-742.127	532.719	0.028	0.066
-741.112	179.972	0.160	0.235
-740.098	102.433	-0.291	0.342
-739.083	580.709	0.047	0.116
-738.069	332.295	-0.225	0.437
-737.054	413.733	0.070	-0.150
-736.039	-96.187	-0.235	-0.063
-735.025	-33.237	-0.192	0.107
-734.010	-67.794	-0.102	-0.040
-732.996	-200.000	0.018	0.209
-731.981	226.047	-0.109	-0.177
-730.966	-29.925	-0.267	-0.153
-729.952	-58.237	-0.166	-0.073
-728.937	-83.911	-0.207	-0.066
-727.923	80.423	0.070	0.076
-726.908	-41.844	-0.157	0.081
-725.894	33.856	-0.144	-0.126
-724.879	-200.000	0.016	0.092
-723.864	-50.030	0.140	0.067
-722.850	212.417	-0.188	0.298
-721.835	-84.468	-0.201	-0.064
-720.821	240.956	-0.036	0.060
-719.806	237.991	0.073	0.122
-718.791	179.632	0.151	0.222
-717.777	35.394	-0.091	-0.080
-716.762	-38.558	0.333	0.177
-715.748	64.199	0.280	-0.283
-714.733	212.716	0.215	0.340
-713.718	15.537	-0.092	0.072
-712.704	140.596	-0.116	0.154
-711.689	63.885	-0.073	0.074
-710.675	341.634	0.119	-0.233
-709.660	148.054	-0.125	-0.169
-708.645	-82.185	0.250	-0.082
-707.631	800.000	0.009	0.024
-706.616	322.960	0.123	-0.236
-705.602	74.260	-0.162	-0.170
-704.587	-18.195	0.114	-0.072
-703.572	308.262	0.164	-0.308
-702.558	-53.721	0.243	-0.111
-701.543	447.677	-0.063	0.139
-700.529	800.000	-0.093	-0.366
-699.514	-200.000	0.009	-0.102
-698.499	-8.035	-0.167	-0.113
-697.485	-156.443	-0.315	-0.020
-696.470	55.305	-0.204	0.198
-695.456	123.284	0.188	-0.236
-694.441	800.000	-0.049	0.190
-693.426	232.215	0.084	0.138
-692.412	-24.935	-0.072	0.043
-691.397	231.537	-0.298	-0.490
-690.383	-124.280	0.220	-0.035
-689.368	-47.115	-0.042	-0.020
-688.354	35.544	0.104	-0.092
-687.339	87.829	-0.314	-0.349
-686.324	-141.464	0.182	-0.018
-685.310	-149.738	-0.192	-0.015
-684.295	210.587	-0.127	-0.200
-683.281	102.206	-0.068	-0.079
-682.266	-96.100	-0.232	0.062
-681.251	-200.000	0.050	0.230
-680.237	-85.131	-0.331	-0.104
-679.222	-200.000	-0.027	-0.184
-678.208	-200.000	-0.004	0.324
-677.193	185.430	0.193	-0.287
-676.178	15.313	0.362	0.285
-675.164	-32.299	-0.044	0.025
-674.149	-200.000	0.038	0.174
-673.135	7.053	-0.255	-0.191
-672.120	157.007	0.018	-0.025
-671.105	-98.853	-0.120	-0.031
-670.091	17.904	-0.087	-0.070
-669.076	127.148	-0.040	-0.051
-668.062	-200.000	-0.012	0.300
-667.047	-200.000	0.047	0.206
-666.032	-200.000	-0.005	-0.165
-665.018	-200.000	-0.016	0.127
-664.003	800.000	0.051	0.182
-662.989	-200.000	0.031	0.208
-661.974	-19.117	-0.017	0.011
-660.959	-200.000	0.003	0.252
-659.945	26.699	-0.107	-0.090
-658.930	-200.000	0.007	-0.102
-657.916	-23.457	-0.194	-0.117
-656.901	3.338	0.123	0.089
-655.886	-106.761	-0.082	-0.018
-654.872	45.711	0.083	-0.077
-653.857	-109.798	0.091	-0.019
-652.843	-112.254	-0.179	-0.036
-651.828	-136.667	-0.155	-0.018
-650.814	-104.022	-0.168	0.039
-649.799	800.000	0.066	-0.288
-648.784	65.095	-0.309	-0.313
-647.770	-200.000	0.013	-0.123
-646.755	174.665	-0.059	0.086
-645.741	800.000	-0.020	0.073
-644.726	340.302	-0.127	0.248
-643.711	20.048	0.223	-0.180
-642.697	800.000	0.076	-0.274
-641.682	-149.450	0.081	0.006
-640.668	-100.954	-0.350	0.086
-639.653	389.234	-0.065	-0.135
-638.638	471.179	0.230	0.517
-637.624	-90.299	0.132	0.038
-636.609	-200.000	-0.038	-0.308
-635.595	800.000	0.045	-0.142
-634.580	-103.800	0.180	0.042
-633.565	800.000	-0.087	0.250
-632.551	-200.000	0.036	0.446
-631.536	-173.229	-0.085	0.003
-630.522	-55.742	0.248	0.111
-629.507	-60.757	-0.551	-0.234
-628.492	114.143	0.033	0.040
-627.478	32.260	0.265	0.229
-626.463	-64.349	0.364	0.148
-625.449	-120.210	0.033	-0.006
-624.434	154.815	0.099	-0.136
-623.419	80.292	0.261	-0.281
-622.405	92.910	-0.326	-0.369
-621.390	800.000	0.012	-0.044
-620.376	-147.418	-0.330	0.028
-619.361	800.000	0.063	-0.247
-618.346	-161.869	-0.232	0.012
-617.332	-79.555	0.373	0.126
-616.317	-200.000	0.004	0.302
-615.303	147.727	0.187	-0.251
-614.288	7.470	0.049	-0.036
-613.273	-74.208	-0.243	0.088
-612.259	196.220	-0.166	0.252
-611.244	-200.000	0.051	0.243
-610.230	-200.000	0.046	-0.203
-609.215	740.745	0.146	-0.393
-608.201	-200.000	-0.001	0.327
-607.186	-149.821	0.077	-0.006
-606.171	74.465	0.210	-0.221
-605.157	66.801	0.045	0.046
-604.142	-200.000	0.022	0.270
-603.128	248.603	0.186	0.314
-602.113	2.411	0.148	0.107
-601.098	108.537	-0.250	-0.299
-600.084	-172.157	0.278	0.009
-599.069	318.221	-0.092	0.174
-598.055	117.666	-0.192	-0.236
-597.040	-78.735	-0.124	0.042
-596.025	214.446	0.093	-0.147
-595.011	-153.223	-0.309	-0.022
-593.996	102.105	-0.034	0.040
-592.982	58.337	0.109	0.107
-591.967	119.708	-0.079	-0.097
-590.952	569.156	0.078	-0.188
-589.938	-3.484	0.298	-0.207
-588.923	20.115	0.256	0.207
-587.909	133.207	-0.065	0.083
-586.894	9.187	-0.236	0.178
-585.879	-79.448	0.253	-0.086
-584.865	161.749	0.023	0.032
-583.850	-200.000	0.006	-0.039
-582.836	800.000	-0.009	0.025
-581.821	-37.984	-0.169	0.090
-580.806	-29.690	0.286	0.163
-579.792	280.531	0.097	0.173
-578.777	10.423	0.422	-0.321
-577.763	581.341	-0.065	0.159
-576.748	-85.363	-0.119	-0.037
-575.733	800.000	-0.028	-0.090
-574.719	662.444	-0.092	-0.236
-573.704	156.819	0.157	0.217
-572.690	86.806	-0.118	-0.130
-571.675	170.778	0.083	-0.119
-570.661	-133.711	0.265	0.033
-569.646	-3.056	0.137	-0.096
-568.631	6.126	-0.185	-0.137
-567.617	7.428	-0.205	-0.153
-566.602	45.301	0.039	-0.036
-565.588	210.574	-0.142	-0.223
-564.573	590.602	-0.055	-0.136
-563.558	299.455	0.066	0.121
-562.544	-125.575	0.156	-0.024
-561.529	800.000	-0.067	-0.242
-560.515	-20.514	-0.247	-0.152
-559.500	-159.927	0.299	0.016
-558.485	-126.256	-0.365	0.054
-557.471	51.171	-0.114	-0.108
-556.456	365.970	-0.072	0.145
-555.442	-106.637	-0.234	0.052
-554.427	-200.000	-0.046	-0.209
-553.412	369.412	-0.200	0.404
-552.398	396.866	-0.024	0.050
-551.383	27.100	-0.120	-0.101
-550.369	-133.152	-0.213	-0.027
-549.354	467.547	-0.029	0.064
-548.339	-167.190	-0.141	-0.006
-547.325	-88.898	0.108	0.032
-546.310	-200.000	-0.027	-0.129
-545.296	-200.000	-0.047	0.425
-544.281	-187.017	0.362	0.005
-543.266	-27.333	0.388	0.225
-542.252	-110.561	-0.333	0.069
-541.237	72.365	-0.141	0.147
-540.223	800.000	-0.076	-0.272
-539.208	-55.339	0.074	-0.033
-538.193	-52.063	-0.145	-0.067
-537.179	282.276	-0.216	-0.386
-536.164	800.000	-0.031	-0.135
-535.150	130.965	-0.016	0.020
-534.135	174.412	0.113	-0.163
-533.121	156.890	0.167	-0.230
-532.106	-191.865	0.130	0.001
-531.091	99.489	0.024	0.028
-530.077	401.930	-0.171	0.357
-529.062	99.624	0.095	0.110
-528.048	183.595	0.177	0.261
-527.033	-61.565	0.066	0.027
-526.018	735.253	0.012	0.031
-525.004	14.627	-0.072	0.056
-523.989	-200.000	-0.022	-0.200
-522.975	-75.862	-0.436	0.154
-521.960	800.000	0.097	-0.379
-520.945	97.988	0.046	-0.053
-519.931	367.169	-0.109	0.219
-518.916	12.970	-0.293	-0.226
-517.902	-103.647	0.421	-0.098
-516.887	-128.067	-0.279	-0.040
-515.872	-139.172	0.324	-0.035
-514.858	-200.000	0.058	-0.353
-513.843	-88.272	-0.549	0.164
-512.829	-71.049	-0.152	-0.057
-511.814	-126.334	0.189	0.028
-510.799	-200.000	-0.051	-0.298
-509.785	-101.230	0.133	-0.032
-508.770	580.464	0.128	-0.313
-507.756	-59.383	-0.278	-0.119
-506.741	340.851	0.062	-0.121
-505.726	-200.000	0.001	0.016
-504.712	-22.878	-0.127	0.076
-503.697	-0.546	0.118	-0.084
-502.683	516.423	0.073	0.169
-501.668	-101.804	0.162	0.039
-500.653	470.180	-0.212	0.476
-499.639	73.052	0.228	0.237
-498.624	-200.000	-0.006	-0.247
-497.610	-150.437	-0.185	-0.014
-496.595	546.696	-0.120	-0.285
-495.581	33.567	-0.283	-0.244
-494.566	-50.732	0.177	-0.083
-493.551	-200.000	0.026	0.197
-492.537	-50.272	0.155	0.073
-491.522	-33.956	0.150	-0.082
-490.508	186.803	-0.171	-0.253
-489.493	-65.852	-0.267	-0.106
-488.478	660.898	0.137	-0.350
-487.464	132.870	-0.140	-0.180
-486.449	-200.000	0.055	-0.299
-485.435	800.000	-0.135	0.459
-484.420	800.000	-0.033	0.098
-483.405	9.956	0.128	-0.097
-482.391	-49.557	0.057	0.027
-481.376	-84.368	-0.075	0.024
-480.362	-116.701	-0.319	0.058
-479.347	317.253	0.080	-0.150
-478.332	705.260	0.097	0.254
-477.318	-54.006	-0.131	-0.059
-476.303	304.965	-0.084	-0.156
-475.289	-200.000	0.058	-0.472
-474.274	148.759	-0.057	0.077
-473.259	0.776	-0.024	-0.017
-472.245	800.000	-0.113	-0.357
-471.230	-200.000	0.006	-0.212
-470.216	-144.115	-0.250	-0.023
-469.201	-21.570	-0.423	0.257
-468.186	-11.436	-0.160	0.105
-467.172	246.194	0.015	-0.025
-466.157	-120.862	-0.180	-0.030
-465.143	432.343	-0.044	-0.095
-464.128	-164.176	0.252	-0.012
-463.113	662.081	0.112	0.288
-462.099	-48.246	0.116	-0.056
-461.084	12.176	-0.112	0.086
-460.070	86.070	0.083	0.091
-459.055	-119.299	0.207	0.036
-458.040	-3.846	-0.125	-0.087
-457.026	654.789	0.072	-0.184
-456.011	-58.309	0.095	-0.041
-454.997	103.590	-0.042	-0.049
-453.982	413.570	-0.037	-0.078
-452.968	800.000	-0.074	-0.235
-451.953	381.548	0.009	0.018
-450.938	-115.572	0.173	-0.032
-449.924	752.820	0.085	0.229
-448.909	800.000	0.069	0.248
-447.895	504.384	0.044	0.101
-446.880	800.000	0.029	-0.109
-445.865	-75.321	-0.082	0.029
-444.851	-123.880	0.431	0.067
-443.836	270.400	-0.071	-0.125
-442.822	-200.000	-0.019	0.126
-441.807	-200.000	-0.012	0.332
-440.792	275.893	-0.106	0.187
-439.778	-200.000	0.036	0.220
-438.763	-200.000	-0.014	0.122
-437.749	800.000	-0.097	-0.378
-436.734	775.773	-0.210	-0.568
-435.719	-103.195	0.212	0.050
-434.705	254.288	-0.105	-0.178
-433.690	24.051	0.318	-0.261
-432.676	-32.807	-0.281	0.155
-431.661	-53.779	0.098	-0.044
-430.646	500.427	0.076	-0.173
-429.632	800.000	-0.079	0.240
-428.617	138.712	-0.135	0.175
-427.603	0.014	0.071	-0.050
-426.588	-18.269	0.410	0.255
-425.573	800.000	-0.017	0.048
-424.559	-103.619	0.065	0.015
-423.544	-100.403	-0.328	0.081
-422.530	106.987	0.106	0.125
-421.515	-136.031	0.138	0.016
-420.500	-32.040	0.135	0.075
-419.486	147.463	0.124	0.166
-418.471	-152.505	-0.360	-0.026
-417.457	-200.000	-0.277	-0.000
-416.442	274.027	0.055	-0.097
-415.428	130.725	0.254	0.323
-414.413	-37.127	-0.057	0.031
-413.398	-94.298	0.187	-0.051
-412.384	661.305	0.140	0.359
-411.369	-194.843	-0.209	-0.002
-410.355	158.398	-0.176	-0.242
-409.340	-120.053	0.077	0.013
-408.325	3.786	-0.167	0.121
-407.311	788.655	0.043	0.117
-406.296	-63.112	-0.053	0.022
-405.282	360.893	0.083	-0.165
-404.267	-200.000	0.009	-0.093
-403.252	-109.491	-0.230	0.048
-402.238	313.834	-0.064	0.119
-401.223	-26.268	0.105	0.061
-400.209	-32.363	0.351	-0.194
-399.194	-63.555	-0.171	-0.069
-398.179	-200.000	0.021	-0.108
-397.165	69.502	-0.253	-0.258
-396.150	-200.000	-0.104	0.520
-395.136	-68.299	-0.269	0.104
-394.121	-36.307	0.118	0.063
-393.106	-64.287	0.328	-0.132
-392.092	170.246	-0.165	-0.234
-391.077	96.995	0.200	-0.227
-390.063	-49.692	-0.165	-0.078
-389.048	-64.630	-0.350	-0.141
-388.033	94.246	0.235	0.264
-387.019	-128.018	0.191	-0.027
-386.004	51.819	-0.185	0.174
-384.990	-6.500	0.209	-0.141
-383.975	556.674	-0.076	0.182
-382.960	162.106	-0.088	0.122
-381.946	-200.000	-0.018	-0.309
-380.931	-51.173	-0.518	-0.241
-379.917	-200.000	0.010	0.226
-378.902	800.000	0.091	0.290
-377.888	800.000	0.152	-0.444
-376.873	-200.000	-0.023	-0.259
-375.858	280.173	0.041	-0.072
-374.844	-51.476	0.088	0.041
-373.829	-126.067	0.110	0.016
-372.815	-200.000	0.012	0.182
-371.800	-200.000	0.024	0.153
-370.785	-200.000	0.010	-0.110
-369.771	800.000	0.022	-0.086
-368.756	-118.213	0.113	-0.020
-367.742	547.093	0.034	-0.081
-366.727	-200.000	0.055	-0.328
-365.712	-200.000	-0.372	0.001
-364.698	68.112	0.157	0.159
-363.683	-200.000	-0.061	0.450
-362.669	-200.000	-0.074	0.411
-361.654	-4.948	0.261	-0.178
-360.639	106.238	0.235	0.275
-359.625	78.330	-0.118	0.125
-358.610	-195.609	0.312	0.002
-357.596	75.869	-0.049	-0.051
-356.581	-145.913	0.128	-0.011
-355.566	118.321	-0.187	-0.228
-354.552	773.701	0.059	0.158
-353.537	800.000	-0.116	0.391
-352.523	398.523	-0.075	-0.156
-351.508	235.851	-0.174	-0.285
-350.493	-80.111	-0.298	-0.099
-349.479	185.840	-0.186	0.274
-348.464	-200.000	-0.006	0.075
-347.450	-114.927	-0.171	-0.032
-346.435	772.253	0.129	0.349
-345.420	18.106	0.143	-0.113
-344.406	800.000	0.096	-0.313
-343.391	-52.555	0.355	0.162
-342.377	161.278	0.074	-0.103
-341.362	-45.302	0.273	-0.134
-340.348	-125.932	-0.126	0.019
-339.333	-200.000	0.017	0.348
-338.318	538.399	0.033	0.078
-337.304	258.899	-0.070	0.120
-336.289	-161.258	-0.369	-0.019
-335.275	-6.959	-0.151	-0.101
-334.260	800.000	0.067	-0.266
-333.245	-55.944	0.164	-0.072
-332.231	-200.000	-0.013	-0.293
-331.216	61.866	0.212	0.209
-330.202	727.318	0.054	-0.143
-329.187	-200.000	0.022	-0.402
-328.172	121.581	-0.324	0.399
-327.158	-138.290	0.333	0.036
-326.143	569.829	-0.099	-0.239
-325.129	-77.820	0.224	0.076
-324.114	-43.899	0.200	-0.099
-323.099	-28.424	-0.359	-0.205
-322.085	307.888	-0.104	-0.191
-321.070	-119.607	-0.360	0.062
-320.056	-200.000	0.015	-0.171
-319.041	77.081	-0.102	0.107
-318.026	-127.672	0.106	0.015
-317.012	114.434	-0.112	-0.135
-315.997	-34.419	-0.136	0.074
-314.983	-60.737	0.176	-0.074
-313.968	-2.459	-0.381	0.264
-312.953	-56.411	-0.087	-0.038
-311.939	-25.386	-0.248	0.145
-310.924	-200.000	-0.009	-0.219
-309.910	-20.149	-0.244	0.149
-308.895	-42.929	-0.261	0.131
-307.880	26.529	-0.004	-0.003
-306.866	32.854	-0.177	0.152
-305.851	800.000	0.017	0.052
-304.837	800.000	-0.047	0.144
-303.822	-75.347	0.253	0.089
-302.807	91.622	0.160	-0.178
-301.793	91.781	0.220	-0.245
-300.778	-49.457	0.118	-0.056
-299.764	201.495	0.134	-0.204
-298.749	349.383	-0.116	-0.226
-297.735	800.000	0.067	0.262
-296.720	800.000	-0.035	0.139
-295.705	-190.644	-0.110	-0.001
-294.691	62.963	0.076	-0.075
-293.676	428.479	0.020	0.044
-292.662	-21.498	-0.180	0.108
-291.647	73.664	-0.270	0.280
-290.632	119.864	-0.060	0.073
-289.618	-20.161	0.225	-0.137
-288.603	245.435	0.067	-0.112
-287.589	-126.433	-0.185	-0.027
-286.574	241.140	0.199	0.328
-285.559	385.659	0.037	0.076
-284.545	-200.000	0.059	0.282
-283.530	800.000	-0.025	0.087
-282.516	266.855	-0.067	-0.116
-281.501	-28.158	0.211	0.120
-280.486	95.383	0.379	0.427
-279.472	0.413	0.137	0.097
-278.457	-52.689	-0.073	0.033
-277.443	-115.328	-0.303	-0.057
-276.428	370.497	0.063	0.126
-275.413	-85.452	0.213	0.065
-274.399	380.037	0.104	0.211
-273.384	527.357	0.078	-0.181
-272.370	136.204	-0.092	0.119
-271.355	-73.805	-0.320	-0.115
-270.340	508.689	-0.100	0.229
-269.326	-200.000	-0.002	0.215
-268.311	-200.000	0.015	0.098
-267.297	15.918	0.133	-0.103
-266.282	-200.000	-0.005	-0.030
-265.267	89.500	0.123	-0.136
-264.253	-200.000	-0.023	0.179
-263.238	-122.691	0.295	-0.047
-262.224	-53.227	-0.217	0.098
-261.209	800.000	0.123	0.337
-260.195	-107.547	0.165	0.036
-259.180	-200.000	0.012	-0.090
-258.165	-96.681	0.107	0.028
-257.151	800.000	0.047	-0.159
-256.136	-200.000	0.052	-0.327
-255.122	198.064	0.050	0.075
-254.107	-40.075	-0.233	0.120
-253.092	-172.294	0.164	-0.005
-252.078	800.000	-0.101	-0.375
-251.063	-101.695	-0.291	0.070
-250.049	17.034	-0.074	-0.058
-249.034	800.000	-0.033	0.098
-248.019	148.482	0.189	-0.251
-247.005	-200.000	0.007	-0.254
-245.990	-39.066	-0.350	-0.182
-244.976	-81.680	-0.467	0.151
-243.961	459.863	0.073	-0.161
-242.946	433.881	0.097	0.208
-241.932	-200.000	-0.036	0.241
-240.917	800.000	-0.080	-0.271
-239.903	800.000	-0.036	0.130
-238.888	-83.767	0.428	0.135
-237.873	-42.027	0.417	-0.210
-236.859	556.192	-0.149	-0.355
-235.844	105.337	-0.144	-0.168
-234.830	-95.881	-0.136	-0.036
-233.815	-200.000	-0.017	0.311
-232.800	69.061	0.040	-0.040
-231.786	52.725	-0.195	0.183
-230.771	800.000	0.096	0.264
-229.757	-96.470	0.219	-0.057
-228.742	-200.000	-0.040	0.189
-227.727	462.697	-0.108	-0.238
-226.713	23.328	-0.113	-0.091
-225.698	35.407	-0.057	-0.050
-224.684	-200.000	-0.043	0.270
-223.669	13.926	0.060	-0.046
-222.655	800.000	-0.105	-0.369
-221.640	-18.961	-0.100	0.061
-220.625	800.000	0.084	-0.275
-219.611	-60.058	-0.228	0.096
-218.596	214.653	-0.073	-0.115
-217.582	-200.000	0.047	0.376
-216.567	-11.523	0.180	-0.116
-215.552	-53.171	0.118	0.053
-214.538	-200.000	-0.009	0.314
-213.523	107.116	-0.128	0.150
-212.509	-200.000	-0.026	0.234
-211.494	132.214	0.250	0.317
-210.479	800.000	0.030	0.096
-209.465	-65.889	0.461	0.181
-208.450	-64.784	0.458	-0.183
-207.436	-100.290	-0.101	-0.025
-206.421	-200.000	-0.013	-0.216
-205.406	-147.727	0.116	0.010
-204.392	800.000	0.152	-0.419
-203.377	-123.222	-0.245	-0.039
-202.363	383.690	0.116	0.235
-201.348	481.912	0.018	-0.040
-200.333	159.669	-0.143	-0.196
-199.319	800.000	0.015	-0.059
-198.304	-1.748	0.175	0.121
-197.290	659.604	0.051	0.129
-196.275	437.395	-0.136	0.293
-195.260	61.947	0.104	0.102
-194.246	-30.407	-0.167	-0.093
-193.231	-0.271	-0.114	0.080
-192.217	-122.141	0.244	-0.039
-191.202	114.717	0.092	0.110
-190.187	-144.909	-0.183	0.017
-189.173	138.526	-0.120	-0.154
-188.158	-107.562	-0.057	0.012
-187.144	-142.690	0.222	-0.021
-186.129	-158.673	0.253	0.014
-185.114	-169.188	-0.259	0.009
-184.100	-109.327	0.118	0.025
-183.085	-183.031	-0.123	-0.002
-182.071	-27.514	0.204	0.117
-181.056	316.554	0.240	0.445
-180.042	-43.371	0.159	0.079
-179.027	149.853	-0.125	-0.166
-178.012	-107.507	0.093	0.020
-176.998	83.165	-0.031	-0.033
-175.983	-23.450	-0.296	0.175
-174.969	-200.000	0.020	-0.138
-173.954	86.215	0.311	-0.336
-172.939	-200.000	-0.062	-0.310
-171.925	800.000	0.045	0.146
-170.910	34.018	-0.192	-0.164
-169.896	9.529	-0.171	-0.128
-168.881	-179.861	0.081	-0.002
-167.866	-200.000	0.041	0.198
-166.852	78.550	-0.096	0.101
-165.837	50.348	-0.083	-0.077
-164.823	-118.391	0.216	-0.038
-163.808	337.101	0.142	0.272
-162.793	-101.584	0.281	0.067
-161.779	162.516	0.105	0.145
-160.764	146.172	-0.176	-0.232
-159.750	-200.000	-0.027	0.248
-158.735	333.228	0.258	0.490
-157.720	-87.301	0.285	0.085
-156.706	789.125	0.119	-0.321
-155.691	141.283	-0.210	-0.273
-154.677	-200.000	0.035	-0.283
-153.662	294.886	-0.047	0.084
-152.647	-200.000	0.001	0.292
-151.633	800.000	-0.027	0.103
-150.618	800.000	0.045	-0.155
-149.604	251.838	0.199	-0.332
-148.589	-200.000	-0.001	-0.261
-147.574	-200.000	0.085	0.405
-146.560	-21.522	-0.179	-0.107
-145.545	-42.282	-0.127	0.064
-144.531	44.801	0.322	-0.291
-143.516	800.000	-0.131	0.533
-142.502	-200.000	0.022	0.259
-141.487	800.000	0.101	0.279
-140.472	104.253	0.294	-0.340
-139.458	-48.499	0.150	-0.071
-138.443	57.977	0.102	0.098
-137.429	20.579	0.316	0.251
-136.414	-57.680	-0.060	0.026
-135.399	400.180	-0.104	0.214
-134.385	340.361	-0.032	-0.062
-133.370	123.993	0.103	0.127
-132.356	78.624	0.091	-0.096
-131.341	-200.000	0.015	0.085
-130.326	-72.061	0.252	0.092
-129.312	800.000	0.177	0.487
-128.297	-200.000	0.004	-0.077
-127.283	0.298	0.189	0.132
-126.268	350.182	0.229	-0.443
-125.253	84.224	0.118	-0.126
-124.239	-53.796	-0.133	0.060
-123.224	-95.603	0.243	-0.064
-122.210	-22.601	-0.334	-0.198
-121.195	674.609	0.048	0.123
-120.180	58.150	-0.113	0.108
-119.166	-46.058	0.098	-0.047
-118.151	204.671	-0.103	-0.157
-117.137	568.508	-0.074	-0.176
-116.122	-88.751	0.092	-0.027
-115.107	-93.823	-0.247	0.067
-114.093	-200.000	-0.013	0.138
-113.078	-54.820	-0.218	-0.096
-112.064	800.000	-0.063	0.233
-111.049	-113.686	0.033	0.006
-110.034	-200.000	0.049	0.363
-109.020	-45.905	-0.340	0.165
-108.005	-200.000	-0.016	0.294
-106.991	-200.000	-0.005	0.545
-105.976	-167.444	0.338	-0.013
-104.962	434.868	0.167	0.357
-103.947	800.000	-0.056	0.217
-102.932	84.800	-0.065	0.070
-101.918	-20.944	0.122	0.073
-100.903	800.000	-0.078	-0.263
-99.889	-200.000	0.003	0.342
-98.874	800.000	-0.090	0.278
-97.859	-57.483	0.056	0.024
-96.845	411.876	-0.160	-0.332
-95.830	-200.000	0.061	-0.338
-94.816	-54.843	-0.285	-0.126
-93.801	-75.922	-0.056	-0.020
-92.786	148.257	0.123	-0.163
-91.772	-50.090	-0.179	-0.083
-90.757	-129.226	0.276	0.038
-89.743	-54.458	0.184	0.082
-88.728	194.602	-0.062	0.093
-87.713	-73.352	0.162	0.058
-86.699	61.956	0.092	-0.090
-85.684	-93.565	0.068	0.018
-84.670	77.265	0.023	-0.024
-83.655	-109.409	-0.280	0.058
-82.640	12.152	0.131	-0.099
-81.626	800.000	0.047	0.130
-80.611	-200.000	0.010	0.080
-79.597	-110.341	0.194	-0.039
-78.582	-200.000	-0.077	-0.354
-77.567	178.237	-0.044	-0.063
-76.553	314.530	-0.099	0.182
-75.538	-151.484	0.148	-0.011
-74.524	47.255	0.125	0.114
-73.509	464.328	0.031	-0.067
-72.494	35.328	0.213	0.183
-71.480	636.177	-0.094	0.234
-70.465	558.350	0.052	-0.124
-69.451	192.162	0.133	0.196
-68.436	-165.407	0.115	0.005
-67.422	133.237	-0.298	-0.377
-66.407	-200.000	0.008	0.244
-65.392	179.235	-0.215	0.308
-64.378	-68.802	0.238	0.090
-63.363	-84.537	0.155	-0.048
-62.349	71.875	-0.111	0.113
-61.334	243.808	-0.629	-1.032
-60.319	273.204	0.434	0.751
-59.305	433.218	-0.399	-0.848
-58.290	48.718	0.872	0.800
-57.276	800.000	0.421	1.430
-56.261	-200.000	113.861	643.428
-55.246	474.546	1502.195	3317.178
-54.232	148.703	2664.682	3524.053
-53.217	103.060	2143.860	2458.090
-52.203	38.539	1592.709	1389.764
-51.188	30.561	1338.829	1120.345
-50.173	27.674	1301.365	1072.005
-49.159	54.753	1356.738	1280.670
-48.144	53.610	1370.881	1287.142
-47.130	30.920	1327.049	1112.452
-46.115	27.531	1308.936	1077.229
-45.100	27.250	1304.296	1071.712
-44.086	27.223	1301.421	1069.147
-43.071	27.098	1299.743	1066.989
-42.057	27.036	1297.837	1065.018
-41.042	27.122	1296.149	1064.096
-40.027	27.175	1294.160	1062.730
-39.013	27.171	1292.463	1061.274
-37.998	27.172	1290.723	1059.808
-36.984	27.130	1288.660	1057.830
-35.969	27.372	1286.906	1057.751
-34.954	27.306	1285.632	1056.279
-33.940	27.397	1284.010	1055.433
-32.925	27.378	1282.691	1054.199
-31.911	27.273	1281.555	1052.615
-30.896	27.419	1279.480	1051.710
-29.881	27.422	1278.529	1050.905
-28.867	27.363	1276.935	1049.212
-27.852	27.433	1275.605	1048.481
-26.838	27.462	1274.165	1047.426
-25.823	27.416	1273.011	1046.168
-24.809	27.431	1271.248	1044.763
-23.794	27.359	1270.162	1043.418
-22.779	27.415	1268.838	1042.612
-21.765	27.450	1267.648	1041.790
-20.750	27.416	1266.762	1040.830
-19.736	27.309	1265.248	1038.932
-18.721	27.343	1264.128	1038.166
-17.706	27.260	1263.386	1037.041
-16.692	27.254	1262.028	1035.850
-15.677	27.364	1260.789	1035.421
-14.663	27.233	1259.692	1033.731
-13.648	27.267	1258.771	1033.128
-12.633	27.314	1257.627	1032.416
-11.619	27.219	1256.749	1031.113
-10.604	27.345	1255.456	1030.725
-9.590	27.181	1255.179	1029.527
-8.575	27.222	1253.935	1028.700
-7.560	27.280	1252.879	1028.118
-6.546	27.182	1252.454	1027.179
-5.531	27.285	1251.292	1026.766
-4.517	27.188	1250.741	1025.726
-3.502	27.287	1249.678	1025.369
-2.487	27.255	1248.891	1024.504
-1.473	27.162	1244.782	1020.572
-0.458	25.887	1229.864	1001.221
0.556	21.076	1214.626	966.008
1.571	17.707	1220.425	951.759
2.586	16.991	1235.539	959.410
3.600	17.064	1224.413	951.096
4.615	15.308	1157.795	889.957
5.629	11.899	1090.872	821.367
6.644	10.157	1074.186	800.124
7.659	9.864	1072.428	797.298
8.673	9.891	1070.752	796.114
9.688	9.898	1069.219	794.935
10.702	10.194	1067.310	794.901
11.717	12.223	1069.616	806.529
12.731	15.768	1073.796	827.066
13.746	17.621	1076.033	837.838
14.761	17.565	1075.525	837.094
15.775	16.524	1073.658	830.457
16.790	15.390	1071.523	823.172
17.804	14.797	1069.887	818.938
18.819	14.478	1068.488	816.232
19.834	14.116	1067.869	813.917
20.848	13.865	1066.834	811.826
21.863	13.713	1065.952	810.341
22.877	13.520	1065.497	808.982
23.892	13.458	1064.449	807.810
24.907	13.518	1063.585	807.375
25.921	13.598	1062.598	806.945
26.936	13.553	1061.433	805.770
27.950	13.597	1060.186	804.967
28.965	13.590	1058.891	803.876
29.980	13.780	1056.594	802.983
30.994	13.758	1055.885	802.266
32.009	13.921	1054.579	801.989
33.023	13.874	1053.673	801.002
34.038	13.756	1052.354	799.362
35.053	13.558	1052.123	798.161
36.067	13.562	1051.080	797.319
37.082	13.661	1050.394	797.202
38.096	13.860	1049.255	797.223
39.111	13.630	1049.121	795.947
40.126	13.708	1047.142	794.751
41.140	13.599	1045.897	793.211
42.155	13.343	1045.119	791.327
43.169	13.478	1043.902	790.984
44.184	13.463	1042.766	789.981
45.199	13.577	1041.406	789.424
46.213	13.658	1040.429	788.999
47.228	13.539	1039.612	787.740
48.242	13.688	1038.519	787.552
49.257	13.640	1037.843	786.740
50.271	13.543	1037.317	785.813
51.286	13.701	1035.730	785.290
52.301	13.682	1035.122	784.669
53.315	13.700	1033.742	783.639
54.330	13.499	1032.926	782.001
55.344	13.591	1032.035	781.691
56.359	13.584	1031.198	780.956
57.374	13.540	1030.324	780.019
58.388	13.466	1029.507	778.981
59.403	13.439	1028.269	777.848
60.417	13.525	1027.524	777.622
61.432	13.356	1026.699	776.134
62.447	13.271	1026.073	775.195
63.461	13.262	1025.431	774.601
64.476	13.379	1023.993	773.990
65.490	13.384	1023.461	773.546
66.505	13.421	1022.616	773.010
67.520	13.403	1022.178	772.527
68.534	13.442	1021.562	772.176
69.549	13.307	1021.051	771.090
70.563	13.378	1019.537	770.210
71.578	13.390	1019.043	769.824
72.593	13.224	1018.393	768.495
73.607	13.209	1017.916	767.996
74.622	13.423	1016.857	768.123
75.636	13.309	1016.440	767.210
76.651	13.262	1015.784	766.430
77.666	13.337	1014.764	765.938
78.680	13.413	1014.246	765.830
79.695	13.319	1013.845	765.027
80.709	13.384	1013.229	764.796
81.724	13.478	1012.707	764.767
82.739	13.651	1012.048	765.000
83.753	13.575	1011.149	763.902
84.768	13.796	1009.832	763.856
85.782	13.769	1009.037	763.062
86.797	13.683	1008.498	762.194
87.812	13.765	1007.347	761.632
88.826	13.670	1006.409	760.420
89.841	13.731	1005.679	760.084
90.855	13.716	1004.470	759.034
91.870	13.801	1003.592	758.691
92.884	13.757	1002.867	757.875
93.899	13.792	1002.100	757.389
94.914	13.773	1001.586	756.845
95.928	13.820	1000.500	756.173
96.943	13.771	999.681	755.263
97.957	13.627	998.941	753.979
98.972	13.860	997.524	753.905
99.987	13.712	997.038	752.797
101.001	13.676	995.959	751.754
102.016	13.783	994.837	751.324
103.030	13.733	994.508	750.782
104.045	13.900	993.562	750.760
105.060	13.731	992.599	749.201
106.074	13.601	992.046	748.129
107.089	13.517	990.843	746.776
108.103	13.464	989.978	745.820
109.118	13.455	988.957	744.943
110.133	13.583	988.035	744.762
111.147	13.561	987.076	743.871
112.162	13.644	986.538	743.774
113.176	13.590	985.596	742.754
114.191	13.578	985.073	742.243
115.206	13.611	984.296	741.739
116.220	13.570	983.399	740.814
117.235	13.538	982.257	739.744
118.249	13.533	981.283	738.924
119.264	13.543	980.956	738.656
120.279	13.561	979.897	737.875
121.293	13.531	978.770	736.829
122.308	13.518	978.421	736.441
123.322	13.527	976.981	735.332
124.337	13.444	975.811	734.021
125.352	13.545	974.724	733.583
126.366	13.591	973.643	732.908
127.381	13.572	972.714	732.061
128.395	13.534	971.929	731.236
129.410	13.545	971.346	730.782
130.424	13.622	970.250	730.233
131.439	13.622	969.335	729.479
132.454	13.623	968.953	729.133
133.468	13.635	968.163	728.524
134.483	13.657	967.470	728.036
135.497	13.638	966.619	727.248
136.512	13.575	965.492	726.061
137.527	13.685	964.454	725.698
138.541	13.656	963.646	724.897
139.556	13.653	963.088	724.401
140.570	13.653	962.983	724.258
141.585	13.901	961.538	724.186
142.600	13.747	960.945	723.004
143.614	13.824	960.200	722.717
144.629	13.819	959.320	721.970
145.643	13.751	958.516	721.005
146.658	13.890	957.377	720.689
147.673	13.771	956.085	719.136
148.687	13.732	955.021	718.104
149.702	13.647	954.677	717.410
150.716	13.821	954.192	717.737
151.731	13.738	953.445	716.753
152.746	13.705	952.554	715.877
153.760	13.904	951.515	715.889
154.775	13.937	950.743	715.390
155.789	13.731	950.812	714.489
156.804	13.919	949.987	714.615
157.819	13.798	949.646	713.775
158.833	13.948	948.855	713.762
159.848	14.007	947.783	713.146
160.862	14.070	946.442	712.345
161.877	14.004	945.390	711.209
162.892	13.878	944.671	710.064
163.906	13.910	943.816	709.497
164.921	13.866	942.993	708.628
165.935	13.865	942.630	708.287
166.950	13.991	941.366	707.812
167.964	13.969	940.253	706.818
168.979	13.917	939.744	706.153
169.994	13.899	939.024	705.474
171.008	13.941	938.469	705.171
172.023	14.034	937.625	704.867
173.037	14.027	936.974	704.288
174.052	14.008	935.992	703.404
175.067	13.961	935.938	703.106
176.081	13.910	935.207	702.278
177.096	14.045	934.212	702.039
178.110	14.129	933.814	702.032
179.125	13.921	933.415	700.793
180.140	14.017	932.808	700.679
181.154	14.074	932.419	700.566
182.169	14.191	931.638	700.409
183.183	14.188	930.755	699.668
184.198	14.117	930.328	698.988
185.213	14.167	929.540	698.543
186.227	14.207	928.708	698.026
187.242	14.254	927.883	697.540
188.256	14.278	927.652	697.406
189.271	14.127	927.127	696.317
190.286	14.049	926.126	695.176
191.300	13.912	925.248	693.886
192.315	13.907	925.065	693.667
193.329	14.059	924.010	693.447
194.344	14.139	923.469	693.312
195.359	14.181	922.630	692.796
196.373	14.165	922.509	692.576
197.388	14.290	922.394	692.950
198.402	14.385	921.579	692.672
199.417	14.474	920.908	692.478
200.432	14.490	920.522	692.191
201.446	14.486	919.802	691.571
202.461	14.528	919.333	691.331
203.475	14.507	918.823	690.798
204.490	14.534	917.652	689.971
205.504	14.478	917.074	689.244
206.519	14.246	916.526	687.813
207.534	14.428	915.439	687.685
208.548	14.398	915.068	687.221
209.563	14.473	914.057	686.710
210.577	14.490	913.865	686.576
211.592	14.588	912.849	686.157
212.607	14.486	912.271	685.242
213.621	14.717	911.342	685.430
214.636	14.659	910.746	684.685
215.650	14.575	910.323	683.960
216.665	14.477	909.925	683.199
217.680	14.471	909.364	682.694
218.694	14.768	907.858	682.717
219.709	14.749	907.545	682.344
220.723	14.662	906.818	681.383
221.738	14.858	905.763	681.326
222.753	14.579	906.051	680.347
223.767	14.720	905.033	680.095
224.782	14.852	904.299	680.022
225.796	14.903	903.878	679.851
226.811	14.779	903.441	678.961
227.826	14.686	902.931	678.138
228.840	14.779	901.524	677.397
229.855	14.822	900.748	676.931
230.869	14.840	900.125	676.475
231.884	14.675	899.822	675.518
232.899	14.655	898.858	674.655
233.913	14.778	897.878	674.355
234.928	14.668	897.700	673.719
235.942	14.555	897.335	672.930
236.957	14.797	896.464	673.192
237.972	14.690	895.641	672.084
238.986	14.726	895.142	671.795
240.001	14.827	894.592	671.729
241.015	14.915	893.873	671.481
242.030	14.815	893.401	670.669
243.045	14.831	893.123	670.462
244.059	14.964	892.112	670.179
245.074	14.798	891.884	669.282
246.088	14.879	890.800	668.734
247.103	14.952	889.996	668.363
248.117	15.013	889.578	668.232
249.132	15.152	889.099	668.368
250.147	15.145	888.514	667.842
251.161	15.224	887.416	667.273
252.176	15.137	887.105	666.636
253.190	15.181	886.402	666.219
254.205	15.252	886.075	666.197
255.220	15.243	885.498	665.670
256.234	15.277	884.827	665.241
257.249	15.328	884.096	664.835
258.263	15.449	882.978	664.416
259.278	15.450	882.233	663.800
260.293	15.348	882.079	663.221
261.307	15.505	881.425	663.293
262.322	15.620	880.670	663.120
263.336	15.559	879.799	662.165
264.351	15.475	879.357	661.442
265.366	15.543	878.746	661.189
266.380	15.681	877.780	660.947
267.395	15.472	877.573	659.913
268.409	15.475	876.767	659.260
269.424	15.524	875.875	658.721
270.439	15.455	875.081	657.797
271.453	15.548	874.405	657.594
272.468	15.516	874.077	657.164
273.482	15.489	873.619	656.657
274.497	15.569	872.906	656.375
275.512	15.491	872.515	655.719
276.526	15.476	872.360	655.486
277.541	15.752	870.897	655.404
278.555	15.682	870.739	654.953
279.570	15.669	870.119	654.379
280.585	15.800	869.045	654.022
281.599	15.727	868.537	653.298
282.614	15.628	868.053	652.495
283.628	15.760	867.463	652.503
284.643	15.825	866.864	652.248
285.657	15.746	865.956	651.199
286.672	15.750	865.543	650.848
287.687	15.781	864.718	650.291
288.701	15.675	864.597	649.731
289.716	15.869	863.669	649.724
290.730	15.739	863.528	649.058
291.745	15.898	862.718	649.006
292.760	15.862	861.879	648.179
293.774	16.008	861.230	648.197
294.789	15.997	860.737	647.725
295.803	15.887	860.235	646.868
296.818	15.885	859.532	646.276
297.833	15.929	858.696	645.757
298.847	15.825	858.480	645.140
299.862	15.859	857.550	644.513
300.876	15.947	857.080	644.439
301.891	16.096	856.220	644.306
302.906	16.091	856.024	644.083
303.920	16.147	855.338	643.720
304.935	16.124	855.288	643.539
305.949	16.002	854.340	642.305
306.964	16.105	853.579	642.066
307.979	16.153	853.513	642.146
308.993	16.196	852.874	641.771
310.008	16.218	851.767	640.962
311.022	16.170	851.675	640.657
312.037	16.191	850.660	639.916
313.052	16.114	850.211	639.230
314.066	16.027	849.441	638.265
315.081	16.084	848.978	638.074
316.095	15.920	848.723	637.205
317.110	16.214	847.963	637.691
318.125	16.192	847.390	637.119
319.139	16.221	846.906	636.811
320.154	16.164	846.745	636.417
321.168	16.197	846.176	636.056
322.183	16.225	845.100	635.299
323.197	16.358	844.233	635.091
324.212	16.255	844.203	634.623
325.227	16.201	843.558	633.882
326.241	16.191	843.168	633.495
327.256	16.010	842.892	632.552
328.270	16.164	842.059	632.445
329.285	16.106	841.781	631.964
330.300	16.029	841.604	631.488
331.314	16.132	840.554	631.027
332.329	16.281	840.314	631.349
333.343	16.419	839.552	631.239
334.358	16.490	838.841	630.911
335.373	16.535	838.739	630.948
336.387	16.293	838.703	629.961
337.402	16.475	838.150	630.168
338.416	16.478	837.815	629.872
339.431	16.526	837.569	629.810
340.446	16.625	836.761	629.514
341.460	16.835	836.430	629.991
342.475	16.557	836.323	628.824
343.489	16.716	835.388	628.655
344.504	16.773	835.534	628.919
345.519	16.709	834.735	628.025
346.533	16.626	834.527	627.507
347.548	16.649	833.425	626.707
348.562	16.638	832.865	626.188
349.577	16.593	832.838	625.948
350.592	16.607	832.085	625.378
351.606	16.559	831.381	624.617
352.621	16.660	830.281	624.106
353.635	16.662	829.941	623.804
354.650	16.800	829.058	623.592
355.665	16.685	828.926	623.013
356.679	16.658	828.200	622.315
357.694	16.718	827.064	621.626
358.708	16.784	826.797	621.611
359.723	16.702	826.040	620.689
360.738	16.745	825.651	620.498
361.752	16.827	825.058	620.297
362.767	17.017	824.268	620.343
363.781	17.055	823.684	619.989
364.796	16.968	823.812	619.713
365.810	17.036	823.316	619.534
366.825	17.030	823.125	619.312
367.840	17.059	822.632	618.990
368.854	16.994	821.853	618.115
369.869	17.089	821.569	618.193
370.883	17.096	821.144	617.841
371.898	17.040	820.910	617.410
372.913	17.120	820.471	617.316
373.927	17.118	820.067	616.950
374.942	17.080	819.704	616.482
375.956	17.228	818.915	616.372
376.971	17.266	818.488	616.133
377.986	17.334	817.938	615.913
379.000	17.192	817.665	615.137
380.015	17.281	817.098	614.978
381.029	17.288	816.463	614.472
382.044	17.304	815.858	614.019
383.059	17.265	815.275	613.385
384.073	17.349	814.766	613.250
385.088	17.200	814.322	612.325
386.102	17.168	813.715	611.699
387.117	17.169	813.094	611.181
388.132	17.216	812.424	610.795
389.146	17.275	811.832	610.508
390.161	17.248	811.690	610.248
391.175	17.481	811.214	610.674
392.190	17.350	810.335	609.488
393.205	17.366	810.119	609.327
394.219	17.343	810.010	609.110
395.234	17.303	809.732	608.705
396.248	17.252	808.797	607.764
397.263	17.104	808.829	607.207
398.278	17.332	808.063	607.393
399.292	17.461	807.383	607.287
400.307	17.291	807.126	606.433
401.321	17.363	806.550	606.205
402.336	17.495	805.788	606.048
403.350	17.452	805.374	605.530
404.365	17.627	805.268	606.019
405.380	17.564	804.840	605.419
406.394	17.659	804.230	605.244
407.409	17.625	803.937	604.848
408.423	17.725	803.605	604.903
409.438	17.705	803.084	604.385
410.453	17.690	802.974	604.195
411.467	17.864	802.203	604.176
412.482	17.784	801.820	603.551
413.496	17.768	801.442	603.157
414.511	17.850	800.941	603.018
415.526	17.901	800.434	602.763
416.540	18.061	800.002	602.948
417.555	17.936	799.616	602.164
418.569	17.721	800.035	601.667
419.584	17.793	799.017	601.103
420.599	17.847	798.259	600.667
421.613	111.815	1294.176	1476.440
422.628	96.291	1366.402	1476.523
