DTS Sentinel unit serial number:	SN413079Multiplexer serial number:	ORYXHardware model number:	OX4-SRSoftware version number:	ORYX F/W v4.00 Oryx Data Collector v3.7.2.0data status	okinstallation	princeton_trtdifferential loss correction	single-endedforward channel	channel 1reverse channel	N/Adate	2019/09/11time	19:12:11forward acquisition time	60.00reverse acquisition time	0.00gamma	496.2192k internal	0.2293k external	0.2293temperature offset calibration	1.0020default loss term (dB/km)	0.3790temperature slope calibration	1.0000multiplexer offset coefficient	1.0000multiplexer slope coefficient	1.0000fibre end	0.00T internal ref (°C)	41.55T ext. ref 1 (°C)	1.29T ext. ref 2 (°C)	33.73length (m)	temperature (°C)	Stokes	anti-Stokes-747.200	-92.704	-0.172	-0.049
-746.185	545.744	0.089	0.217
-745.171	122.099	0.187	0.239
-744.156	-200.000	0.015	0.166
-743.142	-200.000	-0.003	0.118
-742.127	31.431	0.263	-0.231
-741.112	-14.185	0.181	-0.119
-740.098	360.942	-0.077	0.157
-739.083	147.704	-0.112	-0.154
-738.069	256.936	0.150	0.263
-737.054	126.685	-0.104	-0.134
-736.039	176.946	-0.217	-0.323
-735.025	-1.994	0.121	-0.087
-734.010	43.452	-0.044	-0.041
-732.996	684.835	0.128	0.341
-731.981	-75.573	-0.152	-0.055
-730.966	-33.045	0.388	-0.220
-729.952	402.919	0.139	-0.299
-728.937	2.468	-0.323	-0.239
-727.923	63.835	0.115	0.118
-726.908	800.000	-0.092	-0.303
-725.894	-200.000	-0.050	0.289
-724.879	-121.835	0.132	-0.022
-723.864	-10.081	-0.084	-0.057
-722.850	-42.197	-0.251	-0.131
-721.835	-200.000	-0.029	-0.273
-720.821	-66.256	0.394	0.160
-719.806	-91.208	-0.275	-0.081
-718.791	33.845	-0.220	-0.196
-717.777	800.000	-0.061	-0.241
-716.762	7.192	0.130	-0.099
-715.748	36.396	0.026	-0.023
-714.733	-142.556	-0.231	0.023
-713.718	800.000	0.033	0.115
-712.704	2.297	-0.322	-0.238
-711.689	800.000	0.049	0.206
-710.675	-200.000	0.044	0.247
-709.660	-200.000	0.002	-0.129
-708.645	-112.828	-0.078	0.016
-707.631	800.000	-0.017	0.056
-706.616	399.307	-0.076	-0.163
-705.602	-172.903	0.299	0.009
-704.587	-164.242	-0.192	-0.009
-703.572	50.743	-0.235	0.228
-702.558	-200.000	-0.003	0.022
-701.543	-200.000	0.063	0.313
-700.529	-37.673	0.122	-0.067
-699.514	-200.000	0.075	-0.599
-698.499	-52.148	0.300	0.142
-697.485	-46.122	0.223	-0.112
-696.470	-11.042	0.029	0.020
-695.456	-4.608	-0.089	-0.063
-694.441	-200.000	0.021	-0.348
-693.426	-30.993	0.487	0.281
-692.412	-27.435	-0.126	-0.075
-691.397	800.000	0.070	0.249
-690.383	-200.000	-0.025	0.236
-689.368	-122.495	-0.314	0.052
-688.354	-138.237	0.356	-0.040
-687.339	31.552	-0.068	0.059
-686.324	-44.462	0.122	-0.062
-685.310	800.000	0.093	0.312
-684.295	205.679	0.106	-0.169
-683.281	-19.400	-0.048	0.030
-682.266	150.040	-0.178	0.247
-681.251	-136.135	-0.092	-0.011
-680.237	800.000	-0.062	-0.206
-679.222	-200.000	-0.033	-0.216
-678.208	486.055	0.071	0.166
-677.193	-11.891	-0.098	0.066
-676.178	-168.258	0.257	0.010
-675.164	214.809	-0.052	0.084
-674.149	378.725	0.037	-0.078
-673.135	110.135	-0.038	0.047
-672.120	-126.735	0.168	0.025
-671.105	-200.000	-0.008	-0.198
-670.091	12.711	0.074	-0.058
-669.076	-200.000	0.001	-0.083
-668.062	800.000	0.121	-0.508
-667.047	800.000	0.119	-0.384
-666.032	-200.000	0.021	0.221
-665.018	-111.568	-0.198	-0.041
-664.003	-78.961	-0.165	-0.057
-662.989	20.207	-0.047	-0.038
-661.974	556.087	0.055	-0.135
-660.959	800.000	-0.020	-0.082
-659.945	654.737	-0.124	-0.325
-658.930	-200.000	-0.052	0.480
-657.916	-123.154	-0.353	-0.058
-656.901	34.198	0.137	0.122
-655.886	1.722	0.119	-0.088
-654.872	503.607	-0.091	-0.215
-653.857	103.542	-0.038	0.046
-652.843	-200.000	-0.017	0.133
-651.828	-200.000	-0.007	-0.037
-650.814	-124.229	-0.104	0.017
-649.799	-176.250	-0.188	-0.005
-648.784	-163.508	-0.489	-0.024
-647.770	-55.865	-0.142	0.065
-646.755	15.370	0.172	0.137
-645.741	162.161	0.163	0.232
-644.726	40.831	0.170	-0.156
-643.711	-92.562	-0.139	-0.040
-642.697	-12.168	-0.204	-0.136
-641.682	-96.783	0.104	0.028
-640.668	-163.543	-0.335	0.016
-639.653	-68.586	0.166	0.066
-638.638	-20.904	0.168	-0.105
-637.624	800.000	0.047	-0.204
-636.609	212.601	-0.269	-0.433
-635.595	214.174	0.138	-0.222
-634.580	-200.000	0.047	-0.289
-633.565	-200.000	-0.100	-0.447
-632.551	-66.202	0.072	0.029
-631.536	-133.080	0.295	-0.038
-630.522	-51.629	-0.195	-0.093
-629.507	-200.000	0.008	-0.248
-628.492	-100.481	-0.098	0.025
-627.478	800.000	0.006	-0.027
-626.463	169.996	-0.050	0.073
-625.449	399.943	-0.124	0.264
-624.434	-174.246	0.190	0.006
-623.419	-64.873	-0.393	-0.162
-622.405	-45.557	-0.296	0.149
-621.390	-164.910	0.110	-0.005
-620.376	-200.000	-0.040	0.420
-619.361	-63.016	0.214	-0.090
-618.346	-200.000	0.043	-0.204
-617.332	-114.117	-0.161	-0.032
-616.317	-200.000	0.020	-0.231
-615.303	74.215	0.093	0.100
-614.288	43.904	0.200	0.186
-613.273	-200.000	-0.012	0.108
-612.259	800.000	-0.094	-0.301
-611.244	204.437	0.121	0.191
-610.230	-63.022	0.183	0.077
-609.215	-115.462	-0.133	0.025
-608.201	800.000	-0.004	0.014
-607.186	208.188	0.121	-0.192
-606.171	56.453	-0.111	0.110
-605.157	98.656	-0.016	-0.019
-604.142	61.711	-0.109	-0.110
-603.128	265.493	0.156	-0.277
-602.113	48.270	0.272	0.259
-601.098	294.021	0.089	-0.165
-600.084	800.000	-0.081	-0.260
-599.069	-154.529	0.016	0.001
-598.055	354.810	0.113	-0.230
-597.040	-149.665	0.275	-0.022
-596.025	-63.506	0.175	0.073
-595.011	631.675	0.057	0.146
-593.996	-200.000	0.044	-0.241
-592.982	739.534	-0.021	0.056
-591.967	-186.085	-0.082	-0.001
-590.952	-73.788	-0.241	-0.089
-589.938	-89.619	-0.098	-0.029
-588.923	-91.981	-0.216	-0.062
-587.909	372.032	-0.137	-0.283
-586.894	345.061	-0.084	-0.168
-585.879	-148.316	-0.109	-0.009
-584.865	110.053	-0.115	-0.140
-583.850	-200.000	0.004	0.193
-582.836	-115.642	0.108	0.021
-581.821	-118.196	0.217	-0.039
-580.806	800.000	-0.027	-0.113
-579.792	-33.736	-0.243	-0.136
-578.777	160.281	0.098	-0.139
-577.763	-200.000	-0.009	-0.164
-576.748	316.324	0.129	0.248
-575.733	-55.764	-0.242	0.110
-574.719	132.373	-0.099	0.129
-573.704	800.000	-0.080	0.261
-572.690	99.482	0.170	0.200
-571.675	-143.548	0.021	0.002
-570.661	78.538	0.098	-0.107
-569.646	614.727	-0.082	-0.210
-568.631	239.462	0.147	0.248
-567.617	169.394	-0.090	-0.130
-566.602	113.671	-0.075	0.092
-565.588	800.000	-0.103	0.357
-564.573	353.786	0.172	-0.347
-563.558	-50.876	-0.109	0.052
-562.544	-31.416	-0.429	0.245
-561.529	26.420	-0.374	-0.318
-560.515	-117.673	-0.248	0.045
-559.500	52.736	-0.239	0.232
-558.485	65.290	0.335	0.344
-557.471	-32.459	0.217	0.123
-556.456	61.474	0.292	-0.295
-555.442	-36.826	0.044	-0.024
-554.427	20.153	-0.159	0.130
-553.412	-200.000	0.038	-0.187
-552.398	-173.188	0.097	0.003
-551.383	800.000	-0.045	-0.132
-550.369	-58.800	-0.284	0.125
-549.354	-85.090	-0.027	0.008
-548.339	-0.122	-0.284	-0.205
-547.325	-121.043	0.152	-0.026
-546.310	243.095	-0.098	0.166
-545.296	-65.677	-0.042	-0.017
-544.281	81.676	0.051	-0.056
-543.266	-90.017	-0.025	-0.007
-542.252	-69.895	0.123	0.048
-541.237	800.000	0.022	0.068
-540.223	255.780	0.092	0.160
-539.208	65.613	0.119	0.122
-538.193	-115.684	0.532	-0.101
-537.179	521.882	0.130	0.311
-536.164	-73.672	0.066	-0.024
-535.150	283.280	0.139	0.254
-534.135	50.043	-0.091	0.087
-533.121	-200.000	0.002	0.176
-532.106	-5.307	0.179	-0.125
-531.091	157.663	0.097	-0.136
-530.077	-175.603	-0.215	-0.006
-529.062	8.222	0.359	-0.274
-528.048	-12.897	-0.070	0.047
-527.033	-200.000	-0.022	-0.158
-526.018	-200.000	-0.022	-0.285
-525.004	184.832	-0.083	0.125
-523.989	459.976	-0.085	-0.192
-522.975	42.458	-0.417	-0.385
-521.960	-78.837	0.221	-0.076
-520.945	800.000	0.039	-0.131
-519.931	164.618	-0.058	-0.083
-518.916	-22.972	0.147	-0.090
-517.902	-13.839	-0.353	-0.231
-516.887	-186.499	-0.213	0.003
-515.872	13.497	0.218	-0.172
-514.858	-79.291	0.141	-0.048
-513.843	800.000	-0.099	-0.399
-512.829	501.950	-0.095	0.222
-511.814	282.688	-0.078	0.141
-510.799	29.124	0.040	-0.034
-509.785	-200.000	-0.031	0.206
-508.770	-163.493	0.113	0.005
-507.756	-109.713	0.161	-0.034
-506.741	-200.000	0.065	-0.366
-505.726	70.892	-0.056	0.059
-504.712	800.000	-0.079	0.236
-503.697	800.000	0.069	-0.280
-502.683	77.927	-0.065	0.070
-501.668	36.442	-0.232	-0.208
-500.653	-200.000	-0.013	0.088
-499.639	85.666	-0.016	0.017
-498.624	22.252	0.101	-0.084
-497.610	-143.808	-0.291	-0.028
-496.595	-81.904	0.196	0.065
-495.581	-192.871	-0.295	0.003
-494.566	-104.699	-0.059	0.014
-493.551	-200.000	-0.004	-0.215
-492.537	-40.446	-0.152	0.080
-491.522	276.784	-0.080	0.144
-490.508	-160.469	0.317	0.017
-489.493	-174.818	-0.311	-0.009
-488.478	166.403	-0.073	-0.105
-487.464	-102.217	0.221	0.054
-486.449	-200.000	0.089	0.521
-485.435	-200.000	0.052	0.276
-484.420	-122.476	-0.043	-0.007
-483.405	-200.000	-0.039	-0.204
-482.391	-65.447	-0.304	0.124
-481.376	130.484	0.099	-0.128
-480.362	800.000	-0.060	-0.222
-479.347	-186.030	-0.431	0.006
-478.332	-104.089	0.064	-0.015
-477.318	586.397	-0.129	-0.322
-476.303	301.741	0.061	-0.114
-475.289	-14.601	-0.144	0.094
-474.274	69.534	0.031	-0.032
-473.259	250.945	0.063	-0.109
-472.245	164.903	0.124	-0.177
-471.230	10.717	0.344	0.266
-470.216	537.935	-0.045	0.109
-469.201	151.495	0.051	-0.070
-468.186	-200.000	0.048	-0.217
-467.172	-127.983	-0.094	-0.014
-466.157	246.207	-0.142	-0.243
-465.143	99.326	-0.059	0.069
-464.128	24.038	-0.179	-0.150
-463.113	-161.518	-0.068	-0.004
-462.099	-200.000	0.001	0.067
-461.084	175.874	0.089	-0.130
-460.070	-200.000	-0.012	-0.131
-459.055	-37.796	-0.093	0.050
-458.040	-61.432	-0.131	0.056
-457.026	-66.912	-0.220	-0.088
-456.011	-135.465	0.077	0.009
-454.997	-200.000	-0.025	0.187
-453.982	-200.000	-0.006	0.068
-452.968	800.000	-0.036	-0.101
-451.953	-110.254	0.190	-0.040
-450.938	135.181	0.051	0.067
-449.924	176.512	0.064	-0.094
-448.909	-187.289	0.404	0.006
-447.895	81.815	0.221	0.242
-446.880	-200.000	-0.006	0.456
-445.865	-128.212	-0.147	0.021
-444.851	-21.586	0.291	-0.179
-443.836	-88.375	0.404	-0.122
-442.822	31.474	0.109	0.095
-441.807	-74.627	-0.123	-0.045
-440.792	217.650	0.243	0.392
-439.778	-92.187	0.200	-0.057
-438.763	-27.593	0.216	0.127
-437.749	-96.700	0.409	0.109
-436.734	-36.405	0.239	0.130
-435.719	-200.000	-0.043	-0.210
-434.705	4.674	0.124	-0.092
-433.690	267.132	0.148	0.261
-432.676	89.554	0.153	0.173
-431.661	-47.626	-0.341	-0.167
-430.646	126.393	0.190	-0.244
-429.632	36.107	0.222	-0.197
-428.617	-200.000	-0.044	0.314
-427.603	800.000	0.083	-0.281
-426.588	-200.000	0.044	0.381
-425.573	-2.005	-0.170	-0.121
-424.559	-200.000	-0.041	-0.274
-423.544	-97.899	0.124	-0.032
-422.530	41.210	-0.146	-0.134
-421.515	-43.332	0.068	-0.035
-420.500	-104.221	0.154	0.036
-419.486	-200.000	-0.037	-0.421
-418.471	-200.000	-0.010	0.286
-417.457	-200.000	-0.011	-0.090
-416.442	-107.977	-0.195	-0.043
-415.428	641.591	0.183	0.470
-414.413	215.525	0.180	-0.288
-413.398	71.353	0.146	0.153
-412.384	-200.000	-0.004	0.055
-411.369	-200.000	0.048	-0.217
-410.355	323.626	-0.091	-0.175
-409.340	64.892	0.166	-0.169
-408.325	65.778	0.130	0.133
-407.311	-152.750	0.110	-0.008
-406.296	-112.098	-0.333	0.068
-405.282	-140.555	0.296	-0.031
-404.267	800.000	-0.029	-0.103
-403.252	39.205	-0.165	-0.149
-402.238	-77.784	-0.191	-0.066
-401.223	-200.000	0.068	-0.358
-400.209	-200.000	-0.007	-0.087
-399.194	-57.504	-0.083	0.037
-398.179	36.941	0.058	-0.052
-397.165	173.933	-0.130	0.190
-396.150	297.234	-0.217	0.403
-395.136	-90.038	0.083	-0.025
-394.121	541.606	-0.125	0.301
-393.106	-200.000	0.008	-0.581
-392.092	114.831	0.138	-0.170
-391.077	38.744	0.230	0.207
-390.063	-75.199	-0.284	-0.102
-389.048	-200.000	-0.031	0.153
-388.033	-7.728	-0.125	0.086
-387.019	78.722	-0.104	-0.113
-386.004	465.522	-0.169	0.381
-384.990	151.263	-0.168	0.230
-383.975	800.000	-0.006	0.021
-382.960	35.062	-0.121	0.107
-381.946	83.093	-0.076	0.083
-380.931	-104.851	-0.042	0.010
-379.917	175.107	0.148	0.216
-378.902	75.118	-0.167	0.178
-377.888	-200.000	-0.013	-0.167
-376.873	18.856	0.170	0.138
-375.858	87.677	-0.088	-0.098
-374.844	-200.000	0.013	-0.300
-373.829	800.000	0.125	-0.387
-372.815	-127.776	-0.240	0.035
-371.800	-44.282	-0.358	0.181
-370.785	-70.824	-0.273	-0.104
-369.771	-200.000	-0.004	0.231
-368.756	-200.000	0.024	0.140
-367.742	102.007	0.296	0.348
-366.727	148.244	0.328	0.446
-365.712	-91.579	0.332	0.095
-364.698	170.173	0.063	0.090
-363.683	-48.998	-0.115	0.056
-362.669	531.670	-0.112	0.267
-361.654	-70.829	0.212	-0.081
-360.639	11.970	0.051	0.039
-359.625	-200.000	-0.039	0.307
-358.610	54.597	0.113	0.110
-357.596	-51.512	-0.060	-0.028
-356.581	-116.846	-0.219	0.040
-355.566	161.932	0.150	0.212
-354.552	-193.526	-0.294	-0.003
-353.537	-169.371	0.214	0.008
-352.523	401.832	-0.048	-0.102
-351.508	97.284	0.137	-0.158
-350.493	504.432	-0.081	0.189
-349.479	-120.777	0.094	0.016
-348.464	428.790	0.063	0.137
-347.450	-200.000	-0.018	0.125
-346.435	-61.088	-0.242	0.103
-345.420	800.000	0.140	-0.419
-344.406	-200.000	0.002	0.386
-343.391	3.776	-0.117	0.086
-342.377	35.611	0.200	-0.177
-341.362	-200.000	-0.063	-0.416
-340.348	-27.981	-0.456	0.266
-339.333	-32.791	0.313	-0.175
-338.318	-26.201	-0.481	0.285
-337.304	-77.127	-0.478	0.168
-336.289	800.000	-0.072	-0.203
-335.275	-71.636	-0.184	0.069
-334.260	800.000	0.021	-0.071
-333.245	1.176	0.130	-0.094
-332.231	-200.000	-0.003	-0.118
-331.216	-200.000	0.021	-0.406
-330.202	5.385	-0.189	0.140
-329.187	297.780	0.188	-0.348
-328.172	146.131	0.128	0.172
-327.158	234.209	-0.084	0.139
-326.143	19.265	0.120	0.097
-325.129	79.356	0.127	-0.137
-324.114	16.522	0.235	-0.187
-323.099	-80.565	0.213	-0.072
-322.085	259.836	-0.054	-0.095
-321.070	-200.000	0.015	-0.212
-320.056	-91.265	0.210	-0.060
-319.041	-152.182	0.261	0.019
-318.026	94.683	0.133	0.152
-317.012	35.121	0.308	-0.272
-315.997	-61.066	-0.301	0.128
-314.983	245.192	-0.094	0.160
-313.968	314.088	0.075	0.143
-312.953	-200.000	-0.038	-0.240
-311.939	-148.196	0.149	-0.012
-310.924	-200.000	-0.014	-0.224
-309.910	800.000	0.022	-0.089
-308.895	800.000	0.033	0.110
-307.880	40.969	0.129	0.117
-306.866	269.632	0.199	0.351
-305.851	-200.000	-0.006	-0.239
-304.837	-44.013	0.231	0.117
-303.822	800.000	-0.109	-0.335
-302.807	186.184	-0.061	0.092
-301.793	146.773	-0.161	0.218
-300.778	5.522	0.096	0.071
-299.764	124.490	0.165	-0.209
-298.749	109.983	0.072	0.086
-297.735	800.000	-0.083	-0.256
-296.720	-200.000	-0.002	-0.359
-295.705	102.459	0.036	0.042
-294.691	-188.002	-0.484	0.006
-293.676	-100.984	0.366	0.090
-292.662	-200.000	0.031	0.399
-291.647	417.553	-0.026	-0.056
-290.632	555.616	-0.056	0.135
-289.618	146.548	0.170	-0.229
-288.603	-10.151	-0.160	-0.107
-287.589	-200.000	-0.040	0.182
-286.574	-200.000	0.008	-0.324
-285.559	-200.000	0.025	-0.244
-284.545	-155.245	0.164	0.011
-283.530	-81.237	-0.167	0.055
-282.516	-110.289	0.128	0.027
-281.501	115.591	0.002	0.002
-280.486	-96.078	-0.288	0.077
-279.472	-111.921	-0.311	0.063
-278.457	70.791	0.179	0.186
-277.443	800.000	-0.057	-0.170
-276.428	800.000	0.057	-0.162
-275.413	256.413	0.083	-0.144
-274.399	-200.000	-0.246	-0.001
-273.384	-172.065	0.175	-0.006
-272.370	800.000	-0.013	0.057
-271.355	-11.943	-0.130	-0.086
-270.340	22.558	0.065	-0.053
-269.326	-101.623	0.086	0.021
-268.311	182.493	0.085	0.125
-267.297	194.466	-0.146	0.222
-266.282	-200.000	-0.019	0.166
-265.267	-165.355	0.114	0.005
-264.253	-4.893	-0.038	0.026
-263.238	800.000	-0.060	0.219
-262.224	800.000	0.029	-0.101
-261.209	91.071	0.135	0.153
-260.195	-34.533	0.254	-0.140
-259.180	-200.000	-0.003	-0.038
-258.165	12.516	-0.143	0.111
-257.151	71.428	-0.247	0.258
-256.136	317.770	-0.269	0.511
-255.122	800.000	0.093	0.272
-254.107	192.317	0.251	0.380
-253.092	-0.329	0.261	0.186
-252.078	-44.453	-0.401	-0.202
-251.063	78.390	0.200	-0.214
-250.049	13.345	0.161	-0.125
-249.034	116.127	-0.195	0.240
-248.019	-144.386	-0.273	-0.025
-247.005	49.636	-0.164	-0.155
-245.990	-200.000	0.022	-0.205
-244.976	423.028	-0.059	-0.128
-243.961	-176.312	-0.319	0.008
-242.946	-200.000	-0.002	0.022
-241.932	542.590	-0.108	-0.258
-240.917	-98.344	-0.137	0.035
-239.903	-181.659	0.144	-0.003
-238.888	58.143	-0.169	-0.166
-237.873	129.337	-0.067	0.085
-236.859	800.000	0.025	-0.094
-235.844	729.988	0.053	-0.142
-234.830	800.000	-0.024	-0.087
-233.815	800.000	-0.090	0.260
-232.800	-193.345	0.454	0.004
-231.786	-76.159	-0.062	-0.022
-230.771	101.805	-0.140	-0.164
-229.757	-54.028	-0.185	-0.085
-228.742	144.016	-0.158	0.212
-227.727	323.501	0.093	-0.178
-226.713	208.239	-0.138	-0.216
-225.698	-200.000	-0.001	0.073
-224.684	-71.681	0.222	-0.083
-223.669	-200.000	-0.081	0.400
-222.655	-56.457	0.095	0.042
-221.640	-43.298	-0.178	-0.091
-220.625	800.000	-0.020	0.083
-219.611	-42.409	-0.152	0.078
-218.596	-44.186	-0.022	-0.011
-217.582	-32.291	0.205	-0.115
-216.567	-19.851	0.126	-0.078
-215.552	242.948	0.094	-0.158
-214.538	685.655	0.086	-0.224
-213.523	-33.242	0.135	0.075
-212.509	-93.810	0.302	0.083
-211.494	-36.782	-0.197	-0.106
-210.479	-82.848	-0.056	-0.018
-209.465	-145.938	-0.228	0.020
-208.450	800.000	0.030	0.108
-207.436	36.405	0.298	0.263
-206.421	-200.000	-0.020	0.120
-205.406	-200.000	-0.026	-0.162
-204.392	-163.165	-0.218	0.011
-203.377	-121.691	-0.276	-0.046
-202.363	-117.146	0.019	0.004
-201.348	17.117	0.017	-0.013
-200.333	-98.322	-0.072	-0.018
-199.319	125.143	0.236	0.298
-198.304	-200.000	0.009	0.081
-197.290	425.131	-0.173	0.372
-196.275	-200.000	-0.003	0.359
-195.260	-200.000	0.003	0.341
-194.246	527.326	-0.120	-0.284
-193.231	-47.191	-0.136	-0.066
-192.217	-200.000	0.025	0.252
-191.202	97.396	0.030	0.035
-190.187	271.557	-0.156	-0.274
-189.173	-119.525	-0.084	-0.015
-188.158	634.534	-0.061	-0.155
-187.144	800.000	-0.063	0.221
-186.129	9.767	-0.005	0.004
-185.114	2.339	-0.123	0.089
-184.100	-200.000	-0.019	-0.295
-183.085	604.098	-0.091	0.228
-182.071	-1.026	-0.105	0.074
-181.056	28.028	-0.226	0.191
-180.042	-200.000	-0.052	0.325
-179.027	-200.000	-0.040	-0.218
-178.012	-124.774	0.070	0.011
-176.998	-4.759	0.181	0.125
-175.983	-109.427	-0.235	0.050
-174.969	231.040	0.199	-0.326
-173.954	-36.797	0.230	0.123
-172.939	-161.422	-0.057	-0.003
-171.925	800.000	0.090	0.268
-170.910	-91.550	0.053	-0.015
-169.896	-7.934	0.081	0.054
-168.881	800.000	0.088	-0.310
-167.866	-43.265	0.109	0.055
-166.852	64.191	-0.054	-0.054
-165.837	800.000	0.124	0.464
-164.823	-200.000	-0.052	-0.341
-163.808	-106.320	0.082	-0.018
-162.793	-24.843	-0.175	-0.104
-161.779	-17.202	0.198	0.125
-160.764	83.897	0.146	0.160
-159.750	42.187	0.140	0.127
-158.735	-200.000	0.129	0.000
-157.720	598.455	-0.042	-0.104
-156.706	-200.000	-0.040	-0.204
-155.691	-149.719	0.295	-0.023
-154.677	106.817	0.320	0.380
-153.662	235.108	0.172	0.283
-152.647	281.360	0.021	-0.038
-151.633	418.707	-0.107	0.229
-150.618	331.065	0.207	0.400
-149.604	9.007	-0.121	-0.091
-148.589	190.555	-0.155	-0.233
-147.574	124.544	0.196	-0.247
-146.560	-200.000	-0.057	-0.302
-145.545	-50.368	-0.353	-0.166
-144.531	-193.660	0.030	-0.000
-143.516	-200.000	-0.011	-0.180
-142.502	-25.996	0.213	-0.125
-141.487	-16.068	-0.163	-0.103
-140.472	-200.000	0.001	0.117
-139.458	800.000	0.169	0.477
-138.443	-200.000	0.013	0.281
-137.429	99.570	0.176	0.203
-136.414	-35.542	-0.212	-0.115
-135.399	-200.000	0.007	0.219
-134.385	168.308	-0.095	0.135
-133.370	-81.819	0.055	-0.018
-132.356	-164.472	0.254	-0.012
-131.341	-152.863	0.097	-0.007
-130.326	-57.247	-0.072	-0.032
-129.312	498.228	0.076	0.174
-128.297	361.878	0.120	0.240
-127.283	-112.371	0.301	-0.060
-126.268	44.439	0.053	0.049
-125.253	-200.000	0.033	-0.150
-124.239	-49.345	0.261	-0.124
-123.224	-63.555	0.101	0.041
-122.210	800.000	-0.087	-0.269
-121.195	-126.494	0.160	0.024
-120.180	-58.451	-0.200	0.087
-119.166	-200.000	0.028	0.289
-118.151	-155.904	0.349	0.022
-117.137	800.000	0.049	0.163
-116.122	123.979	-0.167	0.209
-115.107	-200.000	-0.007	-0.070
-114.093	800.000	0.018	-0.061
-113.078	800.000	0.066	0.265
-112.064	-80.276	0.300	0.100
-111.049	-200.000	-0.012	-0.124
-110.034	53.847	-0.183	-0.175
-109.020	-15.418	-0.051	-0.032
-108.005	29.579	0.066	-0.056
-106.991	-115.009	-0.160	0.030
-105.976	-52.054	0.106	-0.049
-104.962	424.583	-0.071	-0.152
-103.947	276.274	-0.054	-0.096
-102.932	-109.705	0.358	0.075
-101.918	-200.000	-0.021	0.098
-100.903	800.000	-0.024	0.069
-99.889	-200.000	0.036	-0.203
-98.874	14.150	0.229	-0.178
-97.859	357.408	0.107	0.214
-96.845	-200.000	-0.003	-0.167
-95.830	800.000	0.106	-0.438
-94.816	-189.332	-0.306	-0.004
-93.801	-87.908	-0.250	0.075
-92.786	307.421	-0.127	0.236
-91.772	39.345	0.196	-0.175
-90.757	23.200	-0.173	-0.141
-89.743	30.848	-0.230	-0.196
-88.728	97.902	0.183	0.210
-87.713	-200.000	0.004	-0.061
-86.699	-200.000	-0.016	0.099
-85.684	268.565	0.191	0.334
-84.670	281.785	-0.043	0.078
-83.655	110.557	-0.204	0.244
-82.640	-200.000	0.086	0.381
-81.626	800.000	0.070	-0.195
-80.611	48.089	-0.329	-0.307
-79.597	-167.902	0.155	-0.006
-78.582	337.583	-0.109	0.212
-77.567	-58.949	0.342	0.147
-76.553	21.464	0.080	-0.065
-75.538	107.413	-0.229	0.271
-74.524	495.424	-0.035	-0.080
-73.509	800.000	0.073	0.206
-72.494	-159.036	-0.207	0.012
-71.480	6.213	0.138	0.102
-70.465	800.000	0.057	0.158
-69.451	294.905	0.146	-0.267
-68.436	167.261	-0.061	-0.086
-67.422	107.397	-0.286	0.339
-66.407	-46.969	-0.247	-0.120
-65.392	-62.677	-0.015	0.006
-64.378	-36.813	0.365	0.195
-63.363	-104.729	0.382	0.088
-62.349	-200.000	-0.018	0.371
-61.334	129.224	-0.505	-0.642
-60.319	-108.718	0.483	-0.103
-59.305	-200.000	-0.056	-0.885
-58.290	309.993	0.307	0.573
-57.276	760.086	0.563	1.519
-56.261	-200.000	77.105	520.697
-55.246	540.366	1317.452	3124.137
-54.232	148.931	2538.951	3419.485
-53.217	119.335	2209.845	2723.638
-52.203	53.504	1663.579	1589.125
-51.188	45.373	1390.443	1277.642
-50.173	41.782	1345.292	1214.338
-49.159	60.734	1380.645	1362.794
-48.144	68.089	1399.463	1426.276
-47.130	45.839	1362.078	1254.227
-46.115	41.762	1345.830	1214.508
-45.100	41.383	1341.893	1208.613
-44.086	41.327	1339.011	1205.629
-43.071	41.326	1336.681	1203.476
-42.057	41.334	1334.258	1201.296
-41.042	41.390	1332.326	1199.845
-40.027	41.434	1331.259	1199.100
-39.013	41.486	1329.235	1197.543
-37.998	41.525	1327.280	1195.969
-36.984	41.506	1326.038	1194.691
-35.969	41.560	1324.191	1193.304
-34.954	41.553	1322.339	1191.546
-33.940	41.538	1321.031	1190.227
-32.925	41.651	1319.612	1189.574
-31.911	41.659	1318.224	1188.322
-30.896	41.598	1316.945	1186.762
-29.881	41.650	1315.464	1185.686
-28.867	41.602	1313.759	1183.821
-27.852	41.744	1312.388	1183.377
-26.838	41.690	1310.953	1181.717
-25.823	41.671	1309.413	1180.173
-24.809	41.713	1307.979	1179.080
-23.794	41.622	1307.247	1177.833
-22.779	41.716	1305.145	1176.449
-21.765	41.676	1304.072	1175.202
-20.750	41.514	1303.432	1173.622
-19.736	41.498	1301.711	1171.932
-18.721	41.502	1300.285	1170.627
-17.706	41.532	1299.510	1170.061
-16.692	41.524	1298.061	1168.663
-15.677	41.403	1297.290	1167.210
-14.663	41.561	1295.900	1166.836
-13.648	41.428	1295.235	1165.417
-12.633	41.510	1293.684	1164.452
-11.619	41.415	1293.068	1163.297
-10.604	41.517	1292.464	1163.305
-9.590	41.402	1291.320	1161.556
-8.575	41.459	1290.010	1160.665
-7.560	41.448	1289.307	1159.921
-6.546	41.500	1287.843	1158.862
-5.531	41.461	1287.568	1158.344
-4.517	41.438	1286.725	1157.402
-3.502	41.472	1285.635	1156.572
-2.487	41.430	1284.792	1155.524
-1.473	41.304	1281.149	1151.478
-0.458	39.562	1264.331	1126.372
0.556	34.315	1243.299	1077.455
1.571	29.584	1245.406	1052.305
2.586	28.137	1260.440	1056.562
3.600	26.931	1249.889	1040.716
4.615	19.143	1173.515	934.922
5.629	7.132	1091.323	808.363
6.644	1.763	1066.810	763.283
7.659	1.229	1064.410	758.831
8.673	1.172	1062.500	757.118
9.688	1.018	1062.139	756.020
10.702	1.571	1060.425	757.492
11.717	8.630	1071.424	800.704
12.731	19.193	1086.054	864.886
13.746	23.555	1090.824	890.553
14.761	23.907	1091.775	893.019
15.775	23.996	1090.754	892.551
16.790	23.815	1089.945	890.903
17.804	23.539	1089.896	889.400
18.819	23.673	1089.290	889.499
19.834	23.880	1088.621	889.910
20.848	23.949	1088.180	889.817
21.863	23.768	1087.648	888.394
22.877	23.821	1086.684	887.796
23.892	23.743	1086.056	886.813
24.907	23.695	1085.460	886.011
25.921	23.756	1084.239	885.238
26.936	23.742	1082.912	884.008
27.950	23.676	1081.553	882.490
28.965	23.586	1079.374	880.189
29.980	23.850	1078.020	880.316
30.994	23.795	1077.255	879.341
32.009	23.892	1075.905	878.639
33.023	23.638	1074.659	876.290
34.038	23.724	1074.157	876.230
35.053	23.746	1073.503	875.725
36.067	23.805	1072.780	875.349
37.082	23.979	1071.741	875.277
38.096	23.974	1071.272	874.796
39.111	24.032	1070.916	874.710
40.126	23.833	1069.588	872.574
41.140	23.665	1067.379	869.872
42.155	23.439	1065.836	867.431
43.169	23.490	1065.173	867.065
44.184	23.494	1064.015	866.064
45.199	23.342	1063.027	864.439
46.213	23.494	1061.982	864.253
47.228	23.636	1061.328	864.341
48.242	23.669	1060.713	863.919
49.257	23.786	1059.962	863.803
50.271	23.929	1058.983	863.621
51.286	23.833	1058.332	862.551
52.301	23.912	1057.505	862.184
53.315	23.769	1056.259	860.399
54.330	23.707	1055.368	859.298
55.344	23.841	1054.443	859.116
56.359	23.647	1053.780	857.560
57.374	23.612	1052.615	856.368
58.388	23.592	1051.551	855.330
59.403	23.536	1051.117	854.632
60.417	23.383	1050.294	853.152
61.432	23.521	1049.684	853.244
62.447	23.543	1049.115	852.809
63.461	23.734	1048.026	852.767
64.476	23.609	1047.242	851.453
65.490	23.522	1046.105	850.039
66.505	23.620	1045.446	849.895
67.520	23.552	1044.974	849.112
68.534	23.346	1043.555	846.902
69.549	23.057	1042.450	844.546
70.563	23.111	1041.623	844.061
71.578	23.091	1040.890	843.296
72.593	22.963	1040.319	842.149
73.607	22.991	1039.677	841.689
74.622	23.291	1039.424	842.838
75.636	23.394	1038.731	842.692
76.651	23.184	1037.748	840.822
77.666	23.175	1037.040	840.132
78.680	23.226	1036.324	839.716
79.695	23.316	1035.895	839.722
80.709	23.357	1035.233	839.307
81.724	23.451	1034.193	838.834
82.739	23.378	1033.754	838.056
83.753	23.880	1032.877	839.645
84.768	24.108	1032.063	839.985
85.782	24.187	1031.230	839.601
86.797	24.018	1030.094	837.809
87.812	23.852	1029.365	836.363
88.826	23.944	1028.552	836.060
89.841	24.063	1027.323	835.544
90.855	24.088	1026.173	834.650
91.870	23.992	1025.422	833.516
92.884	24.019	1024.190	832.568
93.899	23.885	1023.486	831.296
94.914	24.007	1022.768	831.208
95.928	23.834	1021.754	829.505
96.943	23.608	1020.960	827.731
97.957	23.517	1019.057	825.694
98.972	23.330	1018.202	824.056
99.987	23.548	1017.754	824.635
101.001	23.905	1016.281	825.025
102.016	23.847	1015.884	824.362
103.030	23.772	1014.686	822.971
104.045	23.457	1014.522	821.306
105.060	23.226	1013.448	819.294
106.074	23.578	1012.269	819.896
107.089	23.845	1012.275	821.062
108.103	23.756	1011.138	819.656
109.118	23.694	1009.382	817.872
110.133	23.550	1008.516	816.434
111.147	23.454	1007.416	815.032
112.162	23.156	1006.560	812.901
113.176	23.467	1005.995	813.801
114.191	23.382	1005.240	812.724
115.206	23.105	1003.789	810.213
116.220	23.064	1003.379	809.620
117.235	23.208	1002.697	809.657
118.249	23.126	1002.106	808.733
119.264	23.029	1001.434	807.679
120.279	23.144	1000.347	807.256
121.293	23.226	999.320	806.730
122.308	23.204	998.338	805.766
123.322	23.128	996.868	804.162
124.337	23.091	995.549	802.858
125.352	22.581	994.242	799.419
126.366	22.569	992.911	798.223
127.381	23.255	993.268	801.549
128.395	23.701	993.089	803.351
129.410	23.817	991.670	802.657
130.424	23.745	991.407	802.046
131.439	23.767	990.349	801.219
132.454	23.711	989.482	800.193
133.468	23.773	988.448	799.566
134.483	23.873	987.894	799.496
135.497	23.884	987.064	798.804
136.512	24.067	985.785	798.520
137.527	24.137	984.985	798.116
138.541	24.150	984.208	797.473
139.556	24.045	983.616	796.452
140.570	24.149	982.727	796.127
141.585	24.056	982.291	795.288
142.600	24.033	980.945	794.023
143.614	24.249	979.995	794.147
144.629	24.369	979.471	794.188
145.643	24.255	977.914	792.350
146.658	24.107	976.563	790.528
147.673	23.973	975.270	788.816
148.687	23.858	974.256	787.417
149.702	23.859	973.135	786.445
150.716	23.831	972.621	785.835
151.731	23.927	971.932	785.635
152.746	24.075	971.892	786.185
153.760	24.178	971.132	785.956
154.775	24.304	970.238	785.720
155.789	24.234	969.403	784.664
156.804	24.068	968.496	783.130
157.819	24.069	967.687	782.413
158.833	24.387	966.745	782.977
159.848	24.350	965.898	782.058
160.862	24.244	964.693	780.551
161.877	24.281	963.544	779.716
162.892	24.216	962.951	778.879
163.906	24.015	961.790	776.996
164.921	24.135	960.535	776.438
165.935	24.197	959.883	776.111
166.950	24.204	958.811	775.205
167.964	24.161	958.118	774.390
168.979	23.933	957.277	772.651
169.994	24.071	955.692	771.901
171.008	24.134	956.377	772.658
172.023	24.268	955.012	772.068
173.037	24.030	953.368	769.642
174.052	23.869	952.683	768.324
175.067	23.925	952.224	768.130
176.081	23.908	951.824	767.665
177.096	24.012	950.788	767.211
178.110	23.666	949.646	764.730
179.125	23.511	949.133	763.583
180.140	23.588	948.808	763.586
181.154	23.834	948.415	764.260
182.169	24.075	948.519	765.310
183.183	24.164	948.001	765.208
184.198	24.216	946.652	764.274
185.213	24.057	946.105	763.085
186.227	24.101	945.611	762.805
187.242	24.269	944.551	762.602
188.256	24.185	944.330	762.000
189.271	24.240	943.457	761.461
190.286	23.997	942.303	759.424
191.300	23.383	940.658	755.416
192.315	22.574	939.466	750.944
193.329	22.609	938.763	750.465
194.344	23.390	939.346	754.191
195.359	23.911	939.478	756.447
196.373	24.100	938.990	756.790
197.388	24.087	938.132	755.976
198.402	23.950	937.675	754.960
199.417	24.217	936.667	755.212
200.432	23.815	936.048	752.944
201.446	23.594	935.428	751.443
202.461	23.560	935.048	750.928
203.475	22.877	932.817	746.185
204.490	22.149	931.230	741.777
205.504	22.991	931.887	745.791
206.519	23.640	931.741	748.346
207.534	23.760	931.254	748.394
208.548	24.058	931.138	749.487
209.563	23.808	930.154	747.580
210.577	23.933	929.365	747.405
211.592	24.310	929.297	748.867
212.607	24.219	928.397	747.692
213.621	24.224	927.873	747.227
214.636	24.222	927.204	746.613
215.650	24.204	926.424	745.843
216.665	24.266	925.972	745.672
217.680	24.239	925.071	744.769
218.694	23.825	923.360	741.598
219.709	23.648	923.196	740.662
220.723	23.916	922.843	741.433
221.738	23.984	922.249	741.172
222.753	24.006	921.608	740.684
223.767	24.091	921.190	740.635
224.782	24.343	920.976	741.445
225.796	24.396	919.877	740.715
226.811	23.722	918.642	736.861
227.826	23.142	917.285	733.300
228.840	23.246	916.750	733.240
229.855	23.322	915.855	732.773
230.869	22.971	914.906	730.500
231.884	23.296	915.059	731.901
232.899	24.173	914.920	735.347
233.913	24.070	914.577	734.581
234.928	23.975	913.865	733.550
235.942	23.962	913.341	733.015
236.957	23.679	912.285	730.936
237.972	23.745	911.468	730.486
238.986	23.704	911.362	730.170
240.001	23.763	910.716	729.831
241.015	23.931	909.759	729.686
242.030	24.027	909.778	730.033
243.045	24.033	909.245	729.562
244.059	24.305	908.894	730.332
245.074	23.919	907.967	727.943
246.088	23.747	906.168	725.735
247.103	23.999	906.511	726.975
248.117	24.491	906.258	728.717
249.132	24.709	905.978	729.316
250.147	24.769	905.474	729.088
251.161	25.058	904.643	729.531
252.176	25.007	904.119	728.836
253.190	24.861	903.980	728.067
254.205	25.195	903.281	728.799
255.220	25.109	902.738	727.947
256.234	24.960	902.061	726.730
257.249	24.757	901.378	725.291
258.263	24.894	900.263	724.887
259.278	24.905	899.963	724.624
260.293	25.025	899.235	724.460
261.307	24.882	898.867	723.520
262.322	24.728	897.554	721.779
263.336	24.015	895.764	717.403
264.351	23.030	893.758	711.769
265.366	22.975	893.738	711.468
266.380	24.094	894.203	716.282
267.395	24.713	893.592	718.217
268.409	24.464	893.374	716.975
269.424	24.604	893.060	717.223
270.439	24.839	891.945	717.208
271.453	24.870	891.645	717.026
272.468	24.932	891.584	717.162
273.482	24.915	891.070	716.615
274.497	24.653	889.557	714.291
275.512	24.170	889.129	711.954
276.526	24.400	888.927	712.646
277.541	24.697	888.542	713.459
278.555	24.590	887.364	712.026
279.570	24.463	886.215	710.536
280.585	24.645	886.280	711.249
281.599	24.599	885.333	710.240
282.614	23.967	883.597	706.281
283.628	23.979	883.389	706.099
284.643	24.493	883.019	707.776
285.657	24.052	882.376	705.454
286.672	23.734	881.426	703.371
287.687	24.343	881.194	705.534
288.701	24.432	880.645	705.384
289.716	23.991	880.060	703.109
290.730	24.010	878.824	702.137
291.745	23.713	878.112	700.333
292.760	23.937	878.338	701.334
293.774	25.063	878.401	705.762
294.789	25.345	878.260	706.697
295.803	25.367	877.665	706.240
296.818	25.344	877.089	705.625
297.833	25.029	875.769	703.265
298.847	24.756	875.323	701.771
299.862	25.085	875.013	702.751
300.876	25.277	874.667	703.163
301.891	25.162	873.890	702.025
302.906	24.812	872.794	699.716
303.920	24.988	872.336	699.975
304.935	25.408	872.204	701.446
305.949	25.175	871.687	700.059
306.964	24.993	870.856	698.620
307.979	25.169	870.146	698.677
308.993	25.440	870.029	699.576
310.008	25.431	869.529	699.076
311.022	25.125	868.826	697.259
312.037	24.971	868.201	696.098
313.052	24.791	867.330	694.639
314.066	23.874	866.034	689.983
315.081	23.593	865.094	688.084
316.095	24.414	865.312	691.379
317.110	25.054	865.161	693.675
318.125	24.136	863.541	688.765
319.139	23.203	861.763	683.684
320.154	23.096	861.601	683.084
321.168	24.016	862.218	687.067
322.183	24.663	862.478	689.708
323.197	24.820	862.148	689.989
324.212	24.934	861.674	689.987
325.227	25.050	861.120	689.931
326.241	25.016	860.279	689.065
327.256	24.824	859.949	688.003
328.270	24.822	858.974	687.151
329.285	24.621	857.981	685.525
330.300	24.290	857.236	683.600
331.314	24.698	857.050	684.955
332.329	24.969	857.040	685.925
333.343	25.163	856.516	686.186
334.358	25.128	856.029	685.603
335.373	25.251	855.980	685.975
336.387	25.470	856.207	686.930
337.402	25.420	856.100	686.593
338.416	25.519	855.304	686.272
339.431	25.682	854.871	686.485
340.446	25.882	854.226	686.671
341.460	25.520	854.200	685.208
342.475	25.407	853.540	684.190
343.489	25.491	853.198	684.174
344.504	25.777	852.723	684.818
345.519	26.030	852.393	685.455
346.533	26.081	851.803	685.116
347.548	25.966	851.177	684.114
348.562	26.006	850.808	683.906
349.577	25.862	850.135	682.762
350.592	25.912	849.183	682.126
351.606	25.885	848.970	681.790
352.621	25.748	847.603	680.116
353.635	25.638	847.506	679.563
354.650	24.971	845.880	675.685
355.665	24.098	844.106	670.918
356.679	24.539	843.712	672.205
357.694	24.977	843.201	673.387
358.708	24.940	842.714	672.801
359.723	25.356	842.794	674.368
360.738	25.439	842.780	674.607
361.752	25.694	842.060	674.926
362.767	25.981	841.683	675.640
363.781	26.135	841.842	676.287
364.796	26.307	840.944	676.149
365.810	26.324	840.795	676.031
366.825	26.321	840.333	675.591
367.840	26.016	839.359	673.608
368.854	25.692	838.275	671.471
369.869	25.601	838.062	670.900
370.883	25.669	837.746	670.843
371.898	25.616	837.402	670.309
372.913	25.738	836.926	670.325
373.927	25.772	836.616	670.143
374.942	25.791	836.112	669.750
375.956	25.995	835.801	670.202
376.971	26.058	835.609	670.222
377.986	26.255	835.158	670.532
379.000	26.186	834.102	669.367
380.015	26.087	833.824	668.719
381.029	26.036	833.110	667.899
382.044	26.340	832.767	668.688
383.059	26.234	832.137	667.731
384.073	26.278	831.702	667.487
385.088	26.295	830.855	666.812
386.102	26.048	830.108	665.240
387.117	26.195	829.382	665.143
388.132	25.692	828.660	662.652
389.146	25.275	827.590	660.204
390.161	25.549	827.101	660.765
391.175	26.049	827.314	662.713
392.190	25.753	826.264	660.726
393.205	24.441	824.220	654.226
394.219	22.909	822.215	646.970
395.234	22.809	822.230	646.561
396.248	24.401	823.146	653.056
397.263	25.930	824.233	659.459
398.278	25.671	824.077	658.327
399.292	25.455	823.707	657.184
400.307	25.537	823.079	656.923
401.321	25.768	822.269	657.062
402.336	26.047	822.495	658.204
403.350	26.503	822.179	659.556
404.365	26.555	822.111	659.631
405.380	27.014	821.464	660.726
406.394	27.191	821.209	661.105
407.409	26.880	821.041	659.781
408.423	26.883	820.555	659.340
409.438	27.022	820.281	659.567
410.453	26.962	819.674	658.803
411.467	26.884	819.174	658.062
412.482	26.962	819.041	658.179
413.496	27.046	818.275	657.808
414.511	27.030	818.189	657.626
415.526	27.030	817.396	656.930
416.540	26.910	816.542	655.752
417.555	26.658	815.761	654.156
418.569	26.799	815.491	654.389
419.584	26.772	814.886	653.751
420.599	26.565	814.207	652.399
421.613	94.208	1261.902	1371.402
422.628	81.036	1327.159	1371.537
