DTS Sentinel unit serial number:	SN413079Multiplexer serial number:	ORYXHardware model number:	OX4-SRSoftware version number:	ORYX F/W v4.00 Oryx Data Collector v3.7.2.0data status	okinstallation	princeton_trtdifferential loss correction	single-endedforward channel	channel 1reverse channel	N/Adate	2019/09/18time	02:06:35forward acquisition time	60.00reverse acquisition time	0.00gamma	496.2192k internal	0.2341k external	0.2341temperature offset calibration	0.9978default loss term (dB/km)	0.3790temperature slope calibration	1.0000multiplexer offset coefficient	1.0000multiplexer slope coefficient	1.0000fibre end	0.00T internal ref (°C)	22.89T ext. ref 1 (°C)	0.16T ext. ref 2 (°C)	16.60length (m)	temperature (°C)	Stokes	anti-Stokes-747.200	-200.000	0.016	-0.167
-746.185	142.549	0.067	0.089
-745.171	-92.942	0.262	0.073
-744.156	80.590	0.246	0.266
-743.142	-164.201	-0.208	-0.010
-742.127	124.052	0.077	0.097
-741.112	166.540	0.063	0.090
-740.098	800.000	-0.038	0.161
-739.083	305.213	0.104	0.194
-738.069	-200.000	0.029	0.134
-737.054	-40.404	0.246	0.128
-736.039	-167.193	-0.448	-0.018
-735.025	2.796	0.384	0.279
-734.010	800.000	-0.032	0.117
-732.996	-200.000	0.006	0.055
-731.981	-200.000	0.049	-0.275
-730.966	426.017	-0.132	-0.285
-729.952	314.587	-0.077	0.146
-728.937	-200.000	0.022	-0.115
-727.923	390.999	0.065	0.136
-726.908	-200.000	-0.013	0.106
-725.894	137.684	-0.188	0.247
-724.879	800.000	-0.098	-0.410
-723.864	67.300	0.018	0.018
-722.850	-200.000	0.070	-0.418
-721.835	-0.065	0.159	-0.114
-720.821	-177.497	0.317	0.008
-719.806	381.015	0.054	0.110
-718.791	31.189	0.089	0.077
-717.777	-137.930	-0.399	0.045
-716.762	-1.755	0.285	0.201
-715.748	-12.649	0.181	0.118
-714.733	-114.055	0.153	0.030
-713.718	-200.000	-0.005	0.166
-712.704	-123.744	-0.101	0.016
-711.689	-124.902	0.077	-0.012
-710.675	-190.242	-0.264	-0.003
-709.660	-158.357	-0.083	0.005
-708.645	-134.908	-0.328	0.040
-707.631	19.049	0.056	-0.045
-706.616	-15.471	0.060	0.038
-705.602	-128.870	0.046	-0.006
-704.587	-34.245	0.224	-0.123
-703.572	49.933	-0.149	-0.141
-702.558	194.483	0.164	0.249
-701.543	-200.000	0.039	-0.194
-700.529	-64.745	0.179	-0.072
-699.514	476.796	-0.089	-0.201
-698.499	-108.962	-0.078	-0.017
-697.485	-127.007	-0.257	0.038
-696.470	-21.348	0.161	-0.098
-695.456	-164.845	-0.464	0.021
-694.441	-138.445	0.088	-0.010
-693.426	387.290	-0.042	0.087
-692.412	-7.273	-0.116	-0.078
-691.397	-200.000	-0.006	0.076
-690.383	-119.886	0.258	-0.044
-689.368	-200.000	-0.010	-0.165
-688.354	800.000	-0.043	-0.149
-687.339	-76.320	0.033	0.011
-686.324	-44.420	0.160	-0.080
-685.310	554.907	-0.098	0.236
-684.295	800.000	-0.066	-0.191
-683.281	-186.720	0.395	0.006
-682.266	-73.918	-0.122	-0.044
-681.251	97.373	-0.225	-0.258
-680.237	800.000	-0.004	0.014
-679.222	-187.479	-0.526	0.007
-678.208	800.000	0.131	0.450
-677.193	98.595	0.105	0.122
-676.178	722.524	-0.039	-0.103
-675.164	-1.378	0.135	0.095
-674.149	-84.481	-0.069	0.022
-673.135	82.736	-0.185	0.201
-672.120	319.584	0.155	-0.293
-671.105	16.928	-0.111	-0.088
-670.091	-200.000	0.044	-0.288
-669.076	-200.000	-0.021	-0.314
-668.062	567.150	-0.117	0.285
-667.047	-5.391	-0.300	-0.206
-666.032	62.686	0.125	0.125
-665.018	212.426	-0.234	0.368
-664.003	-0.706	-0.130	-0.092
-662.989	-66.036	0.326	-0.130
-661.974	-200.000	-0.005	-0.214
-660.959	311.877	0.136	0.255
-659.945	-79.888	0.178	0.060
-658.930	-58.959	0.148	-0.064
-657.916	-106.620	0.349	0.077
-656.901	12.310	-0.150	-0.116
-655.886	235.281	0.022	0.036
-654.872	800.000	-0.037	-0.161
-653.857	-160.502	0.260	-0.014
-652.843	492.664	-0.118	-0.269
-651.828	-5.852	-0.054	-0.037
-650.814	-63.423	-0.049	-0.020
-649.799	-143.777	0.122	-0.012
-648.784	698.152	-0.038	-0.099
-647.770	-51.246	-0.318	0.149
-646.755	92.361	-0.075	-0.084
-645.741	193.000	-0.205	0.310
-644.726	14.379	0.203	0.158
-643.711	800.000	-0.048	-0.166
-642.697	-66.946	0.117	-0.046
-641.682	123.225	-0.212	0.265
-640.668	194.429	0.030	0.045
-639.653	-36.095	0.164	0.088
-638.638	-45.851	-0.293	0.145
-637.624	24.999	0.081	-0.067
-636.609	800.000	0.023	0.074
-635.595	-200.000	0.050	-0.227
-634.580	80.875	-0.156	-0.168
-633.565	107.887	0.108	0.128
-632.551	85.928	0.253	0.277
-631.536	547.223	-0.136	0.326
-630.522	721.980	0.046	-0.123
-629.507	-200.000	0.000	-0.110
-628.492	98.198	-0.110	-0.126
-627.478	120.622	-0.166	0.205
-626.463	164.090	-0.251	-0.353
-625.449	173.670	0.112	-0.162
-624.434	286.537	0.023	0.041
-623.419	-64.183	-0.185	-0.075
-622.405	89.086	0.317	-0.352
-621.390	115.418	-0.042	0.052
-620.376	-117.009	-0.053	-0.010
-619.361	222.543	-0.099	-0.158
-618.346	85.078	0.088	0.096
-617.332	-4.937	0.323	-0.222
-616.317	800.000	-0.019	-0.053
-615.303	-123.595	0.180	0.029
-614.288	-1.125	-0.097	-0.069
-613.273	-77.771	0.179	-0.062
-612.259	800.000	0.037	0.111
-611.244	-63.266	0.231	0.095
-610.230	800.000	0.048	0.186
-609.215	-70.146	-0.133	0.050
-608.201	-128.144	-0.327	-0.047
-607.186	152.482	0.008	-0.010
-606.171	-131.266	0.243	-0.032
-605.157	-165.289	-0.344	-0.015
-604.142	341.444	-0.122	0.238
-603.128	800.000	0.071	-0.256
-602.113	-133.749	-0.022	0.003
-601.098	-78.010	0.093	0.032
-600.084	13.498	-0.070	-0.054
-599.069	800.000	-0.022	-0.073
-598.055	-152.929	0.446	-0.031
-597.040	-151.466	-0.354	0.026
-596.025	492.979	0.036	0.082
-595.011	-200.000	-0.006	0.078
-593.996	-3.991	0.234	0.162
-592.982	123.223	-0.191	-0.239
-591.967	-200.000	0.006	0.051
-590.952	598.501	-0.057	-0.141
-589.938	7.579	0.408	-0.304
-588.923	-86.749	-0.614	-0.187
-587.909	496.000	0.043	0.099
-586.894	-105.644	-0.035	-0.008
-585.879	277.869	-0.157	-0.278
-584.865	-91.609	-0.220	0.062
-583.850	261.069	0.045	0.078
-582.836	185.706	0.187	0.276
-581.821	-68.400	-0.070	0.027
-580.806	800.000	-0.149	-0.464
-579.792	547.387	-0.062	0.149
-578.777	85.448	-0.191	0.209
-577.763	-79.312	0.243	0.082
-576.748	-200.000	-0.027	0.368
-575.733	-200.000	0.025	-0.172
-574.719	2.933	0.123	-0.089
-573.704	-154.472	-0.251	-0.017
-572.690	-192.081	0.067	0.001
-571.675	-60.662	0.084	-0.035
-570.661	517.490	-0.121	0.281
-569.646	-104.675	-0.154	0.035
-568.631	-200.000	0.022	-0.204
-567.617	10.478	0.119	0.090
-566.602	85.446	0.102	0.112
-565.588	-200.000	0.002	-0.012
-564.573	716.173	0.107	-0.283
-563.558	800.000	0.069	0.248
-562.544	-82.573	-0.027	0.009
-561.529	800.000	-0.097	-0.352
-560.515	-200.000	-0.032	-0.228
-559.500	612.813	-0.006	-0.014
-558.485	-165.949	-0.326	-0.014
-557.471	-55.419	-0.268	-0.120
-556.456	-200.000	-0.013	0.388
-555.442	-43.786	0.306	0.153
-554.427	348.371	0.080	-0.157
-553.412	110.709	-0.192	-0.230
-552.398	77.633	-0.064	0.068
-551.383	53.719	0.027	-0.026
-550.369	-200.000	0.035	-0.216
-549.354	-130.289	0.090	0.012
-548.339	-159.893	0.176	-0.010
-547.325	8.089	0.060	0.045
-546.310	-11.089	-0.276	-0.181
-545.296	6.003	0.155	-0.114
-544.281	800.000	-0.129	-0.458
-543.266	-112.065	0.232	-0.047
-542.252	800.000	-0.102	0.393
-541.237	-200.000	0.058	-0.358
-540.223	348.759	-0.081	-0.159
-539.208	-166.192	0.235	-0.010
-538.193	198.844	-0.076	-0.115
-537.179	-79.628	-0.075	0.025
-536.164	255.996	0.173	0.295
-535.150	-101.269	-0.229	0.056
-534.135	-200.000	-0.028	-0.184
-533.121	800.000	0.033	0.105
-532.106	800.000	0.074	-0.304
-531.091	-200.000	0.009	-0.172
-530.077	-100.860	0.382	-0.093
-529.062	800.000	-0.065	-0.215
-528.048	138.862	-0.099	0.130
-527.033	-40.159	-0.146	0.076
-526.018	-166.052	0.261	0.011
-525.004	-200.000	0.010	-0.144
-523.989	407.149	-0.043	0.090
-522.975	-98.534	-0.308	0.078
-521.960	-200.000	0.044	-0.260
-520.945	-3.216	-0.181	0.126
-519.931	138.310	-0.140	-0.183
-518.916	-30.635	0.101	0.057
-517.902	-200.000	0.044	-0.255
-516.887	-70.503	-0.149	0.056
-515.872	-152.261	0.090	-0.006
-514.858	774.177	-0.032	0.086
-513.843	-200.000	0.053	0.265
-512.829	-13.291	0.243	-0.156
-511.814	-200.000	-0.028	-0.223
-510.799	-200.000	-0.011	0.170
-509.785	753.239	-0.082	-0.220
-508.770	-71.725	0.092	-0.034
-507.756	-200.000	0.016	0.187
-506.741	800.000	0.045	-0.182
-505.726	-200.000	-0.034	-0.241
-504.712	30.667	0.193	-0.164
-503.697	102.295	0.065	0.075
-502.683	800.000	-0.058	-0.224
-501.668	800.000	0.019	-0.079
-500.653	5.105	-0.173	-0.126
-499.639	800.000	-0.015	-0.052
-498.624	2.314	-0.179	0.129
-497.610	66.493	-0.194	-0.196
-496.595	-45.201	-0.307	0.152
-495.581	-60.600	0.069	0.029
-494.566	13.250	0.069	0.053
-493.551	-74.122	-0.124	-0.044
-492.537	346.324	0.056	0.109
-491.522	-6.107	0.167	0.113
-490.508	-200.000	0.013	-0.091
-489.493	800.000	-0.035	-0.147
-488.478	115.382	-0.072	-0.088
-487.464	172.200	-0.044	0.063
-486.449	-200.000	0.004	0.136
-485.435	-34.628	-0.082	-0.045
-484.420	-10.491	-0.312	-0.205
-483.405	267.510	-0.193	0.335
-482.391	179.717	-0.032	-0.047
-481.376	496.009	0.139	-0.318
-480.362	-145.996	-0.324	-0.028
-479.347	-134.372	-0.202	0.025
-478.332	-19.190	-0.087	0.053
-477.318	139.310	0.234	0.306
-476.303	800.000	0.048	0.141
-475.289	-128.865	-0.052	0.007
-474.274	-62.875	0.205	0.084
-473.259	357.060	0.069	-0.137
-472.245	800.000	-0.041	0.162
-471.230	10.755	0.107	-0.081
-470.216	37.356	0.166	-0.145
-469.201	-83.541	-0.085	-0.027
-468.186	-104.555	0.177	-0.040
-467.172	0.003	-0.417	0.294
-466.157	-50.770	-0.388	0.181
-465.143	-200.000	-0.071	0.316
-464.128	-145.834	-0.246	0.022
-463.113	-200.000	0.044	0.216
-462.099	-200.000	0.026	0.196
-461.084	-41.240	-0.092	0.047
-460.070	50.522	-0.078	0.073
-459.055	800.000	0.032	-0.103
-458.040	-200.000	-0.003	0.195
-457.026	-92.144	0.191	-0.054
-456.011	237.093	0.085	0.140
-454.997	-34.605	-0.096	0.052
-453.982	-46.963	0.177	0.086
-452.968	167.739	0.162	-0.228
-451.953	800.000	-0.098	0.408
-450.938	-200.000	-0.009	0.255
-449.924	-39.553	-0.353	0.183
-448.909	351.054	0.090	0.176
-447.895	496.330	0.082	0.187
-446.880	139.333	0.140	-0.183
-445.865	94.207	0.082	0.092
-444.851	-200.000	0.004	0.057
-443.836	21.559	0.019	0.016
-442.822	200.184	0.120	0.182
-441.807	-49.951	-0.256	-0.120
-440.792	-34.109	-0.372	-0.202
-439.778	-37.058	0.110	0.058
-438.763	52.824	-0.119	0.112
-437.749	-64.752	0.088	-0.035
-436.734	86.458	0.074	-0.080
-435.719	-1.153	-0.041	0.029
-434.705	203.571	0.166	-0.254
-433.690	1.385	-0.032	-0.023
-432.676	40.131	0.123	-0.110
-431.661	31.858	0.193	-0.165
-430.646	-116.988	0.049	0.009
-429.632	379.567	-0.260	-0.527
-428.617	-200.000	-0.050	0.328
-427.603	48.980	0.021	-0.020
-426.588	611.220	0.075	-0.185
-425.573	-200.000	0.036	0.283
-424.559	-105.133	-0.298	-0.067
-423.544	-139.787	0.166	-0.017
-422.530	303.410	0.160	-0.294
-421.515	333.698	-0.138	-0.264
-420.500	255.606	0.178	-0.302
-419.486	-111.831	0.057	-0.011
-418.471	-72.761	0.361	-0.131
-417.457	-172.386	-0.091	0.003
-416.442	93.256	0.186	-0.208
-415.428	-165.836	-0.239	-0.010
-414.413	-159.412	-0.155	-0.009
-413.398	-200.000	-0.012	0.109
-412.384	241.803	-0.073	-0.121
-411.369	-49.836	-0.271	0.127
-410.355	-15.603	-0.193	0.122
-409.340	-200.000	-0.043	-0.267
-408.325	673.763	0.080	-0.205
-407.311	-200.000	-0.041	0.223
-406.296	-40.204	0.165	-0.085
-405.282	376.700	0.015	-0.031
-404.267	-68.401	-0.448	0.172
-403.252	613.878	0.010	0.025
-402.238	-129.172	0.068	-0.009
-401.223	259.729	-0.107	0.183
-400.209	13.153	-0.312	0.239
-399.194	252.847	0.125	-0.212
-398.179	-33.420	0.274	0.150
-397.165	-41.773	-0.141	-0.072
-396.150	-112.020	-0.198	-0.039
-395.136	-1.134	0.088	0.062
-394.121	-200.000	0.030	-0.130
-393.106	-8.430	-0.500	0.332
-392.092	-3.121	-0.146	-0.101
-391.077	22.417	0.182	-0.147
-390.063	323.510	0.181	0.342
-389.048	-200.000	-0.009	0.046
-388.033	-94.236	0.275	-0.074
-387.019	-161.996	-0.332	-0.017
-386.004	405.787	0.190	0.397
-384.990	-200.000	-0.050	0.317
-383.975	-15.614	0.191	-0.120
-382.960	16.689	0.202	-0.158
-381.946	39.923	0.130	0.115
-380.931	231.426	-0.095	0.153
-379.917	50.841	0.268	0.251
-378.902	-146.412	-0.262	-0.023
-377.888	-124.507	0.348	-0.054
-376.873	800.000	-0.062	-0.234
-375.858	34.868	-0.140	-0.121
-374.844	146.258	0.142	-0.188
-373.829	555.533	0.154	0.367
-372.815	334.659	-0.084	0.160
-371.800	155.260	0.126	0.171
-370.785	14.763	-0.150	0.116
-369.771	-65.089	0.093	0.037
-368.756	-200.000	0.042	-0.377
-367.742	70.664	-0.200	0.205
-366.727	151.836	-0.044	0.060
-365.712	62.260	-0.114	-0.113
-364.698	-200.000	-0.066	-0.299
-363.683	605.093	0.048	-0.118
-362.669	-11.503	0.085	-0.055
-361.654	123.097	-0.212	-0.262
-360.639	-114.666	-0.183	0.034
-359.625	247.692	-0.196	-0.326
-358.610	-61.709	-0.087	0.036
-357.596	-0.596	0.275	0.193
-356.581	-90.423	-0.313	-0.090
-355.566	-200.000	-0.038	-0.291
-354.552	-102.577	-0.073	-0.017
-353.537	-69.863	0.543	0.204
-352.523	-68.232	0.012	0.005
-351.508	-200.000	0.024	0.253
-350.493	800.000	-0.010	-0.034
-349.479	-116.188	0.077	-0.014
-348.464	-113.886	0.223	-0.043
-347.450	147.126	0.223	0.296
-346.435	-3.604	0.337	0.231
-345.420	-55.125	-0.082	0.037
-344.406	47.177	-0.021	-0.019
-343.391	-200.000	-0.032	-0.242
-342.377	-107.550	0.259	0.056
-341.362	61.069	0.200	0.196
-340.348	131.137	-0.034	-0.043
-339.333	-173.744	0.246	-0.007
-338.318	-131.416	-0.242	0.032
-337.304	240.767	-0.095	-0.156
-336.289	73.793	-0.311	0.322
-335.275	-69.593	-0.170	0.064
-334.260	-12.606	0.103	0.066
-333.245	794.572	0.144	0.390
-332.231	220.237	-0.056	-0.088
-331.216	5.868	-0.349	-0.255
-330.202	77.711	0.135	-0.142
-329.187	77.467	0.026	-0.027
-328.172	352.286	-0.126	-0.245
-327.158	-68.316	-0.365	0.140
-326.143	-200.000	0.001	0.063
-325.129	284.191	0.206	0.366
-324.114	605.239	-0.054	-0.134
-323.099	-154.805	-0.321	0.021
-322.085	23.573	0.015	-0.012
-321.070	625.953	0.137	-0.340
-320.056	800.000	0.153	-0.625
-319.041	-104.473	0.199	-0.045
-318.026	137.599	-0.080	-0.104
-317.012	-200.000	-0.042	0.214
-315.997	106.943	-0.080	-0.094
-314.983	-93.374	0.212	0.058
-313.968	248.034	0.191	0.318
-312.953	140.291	0.077	0.100
-311.939	-165.535	0.189	-0.008
-310.924	-58.840	-0.117	-0.050
-309.910	623.201	-0.087	0.215
-308.895	-9.969	0.208	0.136
-307.880	-139.989	0.129	0.013
-306.866	160.166	-0.054	0.074
-305.851	-137.232	0.265	0.030
-304.837	504.891	0.111	-0.253
-303.822	800.000	0.053	-0.173
-302.807	-164.673	-0.238	0.011
-301.793	296.875	0.106	0.191
-300.778	-76.808	0.173	0.060
-299.764	-132.735	-0.078	0.010
-298.749	-80.591	-0.350	-0.115
-297.735	-15.295	-0.157	0.099
-296.720	70.741	0.224	0.228
-295.705	-67.989	0.174	-0.067
-294.691	-187.303	0.163	-0.002
-293.676	-64.139	-0.063	-0.025
-292.662	800.000	0.181	-0.506
-291.647	-84.735	0.342	0.106
-290.632	800.000	-0.069	0.213
-289.618	-200.000	-0.021	0.152
-288.603	187.139	0.099	-0.146
-287.589	28.429	0.239	0.199
-286.574	-40.576	-0.362	-0.185
-285.559	21.267	0.388	-0.310
-284.545	800.000	-0.099	-0.276
-283.530	-173.508	-0.053	-0.002
-282.516	445.655	0.077	0.166
-281.501	-38.501	0.223	-0.116
-280.486	339.755	-0.131	0.251
-279.472	-200.000	0.006	0.206
-278.457	-82.612	0.230	-0.073
-277.443	-200.000	-0.005	-0.050
-276.428	-87.702	0.061	-0.018
-275.413	-200.000	0.009	-0.268
-274.399	-82.346	0.193	0.062
-273.384	-45.912	0.275	-0.134
-272.370	-104.894	-0.249	-0.056
-271.355	-3.650	0.031	0.021
-270.340	171.670	-0.152	-0.215
-269.326	-132.253	0.169	0.022
-268.311	43.848	-0.164	0.148
-267.297	-8.946	-0.112	-0.074
-266.282	-20.088	0.208	0.126
-265.267	334.110	0.134	-0.255
-264.253	800.000	0.072	-0.267
-263.238	48.225	-0.061	-0.056
-262.224	11.830	-0.074	0.056
-261.209	800.000	-0.099	0.382
-260.195	560.629	0.148	0.352
-259.180	-108.382	0.124	-0.026
-258.165	149.620	0.033	-0.044
-257.151	-134.561	0.202	-0.024
-256.136	-87.910	0.241	0.071
-255.122	-99.500	-0.256	0.063
-254.107	203.184	0.096	-0.145
-253.092	-108.290	-0.122	-0.026
-252.078	103.687	-0.104	0.120
-251.063	177.890	-0.153	-0.220
-250.049	-200.000	-0.030	-0.174
-249.034	524.938	-0.294	-0.680
-248.019	506.758	0.076	0.174
-247.005	185.082	0.124	0.181
-245.990	-59.593	0.266	0.112
-244.976	-66.838	0.339	-0.132
-243.961	800.000	0.078	0.254
-242.946	-78.759	-0.125	0.042
-241.932	78.215	0.025	0.026
-240.917	2.159	0.163	-0.116
-239.903	800.000	-0.051	-0.155
-238.888	-19.998	0.162	0.098
-237.873	-186.816	0.277	-0.004
-236.859	-25.587	-0.167	0.097
-235.844	-136.049	0.236	0.027
-234.830	10.900	0.105	-0.079
-233.815	-16.057	-0.159	0.099
-232.800	-17.478	-0.034	0.021
-231.786	-44.540	0.398	0.195
-230.771	800.000	0.073	0.207
-229.757	-200.000	-0.024	-0.193
-228.742	40.133	-0.159	-0.141
-227.727	-200.000	-0.091	0.479
-226.713	581.626	-0.152	-0.365
-225.698	-31.933	0.137	-0.075
-224.684	-200.000	0.009	-0.037
-223.669	202.421	-0.115	0.174
-222.655	19.895	0.089	0.071
-221.640	800.000	-0.108	0.293
-220.625	-200.000	-0.010	-0.205
-219.611	17.431	-0.311	0.243
-218.596	-108.307	0.079	-0.017
-217.582	-97.843	-0.288	-0.073
-216.567	257.850	0.061	0.103
-215.552	-102.607	0.182	-0.043
-214.538	46.598	-0.145	-0.132
-213.523	177.904	-0.081	-0.117
-212.509	-113.252	-0.117	-0.023
-211.494	-200.000	-0.028	-0.443
-210.479	-23.748	0.295	0.173
-209.465	-121.462	-0.107	-0.017
-208.450	-84.198	0.298	0.093
-207.436	-105.962	-0.302	0.067
-206.421	-96.354	-0.149	-0.039
-205.406	262.671	-0.059	-0.101
-204.392	131.335	0.115	-0.145
-203.377	-133.617	-0.074	0.009
-202.363	-98.098	-0.242	0.061
-201.348	206.380	-0.206	0.315
-200.333	242.669	-0.157	-0.258
-199.319	345.925	0.128	-0.247
-198.304	-200.000	0.019	0.184
-197.290	118.105	-0.127	-0.153
-196.275	-200.000	-0.012	0.170
-195.260	125.373	-0.205	0.254
-194.246	584.919	0.115	0.276
-193.231	70.774	-0.111	0.113
-192.217	-18.994	0.249	-0.152
-191.202	-200.000	-0.006	0.110
-190.187	800.000	0.082	0.289
-189.173	-200.000	0.054	0.235
-188.158	-80.790	0.257	0.084
-187.144	-102.859	0.279	0.065
-186.129	45.850	0.168	0.152
-185.114	-18.155	-0.130	0.080
-184.100	-42.805	-0.176	-0.088
-183.085	-72.743	-0.212	0.076
-182.071	-61.215	0.263	0.109
-181.056	565.934	-0.055	-0.130
-180.042	312.309	0.089	0.165
-179.027	144.770	0.104	-0.136
-178.012	-200.000	-0.034	-0.150
-176.998	-200.000	-0.054	-0.271
-175.983	-200.000	-0.041	0.178
-174.969	-135.454	0.167	-0.020
-173.954	800.000	0.052	0.207
-172.939	39.306	-0.098	-0.086
-171.925	-40.436	-0.106	-0.054
-170.910	-33.419	0.188	-0.102
-169.896	-200.000	-0.076	0.354
-168.881	60.111	-0.285	-0.276
-167.866	-35.409	-0.189	-0.101
-166.852	-93.473	-0.131	-0.035
-165.837	-23.085	0.276	0.163
-164.823	-200.000	-0.072	0.398
-163.808	32.231	0.061	-0.051
-162.793	122.050	0.114	-0.140
-161.779	-106.967	0.169	-0.037
-160.764	-70.377	-0.061	0.023
-159.750	-134.082	-0.134	-0.016
-158.735	1.846	-0.070	-0.050
-157.720	800.000	-0.123	0.395
-156.706	-200.000	0.033	0.197
-155.691	800.000	-0.063	-0.196
-154.677	-22.700	0.121	0.072
-153.662	-200.000	0.019	0.183
-152.647	60.607	0.326	-0.316
-151.633	86.547	-0.257	0.277
-150.618	-135.035	-0.003	0.000
-149.604	-200.000	0.003	0.106
-148.589	-103.196	0.016	0.004
-147.574	175.146	0.067	-0.095
-146.560	583.473	-0.121	0.291
-145.545	-97.038	0.264	0.068
-144.531	195.626	-0.176	0.262
-143.516	167.770	-0.152	0.212
-142.502	175.182	-0.178	-0.253
-141.487	-8.661	0.191	0.125
-140.472	225.037	-0.168	-0.266
-139.458	655.052	-0.065	-0.164
-138.443	24.290	-0.114	0.092
-137.429	800.000	0.096	0.374
-136.414	587.944	-0.038	0.092
-135.399	-15.678	0.362	0.226
-134.385	-200.000	0.099	0.565
-133.370	56.297	0.178	-0.170
-132.356	-200.000	-0.012	-0.289
-131.341	-113.852	0.124	-0.024
-130.326	519.297	-0.085	0.194
-129.312	-98.167	0.306	-0.077
-128.297	-77.768	0.091	0.031
-127.283	800.000	0.029	0.109
-126.268	251.335	-0.164	-0.273
-125.253	800.000	0.147	0.459
-124.239	138.484	0.115	-0.147
-123.224	-2.052	0.335	-0.230
-122.210	800.000	-0.069	-0.191
-121.195	81.769	-0.150	-0.159
-120.180	-64.416	0.220	-0.087
-119.166	-168.490	0.320	-0.012
-118.151	92.298	-0.104	0.114
-117.137	402.330	0.032	0.065
-116.122	415.129	0.130	0.270
-115.107	-115.884	-0.200	0.037
-114.093	-153.360	0.227	0.015
-113.078	103.054	-0.290	0.332
-112.064	92.296	0.145	-0.160
-111.049	-200.000	-0.011	0.071
-110.034	-3.432	-0.116	-0.079
-109.020	222.572	0.105	0.166
-108.005	264.326	-0.104	0.176
-106.991	136.345	0.074	0.094
-105.976	-200.000	0.015	0.187
-104.962	89.816	0.147	-0.161
-103.947	-86.823	0.087	0.026
-102.932	171.299	-0.222	-0.311
-101.918	-64.695	0.170	-0.067
-100.903	-4.655	0.214	-0.144
-99.889	-200.000	0.403	-0.001
-98.874	-200.000	0.005	-0.117
-97.859	-61.422	0.194	0.080
-96.845	-196.539	0.261	-0.002
-95.830	-85.543	0.371	-0.113
-94.816	-124.892	-0.257	0.039
-93.801	-91.464	-0.159	0.044
-92.786	666.911	-0.045	-0.114
-91.772	800.000	0.053	0.150
-90.757	800.000	0.112	0.357
-89.743	556.976	-0.085	0.201
-88.728	66.350	-0.129	-0.128
-87.713	-156.603	-0.079	0.005
-86.699	531.338	0.073	-0.168
-85.684	800.000	-0.141	0.518
-84.670	-42.590	0.226	0.112
-83.655	-82.773	-0.270	0.085
-82.640	-200.000	-0.072	-0.491
-81.626	-200.000	0.045	0.325
-80.611	800.000	-0.101	0.361
-79.597	-126.607	0.148	-0.021
-78.582	186.082	0.205	-0.298
-77.567	-200.000	0.061	0.382
-76.553	-79.023	0.500	0.166
-75.538	-38.889	-0.245	-0.126
-74.524	-132.661	0.170	-0.021
-73.509	102.441	-0.198	-0.226
-72.494	52.058	0.162	-0.150
-71.480	-154.213	-0.190	0.013
-70.465	800.000	-0.017	0.049
-69.451	41.942	0.065	0.057
-68.436	254.485	-0.176	0.293
-67.422	28.115	0.218	-0.179
-66.407	-88.978	-0.024	-0.007
-65.392	-200.000	-0.017	0.136
-64.378	-110.349	-0.171	-0.035
-63.363	800.000	0.061	-0.173
-62.349	6.887	-0.262	-0.190
-61.334	92.972	-1.177	-1.297
-60.319	50.828	0.823	0.761
-59.305	800.000	-0.395	-1.351
-58.290	492.128	0.567	1.267
-57.276	800.000	0.433	1.593
-56.261	-200.000	127.741	676.191
-55.246	409.863	1605.124	3317.987
-54.232	138.744	2759.410	3535.745
-53.217	95.521	2159.845	2402.867
-52.203	34.465	1589.523	1353.734
-51.188	26.102	1334.178	1086.141
-50.173	23.782	1295.838	1041.309
-49.159	52.329	1366.311	1271.207
-48.144	48.688	1377.643	1259.785
-47.130	26.397	1324.786	1080.085
-46.115	23.063	1305.980	1045.040
-45.100	22.827	1300.672	1039.363
-44.086	22.829	1298.101	1037.282
-43.071	22.745	1296.000	1035.066
-42.057	22.670	1294.457	1033.356
-41.042	22.783	1292.406	1032.337
-40.027	22.808	1291.211	1031.487
-39.013	22.702	1289.423	1029.400
-37.998	22.850	1287.103	1028.368
-36.984	22.733	1285.701	1026.525
-35.969	22.804	1284.034	1025.568
-34.954	22.790	1282.297	1024.058
-33.940	22.835	1280.949	1023.202
-32.925	23.026	1279.289	1022.940
-31.911	22.928	1278.157	1021.428
-30.896	22.953	1276.900	1020.528
-29.881	23.017	1275.698	1019.898
-28.867	23.056	1274.091	1018.796
-27.852	23.018	1272.615	1017.355
-26.838	23.076	1271.423	1016.699
-25.823	23.071	1269.590	1015.163
-24.809	22.998	1268.620	1013.930
-23.794	22.933	1267.371	1012.519
-22.779	23.000	1266.065	1011.814
-21.765	23.035	1264.691	1010.881
-20.750	23.027	1263.189	1009.592
-19.736	22.903	1262.189	1008.045
-18.721	22.827	1261.392	1006.936
-17.706	22.883	1259.902	1006.023
-16.692	22.878	1258.786	1005.067
-15.677	22.859	1257.855	1004.173
-14.663	22.840	1256.638	1003.057
-13.648	22.886	1255.149	1002.086
-12.633	22.907	1254.546	1001.685
-11.619	22.846	1254.030	1000.888
-10.604	22.872	1253.048	1000.214
-9.590	22.848	1252.139	999.312
-8.575	22.751	1251.335	998.083
-7.560	22.748	1250.495	997.352
-6.546	22.851	1249.310	996.954
-5.531	22.758	1248.931	996.082
-4.517	22.805	1248.126	995.668
-3.502	22.921	1246.533	995.012
-2.487	22.855	1246.118	994.267
-1.473	22.748	1241.635	990.051
-0.458	21.275	1226.644	969.887
0.556	16.242	1212.161	934.167
1.571	12.787	1219.893	920.766
2.586	12.151	1235.713	929.021
3.600	12.255	1223.348	920.229
4.615	8.970	1152.275	849.318
5.629	2.911	1082.606	767.682
6.644	0.398	1065.704	743.251
7.659	0.051	1064.422	740.585
8.673	0.026	1063.430	739.708
9.688	0.176	1061.499	739.033
10.702	0.284	1059.151	737.861
11.717	3.809	1063.777	758.336
12.731	10.787	1072.641	799.002
13.746	15.540	1078.657	826.869
14.761	16.670	1079.551	833.043
15.775	16.064	1077.742	828.595
16.790	14.983	1076.162	821.998
17.804	14.406	1074.226	817.619
18.819	14.010	1073.682	815.189
19.834	13.861	1072.274	813.319
20.848	13.736	1071.419	811.986
21.863	13.313	1070.711	809.309
22.877	13.234	1069.899	808.238
23.892	13.133	1069.144	807.102
24.907	13.209	1068.548	806.953
25.921	13.184	1067.655	806.082
26.936	13.221	1066.728	805.490
27.950	13.295	1065.809	805.087
28.965	13.346	1064.477	804.256
29.980	13.263	1063.405	802.975
30.994	13.383	1062.296	802.645
32.009	13.365	1061.320	801.754
33.023	13.301	1060.581	800.814
34.038	13.305	1059.296	799.790
35.053	13.376	1058.766	799.664
36.067	13.238	1057.924	798.289
37.082	13.373	1056.665	797.918
38.096	13.320	1056.277	797.299
39.111	13.356	1055.131	796.537
40.126	13.178	1053.965	794.733
41.140	13.091	1052.758	793.333
42.155	13.162	1051.572	792.712
43.169	13.292	1050.725	792.627
44.184	13.208	1049.697	791.379
45.199	13.062	1048.826	789.953
46.213	13.083	1048.014	789.373
47.228	13.169	1046.830	788.819
48.242	13.184	1045.862	788.091
49.257	13.291	1044.647	787.615
50.271	13.375	1043.598	787.156
51.286	13.243	1042.945	785.966
52.301	13.271	1041.941	785.274
53.315	13.316	1040.509	784.338
54.330	13.196	1040.016	783.328
55.344	13.098	1039.567	782.455
56.359	13.236	1038.419	782.175
57.374	13.221	1037.395	781.265
58.388	13.180	1036.463	780.298
59.403	13.185	1035.409	779.459
60.417	13.112	1034.990	778.734
61.432	13.071	1034.363	777.997
62.447	13.095	1033.238	777.194
63.461	13.053	1032.337	776.251
64.476	13.108	1031.601	775.888
65.490	13.087	1030.595	774.963
66.505	13.126	1029.923	774.574
67.520	13.028	1029.498	773.726
68.534	13.170	1028.306	773.427
69.549	13.007	1027.989	772.356
70.563	13.054	1026.904	771.692
71.578	13.022	1026.394	771.091
72.593	13.053	1025.201	770.272
73.607	13.032	1024.532	769.602
74.622	13.017	1024.013	769.075
75.636	13.042	1023.014	768.376
76.651	12.993	1022.712	767.849
77.666	13.078	1021.977	767.628
78.680	13.125	1021.120	767.131
79.695	13.011	1020.730	766.242
80.709	13.039	1019.923	765.701
81.724	13.128	1019.294	765.574
82.739	13.278	1018.205	765.381
83.753	13.241	1017.629	764.710
84.768	13.345	1016.787	764.490
85.782	13.348	1015.803	763.698
86.797	13.213	1015.016	762.414
87.812	13.191	1014.136	761.585
88.826	13.218	1013.010	760.797
89.841	13.179	1012.517	760.177
90.855	13.272	1011.090	759.466
91.870	13.355	1010.406	759.265
92.884	13.253	1009.326	757.920
93.899	13.268	1009.025	757.697
94.914	13.466	1007.886	757.678
95.928	13.394	1007.374	756.898
96.943	13.384	1005.951	755.716
97.957	13.341	1005.474	755.097
98.972	13.346	1004.234	754.118
99.987	13.362	1003.739	753.753
101.001	13.331	1002.418	752.556
102.016	13.335	1001.809	752.051
103.030	13.419	1000.816	751.621
104.045	13.471	999.898	751.098
105.060	13.371	999.719	750.446
106.074	13.365	998.154	749.175
107.089	13.329	996.953	748.044
108.103	13.293	996.321	747.341
109.118	13.329	995.602	746.901
110.133	13.198	994.667	745.543
111.147	13.250	994.062	745.254
112.162	13.160	993.099	744.061
113.176	13.357	991.907	743.988
114.191	13.303	991.520	743.393
115.206	13.373	990.359	742.769
116.220	13.218	990.356	742.006
117.235	13.327	989.071	741.464
118.249	13.277	988.582	740.807
119.264	13.351	987.151	740.003
120.279	13.295	986.537	739.228
121.293	13.342	985.454	738.560
122.308	13.225	984.852	737.520
123.322	13.262	983.923	736.925
124.337	13.305	982.958	736.330
125.352	13.303	981.626	735.258
126.366	13.173	981.030	734.167
127.381	13.273	979.771	733.605
128.395	13.185	979.010	732.581
129.410	13.236	977.945	731.942
130.424	13.294	977.445	731.763
131.439	13.243	976.236	730.565
132.454	13.366	975.826	730.739
133.468	13.356	974.814	729.871
134.483	13.163	974.479	728.704
135.497	13.181	973.443	727.945
136.512	13.227	972.400	727.303
137.527	13.288	971.380	726.745
138.541	13.301	970.662	726.200
139.556	13.232	970.064	725.385
140.570	13.387	969.247	725.388
141.585	13.500	968.291	725.104
142.600	13.454	967.499	724.244
143.614	13.605	966.440	724.050
144.629	13.490	966.085	723.219
145.643	13.565	964.751	722.483
146.658	13.513	964.207	721.782
147.673	13.334	962.979	720.020
148.687	13.361	962.332	719.592
149.702	13.367	961.343	718.815
150.716	13.367	960.632	718.219
151.731	13.482	959.562	717.852
152.746	13.475	959.399	717.636
153.760	13.448	958.725	716.955
154.775	13.642	957.875	717.092
155.789	13.456	957.641	716.051
156.804	13.571	957.072	716.059
157.819	13.502	956.595	715.342
158.833	13.615	955.413	714.881
159.848	13.648	954.621	714.367
160.862	13.581	953.751	713.365
161.877	13.768	952.315	713.030
162.892	13.582	951.637	711.663
163.906	13.687	950.796	711.420
164.921	13.567	950.166	710.373
165.935	13.499	949.401	709.445
166.950	13.488	948.374	708.569
167.964	13.526	947.390	707.933
168.979	13.633	946.601	707.737
169.994	13.619	945.738	706.969
171.008	13.707	944.922	706.672
172.023	13.779	944.275	706.431
173.037	13.727	943.975	705.926
174.052	13.742	943.215	705.357
175.067	13.701	942.192	704.356
176.081	13.631	942.125	703.944
177.096	13.579	941.447	703.156
178.110	13.725	940.635	703.105
179.125	13.699	940.223	702.626
180.140	13.770	939.595	702.394
181.154	13.863	939.221	702.447
182.169	13.877	938.630	702.003
183.183	13.836	937.807	701.150
184.198	13.953	936.868	700.879
185.213	13.880	936.502	700.238
186.227	13.881	935.753	699.620
187.242	13.991	934.896	699.380
188.256	13.941	934.592	698.882
189.271	13.976	933.317	698.011
190.286	13.797	932.944	696.920
191.300	13.706	932.448	696.104
192.315	13.669	931.946	695.514
193.329	13.766	931.487	695.516
194.344	13.798	930.889	695.143
195.359	14.004	929.612	694.991
196.373	13.965	929.010	694.314
197.388	14.109	928.676	694.607
198.402	13.982	928.050	693.547
199.417	14.186	927.154	693.665
200.432	14.184	926.981	693.467
201.446	14.061	926.697	692.680
202.461	14.270	926.028	692.989
203.475	14.119	925.708	692.059
204.490	14.019	924.454	690.645
205.504	14.154	923.617	690.517
206.519	14.040	923.027	689.543
207.534	14.019	922.321	688.869
208.548	14.196	921.347	688.813
209.563	14.247	921.004	688.707
210.577	14.095	920.492	687.632
211.592	14.213	919.756	687.509
212.607	14.136	918.920	686.505
213.621	14.359	918.041	686.711
214.636	14.261	917.692	685.985
215.650	14.411	916.595	685.721
216.665	14.441	915.877	685.244
217.680	14.427	915.469	684.823
218.694	14.469	914.922	684.526
219.709	14.476	914.012	683.813
220.723	14.485	913.259	683.225
221.738	14.431	912.531	682.400
222.753	14.405	912.434	682.161
223.767	14.346	911.910	681.467
224.782	14.435	910.995	681.086
225.796	14.523	910.737	681.193
226.811	14.465	910.124	680.435
227.826	14.474	909.281	679.782
228.840	14.503	908.209	679.039
229.855	14.523	907.242	678.339
230.869	14.549	906.679	677.961
231.884	14.486	906.148	677.250
232.899	14.413	904.936	675.986
233.913	14.454	904.721	675.935
234.928	14.369	904.195	675.135
235.942	14.462	903.577	674.990
236.957	14.429	903.411	674.672
237.972	14.538	902.579	674.434
238.986	14.447	901.582	673.262
240.001	14.355	901.544	672.804
241.015	14.461	900.368	672.293
242.030	14.603	899.666	672.283
243.045	14.519	899.279	671.594
244.059	14.659	898.461	671.488
245.074	14.695	897.930	671.174
246.088	14.624	897.037	670.165
247.103	14.628	896.449	669.681
248.117	14.688	896.159	669.647
249.132	14.822	895.454	669.596
250.147	14.835	894.861	669.148
251.161	14.821	894.355	668.652
252.176	14.932	893.366	668.298
253.190	14.908	892.865	667.767
254.205	14.948	892.290	667.437
255.220	14.929	891.803	666.937
256.234	14.888	890.872	666.020
257.249	15.007	890.195	665.928
258.263	15.096	889.536	665.732
259.278	15.072	888.952	665.138
260.293	15.211	887.979	664.905
261.307	15.061	887.651	664.005
262.322	15.111	887.011	663.667
263.336	15.017	886.234	662.653
264.351	15.042	885.560	662.192
265.366	15.205	884.974	662.336
266.380	15.209	884.431	661.889
267.395	15.077	883.938	660.938
268.409	15.147	882.778	660.290
269.424	15.126	882.067	659.616
270.439	15.101	881.647	659.146
271.453	15.175	880.786	658.736
272.468	15.233	880.182	658.451
273.482	15.344	879.947	658.655
274.497	15.296	879.224	657.869
275.512	15.238	878.313	656.898
276.526	15.303	877.923	656.803
277.541	15.307	877.274	656.278
278.555	15.302	877.042	656.026
279.570	15.409	875.830	655.478
280.585	15.423	875.685	655.368
281.599	15.387	874.814	654.517
282.614	15.430	873.842	653.901
283.628	15.355	873.564	653.343
284.643	15.353	872.733	652.652
285.657	15.366	872.395	652.394
286.672	15.400	871.553	651.839
287.687	15.441	871.166	651.650
288.701	15.416	870.425	650.943
289.716	15.460	869.839	650.617
290.730	15.482	869.698	650.537
291.745	15.577	868.767	650.151
292.760	15.477	868.173	649.263
293.774	15.495	867.590	648.839
294.789	15.628	866.856	648.748
295.803	15.605	866.124	648.051
296.818	15.718	865.218	647.753
297.833	15.666	864.804	647.186
298.847	15.531	864.558	646.424
299.862	15.609	863.832	646.125
300.876	15.663	863.065	645.700
301.891	15.792	862.573	645.772
302.906	15.800	861.710	645.099
303.920	15.693	861.634	644.574
304.935	15.886	860.749	644.595
305.949	15.761	860.173	643.629
306.964	15.910	859.450	643.599
307.979	15.877	858.949	643.043
308.993	15.757	858.601	642.268
310.008	15.872	857.954	642.164
311.022	15.942	857.259	641.854
312.037	15.907	856.622	641.187
313.052	15.759	856.186	640.240
314.066	15.887	855.563	640.204
315.081	15.834	854.798	639.373
316.095	15.807	854.610	639.075
317.110	15.772	854.141	638.533
318.125	15.947	853.066	638.338
319.139	15.960	852.446	637.864
320.154	15.857	852.530	637.482
321.168	15.846	852.017	636.998
322.183	15.961	851.037	636.646
323.197	15.917	850.481	636.006
324.212	16.024	850.526	636.389
325.227	15.961	849.868	635.604
326.241	15.928	849.354	635.039
327.256	15.900	848.513	634.249
328.270	15.978	848.055	634.143
329.285	16.009	847.453	633.751
330.300	16.036	846.755	633.275
331.314	15.997	846.192	632.655
332.329	16.129	845.470	632.551
333.343	16.026	845.816	632.369
334.358	16.087	845.169	632.057
335.373	16.015	844.857	631.497
336.387	16.097	844.407	631.414
337.402	16.143	844.171	631.353
338.416	16.187	843.960	631.305
339.431	16.210	843.522	631.008
340.446	16.245	842.914	630.626
341.460	16.176	842.353	629.895
342.475	16.338	842.124	630.273
343.489	16.493	841.401	630.254
344.504	16.263	841.022	629.057
345.519	16.208	840.842	628.660
346.533	16.444	840.177	628.985
347.548	16.285	840.270	628.406
348.562	16.297	839.067	627.497
349.577	16.352	838.601	627.298
350.592	16.369	838.003	626.859
351.606	16.310	837.237	626.011
352.621	16.317	836.827	625.674
353.635	16.441	835.959	625.429
354.650	16.435	835.546	625.044
355.665	16.629	834.507	624.926
356.679	16.369	834.543	623.936
357.694	16.358	833.884	623.350
358.708	16.546	832.744	623.136
359.723	16.573	832.270	622.823
360.738	16.620	831.940	622.695
361.752	16.520	831.099	621.644
362.767	16.664	830.460	621.638
363.781	16.422	830.421	620.668
364.796	16.531	829.892	620.616
365.810	16.725	829.342	620.861
366.825	16.688	829.187	620.555
367.840	16.795	828.408	620.307
368.854	16.710	827.725	619.432
369.869	16.744	827.440	619.289
370.883	16.708	827.051	618.810
371.898	16.831	826.501	618.794
372.913	16.890	825.923	618.519
373.927	16.761	825.946	618.013
374.942	16.842	825.070	617.595
375.956	16.897	824.307	617.171
376.971	16.949	824.432	617.399
377.986	16.890	824.284	617.021
379.000	16.956	823.328	616.491
380.015	17.056	822.946	616.514
381.029	16.855	822.760	615.588
382.044	17.207	821.464	615.839
383.059	17.127	820.890	615.067
384.073	17.110	820.253	614.473
385.088	17.207	819.689	614.348
386.102	17.022	819.909	613.789
387.117	17.001	819.162	613.097
388.132	17.158	817.982	612.728
389.146	16.964	817.885	611.900
390.161	17.158	817.487	612.249
391.175	17.176	816.774	611.725
392.190	17.129	816.493	611.293
393.205	17.076	816.009	610.683
394.219	17.153	815.652	610.639
395.234	16.987	815.771	610.079
396.248	17.042	814.957	609.612
397.263	17.113	814.239	609.275
398.278	17.233	813.820	609.340
399.292	17.113	813.443	608.575
400.307	17.197	812.678	608.249
401.321	17.101	813.174	608.223
402.336	17.158	812.462	607.840
403.350	17.224	811.745	607.485
404.365	17.147	811.353	606.862
405.380	17.243	810.795	606.735
406.394	17.311	810.110	606.411
407.409	17.436	809.902	606.648
408.423	17.437	809.582	606.358
409.438	17.467	809.300	606.200
410.453	17.313	808.827	605.242
411.467	17.429	808.043	605.014
412.482	17.531	807.586	604.981
413.496	17.564	807.265	604.806
414.511	17.439	807.247	604.292
415.526	17.534	806.492	604.011
416.540	17.567	806.397	604.005
417.555	17.723	805.496	603.827
418.569	17.461	805.669	602.975
419.584	17.444	805.323	602.605
420.599	17.517	804.680	602.327
421.613	114.143	1298.996	1488.522
422.628	98.538	1370.977	1488.599
