DTS Sentinel unit serial number:	SN413079Multiplexer serial number:	ORYXHardware model number:	OX4-SRSoftware version number:	ORYX F/W v4.00 Oryx Data Collector v3.7.2.0data status	okinstallation	princeton_trtdifferential loss correction	single-endedforward channel	channel 1reverse channel	N/Adate	2019/09/12time	17:32:11forward acquisition time	60.00reverse acquisition time	0.00gamma	496.2192k internal	0.2316k external	0.2316temperature offset calibration	1.0108default loss term (dB/km)	0.3790temperature slope calibration	1.0000multiplexer offset coefficient	1.0000multiplexer slope coefficient	1.0000fibre end	0.00T internal ref (°C)	34.53T ext. ref 1 (°C)	2.93T ext. ref 2 (°C)	28.56length (m)	temperature (°C)	Stokes	anti-Stokes-747.200	-34.480	0.119	-0.066
-746.185	-80.039	0.088	0.030
-745.171	-16.990	-0.088	0.056
-744.156	303.150	0.185	0.348
-743.142	15.287	-0.143	-0.113
-742.127	800.000	-0.055	0.178
-741.112	800.000	0.060	-0.205
-740.098	2.585	0.133	0.097
-739.083	402.439	0.048	-0.101
-738.069	268.868	0.084	0.149
-737.054	-55.244	-0.219	0.100
-736.039	-113.531	-0.206	0.041
-735.025	156.880	0.193	0.270
-734.010	-3.751	-0.194	-0.137
-732.996	-200.000	0.000	-0.071
-731.981	117.757	-0.185	-0.230
-730.966	283.008	-0.056	-0.102
-729.952	-200.000	0.003	0.078
-728.937	68.907	-0.135	-0.141
-727.923	28.795	-0.248	0.213
-726.908	-116.940	-0.226	0.042
-725.894	-56.879	-0.215	0.096
-724.879	-84.044	-0.168	0.054
-723.864	-144.245	0.029	0.003
-722.850	800.000	-0.039	0.151
-721.835	-94.651	-0.084	0.023
-720.821	109.586	-0.217	0.263
-719.806	-181.318	0.397	0.008
-718.791	179.146	-0.089	0.132
-717.777	-128.833	0.134	-0.019
-716.762	362.537	-0.117	0.238
-715.748	-118.185	-0.212	-0.038
-714.733	-200.000	-0.029	-0.247
-713.718	-29.106	-0.145	0.084
-712.704	800.000	-0.126	-0.411
-711.689	48.381	0.196	-0.186
-710.675	146.640	-0.151	0.205
-709.660	-9.342	-0.125	0.084
-708.645	-193.085	-0.170	-0.002
-707.631	670.829	0.049	-0.129
-706.616	-197.885	-0.154	-0.001
-705.602	155.084	-0.167	-0.233
-704.587	154.987	-0.103	-0.144
-703.572	-200.000	-0.004	-0.230
-702.558	-18.259	-0.137	0.087
-701.543	-29.362	-0.103	-0.060
-700.529	147.177	0.038	-0.051
-699.514	63.864	0.181	0.184
-698.499	-48.697	-0.138	0.067
-697.485	236.521	0.145	-0.243
-696.470	-86.484	-0.393	-0.122
-695.456	-28.199	0.390	0.228
-694.441	99.027	0.178	0.207
-693.426	-60.561	0.343	0.147
-692.412	151.373	0.170	0.234
-691.397	573.130	-0.130	0.321
-690.383	-107.786	-0.215	-0.047
-689.368	-11.264	0.388	-0.259
-688.354	-200.000	-0.012	-0.154
-687.339	-200.000	0.009	0.218
-686.324	-200.000	-0.016	-0.180
-685.310	399.410	-0.128	-0.271
-684.295	-81.732	-0.284	0.094
-683.281	-75.927	-0.358	-0.128
-682.266	-21.328	-0.227	-0.140
-681.251	95.155	-0.067	0.077
-680.237	127.937	0.153	-0.197
-679.222	265.096	0.074	-0.130
-678.208	22.081	0.073	-0.060
-677.193	-111.698	0.071	0.014
-676.178	19.531	0.231	0.187
-675.164	39.173	-0.159	0.144
-674.149	90.267	0.158	-0.179
-673.135	-193.286	-0.128	-0.001
-672.120	-123.241	-0.439	0.071
-671.105	-116.367	0.377	-0.070
-670.091	38.300	0.269	-0.242
-669.076	-107.219	0.308	-0.069
-668.062	-91.107	0.145	-0.042
-667.047	-133.977	-0.291	-0.036
-666.032	-200.000	-0.028	0.234
-665.018	-200.000	0.001	0.248
-664.003	91.267	-0.014	0.016
-662.989	-83.020	-0.216	0.070
-661.974	-82.197	-0.091	0.030
-660.959	-200.000	-0.003	0.123
-659.945	61.872	-0.218	0.219
-658.930	23.572	0.246	0.204
-657.916	208.825	-0.042	-0.067
-656.901	-151.493	-0.296	0.022
-655.886	-200.000	0.022	-0.158
-654.872	-32.783	-0.136	0.076
-653.857	-68.992	0.418	-0.163
-652.843	-200.000	0.003	-0.051
-651.828	-200.000	0.008	-0.173
-650.814	-200.000	-0.016	-0.158
-649.799	-200.000	0.009	0.044
-648.784	102.186	-0.332	0.391
-647.770	-27.379	0.008	-0.005
-646.755	800.000	0.069	0.219
-645.741	266.625	0.165	-0.291
-644.726	-200.000	-0.004	-0.074
-643.711	-112.729	0.254	0.051
-642.697	117.838	0.102	-0.127
-641.682	-161.955	0.158	-0.008
-640.668	-200.000	0.084	0.404
-639.653	-200.000	-0.041	-0.184
-638.638	-8.140	-0.274	-0.186
-637.624	260.652	0.051	0.089
-636.609	800.000	0.132	0.405
-635.595	243.655	0.088	0.149
-634.580	-101.269	-0.115	0.028
-633.565	173.672	0.274	-0.399
-632.551	-134.441	0.032	0.004
-631.536	-200.000	-0.002	-0.204
-630.522	113.202	0.244	-0.298
-629.507	-94.221	0.105	-0.029
-628.492	-70.113	-0.324	-0.124
-627.478	407.418	-0.056	0.120
-626.463	-17.795	0.427	0.270
-625.449	594.798	-0.072	0.180
-624.434	-200.000	-0.001	0.050
-623.419	-114.896	-0.144	-0.028
-622.405	-125.107	0.249	-0.039
-621.390	-200.000	0.018	-0.235
-620.376	-42.440	-0.161	-0.083
-619.361	7.917	-0.320	0.242
-618.346	800.000	-0.033	0.106
-617.332	-10.655	-0.337	0.225
-616.317	-158.237	0.281	0.017
-615.303	-74.206	-0.269	-0.098
-614.288	245.099	-0.154	0.262
-613.273	106.100	-0.178	0.212
-612.259	-62.484	-0.417	0.175
-611.244	-110.451	0.122	0.025
-610.230	800.000	-0.033	0.093
-609.215	-200.000	-0.006	-0.068
-608.201	-64.477	0.259	-0.106
-607.186	-82.656	-0.142	-0.046
-606.171	255.681	-0.013	-0.022
-605.157	800.000	0.138	-0.436
-604.142	-18.967	0.044	0.028
-603.128	-40.550	-0.144	0.076
-602.113	-101.442	-0.257	0.063
-601.098	-44.146	0.021	-0.011
-600.084	-26.259	0.109	0.064
-599.069	800.000	-0.075	-0.274
-598.055	800.000	-0.031	-0.117
-597.040	-200.000	0.017	-0.092
-596.025	-200.000	-0.003	0.194
-595.011	-49.068	-0.060	0.029
-593.996	-56.539	0.167	0.075
-592.982	133.581	0.121	-0.158
-591.967	387.231	-0.161	0.335
-590.952	-11.372	0.154	0.102
-589.938	240.595	0.086	0.145
-588.923	-200.000	-0.015	-0.236
-587.909	800.000	-0.144	-0.635
-586.894	323.690	-0.051	0.098
-585.879	122.029	0.109	-0.138
-584.865	-39.498	-0.282	0.149
-583.850	-200.000	0.020	-0.242
-582.836	-200.000	-0.042	-0.386
-581.821	-19.561	-0.143	0.089
-580.806	800.000	0.049	0.188
-579.792	-62.266	-0.182	0.076
-578.777	800.000	0.045	-0.145
-577.763	-125.362	-0.145	-0.022
-576.748	-178.853	-0.184	-0.004
-575.733	360.413	-0.141	0.284
-574.719	-118.893	0.430	-0.076
-573.704	-200.000	-0.006	-0.181
-572.690	126.063	0.121	-0.154
-571.675	92.522	0.063	-0.072
-570.661	10.441	-0.039	-0.030
-569.646	-200.000	-0.015	-0.257
-568.631	55.928	0.054	-0.052
-567.617	-110.950	-0.155	-0.032
-566.602	-200.000	0.003	0.039
-565.588	-142.705	-0.067	0.007
-564.573	-7.370	-0.104	-0.071
-563.558	-93.234	0.410	0.115
-562.544	-200.000	-0.005	-0.047
-561.529	-26.685	0.221	0.130
-560.515	53.877	-0.175	-0.169
-559.500	201.001	0.093	0.144
-558.485	68.187	0.071	-0.073
-557.471	800.000	-0.042	-0.158
-556.456	-107.626	0.164	0.036
-555.442	-200.000	-0.008	0.071
-554.427	14.441	0.049	-0.039
-553.412	-47.187	-0.235	-0.115
-552.398	800.000	0.064	-0.200
-551.383	-112.670	-0.539	-0.108
-550.369	-200.000	-0.007	0.231
-549.354	98.921	0.056	0.065
-548.339	214.277	0.294	-0.468
-547.325	-104.579	-0.266	0.062
-546.310	258.925	-0.199	-0.345
-545.296	-64.969	0.217	0.088
-544.281	6.948	-0.137	-0.103
-543.266	-0.313	-0.178	-0.127
-542.252	-77.217	-0.266	0.093
-541.237	-200.000	-0.002	-0.176
-540.223	89.725	0.021	-0.024
-539.208	-36.988	0.108	0.058
-538.193	800.000	0.039	0.139
-537.179	-153.453	-0.257	-0.018
-536.164	800.000	-0.096	-0.381
-535.150	-200.000	0.013	-0.222
-534.135	11.289	-0.029	-0.023
-533.121	130.537	-0.135	-0.174
-532.106	5.581	-0.386	-0.287
-531.091	-61.554	0.242	0.102
-530.077	86.180	-0.238	-0.263
-529.062	-94.917	0.296	0.081
-528.048	800.000	0.069	0.217
-527.033	78.844	-0.087	0.093
-526.018	189.787	0.217	-0.326
-525.004	177.124	-0.080	0.117
-523.989	100.237	0.112	-0.130
-522.975	-200.000	-0.009	0.248
-521.960	-50.756	-0.134	-0.063
-520.945	-133.302	0.282	0.036
-519.931	-200.000	-0.004	0.065
-518.916	-175.432	0.202	0.006
-517.902	-200.000	0.010	0.121
-516.887	371.264	-0.133	0.271
-515.872	800.000	-0.108	0.407
-514.858	149.535	0.092	-0.125
-513.843	-200.000	-0.026	-0.369
-512.829	55.771	-0.176	-0.171
-511.814	-84.528	-0.207	-0.066
-510.799	-95.336	0.186	-0.050
-509.785	168.575	-0.077	0.110
-508.770	-123.920	0.392	-0.062
-507.756	184.933	-0.167	0.249
-506.741	-135.805	0.246	0.029
-505.726	-48.849	-0.208	-0.100
-504.712	203.243	0.066	-0.103
-503.697	189.677	-0.110	0.165
-502.683	800.000	-0.050	0.186
-501.668	3.588	-0.068	0.050
-500.653	393.335	0.117	0.245
-499.639	229.346	0.084	-0.137
-498.624	-200.000	-0.041	-0.233
-497.610	-71.819	-0.136	-0.051
-496.595	-200.000	0.009	0.290
-495.581	-111.154	-0.133	0.027
-494.566	216.626	-0.176	0.280
-493.551	-114.404	-0.251	0.048
-492.537	-17.624	0.076	0.048
-491.522	-200.000	-0.020	-0.329
-490.508	373.582	0.073	-0.149
-489.493	800.000	-0.112	0.430
-488.478	-17.990	-0.214	0.135
-487.464	-96.759	0.102	0.027
-486.449	800.000	-0.054	0.155
-485.435	-92.176	-0.033	-0.009
-484.420	-200.000	0.045	-0.275
-483.405	109.626	-0.127	-0.152
-482.391	-108.568	0.150	0.032
-481.376	-62.738	-0.079	-0.033
-480.362	270.721	0.210	-0.371
-479.347	41.794	0.071	0.064
-478.332	17.896	0.175	0.139
-477.318	112.319	0.097	0.118
-476.303	157.993	0.142	-0.198
-475.289	292.519	-0.076	0.138
-474.274	37.784	0.245	0.218
-473.259	-175.150	0.296	-0.008
-472.245	-94.401	0.317	0.087
-471.230	-11.162	0.227	-0.150
-470.216	-49.425	-0.290	-0.139
-469.201	-93.183	0.061	0.017
-468.186	3.034	-0.086	-0.062
-467.172	-138.278	0.347	0.038
-466.157	-131.032	-0.489	-0.065
-465.143	-73.308	0.219	-0.080
-464.128	-137.142	0.275	0.031
-463.113	-200.000	0.018	-0.272
-462.099	76.817	-0.150	-0.160
-461.084	323.106	-0.105	-0.200
-460.070	800.000	0.064	0.210
-459.055	325.788	0.076	0.145
-458.040	-106.721	-0.069	-0.015
-457.026	-78.255	0.175	-0.060
-456.011	-200.000	0.092	-0.436
-454.997	3.997	-0.133	0.098
-453.982	-184.913	0.250	-0.004
-452.968	93.723	-0.088	-0.100
-451.953	-62.646	0.062	-0.026
-450.938	-123.951	-0.151	0.024
-449.924	333.755	-0.087	-0.168
-448.909	90.263	0.233	0.261
-447.895	-31.740	0.227	-0.128
-446.880	-47.899	-0.240	-0.116
-445.865	94.269	-0.240	0.272
-444.851	-75.225	0.278	0.099
-443.836	56.757	0.069	-0.067
-442.822	30.125	-0.043	0.037
-441.807	67.823	0.057	0.058
-440.792	-87.222	-0.163	-0.049
-439.778	-143.428	0.271	0.026
-438.763	-200.000	-0.018	0.164
-437.749	-85.909	-0.157	0.049
-436.734	-200.000	0.045	0.255
-435.719	56.619	0.055	-0.054
-434.705	620.621	-0.038	-0.095
-433.690	800.000	-0.014	-0.056
-432.676	4.480	0.197	-0.145
-431.661	-98.416	-0.190	0.049
-430.646	-18.805	-0.099	-0.062
-429.632	-200.000	0.012	0.091
-428.617	-52.724	-0.192	0.089
-427.603	-27.346	-0.334	0.194
-426.588	82.222	0.106	0.115
-425.573	456.896	-0.055	0.122
-424.559	800.000	-0.072	-0.264
-423.544	70.128	0.036	0.037
-422.530	-47.315	-0.071	-0.034
-421.515	-79.119	0.168	-0.057
-420.500	-149.557	0.036	-0.003
-419.486	-200.000	0.002	0.018
-418.471	-200.000	0.020	-0.193
-417.457	43.010	-0.061	-0.055
-416.442	90.036	-0.021	0.024
-415.428	-200.000	-0.015	-0.080
-414.413	-168.851	-0.283	0.011
-413.398	485.387	-0.190	-0.434
-412.384	-76.273	0.138	0.049
-411.369	-92.907	-0.333	-0.093
-410.355	-200.000	-0.031	0.161
-409.340	-130.970	0.092	0.012
-408.325	-193.457	0.297	-0.003
-407.311	331.624	0.104	0.201
-406.296	-32.080	0.069	0.039
-405.282	-191.220	-0.164	0.002
-404.267	-184.739	-0.396	0.006
-403.252	-112.846	0.092	0.018
-402.238	-140.621	0.194	-0.020
-401.223	-151.043	0.185	-0.014
-400.209	49.428	0.098	0.092
-399.194	75.898	0.050	0.052
-398.179	206.492	0.091	-0.141
-397.165	147.519	-0.053	0.071
-396.150	26.312	-0.144	-0.120
-395.136	-66.153	-0.307	0.122
-394.121	99.934	0.211	0.245
-393.106	58.318	-0.375	-0.367
-392.092	443.726	-0.171	0.374
-391.077	-200.000	0.036	0.291
-390.063	12.699	-0.137	-0.106
-389.048	-95.088	-0.077	0.021
-388.033	215.653	-0.180	0.285
-387.019	800.000	0.014	-0.054
-386.004	-56.051	0.273	-0.121
-384.990	249.939	0.130	-0.220
-383.975	72.517	-0.105	-0.109
-382.960	-23.029	-0.037	-0.022
-381.946	355.599	0.033	-0.065
-380.931	-200.000	0.025	0.165
-379.917	41.373	-0.183	0.166
-378.902	147.170	-0.031	0.042
-377.888	800.000	-0.042	-0.141
-376.873	-200.000	-0.031	0.237
-375.858	3.463	0.141	0.103
-374.844	-115.881	0.116	0.022
-373.829	-200.000	-0.041	0.235
-372.815	149.827	-0.092	-0.125
-371.800	-51.133	0.166	0.078
-370.785	132.044	-0.245	0.315
-369.771	-200.000	0.000	-0.118
-368.756	800.000	0.051	-0.160
-367.742	100.377	0.116	-0.135
-366.727	-200.000	0.007	-0.055
-365.712	-200.000	-0.027	0.325
-364.698	68.169	0.043	-0.043
-363.683	-35.750	-0.194	0.105
-362.669	776.448	0.071	0.193
-361.654	-200.000	-0.036	-0.213
-360.639	-200.000	-0.023	-0.178
-359.625	182.247	-0.140	-0.206
-358.610	577.330	0.031	-0.077
-357.596	189.030	0.018	-0.027
-356.581	-150.004	0.404	-0.031
-355.566	-80.472	0.357	0.119
-354.552	171.242	-0.248	-0.354
-353.537	-178.782	0.341	-0.008
-352.523	800.000	-0.055	0.170
-351.508	-35.269	-0.185	0.100
-350.493	46.215	0.211	-0.195
-349.479	-200.000	0.004	0.334
-348.464	-120.757	0.124	0.021
-347.450	36.591	-0.193	0.170
-346.435	269.592	0.047	-0.083
-345.420	800.000	-0.088	0.245
-344.406	-81.527	-0.200	-0.066
-343.391	7.685	-0.268	-0.200
-342.377	197.604	0.292	0.445
-341.362	164.612	-0.067	0.094
-340.348	-102.823	-0.361	0.086
-339.333	-68.701	-0.293	-0.113
-338.318	348.612	0.091	0.179
-337.304	-200.000	-0.023	0.163
-336.289	-125.219	-0.244	-0.037
-335.275	354.052	0.148	-0.293
-334.260	26.904	0.083	-0.069
-333.245	258.603	0.200	-0.343
-332.231	800.000	0.024	-0.102
-331.216	800.000	0.126	0.445
-330.202	5.782	0.089	0.066
-329.187	82.532	0.082	-0.089
-328.172	-115.362	-0.161	-0.030
-327.158	-200.000	0.022	-0.118
-326.143	800.000	0.090	0.251
-325.129	36.822	0.075	0.066
-324.114	-200.000	-0.043	-0.231
-323.099	-97.774	-0.451	0.116
-322.085	-100.210	0.194	0.048
-321.070	48.905	0.124	0.116
-320.056	16.438	-0.205	-0.162
-319.041	-69.612	0.273	-0.104
-318.026	-7.130	-0.239	0.162
-317.012	-96.078	0.511	-0.135
-315.997	97.204	0.128	0.146
-314.983	-82.813	0.052	0.017
-313.968	-70.863	-0.111	0.042
-312.953	632.564	-0.103	0.260
-311.939	405.759	0.067	-0.141
-310.924	800.000	-0.073	-0.226
-309.910	-58.714	-0.184	-0.080
-308.895	800.000	-0.031	-0.111
-307.880	634.588	-0.059	0.148
-306.866	197.999	0.072	0.110
-305.851	134.742	-0.132	0.170
-304.837	-200.000	0.020	0.223
-303.822	800.000	-0.031	-0.092
-302.807	-28.501	-0.226	0.130
-301.793	321.794	0.070	0.132
-300.778	215.887	-0.106	0.168
-299.764	-65.227	-0.206	0.082
-298.749	72.281	-0.163	0.169
-297.735	183.080	0.115	0.169
-296.720	-60.608	0.151	-0.064
-295.705	-200.000	-0.011	0.060
-294.691	800.000	-0.037	-0.149
-293.676	800.000	-0.043	0.150
-292.662	330.591	0.145	0.279
-291.647	95.718	-0.144	-0.164
-290.632	11.431	-0.122	-0.093
-289.618	-156.634	0.172	0.011
-288.603	-113.769	0.290	0.056
-287.589	-138.320	0.247	-0.027
-286.574	800.000	0.048	-0.148
-285.559	-63.418	-0.352	-0.144
-284.545	99.434	-0.167	-0.192
-283.530	-200.000	-0.006	-0.309
-282.516	8.701	0.345	0.259
-281.501	-200.000	-0.059	0.281
-280.486	-200.000	0.004	-0.246
-279.472	-118.806	0.049	-0.009
-278.457	321.281	-0.175	0.332
-277.443	43.440	0.183	0.166
-276.428	-200.000	-0.046	0.208
-275.413	-200.000	0.001	-0.200
-274.399	507.671	-0.045	-0.105
-273.384	800.000	0.075	-0.234
-272.370	-200.000	-0.018	0.113
-271.355	-200.000	0.014	-0.160
-270.340	236.870	0.142	0.234
-269.326	-45.111	0.283	-0.140
-268.311	723.272	0.079	0.208
-267.297	800.000	-0.066	0.269
-266.282	90.821	-0.113	0.125
-265.267	684.694	-0.032	0.082
-264.253	-165.185	-0.029	0.001
-263.238	218.050	0.088	0.140
-262.224	138.365	0.034	-0.045
-261.209	708.882	0.027	0.070
-260.195	-118.250	0.118	-0.021
-259.180	-200.000	-0.026	-0.174
-258.165	151.238	-0.156	-0.211
-257.151	320.867	-0.087	0.164
-256.136	20.927	0.029	-0.023
-255.122	26.555	0.151	-0.126
-254.107	289.987	-0.078	0.141
-253.092	-65.857	0.011	0.005
-252.078	285.392	-0.309	-0.554
-251.063	800.000	0.029	-0.100
-250.049	-179.745	-0.085	-0.002
-249.034	123.626	-0.208	-0.260
-248.019	36.573	-0.067	-0.059
-247.005	-200.000	-0.050	-0.279
-245.990	-8.346	0.157	0.105
-244.976	47.282	0.224	0.207
-243.961	-85.006	-0.176	0.055
-242.946	338.184	-0.075	0.145
-241.932	103.490	-0.050	-0.058
-240.917	379.932	-0.122	-0.249
-239.903	494.998	0.082	-0.186
-238.888	75.632	0.098	-0.103
-237.873	-85.887	0.234	-0.072
-236.859	-107.023	0.106	0.023
-235.844	-41.545	-0.212	0.108
-234.830	-152.954	0.232	-0.016
-233.815	-17.604	0.140	-0.087
-232.800	-17.030	-0.051	-0.032
-231.786	8.230	-0.091	0.068
-230.771	72.140	0.145	0.150
-229.757	-28.768	0.108	-0.062
-228.742	-160.209	-0.347	-0.019
-227.727	88.563	0.077	-0.085
-226.713	-133.486	0.096	-0.012
-225.698	-113.304	-0.124	0.024
-224.684	302.291	-0.036	0.066
-223.669	-66.181	-0.354	-0.140
-222.655	-104.006	-0.206	0.048
-221.640	-2.784	0.471	-0.327
-220.625	24.415	-0.270	0.222
-219.611	184.108	-0.131	-0.192
-218.596	-67.327	0.235	-0.092
-217.582	82.502	-0.189	0.204
-216.567	-129.431	0.220	-0.030
-215.552	-79.498	0.174	-0.058
-214.538	-164.628	0.065	-0.003
-213.523	-200.000	-0.036	-0.274
-212.509	-16.714	0.066	0.041
-211.494	-186.677	0.241	0.003
-210.479	2.205	0.206	0.147
-209.465	-200.000	0.017	0.123
-208.450	-54.924	-0.170	0.076
-207.436	55.994	0.034	-0.033
-206.421	118.414	0.208	0.255
-205.406	-200.000	0.037	0.270
-204.392	-7.528	-0.019	-0.013
-203.377	-200.000	-0.061	0.315
-202.363	402.807	-0.120	-0.251
-201.348	-200.000	-0.027	-0.132
-200.333	-133.205	0.190	0.024
-199.319	-47.506	0.301	0.145
-198.304	5.804	-0.220	-0.161
-197.290	-78.196	0.317	0.108
-196.275	-200.000	0.030	-0.353
-195.260	66.147	0.132	0.133
-194.246	800.000	-0.066	-0.284
-193.231	2.586	0.163	-0.117
-192.217	-200.000	-0.020	-0.271
-191.202	-200.000	0.009	0.121
-190.187	-61.927	-0.118	-0.049
-189.173	800.000	0.118	0.411
-188.158	107.345	0.110	0.129
-187.144	800.000	0.087	0.273
-186.129	-96.391	0.440	0.115
-185.114	466.429	-0.017	-0.038
-184.100	-200.000	-0.023	-0.190
-183.085	-122.360	-0.336	-0.054
-182.071	184.722	0.182	-0.267
-181.056	-200.000	-0.010	0.081
-180.042	-135.422	-0.309	0.037
-179.027	-200.000	-0.008	0.543
-178.012	53.941	0.080	-0.076
-176.998	-24.585	0.157	0.092
-175.983	90.887	-0.224	0.248
-174.969	-200.000	0.008	0.046
-173.954	324.995	0.160	0.302
-172.939	261.967	-0.022	0.037
-171.925	-200.000	-0.013	-0.110
-170.910	265.824	0.163	0.281
-169.896	-71.581	-0.201	-0.074
-168.881	-22.261	0.271	0.163
-167.866	108.393	-0.103	0.121
-166.852	-181.005	-0.308	-0.006
-165.837	-200.000	-0.054	-0.267
-164.823	-112.044	-0.327	0.065
-163.808	-200.000	0.053	0.469
-162.793	-76.412	0.106	0.037
-161.779	-66.628	-0.076	-0.030
-160.764	-190.961	0.119	-0.001
-159.750	57.215	0.184	0.177
-158.735	109.491	0.167	-0.198
-157.720	-200.000	-0.017	-0.469
-156.706	-200.000	0.029	-0.160
-155.691	66.013	-0.279	-0.280
-154.677	-159.428	0.197	-0.011
-153.662	-118.858	0.364	-0.063
-152.647	-174.550	-0.035	0.001
-151.633	-200.000	-0.017	-0.187
-150.618	-0.440	0.296	0.208
-149.604	-135.308	0.309	-0.037
-148.589	135.616	0.248	0.319
-147.574	-200.000	-0.192	-0.001
-146.560	89.279	-0.167	-0.184
-145.545	-5.531	-0.222	0.150
-144.531	29.847	-0.087	-0.073
-143.516	800.000	-0.055	0.209
-142.502	-175.963	0.075	-0.002
-141.487	-200.000	-0.016	0.255
-140.472	-200.000	0.019	-0.218
-139.458	-200.000	0.035	0.315
-138.443	82.605	-0.087	0.094
-137.429	24.924	0.142	-0.116
-136.414	-95.926	-0.338	0.089
-135.399	-125.793	-0.361	0.054
-134.385	-106.752	0.396	-0.087
-133.370	-55.505	-0.048	0.021
-132.356	302.625	0.268	0.491
-131.341	-19.752	-0.337	-0.206
-130.326	101.306	0.078	-0.089
-129.312	199.956	-0.016	0.024
-128.297	259.751	-0.117	0.201
-127.283	-145.065	0.096	0.009
-126.268	412.267	0.049	-0.103
-125.253	-113.118	0.401	-0.078
-124.239	-58.653	0.290	0.124
-123.224	-76.379	0.135	0.047
-122.210	228.154	0.146	-0.234
-121.195	-131.748	0.224	0.029
-120.180	267.161	-0.124	0.214
-119.166	-94.102	0.192	0.052
-118.151	800.000	-0.046	0.187
-117.137	176.377	-0.116	-0.166
-116.122	-106.327	-0.011	0.002
-115.107	246.948	-0.141	0.235
-114.093	623.879	-0.123	0.306
-113.078	-200.000	-0.017	0.077
-112.064	-200.000	-0.018	0.090
-111.049	21.129	0.108	0.087
-110.034	-95.634	-0.293	0.078
-109.020	15.308	0.225	0.175
-108.005	-136.062	0.158	-0.018
-106.991	-200.000	0.011	-0.283
-105.976	-134.406	0.273	0.033
-104.962	67.344	0.092	0.093
-103.947	-10.984	-0.303	0.198
-102.932	-19.106	0.276	0.169
-101.918	-200.000	0.043	-0.224
-100.903	435.149	-0.065	-0.139
-99.889	211.173	0.150	0.233
-98.874	229.605	0.112	-0.181
-97.859	-66.209	-0.333	0.131
-96.845	71.165	0.264	0.271
-95.830	-116.459	-0.214	-0.039
-94.816	-200.000	0.003	-0.111
-93.801	-200.000	-0.000	0.138
-92.786	-99.403	0.518	-0.129
-91.772	11.054	0.218	0.165
-90.757	-200.000	-0.016	0.109
-89.743	-177.986	0.131	0.003
-88.728	-117.586	0.124	-0.022
-87.713	-21.189	0.191	-0.115
-86.699	-200.000	0.009	-0.047
-85.684	119.989	-0.076	-0.093
-84.670	800.000	0.012	0.049
-83.655	-70.867	0.073	0.027
-82.640	800.000	-0.017	-0.066
-81.626	-158.766	0.127	-0.007
-80.611	-37.657	0.365	-0.192
-79.597	800.000	-0.035	-0.107
-78.582	18.839	-0.157	-0.124
-77.567	36.301	-0.213	-0.185
-76.553	-200.000	0.013	-0.290
-75.538	-113.231	0.383	0.074
-74.524	43.754	0.032	0.029
-73.509	800.000	0.035	-0.096
-72.494	-98.208	0.066	-0.017
-71.480	-80.908	0.193	0.063
-70.465	-0.692	-0.066	0.046
-69.451	-200.000	0.060	0.282
-68.436	-72.746	0.088	-0.032
-67.422	113.098	-0.184	0.220
-66.407	-104.989	-0.033	-0.007
-65.392	-190.638	0.150	0.002
-64.378	601.733	0.100	-0.244
-63.363	432.912	0.056	-0.121
-62.349	-200.000	0.000	-0.059
-61.334	71.072	-0.967	-0.989
-60.319	115.616	0.499	0.602
-59.305	714.871	-0.329	-0.859
-58.290	168.445	0.495	0.695
-57.276	800.000	0.467	1.367
-56.261	-200.000	96.887	580.722
-55.246	552.834	1384.388	3280.159
-54.232	154.857	2577.983	3493.798
-53.217	114.140	2155.228	2585.582
-52.203	46.013	1613.016	1472.012
-51.188	37.990	1349.968	1183.495
-50.173	34.788	1307.755	1127.587
-49.159	57.267	1357.081	1305.642
-48.144	61.260	1374.724	1346.493
-47.130	38.299	1330.153	1167.786
-46.115	34.545	1312.786	1130.310
-45.100	34.548	1307.735	1125.932
-44.086	34.422	1305.190	1122.952
-43.071	34.301	1303.201	1120.485
-42.057	34.409	1300.750	1118.967
-41.042	34.472	1299.193	1117.955
-40.027	34.406	1297.761	1116.290
-39.013	34.464	1295.985	1115.060
-37.998	34.379	1293.996	1112.805
-36.984	34.472	1292.300	1111.847
-35.969	34.548	1290.794	1110.946
-34.954	34.653	1289.069	1110.031
-33.940	34.640	1287.436	1108.503
-32.925	34.664	1286.615	1107.895
-31.911	34.655	1285.104	1106.494
-30.896	34.633	1283.525	1104.964
-29.881	34.668	1282.575	1104.305
-28.867	34.636	1280.960	1102.688
-27.852	34.649	1279.310	1101.297
-26.838	34.617	1277.845	1099.812
-25.823	34.588	1276.692	1098.604
-24.809	34.637	1275.467	1097.790
-23.794	34.589	1274.612	1096.737
-22.779	34.645	1272.834	1095.483
-21.765	34.673	1271.465	1094.421
-20.750	34.604	1270.562	1093.203
-19.736	34.511	1268.857	1091.166
-18.721	34.430	1268.178	1090.071
-17.706	34.457	1266.897	1089.085
-16.692	34.492	1265.562	1088.090
-15.677	34.559	1264.238	1087.293
-14.663	34.557	1263.328	1086.457
-13.648	34.393	1262.583	1084.839
-12.633	34.445	1261.341	1084.025
-11.619	34.395	1260.656	1083.105
-10.604	34.488	1260.031	1083.053
-9.590	34.452	1258.711	1081.675
-8.575	34.418	1257.541	1080.432
-7.560	34.396	1257.006	1079.806
-6.546	34.504	1255.536	1079.110
-5.531	34.384	1255.115	1078.027
-4.517	34.535	1254.258	1078.104
-3.502	34.439	1253.800	1077.120
-2.487	34.584	1252.066	1076.408
-1.473	34.427	1248.320	1072.262
-0.458	32.716	1232.708	1049.295
0.556	29.634	1214.220	1007.309
1.571	25.439	1219.271	988.392
2.586	24.317	1234.588	994.467
3.600	23.504	1223.532	980.979
4.615	17.260	1151.193	890.294
5.629	7.473	1074.702	782.989
6.644	3.358	1054.049	747.929
7.659	2.935	1051.488	743.995
8.673	2.685	1050.276	741.865
9.688	2.734	1048.796	740.992
10.702	3.169	1047.000	741.755
11.717	8.957	1056.311	776.367
12.731	19.163	1070.466	836.531
13.746	25.041	1077.109	870.287
14.761	26.454	1078.660	878.328
15.775	26.545	1078.416	878.494
16.790	26.275	1077.669	876.502
17.804	26.221	1077.224	875.800
18.819	26.322	1077.281	876.256
19.834	26.482	1076.739	876.515
20.848	26.479	1076.134	875.929
21.863	26.479	1075.762	875.549
22.877	26.414	1074.920	874.474
23.892	26.472	1073.946	873.881
24.907	26.304	1073.767	872.846
25.921	26.388	1072.322	872.003
26.936	26.557	1070.564	871.307
27.950	26.241	1069.477	868.829
28.965	26.219	1067.930	867.385
29.980	26.345	1066.251	866.550
30.994	26.614	1065.559	867.199
32.009	26.591	1064.137	865.857
33.023	26.375	1063.083	863.890
34.038	26.397	1062.709	863.613
35.053	26.358	1062.747	863.382
36.067	26.418	1061.802	862.824
37.082	26.463	1060.818	862.163
38.096	26.713	1059.836	862.482
39.111	26.651	1059.265	861.646
40.126	26.597	1057.880	860.186
41.140	26.250	1056.319	857.193
42.155	25.994	1054.940	854.784
43.169	26.067	1054.504	854.703
44.184	26.204	1053.147	854.172
45.199	26.035	1052.125	852.471
46.213	26.099	1051.504	852.193
47.228	26.187	1050.858	852.010
48.242	26.461	1049.556	852.174
49.257	26.320	1049.824	851.648
50.271	26.507	1048.269	851.194
51.286	26.616	1047.654	851.128
52.301	26.437	1047.085	849.749
53.315	26.362	1046.098	848.525
54.330	26.379	1045.047	847.677
55.344	26.391	1044.426	847.153
56.359	26.509	1043.273	846.697
57.374	26.258	1042.189	844.566
58.388	26.246	1041.972	844.262
59.403	26.180	1041.062	843.141
60.417	26.065	1039.968	841.642
61.432	26.114	1039.433	841.364
62.447	26.244	1038.608	841.228
63.461	26.244	1037.848	840.537
64.476	26.179	1037.158	839.604
65.490	26.046	1036.268	838.190
66.505	26.202	1035.517	838.230
67.520	26.240	1034.613	837.601
68.534	26.078	1033.617	835.973
69.549	25.747	1032.867	833.759
70.563	25.707	1032.065	832.852
71.578	25.629	1031.298	831.797
72.593	25.429	1030.394	830.071
73.607	25.640	1029.997	830.652
74.622	25.960	1029.639	831.766
75.636	26.078	1028.969	831.697
76.651	25.781	1027.881	829.374
77.666	25.831	1027.234	829.009
78.680	25.846	1026.490	828.406
79.695	25.823	1026.036	827.860
80.709	25.983	1025.579	828.153
81.724	26.020	1024.564	827.431
82.739	26.124	1023.666	827.109
83.753	26.435	1023.619	828.421
84.768	26.726	1022.798	829.013
85.782	26.832	1021.734	828.561
86.797	26.652	1021.018	827.087
87.812	26.563	1020.023	825.802
88.826	26.542	1019.348	825.087
89.841	26.817	1018.196	825.333
90.855	26.669	1017.271	823.837
91.870	26.697	1016.708	823.437
92.884	26.597	1014.858	821.413
93.899	26.648	1013.655	820.596
94.914	26.767	1013.419	820.871
95.928	26.636	1012.056	819.103
96.943	26.265	1010.980	816.484
97.957	26.169	1009.658	814.912
98.972	26.072	1008.685	813.615
99.987	26.176	1008.516	813.874
101.001	26.444	1007.387	814.099
102.016	26.312	1007.108	813.205
103.030	26.375	1005.616	812.213
104.045	26.165	1004.809	810.549
105.060	25.967	1004.535	809.367
106.074	26.262	1003.251	809.584
107.089	26.610	1002.623	810.563
108.103	26.220	1001.790	808.072
109.118	26.126	1000.396	806.456
110.133	26.196	999.529	806.001
111.147	26.003	997.910	803.764
112.162	25.959	996.971	802.740
113.176	26.059	997.143	803.251
114.191	26.011	996.396	802.362
115.206	25.740	995.036	799.992
116.220	25.590	993.974	798.405
117.235	25.852	993.207	798.880
118.249	25.934	992.372	798.501
119.264	25.676	991.779	796.808
120.279	25.825	991.156	796.897
121.293	25.927	990.078	796.412
122.308	25.906	989.397	795.701
123.322	25.925	988.297	794.831
124.337	25.749	986.957	792.905
125.352	25.187	985.309	789.041
126.366	25.002	984.726	787.689
127.381	25.888	984.759	791.540
128.395	26.318	984.464	793.120
129.410	26.501	983.438	793.028
130.424	26.328	982.559	791.489
131.439	26.348	981.721	790.834
132.454	26.302	981.091	790.056
133.468	26.362	979.879	789.272
134.483	26.393	979.401	788.951
135.497	26.479	978.834	788.798
136.512	26.711	977.397	788.583
137.527	26.638	976.538	787.500
138.541	26.678	975.820	787.028
139.556	26.476	975.530	785.844
140.570	26.699	974.722	786.093
141.585	26.775	973.449	785.326
142.600	26.683	972.562	784.143
143.614	26.898	971.945	784.507
144.629	27.060	971.138	784.482
145.643	26.843	969.960	782.527
146.658	26.504	969.029	780.246
147.673	26.574	967.774	779.468
148.687	26.485	966.398	777.908
149.702	26.424	965.552	776.898
150.716	26.357	964.923	776.034
151.731	26.520	964.297	776.159
152.746	26.684	963.854	776.439
153.760	26.793	963.354	776.434
154.775	26.836	962.904	776.184
155.789	26.777	961.636	774.844
156.804	26.740	960.822	773.960
157.819	26.801	959.864	773.382
158.833	27.050	959.222	773.855
159.848	26.896	958.465	772.519
160.862	26.910	956.928	771.273
161.877	26.807	955.789	769.849
162.892	26.810	955.041	769.193
163.906	26.727	953.720	767.707
164.921	26.747	953.068	767.200
165.935	26.772	952.368	766.674
166.950	26.759	951.240	765.646
167.964	26.788	950.403	765.024
168.979	26.628	949.748	763.757
169.994	26.453	949.133	762.455
171.008	26.783	948.180	763.013
172.023	26.955	947.153	762.840
173.037	26.643	946.454	760.901
174.052	26.606	944.963	759.479
175.067	26.653	944.249	759.033
176.081	26.552	944.176	758.486
177.096	26.475	943.960	757.924
178.110	26.406	942.195	756.148
179.125	26.010	942.084	754.337
180.140	26.032	941.724	754.074
181.154	26.275	941.302	754.686
182.169	26.594	941.208	755.874
183.183	26.789	940.553	756.095
184.198	26.712	939.606	754.945
185.213	26.754	938.715	754.337
186.227	26.704	938.536	753.922
187.242	26.775	937.566	753.368
188.256	26.943	936.692	753.300
189.271	27.039	936.354	753.358
190.286	26.621	934.916	750.401
191.300	25.762	933.648	745.762
192.315	25.090	931.752	741.404
193.329	25.003	931.524	740.799
194.344	26.049	932.148	745.555
195.359	26.686	931.844	747.874
196.373	26.675	931.526	747.507
197.388	26.610	930.994	746.747
198.402	26.560	930.251	745.877
199.417	26.603	929.909	745.715
200.432	26.401	928.931	744.033
201.446	26.246	928.289	742.817
202.461	26.318	927.568	742.468
203.475	25.486	925.795	737.570
204.490	24.683	924.335	733.053
205.504	25.687	924.662	737.363
206.519	26.375	924.445	739.943
207.534	26.345	924.271	739.612
208.548	26.742	923.836	740.822
209.563	26.479	923.115	739.104
210.577	26.324	922.661	738.043
211.592	26.951	922.165	740.137
212.607	26.920	921.410	739.341
213.621	26.825	920.724	738.340
214.636	26.983	919.903	738.256
215.650	26.888	919.179	737.227
216.665	26.933	918.902	737.119
217.680	26.940	918.033	736.388
218.694	26.335	916.733	732.825
219.709	26.313	916.036	732.116
220.723	26.475	915.622	732.376
221.738	26.615	915.421	732.719
222.753	26.664	914.585	732.179
223.767	26.814	914.033	732.279
224.782	27.019	913.916	732.949
225.796	26.893	913.740	732.235
226.811	26.311	911.733	728.219
227.826	25.584	910.934	724.585
228.840	25.828	909.841	724.634
229.855	25.837	909.559	724.382
230.869	25.556	908.542	722.381
231.884	25.930	908.644	723.900
232.899	26.648	908.448	726.561
233.913	26.520	907.730	725.409
234.928	26.543	907.156	724.978
235.942	26.474	906.487	724.104
236.957	26.147	905.957	722.309
237.972	26.160	905.264	721.744
238.986	26.345	904.725	721.990
240.001	26.352	904.024	721.391
241.015	26.471	903.475	721.366
242.030	26.496	903.731	721.606
243.045	26.543	902.856	721.031
244.059	26.878	902.424	721.956
245.074	26.502	901.454	719.622
246.088	26.197	900.536	717.610
247.103	26.628	899.771	718.650
248.117	27.119	900.446	721.073
249.132	27.356	900.094	721.669
250.147	27.445	899.345	721.356
251.161	27.737	898.879	722.074
252.176	27.546	898.112	720.641
253.190	27.647	897.611	720.572
254.205	27.849	897.104	720.899
255.220	27.781	896.575	720.141
256.234	27.531	895.565	718.284
257.249	27.602	894.788	717.873
258.263	27.530	894.359	717.182
259.278	27.693	893.803	717.317
260.293	27.475	893.590	716.225
261.307	27.473	892.641	715.391
262.322	27.354	891.658	714.074
263.336	26.548	889.847	709.404
264.351	25.459	888.094	703.680
265.366	25.755	887.700	704.465
266.380	26.806	888.512	709.161
267.395	27.185	888.262	710.379
268.409	27.261	887.198	709.762
269.424	27.241	887.179	709.605
270.439	27.401	886.414	709.557
271.453	27.517	886.041	709.646
272.468	27.612	885.501	709.521
273.482	27.606	885.121	709.130
274.497	27.122	884.124	706.387
275.512	26.809	883.437	704.559
276.526	27.403	883.244	706.651
277.541	27.464	882.694	706.385
278.555	27.265	882.074	705.055
279.570	27.060	881.303	703.580
280.585	27.264	880.705	703.833
281.599	27.222	879.816	702.897
282.614	26.678	878.613	699.772
283.628	26.435	878.615	698.773
284.643	26.978	877.915	700.249
285.657	26.811	876.546	698.453
286.672	26.385	875.751	696.120
287.687	26.901	876.249	698.441
288.701	27.006	875.345	698.060
289.716	26.761	874.502	696.384
290.730	26.578	873.968	695.194
291.745	26.399	873.074	693.735
292.760	26.543	873.341	694.441
293.774	27.540	873.489	698.318
294.789	27.953	873.137	699.559
295.803	27.818	872.758	698.674
296.818	28.051	871.798	698.736
297.833	27.470	870.660	695.545
298.847	27.379	869.949	694.567
299.862	27.656	869.632	695.307
300.876	28.036	869.636	696.700
301.891	27.965	868.703	695.620
302.906	27.352	867.909	692.589
303.920	27.611	867.412	693.119
304.935	27.920	867.309	694.146
305.949	27.821	866.767	693.277
306.964	27.755	865.576	692.013
307.979	27.733	865.341	691.678
308.993	28.002	865.397	692.684
310.008	28.073	864.708	692.340
311.022	27.662	863.849	690.035
312.037	27.663	862.852	689.180
313.052	27.437	862.135	687.696
314.066	26.353	860.792	682.473
315.081	26.045	860.474	680.996
316.095	27.061	860.426	684.731
317.110	27.458	860.273	686.044
318.125	26.696	858.284	681.533
319.139	25.669	856.984	676.582
320.154	25.590	856.863	676.131
321.168	26.581	857.169	680.038
322.183	27.272	857.514	682.846
323.197	27.373	857.170	682.889
324.212	27.651	857.116	683.828
325.227	27.526	856.471	682.785
326.241	27.435	855.597	681.686
327.256	27.358	854.806	680.709
328.270	27.311	854.207	679.997
329.285	27.075	853.371	678.390
330.300	26.963	852.375	677.119
331.314	27.299	852.273	678.230
332.329	27.601	852.235	679.268
333.343	27.683	852.028	679.349
334.358	27.734	851.565	679.106
335.373	27.863	851.140	679.187
336.387	27.983	851.205	679.626
337.402	28.146	851.163	680.139
338.416	28.134	850.616	679.597
339.431	28.212	850.402	679.655
340.446	28.445	849.957	680.106
341.460	28.375	849.602	679.500
342.475	28.082	848.737	677.663
343.489	28.163	848.548	677.753
344.504	28.494	848.300	678.720
345.519	28.597	848.116	678.894
346.533	28.698	847.605	678.799
347.548	28.615	846.986	677.936
348.562	28.659	846.298	677.485
349.577	28.483	845.830	676.404
350.592	28.476	845.327	675.914
351.606	28.459	844.336	675.001
352.621	28.401	843.342	673.932
353.635	28.297	842.572	672.875
354.650	27.670	841.369	669.556
355.665	26.714	839.792	664.736
356.679	27.030	839.533	665.628
357.694	27.632	839.059	667.401
358.708	27.457	838.952	666.614
359.723	27.939	838.465	667.931
360.738	28.165	838.193	668.483
361.752	28.265	837.748	668.433
362.767	28.629	837.297	669.343
363.781	28.763	837.165	669.665
364.796	28.988	836.410	669.822
365.810	29.038	836.433	669.961
366.825	28.942	835.897	669.125
367.840	28.707	835.370	667.788
368.854	28.373	833.957	665.386
369.869	28.217	833.922	664.734
370.883	28.283	833.419	664.514
371.898	28.169	832.928	663.649
372.913	28.231	832.852	663.754
373.927	28.513	832.258	664.244
374.942	28.556	831.697	663.894
375.956	28.687	831.105	663.836
376.971	28.808	831.080	664.195
377.986	28.979	830.888	664.601
379.000	29.019	829.912	663.905
380.015	28.840	829.243	662.668
381.029	28.817	828.865	662.222
382.044	28.918	828.930	662.581
383.059	28.763	828.061	661.270
384.073	28.921	827.441	661.283
385.088	28.870	826.625	660.392
386.102	28.678	825.680	658.887
387.117	28.553	825.134	657.945
388.132	28.355	824.206	656.436
389.146	27.798	823.163	653.555
390.161	28.166	823.374	654.982
391.175	28.541	823.220	656.145
392.190	28.386	822.137	654.669
393.205	26.882	819.887	647.455
394.219	25.395	818.254	640.808
395.234	25.200	818.158	639.983
396.248	26.854	819.536	646.907
397.263	28.341	820.117	652.611
398.278	28.370	819.913	652.496
399.292	28.216	818.707	650.931
400.307	28.286	818.303	650.800
401.321	28.235	818.295	650.554
402.336	28.640	818.595	652.172
403.350	29.104	818.081	653.355
404.365	29.303	817.844	653.813
405.380	29.807	817.149	654.986
406.394	29.636	817.273	654.421
407.409	29.582	816.606	653.639
408.423	29.434	816.675	653.112
409.438	29.561	816.254	653.167
410.453	29.741	815.166	652.872
411.467	29.507	815.032	651.881
412.482	29.356	814.797	651.101
413.496	29.763	814.133	651.951
414.511	29.808	813.280	651.369
415.526	29.699	813.271	650.918
416.540	29.494	812.452	649.484
417.555	29.268	811.963	648.242
418.569	29.362	811.564	648.198
419.584	29.434	810.823	647.798
420.599	29.133	810.383	646.335
421.613	109.351	1284.910	1445.825
422.628	94.540	1354.068	1445.940
