DTS Sentinel unit serial number:	SN413079Multiplexer serial number:	ORYXHardware model number:	OX4-SRSoftware version number:	ORYX F/W v4.00 Oryx Data Collector v3.7.2.0data status	okinstallation	princeton_trtdifferential loss correction	single-endedforward channel	channel 1reverse channel	N/Adate	2019/09/13time	08:30:35forward acquisition time	60.00reverse acquisition time	0.00gamma	496.2192k internal	0.2329k external	0.2329temperature offset calibration	1.0159default loss term (dB/km)	0.3790temperature slope calibration	1.0000multiplexer offset coefficient	1.0000multiplexer slope coefficient	1.0000fibre end	0.00T internal ref (°C)	27.50T ext. ref 1 (°C)	4.29T ext. ref 2 (°C)	24.34length (m)	temperature (°C)	Stokes	anti-Stokes-747.200	-136.536	0.284	0.033
-746.185	18.881	0.261	0.210
-745.171	6.813	-0.141	0.105
-744.156	74.807	-0.245	-0.260
-743.142	109.080	0.109	-0.132
-742.127	-109.480	-0.487	0.104
-741.112	-166.455	0.148	-0.006
-740.098	310.235	0.176	0.332
-739.083	88.446	-0.409	-0.458
-738.069	527.079	-0.080	0.190
-737.054	216.272	0.130	-0.209
-736.039	-57.901	-0.433	-0.191
-735.025	-62.130	0.156	0.066
-734.010	26.941	0.032	0.027
-732.996	87.910	-0.100	0.112
-731.981	-200.000	0.051	-0.308
-730.966	800.000	0.075	-0.263
-729.952	-56.453	-0.098	0.044
-728.937	800.000	-0.023	-0.069
-727.923	-85.311	-0.081	-0.025
-726.908	-146.267	-0.202	-0.018
-725.894	95.735	0.105	0.121
-724.879	-200.000	-0.006	-0.353
-723.864	-102.325	-0.217	0.052
-722.850	-200.000	-0.018	-0.159
-721.835	-147.180	-0.061	0.005
-720.821	228.125	-0.157	0.257
-719.806	-138.381	-0.114	0.013
-718.791	764.813	0.104	-0.285
-717.777	173.049	-0.113	-0.164
-716.762	-45.550	-0.561	-0.280
-715.748	267.813	-0.127	0.224
-714.733	-200.000	0.058	-0.327
-713.718	-91.731	-0.343	-0.098
-712.704	175.084	0.067	-0.098
-711.689	90.335	-0.282	-0.318
-710.675	-200.000	-0.048	-0.290
-709.660	-22.375	-0.243	0.148
-708.645	-200.000	-0.011	-0.429
-707.631	163.331	-0.192	0.272
-706.616	170.008	-0.125	-0.179
-705.602	-145.478	0.152	0.014
-704.587	-26.493	0.180	-0.106
-703.572	59.362	0.169	0.168
-702.558	138.252	0.141	0.186
-701.543	488.469	-0.087	-0.200
-700.529	-165.457	0.081	-0.004
-699.514	326.287	-0.119	-0.229
-698.499	74.570	0.110	-0.117
-697.485	-79.411	0.146	-0.050
-696.470	175.126	0.072	0.105
-695.456	-164.358	-0.095	0.004
-694.441	-172.601	-0.141	0.004
-693.426	-200.000	-0.015	0.183
-692.412	147.338	-0.030	0.041
-691.397	246.070	0.102	-0.173
-690.383	-200.000	-0.016	-0.074
-689.368	704.432	-0.062	-0.165
-688.354	-42.586	-0.100	-0.051
-687.339	-53.052	-0.153	-0.071
-686.324	-200.000	-0.037	-0.328
-685.310	-200.000	0.029	0.253
-684.295	-200.000	0.013	-0.105
-683.281	104.968	-0.158	-0.187
-682.266	301.500	0.150	-0.278
-681.251	-200.000	-0.449	0.002
-680.237	284.792	0.018	-0.033
-679.222	508.430	-0.121	0.283
-678.208	76.137	-0.207	0.220
-677.193	-54.876	-0.211	-0.096
-676.178	769.240	0.116	-0.317
-675.164	-200.000	0.065	0.291
-674.149	-30.649	-0.132	0.075
-673.135	-200.000	-0.036	0.258
-672.120	800.000	-0.239	-0.693
-671.105	45.790	-0.316	-0.293
-670.091	-58.373	0.081	0.035
-669.076	-200.000	0.008	0.064
-668.062	-200.000	-0.219	0.000
-667.047	261.274	0.173	0.301
-666.032	83.857	0.232	0.254
-665.018	301.085	-0.137	0.253
-664.003	-54.474	-0.141	0.064
-662.989	-103.986	0.066	-0.016
-661.974	12.215	-0.358	-0.277
-660.959	800.000	-0.107	0.437
-659.945	-21.874	0.238	0.146
-658.930	-75.191	-0.232	-0.083
-657.916	-77.434	0.085	0.030
-656.901	48.202	0.086	0.081
-655.886	95.477	0.241	0.276
-654.872	76.072	-0.133	-0.141
-653.857	-200.000	-0.019	0.251
-652.843	-12.551	0.033	-0.022
-651.828	375.067	0.070	-0.144
-650.814	28.540	0.227	-0.193
-649.799	-53.066	0.179	-0.083
-648.784	141.780	-0.037	0.049
-647.770	-41.795	-0.145	-0.075
-646.755	215.853	-0.103	-0.164
-645.741	-7.376	-0.259	0.176
-644.726	800.000	0.080	0.303
-643.711	13.567	-0.254	-0.198
-642.697	-160.992	0.323	-0.017
-641.682	177.750	0.098	0.144
-640.668	-84.497	-0.129	-0.041
-639.653	106.402	0.085	0.101
-638.638	732.335	0.030	-0.082
-637.624	144.887	0.066	0.088
-636.609	-108.454	-0.161	-0.035
-635.595	-27.860	-0.177	-0.103
-634.580	610.585	0.069	-0.173
-633.565	31.244	-0.271	-0.233
-632.551	-59.834	-0.341	-0.146
-631.536	-113.493	0.195	0.038
-630.522	-125.347	0.281	0.043
-629.507	-200.000	-0.075	0.436
-628.492	800.000	-0.058	0.172
-627.478	-126.026	0.196	-0.030
-626.463	680.066	0.021	-0.055
-625.449	-200.000	0.004	0.187
-624.434	-118.531	-0.121	-0.021
-623.419	-3.967	-0.215	-0.149
-622.405	232.670	0.148	0.244
-621.390	800.000	-0.081	-0.297
-620.376	-194.216	0.284	-0.002
-619.361	-5.483	-0.187	-0.128
-618.346	-147.692	0.246	0.021
-617.332	63.136	0.137	0.138
-616.317	144.873	0.155	0.208
-615.303	-200.000	-0.046	0.257
-614.288	239.173	0.125	0.208
-613.273	-176.631	0.266	-0.007
-612.259	63.629	0.092	-0.092
-611.244	-150.368	-0.262	0.020
-610.230	800.000	-0.034	-0.140
-609.215	-200.000	-0.013	-0.087
-608.201	800.000	-0.046	-0.160
-607.186	627.394	-0.110	-0.279
-606.171	-0.903	-0.196	0.139
-605.157	175.304	-0.051	0.074
-604.142	172.982	-0.176	-0.254
-603.128	-94.886	0.170	-0.046
-602.113	-200.000	0.007	0.196
-601.098	174.965	0.107	0.155
-600.084	-200.000	-0.010	0.218
-599.069	-13.530	0.138	0.090
-598.055	-86.760	0.261	0.080
-597.040	547.365	0.041	0.098
-596.025	224.792	-0.155	-0.251
-595.011	553.670	-0.145	-0.349
-593.996	-46.533	0.276	-0.136
-592.982	615.135	0.107	0.270
-591.967	83.502	0.174	-0.190
-590.952	-200.000	0.019	0.255
-589.938	-137.852	0.192	-0.021
-588.923	299.520	0.072	0.133
-587.909	-29.794	0.260	-0.149
-586.894	-44.106	-0.115	-0.058
-585.879	-133.452	0.081	0.010
-584.865	-81.032	-0.296	0.098
-583.850	-128.952	-0.049	0.007
-582.836	62.764	0.339	-0.339
-581.821	-42.799	-0.115	0.059
-580.806	-0.869	-0.181	-0.128
-579.792	-36.827	-0.080	-0.043
-578.777	-53.819	0.109	0.050
-577.763	-200.000	-0.019	-0.211
-576.748	433.548	-0.022	-0.047
-575.733	-197.196	-0.382	0.002
-574.719	259.165	0.157	-0.271
-573.704	91.343	0.079	0.088
-572.690	-2.705	0.395	0.276
-571.675	251.819	-0.207	0.353
-570.661	31.797	-0.122	0.105
-569.646	-176.167	0.439	-0.012
-568.631	58.375	-0.314	0.309
-567.617	720.973	-0.064	-0.171
-566.602	-200.000	0.024	-0.181
-565.588	-81.804	-0.347	-0.114
-564.573	-126.940	0.273	0.040
-563.558	-3.727	0.301	-0.209
-562.544	-2.893	0.039	-0.027
-561.529	800.000	-0.030	0.102
-560.515	114.902	-0.239	-0.291
-559.500	-80.370	-0.211	0.070
-558.485	360.559	0.038	0.076
-557.471	-115.176	-0.464	-0.088
-556.456	-154.534	-0.073	-0.005
-555.442	-100.490	0.221	-0.055
-554.427	800.000	-0.023	0.101
-553.412	-200.000	0.006	0.184
-552.398	-63.333	-0.080	-0.033
-551.383	429.180	0.099	-0.213
-550.369	-45.426	-0.204	-0.101
-549.354	-52.235	-0.049	-0.023
-548.339	-97.835	-0.084	-0.022
-547.325	76.520	-0.312	0.331
-546.310	53.482	-0.215	-0.206
-545.296	18.915	-0.360	-0.288
-544.281	-187.416	0.198	-0.003
-543.266	-142.951	-0.337	-0.033
-542.252	-21.438	0.272	-0.166
-541.237	-54.367	0.169	-0.077
-540.223	-17.783	-0.194	-0.122
-539.208	181.212	-0.158	0.231
-538.193	129.729	0.239	0.305
-537.179	389.833	0.095	0.198
-536.164	-200.000	-0.076	-0.363
-535.150	-146.043	0.208	0.018
-534.135	7.898	-0.070	0.053
-533.121	-14.001	-0.095	-0.061
-532.106	-104.094	0.126	-0.029
-531.091	-200.000	0.062	-0.464
-530.077	-107.400	-0.268	0.059
-529.062	-200.000	-0.001	-0.006
-528.048	-143.493	0.139	-0.013
-527.033	-200.000	0.014	-0.233
-526.018	595.890	-0.175	-0.433
-525.004	57.920	-0.025	0.025
-523.989	-32.719	0.363	-0.202
-522.975	-135.885	0.192	0.023
-521.960	-200.000	0.050	-0.282
-520.945	-53.656	0.206	-0.094
-519.931	-55.282	-0.144	-0.065
-518.916	-61.022	-0.218	-0.092
-517.902	-200.000	-0.008	-0.257
-516.887	195.061	0.081	0.122
-515.872	-33.807	-0.292	-0.160
-514.858	182.706	0.143	-0.210
-513.843	800.000	0.054	-0.180
-512.829	108.242	-0.142	0.169
-511.814	722.937	0.077	-0.205
-510.799	800.000	-0.022	0.095
-509.785	-200.000	0.043	-0.327
-508.770	7.606	-0.245	0.183
-507.756	-200.000	0.035	0.266
-506.741	327.530	-0.064	0.123
-505.726	-18.030	0.133	0.083
-504.712	800.000	0.042	-0.131
-503.697	-200.000	0.010	0.102
-502.683	147.209	0.315	-0.423
-501.668	800.000	-0.081	0.330
-500.653	-96.321	0.075	0.020
-499.639	68.868	0.083	-0.085
-498.624	-109.586	0.306	-0.064
-497.610	-8.735	-0.397	0.266
-496.595	-82.100	0.150	0.049
-495.581	-166.148	-0.059	-0.003
-494.566	-200.000	0.003	-0.305
-493.551	800.000	-0.128	-0.382
-492.537	239.942	-0.123	0.205
-491.522	-72.139	-0.322	0.119
-490.508	800.000	-0.018	0.066
-489.493	-66.667	-0.241	0.095
-488.478	-80.276	-0.448	-0.149
-487.464	-118.799	0.605	0.106
-486.449	59.442	0.108	0.106
-485.435	119.589	-0.167	-0.206
-484.420	125.094	-0.097	-0.122
-483.405	47.370	-0.152	0.141
-482.391	591.201	-0.121	0.297
-481.376	121.851	0.105	-0.130
-480.362	-109.286	-0.168	0.036
-479.347	-70.243	0.434	-0.164
-478.332	800.000	0.044	0.180
-477.318	-49.298	-0.234	0.111
-476.303	406.492	-0.115	-0.243
-475.289	86.379	0.116	-0.127
-474.274	-200.000	-0.002	0.122
-473.259	198.775	-0.050	-0.076
-472.245	800.000	-0.063	-0.241
-471.230	17.921	0.071	0.056
-470.216	612.300	0.114	0.284
-469.201	324.763	0.133	-0.252
-468.186	-108.518	0.160	0.034
-467.172	-200.000	-0.046	-0.277
-466.157	-95.477	0.115	0.031
-465.143	-88.627	0.189	-0.056
-464.128	617.702	0.074	-0.185
-463.113	198.901	-0.092	0.140
-462.099	-30.591	0.230	0.130
-461.084	-53.868	-0.206	-0.093
-460.070	-200.000	-0.032	-0.146
-459.055	208.237	-0.056	0.087
-458.040	-107.494	0.236	0.051
-457.026	59.237	-0.076	-0.075
-456.011	437.417	0.057	0.124
-454.997	-136.045	0.052	0.006
-453.982	-179.895	0.025	-0.001
-452.968	-90.929	-0.536	0.154
-451.953	-77.656	0.265	-0.091
-450.938	-36.910	-0.136	0.073
-449.924	-62.917	0.199	0.082
-448.909	-200.000	0.006	0.184
-447.895	-200.000	-0.011	0.053
-446.880	800.000	0.095	0.280
-445.865	725.379	-0.218	-0.579
-444.851	800.000	-0.078	-0.280
-443.836	-200.000	-0.043	-0.230
-442.822	-124.811	0.232	0.036
-441.807	-200.000	0.028	0.338
-440.792	-200.000	0.021	-0.369
-439.778	-200.000	0.012	0.230
-438.763	5.622	-0.303	-0.223
-437.749	378.607	-0.133	0.272
-436.734	86.008	-0.053	0.059
-435.719	800.000	-0.006	0.025
-434.705	-200.000	0.027	-0.351
-433.690	-16.562	0.212	-0.133
-432.676	-62.790	0.386	0.159
-431.661	272.908	-0.206	-0.362
-430.646	-200.000	0.005	0.054
-429.632	63.406	0.164	-0.164
-428.617	-181.227	-0.225	-0.004
-427.603	350.429	-0.071	-0.140
-426.588	666.070	0.041	-0.105
-425.573	-200.000	0.044	-0.333
-424.559	115.533	0.110	0.134
-423.544	-43.917	-0.139	0.069
-422.530	8.735	-0.181	0.136
-421.515	436.696	0.108	0.234
-420.500	115.127	0.126	0.153
-419.486	23.570	0.021	-0.017
-418.471	2.767	-0.259	0.187
-417.457	-136.018	-0.238	0.028
-416.442	-137.231	0.379	-0.043
-415.428	635.095	-0.168	-0.424
-414.413	-200.000	-0.022	-0.287
-413.398	51.916	0.243	-0.230
-412.384	-22.428	0.203	-0.122
-411.369	-200.000	0.039	-0.258
-410.355	0.934	-0.159	-0.113
-409.340	21.302	0.227	0.184
-408.325	-200.000	0.014	-0.320
-407.311	-81.498	0.118	-0.039
-406.296	405.628	0.064	-0.133
-405.282	-102.067	0.189	0.045
-404.267	451.288	-0.060	-0.132
-403.252	711.104	-0.061	0.160
-402.238	800.000	0.092	0.338
-401.223	-200.000	-0.004	0.279
-400.209	800.000	0.036	-0.104
-399.194	-160.442	-0.258	-0.014
-398.179	-61.383	-0.192	0.080
-397.165	-6.842	0.140	-0.095
-396.150	-41.726	0.234	0.120
-395.136	110.116	0.145	-0.173
-394.121	225.752	-0.137	0.220
-393.106	800.000	0.085	0.257
-392.092	75.585	0.157	0.164
-391.077	603.905	0.112	-0.277
-390.063	800.000	-0.080	0.248
-389.048	-32.967	0.195	-0.108
-388.033	-200.000	0.044	0.211
-387.019	-166.160	-0.149	0.006
-386.004	-8.321	-0.098	-0.065
-384.990	-59.953	-0.037	-0.016
-383.975	-193.295	-0.084	-0.001
-382.960	-36.024	-0.254	-0.136
-381.946	190.507	0.162	-0.242
-380.931	472.215	-0.140	0.312
-379.917	-122.389	-0.254	0.041
-378.902	742.267	0.087	-0.234
-377.888	-200.000	-0.017	-0.152
-376.873	-48.099	0.213	0.102
-375.858	800.000	0.018	-0.075
-374.844	148.237	0.362	0.486
-373.829	800.000	-0.047	-0.189
-372.815	-121.489	-0.426	-0.070
-371.800	-156.795	0.136	0.008
-370.785	-83.594	0.084	-0.027
-369.771	12.511	-0.236	-0.181
-368.756	94.409	-0.026	0.029
-367.742	-132.477	-0.178	-0.023
-366.727	-29.176	0.220	0.125
-365.712	-48.648	0.127	-0.060
-364.698	-33.121	0.018	0.010
-363.683	137.621	-0.068	0.089
-362.669	800.000	0.059	0.220
-361.654	-200.000	-0.076	0.000
-360.639	-200.000	0.008	0.361
-359.625	-46.883	-0.312	0.151
-358.610	-138.638	0.076	-0.008
-357.596	-125.213	-0.282	0.043
-356.581	-122.972	-0.166	0.027
-355.566	632.980	-0.091	0.230
-354.552	-69.272	-0.076	-0.029
-353.537	-129.617	-0.015	0.002
-352.523	45.353	-0.210	-0.192
-351.508	191.400	0.067	-0.101
-350.493	-114.603	-0.261	0.050
-349.479	-200.000	-0.056	-0.249
-348.464	-60.745	0.290	-0.122
-347.450	-106.428	0.211	0.047
-346.435	-92.275	0.148	-0.041
-345.420	-39.378	0.191	0.099
-344.406	-60.107	0.370	-0.156
-343.391	-2.291	-0.142	-0.099
-342.377	-113.302	0.126	-0.025
-341.362	-133.639	0.275	0.034
-340.348	164.594	-0.136	0.190
-339.333	-200.000	-0.005	0.118
-338.318	626.918	-0.033	-0.083
-337.304	113.398	-0.035	-0.042
-336.289	-200.000	-0.047	-0.356
-335.275	-85.483	0.129	0.040
-334.260	800.000	-0.023	0.100
-333.245	-86.286	0.253	0.077
-332.231	-200.000	-0.007	0.241
-331.216	-28.892	0.158	0.090
-330.202	381.372	-0.052	-0.107
-329.187	109.501	-0.024	0.029
-328.172	800.000	-0.047	-0.160
-327.158	44.107	0.126	0.114
-326.143	236.885	0.164	-0.269
-325.129	-157.633	0.336	-0.020
-324.114	-122.967	-0.312	-0.050
-323.099	45.939	-0.039	0.036
-322.085	-65.313	-0.036	0.014
-321.070	107.735	0.334	-0.394
-320.056	-74.429	-0.125	-0.045
-319.041	13.632	0.203	0.156
-318.026	-200.000	0.012	0.146
-317.012	557.256	0.131	0.313
-315.997	547.006	0.089	0.212
-314.983	14.051	-0.161	0.125
-313.968	91.275	0.088	0.098
-312.953	-165.106	0.250	-0.011
-311.939	-200.000	-0.015	-0.091
-310.924	-172.098	0.251	-0.008
-309.910	-200.000	0.036	-0.632
-308.895	60.788	0.067	0.066
-307.880	44.007	0.058	-0.053
-306.866	-27.460	0.117	0.067
-305.851	-200.000	0.032	0.240
-304.837	-68.157	0.098	-0.038
-303.822	25.194	0.100	0.082
-302.807	268.902	-0.073	0.127
-301.793	800.000	-0.129	-0.366
-300.778	82.276	-0.125	0.135
-299.764	391.372	0.117	0.240
-298.749	52.882	0.224	-0.212
-297.735	-96.096	-0.416	0.110
-296.720	86.784	-0.133	-0.146
-295.705	-78.662	-0.328	0.111
-294.691	-87.485	0.300	-0.090
-293.676	229.069	-0.036	0.058
-292.662	46.147	-0.174	-0.160
-291.647	-54.594	-0.202	-0.090
-290.632	63.464	0.065	0.065
-289.618	-76.204	-0.208	0.073
-288.603	-200.000	0.008	0.158
-287.589	-19.713	-0.058	0.036
-286.574	12.630	0.117	-0.089
-285.559	-29.315	-0.129	0.073
-284.545	257.977	0.103	-0.175
-283.530	-200.000	0.005	-0.034
-282.516	291.544	-0.053	0.096
-281.501	427.213	0.022	-0.047
-280.486	80.811	-0.127	0.136
-279.472	-159.953	-0.193	0.010
-278.457	15.660	-0.254	-0.198
-277.443	286.730	0.055	-0.098
-276.428	-200.000	-0.019	0.205
-275.413	-93.876	0.100	-0.027
-274.399	-157.153	0.348	-0.021
-273.384	168.647	0.112	0.158
-272.370	-18.710	-0.204	-0.126
-271.355	-200.000	-0.021	-0.199
-270.340	-200.000	0.019	0.352
-269.326	800.000	-0.007	-0.024
-268.311	41.865	0.224	0.201
-267.297	-200.000	-0.028	0.199
-266.282	-200.000	-0.030	-0.133
-265.267	126.896	-0.229	0.286
-264.253	-99.538	0.371	0.092
-263.238	181.072	0.059	0.086
-262.224	-64.629	-0.148	0.059
-261.209	-3.565	-0.145	0.100
-260.195	-143.127	-0.072	-0.007
-259.180	800.000	-0.080	0.313
-258.165	-200.000	-0.028	0.214
-257.151	-173.119	-0.330	0.010
-256.136	4.768	0.312	0.226
-255.122	-173.007	-0.474	0.014
-254.107	117.280	0.127	-0.154
-253.092	-73.031	0.287	-0.104
-252.078	71.584	0.325	-0.334
-251.063	-111.945	0.255	-0.051
-250.049	-200.000	0.061	-0.298
-249.034	-74.584	-0.144	0.051
-248.019	-200.000	-0.011	-0.134
-247.005	111.275	-0.165	0.196
-245.990	79.281	-0.157	0.166
-244.976	18.268	0.218	-0.172
-243.961	138.174	0.196	0.254
-242.946	-200.000	0.019	-0.147
-241.932	-200.000	0.042	-0.487
-240.917	28.064	-0.074	-0.062
-239.903	-45.897	0.138	-0.067
-238.888	800.000	0.060	0.191
-237.873	196.370	0.125	0.188
-236.859	-200.000	0.041	0.199
-235.844	-118.997	-0.181	0.031
-234.830	309.188	-0.072	-0.132
-233.815	-46.143	0.156	0.076
-232.800	510.860	0.035	0.081
-231.786	74.768	0.117	0.122
-230.771	-200.000	0.005	-0.094
-229.757	448.826	-0.051	0.111
-228.742	82.092	-0.132	0.141
-227.727	595.546	-0.081	0.197
-226.713	-66.890	0.152	-0.059
-225.698	-158.642	0.133	-0.008
-224.684	531.450	0.081	0.189
-223.669	59.414	0.147	0.143
-222.655	-28.147	-0.319	-0.182
-221.640	127.231	0.122	0.153
-220.625	800.000	0.022	0.060
-219.611	19.923	-0.152	0.121
-218.596	-32.865	-0.216	0.119
-217.582	-200.000	0.026	0.271
-216.567	61.153	0.188	0.185
-215.552	-72.143	-0.473	-0.173
-214.538	800.000	0.099	0.424
-213.523	-122.343	0.225	0.036
-212.509	-200.000	-0.045	-0.205
-211.494	-200.000	0.013	0.163
-210.479	-200.000	0.005	0.216
-209.465	22.246	0.113	-0.091
-208.450	25.738	0.367	-0.301
-207.436	210.329	0.108	0.167
-206.421	494.458	0.134	0.303
-205.406	32.941	-0.133	0.114
-204.392	800.000	-0.092	0.263
-203.377	-200.000	-0.002	-0.124
-202.363	-96.718	0.139	-0.036
-201.348	-200.000	-0.014	-0.208
-200.333	-169.457	-0.224	0.008
-199.319	800.000	-0.045	0.193
-198.304	-2.526	0.146	-0.101
-197.290	800.000	-0.085	0.240
-196.275	-128.111	0.191	-0.027
-195.260	664.042	0.077	-0.196
-194.246	-200.000	0.004	0.031
-193.231	-59.569	0.241	-0.102
-192.217	-141.854	-0.251	-0.025
-191.202	246.361	-0.068	0.113
-190.187	4.298	0.383	0.277
-189.173	122.194	-0.265	0.326
-188.158	-65.957	0.208	0.082
-187.144	81.314	-0.110	0.118
-186.129	306.150	0.105	0.192
-185.114	63.167	-0.212	-0.209
-184.100	-93.727	0.199	0.054
-183.085	-8.232	-0.249	0.165
-182.071	-98.263	-0.207	-0.052
-181.056	178.475	-0.105	-0.152
-180.042	83.630	-0.192	0.206
-179.027	-200.000	-0.018	0.104
-178.012	-200.000	0.001	-0.154
-176.998	145.135	-0.263	0.347
-175.983	-71.944	-0.100	-0.036
-174.969	208.228	-0.076	0.118
-173.954	111.864	-0.085	-0.101
-172.939	-132.316	0.121	-0.015
-171.925	-200.000	0.079	0.000
-170.910	-71.825	-0.332	0.122
-169.896	-105.903	-0.083	-0.019
-168.881	130.185	0.170	0.214
-167.866	-81.799	0.232	-0.075
-166.852	-63.030	0.242	-0.098
-165.837	60.402	-0.174	-0.169
-164.823	-156.504	-0.240	-0.015
-163.808	-136.369	-0.052	0.006
-162.793	-200.000	0.011	0.253
-161.779	-107.732	0.177	-0.038
-160.764	-48.602	-0.164	-0.078
-159.750	80.905	-0.056	-0.060
-158.735	800.000	-0.051	-0.156
-157.720	-155.253	-0.420	0.027
-156.706	-42.233	-0.424	-0.213
-155.691	112.647	-0.025	-0.030
-154.677	-151.522	-0.057	-0.004
-153.662	56.062	-0.068	-0.065
-152.647	-78.348	0.081	0.027
-151.633	1.872	0.135	0.096
-150.618	-131.684	0.463	0.060
-149.604	-12.319	-0.203	-0.131
-148.589	-190.291	0.260	-0.003
-147.574	-45.365	-0.178	0.087
-146.560	-154.182	-0.411	0.027
-145.545	-40.906	-0.042	-0.021
-144.531	21.517	-0.045	-0.036
-143.516	-200.000	-0.252	-0.001
-142.502	383.397	0.058	0.118
-141.487	33.158	0.243	0.207
-140.472	-22.154	0.461	0.275
-139.458	-200.000	-0.006	0.104
-138.443	52.150	-0.126	0.118
-137.429	96.911	0.157	0.177
-136.414	282.841	-0.168	-0.297
-135.399	-26.613	0.379	0.218
-134.385	114.287	0.120	0.144
-133.370	-98.802	0.414	-0.103
-132.356	54.875	0.203	-0.193
-131.341	-200.000	0.034	-0.356
-130.326	-192.287	0.142	-0.001
-129.312	20.360	0.143	-0.113
-128.297	-200.000	-0.066	-0.593
-127.283	141.314	-0.090	0.118
-126.268	-3.748	-0.237	0.162
-125.253	800.000	0.092	0.334
-124.239	-162.979	0.405	0.019
-123.224	-95.308	0.176	-0.046
-122.210	-90.524	-0.037	0.011
-121.195	-44.033	0.122	0.060
-120.180	261.461	0.038	-0.065
-119.166	-187.035	0.158	0.002
-118.151	800.000	0.113	-0.325
-117.137	78.353	-0.202	-0.212
-116.122	37.250	0.159	-0.138
-115.107	-75.419	0.227	-0.080
-114.093	-200.000	-0.024	0.158
-113.078	7.370	0.231	-0.170
-112.064	-118.039	0.262	-0.046
-111.049	-141.382	-0.106	0.011
-110.034	573.211	0.040	-0.096
-109.020	-123.513	0.187	0.029
-108.005	800.000	-0.047	0.196
-106.991	-200.000	-0.022	0.119
-105.976	242.259	0.119	-0.196
-104.962	40.401	0.205	-0.181
-103.947	47.818	-0.069	0.064
-102.932	-150.987	0.117	0.009
-101.918	37.136	0.119	-0.103
-100.903	329.579	0.086	-0.162
-99.889	412.140	0.044	-0.092
-98.874	-200.000	0.012	-0.301
-97.859	-16.550	0.152	0.095
-96.845	110.198	-0.196	0.231
-95.830	126.057	-0.342	-0.425
-94.816	-200.000	0.002	-0.027
-93.801	-99.452	0.207	-0.051
-92.786	100.828	0.051	-0.058
-91.772	-128.830	0.130	0.018
-90.757	23.390	0.322	0.260
-89.743	-132.929	-0.068	0.008
-88.728	-200.000	-0.013	-0.133
-87.713	116.509	-0.106	-0.128
-86.699	31.030	0.167	0.140
-85.684	64.833	-0.079	-0.078
-84.670	282.890	-0.066	0.115
-83.655	0.602	-0.194	0.136
-82.640	-75.075	0.128	0.045
-81.626	-200.000	-0.018	-0.125
-80.611	424.131	-0.112	-0.236
-79.597	-200.000	0.017	0.210
-78.582	800.000	0.091	-0.278
-77.567	-200.000	0.005	0.051
-76.553	13.611	-0.028	-0.021
-75.538	104.748	0.176	-0.204
-74.524	238.684	-0.172	0.280
-73.509	800.000	-0.036	-0.109
-72.494	16.413	-0.047	-0.036
-71.480	-128.732	0.118	-0.016
-70.465	211.074	-0.116	-0.179
-69.451	-29.487	-0.261	0.147
-68.436	800.000	0.046	-0.143
-67.422	-200.000	0.013	-0.183
-66.407	-104.409	-0.233	-0.053
-65.392	-1.330	-0.046	-0.032
-64.378	-200.000	0.027	0.253
-63.363	56.779	-0.172	-0.164
-62.349	-123.403	0.336	-0.053
-61.334	56.568	-0.763	-0.728
-60.319	105.060	0.621	0.718
-59.305	-200.000	-0.148	-1.116
-58.290	611.901	0.626	1.536
-57.276	565.393	0.713	1.696
-56.261	-200.000	113.211	635.352
-55.246	523.388	1529.565	3524.586
-54.232	175.993	2699.054	3841.253
-53.217	109.384	2165.670	2542.661
-52.203	39.405	1606.393	1410.577
-51.188	30.923	1351.368	1135.189
-50.173	27.913	1312.783	1084.889
-49.159	54.639	1370.040	1295.005
-48.144	53.575	1383.868	1301.591
-47.130	31.063	1338.481	1125.030
-46.115	27.637	1321.070	1089.913
-45.100	27.408	1316.270	1084.545
-44.086	27.428	1313.425	1082.275
-43.071	27.321	1311.426	1079.950
-42.057	27.238	1309.354	1077.712
-41.042	27.271	1307.657	1076.465
-40.027	27.418	1306.208	1076.098
-39.013	27.399	1304.344	1074.411
-37.998	27.444	1302.471	1073.092
-36.984	27.475	1300.721	1071.789
-35.969	27.419	1298.882	1069.899
-34.954	27.602	1296.716	1069.149
-33.940	27.589	1295.393	1067.939
-32.925	27.531	1294.397	1066.734
-31.911	27.568	1292.746	1065.547
-30.896	27.541	1291.559	1064.372
-29.881	27.670	1290.247	1064.003
-28.867	27.605	1289.137	1062.662
-27.852	27.685	1287.054	1061.368
-26.838	27.570	1285.878	1059.688
-25.823	27.641	1284.745	1059.126
-24.809	27.470	1284.035	1057.508
-23.794	27.503	1282.296	1056.220
-22.779	27.583	1280.894	1055.489
-21.765	27.585	1279.589	1054.384
-20.750	27.629	1277.873	1053.185
-19.736	27.458	1277.651	1051.972
-18.721	27.442	1275.768	1050.286
-17.706	27.533	1274.565	1049.775
-16.692	27.531	1273.369	1048.741
-15.677	27.508	1272.461	1047.819
-14.663	27.492	1271.279	1046.712
-13.648	27.430	1270.455	1045.633
-12.633	27.578	1269.040	1045.278
-11.619	27.415	1269.095	1044.345
-10.604	27.476	1267.586	1043.414
-9.590	27.435	1266.004	1041.836
-8.575	27.338	1265.472	1040.799
-7.560	27.440	1264.617	1040.638
-6.546	27.387	1264.139	1039.903
-5.531	27.260	1263.158	1038.330
-4.517	27.398	1261.932	1038.066
-3.502	27.508	1260.796	1037.718
-2.487	27.465	1260.171	1036.916
-1.473	27.556	1256.452	1034.332
-0.458	26.430	1241.032	1015.281
0.556	24.938	1224.909	979.778
1.571	21.272	1231.574	964.811
2.586	20.286	1246.061	970.564
3.600	19.527	1233.378	956.394
4.615	14.992	1160.952	876.452
5.629	7.746	1088.871	786.249
6.644	4.592	1070.285	757.409
7.659	4.267	1068.056	754.186
8.673	4.189	1066.222	752.444
9.688	4.104	1065.267	751.292
10.702	4.658	1063.196	752.449
11.717	9.308	1069.755	779.615
12.731	17.099	1081.154	825.891
13.746	21.347	1086.000	850.230
14.761	21.975	1086.655	853.725
15.775	21.307	1084.545	848.746
16.790	20.243	1083.155	842.423
17.804	19.738	1081.321	838.471
18.819	19.407	1080.457	836.121
19.834	19.400	1079.676	835.411
20.848	19.212	1079.606	834.370
21.863	19.078	1078.371	832.696
22.877	18.813	1078.105	831.132
23.892	18.733	1077.289	830.044
24.907	18.838	1076.308	829.723
25.921	18.800	1075.135	828.564
26.936	18.914	1073.558	827.824
27.950	18.823	1072.449	826.458
28.965	19.000	1070.966	826.093
29.980	19.110	1069.501	825.415
30.994	19.236	1068.996	825.555
32.009	19.296	1068.007	825.005
33.023	19.261	1066.903	823.914
34.038	19.176	1065.575	822.410
35.053	18.959	1064.614	820.557
36.067	18.923	1063.882	819.752
37.082	19.043	1063.169	819.701
38.096	19.173	1062.780	819.946
39.111	19.257	1061.597	819.363
40.126	19.041	1060.277	817.245
41.140	18.672	1058.733	814.229
42.155	18.393	1057.848	812.156
43.169	18.516	1056.426	811.576
44.184	18.438	1055.406	810.350
45.199	18.482	1054.891	810.092
46.213	18.736	1053.585	810.217
47.228	18.929	1052.760	810.419
48.242	18.978	1051.739	809.791
49.257	18.817	1051.476	808.762
50.271	18.920	1050.199	808.191
51.286	19.160	1049.141	808.432
52.301	18.931	1049.025	807.198
53.315	18.845	1047.099	805.238
54.330	18.745	1046.000	803.854
55.344	18.654	1045.414	802.908
56.359	18.763	1044.498	802.645
57.374	18.650	1043.793	801.502
58.388	18.514	1042.429	799.749
59.403	18.492	1042.106	799.328
60.417	18.473	1041.206	798.479
61.432	18.586	1040.123	798.102
62.447	18.407	1039.118	796.429
63.461	18.342	1038.847	795.851
64.476	18.151	1038.018	794.257
65.490	18.391	1036.930	794.469
66.505	18.421	1036.235	794.006
67.520	18.318	1035.522	792.908
68.534	18.416	1034.678	792.646
69.549	18.272	1033.809	791.246
70.563	18.116	1033.232	790.011
71.578	18.168	1031.847	789.126
72.593	17.971	1031.122	787.592
73.607	18.118	1030.521	787.741
74.622	18.233	1029.545	787.454
75.636	18.113	1029.267	786.618
76.651	18.275	1028.514	786.721
77.666	18.133	1028.272	785.812
78.680	18.281	1027.291	785.674
79.695	18.357	1026.827	785.598
80.709	18.473	1026.136	785.529
81.724	18.609	1025.830	785.848
82.739	18.525	1025.453	785.107
83.753	18.892	1024.903	786.295
84.768	19.277	1023.868	787.188
85.782	19.356	1022.960	786.781
86.797	19.145	1022.554	785.439
87.812	18.924	1021.562	783.602
88.826	18.960	1020.305	782.730
89.841	19.206	1019.350	783.048
90.855	19.262	1018.784	782.796
91.870	19.263	1018.050	782.169
92.884	19.169	1017.123	780.960
93.899	19.275	1016.048	780.548
94.914	19.282	1014.877	779.611
95.928	19.390	1014.205	779.511
96.943	19.130	1012.960	777.313
97.957	19.083	1012.322	776.544
98.972	19.180	1011.490	776.273
99.987	19.221	1010.407	775.558
101.001	19.178	1009.346	774.479
102.016	19.186	1008.857	774.073
103.030	19.188	1007.754	773.167
104.045	19.199	1007.284	772.786
105.060	18.804	1006.505	770.353
106.074	18.609	1005.365	768.538
107.089	18.462	1003.769	766.593
108.103	18.438	1002.846	765.710
109.118	18.367	1002.001	764.680
110.133	18.354	1001.037	763.820
111.147	18.285	1000.452	763.000
112.162	18.485	999.338	762.971
113.176	18.603	999.111	763.255
114.191	18.689	998.341	762.983
115.206	18.635	997.109	761.734
116.220	18.508	996.142	760.364
117.235	18.456	995.343	759.457
118.249	18.511	994.712	759.153
119.264	18.458	993.465	757.901
120.279	18.312	992.702	756.604
121.293	18.373	991.664	756.017
122.308	18.211	990.829	754.598
123.322	18.168	989.725	753.503
124.337	18.074	989.024	752.486
125.352	18.176	987.504	751.711
126.366	18.102	986.760	750.754
127.381	18.196	986.062	750.571
128.395	18.177	985.286	749.828
129.410	18.294	984.386	749.591
130.424	18.404	983.602	749.408
131.439	18.486	982.953	749.204
132.454	18.529	982.315	748.840
133.468	18.660	981.237	748.526
134.483	18.552	980.701	747.577
135.497	18.619	979.711	747.048
136.512	18.500	979.020	745.937
137.527	18.611	978.192	745.723
138.541	18.534	977.579	744.856
139.556	18.600	976.976	744.618
140.570	18.923	976.225	745.380
141.585	19.140	975.285	745.534
142.600	19.053	974.740	744.677
143.614	19.234	973.522	744.463
144.629	19.252	973.030	744.099
145.643	19.131	971.731	742.519
146.658	19.005	970.508	740.972
147.673	18.720	969.717	739.076
148.687	18.780	968.368	738.241
149.702	18.651	967.518	736.976
150.716	18.572	966.902	736.101
151.731	18.593	966.392	735.736
152.746	18.688	965.322	735.265
153.760	18.766	964.596	734.982
154.775	18.951	964.550	735.672
155.789	19.025	963.185	734.883
156.804	18.882	963.126	734.160
157.819	18.952	962.632	734.019
158.833	19.173	961.952	734.377
159.848	19.382	960.773	734.304
160.862	19.209	959.893	732.829
161.877	18.860	958.722	730.389
162.892	18.613	957.950	728.687
163.906	18.583	956.572	727.446
164.921	18.543	956.052	726.817
165.935	18.748	955.220	726.988
166.950	18.896	954.254	726.816
167.964	18.792	953.602	725.816
168.979	18.675	952.709	724.576
169.994	18.627	951.865	723.667
171.008	18.827	951.069	723.843
172.023	19.087	950.269	724.264
173.037	19.144	949.975	724.213
174.052	19.038	948.811	722.820
175.067	18.697	948.097	720.779
176.081	18.576	947.523	719.770
177.096	18.521	946.767	718.902
178.110	18.726	946.276	719.325
179.125	18.741	946.058	719.156
180.140	18.746	945.833	718.944
181.154	18.994	945.169	719.412
182.169	19.167	944.623	719.656
183.183	19.202	944.409	719.577
184.198	19.153	943.023	718.254
185.213	19.090	942.677	717.664
186.227	19.221	941.909	717.558
187.242	19.233	941.714	717.396
188.256	19.462	940.873	717.648
189.271	19.530	939.568	716.870
190.286	18.975	939.174	714.202
191.300	18.689	937.543	711.714
192.315	18.682	936.545	710.863
193.329	18.560	936.575	710.318
194.344	18.708	936.154	710.546
195.359	18.875	935.685	710.818
196.373	18.997	935.235	710.920
197.388	19.207	934.773	711.374
198.402	19.627	934.000	712.456
199.417	19.545	933.639	711.776
200.432	19.603	933.485	711.837
201.446	19.722	932.658	711.633
202.461	19.824	932.122	711.581
203.475	19.552	932.260	710.503
204.490	19.267	930.583	707.992
205.504	19.299	929.750	707.427
206.519	19.224	929.069	706.539
207.534	19.253	928.141	705.888
208.548	19.271	927.397	705.335
209.563	19.223	927.086	704.838
210.577	19.405	926.089	704.765
211.592	19.568	925.813	705.157
212.607	19.698	924.984	704.993
213.621	19.639	924.143	704.048
214.636	19.560	923.465	703.148
215.650	19.582	923.318	703.064
216.665	19.784	922.275	703.029
217.680	19.727	921.823	702.390
218.694	19.726	921.246	701.884
219.709	19.666	920.894	701.309
220.723	19.718	919.800	700.625
221.738	19.692	918.842	699.729
222.753	19.712	918.519	699.502
223.767	19.863	918.161	699.778
224.782	19.863	917.639	699.320
225.796	19.896	917.431	699.230
226.811	19.728	916.376	697.686
227.826	19.545	915.707	696.377
228.840	19.552	914.708	695.587
229.855	19.572	913.704	694.840
230.869	19.441	913.087	693.785
231.884	19.419	912.626	693.284
232.899	19.406	912.033	692.721
233.913	19.373	910.970	691.719
234.928	19.259	910.546	690.879
235.942	19.245	909.853	690.234
236.957	19.257	909.290	689.794
237.972	19.224	908.669	689.130
238.986	19.257	908.308	688.926
240.001	19.326	907.529	688.551
241.015	19.445	906.945	688.523
242.030	19.633	906.726	689.047
243.045	19.609	905.293	687.802
244.059	19.574	905.276	687.588
245.074	19.821	904.474	687.901
246.088	19.580	904.283	686.733
247.103	19.802	903.775	687.172
248.117	20.003	903.444	687.657
249.132	20.366	902.627	688.415
250.147	20.564	902.616	689.130
251.161	20.624	901.538	688.482
252.176	20.515	901.347	687.845
253.190	20.514	900.474	687.114
254.205	20.688	899.984	687.366
255.220	20.651	899.220	686.574
256.234	20.504	898.770	685.589
257.249	20.736	897.282	685.311
258.263	20.477	897.274	684.222
259.278	20.500	896.441	683.618
260.293	20.594	896.045	683.624
261.307	20.762	894.977	683.409
262.322	20.788	894.743	683.272
263.336	20.783	893.966	682.598
264.351	20.836	892.834	681.883
265.366	20.630	892.988	681.130
266.380	20.777	892.187	681.035
267.395	20.555	891.341	679.462
268.409	20.562	890.636	678.890
269.424	20.550	889.734	678.098
270.439	20.445	889.059	677.113
271.453	20.559	887.778	676.519
272.468	20.339	887.765	675.594
273.482	20.486	887.132	675.625
274.497	20.336	886.631	674.601
275.512	20.450	885.856	674.395
276.526	20.373	885.718	673.930
277.541	20.423	885.335	673.776
278.555	20.632	885.105	674.350
279.570	20.816	884.116	674.249
280.585	20.860	883.503	673.890
281.599	20.500	882.344	671.558
282.614	20.357	882.125	670.780
283.628	20.440	881.545	670.597
284.643	20.502	880.471	669.962
285.657	20.508	879.941	669.522
286.672	20.530	879.452	669.176
287.687	20.448	878.953	668.420
288.701	20.508	878.646	668.358
289.716	20.601	877.565	667.834
290.730	20.593	877.406	667.626
291.745	20.583	876.853	667.106
292.760	20.746	876.154	667.139
293.774	20.992	875.191	667.289
294.789	20.848	874.964	666.505
295.803	20.735	873.940	665.234
296.818	20.594	873.299	664.150
297.833	20.656	872.596	663.794
298.847	20.533	872.517	663.204
299.862	20.712	871.732	663.232
300.876	20.785	871.362	663.170
301.891	21.030	870.756	663.581
302.906	21.098	870.377	663.492
303.920	21.299	869.587	663.598
304.935	21.401	869.062	663.524
305.949	21.106	868.501	661.919
306.964	20.904	867.894	660.629
307.979	20.974	867.389	660.452
308.993	21.199	866.334	660.443
310.008	21.132	865.819	659.736
311.022	21.129	865.487	659.416
312.037	20.911	864.873	658.067
313.052	20.714	864.097	656.673
314.066	20.652	863.187	655.691
315.081	20.632	862.649	655.149
316.095	20.680	862.264	654.979
317.110	20.689	861.422	654.314
318.125	20.613	861.414	653.965
319.139	20.478	860.754	652.901
320.154	20.476	860.371	652.543
321.168	20.693	859.700	652.789
322.183	20.726	859.293	652.548
323.197	20.924	858.629	652.728
324.212	20.820	857.870	651.703
325.227	20.726	857.488	651.004
326.241	20.859	856.765	650.894
327.256	20.726	856.366	650.037
328.270	20.789	855.548	649.593
329.285	20.759	854.668	648.756
330.300	20.664	854.454	648.181
331.314	20.757	854.007	648.135
332.329	20.943	853.850	648.648
333.343	20.930	853.533	648.301
334.358	21.088	853.090	648.497
335.373	20.975	852.703	647.722
336.387	21.230	852.076	648.137
337.402	21.280	852.407	648.517
338.416	21.478	851.795	648.727
339.431	21.478	851.683	648.587
340.446	21.585	851.427	648.729
341.460	21.539	850.842	648.056
342.475	21.605	850.379	647.891
343.489	21.707	849.769	647.747
344.504	21.846	849.517	648.010
345.519	21.892	849.198	647.880
346.533	21.758	848.117	646.503
347.548	21.461	847.772	645.086
348.562	21.305	846.995	643.865
349.577	21.088	846.306	642.485
350.592	20.998	845.581	641.548
351.606	20.968	845.094	641.010
352.621	21.149	844.088	640.855
353.635	21.142	843.584	640.389
354.650	21.204	843.101	640.193
355.665	21.395	842.665	640.506
356.679	21.444	841.899	640.047
357.694	21.520	840.779	639.415
358.708	21.553	840.330	639.139
359.723	21.428	840.064	638.425
360.738	21.331	839.583	637.646
361.752	21.440	838.927	637.490
362.767	21.654	838.528	637.911
363.781	21.842	837.945	638.094
364.796	21.989	837.784	638.448
365.810	22.021	837.566	638.343
366.825	22.162	837.264	638.570
367.840	21.878	836.479	636.884
368.854	21.871	835.580	636.117
369.869	21.726	835.349	635.360
370.883	21.747	834.928	635.059
371.898	21.988	834.844	635.809
372.913	21.901	834.328	635.047
373.927	21.883	833.704	634.453
374.942	21.934	833.190	634.189
375.956	22.117	832.704	634.422
376.971	22.161	832.350	634.255
377.986	22.370	831.816	634.544
379.000	22.290	831.387	633.876
380.015	22.192	830.864	633.065
381.029	22.193	830.089	632.423
382.044	22.367	829.572	632.599
383.059	22.297	829.190	632.001
384.073	22.175	828.198	630.750
385.088	21.880	827.454	629.070
386.102	21.833	826.703	628.275
387.117	21.765	826.421	627.763
388.132	21.900	825.595	627.563
389.146	21.998	825.022	627.422
390.161	22.113	824.948	627.722
391.175	22.171	824.526	627.551
392.190	22.028	823.852	626.474
393.205	21.967	823.269	625.755
394.219	21.798	823.129	624.990
395.234	21.800	822.385	624.378
396.248	21.577	821.741	623.042
397.263	21.581	821.377	622.725
398.278	21.595	820.988	622.424
399.292	21.673	820.616	622.364
400.307	21.642	819.938	621.685
401.321	21.623	819.269	621.055
402.336	21.817	819.143	621.592
403.350	21.887	818.603	621.377
404.365	21.969	818.644	621.643
405.380	22.241	818.226	622.233
406.394	22.177	818.292	622.002
407.409	22.429	817.407	622.162
408.423	22.426	817.168	621.917
409.438	22.453	817.079	621.889
410.453	22.612	816.402	621.878
411.467	22.572	815.995	621.374
412.482	22.637	815.512	621.181
413.496	22.782	815.360	621.521
414.511	22.634	814.510	620.295
415.526	22.551	814.154	619.679
416.540	22.713	813.483	619.683
417.555	22.572	813.448	619.103
418.569	22.615	812.745	618.667
419.584	22.522	812.513	618.109
420.599	22.733	811.713	618.183
421.613	163.880	1371.362	1794.989
422.628	142.772	1452.914	1795.088
