DTS Sentinel unit serial number:	SN413079Multiplexer serial number:	ORYXHardware model number:	OX4-SRSoftware version number:	ORYX F/W v4.00 Oryx Data Collector v3.7.2.0data status	okinstallation	princeton_trtdifferential loss correction	single-endedforward channel	channel 1reverse channel	N/Adate	2019/09/15time	01:50:35forward acquisition time	60.00reverse acquisition time	0.00gamma	496.2192k internal	0.2321k external	0.2321temperature offset calibration	0.9980default loss term (dB/km)	0.3790temperature slope calibration	1.0000multiplexer offset coefficient	1.0000multiplexer slope coefficient	1.0000fibre end	0.00T internal ref (°C)	31.77T ext. ref 1 (°C)	4.51T ext. ref 2 (°C)	26.70length (m)	temperature (°C)	Stokes	anti-Stokes-747.200	800.000	-0.089	0.296
-746.185	800.000	-0.036	0.128
-745.171	-2.456	-0.049	0.035
-744.156	-48.135	0.188	-0.092
-743.142	-200.000	0.004	0.508
-742.127	-73.760	-0.195	-0.072
-741.112	-200.000	0.028	0.131
-740.098	-30.146	-0.153	-0.088
-739.083	-147.061	-0.169	0.015
-738.069	-177.997	0.238	0.006
-737.054	-200.000	0.050	-0.237
-736.039	158.882	-0.211	-0.297
-735.025	-85.450	-0.253	-0.080
-734.010	308.890	-0.101	0.191
-732.996	-200.000	-0.008	-0.183
-731.981	-154.498	0.278	-0.019
-730.966	-200.000	-0.002	0.330
-729.952	-79.081	-0.192	0.066
-728.937	145.997	-0.328	-0.444
-727.923	-90.701	-0.338	0.099
-726.908	800.000	0.142	-0.408
-725.894	-33.423	-0.146	-0.081
-724.879	209.439	-0.160	0.254
-723.864	-49.028	0.238	0.115
-722.850	-130.461	-0.136	0.019
-721.835	800.000	0.023	0.071
-720.821	-189.864	-0.211	0.002
-719.806	-40.832	0.265	-0.139
-718.791	800.000	0.044	-0.168
-717.777	-200.000	0.026	0.482
-716.762	-29.044	-0.033	0.019
-715.748	145.828	0.088	0.119
-714.733	-62.838	-0.364	-0.152
-713.718	-87.413	0.237	0.072
-712.704	-200.000	0.029	0.149
-711.689	202.801	-0.040	-0.062
-710.675	34.189	0.075	0.066
-709.660	-200.000	-0.022	0.104
-708.645	800.000	-0.021	-0.063
-707.631	43.726	0.055	-0.051
-706.616	-132.763	0.190	0.025
-705.602	205.729	-0.135	-0.212
-704.587	-8.367	0.176	0.120
-703.572	557.851	-0.041	-0.099
-702.558	-200.000	0.013	0.225
-701.543	484.059	-0.108	0.247
-700.529	-122.641	-0.168	0.028
-699.514	-176.951	0.260	-0.007
-698.499	-71.198	-0.400	0.152
-697.485	-200.000	-0.006	-0.166
-696.470	-200.000	-0.011	-0.104
-695.456	314.718	-0.113	0.215
-694.441	-134.061	0.078	0.010
-693.426	800.000	0.075	0.246
-692.412	-103.543	0.113	-0.027
-691.397	-82.301	-0.503	-0.165
-690.383	6.564	-0.288	-0.216
-689.368	-89.111	-0.208	0.062
-688.354	-8.812	-0.296	0.200
-687.339	139.336	-0.226	-0.300
-686.324	55.275	0.138	-0.135
-685.310	-200.000	0.019	-0.373
-684.295	-200.000	-0.006	-0.149
-683.281	-164.801	-0.352	-0.016
-682.266	236.825	-0.225	0.376
-681.251	-146.095	0.133	-0.012
-680.237	333.356	0.036	0.070
-679.222	-105.871	-0.168	0.038
-678.208	122.500	0.202	0.254
-677.193	203.926	0.005	-0.008
-676.178	81.544	-0.094	0.102
-675.164	-52.520	-0.354	0.165
-674.149	404.528	0.105	-0.223
-673.135	-200.000	-0.015	-0.182
-672.120	62.067	-0.074	-0.074
-671.105	800.000	-0.037	-0.153
-670.091	40.169	0.032	0.029
-669.076	139.728	-0.154	0.204
-668.062	-200.000	-0.037	-0.353
-667.047	-200.000	0.025	0.342
-666.032	-69.253	-0.350	-0.135
-665.018	-200.000	0.035	0.229
-664.003	510.910	0.068	0.159
-662.989	103.195	0.198	0.234
-661.974	467.326	-0.045	-0.103
-660.959	756.786	0.096	-0.261
-659.945	800.000	-0.091	-0.268
-658.930	800.000	-0.100	-0.282
-657.916	-7.278	0.138	-0.094
-656.901	71.256	0.101	-0.106
-655.886	800.000	-0.061	-0.192
-654.872	60.553	-0.164	-0.164
-653.857	-200.000	0.019	-0.141
-652.843	800.000	0.021	-0.065
-651.828	800.000	-0.058	-0.190
-650.814	800.000	0.045	-0.158
-649.799	-114.125	-0.258	-0.050
-648.784	75.266	0.157	0.167
-647.770	387.318	0.051	0.105
-646.755	-192.970	0.221	0.002
-645.741	44.211	0.225	0.208
-644.726	347.183	-0.107	-0.213
-643.711	61.897	0.023	0.023
-642.697	211.861	0.029	-0.046
-641.682	-200.000	-0.014	-0.217
-640.668	800.000	-0.016	0.070
-639.653	-5.671	-0.314	-0.217
-638.638	-200.000	0.012	0.065
-637.624	800.000	-0.022	0.064
-636.609	-200.000	-0.004	-0.100
-635.595	35.205	0.086	-0.076
-634.580	-33.563	0.400	-0.223
-633.565	-88.241	-0.050	0.015
-632.551	-88.637	-0.134	-0.040
-631.536	-200.000	0.161	-0.000
-630.522	65.670	0.174	-0.177
-629.507	-64.817	-0.038	-0.016
-628.492	800.000	-0.062	-0.187
-627.478	22.533	-0.073	0.060
-626.463	-163.535	-0.182	0.009
-625.449	124.544	0.177	-0.224
-624.434	800.000	0.034	0.113
-623.419	-75.052	-0.334	-0.120
-622.405	-200.000	0.066	0.323
-621.390	128.671	0.184	0.235
-620.376	81.752	0.108	0.118
-619.361	5.807	-0.130	-0.097
-618.346	597.969	0.028	-0.070
-617.332	-159.867	-0.229	0.013
-616.317	-200.000	-0.094	0.000
-615.303	91.737	-0.079	-0.089
-614.288	800.000	-0.078	0.245
-613.273	-200.000	-0.078	-0.432
-612.259	95.848	0.230	-0.264
-611.244	4.078	-0.152	-0.112
-610.230	-108.163	0.154	0.033
-609.215	-152.572	-0.130	-0.009
-608.201	-200.000	-0.039	-0.187
-607.186	-200.000	0.007	-0.277
-606.171	-129.505	-0.120	0.017
-605.157	332.799	0.173	0.335
-604.142	209.239	0.137	-0.215
-603.128	195.525	0.121	-0.185
-602.113	202.803	-0.104	0.161
-601.098	800.000	0.059	0.174
-600.084	47.961	-0.089	-0.084
-599.069	-200.000	0.058	-0.309
-598.055	-134.796	0.139	-0.017
-597.040	-78.098	0.240	0.083
-596.025	-180.418	-0.238	0.005
-595.011	-200.000	0.003	0.179
-593.996	264.583	-0.098	-0.172
-592.982	800.000	-0.047	-0.141
-591.967	66.717	-0.222	0.226
-590.952	108.296	0.081	-0.097
-589.938	154.932	0.261	-0.360
-588.923	-136.541	-0.181	0.021
-587.909	173.384	0.100	-0.145
-586.894	690.565	0.106	0.280
-585.879	52.794	0.208	0.199
-584.865	49.116	0.194	0.183
-583.850	-33.576	0.226	0.125
-582.836	-71.808	-0.354	-0.133
-581.821	-200.000	-0.006	-0.194
-580.806	-15.445	0.107	-0.069
-579.792	342.587	0.092	0.181
-578.777	-47.453	-0.023	-0.011
-577.763	19.467	-0.157	-0.127
-576.748	800.000	-0.163	-0.523
-575.733	2.788	0.153	-0.112
-574.719	-129.234	-0.283	-0.040
-573.704	211.104	0.046	0.073
-572.690	-92.792	-0.119	0.033
-571.675	2.088	-0.199	0.144
-570.661	-76.150	0.445	-0.158
-569.646	-111.178	-0.402	0.083
-568.631	349.004	0.132	-0.261
-567.617	800.000	-0.028	-0.111
-566.602	48.123	-0.298	0.280
-565.588	10.152	-0.348	0.266
-564.573	-132.844	0.110	0.014
-563.558	439.579	-0.119	-0.260
-562.544	-52.738	-0.290	0.134
-561.529	800.000	0.119	0.354
-560.515	800.000	-0.046	-0.129
-559.500	299.665	-0.122	-0.225
-558.485	233.257	-0.170	-0.281
-557.471	-140.130	-0.485	0.051
-556.456	-200.000	-0.184	-0.000
-555.442	106.133	-0.119	-0.141
-554.427	-38.743	-0.239	0.126
-553.412	-66.754	0.313	-0.124
-552.398	106.502	-0.130	-0.155
-551.383	-45.888	-0.309	0.153
-550.369	159.435	-0.119	0.167
-549.354	-200.000	0.074	-0.353
-548.339	-86.860	0.153	-0.047
-547.325	51.715	0.089	0.085
-546.310	-200.000	0.051	0.351
-545.296	110.841	0.286	0.345
-544.281	85.881	-0.186	0.205
-543.266	-200.000	0.041	-0.439
-542.252	-100.486	-0.292	0.073
-541.237	-81.213	-0.243	-0.080
-540.223	-142.356	0.250	0.025
-539.208	5.718	0.162	-0.120
-538.193	-52.609	-0.317	0.147
-537.179	-114.849	-0.258	-0.049
-536.164	-63.196	0.135	0.056
-535.150	201.785	0.055	-0.084
-534.135	-105.926	-0.192	0.043
-533.121	-141.979	0.548	-0.055
-532.106	-22.680	0.107	-0.065
-531.091	-131.511	0.347	-0.046
-530.077	-153.677	0.200	-0.014
-529.062	-200.000	0.002	-0.020
-528.048	-200.000	-0.029	0.382
-527.033	193.320	0.186	0.281
-526.018	800.000	0.097	0.378
-525.004	284.440	-0.024	0.043
-523.989	99.320	-0.126	0.146
-522.975	-80.431	-0.245	-0.082
-521.960	92.377	-0.099	-0.112
-520.945	-42.034	-0.339	0.174
-519.931	-163.902	0.215	-0.010
-518.916	-122.631	-0.417	0.068
-517.902	800.000	-0.075	-0.275
-516.887	246.018	0.138	-0.232
-515.872	106.012	-0.067	-0.079
-514.858	234.664	-0.145	0.240
-513.843	-8.788	0.188	0.126
-512.829	11.435	0.113	-0.087
-511.814	-76.625	-0.050	0.018
-510.799	-1.994	0.099	0.070
-509.785	-124.472	-0.074	0.011
-508.770	523.221	0.023	-0.053
-507.756	-111.678	0.176	-0.036
-506.741	-155.492	-0.245	-0.016
-505.726	800.000	0.169	0.521
-504.712	124.678	0.105	-0.132
-503.697	-22.983	-0.182	-0.110
-502.683	-40.443	-0.151	-0.079
-501.668	624.259	0.056	-0.142
-500.653	-50.687	0.093	-0.044
-499.639	598.899	0.041	0.101
-498.624	-56.764	0.359	-0.159
-497.610	-63.716	0.353	0.145
-496.595	390.704	-0.118	-0.245
-495.581	-137.209	-0.369	-0.042
-494.566	60.839	-0.032	0.032
-493.551	800.000	-0.073	-0.212
-492.537	-20.556	0.186	0.114
-491.522	12.899	-0.094	-0.073
-490.508	40.250	-0.214	0.192
-489.493	-84.144	0.180	-0.057
-488.478	258.304	-0.128	-0.220
-487.464	32.983	-0.171	-0.149
-486.449	800.000	0.084	-0.247
-485.435	-92.883	-0.271	0.076
-484.420	-106.653	-0.315	0.070
-483.405	21.716	-0.184	0.150
-482.391	36.093	0.238	0.209
-481.376	-200.000	0.003	0.216
-480.362	9.309	0.177	0.134
-479.347	-57.538	-0.047	-0.021
-478.332	-79.711	0.141	0.047
-477.318	-96.762	-0.080	-0.021
-476.303	-115.306	0.158	-0.030
-475.289	-73.287	-0.147	-0.054
-474.274	629.201	0.074	0.187
-473.259	36.188	-0.136	0.120
-472.245	230.665	0.151	0.248
-471.230	62.606	0.173	0.173
-470.216	800.000	-0.117	-0.326
-469.201	-176.105	0.281	-0.007
-468.186	502.293	0.134	-0.309
-467.172	800.000	0.046	-0.146
-466.157	-200.000	-0.025	0.209
-465.143	200.941	-0.074	-0.113
-464.128	-127.616	0.248	-0.036
-463.113	-64.943	-0.077	0.031
-462.099	-91.591	-0.316	-0.090
-461.084	-12.234	-0.195	-0.128
-460.070	-61.030	-0.252	-0.106
-459.055	-200.000	-0.009	-0.208
-458.040	-33.082	0.186	-0.103
-457.026	-62.819	0.179	-0.074
-456.011	42.203	0.062	-0.056
-454.997	268.256	-0.122	0.214
-453.982	-200.000	-0.042	0.281
-452.968	228.801	0.142	0.231
-451.953	-200.000	-0.018	-0.125
-450.938	-69.271	0.410	-0.158
-449.924	-129.366	0.329	-0.046
-448.909	-98.375	-0.189	0.048
-447.895	19.763	-0.034	0.027
-446.880	192.783	0.142	-0.214
-445.865	171.236	0.067	-0.097
-444.851	32.783	-0.114	0.099
-443.836	-34.497	-0.135	-0.074
-442.822	-159.445	0.306	-0.017
-441.807	-53.045	0.120	0.055
-440.792	-33.748	-0.139	0.077
-439.778	-200.000	0.005	-0.023
-438.763	130.043	-0.244	0.312
-437.749	-27.403	-0.192	-0.111
-436.734	-98.290	-0.208	-0.053
-435.719	-200.000	0.012	-0.079
-434.705	13.360	-0.157	-0.121
-433.690	800.000	-0.030	-0.115
-432.676	-200.000	0.071	0.361
-431.661	-133.157	-0.150	-0.019
-430.646	78.061	0.217	-0.231
-429.632	-103.907	-0.339	-0.079
-428.617	-128.457	-0.265	-0.038
-427.603	-200.000	-0.012	-0.308
-426.588	72.985	-0.105	-0.110
-425.573	1.070	0.171	0.122
-424.559	-24.798	0.203	-0.121
-423.544	800.000	-0.012	-0.043
-422.530	-131.949	-0.154	-0.020
-421.515	-97.516	-0.123	-0.032
-420.500	148.550	0.111	-0.150
-419.486	-72.985	-0.135	-0.049
-418.471	78.324	-0.099	0.106
-417.457	800.000	0.025	0.100
-416.442	800.000	0.023	0.078
-415.428	242.425	-0.104	0.174
-414.413	375.471	-0.105	-0.213
-413.398	-21.580	0.268	0.163
-412.384	-7.909	-0.219	0.148
-411.369	-159.844	0.481	0.026
-410.355	-200.000	0.033	0.417
-409.340	-62.900	0.346	-0.143
-408.325	-45.423	0.236	-0.117
-407.311	-24.723	-0.157	0.093
-406.296	-200.000	-0.003	-0.252
-405.282	-200.000	0.017	0.102
-404.267	161.727	-0.181	0.253
-403.252	-200.000	-0.010	-0.093
-402.238	-200.000	0.041	-0.205
-401.223	336.239	0.082	-0.158
-400.209	-7.569	0.215	0.145
-399.194	-160.636	0.429	0.023
-398.179	-139.527	-0.062	-0.007
-397.165	-200.000	-0.042	0.367
-396.150	340.537	0.090	-0.176
-395.136	-37.581	-0.151	-0.080
-394.121	-3.482	-0.201	0.140
-393.106	130.210	-0.057	0.072
-392.092	-200.000	-0.012	-0.310
-391.077	218.212	-0.142	0.225
-390.063	800.000	0.066	0.218
-389.048	-95.576	-0.122	0.032
-388.033	94.605	-0.157	-0.178
-387.019	-55.251	-0.308	0.138
-386.004	191.340	-0.082	0.124
-384.990	129.540	0.122	-0.155
-383.975	97.628	0.056	-0.064
-382.960	220.456	-0.134	0.214
-381.946	-33.359	0.480	-0.265
-380.931	297.826	0.011	0.020
-379.917	80.305	-0.217	0.233
-378.902	-44.479	-0.202	0.101
-377.888	20.783	0.077	0.062
-376.873	800.000	0.089	0.386
-375.858	-200.000	-0.039	0.308
-374.844	800.000	0.050	0.209
-373.829	-154.028	-0.182	0.012
-372.815	-135.296	0.228	-0.027
-371.800	-42.803	-0.214	0.108
-370.785	613.556	0.082	0.205
-369.771	272.917	-0.082	0.144
-368.756	111.245	-0.210	0.252
-367.742	-158.792	0.247	-0.014
-366.727	-9.904	-0.226	-0.150
-365.712	386.202	-0.059	-0.121
-364.698	207.842	-0.043	0.066
-363.683	-72.243	-0.068	-0.025
-362.669	104.671	-0.168	0.198
-361.654	-88.526	0.330	0.098
-360.639	-104.360	0.286	0.066
-359.625	-155.923	0.449	0.028
-358.610	-200.000	-0.095	-0.435
-357.596	34.805	-0.028	0.024
-356.581	-103.439	-0.351	-0.082
-355.566	-104.615	0.064	0.015
-354.552	37.168	0.220	-0.194
-353.537	174.618	-0.103	0.149
-352.523	430.515	0.070	-0.150
-351.508	-112.392	0.124	-0.025
-350.493	148.245	-0.085	0.114
-349.479	-200.000	0.012	0.086
-348.464	44.174	-0.136	-0.124
-347.450	-130.931	0.338	0.045
-346.435	395.546	0.046	0.096
-345.420	-149.216	0.102	-0.008
-344.406	800.000	0.061	0.185
-343.391	-38.648	-0.410	-0.216
-342.377	-96.817	-0.156	0.041
-341.362	-97.104	-0.191	0.050
-340.348	350.154	-0.083	0.163
-339.333	-50.371	-0.289	0.136
-338.318	21.410	-0.144	0.117
-337.304	800.000	-0.024	-0.098
-336.289	85.641	0.055	0.060
-335.275	800.000	-0.051	-0.216
-334.260	285.027	-0.086	-0.154
-333.245	-140.588	0.118	0.012
-332.231	-200.000	-0.025	0.124
-331.216	-150.278	0.238	-0.018
-330.202	251.007	0.157	0.266
-329.187	64.020	0.046	-0.046
-328.172	-200.000	0.008	0.292
-327.158	-200.000	-0.037	-0.163
-326.143	-200.000	-0.001	0.409
-325.129	-8.726	0.142	0.095
-324.114	-97.792	0.249	0.064
-323.099	121.217	-0.120	-0.149
-322.085	-113.480	0.211	0.041
-321.070	97.067	0.117	-0.133
-320.056	9.052	0.189	0.142
-319.041	-200.000	0.026	0.130
-318.026	63.158	-0.133	0.133
-317.012	-11.705	-0.342	-0.224
-315.997	244.263	0.134	-0.224
-314.983	-30.925	0.099	0.055
-313.968	71.716	0.169	-0.175
-312.953	-200.000	0.073	-0.376
-311.939	-96.504	0.249	0.065
-310.924	-107.989	0.143	-0.031
-309.910	-52.268	0.056	-0.026
-308.895	-45.448	-0.098	0.048
-307.880	-46.998	0.171	0.083
-306.866	-70.503	0.210	0.079
-305.851	-200.000	-0.046	0.447
-304.837	-89.994	-0.204	-0.059
-303.822	623.185	0.071	0.178
-302.807	-108.703	0.202	-0.043
-301.793	-160.933	-0.036	-0.002
-300.778	-200.000	-0.004	-0.090
-299.764	62.832	-0.184	-0.183
-298.749	-200.000	0.035	-0.195
-297.735	-200.000	-0.001	-0.178
-296.720	98.015	0.261	0.298
-295.705	205.479	0.131	-0.202
-294.691	170.469	0.216	0.307
-293.676	85.238	-0.284	-0.309
-292.662	-200.000	-0.025	-0.127
-291.647	264.123	0.180	-0.311
-290.632	763.315	0.016	-0.044
-289.618	57.287	-0.378	-0.367
-288.603	-200.000	-0.060	0.000
-287.589	-74.292	0.367	-0.132
-286.574	117.665	0.115	0.141
-285.559	117.989	-0.115	-0.140
-284.545	404.734	-0.070	0.147
-283.530	725.362	-0.100	-0.265
-282.516	-200.000	0.078	0.360
-281.501	-200.000	0.004	-0.393
-280.486	-14.268	0.173	-0.110
-279.472	-200.000	0.069	0.313
-278.457	44.752	-0.304	0.278
-277.443	800.000	-0.060	-0.228
-276.428	183.711	-0.247	-0.362
-275.413	-113.990	-0.105	0.020
-274.399	-90.664	-0.222	0.064
-273.384	159.766	0.176	0.243
-272.370	-200.000	0.004	0.208
-271.355	195.414	-0.055	0.083
-270.340	-200.000	-0.041	0.351
-269.326	272.561	0.020	0.036
-268.311	716.541	0.120	-0.316
-267.297	-200.000	0.003	0.184
-266.282	-164.734	0.273	0.012
-265.267	-13.951	0.183	-0.117
-264.253	-2.631	-0.061	0.043
-263.238	-200.000	-0.045	0.359
-262.224	-31.220	-0.126	0.071
-261.209	-200.000	-0.036	0.218
-260.195	-24.026	0.169	0.100
-259.180	800.000	-0.062	0.222
-258.165	230.379	-0.131	-0.212
-257.151	800.000	0.061	0.170
-256.136	-92.329	0.151	0.042
-255.122	292.905	-0.092	-0.166
-254.107	-200.000	0.000	-0.098
-253.092	205.360	0.294	0.453
-252.078	280.160	0.118	0.209
-251.063	-13.069	-0.235	0.152
-250.049	-36.404	-0.256	-0.136
-249.034	218.603	-0.207	-0.327
-248.019	-45.105	0.065	-0.032
-247.005	227.824	0.136	-0.219
-245.990	-70.130	0.117	0.044
-244.976	243.006	-0.124	0.206
-243.961	248.397	0.206	0.346
-242.946	800.000	0.083	0.227
-241.932	-200.000	-0.005	0.182
-240.917	-123.058	-0.080	0.013
-239.903	-200.000	0.002	-0.374
-238.888	159.227	0.333	-0.458
-237.873	-114.914	0.081	-0.015
-236.859	-36.723	-0.273	-0.146
-235.844	306.074	0.023	0.042
-234.830	392.742	-0.035	-0.072
-233.815	800.000	-0.096	-0.294
-232.800	5.659	-0.342	0.250
-231.786	340.102	-0.119	-0.229
-230.771	-56.577	0.281	0.124
-229.757	-93.211	0.160	0.044
-228.742	-114.051	0.305	-0.058
-227.727	-49.982	0.136	0.064
-226.713	-80.474	0.124	-0.041
-225.698	253.196	-0.087	-0.147
-224.684	17.955	-0.148	0.117
-223.669	-200.000	0.112	-0.551
-222.655	-8.187	-0.410	-0.274
-221.640	-53.646	0.512	-0.232
-220.625	311.032	-0.181	0.336
-219.611	-130.201	-0.410	-0.055
-218.596	800.000	-0.077	0.320
-217.582	4.104	0.062	0.045
-216.567	106.908	0.213	-0.250
-215.552	-28.716	0.142	-0.081
-214.538	71.986	-0.209	0.215
-213.523	234.292	-0.257	0.420
-212.509	-200.000	0.024	-0.217
-211.494	-200.000	-0.065	0.294
-210.479	-131.636	0.257	-0.033
-209.465	-48.063	0.252	0.121
-208.450	217.041	0.076	0.121
-207.436	88.958	0.065	0.072
-206.421	-59.523	-0.087	0.037
-205.406	800.000	-0.079	0.273
-204.392	-123.225	-0.212	0.034
-203.377	-132.027	0.300	0.039
-202.363	-138.290	-0.230	-0.025
-201.348	76.055	-0.284	0.298
-200.333	-69.716	-0.126	-0.048
-199.319	-200.000	0.017	0.142
-198.304	407.450	-0.028	-0.059
-197.290	22.213	-0.019	0.015
-196.275	307.718	-0.062	0.114
-195.260	-156.626	-0.163	0.010
-194.246	67.008	0.068	-0.068
-193.231	-51.221	0.189	0.088
-192.217	-114.983	0.081	-0.015
-191.202	17.229	0.295	-0.231
-190.187	-180.466	-0.047	-0.001
-189.173	-35.941	0.451	0.241
-188.158	146.110	0.063	0.083
-187.144	-172.754	-0.092	0.003
-186.129	1.564	-0.228	0.162
-185.114	-131.639	-0.057	0.007
-184.100	-31.825	0.135	0.075
-183.085	-21.921	0.101	-0.060
-182.071	-178.724	-0.253	0.006
-181.056	23.916	-0.150	-0.122
-180.042	-200.000	-0.028	0.216
-179.027	351.534	0.079	-0.155
-178.012	336.328	0.094	-0.181
-176.998	-200.000	-0.017	-0.185
-175.983	800.000	-0.028	0.081
-174.969	-173.330	0.268	0.008
-173.954	-114.847	0.259	-0.049
-172.939	-92.214	-0.279	-0.078
-171.925	-200.000	0.021	-0.307
-170.910	-200.000	-0.022	0.178
-169.896	607.246	-0.146	0.360
-168.881	68.021	-0.152	-0.154
-167.866	-19.169	-0.134	0.083
-166.852	189.992	0.188	0.279
-165.837	42.418	0.159	-0.143
-164.823	86.823	0.223	0.243
-163.808	-110.495	0.186	-0.038
-162.793	-200.000	0.054	-0.365
-161.779	-42.895	-0.300	-0.150
-160.764	-200.000	0.002	0.164
-159.750	678.133	-0.052	0.134
-158.735	109.283	0.212	-0.251
-157.720	800.000	-0.064	-0.183
-156.706	539.805	0.040	-0.095
-155.691	219.449	0.162	-0.255
-154.677	162.066	-0.238	-0.330
-153.662	30.184	0.366	-0.309
-152.647	-200.000	0.006	-0.075
-151.633	99.397	-0.218	-0.249
-150.618	157.455	-0.088	0.120
-149.604	26.310	0.169	-0.139
-148.589	628.963	-0.055	-0.137
-147.574	-116.094	-0.216	0.040
-146.560	-95.693	0.249	-0.066
-145.545	-200.000	-0.017	0.216
-144.531	-43.054	-0.036	-0.018
-143.516	283.217	-0.057	0.101
-142.502	201.897	-0.269	-0.410
-141.487	267.655	-0.064	-0.110
-140.472	195.636	0.205	0.307
-139.458	46.260	0.020	-0.018
-138.443	-200.000	-0.037	0.270
-137.429	-114.029	-0.118	-0.023
-136.414	413.083	-0.156	-0.326
-135.399	-74.368	0.463	0.165
-134.385	60.897	0.198	-0.194
-133.370	800.000	0.046	-0.132
-132.356	74.074	-0.060	-0.063
-131.341	-200.000	-0.026	-0.121
-130.326	-113.974	0.297	0.057
-129.312	800.000	-0.068	-0.239
-128.297	-21.423	-0.138	-0.083
-127.283	-5.650	-0.405	-0.274
-126.268	-106.410	-0.042	-0.009
-125.253	-89.895	0.472	0.136
-124.239	-8.928	-0.156	-0.103
-123.224	-151.514	-0.119	0.009
-122.210	16.409	0.165	-0.128
-121.195	222.494	0.040	-0.063
-120.180	-13.166	0.099	0.064
-119.166	-94.396	0.070	0.019
-118.151	-172.032	-0.243	0.008
-117.137	-200.000	0.040	-0.195
-116.122	800.000	0.008	0.027
-115.107	-200.000	-0.007	0.051
-114.093	800.000	0.049	0.192
-113.078	-200.000	-0.033	0.182
-112.064	-35.653	0.275	0.147
-111.049	2.291	0.246	0.176
-110.034	9.763	0.118	-0.089
-109.020	66.061	-0.141	-0.141
-108.005	-200.000	-0.014	-0.095
-106.991	140.483	0.327	0.426
-105.976	-84.660	0.220	0.068
-104.962	-200.000	-0.023	0.158
-103.947	-56.765	-0.139	0.061
-102.932	-120.310	0.092	0.016
-101.918	-200.000	-0.008	0.114
-100.903	157.645	-0.105	-0.144
-99.889	800.000	-0.018	-0.074
-98.874	-200.000	-0.021	0.189
-97.859	22.210	-0.204	-0.164
-96.845	-48.301	-0.329	-0.157
-95.830	-200.000	-0.015	-0.168
-94.816	-167.176	-0.281	-0.011
-93.801	121.654	-0.039	0.048
-92.786	96.844	-0.156	0.176
-91.772	-0.297	-0.224	-0.157
-90.757	-200.000	-0.042	-0.209
-89.743	64.324	0.189	-0.187
-88.728	111.378	0.152	-0.181
-87.713	-120.932	0.366	-0.061
-86.699	38.657	0.078	0.068
-85.684	800.000	0.048	-0.155
-84.670	229.345	-0.141	0.227
-83.655	97.907	-0.124	0.140
-82.640	-200.000	0.004	0.034
-81.626	-84.734	0.293	-0.091
-80.611	-39.479	-0.110	-0.057
-79.597	4.321	0.124	0.089
-78.582	-52.111	-0.121	0.055
-77.567	-200.000	-0.020	0.296
-76.553	-200.000	-0.019	0.302
-75.538	-200.000	-0.009	0.046
-74.524	49.925	-0.076	-0.071
-73.509	-81.868	-0.211	-0.068
-72.494	140.598	0.076	-0.099
-71.480	61.793	-0.110	-0.108
-70.465	144.654	0.022	-0.029
-69.451	-68.841	-0.342	0.130
-68.436	13.973	0.077	0.059
-67.422	-77.212	0.357	-0.122
-66.407	-173.922	0.069	0.002
-65.392	-101.614	-0.315	-0.075
-64.378	800.000	0.053	0.197
-63.363	178.820	0.165	-0.237
-62.349	-200.000	0.003	-0.074
-61.334	168.078	-0.850	-1.190
-60.319	131.096	0.401	0.506
-59.305	664.170	-0.385	-0.976
-58.290	106.046	0.914	1.065
-57.276	800.000	0.484	1.654
-56.261	-200.000	96.290	601.685
-55.246	649.270	1375.763	3463.385
-54.232	198.651	2551.012	3841.590
-53.217	121.209	2138.344	2619.149
-52.203	43.952	1600.127	1442.383
-51.188	35.352	1337.505	1154.146
-50.173	32.173	1295.888	1099.619
-49.159	54.633	1343.016	1273.803
-48.144	56.683	1360.315	1302.356
-47.130	35.582	1318.508	1138.932
-46.115	32.014	1300.754	1102.634
-45.100	31.846	1296.001	1097.581
-44.086	31.695	1293.580	1094.604
-43.071	31.689	1291.050	1092.383
-42.057	31.606	1289.267	1090.348
-41.042	31.657	1287.452	1089.071
-40.027	31.717	1285.557	1087.773
-39.013	31.664	1284.161	1086.238
-37.998	31.737	1282.949	1085.594
-36.984	31.759	1280.799	1083.860
-35.969	31.768	1279.080	1082.410
-34.954	31.775	1277.383	1080.973
-33.940	31.854	1276.350	1080.513
-32.925	31.784	1274.944	1078.877
-31.911	31.737	1273.731	1077.536
-30.896	31.873	1271.512	1076.395
-29.881	31.861	1270.473	1075.403
-28.867	31.887	1268.715	1074.024
-27.852	31.946	1267.675	1073.440
-26.838	31.958	1266.017	1072.060
-25.823	31.994	1264.348	1070.808
-24.809	31.820	1263.540	1069.091
-23.794	31.873	1262.176	1068.199
-22.779	31.925	1260.705	1067.205
-21.765	31.884	1259.833	1066.191
-20.750	31.804	1258.535	1064.596
-19.736	31.836	1256.994	1063.432
-18.721	31.795	1255.839	1062.178
-17.706	31.730	1254.662	1060.773
-16.692	31.667	1254.011	1059.826
-15.677	31.745	1252.738	1059.148
-14.663	31.757	1251.421	1058.061
-13.648	31.737	1250.023	1056.723
-12.633	31.717	1249.711	1056.303
-11.619	31.679	1248.247	1054.810
-10.604	31.750	1247.396	1054.452
-9.590	31.594	1247.327	1053.473
-8.575	31.564	1246.407	1052.487
-7.560	31.630	1245.233	1051.825
-6.546	31.617	1244.149	1050.791
-5.531	31.542	1243.757	1049.997
-4.517	31.637	1242.523	1049.450
-3.502	31.674	1241.824	1049.026
-2.487	31.751	1240.340	1048.159
-1.473	31.663	1236.306	1044.217
-0.458	30.251	1221.569	1023.939
0.556	25.341	1204.438	986.259
1.571	21.700	1209.930	970.538
2.586	20.789	1224.753	977.229
3.600	20.293	1213.724	965.587
4.615	15.494	1143.107	884.115
5.629	7.858	1070.265	789.924
6.644	4.697	1051.069	760.264
7.659	4.508	1048.683	757.547
8.673	4.506	1047.518	756.630
9.688	4.329	1046.690	755.100
10.702	4.622	1044.534	754.901
11.717	8.772	1050.495	779.370
12.731	15.760	1060.228	820.732
13.746	18.626	1062.532	836.435
14.761	17.868	1061.877	832.149
15.775	16.737	1059.926	825.043
16.790	15.718	1057.400	818.050
17.804	14.972	1055.869	813.167
18.819	14.711	1054.963	811.129
19.834	14.592	1053.653	809.471
20.848	14.339	1052.965	807.644
21.863	13.977	1052.237	805.262
22.877	13.972	1051.420	804.541
23.892	13.865	1050.922	803.572
24.907	14.080	1049.424	803.392
25.921	13.969	1048.707	802.237
26.936	13.830	1048.166	801.080
27.950	13.948	1046.448	800.268
28.965	14.116	1044.882	799.807
29.980	14.108	1043.522	798.657
30.994	14.250	1042.301	798.330
32.009	14.284	1041.240	797.610
33.023	14.102	1040.473	796.084
34.038	14.182	1038.968	795.243
35.053	14.090	1038.264	794.192
36.067	14.115	1037.411	793.590
37.082	14.110	1036.606	792.882
38.096	14.089	1036.097	792.320
39.111	14.070	1035.464	791.678
40.126	13.934	1034.076	789.896
41.140	13.849	1032.413	788.154
42.155	13.853	1031.763	787.608
43.169	13.794	1030.741	786.476
44.184	13.760	1029.328	785.169
45.199	13.834	1028.358	784.708
46.213	13.868	1027.063	783.813
47.228	13.899	1026.488	783.451
48.242	14.065	1024.976	783.008
49.257	13.973	1024.376	782.051
50.271	13.991	1023.723	781.567
51.286	14.031	1022.547	780.785
52.301	13.940	1021.580	779.551
53.315	13.847	1020.776	778.436
54.330	13.867	1019.787	777.704
55.344	13.843	1018.992	776.918
56.359	13.993	1017.990	776.786
57.374	13.969	1016.971	775.828
58.388	13.695	1016.409	774.051
59.403	13.747	1015.527	773.552
60.417	13.729	1014.497	772.617
61.432	13.743	1013.573	771.908
62.447	13.628	1013.442	771.205
63.461	13.640	1012.393	770.397
64.476	13.613	1011.146	769.255
65.490	13.733	1010.390	769.165
66.505	13.753	1009.798	768.740
67.520	13.787	1009.610	768.688
68.534	13.756	1008.292	767.473
69.549	13.771	1007.472	766.851
70.563	13.685	1006.959	765.995
71.578	13.551	1006.182	764.716
72.593	13.578	1005.266	764.078
73.607	13.554	1004.735	763.495
74.622	13.675	1003.920	763.365
75.636	13.671	1003.086	762.644
76.651	13.699	1002.483	762.247
77.666	13.633	1002.495	761.888
78.680	13.680	1001.619	761.367
79.695	13.683	1000.970	760.823
80.709	13.772	1000.084	760.490
81.724	13.869	999.758	760.621
82.739	13.865	998.840	759.836
83.753	13.988	998.224	759.859
84.768	14.075	997.279	759.473
85.782	14.134	996.582	759.142
86.797	14.080	995.427	757.948
87.812	14.001	994.827	757.067
88.826	14.020	993.460	756.048
89.841	14.070	992.673	755.607
90.855	14.156	991.862	755.315
91.870	14.086	991.322	754.519
92.884	14.133	990.292	753.878
93.899	14.109	989.742	753.286
94.914	14.254	988.799	753.160
95.928	14.358	987.374	752.477
96.943	14.223	986.454	751.101
97.957	14.161	985.855	750.299
98.972	14.113	985.238	749.543
99.987	14.048	984.494	748.618
101.001	14.022	983.507	747.684
102.016	13.899	983.256	746.874
103.030	14.125	981.950	746.834
104.045	14.164	981.098	746.292
105.060	14.069	980.126	745.060
106.074	13.935	979.363	743.818
107.089	13.962	977.894	742.755
108.103	13.908	977.402	742.074
109.118	13.841	976.698	741.176
110.133	13.748	976.019	740.178
111.147	13.776	975.046	739.502
112.162	13.871	974.067	739.117
113.176	13.880	973.841	738.920
114.191	13.812	972.980	737.897
115.206	13.999	971.550	737.577
116.220	13.958	971.132	737.015
117.235	13.967	969.957	736.098
118.249	13.932	969.481	735.514
119.264	14.005	968.447	734.990
120.279	13.978	967.797	734.313
121.293	13.891	966.785	733.093
122.308	13.695	966.239	731.752
123.322	13.793	965.331	731.432
124.337	13.916	964.031	730.923
125.352	13.845	963.435	730.092
126.366	13.765	962.359	728.861
127.381	13.812	960.973	727.956
128.395	13.749	960.538	727.285
129.410	13.787	959.451	726.561
130.424	13.867	958.975	726.488
131.439	14.025	957.988	726.366
132.454	14.021	957.334	725.787
133.468	14.055	956.380	725.150
134.483	14.004	955.738	724.375
135.497	13.968	954.911	723.531
136.512	14.088	953.670	723.046
137.527	14.088	952.778	722.308
138.541	14.014	952.538	721.740
139.556	14.026	951.781	721.154
140.570	14.027	951.438	720.836
141.585	14.253	950.300	720.887
142.600	14.236	949.359	720.037
143.614	14.305	948.431	719.568
144.629	14.221	947.652	718.548
145.643	14.217	946.725	717.767
146.658	14.156	945.797	716.737
147.673	13.946	944.715	714.951
148.687	13.913	944.543	714.613
149.702	13.930	943.375	713.739
150.716	13.953	942.715	713.275
151.731	14.012	941.899	712.846
152.746	14.019	941.222	712.302
153.760	14.109	940.465	712.050
154.775	14.098	940.003	711.591
155.789	14.195	939.380	711.473
156.804	14.157	938.461	710.551
157.819	14.176	937.844	710.102
158.833	14.340	937.565	710.528
159.848	14.271	936.678	709.497
160.862	14.426	935.448	709.166
161.877	14.144	934.473	707.164
162.892	14.196	933.338	706.462
163.906	14.102	932.492	705.362
164.921	14.176	931.631	704.961
165.935	14.155	931.144	704.443
166.950	14.173	930.605	704.046
167.964	14.112	929.615	702.979
168.979	14.112	928.205	701.849
169.994	14.098	927.572	701.249
171.008	14.241	927.082	701.418
172.023	14.298	926.489	701.150
173.037	14.377	925.692	700.816
174.052	14.387	924.752	700.084
175.067	14.132	924.136	698.486
176.081	14.144	923.561	698.042
177.096	14.207	923.040	697.848
178.110	14.154	922.545	697.190
179.125	14.215	922.049	697.008
180.140	14.384	921.294	697.085
181.154	14.121	921.241	695.882
182.169	14.383	920.429	696.303
183.183	14.359	919.985	695.803
184.198	14.396	919.180	695.287
185.213	14.503	918.564	695.207
186.227	14.487	917.460	694.242
187.242	14.559	917.075	694.189
188.256	14.687	916.224	694.015
189.271	14.610	915.897	693.390
190.286	14.337	915.030	691.536
191.300	14.341	913.787	690.552
192.315	14.112	913.308	689.180
193.329	14.298	912.976	689.638
194.344	14.385	912.363	689.475
195.359	14.419	911.708	689.060
196.373	14.564	910.967	689.039
197.388	14.536	910.771	688.712
198.402	14.717	910.313	689.051
199.417	14.722	909.794	688.620
200.432	14.802	909.262	688.484
201.446	14.978	908.755	688.766
202.461	14.877	908.417	688.033
203.475	14.874	907.947	687.602
204.490	14.775	906.756	686.234
205.504	14.579	906.424	685.117
206.519	14.748	905.349	684.938
207.534	14.687	904.854	684.253
208.548	14.752	904.205	683.966
209.563	14.772	903.351	683.343
210.577	14.773	902.762	682.842
211.592	14.840	902.103	682.556
212.607	14.930	901.530	682.427
213.621	14.879	900.709	681.538
214.636	14.881	899.714	680.734
215.650	14.956	899.292	680.661
216.665	14.963	898.507	680.033
217.680	14.980	898.129	679.754
218.694	15.156	897.378	679.840
219.709	14.911	896.915	678.438
220.723	15.020	896.168	678.253
221.738	14.937	895.282	677.188
222.753	15.098	894.713	677.348
223.767	15.091	894.178	676.857
224.782	15.023	893.920	676.326
225.796	15.315	892.973	676.729
226.811	15.087	892.616	675.478
227.826	15.008	891.777	674.465
228.840	14.983	891.087	673.782
229.855	15.162	890.088	673.685
230.869	15.078	889.443	672.800
231.884	15.039	888.722	672.040
232.899	14.853	888.207	670.843
233.913	14.915	887.300	670.349
234.928	14.871	887.179	670.024
235.942	15.031	885.961	669.682
236.957	14.885	885.845	668.951
237.972	14.983	885.475	669.004
238.986	15.025	884.483	668.366
240.001	15.001	884.141	667.951
241.015	14.844	883.426	666.725
242.030	15.024	882.486	666.674
243.045	15.082	882.190	666.621
244.059	15.056	881.517	665.950
245.074	15.076	881.153	665.696
246.088	15.230	880.033	665.405
247.103	15.248	879.760	665.209
248.117	15.495	879.064	665.603
249.132	15.553	878.667	665.474
250.147	15.638	878.297	665.471
251.161	15.618	877.511	664.736
252.176	15.599	876.834	664.091
253.190	15.596	876.344	663.650
254.205	15.672	875.591	663.319
255.220	15.716	874.936	662.938
256.234	15.682	874.443	662.372
257.249	15.703	873.663	661.807
258.263	15.682	873.075	661.218
259.278	15.682	872.025	660.368
260.293	15.710	871.683	660.159
261.307	15.658	871.296	659.605
262.322	15.778	870.536	659.439
263.336	15.703	870.038	658.712
264.351	15.868	868.720	658.300
265.366	15.938	868.541	658.381
266.380	15.776	867.683	657.037
267.395	15.812	867.176	656.735
268.409	15.822	866.726	656.375
269.424	15.867	865.293	655.407
270.439	15.830	864.842	654.866
271.453	15.828	864.051	654.198
272.468	15.605	864.033	653.263
273.482	15.866	863.381	653.726
274.497	15.766	862.817	652.851
275.512	15.763	862.449	652.505
276.526	15.797	861.483	651.847
277.541	15.811	861.168	651.606
278.555	15.875	860.721	651.459
279.570	16.086	859.749	651.478
280.585	15.920	859.549	650.627
281.599	15.975	858.496	649.985
282.614	15.790	857.835	648.714
283.628	15.932	857.242	648.755
284.643	15.849	856.616	647.904
285.657	15.960	855.685	647.570
286.672	16.035	855.371	647.566
287.687	15.900	854.836	646.585
288.701	15.976	854.406	646.491
289.716	16.045	853.997	646.390
290.730	16.201	852.872	646.078
291.745	16.098	852.227	645.141
292.760	16.086	852.052	644.903
293.774	16.262	851.248	644.910
294.789	16.209	850.458	644.053
295.803	16.146	849.838	643.286
296.818	16.067	849.097	642.367
297.833	16.110	848.559	642.069
298.847	16.128	848.007	641.663
299.862	16.138	847.252	641.071
300.876	16.342	846.786	641.436
301.891	16.283	846.398	640.863
302.906	16.208	846.231	640.395
303.920	16.237	845.673	640.025
304.935	16.330	845.150	639.924
305.949	16.404	844.309	639.513
306.964	16.313	843.753	638.690
307.979	16.382	843.145	638.436
308.993	16.347	842.646	637.866
310.008	16.406	842.136	637.646
311.022	16.375	841.258	636.809
312.037	16.372	840.588	636.235
313.052	16.267	839.836	635.213
314.066	16.339	839.643	635.282
315.081	16.369	838.823	634.720
316.095	16.368	837.968	634.011
317.110	16.102	838.180	633.118
318.125	16.187	837.944	633.203
319.139	16.286	837.064	632.852
320.154	16.322	836.765	632.706
321.168	16.359	835.937	632.162
322.183	16.387	835.159	631.622
323.197	16.412	834.840	631.420
324.212	16.362	834.478	630.902
325.227	16.467	833.793	630.719
326.241	16.403	832.894	629.745
327.256	16.299	832.773	629.210
328.270	16.522	831.805	629.255
329.285	16.496	831.332	628.743
330.300	16.419	830.850	628.037
331.314	16.545	830.205	627.961
332.329	16.454	830.303	627.643
333.343	16.579	829.334	627.320
334.358	16.663	829.351	627.588
335.373	16.586	828.800	626.829
336.387	16.639	828.417	626.681
337.402	16.740	827.971	626.662
338.416	16.678	828.078	626.457
339.431	16.762	827.698	626.425
340.446	16.955	826.917	626.494
341.460	16.840	826.582	625.759
342.475	16.749	826.507	625.310
343.489	16.998	825.901	625.714
344.504	17.152	825.438	625.875
345.519	16.956	825.122	624.859
346.533	16.911	824.674	624.301
347.548	16.948	823.696	623.639
348.562	16.972	822.944	623.102
349.577	16.877	822.441	622.318
350.592	16.811	821.629	621.406
351.606	16.802	820.877	620.750
352.621	16.688	820.872	620.275
353.635	16.844	819.945	620.087
354.650	16.860	819.639	619.861
355.665	17.058	819.006	620.052
356.679	17.013	818.214	619.234
357.694	17.050	817.270	618.599
358.708	17.001	816.515	617.795
359.723	16.925	816.247	617.259
360.738	17.067	815.621	617.247
361.752	17.197	815.076	617.253
362.767	17.037	815.076	616.618
363.781	17.128	814.338	616.334
364.796	17.287	814.010	616.609
365.810	17.239	813.573	616.051
366.825	17.501	813.002	616.512
367.840	17.547	812.415	616.176
368.854	17.206	812.238	614.755
369.869	17.227	811.958	614.566
370.883	17.324	811.650	614.628
371.898	17.484	810.774	614.488
372.913	17.516	810.233	614.138
373.927	17.450	809.910	613.603
374.942	17.440	809.280	613.033
375.956	17.472	809.194	613.032
376.971	17.543	808.815	612.946
377.986	17.523	808.338	612.458
379.000	17.704	807.413	612.353
380.015	17.505	807.411	611.581
381.029	17.488	806.563	610.825
382.044	17.495	806.109	610.451
383.059	17.610	805.625	610.441
384.073	17.464	805.156	609.510
385.088	17.424	804.512	608.826
386.102	17.540	803.942	608.756
387.117	17.435	803.437	607.943
388.132	17.425	802.844	607.406
389.146	17.509	802.123	607.105
390.161	17.557	802.011	607.138
391.175	17.717	801.028	606.909
392.190	17.610	800.718	606.242
393.205	17.560	800.261	605.663
394.219	17.484	800.354	605.411
395.234	17.524	799.973	605.209
396.248	17.465	799.266	604.413
397.263	17.494	798.854	604.152
398.278	17.284	798.635	603.185
399.292	17.424	798.081	603.211
400.307	17.447	797.556	602.844
401.321	17.374	797.039	602.140
402.336	17.490	796.335	601.964
403.350	17.499	796.224	601.859
404.365	17.635	796.019	602.132
405.380	17.758	795.018	601.756
406.394	17.920	794.710	602.039
407.409	17.808	794.379	601.342
408.423	17.930	793.995	601.429
409.438	17.991	793.338	601.092
410.453	17.929	793.196	600.713
411.467	18.052	792.785	600.780
412.482	17.944	792.403	600.057
413.496	17.997	792.596	600.337
414.511	18.082	791.988	600.123
415.526	18.082	791.218	599.487
416.540	17.952	791.047	598.847
417.555	17.969	790.538	598.467
418.569	18.025	790.007	598.210
419.584	18.011	789.741	597.906
420.599	17.987	789.843	597.847
421.613	156.272	1369.345	1794.292
422.628	135.179	1453.782	1794.394
