DTS Sentinel unit serial number:	SN413079Multiplexer serial number:	ORYXHardware model number:	OX4-SRSoftware version number:	ORYX F/W v4.00 Oryx Data Collector v3.7.2.0data status	okinstallation	princeton_trtdifferential loss correction	single-endedforward channel	channel 1reverse channel	N/Adate	2019/09/16time	05:42:35forward acquisition time	60.00reverse acquisition time	0.00gamma	496.2192k internal	0.2331k external	0.2331temperature offset calibration	0.9982default loss term (dB/km)	0.3790temperature slope calibration	1.0000multiplexer offset coefficient	1.0000multiplexer slope coefficient	1.0000fibre end	0.00T internal ref (°C)	27.34T ext. ref 1 (°C)	11.18T ext. ref 2 (°C)	22.26length (m)	temperature (°C)	Stokes	anti-Stokes-747.200	-128.833	-0.296	0.042
-746.185	89.761	-0.025	-0.028
-745.171	40.127	0.141	0.127
-744.156	-110.147	-0.141	0.030
-743.142	800.000	-0.068	0.216
-742.127	-78.257	-0.390	-0.135
-741.112	609.432	0.022	-0.056
-740.098	767.348	-0.139	0.381
-739.083	321.022	-0.009	-0.018
-738.069	-59.820	-0.063	0.027
-737.054	668.949	0.071	0.186
-736.039	-84.238	-0.347	-0.111
-735.025	12.831	0.095	-0.074
-734.010	-83.380	-0.249	0.080
-732.996	115.748	-0.054	-0.067
-731.981	-45.444	-0.252	-0.126
-730.966	-200.000	-0.020	-0.180
-729.952	6.768	-0.299	-0.224
-728.937	-127.361	-0.280	-0.041
-727.923	35.171	0.190	-0.167
-726.908	-88.886	0.321	-0.096
-725.894	-200.000	-0.058	-0.322
-724.879	-200.000	-0.028	-0.573
-723.864	800.000	0.010	-0.026
-722.850	113.268	0.123	-0.150
-721.835	-79.285	-0.025	0.008
-720.821	800.000	-0.068	-0.223
-719.806	-200.000	-0.029	0.145
-718.791	-96.450	0.427	0.113
-717.777	-135.988	-0.099	0.012
-716.762	-200.000	-0.052	0.495
-715.748	800.000	-0.027	-0.090
-714.733	-184.397	-0.092	-0.002
-713.718	19.638	-0.130	0.105
-712.704	-144.689	0.065	0.006
-711.689	-132.910	-0.237	0.030
-710.675	-80.522	-0.109	-0.037
-709.660	-0.184	-0.136	0.097
-708.645	800.000	-0.036	-0.112
-707.631	32.565	-0.088	-0.077
-706.616	7.279	0.047	-0.035
-705.602	-29.378	-0.084	0.048
-704.587	-200.000	-0.039	0.375
-703.572	800.000	0.073	0.260
-702.558	-120.080	-0.096	0.016
-701.543	-174.237	0.155	-0.005
-700.529	-149.358	0.054	-0.004
-699.514	-200.000	0.041	0.212
-698.499	-69.222	0.220	-0.085
-697.485	-160.648	-0.104	-0.006
-696.470	-69.951	0.242	0.093
-695.456	-170.038	-0.620	-0.022
-694.441	124.529	0.177	-0.224
-693.426	99.699	0.138	-0.160
-692.412	-200.000	0.057	0.478
-691.397	-17.883	0.153	-0.096
-690.383	-131.089	-0.324	0.043
-689.368	-46.918	-0.231	0.113
-688.354	-123.212	-0.321	-0.052
-687.339	90.987	-0.083	-0.094
-686.324	-200.000	0.046	-0.206
-685.310	11.857	0.148	0.115
-684.295	800.000	-0.077	-0.288
-683.281	-134.625	-0.133	0.016
-682.266	-198.049	0.320	0.002
-681.251	543.358	-0.186	0.445
-680.237	40.698	-0.137	-0.124
-679.222	403.123	-0.024	-0.050
-678.208	-200.000	0.030	-0.186
-677.193	-164.188	0.101	0.005
-676.178	-200.000	0.022	0.208
-675.164	161.362	-0.074	0.104
-674.149	-200.000	-0.020	0.360
-673.135	-200.000	0.037	0.000
-672.120	201.717	0.309	-0.477
-671.105	283.233	0.172	-0.310
-670.091	-102.365	0.394	0.095
-669.076	-2.966	0.139	-0.097
-668.062	-15.089	0.191	-0.123
-667.047	-200.000	0.063	0.440
-666.032	-167.278	0.089	-0.004
-665.018	-156.821	-0.379	-0.023
-664.003	-78.659	-0.077	-0.026
-662.989	-20.135	-0.170	-0.105
-661.974	-200.000	-0.005	-0.206
-660.959	-200.000	-0.011	0.314
-659.945	-0.082	-0.115	-0.082
-658.930	58.793	0.090	0.089
-657.916	-24.850	0.071	-0.042
-656.901	800.000	-0.089	-0.311
-655.886	45.250	0.042	0.039
-654.872	170.253	-0.305	0.438
-653.857	-116.788	0.277	-0.051
-652.843	-105.385	-0.479	0.109
-651.828	-51.496	0.149	-0.070
-650.814	122.931	-0.180	0.226
-649.799	-200.000	0.028	0.305
-648.784	760.528	0.052	0.140
-647.770	800.000	0.067	-0.275
-646.755	-200.000	-0.023	-0.335
-645.741	405.130	-0.068	0.144
-644.726	800.000	0.056	0.183
-643.711	58.766	0.098	-0.096
-642.697	41.499	-0.012	0.011
-641.682	800.000	-0.098	-0.293
-640.668	800.000	-0.022	-0.090
-639.653	800.000	0.090	-0.279
-638.638	-104.689	0.304	-0.070
-637.624	-47.533	0.342	-0.167
-636.609	-122.637	0.319	0.052
-635.595	29.600	-0.211	-0.180
-634.580	218.042	0.235	-0.375
-633.565	-162.820	-0.195	-0.010
-632.551	27.756	-0.037	0.032
-631.536	800.000	-0.052	0.160
-630.522	38.204	-0.090	0.080
-629.507	800.000	0.081	0.295
-628.492	-200.000	0.065	-0.289
-627.478	-82.925	0.277	-0.089
-626.463	713.073	-0.110	-0.292
-625.449	112.513	0.118	0.143
-624.434	-60.664	-0.089	0.038
-623.419	153.169	0.102	-0.140
-622.405	-130.926	0.491	-0.066
-621.390	-43.226	-0.377	-0.191
-620.376	481.442	0.027	-0.062
-619.361	61.136	-0.313	-0.311
-618.346	-200.000	0.139	-0.660
-617.332	-70.984	-0.125	-0.047
-616.317	-200.000	-0.546	-0.002
-615.303	800.000	-0.050	-0.184
-614.288	-200.000	-0.003	0.191
-613.273	261.690	-0.097	0.168
-612.259	-73.078	0.261	0.096
-611.244	-41.467	-0.458	-0.236
-610.230	-200.000	0.000	-0.008
-609.215	-153.767	-0.195	-0.013
-608.201	76.045	0.252	0.267
-607.186	-14.635	0.127	0.081
-606.171	-200.000	0.006	-0.087
-605.157	-200.000	0.014	0.172
-604.142	-112.376	-0.095	-0.019
-603.128	-200.000	-0.002	-0.198
-602.113	42.740	0.182	0.166
-601.098	-107.820	-0.310	0.068
-600.084	202.628	0.132	-0.204
-599.069	800.000	-0.053	-0.173
-598.055	-58.100	-0.198	0.086
-597.040	800.000	0.085	-0.365
-596.025	-6.890	-0.186	-0.127
-595.011	800.000	0.115	0.358
-593.996	162.243	-0.201	0.282
-592.982	-14.460	-0.107	0.069
-591.967	25.181	-0.351	0.291
-590.952	-28.932	0.121	-0.069
-589.938	-122.680	-0.387	0.063
-588.923	800.000	-0.108	-0.304
-587.909	251.480	0.027	-0.047
-586.894	132.198	0.156	0.201
-585.879	-189.073	0.143	-0.002
-584.865	11.731	0.139	-0.107
-583.850	70.174	-0.149	0.154
-582.836	89.663	-0.171	0.191
-581.821	136.710	0.125	-0.164
-580.806	-131.475	-0.167	-0.022
-579.792	-76.751	-0.166	0.058
-578.777	30.685	-0.120	0.103
-577.763	-200.000	0.031	0.206
-576.748	88.467	0.125	-0.139
-575.733	-200.000	0.034	0.252
-574.719	-71.346	0.092	-0.034
-573.704	-101.691	0.256	-0.062
-572.690	-155.885	0.236	-0.015
-571.675	-117.782	-0.273	0.049
-570.661	594.190	0.031	0.077
-569.646	-86.422	0.297	-0.091
-568.631	-113.057	-0.337	-0.067
-567.617	-200.000	-0.055	0.278
-566.602	-27.715	-0.359	0.208
-565.588	-200.000	-0.002	-0.142
-564.573	549.542	-0.088	-0.211
-563.558	-29.848	0.163	-0.093
-562.544	-128.507	-0.084	-0.012
-561.529	-26.442	-0.092	0.054
-560.515	-200.000	0.050	0.309
-559.500	-63.697	-0.213	0.087
-558.485	-127.137	-0.223	-0.033
-557.471	-200.000	0.021	0.109
-556.456	151.504	0.222	-0.303
-555.442	103.858	0.186	-0.218
-554.427	-57.855	-0.426	0.186
-553.412	144.788	0.224	-0.299
-552.398	-200.000	0.008	-0.051
-551.383	109.748	0.140	0.168
-550.369	9.225	-0.186	0.140
-549.354	34.327	0.150	0.130
-548.339	-131.789	0.168	-0.022
-547.325	-85.664	-0.030	-0.009
-546.310	-200.000	-0.001	-0.062
-545.296	-152.709	0.446	-0.032
-544.281	747.625	-0.005	-0.014
-543.266	-97.268	-0.268	0.070
-542.252	800.000	-0.032	0.119
-541.237	-200.000	-0.001	0.039
-540.223	-73.179	-0.091	-0.033
-539.208	-200.000	0.010	0.372
-538.193	36.682	0.143	0.126
-537.179	39.981	-0.111	-0.100
-536.164	-133.010	-0.319	-0.040
-535.150	800.000	-0.048	-0.207
-534.135	-29.845	-0.223	-0.127
-533.121	-200.000	-0.033	-0.233
-532.106	298.662	0.072	-0.131
-531.091	-200.000	0.005	0.156
-530.077	-146.307	0.172	-0.015
-529.062	254.379	-0.189	0.322
-528.048	-200.000	0.090	0.452
-527.033	12.196	-0.195	0.150
-526.018	800.000	0.032	0.100
-525.004	-82.419	0.236	0.077
-523.989	-32.944	0.121	-0.067
-522.975	800.000	-0.027	-0.118
-521.960	-74.784	-0.097	-0.035
-520.945	379.025	0.161	-0.330
-519.931	60.476	0.172	0.170
-518.916	-137.329	-0.267	-0.030
-517.902	637.919	0.061	-0.155
-516.887	-166.955	0.173	-0.007
-515.872	-31.167	-0.309	-0.174
-514.858	-90.215	0.015	0.004
-513.843	54.721	0.130	0.125
-512.829	57.321	-0.069	-0.067
-511.814	540.049	-0.129	0.306
-510.799	-49.457	0.103	-0.049
-509.785	-200.000	-0.007	0.054
-508.770	-159.556	-0.133	0.007
-507.756	86.217	-0.130	-0.143
-506.741	139.712	-0.137	-0.180
-505.726	-4.942	-0.452	0.310
-504.712	55.435	-0.221	-0.213
-503.697	350.002	-0.057	-0.113
-502.683	-102.033	-0.184	-0.044
-501.668	121.940	0.011	-0.014
-500.653	800.000	0.060	0.204
-499.639	240.996	-0.231	0.385
-498.624	-139.318	0.160	-0.017
-497.610	800.000	0.060	0.165
-496.595	-39.145	-0.287	0.150
-495.581	-10.977	-0.165	-0.108
-494.566	405.120	-0.054	0.114
-493.551	-78.988	-0.050	-0.017
-492.537	-117.892	-0.244	-0.044
-491.522	-145.234	-0.393	-0.036
-490.508	35.462	-0.199	-0.174
-489.493	-200.000	0.039	0.236
-488.478	201.513	0.164	-0.251
-487.464	199.835	0.082	-0.126
-486.449	-122.063	0.374	0.061
-485.435	800.000	-0.062	-0.262
-484.420	-182.371	-0.149	0.003
-483.405	-200.000	-0.234	0.001
-482.391	28.544	-0.220	-0.185
-481.376	586.455	-0.137	-0.336
-480.362	-9.365	0.227	0.151
-479.347	800.000	0.056	0.170
-478.332	72.449	-0.131	0.136
-477.318	-92.528	0.235	0.066
-476.303	492.598	0.037	-0.084
-475.289	-200.000	-0.007	0.058
-474.274	68.842	0.194	0.198
-473.259	-200.000	0.101	-0.447
-472.245	-5.083	0.251	0.172
-471.230	-188.519	-0.106	0.001
-470.216	77.517	-0.091	-0.097
-469.201	436.544	0.113	-0.245
-468.186	-5.425	-0.088	0.060
-467.172	28.461	-0.185	0.156
-466.157	-94.768	-0.338	-0.091
-465.143	-110.599	0.395	-0.081
-464.128	142.492	-0.028	0.038
-463.113	40.799	0.167	-0.150
-462.099	153.084	0.190	0.258
-461.084	-75.539	0.307	-0.109
-460.070	-122.468	-0.082	-0.013
-459.055	194.650	0.179	-0.270
-458.040	-88.757	0.271	-0.080
-457.026	-54.942	-0.208	0.093
-456.011	506.389	0.155	0.358
-454.997	160.039	0.236	-0.327
-453.982	11.617	-0.033	-0.025
-452.968	10.357	0.217	0.165
-451.953	175.641	-0.150	-0.216
-450.938	19.021	0.118	-0.094
-449.924	610.728	-0.010	-0.026
-448.909	-120.607	-0.175	0.030
-447.895	388.700	-0.027	0.056
-446.880	166.491	0.163	0.229
-445.865	321.157	0.022	0.041
-444.851	-200.000	-0.035	0.276
-443.836	251.321	0.132	-0.224
-442.822	5.635	-0.194	-0.143
-441.807	62.751	0.103	0.102
-440.792	223.247	-0.175	-0.280
-439.778	171.778	0.160	-0.229
-438.763	-142.705	0.172	0.017
-437.749	-200.000	0.014	0.188
-436.734	262.740	-0.065	-0.113
-435.719	80.744	0.201	-0.215
-434.705	-39.610	-0.180	-0.094
-433.690	-200.000	0.002	0.061
-432.676	-62.385	0.248	-0.103
-431.661	26.637	-0.231	0.192
-430.646	-200.000	-0.060	-0.316
-429.632	800.000	-0.055	-0.170
-428.617	126.301	-0.207	0.260
-427.603	749.681	0.041	0.109
-426.588	-200.000	0.009	-0.379
-425.573	226.898	0.109	0.176
-424.559	111.034	-0.093	0.112
-423.544	800.000	-0.057	0.219
-422.530	228.550	-0.209	0.339
-421.515	363.944	0.075	0.150
-420.500	265.456	-0.058	0.101
-419.486	-35.314	0.368	0.199
-418.471	402.520	-0.054	0.112
-417.457	-25.600	0.286	0.168
-416.442	650.423	-0.077	0.195
-415.428	768.955	-0.011	-0.030
-414.413	-161.067	-0.303	-0.016
-413.398	162.928	0.076	-0.106
-412.384	230.651	-0.239	-0.388
-411.369	131.511	0.157	-0.201
-410.355	-78.516	-0.145	0.049
-409.340	-102.190	0.207	0.049
-408.325	-200.000	0.006	0.137
-407.311	-42.120	0.147	-0.075
-406.296	-53.084	-0.120	-0.055
-405.282	-131.981	-0.239	0.031
-404.267	166.756	0.264	-0.372
-403.252	-200.000	-0.008	-0.052
-402.238	89.292	0.104	0.115
-401.223	-152.621	-0.030	-0.002
-400.209	-200.000	0.032	0.254
-399.194	-157.478	-0.081	0.005
-398.179	-76.302	0.092	0.032
-397.165	364.766	0.162	-0.323
-396.150	470.142	0.137	0.306
-395.136	800.000	-0.019	-0.055
-394.121	-6.316	-0.194	0.131
-393.106	-200.000	-0.001	-0.045
-392.092	800.000	-0.104	-0.321
-391.077	-95.046	0.253	-0.068
-390.063	291.885	0.073	0.131
-389.048	800.000	-0.069	-0.234
-388.033	175.048	-0.162	-0.233
-387.019	754.256	-0.057	0.152
-386.004	-200.000	-0.067	-0.328
-384.990	-149.813	-0.293	0.023
-383.975	-96.317	-0.295	0.077
-382.960	-2.071	-0.078	0.054
-381.946	800.000	0.028	0.079
-380.931	83.774	0.157	0.170
-379.917	394.148	-0.127	0.263
-378.902	185.203	-0.175	-0.258
-377.888	-8.648	0.298	0.199
-376.873	-108.160	0.336	0.072
-375.858	-200.000	-0.015	-0.389
-374.844	12.423	-0.187	-0.143
-373.829	-78.878	-0.266	0.090
-372.815	-58.986	0.098	-0.042
-371.800	42.784	0.128	0.116
-370.785	-71.859	-0.158	-0.058
-369.771	800.000	0.010	-0.028
-368.756	-101.527	-0.129	-0.031
-367.742	-172.917	0.179	-0.006
-366.727	-160.750	0.222	0.012
-365.712	-9.898	0.343	-0.226
-364.698	232.081	-0.131	-0.214
-363.683	800.000	-0.051	-0.178
-362.669	-69.302	-0.165	-0.063
-361.654	190.080	-0.163	0.243
-360.639	-43.081	-0.154	-0.077
-359.625	70.610	-0.227	0.232
-358.610	198.583	-0.055	0.083
-357.596	800.000	0.021	-0.087
-356.581	-66.325	0.145	-0.057
-355.566	130.080	0.168	-0.213
-354.552	-62.859	0.331	-0.136
-353.537	800.000	-0.030	-0.087
-352.523	619.014	-0.094	-0.234
-351.508	180.554	-0.069	0.100
-350.493	-200.000	0.030	-0.181
-349.479	404.917	-0.059	-0.124
-348.464	-180.486	-0.279	-0.006
-347.450	277.248	0.200	0.353
-346.435	16.664	-0.220	0.173
-345.420	62.892	0.296	-0.293
-344.406	-56.983	-0.185	0.081
-343.391	-170.286	0.084	0.003
-342.377	-200.000	0.007	-0.194
-341.362	38.645	-0.100	0.088
-340.348	-34.423	-0.175	-0.095
-339.333	73.878	-0.145	0.151
-338.318	83.376	-0.272	0.293
-337.304	519.960	-0.115	0.266
-336.289	-12.649	-0.329	0.213
-335.275	-31.125	0.205	-0.114
-334.260	128.395	0.223	-0.281
-333.245	-44.977	0.166	0.082
-332.231	29.031	0.015	0.012
-331.216	-110.361	0.290	0.060
-330.202	-35.964	0.202	-0.108
-329.187	119.084	0.122	-0.150
-328.172	27.208	-0.011	-0.009
-327.158	-146.252	-0.296	-0.026
-326.143	-200.000	0.039	-0.170
-325.129	-163.237	0.478	0.023
-324.114	-122.130	0.171	0.028
-323.099	550.950	0.096	0.229
-322.085	800.000	-0.046	0.158
-321.070	-149.531	0.631	-0.049
-320.056	-200.000	-0.007	0.161
-319.041	-17.918	0.072	-0.044
-318.026	-4.475	0.301	-0.206
-317.012	-98.561	-0.058	0.015
-315.997	20.014	-0.244	-0.195
-314.983	-138.928	0.365	-0.039
-313.968	800.000	0.070	0.214
-312.953	421.680	-0.086	0.182
-311.939	104.969	0.225	0.263
-310.924	-50.705	0.243	-0.113
-309.910	181.993	0.077	0.113
-308.895	-185.493	0.047	0.001
-307.880	-49.851	0.212	0.099
-306.866	233.770	0.042	-0.068
-305.851	-0.851	-0.223	-0.156
-304.837	800.000	-0.049	-0.179
-303.822	-200.000	-0.032	-0.311
-302.807	-200.000	-0.007	-0.034
-301.793	-36.442	-0.198	0.106
-300.778	70.869	0.319	-0.327
-299.764	41.182	0.095	-0.085
-298.749	-69.305	-0.153	0.058
-297.735	85.477	0.099	0.107
-296.720	-69.916	0.320	-0.121
-295.705	71.465	-0.300	-0.308
-294.691	29.645	-0.192	-0.161
-293.676	-72.519	0.155	0.057
-292.662	800.000	0.082	-0.299
-291.647	-43.054	0.101	0.050
-290.632	-109.782	0.126	-0.026
-289.618	-143.315	-0.168	0.016
-288.603	307.596	-0.081	0.150
-287.589	-200.000	-0.001	-0.117
-286.574	800.000	-0.061	-0.195
-285.559	-113.842	0.121	-0.023
-284.545	-71.618	-0.389	-0.144
-283.530	96.733	0.076	-0.086
-282.516	-98.469	0.304	0.077
-281.501	-200.000	-0.092	0.600
-280.486	-98.648	-0.186	0.047
-279.472	140.513	-0.250	-0.326
-278.457	-200.000	-0.004	0.116
-277.443	-43.995	-0.126	-0.062
-276.428	78.944	0.144	-0.153
-275.413	-196.302	0.142	-0.001
-274.399	-18.900	-0.276	-0.170
-273.384	284.196	0.168	0.298
-272.370	800.000	-0.109	0.381
-271.355	-23.851	0.291	0.172
-270.340	-136.624	0.182	-0.021
-269.326	-144.949	-0.198	-0.018
-268.311	-91.376	0.255	-0.072
-267.297	516.521	-0.135	0.311
-266.282	-59.740	0.271	-0.115
-265.267	255.926	-0.061	0.103
-264.253	-200.000	-0.136	-0.001
-263.238	91.906	0.151	-0.168
-262.224	8.926	0.106	0.079
-261.209	-200.000	-0.013	-0.205
-260.195	-200.000	-0.030	-0.169
-259.180	-89.888	-0.174	-0.050
-258.165	-98.381	0.159	-0.040
-257.151	62.024	-0.343	0.338
-256.136	800.000	0.064	0.262
-255.122	160.245	0.259	0.357
-254.107	159.093	0.132	0.181
-253.092	49.746	0.053	-0.049
-252.078	-147.430	0.041	0.003
-251.063	428.699	0.135	-0.289
-250.049	-200.000	-0.004	-0.206
-249.034	-18.793	-0.256	0.157
-248.019	-49.716	0.286	0.134
-247.005	-60.470	-0.393	-0.165
-245.990	52.280	-0.336	0.316
-244.976	280.581	-0.114	0.201
-243.961	-179.243	-0.283	0.006
-242.946	-196.995	0.058	0.000
-241.932	-144.946	0.400	-0.036
-240.917	-115.473	-0.168	0.031
-239.903	291.706	0.058	-0.105
-238.888	-33.018	0.145	-0.079
-237.873	693.653	-0.098	0.253
-236.859	720.175	-0.069	-0.181
-235.844	-3.736	0.241	-0.165
-234.830	-200.000	0.025	0.264
-233.815	-200.000	0.015	0.282
-232.800	-73.604	-0.264	0.095
-231.786	-133.886	-0.280	0.034
-230.771	-200.000	-0.031	0.230
-229.757	800.000	-0.062	-0.229
-228.742	184.147	0.174	-0.254
-227.727	800.000	0.075	0.274
-226.713	-110.305	-0.209	0.043
-225.698	337.726	0.039	0.074
-224.684	-200.000	-0.004	-0.038
-223.669	-200.000	0.035	-0.207
-222.655	50.570	-0.129	0.120
-221.640	-98.993	-0.178	0.045
-220.625	-168.755	0.197	-0.007
-219.611	-200.000	-0.019	0.314
-218.596	68.939	0.120	0.122
-217.582	176.168	0.153	-0.219
-216.567	800.000	-0.066	-0.278
-215.552	-19.885	-0.217	-0.132
-214.538	-200.000	-0.021	0.149
-213.523	-35.894	-0.280	0.149
-212.509	-200.000	-0.029	-0.246
-211.494	5.619	0.259	0.189
-210.479	29.694	-0.214	0.180
-209.465	800.000	0.119	0.332
-208.450	-200.000	-0.028	-0.231
-207.436	439.463	-0.039	-0.085
-206.421	-34.913	-0.259	0.139
-205.406	-67.092	0.150	-0.058
-204.392	352.904	-0.072	-0.140
-203.377	-66.745	-0.110	-0.043
-202.363	558.144	0.141	0.336
-201.348	-200.000	-0.018	-0.367
-200.333	3.732	-0.143	-0.103
-199.319	800.000	-0.007	-0.029
-198.304	572.598	0.148	-0.354
-197.290	-108.082	-0.118	-0.025
-196.275	-10.556	0.147	-0.096
-195.260	-83.492	-0.320	0.101
-194.246	54.740	0.407	0.387
-193.231	-200.000	0.037	0.220
-192.217	-124.686	0.479	0.073
-191.202	-200.000	0.009	0.314
-190.187	-200.000	-0.001	0.157
-189.173	800.000	0.098	0.377
-188.158	330.243	-0.121	0.230
-187.144	173.609	0.133	-0.189
-186.129	-41.169	0.035	-0.018
-185.114	-104.183	0.109	-0.025
-184.100	-200.000	-0.004	0.102
-183.085	-200.000	0.008	0.126
-182.071	217.150	-0.145	-0.228
-181.056	14.155	-0.160	0.123
-180.042	204.924	0.049	0.075
-179.027	-66.038	0.313	0.123
-178.012	144.579	0.070	0.093
-176.998	-59.248	0.292	0.124
-175.983	26.122	-0.082	0.067
-174.969	347.766	0.167	0.324
-173.954	234.958	-0.023	0.037
-172.939	204.604	0.140	0.214
-171.925	528.804	0.023	0.052
-170.910	-38.405	-0.293	0.153
-169.896	-45.544	-0.372	0.181
-168.881	639.086	0.033	0.083
-167.866	-200.000	-0.083	0.451
-166.852	-18.759	0.015	0.009
-165.837	318.565	-0.144	-0.268
-164.823	-36.672	0.138	0.073
-163.808	-200.000	-0.004	-0.229
-162.793	75.633	-0.182	0.190
-161.779	-4.519	0.250	-0.170
-160.764	-40.625	0.391	-0.200
-159.750	-200.000	0.001	-0.085
-158.735	365.528	0.089	-0.176
-157.720	361.105	0.040	-0.079
-156.706	445.389	0.065	-0.140
-155.691	-75.622	0.327	-0.114
-154.677	-200.000	-0.049	-0.316
-153.662	-64.686	-0.151	-0.060
-152.647	-200.000	-0.032	0.293
-151.633	-66.437	-0.108	-0.042
-150.618	-200.000	-0.032	-0.290
-149.604	582.956	-0.007	0.016
-148.589	-35.984	0.189	-0.100
-147.574	179.167	-0.072	0.104
-146.560	145.079	-0.060	0.079
-145.545	-200.000	0.000	-0.227
-144.531	-143.581	-0.222	-0.021
-143.516	-200.000	-0.008	-0.169
-142.502	-23.047	0.394	0.233
-141.487	31.025	0.101	0.085
-140.472	-200.000	-0.240	0.001
-139.458	-84.442	-0.055	-0.017
-138.443	173.338	-0.083	-0.117
-137.429	-131.203	0.153	-0.020
-136.414	84.288	0.161	0.173
-135.399	260.191	-0.261	0.443
-134.385	-101.083	-0.313	-0.075
-133.370	800.000	0.113	-0.383
-132.356	-37.650	-0.277	-0.145
-131.341	161.383	-0.157	0.216
-130.326	-200.000	0.006	0.326
-129.312	134.607	-0.111	0.142
-128.297	-2.465	-0.171	-0.118
-127.283	409.386	-0.076	0.157
-126.268	800.000	0.063	-0.201
-125.253	393.624	-0.069	0.142
-124.239	288.092	-0.115	-0.204
-123.224	-191.513	0.248	0.002
-122.210	-166.262	0.436	0.018
-121.195	124.940	-0.362	0.448
-120.180	-200.000	-0.001	0.109
-119.166	-144.917	-0.221	0.020
-118.151	57.669	0.220	0.212
-117.137	379.186	-0.095	0.192
-116.122	-40.101	0.328	0.168
-115.107	110.801	-0.291	0.344
-114.093	-126.047	-0.100	0.015
-113.078	-175.646	-0.131	0.003
-112.064	-35.689	0.202	0.107
-111.049	-6.890	-0.295	-0.197
-110.034	128.267	0.206	-0.257
-109.020	-30.416	-0.310	-0.172
-108.005	800.000	0.065	0.275
-106.991	-108.235	-0.410	-0.087
-105.976	81.026	-0.156	-0.165
-104.962	164.666	-0.036	-0.050
-103.947	-14.481	0.149	0.094
-102.932	800.000	0.082	0.234
-101.918	-46.237	0.127	0.061
-100.903	-134.660	-0.283	0.034
-99.889	430.693	0.075	0.159
-98.874	-200.000	0.022	0.128
-97.859	-200.000	-0.012	-0.201
-96.845	22.459	0.163	-0.131
-95.830	-54.591	0.025	-0.011
-94.816	91.267	0.148	0.163
-93.801	-111.795	-0.192	0.038
-92.786	-7.393	0.191	0.127
-91.772	50.053	0.065	0.060
-90.757	-200.000	0.061	0.342
-89.743	-76.796	0.047	-0.016
-88.728	301.442	0.117	0.212
-87.713	66.082	0.217	-0.216
-86.699	800.000	0.065	-0.223
-85.684	800.000	-0.099	-0.329
-84.670	740.245	-0.114	0.300
-83.655	-146.597	0.416	0.035
-82.640	-133.680	0.219	-0.027
-81.626	-200.000	0.006	-0.032
-80.611	800.000	-0.068	0.244
-79.597	-54.249	-0.162	0.072
-78.582	-81.606	0.500	-0.161
-77.567	179.820	-0.107	0.154
-76.553	-200.000	-0.026	-0.179
-75.538	-85.179	0.132	-0.041
-74.524	-177.104	0.372	0.009
-73.509	-200.000	-0.003	-0.027
-72.494	-90.350	-0.157	0.045
-71.480	529.964	0.050	-0.116
-70.465	-200.000	0.003	0.115
-69.451	-100.560	0.473	0.115
-68.436	334.166	0.053	0.101
-67.422	800.000	0.029	0.100
-66.407	-20.893	0.215	-0.129
-65.392	-144.478	0.124	0.011
-64.378	13.348	-0.356	0.270
-63.363	-200.000	0.087	-0.459
-62.349	-16.752	0.417	0.259
-61.334	97.407	-1.047	-1.178
-60.319	43.474	0.746	0.668
-59.305	633.924	-0.288	-0.715
-58.290	695.536	0.442	1.137
-57.276	231.692	0.875	1.406
-56.261	-200.000	113.929	642.605
-55.246	463.123	1511.826	3307.261
-54.232	146.510	2678.326	3523.601
-53.217	103.253	2155.792	2475.700
-52.203	38.769	1601.914	1400.715
-51.188	30.527	1348.398	1129.171
-50.173	27.774	1310.404	1081.029
-49.159	55.180	1366.530	1293.633
-48.144	53.708	1380.663	1298.094
-47.130	30.990	1336.464	1121.788
-46.115	27.517	1318.466	1085.975
-45.100	27.242	1313.430	1080.149
-44.086	27.296	1311.030	1078.453
-43.071	27.211	1309.027	1076.265
-42.057	27.168	1306.821	1074.152
-41.042	27.223	1305.257	1073.148
-40.027	27.161	1303.838	1071.574
-39.013	27.213	1301.467	1069.890
-37.998	27.169	1299.667	1068.106
-36.984	27.326	1298.125	1067.720
-35.969	27.437	1296.251	1066.786
-34.954	27.392	1294.156	1064.759
-33.940	27.423	1292.832	1063.803
-32.925	27.414	1291.941	1062.975
-31.911	27.427	1290.053	1061.459
-30.896	27.437	1289.076	1060.669
-29.881	27.448	1287.455	1059.360
-28.867	27.562	1285.651	1058.492
-27.852	27.375	1284.748	1056.625
-26.838	27.407	1283.257	1055.540
-25.823	27.445	1282.046	1054.725
-24.809	27.399	1280.745	1053.347
-23.794	27.354	1279.347	1051.890
-22.779	27.401	1277.836	1050.879
-21.765	27.421	1276.396	1049.771
-20.750	27.451	1275.503	1049.163
-19.736	27.389	1274.297	1047.773
-18.721	27.161	1273.835	1046.043
-17.706	27.365	1271.544	1045.289
-16.692	27.363	1270.718	1044.558
-15.677	27.342	1269.841	1043.678
-14.663	27.266	1269.115	1042.602
-13.648	27.314	1267.301	1041.346
-12.633	27.239	1266.944	1040.582
-11.619	27.230	1265.746	1039.508
-10.604	27.199	1265.361	1038.972
-9.590	27.281	1263.813	1038.126
-8.575	27.385	1262.666	1037.733
-7.560	27.276	1261.847	1036.402
-6.546	27.309	1260.836	1035.716
-5.531	27.293	1260.597	1035.391
-4.517	27.296	1259.241	1034.251
-3.502	27.361	1258.351	1033.846
-2.487	27.374	1257.295	1033.015
-1.473	27.362	1253.091	1029.453
-0.458	25.900	1238.413	1009.174
0.556	21.232	1221.901	973.064
1.571	17.801	1228.871	959.269
2.586	17.132	1243.661	966.916
3.600	17.361	1233.185	959.980
4.615	16.083	1166.846	901.432
5.629	12.977	1099.939	833.989
6.644	11.341	1083.494	813.293
7.659	11.202	1081.573	811.092
8.673	11.085	1080.221	809.424
9.688	11.082	1078.639	808.150
10.702	11.389	1076.471	807.974
11.717	13.246	1078.602	818.710
12.731	16.047	1082.548	835.534
13.746	17.822	1083.528	845.017
14.761	17.581	1083.160	843.464
15.775	16.734	1081.061	837.564
16.790	15.593	1078.874	830.165
17.804	14.929	1077.267	825.577
18.819	14.419	1076.392	822.318
19.834	14.059	1075.579	819.846
20.848	13.990	1074.459	818.581
21.863	13.775	1073.849	816.984
22.877	13.545	1073.004	815.140
23.892	13.533	1072.274	814.455
24.907	13.549	1071.418	813.811
25.921	13.630	1070.007	813.062
26.936	13.617	1068.925	812.104
27.950	13.644	1067.702	811.236
28.965	13.699	1066.159	810.263
29.980	13.765	1064.411	809.182
30.994	13.769	1063.458	808.404
32.009	13.852	1062.449	807.973
33.023	13.885	1061.013	806.969
34.038	13.645	1060.498	805.341
35.053	13.718	1059.550	804.902
36.067	13.624	1058.623	803.673
37.082	13.682	1057.727	803.201
38.096	13.872	1056.950	803.461
39.111	13.764	1056.124	802.237
40.126	13.762	1054.446	800.883
41.140	13.542	1053.783	799.249
42.155	13.425	1052.954	797.982
43.169	13.418	1051.709	796.935
44.184	13.509	1050.492	796.381
45.199	13.519	1049.743	795.790
46.213	13.604	1048.454	795.149
47.228	13.568	1047.376	794.090
48.242	13.733	1046.217	793.933
49.257	13.586	1045.496	792.612
50.271	13.684	1044.865	792.533
51.286	13.648	1043.562	791.300
52.301	13.703	1042.520	790.705
53.315	13.585	1041.418	789.236
54.330	13.725	1040.157	788.876
55.344	13.627	1039.492	787.837
56.359	13.595	1038.715	787.024
57.374	13.524	1038.161	786.199
58.388	13.485	1037.361	785.339
59.403	13.370	1036.110	783.775
60.417	13.551	1035.147	783.836
61.432	13.469	1034.495	782.884
62.447	13.528	1033.630	782.439
63.461	13.464	1032.929	781.538
64.476	13.450	1031.769	780.527
65.490	13.500	1031.095	780.180
66.505	13.390	1030.419	779.083
67.520	13.594	1029.457	779.246
68.534	13.544	1029.117	778.683
69.549	13.476	1028.200	777.603
70.563	13.404	1027.473	776.646
71.578	13.377	1027.001	776.094
72.593	13.346	1025.908	775.053
73.607	13.420	1025.396	774.944
74.622	13.483	1024.793	774.714
75.636	13.381	1023.983	773.559
76.651	13.455	1023.316	773.329
77.666	13.333	1022.853	772.343
78.680	13.450	1022.106	772.256
79.695	13.449	1021.217	771.511
80.709	13.553	1020.555	771.429
81.724	13.524	1020.169	770.934
82.739	13.729	1018.799	770.784
83.753	13.662	1018.533	770.203
84.768	13.740	1017.839	769.973
85.782	13.737	1016.634	768.979
86.797	13.756	1015.749	768.327
87.812	13.597	1014.936	766.909
88.826	13.683	1014.105	766.611
89.841	13.741	1012.899	765.902
90.855	13.803	1012.083	765.499
91.870	13.892	1011.165	765.148
92.884	13.759	1010.512	763.974
93.899	13.834	1009.604	763.564
94.914	13.837	1009.071	763.109
95.928	13.902	1007.869	762.432
96.943	13.829	1007.305	761.602
97.957	13.723	1006.443	760.396
98.972	13.755	1005.469	759.739
99.987	13.796	1004.525	759.149
101.001	13.716	1003.907	758.249
102.016	13.927	1002.429	758.026
103.030	13.866	1002.223	757.528
104.045	13.861	1001.350	756.777
105.060	13.697	1000.496	755.316
106.074	13.579	999.644	754.069
107.089	13.508	998.027	752.462
108.103	13.645	997.169	752.371
109.118	13.607	996.307	751.478
110.133	13.574	995.312	750.515
111.147	13.518	994.598	749.656
112.162	13.681	993.222	749.290
113.176	13.580	992.929	748.546
114.191	13.718	992.252	748.592
115.206	13.691	991.311	747.693
116.220	13.713	990.530	747.136
117.235	13.655	989.708	746.192
118.249	13.621	988.852	745.327
119.264	13.588	987.919	744.409
120.279	13.544	987.808	744.059
121.293	13.615	986.174	743.083
122.308	13.600	985.360	742.337
123.322	13.629	984.098	741.450
124.337	13.620	983.046	740.554
125.352	13.501	981.950	739.130
126.366	13.538	981.193	738.659
127.381	13.565	980.155	737.933
128.395	13.661	978.935	737.374
129.410	13.723	978.050	736.921
130.424	13.622	977.569	736.044
131.439	13.629	976.897	735.505
132.454	13.831	975.831	735.530
133.468	13.682	975.395	734.478
134.483	13.786	974.394	734.117
135.497	13.709	973.521	733.057
136.512	13.782	972.467	732.520
137.527	13.728	971.979	731.849
138.541	13.672	971.320	731.041
139.556	13.664	971.036	730.727
140.570	13.857	969.786	730.572
141.585	13.876	968.704	729.776
142.600	13.960	967.912	729.483
143.614	13.910	967.468	728.865
144.629	13.981	966.402	728.307
145.643	13.927	965.527	727.347
146.658	13.896	963.804	725.851
147.673	13.763	963.500	724.977
148.687	13.692	962.705	724.004
149.702	13.704	961.826	723.332
150.716	13.749	960.945	722.799
151.731	13.839	960.433	722.742
152.746	13.861	959.672	722.200
153.760	13.838	958.864	721.429
154.775	13.827	958.629	721.143
155.789	13.822	958.232	720.756
156.804	13.840	957.123	719.936
157.819	13.992	956.725	720.234
158.833	14.024	956.010	719.772
159.848	14.029	954.927	718.911
160.862	14.017	953.875	718.006
161.877	13.975	952.604	716.805
162.892	13.968	952.266	716.456
163.906	13.890	950.808	714.961
164.921	13.904	950.025	714.369
165.935	13.991	949.210	714.067
166.950	13.972	948.513	713.397
167.964	13.865	947.624	712.204
168.979	13.923	946.483	711.532
169.994	13.911	945.166	710.428
171.008	14.016	944.812	710.548
172.023	13.995	944.402	710.090
173.037	14.200	943.434	710.171
174.052	14.313	942.295	709.736
175.067	13.975	942.074	708.065
176.081	13.942	941.037	707.084
177.096	14.059	940.948	707.449
178.110	13.968	940.172	706.419
179.125	14.095	939.580	706.448
180.140	14.005	939.533	705.971
181.154	14.087	938.711	705.637
182.169	14.131	938.266	705.428
183.183	14.084	938.243	705.149
184.198	14.367	936.457	704.940
185.213	14.404	935.477	704.299
186.227	14.157	935.590	703.278
187.242	14.347	934.765	703.396
188.256	14.387	934.324	703.173
189.271	14.412	933.069	702.272
190.286	14.200	932.762	701.085
191.300	13.996	932.106	699.667
192.315	13.962	931.423	698.951
193.329	14.055	930.811	698.821
194.344	14.089	930.491	698.663
195.359	14.160	929.684	698.291
196.373	14.266	928.908	698.095
197.388	14.402	928.774	698.501
198.402	14.466	927.877	698.030
199.417	14.565	927.329	697.972
200.432	14.524	927.043	697.524
201.446	14.552	926.342	697.052
202.461	14.553	926.285	696.949
203.475	14.559	925.295	696.171
204.490	14.364	924.760	694.893
205.504	14.504	923.684	694.606
206.519	14.567	922.840	694.172
207.534	14.489	922.499	693.529
208.548	14.476	921.755	692.852
209.563	14.474	921.006	692.220
210.577	14.399	920.521	691.484
211.592	14.656	919.269	691.548
212.607	14.718	918.541	691.195
213.621	14.533	918.340	690.215
214.636	14.613	917.100	689.555
215.650	14.756	916.398	689.554
216.665	14.819	915.641	689.184
217.680	14.762	915.323	688.650
218.694	14.724	914.493	687.809
219.709	14.831	914.085	687.884
220.723	14.729	913.328	686.833
221.738	14.684	912.320	685.829
222.753	14.766	911.731	685.661
223.767	14.808	911.612	685.682
224.782	14.789	911.554	685.500
225.796	14.906	910.570	685.181
226.811	14.804	909.775	684.103
227.826	14.837	908.915	683.530
228.840	14.794	908.377	682.889
229.855	14.882	907.593	682.599
230.869	14.861	906.469	681.608
231.884	14.724	906.311	680.871
232.899	14.833	905.321	680.511
233.913	14.838	904.673	679.985
234.928	14.894	903.915	679.580
235.942	14.706	903.789	678.662
236.957	14.819	902.899	678.393
237.972	14.776	902.020	677.500
238.986	14.819	901.390	677.141
240.001	14.883	900.622	676.762
241.015	14.942	900.181	676.608
242.030	14.956	899.597	676.165
243.045	14.904	899.137	675.550
244.059	14.940	898.555	675.197
245.074	14.995	897.750	674.755
246.088	15.126	896.966	674.634
247.103	15.179	896.030	674.086
248.117	15.205	895.919	674.047
249.132	15.247	895.766	674.041
250.147	15.340	894.744	673.584
251.161	15.320	894.060	672.931
252.176	15.341	893.645	672.642
253.190	15.305	893.242	672.136
254.205	15.356	892.069	671.400
255.220	15.435	891.557	671.269
256.234	15.403	890.977	670.643
257.249	15.260	890.595	669.727
258.263	15.361	889.661	669.368
259.278	15.451	889.104	669.250
260.293	15.535	888.266	668.893
261.307	15.464	887.897	668.275
262.322	15.699	886.421	668.037
263.336	15.540	886.606	667.486
264.351	15.716	885.201	667.066
265.366	15.609	885.056	666.474
266.380	15.627	884.595	666.139
267.395	15.550	883.705	665.107
268.409	15.554	882.866	664.433
269.424	15.676	882.141	664.311
270.439	15.503	881.729	663.256
271.453	15.566	880.803	662.751
272.468	15.526	880.282	662.141
273.482	15.549	879.899	661.887
274.497	15.435	879.036	660.728
275.512	15.628	878.632	661.127
276.526	15.532	878.068	660.267
277.541	15.553	877.842	660.119
278.555	15.633	877.141	659.848
279.570	15.830	876.181	659.838
280.585	15.850	875.484	659.336
281.599	15.840	874.365	658.396
282.614	15.826	873.930	657.955
283.628	15.833	873.259	657.418
284.643	15.785	872.629	656.700
285.657	15.643	872.453	655.954
286.672	15.753	871.733	655.783
287.687	15.757	870.995	655.188
288.701	15.799	870.245	654.728
289.716	15.876	869.355	654.300
290.730	15.848	869.325	654.109
291.745	15.861	868.560	653.527
292.760	16.041	867.702	653.521
293.774	15.920	867.672	652.972
294.789	15.949	866.885	652.434
295.803	15.990	865.952	651.833
296.818	15.891	865.253	650.866
297.833	15.951	864.801	650.701
298.847	15.981	864.147	650.266
299.862	16.014	863.688	649.991
300.876	15.968	863.310	649.473
301.891	16.071	862.781	649.412
302.906	16.116	862.018	648.954
303.920	16.151	861.801	648.870
304.935	16.175	860.716	648.087
305.949	16.147	860.733	647.935
306.964	16.076	860.182	647.190
307.979	16.232	859.200	646.992
308.993	16.227	858.850	646.651
310.008	16.273	857.907	646.063
311.022	16.409	857.247	646.028
312.037	16.251	856.884	645.091
313.052	16.126	856.479	644.252
314.066	16.116	855.710	643.580
315.081	16.221	855.131	643.487
316.095	16.226	854.447	642.935
317.110	15.992	854.220	641.816
318.125	16.146	853.540	641.834
319.139	16.177	853.266	641.689
320.154	16.184	852.858	641.353
321.168	16.220	852.257	640.979
322.183	16.215	851.530	640.355
323.197	16.221	850.912	639.857
324.212	16.327	850.476	639.874
325.227	16.363	849.567	639.272
326.241	16.326	849.102	638.726
327.256	16.318	848.479	638.168
328.270	16.199	848.043	637.336
329.285	16.298	847.844	637.504
330.300	16.221	846.847	636.407
331.314	16.448	846.148	636.680
332.329	16.410	846.211	636.529
333.343	16.476	845.179	635.946
334.358	16.374	844.901	635.297
335.373	16.458	844.616	635.342
336.387	16.382	844.681	635.046
337.402	16.488	844.283	635.090
338.416	16.534	843.976	634.976
339.431	16.600	843.577	634.866
340.446	16.546	843.200	634.325
341.460	16.669	842.710	634.362
342.475	16.699	842.267	634.086
343.489	16.625	841.706	633.328
344.504	16.684	841.381	633.249
345.519	16.780	840.735	633.067
346.533	16.840	840.027	632.701
347.548	16.851	839.225	632.081
348.562	16.603	838.953	630.894
349.577	16.593	838.584	630.526
350.592	16.603	838.091	630.135
351.606	16.670	837.219	629.672
352.621	16.768	836.028	629.085
353.635	16.700	835.914	628.693
354.650	16.673	835.233	628.024
355.665	16.796	834.750	628.062
356.679	16.869	834.027	627.731
357.694	16.879	833.363	627.215
358.708	16.832	832.535	626.361
359.723	16.830	832.221	626.061
360.738	16.855	831.716	625.719
361.752	16.978	830.946	625.540
362.767	16.959	830.583	625.140
363.781	17.048	829.708	624.753
364.796	16.937	829.588	624.200
365.810	17.005	829.079	624.012
366.825	17.160	828.794	624.310
367.840	17.062	828.774	623.881
368.854	16.995	828.043	623.028
369.869	17.050	827.611	622.852
370.883	17.118	826.926	622.529
371.898	17.229	826.337	622.437
372.913	17.109	826.604	622.146
373.927	17.252	825.454	621.747
374.942	17.103	825.242	620.987
375.956	17.385	824.382	621.314
376.971	17.231	824.363	620.684
377.986	17.386	823.599	620.618
379.000	17.387	823.184	620.254
380.015	17.405	822.667	619.874
381.029	17.255	822.353	619.037
382.044	17.376	821.587	618.848
383.059	17.386	821.055	618.429
384.073	17.309	820.668	617.801
385.088	17.218	820.230	617.089
386.102	17.168	819.521	616.318
387.117	17.341	819.015	616.511
388.132	17.474	817.841	616.052
389.146	17.153	818.154	615.070
390.161	17.513	817.195	615.599
391.175	17.623	816.301	615.268
392.190	17.472	815.823	614.310
393.205	17.339	816.152	614.023
394.219	17.462	815.398	613.842
395.234	17.205	815.047	612.599
396.248	17.202	814.692	612.265
397.263	17.216	814.163	611.863
398.278	17.299	813.730	611.783
399.292	17.349	813.497	611.737
400.307	17.539	812.587	611.680
401.321	17.546	812.354	611.475
402.336	17.393	811.726	610.397
403.350	17.392	811.479	610.155
404.365	17.454	810.869	609.864
405.380	17.615	810.258	609.929
406.394	17.614	809.898	609.598
407.409	17.705	809.330	609.442
408.423	17.687	809.307	609.309
409.438	17.709	809.384	609.390
410.453	17.974	808.327	609.487
411.467	17.849	807.764	608.561
412.482	17.871	807.617	608.476
413.496	17.925	807.304	608.379
414.511	17.866	806.941	607.841
415.526	17.866	806.178	607.213
416.540	17.854	805.714	606.767
417.555	17.914	805.392	606.682
418.569	18.031	804.779	606.584
419.584	17.914	804.826	606.151
420.599	17.877	804.411	605.652
421.613	111.449	1294.740	1475.882
422.628	96.133	1366.119	1475.973
