DTS Sentinel unit serial number:	SN413079Multiplexer serial number:	ORYXHardware model number:	OX4-SRSoftware version number:	ORYX F/W v4.00 Oryx Data Collector v3.7.2.0data status	okinstallation	princeton_trtdifferential loss correction	single-endedforward channel	channel 1reverse channel	N/Adate	2019/09/13time	23:26:35forward acquisition time	60.00reverse acquisition time	0.00gamma	496.2192k internal	0.2336k external	0.2336temperature offset calibration	1.0084default loss term (dB/km)	0.3790temperature slope calibration	1.0000multiplexer offset coefficient	1.0000multiplexer slope coefficient	1.0000fibre end	0.00T internal ref (°C)	26.89T ext. ref 1 (°C)	3.18T ext. ref 2 (°C)	20.89length (m)	temperature (°C)	Stokes	anti-Stokes-747.200	800.000	-0.179	0.534
-746.185	-12.923	-0.066	0.043
-745.171	88.627	0.136	0.152
-744.156	-200.000	-0.010	0.252
-743.142	123.798	0.244	-0.307
-742.127	800.000	-0.053	0.231
-741.112	-78.651	0.316	-0.108
-740.098	64.280	0.011	0.011
-739.083	-200.000	-0.019	-0.141
-738.069	142.957	-0.093	0.124
-737.054	-72.274	-0.139	0.052
-736.039	3.187	-0.289	0.211
-735.025	467.932	-0.068	0.153
-734.010	386.825	0.029	-0.060
-732.996	-104.227	-0.310	0.072
-731.981	-103.513	0.172	-0.041
-730.966	-85.267	-0.192	-0.060
-729.952	-153.263	-0.195	0.014
-728.937	-18.284	-0.074	-0.046
-727.923	800.000	0.048	-0.165
-726.908	-19.503	-0.237	-0.148
-725.894	115.244	0.096	-0.117
-724.879	-85.358	-0.026	-0.008
-723.864	105.763	0.094	0.112
-722.850	-200.000	0.019	-0.532
-721.835	-141.930	0.136	-0.014
-720.821	28.443	-0.044	0.037
-719.806	-7.696	0.260	-0.177
-718.791	13.960	-0.213	-0.166
-717.777	177.633	0.301	-0.441
-716.762	-38.227	0.048	-0.026
-715.748	158.394	0.078	0.108
-714.733	417.656	0.105	-0.225
-713.718	-109.981	-0.189	0.040
-712.704	-126.582	0.063	0.009
-711.689	19.901	0.072	-0.059
-710.675	-15.641	-0.178	-0.114
-709.660	61.202	-0.073	-0.073
-708.645	800.000	0.053	0.150
-707.631	-150.983	-0.263	-0.020
-706.616	34.860	0.163	-0.143
-705.602	295.119	0.130	-0.239
-704.587	108.208	0.114	0.137
-703.572	-200.000	-0.016	0.185
-702.558	249.013	-0.111	0.188
-701.543	-143.253	0.119	0.011
-700.529	30.383	-0.048	-0.041
-699.514	162.313	-0.096	-0.135
-698.499	-55.360	-0.136	-0.061
-697.485	668.612	-0.093	-0.241
-696.470	21.425	-0.221	0.180
-695.456	72.352	-0.164	-0.171
-694.441	-44.044	-0.464	-0.234
-693.426	367.513	-0.065	0.131
-692.412	-200.000	0.007	-0.145
-691.397	-9.400	-0.297	-0.199
-690.383	-128.923	-0.197	-0.028
-689.368	-200.000	-0.017	-0.169
-688.354	59.988	-0.267	-0.264
-687.339	-10.385	0.282	-0.187
-686.324	208.478	0.092	-0.144
-685.310	-110.678	-0.171	-0.035
-684.295	448.238	-0.066	0.147
-683.281	68.960	0.186	0.191
-682.266	-69.565	-0.219	0.084
-681.251	-111.763	0.494	0.100
-680.237	10.627	-0.075	-0.057
-679.222	-0.738	0.163	0.115
-678.208	-58.605	0.263	-0.114
-677.193	616.743	-0.041	-0.102
-676.178	39.221	-0.103	0.092
-675.164	-37.608	0.057	0.030
-674.149	30.280	0.046	-0.039
-673.135	46.599	0.079	0.073
-672.120	791.458	-0.121	0.332
-671.105	7.093	-0.304	0.227
-670.091	800.000	-0.069	0.229
-669.076	623.286	0.021	-0.053
-668.062	63.725	-0.110	-0.110
-667.047	-43.564	0.119	-0.060
-666.032	-15.988	0.180	-0.115
-665.018	800.000	0.082	-0.315
-664.003	-186.343	-0.154	0.002
-662.989	60.875	0.133	0.132
-661.974	209.259	-0.084	-0.131
-660.959	63.816	0.045	0.045
-659.945	-200.000	-0.011	0.243
-658.930	99.197	0.216	0.249
-657.916	-200.000	0.022	-0.261
-656.901	-155.866	-0.284	0.018
-655.886	800.000	-0.022	-0.083
-654.872	-200.000	0.018	-0.130
-653.857	800.000	0.035	-0.135
-652.843	-165.549	0.133	0.006
-651.828	142.926	-0.137	0.182
-650.814	582.870	0.094	-0.230
-649.799	800.000	-0.021	0.066
-648.784	336.956	0.121	0.235
-647.770	411.213	0.210	-0.446
-646.755	189.514	-0.198	0.297
-645.741	-200.000	-0.021	0.229
-644.726	0.572	0.095	-0.068
-643.711	82.155	0.136	0.148
-642.697	-102.258	-0.277	0.067
-641.682	76.149	-0.198	-0.209
-640.668	800.000	-0.064	-0.192
-639.653	360.006	-0.143	-0.285
-638.638	-57.689	-0.269	-0.118
-637.624	-200.000	0.070	-0.388
-636.609	-200.000	0.043	-0.202
-635.595	90.565	-0.304	0.340
-634.580	74.710	0.232	0.244
-633.565	-200.000	-0.015	-0.083
-632.551	464.534	0.054	0.122
-631.536	-200.000	0.035	0.212
-630.522	-143.847	-0.021	0.002
-629.507	369.537	-0.059	-0.119
-628.492	-10.236	-0.099	0.066
-627.478	-55.793	-0.166	-0.074
-626.463	15.907	0.153	0.120
-625.449	685.244	0.070	-0.182
-624.434	-116.918	0.045	0.008
-623.419	71.240	0.260	0.270
-622.405	-124.669	0.368	-0.057
-621.390	-200.000	-0.005	-0.307
-620.376	117.910	0.200	-0.246
-619.361	78.233	0.219	-0.234
-618.346	800.000	-0.082	-0.259
-617.332	223.440	-0.109	-0.175
-616.317	-110.389	-0.065	0.014
-615.303	-149.788	-0.163	0.013
-614.288	282.354	0.054	0.097
-613.273	77.466	0.271	0.288
-612.259	623.735	-0.068	-0.171
-611.244	233.576	0.103	-0.170
-610.230	82.025	0.156	-0.168
-609.215	-95.531	-0.075	0.020
-608.201	39.124	0.201	-0.180
-607.186	708.753	0.020	-0.053
-606.171	-200.000	0.007	0.108
-605.157	-83.707	0.155	0.049
-604.142	-200.000	0.026	-0.305
-603.128	-6.530	-0.177	0.120
-602.113	-200.000	0.043	-0.225
-601.098	-133.255	0.150	0.019
-600.084	-113.046	-0.090	0.018
-599.069	800.000	-0.024	0.092
-598.055	800.000	0.032	0.117
-597.040	402.619	0.029	-0.061
-596.025	-106.385	-0.252	0.056
-595.011	-66.526	-0.027	-0.011
-593.996	800.000	-0.019	-0.078
-592.982	13.263	0.273	-0.211
-591.967	800.000	-0.040	0.124
-590.952	-99.028	-0.485	-0.123
-589.938	165.284	-0.032	0.046
-588.923	800.000	0.041	0.164
-587.909	-47.645	-0.198	0.096
-586.894	-82.633	0.101	-0.033
-585.879	-32.606	0.142	0.079
-584.865	-67.599	-0.420	-0.164
-583.850	75.441	-0.179	-0.188
-582.836	-101.880	-0.143	0.035
-581.821	-24.031	0.181	0.108
-580.806	-113.505	0.150	-0.029
-579.792	-72.285	-0.332	0.123
-578.777	-5.196	0.224	-0.153
-577.763	-60.186	-0.165	-0.070
-576.748	15.915	-0.160	0.126
-575.733	73.626	0.095	0.099
-574.719	-44.225	-0.269	-0.135
-573.704	-60.891	-0.409	-0.172
-572.690	800.000	-0.064	-0.228
-571.675	-53.909	-0.072	-0.033
-570.661	-71.303	0.077	-0.029
-569.646	-200.000	-0.009	-0.233
-568.631	64.688	0.137	-0.138
-567.617	-73.540	0.186	-0.068
-566.602	-152.237	-0.301	-0.022
-565.588	-73.566	0.188	-0.068
-564.573	253.887	0.058	0.099
-563.558	-19.846	0.051	-0.031
-562.544	-32.069	0.187	-0.104
-561.529	749.631	-0.069	0.187
-560.515	-113.358	-0.286	-0.056
-559.500	61.129	-0.285	-0.282
-558.485	800.000	-0.070	0.279
-557.471	800.000	-0.009	0.035
-556.456	-19.995	0.179	0.110
-555.442	-200.000	-0.025	0.395
-554.427	-196.200	0.559	0.004
-553.412	-92.289	-0.176	0.049
-552.398	-2.285	-0.336	-0.235
-551.383	800.000	0.074	-0.236
-550.369	433.835	0.098	0.211
-549.354	755.860	-0.082	0.222
-548.339	-200.000	-0.047	0.216
-547.325	23.868	-0.170	-0.140
-546.310	-200.000	-0.053	-0.268
-545.296	-200.000	-0.040	-0.322
-544.281	-200.000	0.046	0.284
-543.266	-200.000	-0.006	0.040
-542.252	-187.205	0.471	-0.006
-541.237	-107.797	0.246	-0.053
-540.223	-200.000	-0.008	-0.192
-539.208	66.892	0.098	-0.099
-538.193	10.561	-0.436	-0.331
-537.179	-200.000	0.046	0.372
-536.164	90.231	-0.211	0.235
-535.150	-200.000	-0.044	-0.221
-534.135	3.948	0.152	-0.110
-533.121	800.000	-0.101	-0.404
-532.106	51.755	-0.101	0.096
-531.091	432.640	0.084	-0.180
-530.077	-95.970	0.104	-0.028
-529.062	-108.696	-0.208	0.044
-528.048	-87.066	0.203	-0.061
-527.033	800.000	-0.025	-0.074
-526.018	242.304	0.078	-0.130
-525.004	376.925	0.151	-0.307
-523.989	-24.792	0.193	-0.114
-522.975	-120.578	0.638	0.108
-521.960	-170.779	-0.429	0.015
-520.945	-64.825	-0.171	-0.069
-519.931	280.768	0.125	0.223
-518.916	118.005	-0.073	-0.090
-517.902	-62.714	-0.252	0.104
-516.887	-200.000	0.000	-0.107
-515.872	-200.000	-0.003	0.151
-514.858	13.439	0.152	0.117
-513.843	-161.410	-0.329	0.017
-512.829	200.764	-0.077	-0.117
-511.814	280.210	-0.062	0.110
-510.799	-200.000	-0.006	0.377
-509.785	16.749	0.163	-0.128
-508.770	216.450	-0.024	0.038
-507.756	-16.737	-0.095	-0.060
-506.741	632.082	-0.045	-0.113
-505.726	800.000	-0.020	-0.076
-504.712	33.940	-0.161	-0.139
-503.697	176.599	-0.204	0.295
-502.683	-200.000	0.034	-0.168
-501.668	-38.828	0.090	-0.047
-500.653	800.000	-0.047	0.195
-499.639	183.040	0.143	-0.210
-498.624	-124.543	-0.240	0.037
-497.610	-16.833	0.235	0.148
-496.595	-200.000	0.023	-0.116
-495.581	800.000	0.070	0.256
-494.566	107.962	-0.107	-0.127
-493.551	-200.000	0.029	0.305
-492.537	-28.523	-0.232	-0.133
-491.522	-141.816	0.248	0.025
-490.508	339.204	-0.049	0.094
-489.493	-36.990	-0.136	-0.072
-488.478	1.447	0.203	0.145
-487.464	-200.000	0.432	0.000
-486.449	-56.408	-0.070	-0.031
-485.435	-85.645	-0.192	-0.059
-484.420	800.000	-0.053	0.207
-483.405	-85.456	0.221	0.068
-482.391	-122.690	0.021	-0.003
-481.376	-200.000	0.071	-0.429
-480.362	-66.380	0.044	-0.017
-479.347	-11.738	-0.234	-0.153
-478.332	-16.632	-0.098	0.062
-477.318	-47.634	-0.188	0.091
-476.303	800.000	-0.042	0.175
-475.289	-200.000	-0.004	0.027
-474.274	-139.733	0.243	-0.026
-473.259	-200.000	-0.107	0.000
-472.245	-200.000	0.010	0.136
-471.230	59.276	-0.165	0.161
-470.216	800.000	0.115	0.362
-469.201	-200.000	-0.008	0.373
-468.186	482.497	-0.142	-0.320
-467.172	-122.132	0.132	-0.022
-466.157	81.035	-0.060	0.065
-465.143	397.048	-0.073	0.153
-464.128	-132.415	-0.232	-0.030
-463.113	800.000	0.087	0.296
-462.099	60.673	-0.189	-0.186
-461.084	45.019	0.243	-0.223
-460.070	196.202	-0.050	0.075
-459.055	800.000	-0.042	0.146
-458.040	114.555	-0.071	0.086
-457.026	128.624	0.187	0.237
-456.011	8.795	-0.155	-0.116
-454.997	-126.013	0.121	0.018
-453.982	98.999	-0.056	-0.064
-452.968	55.040	0.147	0.141
-451.953	215.256	-0.281	0.442
-450.938	-76.625	-0.203	-0.071
-449.924	120.982	0.119	0.146
-448.909	106.270	0.263	0.309
-447.895	800.000	0.070	0.293
-446.880	-16.462	-0.184	0.116
-445.865	627.101	0.127	-0.319
-444.851	739.788	-0.074	-0.197
-443.836	575.395	0.023	0.055
-442.822	188.930	0.144	-0.214
-441.807	-91.846	0.079	0.022
-440.792	800.000	0.008	0.021
-439.778	-44.231	-0.372	0.185
-438.763	-159.860	-0.134	0.007
-437.749	800.000	0.053	0.173
-436.734	-200.000	0.018	-0.340
-435.719	630.284	-0.061	0.153
-434.705	-200.000	-0.017	0.322
-433.690	245.983	-0.117	0.195
-432.676	-59.977	0.188	0.080
-431.661	-200.000	0.003	-0.075
-430.646	-5.399	-0.134	-0.091
-429.632	800.000	-0.051	0.174
-428.617	-179.049	0.087	-0.002
-427.603	-91.008	0.169	0.048
-426.588	800.000	0.065	-0.216
-425.573	-200.000	-0.034	-0.225
-424.559	-3.151	-0.242	-0.168
-423.544	274.390	-0.148	-0.260
-422.530	-42.351	0.068	-0.034
-421.515	-57.031	-0.287	0.125
-420.500	-97.444	0.064	-0.016
-419.486	-200.000	0.013	-0.133
-418.471	-55.668	0.208	0.092
-417.457	227.147	0.119	-0.192
-416.442	-15.893	-0.174	0.110
-415.428	-165.383	0.154	0.007
-414.413	-104.353	-0.232	-0.053
-413.398	-8.973	0.135	0.090
-412.384	174.066	-0.047	0.068
-411.369	-135.858	0.260	-0.030
-410.355	800.000	0.076	0.314
-409.340	-200.000	0.006	-0.144
-408.325	142.893	-0.187	0.247
-407.311	-138.650	0.270	-0.029
-406.296	148.373	0.037	-0.050
-405.282	118.203	0.057	0.070
-404.267	-179.359	-0.306	0.007
-403.252	800.000	0.108	0.441
-402.238	-31.979	-0.189	0.105
-401.223	405.241	-0.042	-0.088
-400.209	-95.066	0.189	-0.051
-399.194	756.622	0.097	-0.260
-398.179	232.079	-0.080	-0.129
-397.165	-200.000	-0.017	0.465
-396.150	800.000	0.094	0.344
-395.136	-169.831	-0.325	-0.012
-394.121	-14.520	0.127	-0.081
-393.106	-200.000	-0.024	-0.320
-392.092	522.638	0.070	0.162
-391.077	175.497	-0.102	-0.146
-390.063	307.631	0.059	-0.109
-389.048	-47.493	0.197	-0.095
-388.033	291.830	-0.036	0.064
-387.019	325.158	0.149	-0.282
-386.004	68.098	-0.025	-0.025
-384.990	-62.816	-0.301	-0.124
-383.975	86.208	-0.100	0.109
-382.960	800.000	0.040	-0.146
-381.946	-5.824	0.133	-0.090
-380.931	-101.097	-0.340	-0.082
-379.917	800.000	0.008	-0.031
-378.902	52.066	-0.175	-0.165
-377.888	89.879	0.197	-0.218
-376.873	-81.468	0.245	0.080
-375.858	489.078	0.082	0.185
-374.844	526.772	0.136	0.317
-373.829	370.561	0.030	-0.061
-372.815	229.934	0.100	0.162
-371.800	-200.000	-0.059	-0.275
-370.785	-200.000	0.007	0.086
-369.771	-46.829	-0.354	0.172
-368.756	0.133	-0.287	0.202
-367.742	-42.115	0.186	0.094
-366.727	-82.957	0.208	-0.067
-365.712	-160.849	0.131	-0.007
-364.698	-60.944	0.252	-0.106
-363.683	800.000	-0.064	0.249
-362.669	88.355	0.127	-0.140
-361.654	-42.202	-0.290	-0.147
-360.639	7.196	0.251	-0.186
-359.625	17.856	0.199	-0.157
-358.610	23.481	-0.138	-0.112
-357.596	-84.196	0.268	0.084
-356.581	40.021	-0.137	-0.122
-355.566	558.071	-0.113	-0.270
-354.552	122.891	0.071	-0.089
-353.537	370.622	-0.133	0.268
-352.523	-20.256	0.141	0.086
-351.508	63.450	-0.147	-0.146
-350.493	-200.000	-0.066	-0.405
-349.479	-61.677	0.208	-0.086
-348.464	800.000	0.069	0.201
-347.450	-62.147	-0.319	-0.132
-346.435	-200.000	-0.011	-0.356
-345.420	-89.729	0.186	0.054
-344.406	-60.636	0.296	-0.124
-343.391	-155.771	-0.096	-0.006
-342.377	498.574	-0.189	-0.431
-341.362	586.912	0.017	0.042
-340.348	192.594	0.102	-0.152
-339.333	118.694	-0.145	0.177
-338.318	56.861	-0.224	-0.216
-337.304	-84.270	0.133	-0.042
-336.289	-147.807	-0.268	0.022
-335.275	-72.015	0.210	0.077
-334.260	-103.055	-0.238	-0.056
-333.245	350.260	0.127	-0.249
-332.231	-135.809	-0.090	0.011
-331.216	-153.464	0.247	0.017
-330.202	800.000	0.069	-0.290
-329.187	-200.000	-0.035	-0.366
-328.172	417.620	-0.074	-0.157
-327.158	-200.000	-0.055	0.259
-326.143	-200.000	-0.010	0.100
-325.129	188.163	-0.219	0.324
-324.114	71.220	0.395	0.405
-323.099	14.896	-0.315	0.244
-322.085	-109.116	-0.247	0.052
-321.070	100.912	0.099	0.113
-320.056	58.308	0.081	0.079
-319.041	-88.768	-0.186	-0.055
-318.026	-172.786	0.452	-0.014
-317.012	36.980	-0.087	-0.076
-315.997	-125.988	0.158	0.023
-314.983	211.005	0.052	-0.081
-313.968	-43.423	0.192	-0.096
-312.953	70.505	-0.282	-0.288
-311.939	-126.421	0.169	0.025
-310.924	800.000	0.108	-0.316
-309.910	223.077	0.136	0.217
-308.895	800.000	-0.024	-0.067
-307.880	-86.358	-0.068	-0.021
-306.866	-48.906	-0.249	0.118
-305.851	47.921	0.249	0.230
-304.837	139.931	-0.117	0.152
-303.822	-131.685	-0.010	-0.001
-302.807	-55.970	-0.302	0.133
-301.793	-175.001	0.167	-0.005
-300.778	217.286	0.167	0.263
-299.764	29.180	-0.065	-0.054
-298.749	322.270	0.146	0.275
-297.735	64.712	0.075	0.075
-296.720	330.264	-0.090	-0.171
-295.705	-161.568	0.193	-0.010
-294.691	-152.877	-0.191	-0.013
-293.676	-44.097	0.265	0.131
-292.662	-11.346	-0.121	0.078
-291.647	-3.012	-0.141	0.097
-290.632	-127.034	-0.056	-0.008
-289.618	-200.000	-0.011	0.443
-288.603	-102.448	0.147	-0.035
-287.589	800.000	-0.072	-0.221
-286.574	55.639	0.185	0.177
-285.559	800.000	-0.028	-0.077
-284.545	-200.000	0.034	-0.225
-283.530	-200.000	0.025	0.292
-282.516	-46.640	-0.271	0.131
-281.501	800.000	0.097	-0.283
-280.486	-200.000	0.037	0.239
-279.472	-81.582	0.110	-0.036
-278.457	12.324	0.079	0.060
-277.443	-9.966	0.402	0.264
-276.428	164.443	0.179	0.249
-275.413	159.280	-0.171	-0.234
-274.399	-140.609	0.131	0.013
-273.384	-75.258	-0.200	0.071
-272.370	-80.484	0.301	0.099
-271.355	159.814	0.233	0.320
-270.340	-200.000	0.016	-0.213
-269.326	-14.519	-0.118	0.075
-268.311	-45.638	-0.101	0.049
-267.297	800.000	0.139	-0.598
-266.282	-200.000	-0.003	0.073
-265.267	-48.781	-0.280	0.132
-264.253	-143.016	0.257	-0.025
-263.238	-73.607	-0.331	-0.119
-262.224	800.000	-0.116	-0.331
-261.209	-58.761	-0.214	-0.091
-260.195	120.328	0.167	-0.204
-259.180	-200.000	-0.029	0.407
-258.165	-200.000	-0.039	-0.218
-257.151	-49.407	-0.265	-0.124
-256.136	-58.382	-0.106	-0.046
-255.122	-55.874	0.323	0.142
-254.107	82.334	0.311	-0.333
-253.092	-8.631	0.150	-0.099
-252.078	-50.018	-0.137	-0.064
-251.063	225.126	-0.062	-0.098
-250.049	617.120	-0.252	-0.623
-249.034	-130.572	-0.124	0.017
-248.019	37.225	0.106	-0.093
-247.005	-200.000	-0.008	0.181
-245.990	63.168	0.323	0.318
-244.976	587.372	0.017	0.041
-243.961	800.000	-0.018	0.065
-242.946	-200.000	-0.039	-0.427
-241.932	-200.000	0.029	0.188
-240.917	236.944	0.066	0.107
-239.903	800.000	0.056	-0.175
-238.888	290.223	-0.108	-0.194
-237.873	-60.805	-0.224	-0.093
-236.859	-76.837	0.378	0.130
-235.844	-88.707	-0.225	0.066
-234.830	-40.152	0.428	0.220
-233.815	-44.707	0.229	-0.113
-232.800	156.863	0.160	-0.217
-231.786	-200.000	0.075	-0.456
-230.771	-147.880	-0.078	0.006
-229.757	-200.000	0.029	-0.253
-228.742	-46.326	0.021	-0.010
-227.727	-158.081	0.054	0.003
-226.713	-21.245	0.129	0.078
-225.698	179.213	-0.145	-0.208
-224.684	-200.000	-0.025	-0.243
-223.669	800.000	0.043	0.122
-222.655	-200.000	0.032	-0.209
-221.640	800.000	0.039	0.123
-220.625	68.692	-0.155	-0.157
-219.611	-36.286	-0.141	-0.075
-218.596	97.570	-0.338	0.383
-217.582	-200.000	0.033	0.300
-216.567	-138.375	-0.119	-0.013
-215.552	-144.808	0.209	-0.019
-214.538	180.582	0.106	-0.153
-213.523	-200.000	-0.012	0.268
-212.509	331.008	-0.184	0.350
-211.494	112.980	0.272	0.325
-210.479	800.000	-0.113	0.438
-209.465	-200.000	0.007	-0.051
-208.450	156.089	-0.192	0.261
-207.436	71.800	-0.147	-0.150
-206.421	-200.000	-0.032	0.421
-205.406	-200.000	-0.030	-0.157
-204.392	95.931	0.156	0.176
-203.377	-100.238	-0.018	0.004
-202.363	-16.196	0.282	-0.176
-201.348	-11.698	-0.155	-0.100
-200.333	94.270	0.120	-0.134
-199.319	121.399	0.104	-0.128
-198.304	-96.497	0.070	0.018
-197.290	77.500	0.179	0.187
-196.275	38.947	-0.272	0.239
-195.260	17.943	-0.104	0.081
-194.246	316.554	-0.187	0.347
-193.231	91.189	0.152	-0.168
-192.217	-138.990	-0.149	-0.016
-191.202	-107.280	0.236	0.051
-190.187	129.380	-0.167	0.209
-189.173	-200.000	-0.018	-0.191
-188.158	-116.158	-0.048	0.009
-187.144	-164.743	0.070	0.003
-186.129	443.731	0.142	0.307
-185.114	-37.485	-0.322	0.169
-184.100	242.646	-0.183	0.301
-183.085	-200.000	0.002	0.023
-182.071	-68.103	0.109	0.042
-181.056	169.552	0.182	0.256
-180.042	47.418	0.125	0.115
-179.027	679.020	-0.101	-0.258
-178.012	58.037	0.264	-0.254
-176.998	800.000	0.056	-0.228
-175.983	-60.108	0.261	-0.109
-174.969	-60.288	-0.237	0.099
-173.954	345.689	0.067	0.129
-172.939	271.320	-0.199	0.345
-171.925	-141.411	-0.148	-0.015
-170.910	64.310	0.112	0.111
-169.896	800.000	-0.056	0.225
-168.881	94.058	-0.365	0.407
-167.866	-71.599	0.233	0.086
-166.852	159.017	-0.137	-0.187
-165.837	-173.271	-0.273	-0.008
-164.823	-45.848	0.055	-0.027
-163.808	142.126	0.140	-0.182
-162.793	146.217	0.117	0.154
-161.779	-86.310	-0.124	-0.037
-160.764	89.161	0.136	-0.149
-159.750	-116.392	-0.182	-0.033
-158.735	-200.000	0.044	0.517
-157.720	20.114	0.173	-0.137
-156.706	-16.537	-0.179	0.111
-155.691	144.632	-0.082	0.108
-154.677	-64.571	0.364	-0.145
-153.662	278.735	-0.156	-0.273
-152.647	-200.000	-0.004	-0.210
-151.633	-49.210	0.213	0.100
-150.618	-141.229	0.153	0.015
-149.604	33.322	-0.126	0.107
-148.589	-67.161	0.125	0.048
-147.574	-90.130	-0.112	-0.032
-146.560	-77.846	0.260	0.088
-145.545	147.521	-0.101	-0.134
-144.531	176.297	0.113	0.161
-143.516	-200.000	-0.043	0.205
-142.502	8.956	0.237	-0.175
-141.487	-129.595	0.281	0.038
-140.472	-86.580	-0.120	-0.036
-139.458	-122.383	0.098	-0.016
-138.443	-200.000	-0.029	-0.182
-137.429	795.101	0.060	-0.162
-136.414	-200.000	-0.000	0.157
-135.399	63.101	0.282	-0.277
-134.385	-83.327	0.205	0.065
-133.370	107.859	0.085	0.100
-132.356	172.157	0.065	-0.092
-131.341	-58.729	0.150	-0.064
-130.326	-22.564	0.253	0.150
-129.312	-159.290	0.237	-0.013
-128.297	-102.095	0.468	0.111
-127.283	-3.790	0.231	0.157
-126.268	-200.000	-0.033	0.150
-125.253	113.481	0.065	0.077
-124.239	-167.301	0.120	0.005
-123.224	0.542	-0.149	0.105
-122.210	-200.000	-0.019	0.189
-121.195	337.618	-0.176	-0.336
-120.180	441.853	-0.078	-0.168
-119.166	-200.000	-0.061	0.315
-118.151	-200.000	-0.034	0.189
-117.137	-137.239	0.196	0.022
-116.122	-3.764	-0.209	0.142
-115.107	-177.340	-0.228	0.006
-114.093	-200.000	0.057	-0.365
-113.078	-200.000	-0.018	0.193
-112.064	-155.939	-0.449	0.028
-111.049	-33.468	0.305	-0.165
-110.034	-30.665	0.178	0.098
-109.020	-200.000	0.073	-0.352
-108.005	-110.351	-0.123	-0.025
-106.991	182.333	-0.097	0.140
-105.976	-153.138	-0.283	0.019
-104.962	-200.000	-0.021	-0.198
-103.947	49.334	0.114	0.105
-102.932	10.550	0.055	-0.041
-101.918	-200.000	-0.017	0.137
-100.903	800.000	-0.054	0.179
-99.889	-59.868	-0.155	-0.065
-98.874	407.879	0.093	-0.193
-97.859	-125.906	-0.362	0.053
-96.845	-30.526	-0.262	-0.145
-95.830	-200.000	0.026	0.118
-94.816	22.853	0.334	0.268
-93.801	63.040	-0.234	0.230
-92.786	-200.000	0.015	0.125
-91.772	-101.448	0.139	-0.033
-90.757	-70.572	0.198	-0.074
-89.743	113.730	-0.077	0.092
-88.728	47.002	-0.116	-0.105
-87.713	-200.000	-0.003	-0.021
-86.699	-18.944	-0.173	-0.105
-85.684	-200.000	0.014	0.168
-84.670	-89.350	0.089	-0.026
-83.655	8.222	0.145	-0.107
-82.640	205.094	-0.056	-0.085
-81.626	-179.982	0.392	-0.008
-80.611	-113.547	-0.403	0.077
-79.597	446.205	0.067	0.145
-78.582	-84.616	0.169	0.052
-77.567	-200.000	0.013	0.163
-76.553	-51.770	0.464	-0.212
-75.538	60.714	0.253	-0.245
-74.524	148.105	-0.287	-0.379
-73.509	594.371	0.085	-0.207
-72.494	491.260	0.200	0.449
-71.480	647.598	0.044	0.111
-70.465	157.703	0.137	-0.185
-69.451	89.265	-0.156	0.170
-68.436	324.418	0.132	0.247
-67.422	29.118	0.272	0.226
-66.407	236.450	0.146	-0.236
-65.392	800.000	-0.036	-0.103
-64.378	800.000	0.074	0.206
-63.363	800.000	-0.030	-0.102
-62.349	-94.701	-0.275	0.073
-61.334	208.009	-0.991	-1.513
-60.319	252.950	0.519	0.866
-59.305	-200.000	-0.068	-1.015
-58.290	800.000	0.394	1.417
-57.276	519.826	0.634	1.453
-56.261	-200.000	116.148	651.378
-55.246	520.807	1527.554	3502.659
-54.232	178.052	2693.548	3841.638
-53.217	106.690	2143.473	2486.330
-52.203	38.448	1583.512	1379.720
-51.188	30.219	1328.412	1108.472
-50.173	27.306	1290.156	1059.567
-49.159	53.568	1347.941	1264.136
-48.144	52.035	1361.362	1267.567
-47.130	30.357	1316.271	1098.981
-46.115	27.092	1297.923	1064.521
-45.100	26.771	1293.320	1058.831
-44.086	26.758	1290.563	1056.454
-43.071	26.730	1288.123	1054.253
-42.057	26.675	1286.448	1052.522
-41.042	26.779	1284.261	1051.291
-40.027	26.732	1282.955	1049.910
-39.013	26.674	1281.176	1048.077
-37.998	26.768	1279.321	1047.060
-36.984	26.884	1277.630	1046.306
-35.969	26.840	1275.704	1044.435
-34.954	26.779	1273.981	1042.633
-33.940	26.858	1272.620	1041.927
-32.925	27.071	1271.569	1042.249
-31.911	26.927	1270.021	1040.115
-30.896	26.876	1268.830	1038.807
-29.881	27.066	1267.000	1038.350
-28.867	27.083	1265.595	1037.255
-27.852	27.093	1264.112	1036.058
-26.838	27.093	1262.976	1035.083
-25.823	27.049	1261.653	1033.709
-24.809	26.918	1260.433	1031.922
-23.794	26.810	1259.755	1030.714
-22.779	26.937	1258.028	1029.979
-21.765	26.950	1256.538	1028.792
-20.750	26.980	1255.180	1027.812
-19.736	26.883	1253.678	1025.989
-18.721	26.853	1253.173	1025.366
-17.706	26.889	1251.473	1024.142
-16.692	26.910	1250.392	1023.336
-15.677	26.879	1249.609	1022.479
-14.663	26.929	1248.485	1021.797
-13.648	26.769	1247.800	1020.297
-12.633	26.837	1246.523	1019.594
-11.619	26.869	1245.473	1018.873
-10.604	26.753	1244.824	1017.650
-9.590	26.867	1243.757	1017.378
-8.575	26.849	1242.816	1016.469
-7.560	26.868	1241.979	1015.848
-6.546	26.835	1241.312	1015.079
-5.531	26.869	1240.699	1014.726
-4.517	26.800	1239.881	1013.629
-3.502	26.883	1238.807	1013.180
-2.487	26.786	1237.857	1011.817
-1.473	26.767	1233.342	1007.982
-0.458	25.194	1218.186	986.912
0.556	21.686	1201.628	947.845
1.571	17.968	1207.350	932.021
2.586	17.085	1222.301	938.601
3.600	16.843	1209.806	927.597
4.615	12.704	1139.361	852.133
5.629	6.109	1069.243	767.501
6.644	3.305	1051.821	741.445
7.659	3.086	1049.751	738.870
8.673	3.189	1048.654	738.526
9.688	3.160	1047.719	737.661
10.702	3.369	1045.213	736.832
11.717	7.170	1050.066	758.419
12.731	14.435	1060.674	801.047
13.746	19.042	1066.548	827.622
14.761	19.751	1066.724	831.096
15.775	19.013	1064.904	826.063
16.790	17.998	1063.124	819.742
17.804	17.345	1061.492	815.277
18.819	16.986	1060.648	812.841
19.834	16.944	1059.733	811.867
20.848	16.705	1059.155	810.209
21.863	16.571	1058.254	808.805
22.877	16.318	1057.790	807.171
23.892	16.343	1056.973	806.595
24.907	16.368	1056.124	805.996
25.921	16.332	1055.107	804.977
26.936	16.384	1053.730	804.102
27.950	16.281	1052.646	802.711
28.965	16.614	1050.589	802.655
29.980	16.740	1049.147	802.076
30.994	16.647	1048.226	800.861
32.009	16.743	1047.775	800.900
33.023	16.640	1046.216	799.151
34.038	16.681	1044.758	798.161
35.053	16.551	1044.152	797.016
36.067	16.487	1043.380	796.055
37.082	16.613	1042.691	796.051
38.096	16.625	1042.189	795.654
39.111	16.590	1041.630	794.992
40.126	16.333	1040.331	792.724
41.140	16.162	1038.996	790.836
42.155	16.122	1037.233	789.238
43.169	16.119	1036.538	788.623
44.184	16.081	1035.300	787.434
45.199	16.117	1034.778	787.134
46.213	16.244	1034.140	787.171
47.228	16.440	1032.921	787.088
48.242	16.347	1032.240	786.065
49.257	16.376	1030.949	785.147
50.271	16.651	1029.697	785.400
51.286	16.415	1029.233	783.884
52.301	16.461	1028.340	783.347
53.315	16.456	1027.090	782.302
54.330	16.282	1026.484	780.966
55.344	16.298	1025.805	780.454
56.359	16.297	1024.742	779.572
57.374	16.213	1023.746	778.358
58.388	16.238	1022.453	777.422
59.403	16.156	1021.814	776.492
60.417	16.170	1021.315	776.105
61.432	16.032	1020.491	774.778
62.447	15.906	1019.594	773.449
63.461	15.926	1018.614	772.730
64.476	16.014	1017.418	772.158
65.490	16.022	1016.246	771.236
66.505	16.052	1016.129	771.218
67.520	16.090	1015.230	770.638
68.534	16.034	1014.348	769.648
69.549	16.063	1013.625	769.163
70.563	15.933	1013.091	768.096
71.578	15.885	1011.974	766.963
72.593	15.862	1011.324	766.299
73.607	15.771	1010.497	765.188
74.622	15.837	1010.094	765.114
75.636	15.856	1009.133	764.408
76.651	15.872	1008.498	763.932
77.666	15.944	1007.928	763.759
78.680	15.906	1007.692	763.340
79.695	16.049	1006.940	763.351
80.709	16.091	1006.172	762.888
81.724	16.099	1005.515	762.362
82.739	16.274	1004.988	762.682
83.753	16.432	1004.100	762.656
84.768	16.544	1003.658	762.757
85.782	16.793	1002.211	762.713
86.797	16.759	1001.116	761.658
87.812	16.565	1000.438	760.204
88.826	16.461	999.949	759.299
89.841	16.572	998.758	758.823
90.855	16.764	997.879	758.947
91.870	16.706	997.231	758.129
92.884	16.642	996.519	757.232
93.899	16.632	995.552	756.389
94.914	16.669	994.936	756.019
95.928	16.785	993.633	755.479
96.943	16.639	992.768	754.105
97.957	16.533	992.297	753.207
98.972	16.500	991.184	752.151
99.987	16.641	990.335	752.063
101.001	16.636	989.495	751.340
102.016	16.483	988.920	750.156
103.030	16.775	987.613	750.393
104.045	16.587	987.453	749.372
105.060	16.498	986.570	748.240
106.074	16.325	984.881	746.128
107.089	16.252	983.932	745.023
108.103	16.053	983.555	743.795
109.118	16.165	982.378	743.329
110.133	16.208	981.067	742.461
111.147	16.191	980.358	741.784
112.162	16.268	979.933	741.738
113.176	16.275	979.142	741.105
114.191	16.312	978.660	740.836
115.206	16.273	977.920	740.038
116.220	16.296	977.064	739.427
117.235	16.226	976.020	738.265
118.249	16.072	975.100	736.827
119.264	16.186	973.858	736.322
120.279	16.142	973.457	735.763
121.293	16.232	972.126	735.083
122.308	16.178	971.483	734.299
123.322	15.932	970.471	732.400
124.337	16.013	969.585	732.016
125.352	16.077	968.640	731.515
126.366	16.037	967.271	730.245
127.381	15.958	966.466	729.228
128.395	15.998	965.902	728.913
129.410	16.116	964.659	728.421
130.424	16.142	964.158	728.090
131.439	16.237	963.046	727.595
132.454	16.326	962.444	727.457
133.468	16.245	962.139	726.813
134.483	16.269	961.154	726.111
135.497	16.405	959.867	725.656
136.512	16.340	959.138	724.763
137.527	16.273	958.507	723.935
138.541	16.283	957.944	723.489
139.556	16.440	957.055	723.428
140.570	16.494	956.487	723.164
141.585	16.715	955.613	723.385
142.600	16.698	954.772	722.610
143.614	16.835	953.766	722.371
144.629	16.757	953.182	721.532
145.643	16.746	952.480	720.889
146.658	16.475	951.400	718.854
147.673	16.454	950.315	717.883
148.687	16.364	949.410	716.751
149.702	16.342	948.778	716.118
150.716	16.263	947.896	715.055
151.731	16.442	946.955	715.040
152.746	16.401	946.414	714.397
153.760	16.260	946.376	713.705
154.775	16.466	945.604	713.931
155.789	16.637	944.438	713.710
156.804	16.709	943.531	713.264
157.819	16.710	943.143	712.913
158.833	16.770	942.688	712.759
159.848	16.869	941.758	712.406
160.862	16.749	940.370	710.790
161.877	16.509	939.462	709.035
162.892	16.367	938.944	707.986
163.906	16.412	937.667	707.150
164.921	16.431	936.846	706.549
165.935	16.554	935.787	706.199
166.950	16.592	935.080	705.760
167.964	16.500	934.432	704.825
168.979	16.591	932.955	704.028
169.994	16.525	932.437	703.299
171.008	16.567	932.000	703.086
172.023	16.775	931.168	703.257
173.037	16.749	930.541	702.616
174.052	16.612	929.487	701.190
175.067	16.435	928.613	699.736
176.081	16.373	928.783	699.543
177.096	16.491	928.224	699.551
178.110	16.416	927.748	698.818
179.125	16.632	926.999	699.083
180.140	16.398	926.663	697.805
181.154	16.681	925.874	698.313
182.169	16.733	925.945	698.522
183.183	16.840	924.955	698.154
184.198	16.939	923.935	697.731
185.213	16.850	923.288	696.814
186.227	16.956	922.895	696.890
187.242	17.007	922.357	696.630
188.256	17.043	921.940	696.402
189.271	17.032	920.741	695.389
190.286	16.731	920.238	693.715
191.300	16.294	919.483	691.295
192.315	16.313	918.864	690.848
193.329	16.357	918.452	690.659
194.344	16.641	917.510	691.045
195.359	16.550	917.311	690.464
196.373	16.780	916.366	690.630
197.388	16.915	916.577	691.277
198.402	17.001	916.273	691.339
199.417	17.212	914.944	691.133
200.432	17.310	914.700	691.284
201.446	17.257	914.124	690.575
202.461	17.349	913.766	690.614
203.475	17.316	912.875	689.746
204.490	17.113	912.142	688.308
205.504	16.899	911.640	687.002
206.519	16.912	910.923	686.453
207.534	16.968	910.205	686.079
208.548	16.973	909.599	685.582
209.563	17.143	908.762	685.576
210.577	17.236	907.998	685.315
211.592	17.350	907.316	685.199
212.607	17.264	906.656	684.294
213.621	17.240	906.359	683.914
214.636	17.204	905.425	683.003
215.650	17.169	904.658	682.224
216.665	17.214	904.462	682.194
217.680	17.311	903.910	682.108
218.694	17.477	902.810	681.882
219.709	17.513	901.942	681.308
220.723	17.478	901.353	680.665
221.738	17.368	900.677	679.655
222.753	17.313	900.059	678.909
223.767	17.332	900.176	679.015
224.782	17.657	899.312	679.599
225.796	17.596	898.726	678.851
226.811	17.599	897.989	678.247
227.826	17.423	896.897	676.663
228.840	17.359	896.239	675.853
229.855	17.302	895.618	675.097
230.869	17.235	894.750	674.118
231.884	17.096	894.901	673.621
232.899	17.239	893.496	673.067
233.913	17.273	892.544	672.429
234.928	17.263	891.954	671.882
235.942	17.068	891.771	670.916
236.957	17.230	891.003	670.918
237.972	17.198	890.736	670.531
238.986	17.084	890.443	669.802
240.001	17.256	889.362	669.607
241.015	17.379	888.923	669.702
242.030	17.322	888.598	669.171
243.045	17.431	887.449	668.676
244.059	17.377	887.129	668.166
245.074	17.518	886.627	668.280
246.088	17.572	885.732	667.760
247.103	17.660	885.167	667.617
248.117	17.785	885.020	667.937
249.132	17.938	884.536	668.113
250.147	17.945	883.985	667.665
251.161	18.055	883.261	667.487
252.176	18.087	882.928	667.301
253.190	18.274	881.997	667.269
254.205	18.142	881.519	666.335
255.220	18.038	880.832	665.352
256.234	18.201	880.489	665.667
257.249	18.041	879.903	664.543
258.263	18.074	878.702	663.706
259.278	18.133	878.355	663.612
260.293	18.195	877.941	663.484
261.307	18.264	877.161	663.102
262.322	18.196	876.544	662.314
263.336	18.283	875.817	662.043
264.351	18.321	874.937	661.464
265.366	18.343	874.455	661.125
266.380	18.379	873.760	660.682
267.395	18.233	873.114	659.573
268.409	18.263	871.773	658.618
269.424	18.098	871.555	657.758
270.439	18.130	870.935	657.353
271.453	18.108	870.248	656.693
272.468	18.086	869.542	656.018
273.482	18.074	869.052	655.543
274.497	18.214	868.526	655.627
275.512	18.161	867.899	654.894
276.526	18.015	867.962	654.321
277.541	18.106	867.417	654.202
278.555	18.378	866.290	654.334
279.570	18.545	865.949	654.655
280.585	18.500	865.014	653.718
281.599	18.462	864.009	652.759
282.614	18.330	863.396	651.735
283.628	18.378	862.720	651.350
284.643	18.209	862.157	650.223
285.657	18.352	861.734	650.390
286.672	18.538	860.863	650.380
287.687	18.336	860.402	649.208
288.701	18.336	859.846	648.732
289.716	18.302	859.351	648.171
290.730	18.310	859.148	647.992
291.745	18.452	858.210	647.766
292.760	18.595	857.354	647.601
293.774	18.591	856.821	647.126
294.789	18.476	856.381	646.305
295.803	18.451	855.637	645.589
296.818	18.258	854.994	644.322
297.833	18.386	854.525	644.392
298.847	18.433	853.994	644.111
299.862	18.499	853.144	643.660
300.876	18.710	852.837	644.165
301.891	18.664	852.344	643.563
302.906	18.624	851.730	642.895
303.920	18.926	851.179	643.552
304.935	18.889	850.557	642.885
305.949	18.824	849.640	641.891
306.964	18.575	849.305	640.653
307.979	18.726	848.912	640.862
308.993	18.851	848.305	640.813
310.008	18.798	847.958	640.297
311.022	18.642	847.596	639.387
312.037	18.628	846.853	638.717
313.052	18.557	845.627	637.471
314.066	18.517	845.193	636.939
315.081	18.529	845.032	636.808
316.095	18.510	844.147	636.014
317.110	18.510	843.648	635.581
318.125	18.534	843.050	635.163
319.139	18.710	842.530	635.366
320.154	18.605	841.770	634.348
321.168	18.760	841.411	634.596
322.183	18.651	841.110	633.907
323.197	18.701	840.820	633.819
324.212	18.719	840.184	633.350
325.227	18.810	839.485	633.101
326.241	18.701	838.885	632.193
327.256	18.665	838.181	631.473
328.270	18.551	837.979	630.848
329.285	18.708	837.284	630.845
330.300	18.634	836.425	629.868
331.314	18.623	836.010	629.460
332.329	18.894	835.902	630.317
333.343	18.959	835.215	629.982
334.358	18.899	835.193	629.690
335.373	18.968	834.581	629.424
336.387	18.887	834.522	629.029
337.402	18.987	834.150	629.060
338.416	19.090	833.954	629.232
339.431	19.060	833.498	628.722
340.446	19.302	833.093	629.244
341.460	19.363	832.597	629.039
342.475	19.346	832.169	628.596
343.489	19.411	831.618	628.361
344.504	19.414	831.447	628.187
345.519	19.480	831.060	628.081
346.533	19.285	830.614	626.975
347.548	19.225	829.877	626.149
348.562	19.178	829.256	625.454
349.577	19.118	828.357	624.504
350.592	19.212	827.146	623.875
351.606	18.907	826.922	622.545
352.621	18.982	826.582	622.507
353.635	19.077	825.918	622.295
354.650	19.110	825.338	621.920
355.665	19.177	824.685	621.616
356.679	19.214	824.030	621.202
357.694	19.226	823.836	621.043
358.708	19.467	822.493	620.842
359.723	19.427	822.125	620.365
360.738	19.329	821.545	619.522
361.752	19.389	821.155	619.388
362.767	19.530	820.539	619.376
363.781	19.558	820.259	619.207
364.796	19.751	819.806	619.505
365.810	19.618	819.652	618.855
366.825	19.790	819.298	619.149
367.840	19.719	818.458	618.207
368.854	19.597	818.176	617.503
369.869	19.537	817.722	616.891
370.883	19.636	816.842	616.524
371.898	19.813	816.529	616.864
372.913	19.876	816.137	616.740
373.927	19.735	815.708	615.858
374.942	19.796	815.184	615.625
375.956	19.732	815.393	615.503
376.971	20.021	814.703	615.954
377.986	20.069	814.040	615.567
379.000	19.850	813.995	614.702
380.015	19.979	813.041	614.385
381.029	19.962	812.481	613.846
382.044	19.984	811.481	613.115
383.059	19.948	811.476	612.929
384.073	19.902	810.880	612.264
385.088	19.629	810.160	610.700
386.102	19.647	809.580	610.274
387.117	19.775	808.739	610.035
388.132	19.792	808.298	609.708
389.146	19.834	807.919	609.518
390.161	19.790	807.643	609.100
391.175	20.084	806.914	609.531
392.190	19.971	806.847	609.030
393.205	19.830	806.267	608.043
394.219	19.706	805.818	607.215
395.234	19.875	804.914	607.073
396.248	19.627	804.786	606.050
397.263	19.553	804.478	605.507
398.278	19.600	804.094	605.330
399.292	19.636	803.234	604.753
400.307	19.549	803.253	604.410
401.321	19.726	802.783	604.623
402.336	19.752	801.926	604.013
403.350	19.703	801.788	603.683
404.365	20.085	801.049	604.407
405.380	20.263	800.906	604.868
406.394	20.077	800.694	604.005
407.409	20.181	800.163	603.915
408.423	20.166	800.212	603.847
409.438	20.276	799.642	603.743
410.453	20.364	799.202	603.665
411.467	20.430	798.640	603.417
412.482	20.458	798.174	603.107
413.496	20.485	797.547	602.674
414.511	20.480	797.738	602.746
415.526	20.203	796.983	601.165
416.540	20.381	796.275	601.193
417.555	20.280	796.271	600.788
418.569	20.480	795.680	600.981
419.584	20.376	795.405	600.358
420.599	20.457	794.668	600.031
421.613	162.412	1371.829	1796.660
422.628	140.843	1455.913	1796.737
