DTS Sentinel unit serial number:	SN413079Multiplexer serial number:	ORYXHardware model number:	OX4-SRSoftware version number:	ORYX F/W v4.00 Oryx Data Collector v3.7.2.0data status	okinstallation	princeton_trtdifferential loss correction	single-endedforward channel	channel 1reverse channel	N/Adate	2019/09/14time	20:42:35forward acquisition time	60.00reverse acquisition time	0.00gamma	496.2192k internal	0.2316k external	0.2316temperature offset calibration	1.0018default loss term (dB/km)	0.3790temperature slope calibration	1.0000multiplexer offset coefficient	1.0000multiplexer slope coefficient	1.0000fibre end	0.00T internal ref (°C)	33.37T ext. ref 1 (°C)	4.78T ext. ref 2 (°C)	28.01length (m)	temperature (°C)	Stokes	anti-Stokes-747.200	-135.291	-0.448	0.054
-746.185	800.000	0.039	0.128
-745.171	43.083	-0.077	-0.071
-744.156	-200.000	-0.024	0.144
-743.142	-90.171	-0.167	-0.049
-742.127	-122.827	-0.289	-0.047
-741.112	-200.000	0.005	0.096
-740.098	-200.000	-0.008	0.068
-739.083	-107.465	0.164	0.036
-738.069	800.000	0.120	0.342
-737.054	-28.217	0.414	0.242
-736.039	157.099	-0.086	0.121
-735.025	-57.860	-0.094	-0.042
-734.010	593.511	-0.091	0.227
-732.996	-192.339	-0.181	0.002
-731.981	800.000	-0.023	-0.069
-730.966	28.462	0.057	-0.049
-729.952	800.000	-0.062	-0.210
-728.937	305.670	-0.118	-0.222
-727.923	167.393	-0.194	-0.278
-726.908	-200.000	0.109	-0.586
-725.894	-44.037	0.280	-0.142
-724.879	-93.890	-0.417	0.116
-723.864	-47.021	-0.239	-0.118
-722.850	-200.000	-0.044	-0.210
-721.835	-200.000	0.006	-0.123
-720.821	5.204	-0.074	-0.055
-719.806	-190.945	-0.231	0.002
-718.791	174.050	-0.175	0.256
-717.777	800.000	-0.110	0.423
-716.762	264.527	-0.138	0.243
-715.748	-200.000	0.048	0.282
-714.733	751.606	0.157	-0.429
-713.718	800.000	0.065	0.186
-712.704	-71.302	-0.116	-0.044
-711.689	-105.623	-0.223	-0.051
-710.675	465.934	0.067	0.152
-709.660	-200.000	-0.007	0.078
-708.645	207.958	-0.083	-0.132
-707.631	-146.539	0.266	-0.023
-706.616	276.479	-0.063	0.113
-705.602	19.376	0.318	0.258
-704.587	800.000	0.065	0.192
-703.572	-80.830	-0.114	0.038
-702.558	158.407	0.123	0.173
-701.543	122.944	0.107	0.135
-700.529	-158.438	0.189	0.011
-699.514	-200.000	0.003	-0.014
-698.499	-200.000	0.029	-0.189
-697.485	-146.608	0.197	0.017
-696.470	52.479	0.080	0.077
-695.456	64.443	0.076	-0.077
-694.441	-55.450	-0.469	-0.213
-693.426	-110.441	0.147	-0.031
-692.412	-51.107	-0.205	-0.097
-691.397	369.385	-0.063	0.129
-690.383	232.421	0.178	-0.295
-689.368	-81.212	0.256	0.085
-688.354	404.164	0.051	-0.109
-687.339	800.000	-0.111	-0.322
-686.324	-200.000	0.009	-0.130
-685.310	-200.000	0.036	-0.190
-684.295	146.597	-0.128	-0.173
-683.281	800.000	-0.112	-0.312
-682.266	-70.428	-0.531	0.203
-681.251	-88.806	-0.130	0.039
-680.237	150.226	0.025	0.035
-679.222	-184.602	0.186	0.003
-678.208	800.000	-0.110	-0.388
-677.193	-15.938	-0.239	-0.154
-676.178	-44.413	-0.404	-0.204
-675.164	-141.593	0.251	-0.026
-674.149	-30.676	0.175	0.100
-673.135	-200.000	-0.068	0.000
-672.120	183.052	0.143	-0.213
-671.105	374.148	0.046	-0.095
-670.091	18.144	0.027	-0.022
-669.076	-200.000	-0.022	-0.303
-668.062	40.145	-0.156	0.142
-667.047	-75.720	0.388	-0.139
-666.032	22.231	0.472	-0.390
-665.018	-200.000	0.039	0.204
-664.003	-53.006	-0.147	0.068
-662.989	-200.000	0.049	-0.247
-661.974	150.309	0.261	-0.358
-660.959	181.456	-0.298	0.442
-659.945	-179.918	-0.176	0.004
-658.930	68.335	-0.114	0.118
-657.916	166.038	-0.031	0.044
-656.901	56.619	-0.155	0.152
-655.886	800.000	0.028	0.088
-654.872	-159.257	-0.242	-0.014
-653.857	-40.237	0.098	-0.051
-652.843	85.781	0.182	-0.202
-651.828	52.621	-0.141	-0.136
-650.814	727.321	-0.037	0.099
-649.799	-26.244	-0.105	-0.062
-648.784	-88.736	0.202	0.061
-647.770	88.603	-0.058	-0.065
-646.755	-200.000	-0.053	0.265
-645.741	-200.000	0.001	-0.058
-644.726	-111.673	-0.158	-0.032
-643.711	800.000	0.061	-0.240
-642.697	-57.166	0.100	0.044
-641.682	800.000	0.060	0.178
-640.668	-10.848	-0.234	-0.156
-639.653	-200.000	0.029	-0.199
-638.638	-200.000	-0.006	-0.144
-637.624	-121.243	-0.203	-0.034
-636.609	420.247	0.058	-0.125
-635.595	-165.733	-0.050	0.002
-634.580	17.019	-0.093	0.075
-633.565	-132.055	-0.196	0.026
-632.551	536.528	0.170	-0.406
-631.536	255.139	0.047	-0.080
-630.522	-144.678	0.327	0.030
-629.507	-109.566	-0.113	0.024
-628.492	473.729	0.083	0.189
-627.478	-107.619	-0.048	-0.011
-626.463	-200.000	0.033	-0.275
-625.449	-200.000	0.023	-0.230
-624.434	-50.240	0.093	-0.044
-623.419	-200.000	-0.015	0.087
-622.405	-200.000	0.050	0.333
-621.390	-200.000	-0.041	0.275
-620.376	800.000	-0.048	-0.173
-619.361	800.000	-0.086	-0.269
-618.346	90.332	0.147	-0.166
-617.332	-133.909	0.194	-0.024
-616.317	-200.000	-0.069	-0.311
-615.303	-68.587	0.325	-0.127
-614.288	657.627	-0.122	-0.317
-613.273	32.476	-0.201	0.175
-612.259	85.620	-0.053	-0.059
-611.244	-118.473	-0.147	0.026
-610.230	-43.356	0.360	0.184
-609.215	426.867	-0.072	0.156
-608.201	-68.456	-0.128	-0.050
-607.186	-15.201	-0.161	-0.104
-606.171	417.820	0.168	-0.361
-605.157	800.000	-0.014	-0.040
-604.142	-200.000	-0.062	-0.279
-603.128	7.893	0.219	-0.166
-602.113	-73.765	0.192	0.070
-601.098	687.770	0.091	0.239
-600.084	-44.260	0.091	-0.046
-599.069	87.508	0.071	-0.079
-598.055	4.274	0.048	-0.036
-597.040	435.738	-0.068	-0.148
-596.025	196.697	0.154	0.236
-595.011	-200.000	0.016	-0.110
-593.996	800.000	-0.033	-0.119
-592.982	800.000	0.080	-0.321
-591.967	-86.603	-0.181	0.056
-590.952	-34.830	-0.156	-0.086
-589.938	800.000	-0.035	-0.108
-588.923	-75.174	-0.098	0.035
-587.909	-175.117	-0.082	0.002
-586.894	142.705	0.134	-0.179
-585.879	-98.794	-0.138	0.035
-584.865	-31.690	-0.273	0.154
-583.850	290.483	-0.125	-0.229
-582.836	-70.628	0.115	0.044
-581.821	-14.894	-0.156	0.101
-580.806	-200.000	-0.046	0.322
-579.792	551.415	0.085	-0.206
-578.777	800.000	0.051	-0.196
-577.763	800.000	-0.046	-0.189
-576.748	103.654	0.205	0.243
-575.733	48.582	0.095	0.090
-574.719	194.973	-0.120	0.184
-573.704	-149.961	0.167	0.013
-572.690	402.371	0.050	0.106
-571.675	-178.308	0.016	-0.000
-570.661	800.000	-0.077	-0.274
-569.646	-200.000	-0.009	0.135
-568.631	-200.000	0.274	0.001
-567.617	-114.406	-0.334	-0.065
-566.602	89.433	0.137	0.154
-565.588	11.210	-0.100	-0.077
-564.573	91.355	-0.149	0.168
-563.558	-200.000	-0.025	0.300
-562.544	-157.083	-0.261	0.016
-561.529	-48.425	-0.047	-0.023
-560.515	-101.952	-0.223	-0.054
-559.500	-46.998	-0.166	0.082
-558.485	-80.270	-0.106	-0.036
-557.471	-92.575	-0.360	-0.102
-556.456	314.067	0.261	0.494
-555.442	-200.000	-0.018	0.136
-554.427	-59.139	-0.313	0.136
-553.412	162.222	0.060	-0.084
-552.398	-200.000	0.041	-0.261
-551.383	-200.000	0.067	-0.595
-550.369	390.081	-0.083	0.174
-549.354	-200.000	-0.016	0.226
-548.339	163.798	0.025	0.036
-547.325	-75.321	0.229	0.082
-546.310	800.000	-0.056	-0.159
-545.296	44.892	0.150	-0.139
-544.281	800.000	-0.035	0.125
-543.266	176.607	0.190	0.278
-542.252	-103.630	0.138	0.032
-541.237	424.330	0.147	-0.318
-540.223	76.339	0.090	-0.095
-539.208	800.000	-0.067	-0.269
-538.193	2.751	-0.067	0.049
-537.179	93.750	0.168	0.191
-536.164	-131.895	-0.208	0.027
-535.150	438.108	0.105	-0.231
-534.135	-97.279	-0.117	-0.031
-533.121	-125.072	0.319	-0.049
-532.106	-200.000	0.065	-0.305
-531.091	-132.919	0.237	0.030
-530.077	706.026	-0.025	0.067
-529.062	312.659	-0.024	0.046
-528.048	91.213	-0.108	0.122
-527.033	-200.000	0.023	0.216
-526.018	63.830	0.225	-0.227
-525.004	-143.148	-0.206	-0.020
-523.989	74.901	-0.163	0.172
-522.975	104.237	-0.148	0.174
-521.960	-200.000	-0.018	-0.141
-520.945	6.644	-0.081	0.060
-519.931	-26.284	-0.006	-0.003
-518.916	272.993	0.224	0.398
-517.902	36.369	-0.082	-0.072
-516.887	-71.503	0.225	-0.084
-515.872	800.000	-0.064	0.205
-514.858	311.577	-0.097	-0.182
-513.843	-200.000	-0.017	-0.140
-512.829	80.303	-0.186	0.201
-511.814	-44.616	0.162	-0.081
-510.799	305.683	-0.106	0.197
-509.785	800.000	-0.020	0.060
-508.770	-0.232	-0.268	-0.191
-507.756	342.809	-0.071	-0.140
-506.741	800.000	0.086	-0.342
-505.726	-61.957	0.074	0.031
-504.712	108.226	0.187	-0.224
-503.697	310.487	0.065	0.122
-502.683	-200.000	0.074	0.382
-501.668	-200.000	0.008	0.095
-500.653	-200.000	0.026	0.496
-499.639	800.000	-0.014	0.052
-498.624	-142.924	-0.126	-0.012
-497.610	558.653	0.044	-0.107
-496.595	-150.101	0.279	0.022
-495.581	800.000	0.029	-0.080
-494.566	250.762	0.038	-0.066
-493.551	225.977	0.242	0.394
-492.537	-51.088	-0.263	-0.124
-491.522	-32.420	0.104	0.058
-490.508	44.475	0.026	0.024
-489.493	4.983	-0.205	-0.151
-488.478	112.876	0.098	-0.119
-487.464	-121.460	0.136	-0.023
-486.449	409.682	0.112	-0.237
-485.435	443.511	0.123	-0.271
-484.420	-200.000	-0.023	-0.215
-483.405	800.000	-0.038	-0.116
-482.391	-200.000	-0.043	0.194
-481.376	-200.000	0.030	0.191
-480.362	-142.730	-0.376	-0.037
-479.347	-154.979	-0.287	0.019
-478.332	454.822	-0.165	-0.367
-477.318	242.794	0.123	0.206
-476.303	-200.000	-0.026	0.172
-475.289	-200.000	0.049	0.238
-474.274	181.733	-0.069	0.102
-473.259	-200.000	0.010	0.060
-472.245	83.565	-0.073	-0.080
-471.230	28.444	-0.300	-0.255
-470.216	372.583	0.068	-0.138
-469.201	-128.047	0.296	0.043
-468.186	-120.772	-0.209	0.035
-467.172	-200.000	-0.040	0.304
-466.157	-200.000	0.030	-0.234
-465.143	-58.385	0.110	-0.048
-464.128	-70.041	0.116	-0.044
-463.113	297.445	0.263	0.484
-462.099	-77.467	-0.189	-0.066
-461.084	-87.992	0.100	0.030
-460.070	521.439	0.102	0.239
-459.055	-123.353	0.165	-0.026
-458.040	-117.449	-0.377	-0.068
-457.026	-119.229	-0.289	0.050
-456.011	-141.625	0.155	-0.016
-454.997	152.350	0.025	-0.035
-453.982	-200.000	-0.001	-0.029
-452.968	292.814	0.121	-0.222
-451.953	-125.560	-0.137	-0.021
-450.938	-200.000	-0.007	0.273
-449.924	-184.144	0.058	-0.001
-448.909	-146.504	0.062	0.005
-447.895	800.000	0.049	0.136
-446.880	-86.310	-0.294	0.090
-445.865	-200.000	0.070	0.322
-444.851	-117.033	-0.079	0.014
-443.836	131.071	-0.048	-0.061
-442.822	-200.000	0.028	0.192
-441.807	800.000	0.097	0.271
-440.792	-26.103	-0.163	0.096
-439.778	92.774	0.190	0.215
-438.763	-104.888	-0.160	-0.037
-437.749	-42.019	0.222	-0.114
-436.734	614.904	0.116	0.290
-435.719	363.030	0.051	0.102
-434.705	800.000	0.047	0.140
-433.690	40.901	-0.215	-0.194
-432.676	-200.000	-0.013	0.156
-431.661	-200.000	0.035	0.278
-430.646	-200.000	0.027	0.411
-429.632	319.610	-0.078	-0.148
-428.617	-111.973	-0.431	-0.087
-427.603	800.000	0.073	0.223
-426.588	-68.045	0.268	-0.105
-425.573	241.997	0.188	-0.315
-424.559	71.692	-0.198	-0.206
-423.544	-76.279	0.035	0.012
-422.530	-88.486	0.320	0.096
-421.515	91.308	0.130	0.145
-420.500	-200.000	-0.086	0.505
-419.486	-187.041	-0.361	-0.005
-418.471	105.588	-0.136	-0.161
-417.457	209.259	0.166	0.260
-416.442	228.516	-0.138	0.225
-415.428	-82.334	0.223	-0.073
-414.413	-117.604	-0.174	0.031
-413.398	-14.007	0.093	-0.060
-412.384	-118.285	-0.231	-0.041
-411.369	311.570	0.023	-0.043
-410.355	-65.515	0.051	0.021
-409.340	96.445	0.101	-0.116
-408.325	-200.000	0.039	0.294
-407.311	72.315	-0.045	0.047
-406.296	-7.401	-0.221	0.150
-405.282	-114.440	0.338	0.065
-404.267	-200.000	-0.007	-0.496
-403.252	-114.964	0.085	-0.016
-402.238	71.954	-0.189	-0.197
-401.223	-33.406	-0.507	-0.280
-400.209	-200.000	-0.048	-0.284
-399.194	599.615	-0.062	-0.154
-398.179	800.000	-0.059	-0.252
-397.165	-92.691	-0.145	-0.041
-396.150	-175.244	-0.427	-0.012
-395.136	-22.985	-0.096	0.058
-394.121	144.634	0.177	0.237
-393.106	-14.836	0.323	-0.207
-392.092	-200.000	0.016	0.182
-391.077	54.178	0.182	0.175
-390.063	77.792	0.173	0.185
-389.048	104.383	-0.052	-0.061
-388.033	800.000	0.050	-0.202
-387.019	-16.194	-0.144	0.091
-386.004	-200.000	-0.015	0.202
-384.990	247.234	-0.201	0.340
-383.975	515.698	-0.127	0.297
-382.960	-45.598	-0.118	0.058
-381.946	305.496	-0.073	-0.136
-380.931	-160.180	0.319	0.017
-379.917	223.848	0.196	0.316
-378.902	280.880	-0.151	0.270
-377.888	800.000	0.021	0.089
-376.873	-8.335	0.252	-0.169
-375.858	-200.000	0.006	0.221
-374.844	-34.958	-0.058	-0.032
-373.829	-4.153	-0.403	-0.278
-372.815	-91.226	-0.145	-0.041
-371.800	-53.414	0.220	-0.101
-370.785	-93.769	0.192	-0.053
-369.771	800.000	-0.043	-0.137
-368.756	-200.000	-0.039	0.186
-367.742	-55.677	-0.053	-0.023
-366.727	7.031	-0.112	-0.083
-365.712	100.979	0.163	-0.190
-364.698	194.402	-0.103	-0.156
-363.683	215.467	0.100	-0.158
-362.669	-34.531	-0.187	0.102
-361.654	-200.000	-0.006	-0.107
-360.639	-200.000	-0.018	-0.105
-359.625	-200.000	-0.024	-0.521
-358.610	-47.842	0.146	0.071
-357.596	306.952	-0.062	-0.115
-356.581	-87.838	0.082	-0.025
-355.566	-120.403	-0.198	-0.034
-354.552	703.578	0.149	0.392
-353.537	-67.263	-0.303	-0.119
-352.523	-6.786	0.212	0.144
-351.508	17.837	0.242	0.192
-350.493	-88.405	0.172	-0.051
-349.479	-72.243	-0.402	-0.149
-348.464	-200.000	0.014	0.081
-347.450	156.649	-0.111	-0.153
-346.435	386.634	0.043	0.089
-345.420	2.203	-0.087	-0.063
-344.406	-21.710	0.134	0.081
-343.391	58.094	-0.210	0.206
-342.377	478.887	0.048	-0.108
-341.362	-114.609	-0.338	0.064
-340.348	250.596	0.215	0.365
-339.333	-70.495	-0.140	-0.053
-338.318	-151.292	-0.166	-0.012
-337.304	-200.000	0.008	-0.088
-336.289	-155.611	-0.369	-0.024
-335.275	-85.243	0.179	0.056
-334.260	800.000	-0.045	-0.125
-333.245	-200.000	-0.055	-0.505
-332.231	-88.090	-0.107	0.032
-331.216	26.984	0.106	-0.088
-330.202	-23.753	-0.282	-0.168
-329.187	-200.000	0.004	0.077
-328.172	-118.527	-0.365	0.064
-327.158	-141.596	0.260	-0.026
-326.143	-200.000	0.018	0.116
-325.129	-25.721	0.055	0.032
-324.114	-99.261	-0.094	-0.024
-323.099	-200.000	0.086	-0.412
-322.085	212.173	0.161	-0.254
-321.070	-157.392	0.115	0.007
-320.056	493.471	-0.070	0.160
-319.041	-54.934	0.145	0.065
-318.026	-200.000	-0.023	-0.129
-317.012	-200.000	0.054	-0.341
-315.997	222.134	-0.099	0.159
-314.983	-62.064	-0.206	0.086
-313.968	523.555	-0.030	-0.071
-312.953	-132.553	0.265	-0.034
-311.939	437.000	-0.091	0.198
-310.924	-200.000	-0.003	-0.242
-309.910	-200.000	0.040	-0.185
-308.895	-96.565	0.199	-0.052
-307.880	388.565	0.054	0.112
-306.866	-129.981	0.220	-0.030
-305.851	-200.000	-0.025	0.265
-304.837	95.258	-0.209	-0.238
-303.822	-19.105	-0.081	-0.050
-302.807	-38.838	-0.240	-0.126
-301.793	237.219	-0.107	0.176
-300.778	-200.000	0.022	-0.096
-299.764	-89.218	-0.197	-0.058
-298.749	-143.852	0.432	-0.041
-297.735	-109.908	0.248	0.052
-296.720	-200.000	-0.004	-0.228
-295.705	314.800	0.090	-0.168
-294.691	34.959	0.338	-0.294
-293.676	-64.794	0.157	-0.063
-292.662	-48.871	-0.423	0.202
-291.647	35.582	-0.105	0.092
-290.632	-70.636	0.229	0.086
-289.618	800.000	-0.025	0.091
-288.603	-127.251	-0.146	0.021
-287.589	800.000	-0.103	0.287
-286.574	-200.000	0.060	-0.264
-285.559	800.000	-0.016	0.047
-284.545	0.982	-0.111	0.079
-283.530	-200.000	-0.023	-0.534
-282.516	38.140	-0.157	-0.139
-281.501	798.556	0.056	0.153
-280.486	-9.303	0.279	-0.185
-279.472	-48.275	-0.377	0.181
-278.457	-77.220	0.397	-0.137
-277.443	187.591	-0.057	0.084
-276.428	-200.000	0.008	-0.206
-275.413	-200.000	0.019	-0.126
-274.399	40.941	0.239	-0.215
-273.384	-19.574	0.111	-0.068
-272.370	800.000	-0.045	-0.187
-271.355	800.000	0.096	0.267
-270.340	672.298	-0.048	0.124
-269.326	-49.809	-0.190	0.090
-268.311	-78.552	0.004	0.001
-267.297	-200.000	-0.012	-0.137
-266.282	-116.390	0.340	-0.063
-265.267	46.613	-0.195	0.180
-264.253	22.752	-0.171	0.139
-263.238	67.147	0.027	0.028
-262.224	-97.480	0.143	0.037
-261.209	-90.614	-0.504	0.145
-260.195	18.192	0.286	0.227
-259.180	-62.150	0.322	0.134
-258.165	137.448	-0.058	-0.075
-257.151	-106.962	-0.065	-0.014
-256.136	-0.638	-0.181	-0.128
-255.122	-142.394	0.322	-0.032
-254.107	476.116	-0.044	0.098
-253.092	-61.830	-0.064	-0.027
-252.078	-200.000	-0.013	-0.116
-251.063	121.604	0.062	0.077
-250.049	-136.113	0.211	0.025
-249.034	200.663	0.081	-0.124
-248.019	36.229	0.071	0.062
-247.005	188.025	-0.088	-0.131
-245.990	66.516	0.064	0.064
-244.976	-26.870	0.156	-0.091
-243.961	-27.537	-0.112	0.065
-242.946	406.721	0.057	0.120
-241.932	800.000	-0.039	0.121
-240.917	211.952	0.079	-0.124
-239.903	-200.000	-0.018	0.250
-238.888	208.178	0.064	0.099
-237.873	-135.376	0.297	0.035
-236.859	800.000	0.019	0.060
-235.844	22.422	-0.245	-0.199
-234.830	145.728	0.252	0.335
-233.815	-200.000	0.023	-0.377
-232.800	571.258	-0.102	-0.246
-231.786	800.000	-0.061	0.172
-230.771	800.000	-0.017	0.056
-229.757	341.874	-0.102	0.198
-228.742	214.369	0.179	0.281
-227.727	28.415	-0.116	-0.098
-226.713	-153.278	-0.357	0.025
-225.698	64.806	0.202	0.202
-224.684	80.295	0.095	-0.101
-223.669	-10.344	0.028	0.018
-222.655	-200.000	-0.061	-0.497
-221.640	-200.000	-0.012	-0.197
-220.625	83.983	-0.175	0.189
-219.611	364.082	0.040	0.079
-218.596	71.323	-0.273	0.281
-217.582	102.854	0.150	0.174
-216.567	-33.837	0.259	0.142
-215.552	214.554	0.021	0.033
-214.538	800.000	0.119	-0.491
-213.523	190.848	0.154	0.230
-212.509	-200.000	0.001	-0.022
-211.494	-200.000	-0.008	0.074
-210.479	71.216	0.193	0.199
-209.465	-48.108	0.239	0.114
-208.450	225.801	-0.103	0.166
-207.436	77.033	0.247	0.260
-206.421	33.395	-0.197	-0.170
-205.406	-136.667	-0.202	-0.023
-204.392	-17.098	-0.152	0.095
-203.377	-16.436	0.158	-0.099
-202.363	27.335	0.162	0.135
-201.348	737.401	-0.167	0.443
-200.333	-200.000	0.008	-0.052
-199.319	-110.274	0.335	0.069
-198.304	800.000	0.046	-0.129
-197.290	-7.810	0.269	-0.180
-196.275	-185.641	0.352	0.005
-195.260	16.397	0.360	-0.282
-194.246	139.058	0.222	0.289
-193.231	-136.556	0.069	-0.008
-192.217	-103.121	-0.284	-0.067
-191.202	161.440	-0.082	-0.114
-190.187	-200.000	-0.002	-0.046
-189.173	-134.790	-0.098	-0.012
-188.158	-200.000	-0.049	0.270
-187.144	-80.140	-0.328	0.109
-186.129	-51.241	-0.056	0.026
-185.114	-200.000	-0.012	-0.058
-184.100	800.000	-0.063	-0.272
-183.085	605.198	0.085	0.209
-182.071	-200.000	0.007	-0.068
-181.056	-200.000	0.014	0.196
-180.042	-84.909	-0.482	0.150
-179.027	800.000	-0.052	0.150
-178.012	-78.889	0.185	0.062
-176.998	800.000	-0.082	0.245
-175.983	328.385	0.092	0.175
-174.969	-200.000	0.038	0.169
-173.954	55.928	0.100	-0.096
-172.939	148.144	0.163	-0.218
-171.925	43.268	0.136	-0.123
-170.910	21.156	-0.063	-0.051
-169.896	-121.008	-0.300	0.050
-168.881	-200.000	-0.002	0.036
-167.866	745.034	0.058	-0.155
-166.852	146.132	-0.120	-0.159
-165.837	800.000	-0.050	-0.191
-164.823	349.323	0.130	-0.255
-163.808	-128.261	-0.096	-0.014
-162.793	207.545	-0.196	0.303
-161.779	-119.411	0.402	0.069
-160.764	388.487	-0.040	-0.081
-159.750	-143.028	-0.281	-0.027
-158.735	800.000	-0.039	0.161
-157.720	-200.000	0.018	0.132
-156.706	280.969	0.104	0.184
-155.691	-79.868	0.242	-0.080
-154.677	-99.783	0.289	-0.072
-153.662	800.000	-0.057	-0.182
-152.647	-122.103	-0.186	-0.030
-151.633	715.641	-0.084	-0.221
-150.618	249.807	-0.218	0.367
-149.604	658.133	-0.008	0.021
-148.589	-113.389	0.039	-0.008
-147.574	192.755	0.015	0.022
-146.560	365.668	-0.134	0.266
-145.545	800.000	-0.087	0.257
-144.531	-153.808	0.363	0.025
-143.516	-200.000	0.025	-0.216
-142.502	188.176	0.124	0.183
-141.487	229.097	-0.281	0.453
-140.472	-56.790	-0.418	-0.183
-139.458	-142.881	0.260	-0.025
-138.443	-193.342	0.280	-0.002
-137.429	47.685	-0.116	-0.108
-136.414	79.321	0.146	0.154
-135.399	-143.504	0.201	-0.019
-134.385	-14.640	-0.242	-0.154
-133.370	463.720	0.043	-0.096
-132.356	-200.000	0.023	-0.100
-131.341	-85.197	0.241	0.074
-130.326	-200.000	-0.008	0.254
-129.312	-93.550	-0.132	-0.036
-128.297	-91.343	0.131	-0.037
-127.283	247.210	-0.169	0.283
-126.268	29.794	-0.330	0.278
-125.253	-98.229	-0.257	-0.065
-124.239	-200.000	-0.034	0.229
-123.224	-54.830	-0.143	0.064
-122.210	-122.028	0.350	-0.057
-121.195	-176.551	0.452	-0.012
-120.180	800.000	-0.076	0.306
-119.166	25.968	0.187	-0.154
-118.151	-15.326	0.148	-0.094
-117.137	623.543	0.135	-0.336
-116.122	60.259	-0.225	0.220
-115.107	95.510	-0.162	0.182
-114.093	-24.447	0.206	-0.121
-113.078	-44.038	0.229	-0.114
-112.064	98.244	-0.051	-0.058
-111.049	-137.450	0.232	0.026
-110.034	800.000	0.034	-0.143
-109.020	-200.000	0.003	0.084
-108.005	87.627	-0.140	0.154
-106.991	455.051	-0.081	0.177
-105.976	33.895	-0.096	-0.082
-104.962	-200.000	-0.017	0.110
-103.947	-93.991	0.270	-0.073
-102.932	49.283	-0.147	-0.136
-101.918	143.638	0.164	0.215
-100.903	136.214	-0.092	-0.118
-99.889	-61.887	-0.347	-0.143
-98.874	-129.492	0.283	0.039
-97.859	88.541	-0.058	0.064
-96.845	63.914	-0.256	0.254
-95.830	196.199	0.163	0.245
-94.816	-141.841	0.221	0.022
-93.801	-69.444	-0.293	0.111
-92.786	293.577	-0.103	0.185
-91.772	-54.664	-0.212	0.095
-90.757	-200.000	0.009	0.146
-89.743	-62.011	-0.130	-0.053
-88.728	800.000	0.080	-0.344
-87.713	328.401	0.143	-0.271
-86.699	510.351	0.135	-0.309
-85.684	4.849	0.027	0.020
-84.670	-7.990	0.079	0.052
-83.655	-132.889	0.278	-0.035
-82.640	-200.000	-0.020	0.218
-81.626	195.847	0.090	-0.135
-80.611	-200.000	0.019	0.152
-79.597	54.839	-0.085	-0.081
-78.582	-4.531	-0.018	0.012
-77.567	-200.000	-0.015	-0.453
-76.553	237.291	-0.056	0.092
-75.538	800.000	0.036	-0.130
-74.524	465.053	-0.067	-0.148
-73.509	-140.963	0.224	0.023
-72.494	228.065	0.143	0.230
-71.480	-105.624	-0.135	-0.030
-70.465	-200.000	-0.039	0.210
-69.451	60.822	0.155	0.152
-68.436	1.807	0.038	0.027
-67.422	17.240	0.216	0.169
-66.407	-200.000	-0.035	0.202
-65.392	110.727	-0.214	0.254
-64.378	-66.917	0.099	-0.039
-63.363	546.517	0.041	0.096
-62.349	100.489	0.296	0.339
-61.334	-32.487	-1.221	-0.671
-60.319	0.900	0.496	0.351
-59.305	-200.000	-0.075	-0.813
-58.290	469.775	0.514	1.139
-57.276	280.522	0.989	1.745
-56.261	-200.000	95.343	560.467
-55.246	618.535	1382.313	3423.081
-54.232	195.272	2563.304	3838.926
-53.217	117.902	2149.712	2610.647
-52.203	44.853	1610.623	1461.349
-51.188	36.903	1348.319	1175.327
-50.173	33.560	1306.515	1119.145
-49.159	55.820	1352.273	1292.303
-48.144	58.025	1369.721	1322.138
-47.130	37.035	1327.803	1158.048
-46.115	33.589	1310.744	1122.761
-45.100	33.308	1306.062	1117.050
-44.086	33.257	1303.674	1114.661
-43.071	33.335	1301.307	1113.050
-42.057	33.176	1299.812	1110.796
-41.042	33.293	1298.101	1109.977
-40.027	33.317	1296.330	1108.558
-39.013	33.214	1294.971	1106.749
-37.998	33.255	1292.825	1105.110
-36.984	33.417	1291.019	1104.470
-35.969	33.466	1289.560	1103.461
-34.954	33.540	1287.155	1101.788
-33.940	33.380	1286.653	1100.388
-32.925	33.445	1285.028	1099.332
-31.911	33.387	1283.659	1097.779
-30.896	33.466	1282.152	1096.904
-29.881	33.539	1280.457	1095.833
-28.867	33.523	1279.248	1094.665
-27.852	33.576	1277.684	1093.584
-26.838	33.507	1276.558	1092.179
-25.823	33.568	1275.302	1091.414
-24.809	33.525	1273.891	1089.917
-23.794	33.402	1272.491	1087.970
-22.779	33.425	1271.253	1087.001
-21.765	33.450	1270.271	1086.257
-20.750	33.362	1269.125	1084.730
-19.736	33.329	1267.660	1083.250
-18.721	33.271	1266.636	1082.000
-17.706	33.299	1265.274	1080.951
-16.692	33.357	1264.144	1080.275
-15.677	33.304	1263.285	1079.198
-14.663	33.278	1262.099	1077.993
-13.648	33.383	1261.072	1077.667
-12.633	33.306	1259.992	1076.265
-11.619	33.256	1259.676	1075.666
-10.604	33.258	1258.600	1074.717
-9.590	33.413	1256.897	1074.099
-8.575	33.317	1256.222	1072.937
-7.560	33.206	1255.763	1071.876
-6.546	33.313	1254.802	1071.618
-5.531	33.252	1253.907	1070.467
-4.517	33.337	1252.862	1070.009
-3.502	33.355	1251.765	1069.131
-2.487	33.349	1251.061	1068.454
-1.473	33.251	1247.146	1064.517
-0.458	31.829	1231.985	1043.627
0.556	27.382	1214.736	1004.274
1.571	23.593	1220.221	987.672
2.586	22.542	1235.656	994.149
3.600	21.850	1224.745	981.415
4.615	16.679	1153.344	896.796
5.629	8.664	1078.851	798.935
6.644	4.959	1059.032	766.008
7.659	4.726	1056.708	763.113
8.673	4.729	1055.819	762.419
9.688	4.726	1054.572	761.439
10.702	4.871	1052.873	760.852
11.717	9.330	1058.853	786.969
12.731	16.674	1068.974	830.581
13.746	19.387	1071.905	846.112
14.761	18.714	1069.804	841.081
15.775	17.537	1068.384	834.129
16.790	16.573	1065.969	827.455
17.804	15.814	1064.306	822.388
18.819	15.510	1063.426	820.149
19.834	15.184	1062.551	817.812
20.848	14.932	1061.923	816.024
21.863	14.744	1060.955	814.294
22.877	14.655	1060.103	813.133
23.892	14.761	1059.105	812.812
24.907	14.646	1058.305	811.564
25.921	14.696	1057.619	811.212
26.936	14.743	1055.965	810.101
27.950	14.811	1055.097	809.690
28.965	14.881	1053.383	808.642
29.980	14.957	1051.697	807.642
30.994	15.010	1050.611	806.996
32.009	14.988	1050.104	806.428
33.023	14.962	1048.715	805.162
34.038	14.848	1047.862	803.891
35.053	14.824	1046.735	802.839
36.067	14.693	1046.375	801.863
37.082	14.809	1045.375	801.582
38.096	14.973	1044.137	801.346
39.111	14.907	1043.749	800.664
40.126	14.880	1042.242	799.305
41.140	14.688	1040.988	797.357
42.155	14.510	1040.110	795.767
43.169	14.523	1039.202	795.062
44.184	14.509	1038.145	794.116
45.199	14.517	1037.359	793.484
46.213	14.558	1035.713	792.348
47.228	14.675	1035.024	792.305
48.242	14.747	1034.011	791.801
49.257	14.722	1033.106	790.921
50.271	14.742	1032.027	790.118
51.286	14.764	1031.575	789.809
52.301	14.784	1030.242	788.811
53.315	14.753	1029.155	787.764
54.330	14.644	1028.185	786.435
55.344	14.620	1027.381	785.638
56.359	14.749	1026.550	785.543
57.374	14.684	1025.453	784.327
58.388	14.716	1024.913	783.997
59.403	14.500	1023.977	782.197
60.417	14.656	1022.781	781.944
61.432	14.525	1022.175	780.798
62.447	14.428	1021.490	779.754
63.461	14.484	1020.250	779.000
64.476	14.460	1019.735	778.425
65.490	14.467	1018.758	777.644
66.505	14.287	1018.951	776.882
67.520	14.541	1017.466	776.864
68.534	14.587	1016.923	776.594
69.549	14.552	1015.977	775.640
70.563	14.442	1014.865	774.212
71.578	14.488	1013.935	773.648
72.593	14.482	1013.111	772.923
73.607	14.308	1013.044	771.998
74.622	14.471	1012.257	772.083
75.636	14.428	1011.444	771.197
76.651	14.384	1011.217	770.750
77.666	14.327	1010.626	769.967
78.680	14.429	1009.757	769.709
79.695	14.438	1009.191	769.250
80.709	14.506	1008.850	769.236
81.724	14.570	1008.037	768.846
82.739	14.834	1006.690	768.962
83.753	14.781	1006.373	768.408
84.768	14.981	1005.437	768.544
85.782	15.060	1004.399	768.045
86.797	14.883	1004.119	766.954
87.812	14.882	1002.911	765.959
88.826	14.708	1002.376	764.685
89.841	14.756	1001.201	763.939
90.855	14.914	1000.202	763.834
91.870	14.937	999.586	763.398
92.884	14.921	998.660	762.552
93.899	14.941	997.757	761.884
94.914	14.960	996.952	761.290
95.928	15.067	996.016	760.994
96.943	15.022	995.531	760.353
97.957	15.018	994.353	759.367
98.972	14.923	993.649	758.330
99.987	14.861	992.979	757.473
101.001	14.966	991.853	757.020
102.016	15.027	990.764	756.400
103.030	14.906	990.621	755.677
104.045	14.959	989.447	754.952
105.060	14.822	989.055	753.969
106.074	14.678	987.869	752.347
107.089	14.658	986.760	751.350
108.103	14.676	985.589	750.471
109.118	14.569	984.830	749.347
110.133	14.564	983.916	748.564
111.147	14.569	983.506	748.204
112.162	14.655	982.690	747.904
113.176	14.581	982.051	747.020
114.191	14.564	981.324	746.326
115.206	14.662	980.250	745.882
116.220	14.651	979.304	745.046
117.235	14.628	978.419	744.206
118.249	14.677	977.799	743.885
119.264	14.576	976.978	742.743
120.279	14.590	976.348	742.264
121.293	14.658	974.987	741.462
122.308	14.605	974.074	740.468
123.322	14.515	973.753	739.760
124.337	14.457	972.377	738.391
125.352	14.437	971.455	737.539
126.366	14.511	970.419	737.016
127.381	14.527	969.330	736.192
128.395	14.588	968.430	735.710
129.410	14.624	967.697	735.250
130.424	14.734	966.665	734.887
131.439	14.735	965.842	734.199
132.454	14.975	964.692	734.310
133.468	14.862	964.280	733.439
134.483	14.731	963.644	732.315
135.497	14.778	962.630	731.685
136.512	14.785	961.806	731.024
137.527	14.757	961.226	730.397
138.541	14.679	960.446	729.400
139.556	14.705	960.225	729.282
140.570	14.795	959.322	728.921
141.585	14.971	958.258	728.815
142.600	15.020	957.362	728.285
143.614	14.993	957.033	727.850
144.629	15.122	955.653	727.297
145.643	15.087	954.727	726.378
146.658	14.845	953.718	724.496
147.673	14.964	952.507	724.027
148.687	14.759	951.958	722.658
149.702	14.842	950.917	722.164
150.716	14.909	950.055	721.735
151.731	14.753	949.731	720.749
152.746	14.770	949.262	720.407
153.760	14.886	948.575	720.321
154.775	14.982	947.915	720.170
155.789	14.957	947.695	719.828
156.804	14.979	946.566	719.002
157.819	15.043	945.519	718.418
158.833	15.008	945.166	717.936
159.848	15.197	944.090	717.865
160.862	15.161	943.129	716.919
161.877	15.044	942.463	715.846
162.892	14.899	941.735	714.613
163.906	14.813	940.629	713.340
164.921	14.888	939.658	712.864
165.935	14.866	939.061	712.254
166.950	14.914	937.819	711.453
167.964	14.955	936.965	710.915
168.979	14.888	936.395	710.134
169.994	15.022	935.039	709.612
171.008	15.025	934.965	709.506
172.023	15.216	933.963	709.493
173.037	15.183	933.553	708.976
174.052	15.072	933.222	708.195
175.067	14.924	932.032	706.601
176.081	14.989	931.445	706.371
177.096	15.011	931.083	706.127
178.110	14.904	930.799	705.396
179.125	14.993	929.781	704.938
180.140	15.108	929.558	705.192
181.154	15.059	929.136	704.604
182.169	15.118	928.731	704.481
183.183	15.223	927.845	704.188
184.198	15.277	927.163	703.832
185.213	15.223	926.207	702.818
186.227	15.294	925.295	702.361
187.242	15.317	925.167	702.298
188.256	15.399	924.355	701.964
189.271	15.338	924.092	701.447
190.286	15.275	922.658	700.034
191.300	14.917	922.235	698.156
192.315	14.911	921.619	697.605
193.329	14.970	920.966	697.293
194.344	15.014	920.217	696.848
195.359	15.220	919.856	697.369
196.373	15.310	919.032	697.056
197.388	15.272	919.073	696.870
198.402	15.370	918.552	696.822
199.417	15.289	918.381	696.290
200.432	15.523	917.557	696.576
201.446	15.650	916.750	696.430
202.461	15.534	916.598	695.772
203.475	15.509	916.247	695.341
204.490	15.489	914.782	694.085
205.504	15.513	914.105	693.607
206.519	15.400	913.383	692.533
207.534	15.440	912.870	692.246
208.548	15.514	911.522	691.466
209.563	15.421	911.208	690.787
210.577	15.512	910.543	690.594
211.592	15.689	910.270	691.055
212.607	15.699	909.291	690.289
213.621	15.682	908.277	689.390
214.636	15.613	908.146	688.945
215.650	15.588	907.385	688.208
216.665	15.687	906.454	687.845
217.680	15.724	905.885	687.503
218.694	15.839	905.033	687.264
219.709	15.752	904.693	686.590
220.723	15.709	904.251	686.019
221.738	15.730	902.937	685.049
222.753	15.744	902.669	684.842
223.767	15.817	902.249	684.760
224.782	15.980	901.465	684.766
225.796	15.890	901.270	684.189
226.811	15.860	900.583	683.488
227.826	15.832	899.591	682.559
228.840	15.855	898.845	682.028
229.855	15.859	898.180	681.478
230.869	15.715	897.549	680.357
231.884	15.649	897.180	679.751
232.899	15.619	896.081	678.736
233.913	15.745	895.274	678.571
234.928	15.689	894.420	677.642
235.942	15.699	894.205	677.458
236.957	15.722	893.549	676.992
237.972	15.726	893.018	676.548
238.986	15.825	892.127	676.211
240.001	15.717	891.705	675.397
241.015	15.843	891.031	675.331
242.030	15.880	890.359	674.911
243.045	15.921	890.011	674.751
244.059	16.017	889.307	674.541
245.074	15.841	889.273	673.752
246.088	15.867	888.462	673.181
247.103	16.025	887.646	673.136
248.117	16.075	887.256	672.981
249.132	16.267	886.595	673.183
250.147	16.498	885.765	673.415
251.161	16.277	885.618	672.365
252.176	16.285	885.314	672.105
253.190	16.555	883.781	671.955
254.205	16.498	883.088	671.141
255.220	16.460	882.839	670.742
256.234	16.426	882.191	670.057
257.249	16.498	881.221	669.544
258.263	16.439	880.636	668.810
259.278	16.333	880.416	668.164
260.293	16.579	879.381	668.291
261.307	16.755	878.893	668.554
262.322	16.631	878.325	667.575
263.336	16.563	877.635	666.721
264.351	16.800	876.084	666.417
265.366	16.737	876.394	666.347
266.380	16.691	875.423	665.371
267.395	16.628	874.936	664.693
268.409	16.622	874.344	664.161
269.424	16.558	873.485	663.199
270.439	16.608	872.546	662.622
271.453	16.470	872.298	661.836
272.468	16.526	871.670	661.520
273.482	16.525	871.154	661.066
274.497	16.445	870.552	660.237
275.512	16.737	869.756	660.716
276.526	16.512	869.586	659.650
277.541	16.521	868.857	659.074
278.555	16.855	868.097	659.738
279.570	16.842	867.917	659.494
280.585	16.815	867.207	658.791
281.599	16.728	866.372	657.761
282.614	16.621	865.849	656.889
283.628	16.674	865.275	656.603
284.643	16.748	864.455	656.209
285.657	16.834	863.441	655.714
286.672	16.842	863.033	655.376
287.687	16.742	862.312	654.383
288.701	16.763	862.212	654.330
289.716	16.893	861.253	654.046
290.730	16.742	861.141	653.323
291.745	16.836	860.292	652.982
292.760	16.782	859.898	652.419
293.774	17.060	859.120	652.838
294.789	17.075	857.994	651.981
295.803	16.954	857.588	651.152
296.818	16.752	857.124	649.967
297.833	16.781	856.439	649.500
298.847	16.825	855.713	649.060
299.862	16.842	855.308	648.763
300.876	17.076	854.834	649.239
301.891	17.022	854.409	648.655
302.906	16.993	854.245	648.362
303.920	17.071	853.680	648.174
304.935	17.123	852.923	647.739
305.949	17.184	852.278	647.424
306.964	17.012	851.752	646.313
307.979	17.126	850.978	646.100
308.993	17.200	850.488	645.955
310.008	17.242	849.942	645.642
311.022	17.248	849.094	644.961
312.037	17.247	848.356	644.342
313.052	17.093	847.647	643.163
314.066	17.073	847.576	642.977
315.081	16.990	847.089	642.236
316.095	17.065	846.403	641.944
317.110	17.138	845.705	641.631
318.125	17.048	845.440	641.033
319.139	17.088	844.796	640.638
320.154	17.212	844.147	640.557
321.168	17.105	843.977	639.969
322.183	17.144	843.029	639.342
323.197	17.126	842.973	639.175
324.212	17.316	842.157	639.215
325.227	17.155	841.696	638.202
326.241	17.026	840.905	637.063
327.256	17.058	840.552	636.857
328.270	17.252	839.689	636.874
329.285	17.288	839.109	636.512
330.300	17.243	838.779	636.037
331.314	17.100	838.703	635.390
332.329	17.213	838.291	635.443
333.343	17.331	837.813	635.466
334.358	17.374	837.117	635.042
335.373	17.287	837.173	634.703
336.387	17.394	836.369	634.437
337.402	17.322	836.228	634.006
338.416	17.476	835.974	634.332
339.431	17.537	835.621	634.233
340.446	17.624	835.191	634.176
341.460	17.706	834.642	634.007
342.475	17.648	834.078	633.308
343.489	17.716	833.534	633.092
344.504	17.758	833.332	633.038
345.519	17.725	833.147	632.717
346.533	17.771	832.119	632.052
347.548	17.572	831.837	631.043
348.562	17.531	831.173	630.331
349.577	17.501	830.621	629.749
350.592	17.653	829.717	629.567
351.606	17.494	829.336	628.635
352.621	17.616	828.561	628.445
353.635	17.545	827.919	627.640
354.650	17.719	827.024	627.545
355.665	17.651	826.728	627.016
356.679	17.750	825.946	626.728
357.694	17.843	825.159	626.420
358.708	17.781	824.913	625.951
359.723	17.763	824.299	625.361
360.738	17.862	823.668	625.191
361.752	17.866	822.972	624.621
362.767	17.861	822.706	624.347
363.781	17.965	822.269	624.339
364.796	17.927	821.922	623.882
365.810	18.085	821.151	623.817
366.825	18.321	820.694	624.277
367.840	18.133	820.619	623.480
368.854	18.033	819.671	622.341
369.869	18.099	819.460	622.363
370.883	18.141	818.961	622.083
371.898	18.206	818.754	622.105
372.913	18.089	818.796	621.659
373.927	18.084	817.889	620.896
374.942	18.164	817.283	620.672
375.956	18.214	817.274	620.790
376.971	18.200	816.877	620.386
377.986	18.430	816.110	620.580
379.000	18.389	815.829	620.164
380.015	18.193	815.510	619.155
381.029	18.326	814.608	618.898
382.044	18.280	813.974	618.195
383.059	18.363	813.573	618.135
384.073	18.184	812.893	616.920
385.088	18.343	811.762	616.579
386.102	18.201	811.642	615.920
387.117	18.269	810.984	615.612
388.132	18.290	810.428	615.209
389.146	18.154	810.252	614.534
390.161	18.401	809.409	614.727
391.175	18.554	808.989	614.903
392.190	18.303	808.228	613.369
393.205	18.325	808.098	613.297
394.219	18.298	807.786	612.908
395.234	18.246	807.197	612.221
396.248	18.269	806.747	611.908
397.263	18.265	806.203	611.425
398.278	18.144	806.060	610.833
399.292	18.102	805.793	610.427
400.307	18.362	804.988	610.687
401.321	18.354	804.723	610.404
402.336	18.362	803.938	609.786
403.350	18.366	803.985	609.780
404.365	18.505	803.388	609.767
405.380	18.615	802.533	609.457
406.394	18.641	802.174	609.222
407.409	18.570	802.250	608.975
408.423	18.573	801.993	608.734
409.438	18.648	801.620	608.665
410.453	18.675	800.995	608.230
411.467	18.774	800.680	608.291
412.482	18.825	800.233	608.077
413.496	18.932	799.813	608.080
414.511	18.787	799.825	607.523
415.526	18.839	798.965	607.000
416.540	18.907	798.441	606.791
417.555	18.866	797.875	606.160
418.569	18.816	797.500	605.647
419.584	18.802	797.235	605.340
420.599	18.932	796.330	605.057
421.613	156.122	1370.794	1792.412
422.628	135.233	1454.508	1792.523
