DTS Sentinel unit serial number:	SN413079Multiplexer serial number:	ORYXHardware model number:	OX4-SRSoftware version number:	ORYX F/W v4.00 Oryx Data Collector v3.7.2.0data status	okinstallation	princeton_trtdifferential loss correction	single-endedforward channel	channel 1reverse channel	N/Adate	2019/09/18time	05:30:35forward acquisition time	60.00reverse acquisition time	0.00gamma	496.2192k internal	0.2339k external	0.2339temperature offset calibration	0.9975default loss term (dB/km)	0.3790temperature slope calibration	1.0000multiplexer offset coefficient	1.0000multiplexer slope coefficient	1.0000fibre end	0.00T internal ref (°C)	23.42T ext. ref 1 (°C)	0.18T ext. ref 2 (°C)	16.97length (m)	temperature (°C)	Stokes	anti-Stokes-747.200	99.987	-0.089	0.103
-746.185	-144.161	0.247	-0.023
-745.171	-148.687	0.375	0.031
-744.156	61.307	0.243	-0.242
-743.142	22.822	0.192	0.158
-742.127	687.608	0.034	-0.088
-741.112	-125.679	-0.177	0.027
-740.098	169.563	-0.292	0.418
-739.083	-13.601	-0.106	-0.069
-738.069	-63.042	-0.102	-0.042
-737.054	284.655	0.198	0.358
-736.039	256.822	-0.122	-0.211
-735.025	-81.574	-0.156	0.052
-734.010	-200.000	0.055	-0.267
-732.996	-200.000	0.078	-0.348
-731.981	141.222	-0.120	0.160
-730.966	43.002	-0.193	-0.176
-729.952	-147.122	-0.168	0.014
-728.937	-40.600	-0.041	0.021
-727.923	28.755	-0.100	0.084
-726.908	0.566	-0.391	-0.280
-725.894	-200.000	0.013	-0.353
-724.879	800.000	0.054	-0.166
-723.864	-129.259	-0.437	0.061
-722.850	187.579	-0.314	0.469
-721.835	-63.267	-0.165	0.068
-720.821	-153.958	0.390	-0.027
-719.806	236.747	-0.131	-0.218
-718.791	-75.231	-0.440	0.157
-717.777	800.000	-0.017	0.073
-716.762	625.122	-0.084	0.213
-715.748	-126.299	-0.202	-0.030
-714.733	-200.000	0.014	-0.192
-713.718	-200.000	0.017	0.222
-712.704	-200.000	0.014	0.091
-711.689	30.738	-0.171	0.147
-710.675	-39.690	0.216	0.113
-709.660	-200.000	-0.002	-0.142
-708.645	-200.000	0.063	0.282
-707.631	-77.721	-0.200	0.069
-706.616	328.311	-0.097	0.187
-705.602	-135.734	0.155	0.018
-704.587	-200.000	-0.064	-0.369
-703.572	6.449	-0.309	0.229
-702.558	154.218	0.042	0.058
-701.543	159.991	0.127	-0.177
-700.529	376.432	-0.028	0.058
-699.514	800.000	0.125	-0.455
-698.499	-200.000	-0.004	-0.149
-697.485	-150.702	0.197	0.015
-696.470	40.355	0.062	-0.055
-695.456	-82.820	0.183	0.059
-694.441	316.437	-0.167	0.316
-693.426	-145.185	-0.277	-0.025
-692.412	21.392	0.367	-0.299
-691.397	222.727	-0.097	-0.156
-690.383	-200.000	0.004	0.075
-689.368	357.329	0.184	-0.366
-688.354	-200.000	-0.000	-0.181
-687.339	-200.000	0.011	0.084
-686.324	491.874	0.067	-0.154
-685.310	-68.825	-0.108	0.042
-684.295	-80.472	0.296	-0.099
-683.281	800.000	0.011	0.037
-682.266	-1.546	0.144	-0.101
-681.251	489.619	0.091	-0.208
-680.237	-39.472	0.092	-0.048
-679.222	-200.000	-0.026	-0.475
-678.208	-155.649	0.169	-0.011
-677.193	8.461	-0.272	0.205
-676.178	-64.709	-0.130	-0.053
-675.164	-136.769	-0.281	-0.032
-674.149	-9.882	0.196	0.130
-673.135	-200.000	0.004	0.266
-672.120	26.458	-0.281	0.235
-671.105	61.771	-0.083	-0.082
-670.091	63.552	-0.086	0.087
-669.076	-19.001	0.183	-0.114
-668.062	612.763	-0.054	-0.136
-667.047	-57.626	-0.152	0.067
-666.032	-127.277	0.144	-0.021
-665.018	436.673	-0.037	0.081
-664.003	-89.785	-0.191	-0.056
-662.989	-16.557	-0.159	0.100
-661.974	293.096	0.210	-0.384
-660.959	236.781	-0.119	-0.197
-659.945	726.777	0.056	0.149
-658.930	-34.173	0.305	-0.167
-657.916	93.971	0.056	-0.063
-656.901	-200.000	-0.002	0.361
-655.886	800.000	-0.076	-0.295
-654.872	-2.649	0.179	0.125
-653.857	125.085	-0.199	0.251
-652.843	-70.636	0.099	-0.037
-651.828	800.000	-0.052	-0.199
-650.814	-200.000	0.001	-0.297
-649.799	-82.545	-0.119	-0.038
-648.784	-200.000	-0.007	0.170
-647.770	55.418	0.047	0.045
-646.755	-27.198	-0.202	-0.118
-645.741	-24.582	0.043	-0.026
-644.726	191.469	0.019	0.028
-643.711	190.742	0.240	-0.361
-642.697	247.524	0.066	0.112
-641.682	478.329	-0.131	0.296
-640.668	-150.005	-0.219	0.017
-639.653	-53.360	-0.263	0.121
-638.638	-75.804	-0.234	-0.083
-637.624	-4.832	0.154	-0.106
-636.609	418.009	-0.183	0.390
-635.595	-200.000	0.008	0.154
-634.580	-186.629	0.379	-0.005
-633.565	-123.544	0.183	0.029
-632.551	21.671	0.134	-0.109
-631.536	44.380	-0.094	-0.086
-630.522	319.332	0.245	-0.464
-629.507	800.000	0.129	0.438
-628.492	228.114	0.117	0.190
-627.478	-200.000	-0.004	-0.037
-626.463	115.435	0.154	0.187
-625.449	-200.000	-0.051	-0.323
-624.434	-101.741	0.295	0.071
-623.419	129.310	0.072	-0.092
-622.405	-200.000	-0.032	-0.380
-621.390	82.901	-0.260	-0.283
-620.376	285.594	-0.176	-0.318
-619.361	-94.144	-0.115	0.031
-618.346	-200.000	0.014	-0.356
-617.332	98.340	-0.266	-0.306
-616.317	-164.983	0.080	0.004
-615.303	223.275	0.148	-0.239
-614.288	800.000	0.068	-0.197
-613.273	52.164	-0.096	-0.091
-612.259	87.920	-0.170	-0.188
-611.244	-157.669	-0.177	0.011
-610.230	105.757	-0.018	-0.021
-609.215	-200.000	-0.039	-0.207
-608.201	800.000	-0.068	-0.229
-607.186	-0.467	0.220	-0.156
-606.171	-91.433	-0.047	0.014
-605.157	-61.018	-0.246	0.104
-604.142	-200.000	0.003	0.017
-603.128	-157.514	0.158	0.009
-602.113	-25.893	-0.227	-0.133
-601.098	-200.000	-0.055	-0.315
-600.084	-160.008	0.289	0.016
-599.069	-27.017	0.159	-0.092
-598.055	255.272	-0.113	-0.194
-597.040	-200.000	0.117	-0.658
-596.025	-88.746	0.148	0.044
-595.011	-114.378	-0.440	0.084
-593.996	500.230	0.069	-0.159
-592.982	85.336	0.225	0.246
-591.967	133.662	-0.079	0.102
-590.952	105.792	0.074	0.088
-589.938	-103.752	-0.269	-0.063
-588.923	800.000	-0.124	-0.422
-587.909	-200.000	-0.009	-0.230
-586.894	-103.375	-0.057	0.013
-585.879	800.000	0.034	-0.135
-584.865	165.665	-0.160	0.226
-583.850	-77.300	0.189	-0.065
-582.836	-200.000	0.022	-0.186
-581.821	800.000	-0.063	0.260
-580.806	81.025	-0.238	0.256
-579.792	-17.331	-0.097	-0.061
-578.777	-4.661	0.047	-0.032
-577.763	-200.000	0.064	0.375
-576.748	66.847	-0.125	0.127
-575.733	133.333	-0.277	0.357
-574.719	-73.081	-0.054	0.020
-573.704	86.366	-0.244	-0.268
-572.690	-12.701	-0.292	0.190
-571.675	-200.000	0.066	-0.292
-570.661	800.000	-0.072	-0.286
-569.646	104.654	-0.202	-0.237
-568.631	-200.000	0.007	-0.042
-567.617	431.692	0.042	0.091
-566.602	-131.158	0.241	-0.032
-565.588	283.963	-0.128	0.230
-564.573	5.674	0.138	-0.102
-563.558	-160.308	0.108	0.006
-562.544	-150.059	0.238	-0.018
-561.529	-200.000	0.022	-0.177
-560.515	151.719	-0.090	-0.122
-559.500	-200.000	-0.009	-0.404
-558.485	78.572	-0.130	0.138
-557.471	493.471	-0.161	-0.368
-556.456	800.000	-0.072	0.227
-555.442	192.828	0.121	0.182
-554.427	-68.871	0.227	-0.087
-553.412	-200.000	0.014	-0.221
-552.398	-200.000	0.018	0.393
-551.383	800.000	0.160	0.484
-550.369	-82.498	0.233	0.075
-549.354	800.000	0.060	-0.197
-548.339	-200.000	0.006	-0.784
-547.325	79.260	-0.068	0.073
-546.310	427.275	-0.119	-0.255
-545.296	-63.009	-0.293	-0.120
-544.281	279.932	-0.103	0.182
-543.266	45.778	0.018	-0.016
-542.252	-112.208	0.006	0.001
-541.237	800.000	0.082	0.282
-540.223	-64.888	-0.286	0.115
-539.208	-63.173	-0.168	0.069
-538.193	-101.264	0.337	-0.082
-537.179	182.711	-0.089	-0.131
-536.164	-33.176	-0.155	0.086
-535.150	69.414	0.164	0.168
-534.135	327.935	-0.078	0.148
-533.121	104.674	0.156	-0.183
-532.106	369.505	-0.241	-0.485
-531.091	240.973	-0.152	0.253
-530.077	-117.848	0.360	0.064
-529.062	-44.759	0.223	-0.111
-528.048	-65.807	-0.212	-0.084
-527.033	747.958	-0.074	0.199
-526.018	136.660	-0.032	-0.041
-525.004	-140.406	-0.478	0.050
-523.989	57.931	-0.299	0.291
-522.975	107.964	0.134	-0.158
-521.960	158.837	-0.101	-0.140
-520.945	43.323	-0.083	-0.075
-519.931	-101.947	-0.086	-0.021
-518.916	800.000	-0.033	-0.114
-517.902	-200.000	0.028	-0.183
-516.887	13.121	0.105	-0.081
-515.872	800.000	0.088	0.365
-514.858	-11.842	0.072	0.047
-513.843	-184.070	-0.181	-0.003
-512.829	109.305	-0.209	0.249
-511.814	55.315	0.180	-0.173
-510.799	-138.831	0.262	-0.028
-509.785	-18.492	0.250	-0.155
-508.770	-76.091	-0.052	0.018
-507.756	215.510	-0.178	0.281
-506.741	67.775	-0.149	-0.152
-505.726	50.877	-0.093	0.088
-504.712	-200.000	0.010	-0.286
-503.697	-196.176	0.197	-0.001
-502.683	347.365	-0.108	-0.211
-501.668	113.319	-0.068	-0.082
-500.653	110.838	0.035	-0.042
-499.639	-61.506	-0.140	0.058
-498.624	800.000	-0.035	0.105
-497.610	-70.204	0.090	-0.034
-496.595	-46.554	0.291	0.142
-495.581	-21.217	-0.074	-0.045
-494.566	-160.539	0.347	0.018
-493.551	97.702	-0.067	0.077
-492.537	345.498	0.237	0.462
-491.522	-99.619	-0.159	-0.040
-490.508	-19.920	-0.126	0.078
-489.493	10.299	0.114	-0.086
-488.478	-75.848	0.299	0.105
-487.464	-42.070	-0.384	-0.195
-486.449	-121.669	0.328	-0.054
-485.435	195.070	0.081	0.122
-484.420	12.422	-0.156	-0.119
-483.405	2.348	0.111	-0.079
-482.391	-149.515	0.248	0.019
-481.376	-94.805	-0.294	-0.079
-480.362	392.914	0.091	0.189
-479.347	-103.927	0.349	-0.081
-478.332	-81.868	0.214	-0.069
-477.318	616.682	-0.154	-0.383
-476.303	-80.376	-0.111	-0.037
-475.289	792.580	-0.088	-0.240
-474.274	-102.056	0.242	-0.058
-473.259	0.254	0.072	0.051
-472.245	-12.983	-0.296	-0.191
-471.230	255.494	-0.228	-0.388
-470.216	209.696	-0.033	-0.052
-469.201	124.833	-0.125	-0.156
-468.186	-104.028	0.105	-0.024
-467.172	-200.000	-0.003	-0.188
-466.157	103.256	-0.033	0.039
-465.143	-200.000	0.026	-0.221
-464.128	800.000	0.068	-0.191
-463.113	-200.000	0.047	0.231
-462.099	726.981	-0.063	0.166
-461.084	-200.000	0.004	-0.177
-460.070	315.740	0.016	0.031
-459.055	-200.000	-0.003	-0.066
-458.040	427.209	-0.082	-0.176
-457.026	800.000	-0.030	0.124
-456.011	-33.103	0.077	-0.042
-454.997	-59.084	-0.244	-0.104
-453.982	-16.194	-0.059	-0.037
-452.968	-125.267	-0.059	0.009
-451.953	-163.701	0.398	0.019
-450.938	-57.207	-0.299	0.131
-449.924	-181.351	0.099	0.002
-448.909	575.230	-0.052	0.126
-447.895	-200.000	0.036	0.465
-446.880	-46.744	0.300	0.145
-445.865	800.000	0.049	-0.203
-444.851	115.623	0.239	-0.290
-443.836	98.714	-0.109	-0.125
-442.822	204.439	0.198	0.304
-441.807	-82.794	-0.032	-0.010
-440.792	-39.109	-0.222	0.116
-439.778	-200.000	-0.019	0.200
-438.763	-31.857	-0.290	0.161
-437.749	-93.166	-0.123	-0.034
-436.734	57.894	0.133	-0.129
-435.719	800.000	0.105	-0.324
-434.705	41.833	-0.290	0.261
-433.690	-109.228	0.280	0.059
-432.676	800.000	-0.027	0.081
-431.661	180.025	-0.248	-0.360
-430.646	33.362	0.292	-0.251
-429.632	313.214	0.040	-0.075
-428.617	800.000	-0.019	0.068
-427.603	-133.311	-0.325	0.041
-426.588	-86.430	0.303	0.092
-425.573	131.247	0.070	0.089
-424.559	-200.000	-0.001	-0.059
-423.544	1.642	-0.220	0.157
-422.530	-84.762	-0.096	0.030
-421.515	142.366	-0.227	0.298
-420.500	40.485	0.334	0.298
-419.486	20.368	-0.148	0.119
-418.471	148.210	0.095	-0.127
-417.457	91.017	0.109	-0.121
-416.442	49.714	-0.183	-0.170
-415.428	39.025	0.077	0.068
-414.413	-67.184	0.043	-0.017
-413.398	-26.063	0.414	-0.241
-412.384	-58.483	-0.343	0.147
-411.369	-34.272	-0.188	-0.102
-410.355	48.707	0.271	-0.251
-409.340	171.035	-0.120	0.171
-408.325	248.477	0.133	-0.222
-407.311	-3.608	0.206	-0.142
-406.296	-33.334	0.077	-0.042
-405.282	-14.995	0.343	-0.218
-404.267	-50.878	-0.186	-0.086
-403.252	-74.545	-0.005	0.002
-402.238	-91.519	-0.081	-0.023
-401.223	303.537	0.218	-0.400
-400.209	-84.858	-0.308	0.096
-399.194	-55.652	-0.173	0.077
-398.179	-87.533	0.168	-0.050
-397.165	-27.535	-0.104	-0.060
-396.150	-177.872	0.080	0.002
-395.136	4.542	-0.217	0.158
-394.121	800.000	0.109	-0.297
-393.106	-55.689	-0.416	0.184
-392.092	-75.292	-0.151	0.053
-391.077	252.804	-0.071	0.119
-390.063	-19.819	-0.113	-0.069
-389.048	-94.557	-0.131	-0.035
-388.033	364.871	0.070	-0.139
-387.019	-95.615	-0.169	0.045
-386.004	-120.954	0.201	-0.033
-384.990	215.619	0.154	0.242
-383.975	114.876	0.212	0.255
-382.960	800.000	-0.102	0.300
-381.946	146.923	-0.045	0.060
-380.931	34.623	0.179	0.154
-379.917	107.716	0.201	-0.237
-378.902	-200.000	0.020	0.164
-377.888	800.000	-0.137	0.383
-376.873	287.220	-0.136	-0.243
-375.858	-179.371	-0.131	-0.003
-374.844	79.342	-0.128	0.136
-373.829	119.571	-0.117	0.143
-372.815	-99.433	-0.473	-0.118
-371.800	-113.070	0.161	-0.031
-370.785	-18.475	-0.066	0.041
-369.771	59.898	-0.012	0.012
-368.756	158.528	0.056	0.077
-367.742	-128.740	0.310	-0.043
-366.727	800.000	-0.025	0.072
-365.712	365.873	-0.082	0.163
-364.698	-200.000	-0.069	-0.301
-363.683	206.412	-0.137	0.211
-362.669	85.786	0.088	0.096
-361.654	-200.000	-0.050	0.292
-360.639	-99.763	0.122	-0.030
-359.625	-153.426	-0.178	-0.012
-358.610	-200.000	-0.021	-0.120
-357.596	-200.000	-0.014	0.181
-356.581	-90.289	-0.124	0.036
-355.566	234.310	-0.122	0.199
-354.552	-118.948	0.213	-0.037
-353.537	32.017	-0.269	-0.229
-352.523	-154.306	0.192	-0.013
-351.508	-200.000	0.014	0.109
-350.493	-84.880	-0.071	0.022
-349.479	-118.138	0.320	0.056
-348.464	61.448	-0.134	-0.132
-347.450	-125.603	0.094	-0.014
-346.435	-200.000	0.103	0.453
-345.420	43.645	0.165	0.149
-344.406	-200.000	0.015	-0.165
-343.391	-49.491	-0.074	-0.035
-342.377	-20.379	-0.059	0.036
-341.362	800.000	0.055	-0.162
-340.348	32.987	0.117	0.100
-339.333	-155.678	0.244	0.015
-338.318	33.324	0.196	0.168
-337.304	-179.870	-0.401	-0.008
-336.289	-112.674	-0.061	0.012
-335.275	-123.274	-0.447	0.071
-334.260	-7.849	0.213	-0.142
-333.245	-103.345	0.079	0.018
-332.231	800.000	-0.020	0.084
-331.216	184.933	0.056	-0.082
-330.202	12.869	-0.120	-0.091
-329.187	800.000	0.042	-0.146
-328.172	-93.565	0.262	-0.071
-327.158	305.182	0.149	0.273
-326.143	263.753	-0.212	0.364
-325.129	147.365	-0.062	0.083
-324.114	-135.742	0.037	-0.004
-323.099	-200.000	0.008	0.053
-322.085	386.805	0.027	0.054
-321.070	122.551	0.106	0.131
-320.056	800.000	0.002	0.006
-319.041	-57.413	-0.117	0.051
-318.026	228.121	0.124	-0.199
-317.012	190.341	-0.070	0.103
-315.997	-183.437	-0.191	0.003
-314.983	25.768	0.191	0.157
-313.968	800.000	-0.037	0.160
-312.953	288.146	-0.105	0.187
-311.939	800.000	-0.064	0.240
-310.924	800.000	-0.054	-0.151
-309.910	277.065	-0.162	-0.284
-308.895	-200.000	0.040	0.180
-307.880	-129.097	0.029	0.004
-306.866	800.000	0.011	0.045
-305.851	-103.209	0.232	-0.054
-304.837	83.608	0.071	-0.077
-303.822	800.000	0.074	-0.222
-302.807	-200.000	0.035	-0.175
-301.793	-127.438	0.140	0.020
-300.778	800.000	0.104	0.313
-299.764	-200.000	-0.007	0.091
-298.749	321.220	-0.147	-0.276
-297.735	25.982	-0.163	0.134
-296.720	-177.824	0.246	-0.006
-295.705	-82.920	0.302	0.096
-294.691	-91.598	0.056	-0.016
-293.676	237.977	-0.096	0.157
-292.662	-44.224	-0.357	-0.177
-291.647	40.765	-0.142	0.126
-290.632	141.787	0.225	-0.294
-289.618	358.671	-0.092	0.181
-288.603	-157.596	-0.328	-0.019
-287.589	-32.308	0.133	0.073
-286.574	-200.000	-0.115	0.539
-285.559	-200.000	0.008	-0.169
-284.545	-200.000	-0.001	0.014
-283.530	800.000	-0.021	-0.076
-282.516	800.000	0.073	0.266
-281.501	-164.342	-0.257	-0.012
-280.486	580.510	-0.067	0.163
-279.472	33.121	0.158	-0.135
-278.457	231.048	-0.114	0.183
-277.443	800.000	0.038	-0.134
-276.428	-135.242	0.161	-0.019
-275.413	593.921	0.104	0.253
-274.399	-13.996	0.170	0.108
-273.384	-152.179	-0.125	-0.009
-272.370	-200.000	-0.011	-0.123
-271.355	491.228	-0.038	-0.085
-270.340	163.090	-0.192	-0.266
-269.326	800.000	0.071	0.288
-268.311	215.071	0.053	-0.083
-267.297	-102.917	0.283	0.066
-266.282	800.000	0.066	0.196
-265.267	755.814	0.082	0.219
-264.253	39.407	0.143	0.126
-263.238	-16.088	0.088	-0.055
-262.224	-200.000	-0.047	0.372
-261.209	-115.821	-0.458	0.084
-260.195	257.795	0.199	-0.337
-259.180	-57.408	-0.201	0.087
-258.165	78.559	-0.217	-0.228
-257.151	-73.340	0.433	-0.156
-256.136	391.567	-0.121	0.247
-255.122	-51.398	-0.027	0.012
-254.107	800.000	0.117	-0.319
-253.092	56.030	-0.096	0.092
-252.078	138.067	0.088	0.113
-251.063	226.115	-0.202	0.322
-250.049	243.417	0.186	0.307
-249.034	-200.000	0.006	0.140
-248.019	-200.000	-0.036	0.219
-247.005	81.483	-0.184	-0.196
-245.990	-58.251	-0.209	0.089
-244.976	222.877	-0.064	0.101
-243.961	649.169	-0.195	0.491
-242.946	-108.391	-0.249	0.053
-241.932	65.591	0.175	-0.175
-240.917	-37.521	-0.345	-0.181
-239.903	-56.611	0.170	0.074
-238.888	-114.076	-0.364	0.069
-237.873	34.749	0.323	0.278
-236.859	-173.423	-0.360	-0.011
-235.844	-6.927	-0.117	-0.078
-234.830	-179.980	-0.085	-0.002
-233.815	126.936	-0.211	0.263
-232.800	-33.693	0.349	0.189
-231.786	174.145	0.080	0.114
-230.771	800.000	0.058	-0.232
-229.757	44.106	0.175	-0.157
-228.742	-200.000	-0.013	-0.130
-227.727	182.871	0.237	-0.344
-226.713	-156.830	-0.275	0.017
-225.698	685.102	0.079	0.202
-224.684	-70.907	0.080	-0.030
-223.669	405.149	-0.069	0.143
-222.655	-200.000	0.033	-0.205
-221.640	105.280	-0.050	0.058
-220.625	-12.118	0.113	0.072
-219.611	-200.000	-0.035	-0.175
-218.596	190.271	0.129	-0.190
-217.582	-141.843	0.041	-0.004
-216.567	44.281	0.271	0.244
-215.552	800.000	0.023	0.070
-214.538	-200.000	-0.003	0.217
-213.523	-136.722	0.380	0.043
-212.509	-19.032	0.123	0.075
-211.494	800.000	0.039	0.149
-210.479	-58.992	-0.016	0.007
-209.465	171.551	-0.196	0.277
-208.450	-44.772	-0.091	-0.044
-207.436	315.253	-0.268	-0.496
-206.421	-152.939	0.188	0.013
-205.406	23.448	0.097	0.078
-204.392	-23.313	-0.378	-0.223
-203.377	-200.000	-0.059	-0.294
-202.363	71.877	-0.146	-0.149
-201.348	49.136	-0.131	-0.121
-200.333	377.890	-0.169	0.338
-199.319	-180.926	0.021	0.000
-198.304	-200.000	-0.009	-0.362
-197.290	-57.693	0.247	0.106
-196.275	457.162	0.016	0.035
-195.260	800.000	0.015	-0.043
-194.246	4.086	0.099	0.071
-193.231	19.669	-0.155	-0.123
-192.217	2.775	-0.151	-0.108
-191.202	-82.884	0.356	-0.113
-190.187	-99.014	-0.235	0.059
-189.173	-121.670	-0.258	-0.042
-188.158	69.434	0.095	-0.096
-187.144	-163.081	0.075	0.004
-186.129	6.378	0.076	0.055
-185.114	408.228	0.220	0.456
-184.100	-75.925	-0.049	-0.017
-183.085	44.176	0.251	0.226
-182.071	-158.913	0.428	-0.024
-181.056	-49.799	0.345	-0.161
-180.042	-3.920	0.192	0.131
-179.027	-138.173	0.220	-0.024
-178.012	42.982	-0.144	-0.129
-176.998	-200.000	-0.011	-0.096
-175.983	403.625	0.073	0.151
-174.969	428.924	0.223	0.473
-173.954	99.873	-0.140	0.159
-172.939	56.774	-0.094	-0.090
-171.925	476.863	0.087	0.192
-170.910	-48.992	0.329	0.154
-169.896	222.685	-0.070	-0.111
-168.881	-170.418	-0.286	-0.010
-167.866	-200.000	0.027	-0.280
-166.852	402.744	0.047	0.096
-165.837	-200.000	0.034	0.243
-164.823	-28.844	-0.321	-0.181
-163.808	-45.790	0.297	0.144
-162.793	-200.000	-0.004	-0.252
-161.779	21.890	-0.039	-0.031
-160.764	396.194	0.065	0.133
-159.750	41.302	0.232	0.206
-158.735	-200.000	0.049	0.469
-157.720	-56.845	0.272	0.118
-156.706	-40.125	0.246	-0.126
-155.691	491.694	-0.037	0.082
-154.677	-200.000	0.026	0.131
-153.662	-110.706	0.318	-0.064
-152.647	200.129	0.214	-0.321
-151.633	371.046	-0.067	-0.133
-150.618	237.828	0.185	-0.301
-149.604	-153.604	0.134	-0.009
-148.589	-35.030	0.201	0.107
-147.574	-26.204	-0.333	-0.192
-146.560	172.080	0.078	0.109
-145.545	124.305	-0.032	-0.039
-144.531	-134.273	0.217	-0.026
-143.516	-6.100	0.126	-0.084
-142.502	-106.190	-0.237	0.052
-141.487	-58.102	-0.047	0.020
-140.472	800.000	0.048	0.146
-139.458	115.848	-0.026	0.031
-138.443	-137.113	0.201	-0.022
-137.429	-148.003	0.133	0.011
-136.414	55.729	0.198	-0.188
-135.399	-200.000	0.054	-0.301
-134.385	800.000	0.097	0.282
-133.370	-60.510	0.188	0.078
-132.356	100.393	-0.102	-0.116
-131.341	54.314	0.276	0.260
-130.326	800.000	-0.046	0.172
-129.312	-22.144	0.205	0.122
-128.297	-200.000	0.019	0.206
-127.283	800.000	0.025	0.092
-126.268	560.208	0.012	0.029
-125.253	-179.123	0.346	0.008
-124.239	10.702	-0.106	-0.079
-123.224	7.384	0.129	0.094
-122.210	-72.655	0.113	0.041
-121.195	-76.766	-0.119	0.041
-120.180	-200.000	-0.019	0.181
-119.166	166.868	0.193	-0.267
-118.151	383.110	-0.076	-0.154
-117.137	169.957	-0.149	-0.208
-116.122	-49.212	0.373	-0.174
-115.107	-154.221	0.207	-0.014
-114.093	258.228	-0.102	0.172
-113.078	328.794	0.152	0.286
-112.064	-27.836	-0.234	0.132
-111.049	-88.510	0.103	-0.030
-110.034	-57.990	-0.168	-0.072
-109.020	-200.000	0.021	0.269
-108.005	-200.000	-0.014	-0.061
-106.991	-109.915	0.175	-0.036
-105.976	-76.183	0.267	0.092
-104.962	792.748	-0.046	0.123
-103.947	-160.776	0.392	0.020
-102.932	-200.000	-0.078	0.416
-101.918	21.664	0.127	0.101
-100.903	-200.000	0.026	-0.236
-99.889	-200.000	-0.287	0.000
-98.874	202.834	0.043	0.065
-97.859	366.138	0.118	0.232
-96.845	-23.367	0.424	0.249
-95.830	800.000	-0.049	0.138
-94.816	42.290	0.210	-0.186
-93.801	323.861	-0.123	-0.230
-92.786	111.779	0.101	-0.119
-91.772	-54.540	-0.276	-0.122
-90.757	7.308	0.067	0.049
-89.743	-109.290	-0.070	-0.014
-88.728	-200.000	-0.081	-0.365
-87.713	800.000	0.080	0.250
-86.699	-105.516	-0.193	0.043
-85.684	33.723	-0.128	-0.109
-84.670	-123.209	0.203	0.032
-83.655	-12.979	-0.095	0.060
-82.640	-74.345	-0.205	-0.072
-81.626	257.775	0.048	-0.080
-80.611	669.017	-0.034	0.086
-79.597	-200.000	-0.053	-0.313
-78.582	800.000	0.095	0.381
-77.567	295.360	0.151	0.269
-76.553	-200.000	-0.009	-0.104
-75.538	32.972	0.250	-0.212
-74.524	-159.204	0.103	0.006
-73.509	-200.000	0.009	0.397
-72.494	729.050	-0.114	0.296
-71.480	800.000	-0.075	0.208
-70.465	800.000	-0.019	0.053
-69.451	-200.000	0.002	0.016
-68.436	327.019	0.107	0.200
-67.422	-93.715	-0.403	-0.108
-66.407	-26.175	0.227	0.130
-65.392	-200.000	-0.013	-0.218
-64.378	102.882	0.032	0.037
-63.363	-5.019	-0.255	-0.172
-62.349	-200.000	-0.013	-0.132
-61.334	185.633	-1.116	-1.619
-60.319	389.203	0.369	0.747
-59.305	351.311	-0.491	-0.949
-58.290	424.723	0.692	1.453
-57.276	800.000	0.503	1.389
-56.261	-200.000	124.935	654.789
-55.246	414.879	1569.215	3262.929
-54.232	142.249	2728.231	3533.614
-53.217	96.469	2165.355	2418.767
-52.203	35.145	1596.499	1365.338
-51.188	26.511	1340.240	1094.200
-50.173	24.116	1302.646	1049.372
-49.159	52.033	1371.688	1275.200
-48.144	48.928	1382.897	1266.794
-47.130	26.926	1330.767	1088.786
-46.115	23.584	1312.208	1053.748
-45.100	23.427	1306.559	1048.244
-44.086	23.336	1304.495	1046.008
-43.071	23.324	1302.282	1044.119
-42.057	23.250	1299.564	1041.461
-41.042	23.357	1298.444	1041.155
-40.027	23.414	1296.999	1040.286
-39.013	23.226	1295.179	1037.687
-37.998	23.321	1293.123	1036.552
-36.984	23.375	1291.976	1035.908
-35.969	23.420	1289.952	1034.507
-34.954	23.413	1288.680	1033.407
-33.940	23.414	1287.314	1032.276
-32.925	23.438	1286.302	1031.561
-31.911	23.584	1284.197	1030.683
-30.896	23.485	1283.118	1029.197
-29.881	23.520	1281.712	1028.232
-28.867	23.539	1280.584	1027.400
-27.852	23.609	1278.550	1026.130
-26.838	23.552	1277.291	1024.753
-25.823	23.559	1276.136	1023.823
-24.809	23.523	1274.909	1022.593
-23.794	23.441	1273.865	1021.239
-22.779	23.583	1271.901	1020.439
-21.765	23.501	1271.149	1019.326
-20.750	23.429	1270.021	1017.966
-19.736	23.507	1268.134	1016.864
-18.721	23.357	1267.463	1015.422
-17.706	23.389	1266.288	1014.628
-16.692	23.483	1264.417	1013.621
-15.677	23.254	1264.053	1011.983
-14.663	23.334	1262.732	1011.340
-13.648	23.318	1261.838	1010.493
-12.633	23.330	1261.060	1009.902
-11.619	23.404	1260.211	1009.600
-10.604	23.358	1259.036	1008.357
-9.590	23.370	1258.000	1007.556
-8.575	23.343	1257.072	1006.621
-7.560	23.361	1256.238	1006.016
-6.546	23.387	1255.786	1005.762
-5.531	23.433	1254.912	1005.279
-4.517	23.334	1253.842	1003.824
-3.502	23.371	1253.266	1003.533
-2.487	23.439	1252.423	1003.202
-1.473	23.290	1247.794	998.613
-0.458	21.735	1232.663	977.793
0.556	16.499	1216.957	940.181
1.571	12.844	1224.541	925.472
2.586	12.251	1239.533	933.347
3.600	12.363	1227.185	924.598
4.615	9.105	1155.440	853.178
5.629	3.048	1084.910	770.730
6.644	0.389	1067.918	745.458
7.659	0.096	1066.596	743.024
8.673	0.100	1065.023	741.885
9.688	0.146	1063.864	741.235
10.702	0.297	1061.766	740.450
11.717	4.028	1065.819	761.588
12.731	10.897	1075.145	802.172
13.746	15.449	1081.059	829.045
14.761	16.824	1081.680	836.239
15.775	16.061	1080.078	831.165
16.790	15.036	1078.409	824.760
17.804	14.453	1076.570	820.414
18.819	14.035	1075.349	817.352
19.834	13.711	1075.050	815.460
20.848	13.465	1073.866	813.281
21.863	13.346	1072.734	811.768
22.877	13.268	1071.900	810.682
23.892	13.089	1071.225	809.223
24.907	13.143	1070.728	809.040
25.921	13.079	1070.261	808.303
26.936	13.147	1069.450	807.954
27.950	13.099	1068.111	806.635
28.965	13.349	1066.709	806.725
29.980	13.304	1065.500	805.521
30.994	13.388	1064.521	805.116
32.009	13.213	1063.649	803.535
33.023	13.393	1062.502	803.474
34.038	13.211	1062.229	802.311
35.053	13.147	1061.095	801.073
36.067	13.219	1060.180	800.662
37.082	13.165	1059.246	799.624
38.096	13.335	1058.658	799.929
39.111	13.265	1058.062	799.073
40.126	13.185	1056.618	797.525
41.140	13.160	1055.525	796.508
42.155	13.196	1054.099	795.536
43.169	13.158	1052.731	794.251
44.184	12.944	1052.430	792.924
45.199	13.153	1051.054	792.820
46.213	13.090	1050.022	791.669
47.228	13.089	1049.264	791.020
48.242	13.115	1047.802	789.973
49.257	13.214	1047.132	789.874
50.271	13.192	1046.111	788.927
51.286	13.237	1045.075	788.291
52.301	13.169	1044.146	787.196
53.315	13.270	1042.473	786.346
54.330	13.183	1042.276	785.713
55.344	13.063	1041.464	784.463
56.359	13.106	1040.577	783.928
57.374	13.026	1039.727	782.839
58.388	13.079	1038.705	782.250
59.403	13.092	1037.542	781.368
60.417	13.092	1037.024	780.907
61.432	13.027	1036.602	780.217
62.447	13.011	1035.589	779.310
63.461	13.020	1034.774	778.668
64.476	13.003	1033.441	777.517
65.490	13.040	1032.839	777.170
66.505	13.167	1031.858	776.957
67.520	13.070	1031.766	776.366
68.534	13.124	1030.614	775.684
69.549	12.980	1029.965	774.452
70.563	12.992	1029.207	773.866
71.578	12.937	1028.476	772.993
72.593	12.900	1027.942	772.348
73.607	12.971	1027.026	771.923
74.622	12.868	1026.353	770.867
75.636	12.962	1025.739	770.777
76.651	12.967	1024.996	770.177
77.666	13.024	1024.149	769.738
78.680	12.934	1023.611	768.844
79.695	12.950	1023.108	768.472
80.709	12.964	1022.464	767.987
81.724	13.225	1021.404	768.336
82.739	13.136	1021.023	767.568
83.753	13.091	1020.053	766.562
84.768	13.180	1019.211	766.275
85.782	13.227	1018.044	765.545
86.797	13.153	1017.699	764.876
87.812	13.149	1017.017	764.276
88.826	13.155	1016.071	763.527
89.841	13.228	1014.600	762.692
90.855	13.302	1013.811	762.372
91.870	13.255	1013.047	761.512
92.884	13.365	1011.912	761.098
93.899	13.202	1011.791	760.190
94.914	13.517	1010.276	760.431
95.928	13.314	1009.735	759.026
96.943	13.222	1009.229	758.155
97.957	13.195	1008.296	757.265
98.972	13.239	1007.571	756.854
99.987	13.278	1006.575	756.218
101.001	13.235	1005.539	755.174
102.016	13.215	1005.025	754.632
103.030	13.255	1003.986	753.965
104.045	13.316	1003.088	753.505
105.060	13.187	1002.372	752.313
106.074	13.135	1001.498	751.353
107.089	13.111	1000.438	750.384
108.103	13.302	999.191	750.249
109.118	13.165	998.575	749.097
110.133	13.113	997.794	748.208
111.147	13.058	996.875	747.205
112.162	13.197	995.894	747.034
113.176	13.288	995.614	747.168
114.191	13.249	994.308	745.945
115.206	13.188	993.752	745.189
116.220	13.191	992.982	744.556
117.235	13.295	991.751	744.037
118.249	13.295	990.857	743.300
119.264	13.176	990.373	742.337
120.279	13.136	989.859	741.707
121.293	13.253	988.252	740.959
122.308	13.068	987.963	739.849
123.322	13.093	986.865	739.075
124.337	13.007	985.994	737.974
125.352	13.206	985.017	738.065
126.366	13.102	983.725	736.565
127.381	13.132	982.646	735.826
128.395	13.149	981.653	735.095
129.410	13.268	980.859	734.963
130.424	13.246	980.247	734.344
131.439	13.309	979.190	733.764
132.454	13.341	978.633	733.423
133.468	13.223	977.781	732.199
134.483	13.307	976.991	731.915
135.497	13.311	975.655	730.868
136.512	13.320	975.104	730.430
137.527	13.282	974.329	729.614
138.541	13.165	973.911	728.722
139.556	13.332	972.588	728.404
140.570	13.290	972.175	727.846
141.585	13.355	971.364	727.459
142.600	13.379	970.354	726.744
143.614	13.350	969.760	726.108
144.629	13.402	968.921	725.644
145.643	13.302	967.948	724.413
146.658	13.381	966.905	723.911
147.673	13.379	965.803	723.014
148.687	13.241	965.263	721.943
149.702	13.391	964.311	721.822
150.716	13.364	963.504	721.037
151.731	13.389	962.817	720.569
152.746	13.452	961.786	720.006
153.760	13.378	961.334	719.283
154.775	13.345	961.040	718.855
155.789	13.613	960.330	719.424
156.804	13.573	959.693	718.712
157.819	13.459	958.934	717.583
158.833	13.535	958.604	717.601
159.848	13.552	957.468	716.762
160.862	13.593	956.395	716.073
161.877	13.535	955.162	714.838
162.892	13.519	954.389	714.127
163.906	13.544	953.543	713.535
164.921	13.545	952.743	712.882
165.935	13.399	952.102	711.710
166.950	13.495	951.372	711.513
167.964	13.583	950.004	710.802
168.979	13.567	949.201	710.072
169.994	13.582	948.597	709.620
171.008	13.685	947.644	709.288
172.023	13.615	947.491	708.812
173.037	13.616	946.280	707.845
174.052	13.743	945.804	707.968
175.067	13.508	945.365	706.578
176.081	13.678	944.369	706.495
177.096	13.599	944.044	705.852
178.110	13.559	943.799	705.435
179.125	13.579	942.856	704.754
180.140	13.779	942.202	705.052
181.154	13.612	941.882	704.039
182.169	13.654	941.365	703.768
183.183	13.700	940.422	703.198
184.198	13.731	939.896	702.874
185.213	13.849	938.842	702.525
186.227	13.737	938.625	701.822
187.242	13.772	937.824	701.311
188.256	13.902	937.084	701.244
189.271	13.842	936.357	700.384
190.286	13.764	935.502	699.355
191.300	13.727	934.689	698.530
192.315	13.661	934.360	697.944
193.329	13.660	933.863	697.508
194.344	13.750	933.031	697.202
195.359	13.869	932.346	697.130
196.373	14.005	931.470	696.984
197.388	13.888	931.826	696.696
198.402	13.948	931.251	696.456
199.417	13.915	930.451	695.657
200.432	14.053	929.843	695.721
201.446	14.147	929.024	695.437
202.461	14.127	929.095	695.345
203.475	13.972	928.587	694.258
204.490	14.196	927.151	694.057
205.504	14.198	926.208	693.295
206.519	13.967	925.889	692.036
207.534	14.077	924.939	691.723
208.548	14.054	924.473	691.215
209.563	14.117	924.284	691.277
210.577	14.170	922.904	690.401
211.592	14.264	922.353	690.317
212.607	14.311	921.330	689.684
213.621	14.202	920.864	688.825
214.636	14.211	919.997	688.153
215.650	14.214	919.462	687.705
216.665	14.306	918.561	687.350
217.680	14.360	918.188	687.231
218.694	14.320	917.829	686.736
219.709	14.280	916.499	685.519
220.723	14.384	916.033	685.534
221.738	14.290	915.510	684.696
222.753	14.312	914.730	684.144
223.767	14.283	914.527	683.814
224.782	14.332	913.986	683.549
225.796	14.322	913.454	683.047
226.811	14.405	912.386	682.528
227.826	14.418	911.582	681.920
228.840	14.395	910.825	681.202
229.855	14.424	910.142	680.750
230.869	14.402	909.321	679.985
231.884	14.343	908.796	679.291
232.899	14.429	908.080	679.045
233.913	14.412	907.469	678.461
234.928	14.352	907.136	677.907
235.942	14.411	906.298	677.460
236.957	14.333	905.837	676.738
237.972	14.312	905.493	676.337
238.986	14.451	904.419	676.037
240.001	14.492	904.075	675.886
241.015	14.479	903.073	675.025
242.030	14.460	902.522	674.479
243.045	14.504	902.221	674.369
244.059	14.528	901.440	673.823
245.074	14.551	900.782	673.365
246.088	14.625	899.935	672.973
247.103	14.697	899.226	672.673
248.117	14.619	898.643	671.863
249.132	14.679	898.084	671.626
250.147	14.612	897.984	671.224
251.161	14.982	896.546	671.572
252.176	14.759	896.134	670.313
253.190	14.669	895.506	669.419
254.205	14.909	895.139	670.051
255.220	14.987	894.362	669.720
256.234	14.853	893.557	668.523
257.249	14.836	893.029	668.000
258.263	14.883	892.183	667.495
259.278	14.962	891.653	667.354
260.293	14.979	891.112	666.959
261.307	14.945	890.461	666.277
262.322	15.023	889.856	666.075
263.336	15.209	888.713	665.900
264.351	15.241	888.037	665.461
265.366	15.132	887.618	664.658
266.380	14.997	887.161	663.721
267.395	15.145	886.342	663.638
268.409	15.117	885.516	662.849
269.424	15.094	885.120	662.401
270.439	15.042	884.002	661.303
271.453	15.215	883.361	661.445
272.468	15.145	883.003	660.842
273.482	15.098	882.579	660.283
274.497	15.045	882.312	659.816
275.512	15.080	881.180	659.048
276.526	15.165	881.020	659.205
277.541	15.167	880.590	658.834
278.555	15.124	880.088	658.230
279.570	15.414	879.148	658.606
280.585	15.186	878.361	657.065
281.599	15.311	877.436	656.803
282.614	15.376	876.708	656.456
283.628	15.294	876.598	655.996
284.643	15.321	875.824	655.461
285.657	15.321	875.035	654.814
286.672	15.412	874.123	654.429
287.687	15.517	873.664	654.436
288.701	15.440	873.260	653.776
289.716	15.487	872.650	653.444
290.730	15.483	871.833	652.758
291.745	15.495	871.193	652.267
292.760	15.504	870.986	652.091
293.774	15.487	870.303	651.455
294.789	15.367	869.766	650.531
295.803	15.491	869.072	650.434
296.818	15.621	868.075	650.133
297.833	15.561	867.409	649.344
298.847	15.538	866.842	648.777
299.862	15.495	866.460	648.265
300.876	15.591	865.964	648.208
301.891	15.551	865.398	647.574
302.906	15.654	864.939	647.570
303.920	15.670	864.481	647.229
304.935	15.677	863.944	646.796
305.949	15.700	862.962	646.095
306.964	15.701	862.768	645.893
307.979	15.761	862.097	645.565
308.993	15.689	861.652	644.898
310.008	15.727	860.929	644.448
311.022	15.832	860.011	644.105
312.037	15.780	859.540	643.494
313.052	15.841	859.032	643.293
314.066	15.727	858.732	642.574
315.081	15.728	858.305	642.203
316.095	15.791	857.358	641.677
317.110	15.744	856.794	641.018
318.125	15.865	856.277	641.036
319.139	15.872	855.592	640.493
320.154	15.784	855.223	639.824
321.168	15.901	854.404	639.599
322.183	15.845	854.028	639.051
323.197	15.936	853.602	639.021
324.212	15.913	852.921	638.365
325.227	15.837	852.700	637.856
326.241	15.889	851.954	637.439
327.256	15.928	851.463	637.164
328.270	15.913	850.572	636.383
329.285	15.906	850.092	635.940
330.300	15.843	849.589	635.270
331.314	16.001	848.921	635.313
332.329	15.890	849.078	634.953
333.343	16.030	848.204	634.770
334.358	16.005	847.618	634.182
335.373	16.084	847.378	634.245
336.387	16.065	846.969	633.811
337.402	16.080	846.444	633.418
338.416	16.001	846.692	633.250
339.431	16.207	846.338	633.705
340.446	16.270	845.363	633.152
341.460	16.231	845.362	632.950
342.475	16.128	845.143	632.344
343.489	16.238	844.360	632.114
344.504	16.257	843.646	631.594
345.519	16.391	843.100	631.633
346.533	16.427	842.414	631.195
347.548	16.238	842.114	630.210
348.562	16.271	841.581	629.876
349.577	16.360	840.973	629.698
350.592	16.352	840.218	629.049
351.606	16.145	839.700	627.833
352.621	16.358	839.258	628.240
353.635	16.279	838.313	627.184
354.650	16.279	838.118	626.982
355.665	16.384	836.984	626.467
356.679	16.323	837.091	626.266
357.694	16.342	835.966	625.439
358.708	16.484	835.274	625.393
359.723	16.493	834.612	624.874
360.738	16.335	834.023	623.797
361.752	16.446	833.707	623.913
362.767	16.467	832.868	623.307
363.781	16.537	832.372	623.140
364.796	16.570	832.197	623.073
365.810	16.656	831.769	623.017
366.825	16.613	831.038	622.255
367.840	16.722	830.639	622.300
368.854	16.825	830.029	622.167
369.869	16.541	829.767	620.873
370.883	16.721	829.614	621.366
371.898	16.803	829.101	621.228
372.913	16.751	828.773	620.734
373.927	16.808	828.307	620.538
374.942	16.849	827.617	620.120
375.956	16.820	827.288	619.711
376.971	16.869	827.006	619.624
377.986	16.846	826.470	619.083
379.000	16.969	825.847	619.012
380.015	16.957	825.725	618.820
381.029	17.007	824.638	618.134
382.044	16.976	824.087	617.552
383.059	16.910	823.547	616.855
384.073	16.865	823.010	616.231
385.088	17.032	822.438	616.356
386.102	16.798	822.233	615.297
387.117	16.923	821.672	615.280
388.132	16.852	820.885	614.378
389.146	17.136	819.927	614.633
390.161	17.073	819.981	614.392
391.175	17.102	819.354	613.972
392.190	17.026	818.716	613.166
393.205	17.007	818.378	612.789
394.219	17.049	818.144	612.712
395.234	16.991	817.968	612.317
396.248	16.927	817.570	611.732
397.263	16.999	816.879	611.424
398.278	17.055	816.106	610.989
399.292	16.944	816.265	610.658
400.307	17.140	815.406	610.665
401.321	17.039	815.042	609.976
402.336	16.943	814.546	609.206
403.350	17.272	813.968	609.899
404.365	17.167	813.513	609.128
405.380	17.162	813.154	608.786
406.394	17.372	812.448	608.958
407.409	17.351	811.843	608.374
408.423	17.346	811.996	608.416
409.438	17.445	811.592	608.414
410.453	17.474	811.012	608.029
411.467	17.340	810.346	606.998
412.482	17.540	809.736	607.199
413.496	17.550	809.636	607.107
414.511	17.442	809.448	606.529
415.526	17.466	808.988	606.214
416.540	17.425	808.718	605.814
417.555	17.369	808.079	605.082
418.569	17.453	807.642	604.998
419.584	17.538	807.173	604.895
420.599	17.429	806.985	604.314
421.613	113.495	1298.724	1486.431
422.628	98.010	1370.330	1486.487
