DTS Sentinel unit serial number:	SN413079Multiplexer serial number:	ORYXHardware model number:	OX4-SRSoftware version number:	ORYX F/W v4.00 Oryx Data Collector v3.7.2.0data status	okinstallation	princeton_trtdifferential loss correction	single-endedforward channel	channel 1reverse channel	N/Adate	2019/09/15time	06:14:35forward acquisition time	60.00reverse acquisition time	0.00gamma	496.2192k internal	0.2324k external	0.2324temperature offset calibration	0.9998default loss term (dB/km)	0.3790temperature slope calibration	1.0000multiplexer offset coefficient	1.0000multiplexer slope coefficient	1.0000fibre end	0.00T internal ref (°C)	30.55T ext. ref 1 (°C)	4.84T ext. ref 2 (°C)	25.05length (m)	temperature (°C)	Stokes	anti-Stokes-747.200	-200.000	-0.022	-0.190
-746.185	-126.416	-0.358	-0.054
-745.171	148.928	-0.154	0.210
-744.156	-79.315	-0.257	0.088
-743.142	362.454	0.168	-0.340
-742.127	-200.000	0.063	0.321
-741.112	225.854	0.157	0.257
-740.098	102.800	-0.168	0.198
-739.083	-154.250	-0.102	-0.007
-738.069	-200.000	-0.072	0.398
-737.054	-67.754	-0.230	0.091
-736.039	-64.857	-0.251	-0.103
-735.025	41.079	0.284	-0.259
-734.010	458.105	-0.030	-0.068
-732.996	79.152	-0.380	-0.411
-731.981	-200.000	0.017	0.288
-730.966	633.896	0.195	0.500
-729.952	800.000	-0.070	-0.231
-728.937	209.529	0.190	-0.301
-727.923	-19.098	0.026	0.017
-726.908	263.456	-0.079	-0.139
-725.894	-53.676	-0.176	-0.081
-724.879	52.608	-0.401	0.386
-723.864	38.908	-0.067	-0.060
-722.850	-50.659	0.267	-0.127
-721.835	41.175	0.202	0.184
-720.821	-97.093	0.180	0.047
-719.806	-42.922	-0.278	-0.142
-718.791	191.565	-0.130	-0.198
-717.777	-96.632	-0.185	0.049
-716.762	-89.445	0.309	0.092
-715.748	-115.502	0.037	0.007
-714.733	11.920	0.099	0.077
-713.718	86.771	0.183	-0.204
-712.704	-107.159	0.174	-0.039
-711.689	-200.000	-0.021	0.339
-710.675	-113.832	0.391	-0.077
-709.660	-200.000	-0.011	-0.147
-708.645	-80.388	-0.523	-0.176
-707.631	108.653	0.301	-0.362
-706.616	-200.000	0.064	-0.521
-705.602	-34.294	-0.130	0.072
-704.587	2.900	-0.237	0.173
-703.572	-105.545	0.187	0.043
-702.558	-83.901	-0.109	-0.035
-701.543	-169.237	0.143	0.005
-700.529	662.162	-0.024	0.062
-699.514	-200.000	0.007	-0.378
-698.499	-58.177	0.036	-0.016
-697.485	-186.986	-0.216	-0.003
-696.470	-9.354	-0.191	0.129
-695.456	108.910	-0.170	-0.204
-694.441	79.782	-0.243	0.263
-693.426	9.421	0.313	-0.238
-692.412	-200.000	0.028	0.167
-691.397	-46.445	0.159	-0.079
-690.383	-41.387	0.033	0.017
-689.368	-62.330	0.261	-0.110
-688.354	800.000	0.035	-0.110
-687.339	46.775	0.062	-0.058
-686.324	800.000	-0.086	-0.246
-685.310	-200.000	-0.010	-0.247
-684.295	-29.682	-0.059	0.034
-683.281	104.634	0.234	-0.277
-682.266	-84.117	-0.121	-0.039
-681.251	14.587	-0.166	-0.130
-680.237	155.215	0.253	-0.351
-679.222	249.928	0.178	-0.305
-678.208	-200.000	-0.044	0.510
-677.193	-174.360	0.162	0.005
-676.178	-200.000	-0.019	0.169
-675.164	706.641	0.126	0.336
-674.149	-5.311	-0.147	0.102
-673.135	-155.626	-0.143	-0.009
-672.120	184.930	-0.071	-0.106
-671.105	60.730	-0.421	-0.420
-670.091	-26.173	0.058	-0.034
-669.076	186.716	0.236	-0.353
-668.062	80.878	-0.113	-0.122
-667.047	-200.000	0.020	0.093
-666.032	73.705	0.140	-0.148
-665.018	185.393	0.141	-0.210
-664.003	-200.000	-0.008	-0.245
-662.989	36.443	0.175	0.156
-661.974	-77.350	0.300	-0.105
-660.959	800.000	0.050	0.170
-659.945	-200.000	-0.045	-0.403
-658.930	-157.089	-0.258	-0.016
-657.916	-200.000	0.025	0.228
-656.901	156.922	-0.200	-0.279
-655.886	454.013	0.051	0.115
-654.872	-43.591	0.093	-0.047
-653.857	800.000	-0.111	0.349
-652.843	-91.497	-0.355	0.102
-651.828	-90.822	0.078	0.023
-650.814	170.590	-0.162	0.233
-649.799	-44.987	-0.284	0.142
-648.784	131.893	-0.216	-0.279
-647.770	-63.047	-0.205	-0.085
-646.755	618.066	0.168	-0.425
-645.741	-90.191	0.190	-0.056
-644.726	35.315	0.192	-0.170
-643.711	-105.856	0.229	0.052
-642.697	128.934	-0.182	0.233
-641.682	205.691	-0.232	-0.363
-640.668	79.801	-0.171	0.185
-639.653	18.105	0.158	-0.126
-638.638	407.449	0.038	-0.081
-637.624	-200.000	-0.020	0.366
-636.609	-148.859	0.124	0.010
-635.595	-82.333	0.162	-0.053
-634.580	586.823	0.085	-0.210
-633.565	-76.713	-0.100	0.035
-632.551	800.000	0.048	0.185
-631.536	800.000	0.026	-0.089
-630.522	180.798	-0.104	0.153
-629.507	-15.877	0.085	0.054
-628.492	-133.826	-0.097	0.012
-627.478	263.311	0.040	-0.069
-626.463	-73.311	-0.135	-0.050
-625.449	350.049	-0.080	-0.159
-624.434	62.536	-0.134	-0.135
-623.419	303.430	0.152	0.282
-622.405	-45.823	0.130	-0.065
-621.390	-200.000	-0.003	-0.166
-620.376	800.000	0.025	-0.092
-619.361	-51.600	0.153	-0.072
-618.346	217.192	0.081	-0.130
-617.332	-70.094	-0.111	-0.042
-616.317	-200.000	0.013	-0.069
-615.303	63.731	-0.017	-0.017
-614.288	-44.365	-0.245	-0.123
-613.273	-200.000	0.029	-0.163
-612.259	-84.776	0.239	-0.075
-611.244	52.194	0.082	-0.078
-610.230	-200.000	0.008	0.127
-609.215	-200.000	-0.014	-0.264
-608.201	338.166	0.036	-0.070
-607.186	-200.000	-0.008	-0.284
-606.171	9.618	-0.231	-0.176
-605.157	196.780	0.071	-0.109
-604.142	49.992	-0.205	0.194
-603.128	-177.565	-0.460	-0.011
-602.113	-151.472	0.207	0.015
-601.098	-200.000	0.002	-0.463
-600.084	-126.954	0.123	-0.018
-599.069	-97.745	0.060	0.015
-598.055	-34.403	0.083	0.046
-597.040	-42.646	-0.437	0.223
-596.025	45.599	0.150	0.139
-595.011	-200.000	0.028	0.369
-593.996	-200.000	-0.017	0.111
-592.982	-77.771	-0.117	0.041
-591.967	-77.413	-0.156	0.054
-590.952	800.000	-0.068	0.240
-589.938	-19.685	0.027	0.017
-588.923	352.726	0.130	0.258
-587.909	-46.608	-0.111	0.055
-586.894	29.369	0.219	0.187
-585.879	28.875	0.095	0.080
-584.865	3.773	-0.058	-0.042
-583.850	-126.789	-0.159	0.024
-582.836	234.269	-0.042	-0.069
-581.821	-6.413	0.251	-0.171
-580.806	-30.651	0.205	-0.116
-579.792	-115.490	-0.202	0.038
-578.777	73.873	0.079	-0.083
-577.763	800.000	-0.077	0.294
-576.748	800.000	-0.045	0.167
-575.733	-53.463	-0.162	-0.074
-574.719	-75.601	0.154	0.055
-573.704	53.428	-0.098	-0.094
-572.690	70.462	-0.154	-0.160
-571.675	50.776	-0.181	-0.172
-570.661	-147.038	-0.194	0.017
-569.646	69.742	0.229	0.237
-568.631	-141.506	-0.190	-0.019
-567.617	72.660	-0.129	0.135
-566.602	-33.816	0.125	0.069
-565.588	238.831	-0.121	-0.201
-564.573	-79.233	-0.067	0.023
-563.558	148.891	-0.073	0.099
-562.544	11.289	0.125	-0.096
-561.529	-27.405	0.348	0.203
-560.515	-35.814	-0.325	0.176
-559.500	-33.466	-0.376	-0.208
-558.485	-115.888	-0.372	-0.070
-557.471	800.000	0.042	-0.157
-556.456	309.782	0.121	-0.227
-555.442	492.727	-0.106	0.243
-554.427	-116.824	-0.187	-0.034
-553.412	-50.540	-0.114	-0.054
-552.398	233.167	-0.068	0.111
-551.383	-64.455	0.150	0.061
-550.369	-200.000	-0.003	0.091
-549.354	788.988	0.119	0.327
-548.339	-70.088	-0.138	-0.053
-547.325	-200.000	-0.060	0.442
-546.310	800.000	0.105	0.322
-545.296	-137.549	-0.331	0.037
-544.281	800.000	-0.118	-0.433
-543.266	-82.353	-0.204	0.067
-542.252	41.917	0.050	0.046
-541.237	-22.363	0.262	-0.159
-540.223	-142.406	0.095	0.009
-539.208	26.035	-0.128	-0.107
-538.193	-59.046	0.259	0.112
-537.179	800.000	-0.054	-0.155
-536.164	-131.734	-0.112	0.015
-535.150	-147.576	-0.285	0.024
-534.135	-200.000	-0.001	0.283
-533.121	-200.000	-0.063	0.286
-532.106	41.645	-0.031	0.028
-531.091	-139.371	-0.374	0.040
-530.077	-178.285	0.381	0.009
-529.062	-130.876	-0.154	0.021
-528.048	-141.958	-0.148	0.015
-527.033	-47.632	0.312	0.151
-526.018	-200.000	0.007	0.150
-525.004	43.195	-0.375	0.342
-523.989	737.378	0.037	-0.099
-522.975	-149.888	-0.236	-0.018
-521.960	-200.000	-0.032	-0.267
-520.945	-200.000	-0.034	-0.170
-519.931	-100.872	-0.186	0.046
-518.916	-12.791	0.098	0.064
-517.902	185.102	0.116	0.172
-516.887	380.715	-0.013	-0.028
-515.872	-49.152	-0.165	-0.079
-514.858	800.000	-0.035	0.121
-513.843	800.000	0.042	0.151
-512.829	337.518	0.087	-0.169
-511.814	169.570	0.275	-0.392
-510.799	85.853	-0.096	0.106
-509.785	-200.000	-0.003	-0.122
-508.770	-170.892	0.084	-0.003
-507.756	-73.458	0.137	-0.050
-506.741	148.192	-0.119	0.161
-505.726	-91.692	-0.308	-0.087
-504.712	266.060	-0.097	-0.169
-503.697	-200.000	-0.054	-0.265
-502.683	43.196	0.204	0.186
-501.668	-91.505	0.204	0.058
-500.653	-115.880	-0.174	-0.032
-499.639	-14.562	-0.126	-0.081
-498.624	-146.878	0.177	-0.015
-497.610	-111.551	-0.347	0.070
-496.595	800.000	-0.047	-0.135
-495.581	-37.887	-0.287	0.153
-494.566	-42.245	-0.067	0.034
-493.551	-103.356	-0.206	-0.049
-492.537	500.801	-0.110	-0.255
-491.522	-200.000	0.002	0.186
-490.508	165.007	-0.310	0.437
-489.493	-200.000	-0.020	0.166
-488.478	39.652	0.164	0.147
-487.464	-82.842	-0.461	0.149
-486.449	-3.297	-0.179	0.125
-485.435	83.323	-0.109	-0.119
-484.420	-137.105	0.341	0.039
-483.405	236.247	0.144	0.238
-482.391	176.036	0.107	0.155
-481.376	138.338	-0.033	-0.043
-480.362	484.386	-0.122	0.278
-479.347	800.000	-0.019	-0.080
-478.332	-200.000	-0.001	0.250
-477.318	800.000	-0.003	-0.011
-476.303	-200.000	-0.009	-0.071
-475.289	800.000	-0.132	0.373
-474.274	-135.341	0.076	0.009
-473.259	-61.782	0.154	0.064
-472.245	-75.925	-0.261	0.092
-471.230	-174.341	0.308	-0.009
-470.216	16.099	0.194	-0.153
-469.201	88.984	0.072	0.080
-468.186	-25.278	0.282	-0.167
-467.172	169.653	0.118	-0.168
-466.157	-110.404	-0.332	-0.069
-465.143	800.000	0.107	-0.316
-464.128	188.801	-0.191	-0.286
-463.113	-1.620	0.123	0.086
-462.099	14.188	-0.217	-0.169
-461.084	114.384	0.136	-0.165
-460.070	231.749	-0.050	-0.082
-459.055	-102.448	0.359	0.086
-458.040	34.449	0.103	0.090
-457.026	-200.000	-0.016	-0.126
-456.011	44.447	-0.119	-0.109
-454.997	-200.000	0.018	0.094
-453.982	-62.141	0.470	-0.196
-452.968	319.947	-0.043	-0.082
-451.953	-21.555	-0.050	-0.030
-450.938	402.333	0.110	0.230
-449.924	800.000	0.091	0.274
-448.909	644.501	-0.139	-0.353
-447.895	51.695	-0.080	-0.076
-446.880	-107.524	0.104	0.023
-445.865	-70.119	-0.139	0.053
-444.851	-200.000	-0.011	0.232
-443.836	141.876	0.044	0.058
-442.822	800.000	-0.037	0.105
-441.807	-97.667	-0.067	-0.017
-440.792	-132.054	0.039	-0.005
-439.778	-91.411	0.042	-0.012
-438.763	90.308	-0.103	0.115
-437.749	-85.183	-0.228	0.071
-436.734	88.989	0.109	-0.121
-435.719	-147.879	0.190	-0.016
-434.705	-77.146	-0.213	0.074
-433.690	-200.000	-0.001	-0.204
-432.676	316.747	0.155	-0.291
-431.661	285.895	-0.165	-0.296
-430.646	118.331	0.187	-0.230
-429.632	800.000	0.128	-0.426
-428.617	800.000	-0.086	0.288
-427.603	-200.000	-0.001	0.045
-426.588	-126.375	0.252	-0.037
-425.573	0.914	0.139	0.099
-424.559	-98.350	-0.467	-0.119
-423.544	-200.000	-0.003	-0.316
-422.530	-138.065	-0.294	-0.033
-421.515	-73.664	0.171	-0.062
-420.500	-139.031	-0.296	-0.032
-419.486	138.559	0.183	-0.240
-418.471	-69.610	0.054	-0.020
-417.457	800.000	-0.033	-0.124
-416.442	139.212	0.158	0.207
-415.428	175.963	0.090	-0.130
-414.413	800.000	0.155	-0.464
-413.398	167.583	0.129	0.182
-412.384	-200.000	-0.028	-0.210
-411.369	-137.771	-0.313	0.035
-410.355	-21.483	-0.225	-0.137
-409.340	-138.012	-0.188	-0.021
-408.325	11.316	0.128	0.098
-407.311	-200.000	0.035	-0.201
-406.296	-200.000	-0.008	-0.186
-405.282	-58.999	0.260	0.112
-404.267	-200.000	-0.004	-0.127
-403.252	135.441	-0.082	-0.106
-402.238	800.000	-0.004	0.011
-401.223	-113.013	0.232	0.046
-400.209	-116.081	0.168	-0.031
-399.194	-117.897	-0.035	-0.006
-398.179	116.472	-0.169	-0.206
-397.165	3.544	0.311	-0.226
-396.150	-200.000	0.029	-0.165
-395.136	-48.473	0.175	-0.084
-394.121	-85.683	-0.279	0.086
-393.106	97.731	-0.107	0.122
-392.092	110.475	0.198	-0.237
-391.077	-66.125	-0.165	0.065
-390.063	465.807	-0.213	0.474
-389.048	-38.987	0.273	-0.143
-388.033	44.576	0.173	0.158
-387.019	-200.000	0.018	-0.155
-386.004	-200.000	-0.015	0.070
-384.990	347.944	-0.016	-0.032
-383.975	-185.319	0.240	-0.004
-382.960	800.000	-0.013	-0.048
-381.946	-200.000	0.002	0.088
-380.931	800.000	-0.081	-0.240
-379.917	48.787	0.217	0.202
-378.902	-80.219	0.173	0.058
-377.888	275.545	-0.169	-0.298
-376.873	800.000	-0.077	-0.221
-375.858	-105.151	-0.341	0.077
-374.844	-7.905	0.173	-0.116
-373.829	800.000	-0.106	-0.375
-372.815	-72.892	-0.280	0.102
-371.800	-28.128	-0.242	-0.139
-370.785	-67.215	-0.252	0.099
-369.771	-200.000	0.041	-0.208
-368.756	510.901	-0.108	0.251
-367.742	7.420	0.178	0.132
-366.727	566.114	-0.050	-0.120
-365.712	618.933	0.085	0.212
-364.698	800.000	0.055	0.205
-363.683	-34.328	0.310	-0.169
-362.669	197.463	0.114	0.173
-361.654	800.000	0.075	0.217
-360.639	800.000	0.046	0.185
-359.625	-163.464	0.469	0.022
-358.610	-84.778	-0.042	0.013
-357.596	570.198	0.050	0.121
-356.581	-76.713	0.407	-0.142
-355.566	800.000	0.022	0.084
-354.552	-27.616	0.254	-0.147
-353.537	-66.302	0.169	0.067
-352.523	-107.507	0.067	-0.015
-351.508	-200.000	0.011	-0.220
-350.493	800.000	0.100	0.283
-349.479	-200.000	-0.013	0.233
-348.464	145.259	0.097	-0.129
-347.450	101.967	-0.127	0.147
-346.435	-144.919	-0.181	0.016
-345.420	733.252	-0.100	0.266
-344.406	154.250	-0.113	0.154
-343.391	-200.000	-0.016	0.096
-342.377	66.563	0.250	0.252
-341.362	35.963	0.302	0.264
-340.348	800.000	0.102	-0.320
-339.333	221.932	0.108	-0.172
-338.318	33.225	-0.053	0.045
-337.304	-146.186	-0.216	-0.019
-336.289	282.093	0.114	0.204
-335.275	-200.000	-0.003	0.019
-334.260	-200.000	0.019	-0.196
-333.245	-107.888	-0.078	-0.017
-332.231	106.586	0.201	-0.237
-331.216	-98.825	-0.146	-0.037
-330.202	-200.000	-0.005	0.091
-329.187	-200.000	0.011	-0.253
-328.172	-22.008	-0.064	-0.039
-327.158	-200.000	-0.004	-0.318
-326.143	98.659	-0.169	-0.194
-325.129	87.170	-0.259	-0.284
-324.114	-113.422	-0.187	-0.036
-323.099	-137.239	0.223	0.025
-322.085	18.050	0.234	-0.185
-321.070	326.357	0.102	-0.194
-320.056	-130.484	-0.049	-0.007
-319.041	23.079	-0.225	0.183
-318.026	4.685	0.176	0.128
-317.012	-4.686	-0.270	0.185
-315.997	20.912	0.219	0.176
-314.983	255.739	0.082	0.140
-313.968	545.704	-0.117	0.278
-312.953	-191.776	-0.247	0.002
-311.939	-145.012	0.164	0.015
-310.924	-23.641	0.268	-0.160
-309.910	800.000	0.054	-0.170
-308.895	124.937	-0.047	-0.059
-307.880	-200.000	-0.027	0.151
-306.866	31.537	-0.006	0.005
-305.851	-163.042	-0.177	-0.009
-304.837	-200.000	-0.052	0.349
-303.822	-48.325	0.095	0.045
-302.807	-38.319	-0.116	0.061
-301.793	-109.455	0.081	0.017
-300.778	-138.861	0.413	0.045
-299.764	8.659	0.050	0.038
-298.749	303.705	0.055	-0.101
-297.735	477.300	0.035	-0.079
-296.720	800.000	0.025	0.094
-295.705	62.814	-0.240	-0.238
-294.691	-200.000	0.005	0.163
-293.676	110.070	-0.202	-0.240
-292.662	-200.000	0.005	0.083
-291.647	-72.279	0.547	-0.201
-290.632	113.641	-0.033	-0.040
-289.618	-63.182	-0.160	-0.065
-288.603	-200.000	0.014	-0.159
-287.589	-76.158	-0.418	-0.146
-286.574	-50.490	-0.386	-0.180
-285.559	-35.417	0.066	0.035
-284.545	152.409	0.096	-0.131
-283.530	-200.000	-0.004	0.309
-282.516	-200.000	0.026	-0.199
-281.501	-200.000	0.031	0.182
-280.486	800.000	-0.086	-0.247
-279.472	-200.000	0.006	-0.145
-278.457	800.000	-0.035	0.122
-277.443	-109.576	-0.284	-0.059
-276.428	-64.572	-0.280	0.113
-275.413	40.078	0.172	0.153
-274.399	-88.084	-0.215	-0.064
-273.384	65.153	-0.048	-0.048
-272.370	-167.385	-0.131	0.005
-271.355	244.953	-0.095	-0.158
-270.340	148.592	-0.254	-0.340
-269.326	-162.691	0.386	-0.019
-268.311	142.047	0.210	0.276
-267.297	-191.488	0.138	-0.001
-266.282	-41.642	0.143	-0.073
-265.267	-200.000	0.010	-0.203
-264.253	800.000	-0.104	0.376
-263.238	-25.035	-0.306	0.180
-262.224	38.636	0.319	-0.282
-261.209	-50.641	0.140	-0.065
-260.195	45.250	-0.256	-0.233
-259.180	731.297	0.065	0.173
-258.165	-200.000	0.057	0.259
-257.151	-52.564	-0.193	-0.088
-256.136	-163.779	0.257	0.012
-255.122	-51.186	-0.306	-0.142
-254.107	176.065	0.076	0.110
-253.092	-132.250	0.174	-0.022
-252.078	345.394	0.022	0.043
-251.063	-112.139	-0.213	0.042
-250.049	-26.268	0.217	0.126
-249.034	61.728	0.182	0.180
-248.019	-200.000	-0.062	0.326
-247.005	-200.000	-0.034	-0.343
-245.990	800.000	-0.051	0.154
-244.976	192.614	-0.024	-0.036
-243.961	302.691	-0.087	0.159
-242.946	57.622	0.231	0.224
-241.932	28.900	0.113	0.095
-240.917	-145.033	-0.141	0.013
-239.903	4.419	-0.199	-0.144
-238.888	-185.286	0.337	0.005
-237.873	-107.131	-0.049	-0.011
-236.859	-113.822	-0.268	-0.052
-235.844	-148.286	0.094	-0.008
-234.830	126.198	0.097	0.122
-233.815	800.000	0.075	0.252
-232.800	-83.708	0.130	0.041
-231.786	-157.802	-0.354	-0.021
-230.771	-115.768	0.265	-0.049
-229.757	-200.000	0.027	0.225
-228.742	5.480	-0.040	-0.029
-227.727	800.000	0.066	0.286
-226.713	229.075	-0.134	0.216
-225.698	84.525	0.084	-0.091
-224.684	800.000	0.078	0.328
-223.669	43.801	-0.043	0.039
-222.655	422.825	0.135	-0.287
-221.640	-129.333	0.142	-0.020
-220.625	-200.000	0.029	0.394
-219.611	83.604	0.165	0.178
-218.596	-20.183	0.059	-0.036
-217.582	-132.334	0.356	0.046
-216.567	-54.644	-0.179	0.080
-215.552	-92.236	0.097	-0.027
-214.538	-200.000	-0.017	-0.142
-213.523	-51.279	0.043	0.020
-212.509	-114.481	0.284	-0.054
-211.494	-44.972	0.074	0.037
-210.479	28.647	-0.026	0.022
-209.465	-16.073	-0.122	-0.077
-208.450	208.868	0.109	-0.168
-207.436	446.838	-0.096	-0.208
-206.421	-200.000	-0.016	-0.242
-205.406	128.547	0.118	-0.149
-204.392	263.689	0.133	-0.229
-203.377	-79.134	0.136	-0.046
-202.363	92.778	0.047	0.052
-201.348	-87.846	-0.153	-0.045
-200.333	-188.408	0.093	0.001
-199.319	90.221	-0.192	0.212
-198.304	-200.000	0.032	0.382
-197.290	-200.000	-0.005	0.183
-196.275	-200.000	-0.014	0.198
-195.260	-189.940	0.170	-0.002
-194.246	-60.310	0.092	-0.039
-193.231	78.829	-0.196	-0.207
-192.217	800.000	0.102	0.427
-191.202	-200.000	-0.010	-0.103
-190.187	55.120	-0.103	-0.098
-189.173	-200.000	0.006	0.137
-188.158	-149.812	-0.215	-0.017
-187.144	-200.000	0.001	-0.323
-186.129	6.186	-0.117	0.085
-185.114	-26.893	-0.174	0.100
-184.100	800.000	0.026	0.105
-183.085	126.871	0.223	-0.279
-182.071	800.000	-0.023	-0.074
-181.056	-200.000	-0.002	0.450
-180.042	9.966	-0.339	-0.254
-179.027	-155.667	-0.141	0.009
-178.012	-111.908	0.244	0.049
-176.998	61.442	0.231	-0.227
-175.983	557.491	-0.092	0.219
-174.969	450.358	-0.063	0.137
-173.954	493.491	-0.082	-0.186
-172.939	-70.567	0.198	0.074
-171.925	-139.263	0.163	-0.017
-170.910	-63.556	0.250	-0.101
-169.896	800.000	0.069	-0.252
-168.881	225.224	0.077	-0.124
-167.866	-145.680	-0.146	0.013
-166.852	41.139	0.097	-0.086
-165.837	-29.765	0.059	0.033
-164.823	93.944	0.226	0.253
-163.808	-200.000	-0.017	-0.181
-162.793	398.580	-0.037	-0.076
-161.779	462.859	0.051	0.112
-160.764	-165.236	0.187	-0.008
-159.750	-76.721	0.305	0.105
-158.735	436.532	0.111	-0.238
-157.720	523.585	-0.116	0.268
-156.706	-200.000	0.027	0.127
-155.691	-100.920	0.108	0.026
-154.677	22.286	-0.312	0.251
-153.662	-50.602	-0.301	-0.140
-152.647	7.327	0.265	0.195
-151.633	169.095	0.321	0.452
-150.618	-44.162	-0.235	-0.116
-149.604	-200.000	-0.014	0.070
-148.589	-200.000	0.032	0.300
-147.574	21.363	0.211	0.169
-146.560	800.000	-0.046	0.165
-145.545	-9.500	-0.401	0.264
-144.531	800.000	0.032	-0.130
-143.516	169.502	0.109	-0.153
-142.502	-167.084	-0.160	0.006
-141.487	764.804	0.090	-0.242
-140.472	-200.000	-0.039	-0.228
-139.458	219.899	-0.068	0.107
-138.443	-200.000	0.029	0.178
-137.429	-146.514	0.184	-0.016
-136.414	-66.622	0.085	-0.033
-135.399	-200.000	-0.026	0.128
-134.385	-16.044	-0.217	-0.136
-133.370	-48.763	0.355	-0.168
-132.356	80.954	0.150	0.159
-131.341	179.121	-0.045	0.065
-130.326	0.868	-0.048	-0.034
-129.312	68.439	-0.147	0.148
-128.297	-142.720	0.081	0.008
-127.283	257.159	0.010	-0.017
-126.268	-166.819	0.286	0.012
-125.253	-104.220	0.100	-0.023
-124.239	166.711	-0.198	0.276
-123.224	-159.594	0.188	-0.010
-122.210	368.261	-0.177	0.353
-121.195	41.094	0.180	0.160
-120.180	10.528	0.087	-0.065
-119.166	-13.458	-0.403	0.257
-118.151	92.836	0.136	0.152
-117.137	-69.854	0.145	-0.055
-116.122	7.751	0.197	-0.145
-115.107	-200.000	-0.019	0.135
-114.093	233.182	0.144	0.233
-113.078	52.809	0.362	0.341
-112.064	113.146	0.052	0.062
-111.049	-118.044	-0.036	0.006
-110.034	-139.270	-0.205	0.022
-109.020	58.454	0.136	-0.131
-108.005	-200.000	-0.003	0.301
-106.991	-200.000	-0.007	0.304
-105.976	655.582	0.017	0.043
-104.962	8.369	-0.292	0.216
-103.947	-200.000	-0.026	0.245
-102.932	163.124	0.130	0.179
-101.918	-200.000	-0.054	-0.295
-100.903	226.008	0.100	-0.160
-99.889	-200.000	-0.018	-0.276
-98.874	-200.000	0.065	-0.437
-97.859	16.677	0.112	0.087
-96.845	362.577	0.139	0.274
-95.830	267.949	0.099	-0.170
-94.816	530.244	0.080	0.186
-93.801	-147.985	0.139	-0.011
-92.786	178.482	0.092	0.133
-91.772	-200.000	-0.035	0.405
-90.757	800.000	0.062	-0.262
-89.743	211.239	0.134	0.207
-88.728	-200.000	-0.012	-0.056
-87.713	526.958	0.047	-0.110
-86.699	-84.298	0.120	0.037
-85.684	-119.353	-0.438	0.075
-84.670	800.000	0.140	0.413
-83.655	-200.000	-0.001	-0.036
-82.640	-89.851	-0.324	-0.093
-81.626	-95.410	-0.092	0.024
-80.611	-129.518	0.023	0.003
-79.597	-200.000	0.011	-0.072
-78.582	-86.694	0.343	0.103
-77.567	-200.000	0.013	0.129
-76.553	-112.281	0.246	-0.048
-75.538	-12.142	0.081	0.052
-74.524	-115.452	0.128	0.024
-73.509	322.327	-0.054	-0.102
-72.494	26.599	-0.360	-0.296
-71.480	-2.754	0.197	-0.135
-70.465	-4.117	0.280	0.191
-69.451	92.577	-0.214	0.238
-68.436	-105.683	0.110	-0.024
-67.422	-165.939	0.331	-0.014
-66.407	147.486	0.079	-0.105
-65.392	188.626	0.058	-0.086
-64.378	800.000	-0.049	0.138
-63.363	-84.651	-0.410	0.127
-62.349	-99.200	0.317	0.079
-61.334	88.312	-1.100	-1.200
-60.319	800.000	0.171	0.471
-59.305	-200.000	-0.195	-1.052
-58.290	412.161	0.646	1.348
-57.276	468.886	0.674	1.488
-56.261	-200.000	103.201	591.578
-55.246	551.182	1439.916	3395.462
-54.232	186.354	2628.513	3843.171
-53.217	117.170	2148.149	2593.568
-52.203	42.533	1594.344	1425.143
-51.188	34.066	1329.041	1137.586
-50.173	30.873	1287.517	1083.461
-49.159	55.454	1339.149	1273.199
-48.144	56.240	1355.379	1293.229
-47.130	34.191	1311.888	1123.461
-46.115	30.701	1294.086	1087.808
-45.100	30.459	1289.162	1082.220
-44.086	30.578	1286.222	1080.398
-43.071	30.411	1284.227	1077.710
-42.057	30.451	1282.175	1076.177
-41.042	30.391	1280.563	1074.436
-40.027	30.455	1279.337	1073.736
-39.013	30.423	1277.231	1071.739
-37.998	30.545	1275.068	1070.584
-36.984	30.487	1274.135	1069.426
-35.969	30.507	1272.062	1067.761
-34.954	30.580	1270.334	1066.682
-33.940	30.569	1268.647	1065.160
-32.925	30.684	1267.512	1064.826
-31.911	30.610	1266.242	1063.293
-30.896	30.574	1264.618	1061.680
-29.881	30.645	1263.600	1061.189
-28.867	30.755	1262.055	1060.478
-27.852	30.753	1260.389	1059.022
-26.838	30.658	1259.536	1057.724
-25.823	30.669	1257.649	1056.163
-24.809	30.696	1256.581	1055.376
-23.794	30.675	1254.939	1053.836
-22.779	30.565	1254.226	1052.571
-21.765	30.691	1252.132	1051.483
-20.750	30.571	1251.441	1050.183
-19.736	30.559	1249.918	1048.798
-18.721	30.495	1248.915	1047.553
-17.706	30.397	1248.310	1046.455
-16.692	30.480	1246.436	1045.307
-15.677	30.462	1245.555	1044.425
-14.663	30.545	1244.445	1043.917
-13.648	30.434	1243.697	1042.625
-12.633	30.433	1242.530	1041.602
-11.619	30.291	1242.078	1040.388
-10.604	30.538	1240.784	1040.644
-9.590	30.529	1239.646	1039.600
-8.575	30.523	1238.170	1038.287
-7.560	30.470	1237.957	1037.768
-6.546	30.581	1236.501	1037.127
-5.531	30.425	1236.182	1035.948
-4.517	30.366	1235.841	1035.291
-3.502	30.488	1234.492	1034.798
-2.487	30.515	1233.657	1034.211
-1.473	30.436	1229.643	1030.363
-0.458	28.956	1214.779	1009.754
0.556	24.476	1197.375	972.657
1.571	20.770	1202.834	956.681
2.586	19.861	1217.827	963.464
3.600	19.584	1207.076	953.345
4.615	15.107	1138.014	875.365
5.629	8.145	1066.123	785.793
6.644	5.095	1047.486	757.202
7.659	4.823	1045.259	754.212
8.673	4.772	1043.995	752.985
9.688	4.661	1042.876	751.572
10.702	4.967	1040.937	751.585
11.717	8.963	1046.150	774.616
12.731	15.726	1055.330	814.188
13.746	18.701	1058.534	831.012
14.761	18.104	1057.608	827.322
15.775	17.045	1055.163	820.222
16.790	15.976	1053.665	813.822
17.804	15.281	1051.975	809.094
18.819	15.024	1050.582	806.713
19.834	14.638	1049.793	804.176
20.848	14.455	1049.166	802.744
21.863	14.300	1047.919	800.972
22.877	14.117	1047.516	799.712
23.892	14.093	1047.095	799.206
24.907	14.078	1046.179	798.362
25.921	14.116	1045.140	797.685
26.936	14.171	1043.589	796.690
27.950	14.230	1042.460	796.042
28.965	14.253	1040.918	794.903
29.980	14.347	1039.140	793.925
30.994	14.417	1038.089	793.386
32.009	14.339	1037.775	792.701
33.023	14.385	1036.735	792.059
34.038	14.307	1035.257	790.488
35.053	14.112	1035.009	789.303
36.067	14.199	1033.894	788.795
37.082	14.349	1032.976	788.737
38.096	14.333	1032.243	788.030
39.111	14.343	1031.257	787.254
40.126	14.250	1030.214	785.950
41.140	13.942	1029.239	783.684
42.155	14.051	1027.471	782.780
43.169	14.072	1026.670	782.200
44.184	14.043	1025.426	781.046
45.199	14.028	1024.633	780.305
46.213	14.110	1023.720	779.925
47.228	14.111	1022.628	779.026
48.242	14.137	1021.921	778.540
49.257	14.189	1020.864	777.910
50.271	14.253	1019.468	777.080
51.286	14.172	1018.960	776.243
52.301	14.308	1017.975	776.059
53.315	14.354	1016.347	774.963
54.330	14.167	1015.625	773.473
55.344	14.201	1015.011	773.094
56.359	14.188	1014.361	772.473
57.374	14.033	1013.501	771.032
58.388	14.054	1012.504	770.301
59.403	14.120	1011.731	769.951
60.417	13.926	1010.850	768.314
61.432	13.920	1010.475	767.932
62.447	13.822	1009.864	766.947
63.461	13.914	1008.377	766.173
64.476	13.916	1007.454	765.416
65.490	13.841	1006.756	764.472
66.505	13.950	1006.161	764.456
67.520	13.975	1005.493	763.996
68.534	13.998	1004.896	763.579
69.549	13.869	1004.470	762.593
70.563	13.976	1003.179	762.037
71.578	13.838	1002.583	760.884
72.593	13.828	1001.430	759.896
73.607	13.936	1000.851	759.883
74.622	13.981	1000.350	759.641
75.636	13.951	999.845	759.054
76.651	13.907	998.970	758.120
77.666	13.985	998.422	757.994
78.680	13.952	997.775	757.289
79.695	13.900	997.382	756.684
80.709	13.966	996.510	756.256
81.724	14.010	995.763	755.821
82.739	14.012	995.470	755.543
83.753	14.164	994.668	755.559
84.768	14.369	993.751	755.723
85.782	14.374	992.832	754.980
86.797	14.374	991.838	754.157
87.812	14.193	991.122	752.728
88.826	14.147	990.420	751.921
89.841	14.301	989.116	751.560
90.855	14.389	988.386	751.333
91.870	14.370	987.561	750.556
92.884	14.361	986.883	749.936
93.899	14.374	986.127	749.353
94.914	14.428	985.087	748.736
95.928	14.447	984.108	748.013
96.943	14.392	983.372	747.141
97.957	14.351	982.426	746.170
98.972	14.434	981.540	745.803
99.987	14.343	980.834	744.795
101.001	14.248	979.884	743.582
102.016	14.433	978.930	743.618
103.030	14.338	978.542	742.834
104.045	14.351	977.693	742.183
105.060	14.230	976.765	740.873
106.074	14.182	975.427	739.579
107.089	14.062	974.461	738.249
108.103	13.956	973.635	737.090
109.118	14.101	972.713	736.969
110.133	13.981	971.972	735.811
111.147	14.066	971.023	735.401
112.162	14.076	970.521	734.999
113.176	14.186	969.830	734.898
114.191	14.178	969.066	734.218
115.206	14.163	968.107	733.362
116.220	14.103	967.640	732.677
117.235	14.151	966.529	731.982
118.249	14.022	966.047	730.988
119.264	14.143	965.074	730.718
120.279	14.049	964.173	729.556
121.293	14.095	963.274	729.014
122.308	13.961	962.674	727.908
123.322	13.952	961.470	726.895
124.337	13.928	960.819	726.235
125.352	14.041	959.932	725.992
126.366	14.071	958.294	724.819
127.381	14.002	957.453	723.821
128.395	14.065	956.586	723.373
129.410	14.060	955.717	722.631
130.424	14.196	955.044	722.649
131.439	14.282	954.469	722.524
132.454	14.222	953.643	721.574
133.468	14.147	953.028	720.718
134.483	14.251	952.086	720.396
135.497	14.301	950.983	719.711
136.512	14.143	950.680	718.734
137.527	14.321	949.520	718.562
138.541	14.191	948.795	717.390
139.556	14.326	948.338	717.562
140.570	14.447	947.445	717.344
141.585	14.471	946.714	716.832
142.600	14.394	945.941	715.851
143.614	14.421	945.872	715.854
144.629	14.487	944.674	715.167
145.643	14.432	943.492	713.970
146.658	14.388	942.621	713.063
147.673	14.366	941.238	711.857
148.687	14.284	940.773	711.094
149.702	14.214	939.919	710.085
150.716	14.247	938.956	709.437
151.731	14.328	938.141	709.104
152.746	14.321	938.069	708.953
153.760	14.333	937.185	708.274
154.775	14.546	936.615	708.686
155.789	14.564	935.628	707.954
156.804	14.449	935.423	707.248
157.819	14.521	934.899	707.094
158.833	14.469	934.078	706.192
159.848	14.613	933.327	706.170
160.862	14.628	932.128	705.263
161.877	14.368	931.325	703.495
162.892	14.375	930.153	702.579
163.906	14.471	929.169	702.175
164.921	14.404	928.638	701.433
165.935	14.412	928.015	700.931
166.950	14.473	927.117	700.450
167.964	14.464	926.328	699.752
168.979	14.539	924.640	698.730
169.994	14.408	924.278	697.845
171.008	14.477	923.806	697.717
172.023	14.547	923.122	697.430
173.037	14.732	922.271	697.502
174.052	14.619	921.398	696.306
175.067	14.476	920.976	695.329
176.081	14.466	920.362	694.763
177.096	14.421	920.212	694.402
178.110	14.433	919.724	694.023
179.125	14.538	918.754	693.665
180.140	14.412	918.598	692.959
181.154	14.566	917.919	693.029
182.169	14.609	917.478	692.810
183.183	14.703	916.656	692.519
184.198	14.682	915.770	691.704
185.213	14.684	914.997	691.063
186.227	14.831	914.308	691.093
187.242	14.862	913.603	690.626
188.256	14.886	913.119	690.297
189.271	14.779	912.473	689.307
190.286	14.515	912.064	687.849
191.300	14.388	911.495	686.834
192.315	14.402	910.583	686.142
193.329	14.349	910.314	685.661
194.344	14.560	909.006	685.483
195.359	14.646	908.523	685.412
196.373	14.723	908.109	685.356
197.388	14.880	907.597	685.551
198.402	14.985	907.362	685.745
199.417	14.888	906.509	684.643
200.432	15.044	906.180	684.972
201.446	15.112	905.781	684.886
202.461	15.228	905.081	684.769
203.475	15.097	904.787	683.952
204.490	15.029	903.418	682.578
205.504	14.934	902.937	681.768
206.519	14.966	902.076	681.187
207.534	14.984	901.468	680.741
208.548	14.961	900.855	680.126
209.563	14.929	900.697	679.817
210.577	15.031	899.668	679.395
211.592	15.107	898.942	679.092
212.607	15.188	898.203	678.804
213.621	15.051	897.892	677.954
214.636	15.104	896.947	677.393
215.650	15.103	896.223	676.785
216.665	15.179	895.565	676.534
217.680	15.337	894.690	676.450
218.694	15.285	894.046	675.695
219.709	15.279	893.356	675.091
220.723	15.274	892.648	674.474
221.738	15.249	891.996	673.821
222.753	15.167	892.000	673.435
223.767	15.157	891.539	672.989
224.782	15.326	890.525	672.841
225.796	15.356	890.276	672.712
226.811	15.377	889.534	672.176
227.826	15.155	888.914	670.758
228.840	15.339	888.074	670.802
229.855	15.230	887.239	669.675
230.869	15.250	886.614	669.226
231.884	15.253	885.468	668.315
232.899	15.169	885.225	667.738
233.913	15.136	884.952	667.339
234.928	15.220	883.882	666.807
235.942	15.109	883.416	665.955
236.957	15.231	882.593	665.762
237.972	15.177	882.070	665.095
238.986	15.123	881.584	664.456
240.001	15.203	880.958	664.239
241.015	15.311	880.334	664.137
242.030	15.325	879.738	663.685
243.045	15.334	879.403	663.410
244.059	15.294	878.673	662.644
245.074	15.474	877.961	662.757
246.088	15.540	877.303	662.464
247.103	15.561	876.774	662.089
248.117	15.668	876.152	661.983
249.132	15.765	875.359	661.703
250.147	15.734	875.251	661.442
251.161	15.872	874.081	661.043
252.176	15.819	873.822	660.578
253.190	15.970	873.093	660.560
254.205	15.871	872.592	659.736
255.220	15.861	871.393	658.732
256.234	15.913	871.477	658.943
257.249	15.941	870.654	658.372
258.263	15.982	870.026	657.996
259.278	15.793	869.530	656.828
260.293	15.983	868.867	657.007
261.307	16.068	867.934	656.577
262.322	16.025	867.321	655.888
263.336	16.093	866.596	655.546
264.351	16.197	865.594	655.131
265.366	16.151	864.968	654.423
266.380	16.025	865.114	653.985
267.395	16.045	864.323	653.408
268.409	16.072	863.426	652.777
269.424	16.058	862.601	652.039
270.439	16.173	861.766	651.796
271.453	16.027	861.048	650.631
272.468	15.930	860.731	649.961
273.482	16.086	860.086	650.015
274.497	15.926	859.823	649.146
275.512	16.039	859.356	649.168
276.526	16.171	858.404	648.902
277.541	15.984	858.318	648.059
278.555	16.263	857.367	648.357
279.570	16.213	856.976	647.810
280.585	16.149	856.398	647.069
281.599	16.142	855.604	646.386
282.614	16.147	854.630	645.615
283.628	16.172	854.267	645.378
284.643	16.079	853.668	644.512
285.657	16.263	853.359	644.924
286.672	16.124	852.358	643.582
287.687	16.240	852.099	643.770
288.701	16.253	851.532	643.335
289.716	16.311	850.917	643.034
290.730	16.442	850.374	643.064
291.745	16.381	849.309	641.970
292.760	16.335	849.072	641.560
293.774	16.448	848.414	641.433
294.789	16.293	847.715	640.262
295.803	16.336	847.044	639.864
296.818	16.217	846.502	638.947
297.833	16.537	845.304	639.193
298.847	16.399	845.222	638.553
299.862	16.378	844.948	638.213
300.876	16.483	844.133	637.936
301.891	16.292	843.806	636.911
302.906	16.620	842.996	637.481
303.920	16.758	842.265	637.389
304.935	16.668	842.081	636.857
305.949	16.638	841.020	635.885
306.964	16.732	840.378	635.697
307.979	16.589	840.325	635.063
308.993	16.612	840.085	634.912
310.008	16.888	839.203	635.224
311.022	16.669	838.559	633.861
312.037	16.667	837.755	633.186
313.052	16.592	837.426	632.603
314.066	16.507	836.768	631.731
315.081	16.532	836.706	631.721
316.095	16.661	835.713	631.397
317.110	16.487	835.366	630.430
318.125	16.516	834.771	630.033
319.139	16.514	834.497	629.763
320.154	16.801	833.481	630.009
321.168	16.732	832.941	629.290
322.183	16.628	832.819	628.755
323.197	16.588	832.556	628.350
324.212	16.647	831.859	627.988
325.227	16.681	831.106	627.490
326.241	16.767	829.975	626.902
327.256	16.641	829.915	626.335
328.270	16.614	829.754	626.057
329.285	16.666	829.107	625.705
330.300	16.681	828.125	624.965
331.314	16.657	827.577	624.406
332.329	16.759	827.288	624.508
333.343	16.926	826.622	624.568
334.358	16.825	826.370	623.951
335.373	16.839	826.288	623.884
336.387	16.928	825.834	623.813
337.402	16.978	825.346	623.574
338.416	16.978	825.151	623.370
339.431	17.044	824.917	623.383
340.446	17.133	824.447	623.297
341.460	17.124	824.034	622.897
342.475	17.204	823.930	623.056
343.489	17.139	823.387	622.352
344.504	17.264	822.634	622.186
345.519	17.204	822.129	621.529
346.533	17.125	821.893	621.006
347.548	17.110	821.367	620.499
348.562	17.100	820.560	619.797
349.577	17.030	819.978	619.048
350.592	17.113	819.066	618.610
351.606	17.078	818.441	617.955
352.621	17.050	818.118	617.552
353.635	17.212	817.121	617.336
354.650	17.185	816.499	616.713
355.665	17.243	816.031	616.514
356.679	17.201	815.674	616.037
357.694	17.234	815.151	615.707
358.708	17.186	814.366	614.888
359.723	17.261	813.732	614.624
360.738	17.169	813.613	614.147
361.752	17.369	812.953	614.317
362.767	17.602	812.008	614.389
363.781	17.529	811.901	613.991
364.796	17.541	811.547	613.714
365.810	17.518	811.055	613.205
366.825	17.511	810.658	612.825
367.840	17.451	810.469	612.412
368.854	17.504	809.614	611.901
369.869	17.573	809.083	611.694
370.883	17.474	808.807	611.074
371.898	17.621	808.593	611.387
372.913	17.534	808.334	610.827
373.927	17.528	807.736	610.296
374.942	17.555	807.238	609.964
375.956	17.628	806.961	609.963
376.971	17.800	806.066	609.846
377.986	17.902	805.469	609.705
379.000	17.769	805.141	608.927
380.015	17.805	804.821	608.759
381.029	17.763	804.221	608.102
382.044	17.758	803.653	607.604
383.059	17.791	802.704	606.949
384.073	17.751	802.363	606.493
385.088	17.875	801.602	606.305
386.102	17.641	801.466	605.318
387.117	17.727	800.847	605.101
388.132	17.870	799.896	604.837
389.146	18.037	799.413	605.011
390.161	17.842	799.434	604.281
391.175	17.894	798.705	603.860
392.190	17.743	798.153	602.857
393.205	17.850	798.107	603.147
394.219	17.827	797.470	602.532
395.234	17.768	797.075	601.972
396.248	17.787	796.674	601.682
397.263	17.709	796.105	600.923
398.278	17.673	796.101	600.741
399.292	17.648	795.614	600.232
400.307	17.683	795.210	599.996
401.321	17.732	794.818	599.819
402.336	17.747	794.036	599.231
403.350	17.852	793.595	599.215
404.365	17.991	793.103	599.276
405.380	17.998	792.824	599.038
406.394	18.033	792.633	598.961
407.409	17.935	792.072	598.143
408.423	18.255	791.302	598.627
409.438	18.012	791.574	597.929
410.453	18.141	791.140	597.999
411.467	18.161	790.189	597.298
412.482	18.277	790.056	597.551
413.496	18.304	789.731	597.346
414.511	18.401	789.091	597.146
415.526	18.220	788.791	596.237
416.540	18.181	788.702	595.982
417.555	18.244	787.980	595.600
418.569	18.463	787.234	595.745
419.584	18.403	787.111	595.391
420.599	18.443	786.572	595.069
421.613	157.521	1370.423	1796.029
422.628	136.173	1455.496	1796.114
