DTS Sentinel unit serial number:	SN413079Multiplexer serial number:	ORYXHardware model number:	OX4-SRSoftware version number:	ORYX F/W v4.00 Oryx Data Collector v3.7.2.0data status	okinstallation	princeton_trtdifferential loss correction	single-endedforward channel	channel 1reverse channel	N/Adate	2019/09/14time	23:18:35forward acquisition time	60.00reverse acquisition time	0.00gamma	496.2192k internal	0.2320k external	0.2320temperature offset calibration	0.9996default loss term (dB/km)	0.3790temperature slope calibration	1.0000multiplexer offset coefficient	1.0000multiplexer slope coefficient	1.0000fibre end	0.00T internal ref (°C)	32.37T ext. ref 1 (°C)	4.66T ext. ref 2 (°C)	27.37length (m)	temperature (°C)	Stokes	anti-Stokes-747.200	101.527	0.154	0.181
-746.185	65.181	-0.211	0.216
-745.171	211.498	0.185	0.295
-744.156	-133.694	-0.566	0.071
-743.142	151.910	0.066	-0.091
-742.127	93.408	0.155	0.178
-741.112	31.184	-0.118	-0.102
-740.098	-200.000	-0.028	0.146
-739.083	800.000	0.068	0.236
-738.069	164.218	-0.092	0.131
-737.054	-200.000	0.102	0.483
-736.039	239.861	-0.229	-0.386
-735.025	534.527	0.097	0.233
-734.010	-108.130	-0.531	-0.116
-732.996	163.792	0.164	-0.233
-731.981	800.000	0.035	-0.102
-730.966	418.655	0.124	-0.267
-729.952	-100.123	-0.352	-0.089
-728.937	124.387	-0.210	-0.267
-727.923	-69.163	-0.118	0.046
-726.908	32.792	0.214	-0.187
-725.894	800.000	-0.096	0.333
-724.879	23.688	-0.070	-0.058
-723.864	-152.062	-0.194	-0.014
-722.850	-200.000	-0.129	-0.626
-721.835	-200.000	0.040	-0.274
-720.821	317.372	-0.091	-0.174
-719.806	800.000	-0.086	-0.245
-718.791	800.000	-0.220	-0.671
-717.777	622.064	0.097	0.247
-716.762	480.500	0.172	-0.395
-715.748	-192.259	-0.340	-0.003
-714.733	502.115	-0.156	-0.364
-713.718	624.567	0.052	0.132
-712.704	-200.000	0.041	-0.237
-711.689	-124.799	-0.094	-0.015
-710.675	800.000	-0.087	-0.313
-709.660	-200.000	-0.071	-0.342
-708.645	135.212	-0.163	-0.214
-707.631	-146.329	0.200	0.018
-706.616	44.713	-0.046	-0.043
-705.602	-126.810	0.171	-0.026
-704.587	67.692	-0.168	-0.173
-703.572	460.314	0.073	-0.164
-702.558	-101.983	0.152	0.037
-701.543	-83.890	0.158	0.051
-700.529	-200.000	0.004	0.295
-699.514	-200.000	0.011	0.249
-698.499	-97.560	-0.365	0.096
-697.485	519.855	0.046	-0.110
-696.470	800.000	-0.005	0.018
-695.456	-72.106	-0.148	-0.055
-694.441	64.823	-0.054	0.055
-693.426	-36.508	-0.334	-0.182
-692.412	464.722	0.092	-0.208
-691.397	54.038	0.135	0.131
-690.383	-200.000	0.074	-0.340
-689.368	297.552	-0.033	-0.061
-688.354	-186.029	-0.156	-0.002
-687.339	553.326	-0.070	0.171
-686.324	231.038	0.116	0.191
-685.310	141.950	-0.240	0.320
-684.295	99.799	0.141	-0.165
-683.281	-13.302	-0.283	-0.185
-682.266	609.142	-0.052	-0.131
-681.251	180.532	-0.117	-0.173
-680.237	658.898	-0.086	-0.222
-679.222	-14.993	0.143	-0.093
-678.208	8.049	0.199	0.151
-677.193	-47.827	-0.216	0.106
-676.178	-154.158	-0.149	0.010
-675.164	-39.600	-0.349	-0.184
-674.149	448.649	0.135	0.299
-673.135	800.000	0.109	0.315
-672.120	94.457	0.260	-0.298
-671.105	-200.000	-0.046	-0.264
-670.091	-91.907	-0.111	-0.032
-669.076	11.787	-0.255	0.198
-668.062	-200.000	0.018	0.182
-667.047	410.476	0.037	0.079
-666.032	120.943	0.193	-0.242
-665.018	423.468	0.030	0.066
-664.003	-147.111	0.213	-0.018
-662.989	-43.196	-0.240	0.122
-661.974	-200.000	0.017	-0.157
-660.959	-9.756	0.171	0.115
-659.945	335.005	0.259	0.506
-658.930	-22.135	-0.196	-0.120
-657.916	-160.658	-0.259	0.014
-656.901	127.082	0.108	0.139
-655.886	800.000	0.041	-0.160
-654.872	-145.267	-0.422	0.038
-653.857	201.727	-0.085	0.133
-652.843	51.461	0.118	-0.113
-651.828	39.270	-0.320	0.289
-650.814	800.000	0.042	-0.149
-649.799	-122.499	0.192	-0.031
-648.784	550.331	-0.166	-0.400
-647.770	-169.190	0.213	-0.008
-646.755	39.473	-0.371	0.335
-645.741	405.853	-0.013	0.028
-644.726	-120.477	-0.405	0.069
-643.711	-200.000	0.010	-0.149
-642.697	-200.000	0.017	0.189
-641.682	54.580	0.184	-0.179
-640.668	-76.139	0.365	0.130
-639.653	33.972	-0.095	0.083
-638.638	-23.551	-0.104	-0.063
-637.624	-200.000	0.029	-0.137
-636.609	-123.588	-0.193	0.031
-635.595	66.540	0.105	0.107
-634.580	171.358	-0.192	0.278
-633.565	57.594	-0.160	-0.157
-632.551	800.000	0.042	0.120
-631.536	-81.312	-0.313	-0.104
-630.522	-200.000	-0.005	-0.134
-629.507	-107.815	-0.246	0.054
-628.492	-200.000	-0.035	-0.390
-627.478	683.801	-0.061	-0.161
-626.463	-98.714	-0.182	0.047
-625.449	199.573	0.127	0.196
-624.434	-67.291	-0.081	0.032
-623.419	-200.000	-0.022	-0.110
-622.405	-77.953	-0.169	0.059
-621.390	-200.000	0.011	0.339
-620.376	-159.096	0.128	-0.007
-619.361	-139.753	-0.223	0.024
-618.346	2.990	0.242	-0.177
-617.332	-25.547	0.118	0.070
-616.317	-200.000	0.038	0.345
-615.303	114.222	0.103	-0.126
-614.288	-39.903	-0.090	-0.048
-613.273	353.891	-0.149	0.298
-612.259	-15.473	-0.236	-0.151
-611.244	-90.443	-0.355	0.104
-610.230	-26.858	-0.283	-0.166
-609.215	54.429	0.327	-0.317
-608.201	-188.188	0.208	-0.003
-607.186	-72.028	0.286	-0.107
-606.171	-200.000	-0.008	0.081
-605.157	157.015	-0.159	0.221
-604.142	-200.000	-0.007	-0.092
-603.128	-17.580	-0.264	-0.167
-602.113	-200.000	-0.011	-0.234
-601.098	-110.052	-0.255	0.054
-600.084	51.070	0.006	-0.006
-599.069	111.552	0.073	0.089
-598.055	30.127	0.131	-0.112
-597.040	-125.275	0.157	0.024
-596.025	553.750	-0.155	0.375
-595.011	800.000	0.067	0.226
-593.996	-116.619	0.317	0.059
-592.982	-69.121	0.098	-0.038
-591.967	286.590	0.036	-0.065
-590.952	-200.000	-0.035	-0.344
-589.938	-200.000	-0.027	-0.343
-588.923	-200.000	-0.046	-0.294
-587.909	-159.737	-0.228	0.013
-586.894	800.000	0.051	-0.152
-585.879	-29.282	-0.207	-0.119
-584.865	-0.669	-0.086	0.061
-583.850	800.000	0.022	0.070
-582.836	46.680	-0.129	-0.120
-581.821	-200.000	-0.026	-0.342
-580.806	208.028	-0.101	0.158
-579.792	2.111	0.124	0.090
-578.777	800.000	0.108	-0.356
-577.763	-80.047	-0.170	-0.057
-576.748	-116.376	0.141	-0.026
-575.733	218.210	-0.101	0.162
-574.719	-92.085	-0.090	-0.026
-573.704	800.000	-0.090	-0.362
-572.690	-200.000	-0.328	0.001
-571.675	216.011	-0.012	0.019
-570.661	-200.000	0.007	-0.537
-569.646	269.350	0.079	-0.139
-568.631	-114.957	0.373	0.071
-567.617	-91.809	0.128	-0.036
-566.602	-200.000	0.018	0.105
-565.588	53.170	-0.094	0.090
-564.573	800.000	-0.049	0.187
-563.558	257.998	0.038	-0.065
-562.544	394.466	0.112	-0.234
-561.529	-56.709	-0.039	0.017
-560.515	800.000	-0.054	0.202
-559.500	162.717	-0.104	0.147
-558.485	-131.238	-0.075	0.010
-557.471	-200.000	-0.093	-0.507
-556.456	-122.411	0.281	0.046
-555.442	-114.374	-0.098	-0.019
-554.427	235.614	0.154	0.256
-553.412	51.522	0.035	-0.034
-552.398	-200.000	-0.003	-0.043
-551.383	-200.000	-0.063	0.370
-550.369	210.789	0.123	0.194
-549.354	-64.729	0.236	-0.096
-548.339	-40.731	0.168	0.088
-547.325	-65.458	0.176	0.071
-546.310	-113.290	-0.236	-0.047
-545.296	-200.000	0.049	0.249
-544.281	520.078	0.039	-0.091
-543.266	-200.000	0.012	-0.379
-542.252	-200.000	0.014	-0.104
-541.237	-88.829	-0.261	-0.078
-540.223	345.499	-0.185	0.364
-539.208	800.000	0.062	-0.202
-538.193	800.000	-0.043	0.158
-537.179	-153.302	-0.178	-0.012
-536.164	800.000	0.052	0.166
-535.150	-88.669	-0.132	0.039
-534.135	-200.000	-0.039	-0.286
-533.121	546.138	0.040	-0.096
-532.106	-200.000	-0.017	0.258
-531.091	800.000	0.129	-0.359
-530.077	-200.000	0.009	-0.116
-529.062	-132.966	-0.097	0.012
-528.048	-200.000	-0.010	-0.140
-527.033	-200.000	0.008	0.125
-526.018	10.450	0.327	0.250
-525.004	-38.706	0.318	-0.168
-523.989	225.412	0.148	0.241
-522.975	756.763	0.035	0.094
-521.960	-200.000	0.010	-0.163
-520.945	-200.000	0.002	0.050
-519.931	33.423	-0.243	-0.212
-518.916	490.270	-0.098	0.225
-517.902	-100.452	-0.314	0.078
-516.887	800.000	0.020	0.060
-515.872	4.779	0.078	-0.057
-514.858	28.486	-0.158	-0.134
-513.843	-22.652	-0.206	-0.125
-512.829	-146.404	-0.112	0.010
-511.814	287.014	-0.234	0.423
-510.799	-154.446	-0.349	-0.023
-509.785	-47.912	0.264	-0.128
-508.770	144.967	0.235	-0.315
-507.756	-109.867	-0.381	0.080
-506.741	-200.000	0.011	-0.116
-505.726	-104.362	-0.036	-0.008
-504.712	-200.000	0.001	0.148
-503.697	-114.622	-0.229	0.044
-502.683	-200.000	0.014	-0.116
-501.668	188.288	0.112	0.167
-500.653	-200.000	0.038	0.299
-499.639	-162.538	-0.317	0.016
-498.624	-85.907	0.328	-0.102
-497.610	800.000	-0.079	-0.327
-496.595	608.193	-0.066	-0.166
-495.581	-97.306	0.188	0.049
-494.566	-200.000	-0.040	-0.182
-493.551	412.130	-0.069	0.147
-492.537	800.000	0.063	0.267
-491.522	-200.000	0.037	-0.345
-490.508	13.040	-0.179	0.139
-489.493	800.000	0.082	-0.233
-488.478	-131.931	-0.352	-0.046
-487.464	13.366	-0.084	0.066
-486.449	-200.000	0.013	-0.177
-485.435	-200.000	0.016	0.160
-484.420	-99.894	-0.141	-0.035
-483.405	800.000	-0.121	-0.342
-482.391	-145.487	0.234	0.021
-481.376	231.897	-0.115	-0.188
-480.362	87.350	0.073	0.081
-479.347	-200.000	-0.032	-0.256
-478.332	-99.228	-0.167	0.042
-477.318	-200.000	-0.006	0.308
-476.303	249.609	0.106	0.180
-475.289	76.763	0.185	-0.196
-474.274	-129.855	-0.124	0.017
-473.259	-200.000	-0.016	-0.210
-472.245	620.877	0.059	0.148
-471.230	216.031	-0.072	-0.115
-470.216	-2.689	-0.148	-0.104
-469.201	-200.000	-0.021	0.312
-468.186	-99.487	-0.060	-0.015
-467.172	800.000	-0.058	-0.165
-466.157	85.415	-0.130	0.142
-465.143	-200.000	-0.008	-0.096
-464.128	800.000	-0.085	0.271
-463.113	120.800	0.280	-0.348
-462.099	-93.983	-0.319	0.088
-461.084	-200.000	0.010	-0.117
-460.070	-112.775	-0.175	-0.035
-459.055	-94.057	-0.421	0.116
-458.040	-200.000	0.010	0.085
-457.026	10.943	0.361	0.276
-456.011	506.464	0.089	0.206
-454.997	16.411	0.131	0.103
-453.982	-67.450	0.393	0.154
-452.968	-40.417	-0.367	-0.191
-451.953	-67.573	0.219	-0.086
-450.938	-198.461	0.270	0.002
-449.924	-128.541	-0.329	-0.047
-448.909	-92.020	-0.151	0.043
-447.895	-48.220	-0.144	0.069
-446.880	-200.000	0.025	0.255
-445.865	195.016	-0.024	-0.036
-444.851	47.726	0.346	0.322
-443.836	-200.000	0.052	0.467
-442.822	-88.256	-0.257	0.077
-441.807	-200.000	-0.006	0.068
-440.792	800.000	-0.032	0.110
-439.778	-193.181	0.202	0.002
-438.763	-65.609	-0.169	-0.068
-437.749	-48.533	-0.100	0.048
-436.734	-200.000	0.009	0.224
-435.719	800.000	-0.052	0.162
-434.705	68.238	-0.177	0.181
-433.690	474.312	0.106	-0.240
-432.676	728.708	-0.027	0.072
-431.661	789.220	0.120	-0.329
-430.646	-124.480	-0.068	-0.011
-429.632	150.462	-0.152	0.206
-428.617	69.976	0.246	0.254
-427.603	-139.452	0.058	0.006
-426.588	263.592	-0.040	-0.069
-425.573	173.049	0.274	0.394
-424.559	56.189	-0.055	0.054
-423.544	-188.887	-0.233	0.003
-422.530	71.241	-0.148	0.153
-421.515	36.807	0.183	0.162
-420.500	-139.941	-0.206	0.022
-419.486	238.615	-0.180	-0.299
-418.471	186.123	0.056	-0.083
-417.457	-33.019	-0.124	0.068
-416.442	57.165	-0.333	0.324
-415.428	26.932	-0.111	-0.093
-414.413	78.938	0.020	-0.021
-413.398	-200.000	0.003	0.274
-412.384	600.760	0.071	-0.177
-411.369	-126.334	-0.181	0.027
-410.355	114.469	0.153	-0.187
-409.340	-121.666	0.092	-0.015
-408.325	28.949	-0.224	-0.190
-407.311	176.673	-0.115	-0.167
-406.296	-41.744	0.306	-0.157
-405.282	48.565	-0.016	0.015
-404.267	24.329	0.387	-0.319
-403.252	-56.874	0.181	-0.080
-402.238	252.131	0.160	0.272
-401.223	157.015	0.102	0.141
-400.209	800.000	0.047	-0.134
-399.194	-69.237	-0.110	0.042
-398.179	53.640	-0.193	-0.185
-397.165	303.678	0.050	-0.093
-396.150	-157.033	0.352	0.021
-395.136	-200.000	0.016	0.126
-394.121	297.599	0.115	-0.210
-393.106	524.191	-0.049	0.115
-392.092	-103.885	-0.138	-0.032
-391.077	-168.407	0.338	0.013
-390.063	-49.829	0.333	0.158
-389.048	800.000	-0.048	-0.159
-388.033	493.319	-0.084	0.192
-387.019	81.735	-0.224	-0.242
-386.004	-73.655	0.398	-0.144
-384.990	-37.855	-0.071	-0.037
-383.975	-89.570	0.187	-0.055
-382.960	-32.191	-0.240	0.134
-381.946	-73.067	0.318	0.116
-380.931	113.950	-0.094	0.114
-379.917	-23.401	-0.214	-0.128
-378.902	662.309	-0.035	-0.091
-377.888	-200.000	0.007	-0.429
-376.873	-200.000	0.000	-0.176
-375.858	-88.345	0.194	0.058
-374.844	530.452	0.046	0.108
-373.829	-200.000	0.115	0.533
-372.815	392.377	0.056	-0.116
-371.800	-153.895	-0.156	-0.011
-370.785	-200.000	-0.016	0.141
-369.771	-156.793	-0.040	-0.002
-368.756	-50.664	-0.046	0.022
-367.742	-200.000	-0.034	-0.393
-366.727	-200.000	0.013	-0.201
-365.712	-29.739	0.111	0.063
-364.698	-151.197	0.088	0.007
-363.683	-200.000	-0.022	0.134
-362.669	-63.363	0.226	0.093
-361.654	-200.000	0.011	0.181
-360.639	-130.803	0.379	0.051
-359.625	800.000	-0.140	-0.434
-358.610	-200.000	0.045	-0.262
-357.596	800.000	0.052	-0.186
-356.581	128.319	0.165	0.209
-355.566	115.953	0.108	0.132
-354.552	1.734	-0.366	-0.263
-353.537	-200.000	0.073	0.349
-352.523	-106.119	0.271	0.061
-351.508	-200.000	-0.011	-0.318
-350.493	91.432	0.090	0.101
-349.479	-67.960	0.189	0.073
-348.464	79.925	0.061	-0.066
-347.450	-200.000	-0.025	-0.166
-346.435	772.851	0.101	-0.274
-345.420	-14.958	-0.081	0.051
-344.406	244.134	-0.026	0.043
-343.391	58.784	-0.194	0.189
-342.377	-200.000	-0.025	-0.135
-341.362	-107.370	0.386	-0.084
-340.348	-200.000	-0.040	0.267
-339.333	-200.000	-0.017	0.114
-338.318	-200.000	-0.002	0.224
-337.304	-64.953	0.169	0.068
-336.289	5.129	0.156	0.114
-335.275	-105.361	-0.365	0.083
-334.260	421.576	0.099	-0.212
-333.245	-59.396	0.102	-0.044
-332.231	800.000	0.026	-0.094
-331.216	-127.553	-0.117	0.017
-330.202	4.023	0.289	-0.210
-329.187	203.089	-0.008	0.012
-328.172	71.749	0.165	-0.170
-327.158	-152.330	0.239	-0.017
-326.143	-99.743	-0.668	0.166
-325.129	192.398	-0.074	-0.111
-324.114	-23.606	-0.060	-0.036
-323.099	256.557	0.060	-0.103
-322.085	-129.883	-0.337	0.046
-321.070	-72.465	-0.152	0.056
-320.056	-142.486	0.056	0.005
-319.041	-149.505	0.095	-0.008
-318.026	-154.317	0.293	-0.020
-317.012	356.288	-0.172	0.340
-315.997	-148.516	-0.152	0.012
-314.983	-1.513	-0.070	-0.049
-313.968	-200.000	0.057	-0.255
-312.953	700.750	-0.104	0.272
-311.939	-128.454	-0.229	0.032
-310.924	105.376	-0.018	-0.021
-309.910	542.852	0.052	0.124
-308.895	-58.835	-0.217	0.093
-307.880	-200.000	0.026	0.221
-306.866	-200.000	-0.044	0.252
-305.851	117.960	-0.174	0.213
-304.837	-10.989	-0.175	0.115
-303.822	-66.474	-0.154	0.061
-302.807	-200.000	0.029	0.173
-301.793	220.060	0.028	0.045
-300.778	-200.000	-0.051	-0.569
-299.764	-111.532	0.201	0.041
-298.749	320.207	0.147	0.277
-297.735	80.969	-0.137	-0.147
-296.720	153.180	0.041	-0.056
-295.705	-70.543	0.130	0.049
-294.691	800.000	-0.114	0.486
-293.676	-159.195	0.074	-0.004
-292.662	-70.803	0.149	0.056
-291.647	144.013	0.120	-0.159
-290.632	233.412	-0.114	-0.187
-289.618	-200.000	0.073	-0.497
-288.603	-200.000	-0.080	-0.349
-287.589	12.665	0.450	-0.345
-286.574	-67.769	0.416	-0.162
-285.559	-159.000	0.329	-0.019
-284.545	-200.000	0.019	0.214
-283.530	-200.000	0.015	0.261
-282.516	174.328	0.093	-0.133
-281.501	343.910	-0.051	0.100
-280.486	239.375	0.097	-0.161
-279.472	105.714	-0.071	0.084
-278.457	243.656	-0.066	-0.109
-277.443	-157.724	-0.299	0.018
-276.428	-114.142	0.225	0.043
-275.413	205.233	0.231	-0.357
-274.399	-200.000	0.065	0.300
-273.384	7.671	0.115	-0.086
-272.370	800.000	0.069	-0.251
-271.355	-152.026	0.255	-0.018
-270.340	-90.716	0.096	0.027
-269.326	133.996	0.109	-0.140
-268.311	294.413	-0.114	-0.207
-267.297	360.128	0.077	-0.153
-266.282	-6.699	0.303	0.205
-265.267	-135.847	0.138	-0.016
-264.253	-200.000	-0.017	0.205
-263.238	242.782	0.149	0.248
-262.224	41.696	0.099	-0.089
-261.209	261.207	-0.031	-0.054
-260.195	100.119	0.065	0.075
-259.180	86.849	0.289	0.316
-258.165	163.271	-0.130	0.182
-257.151	-200.000	-0.012	0.416
-256.136	800.000	0.016	0.061
-255.122	12.103	-0.492	0.376
-254.107	800.000	0.021	-0.082
-253.092	-75.328	-0.200	0.071
-252.078	27.769	-0.153	0.128
-251.063	138.996	-0.232	-0.303
-250.049	458.379	0.144	0.318
-249.034	497.589	0.094	0.215
-248.019	154.112	-0.233	-0.317
-247.005	4.977	0.391	-0.286
-245.990	800.000	-0.072	-0.236
-244.976	37.126	-0.107	0.094
-243.961	13.814	-0.065	-0.050
-242.946	202.579	0.243	-0.372
-241.932	-200.000	-0.004	0.114
-240.917	-51.480	-0.273	-0.127
-239.903	-110.091	-0.341	0.071
-238.888	62.894	0.270	0.268
-237.873	163.609	0.047	0.066
-236.859	14.920	0.291	0.226
-235.844	493.663	-0.151	-0.343
-234.830	-156.531	0.103	-0.006
-233.815	-200.000	-0.048	0.348
-232.800	208.818	-0.075	-0.116
-231.786	-200.000	0.028	0.250
-230.771	-200.000	0.003	-0.016
-229.757	-83.823	-0.359	0.113
-228.742	-99.197	0.322	-0.081
-227.727	-57.629	-0.244	-0.106
-226.713	800.000	0.082	-0.254
-225.698	471.511	-0.007	0.015
-224.684	243.559	-0.115	-0.191
-223.669	-200.000	0.024	-0.219
-222.655	162.237	0.124	-0.172
-221.640	-77.518	-0.145	-0.050
-220.625	103.191	-0.132	0.154
-219.611	-200.000	-0.001	0.049
-218.596	-72.158	-0.143	-0.052
-217.582	-93.626	-0.259	0.071
-216.567	14.928	0.335	-0.260
-215.552	177.643	0.114	-0.164
-214.538	487.862	0.104	0.235
-213.523	-122.998	-0.098	-0.016
-212.509	-5.977	-0.382	-0.259
-211.494	-111.739	0.216	0.043
-210.479	14.387	-0.144	0.111
-209.465	228.278	-0.010	-0.016
-208.450	-135.432	-0.225	-0.027
-207.436	17.443	0.089	0.070
-206.421	66.132	-0.113	0.114
-205.406	217.730	-0.070	-0.111
-204.392	-200.000	0.044	0.299
-203.377	-15.430	-0.236	0.149
-202.363	-15.946	0.217	0.137
-201.348	800.000	0.070	-0.217
-200.333	-200.000	-0.028	-0.127
-199.319	-200.000	-0.014	-0.096
-198.304	61.338	-0.224	-0.221
-197.290	69.373	-0.267	0.272
-196.275	-50.824	-0.241	0.112
-195.260	-22.927	0.151	-0.090
-194.246	-47.130	0.215	0.104
-193.231	-200.000	0.003	0.051
-192.217	-200.000	0.024	0.158
-191.202	-41.365	0.127	-0.065
-190.187	85.959	-0.277	0.301
-189.173	-133.665	-0.240	-0.030
-188.158	-73.900	0.407	-0.146
-187.144	-84.511	-0.295	-0.092
-186.129	166.053	0.150	-0.210
-185.114	77.358	0.138	0.146
-184.100	800.000	0.045	0.193
-183.085	18.642	-0.232	-0.184
-182.071	301.424	-0.040	0.073
-181.056	267.096	-0.168	-0.290
-180.042	-29.241	0.368	0.209
-179.027	-42.330	0.145	-0.073
-178.012	29.827	0.070	-0.059
-176.998	492.624	0.068	0.154
-175.983	50.353	-0.210	-0.196
-174.969	-36.315	0.271	0.144
-173.954	-37.496	0.346	0.183
-172.939	133.509	0.208	-0.266
-171.925	234.485	-0.085	0.139
-170.910	3.639	0.276	0.199
-169.896	-200.000	-0.000	-0.008
-168.881	-132.118	0.316	0.041
-167.866	-12.195	0.295	-0.191
-166.852	3.981	0.169	-0.122
-165.837	-14.751	-0.201	0.128
-164.823	134.844	-0.099	-0.128
-163.808	99.038	-0.101	-0.116
-162.793	9.210	-0.124	-0.093
-161.779	185.664	0.132	0.195
-160.764	204.833	0.190	0.291
-159.750	-19.316	0.169	-0.103
-158.735	200.080	0.144	0.218
-157.720	183.232	0.152	0.222
-156.706	21.694	-0.198	0.159
-155.691	-154.061	0.055	-0.004
-154.677	-200.000	0.038	-0.305
-153.662	-24.933	-0.310	-0.182
-152.647	53.032	0.222	0.210
-151.633	-200.000	0.000	0.389
-150.618	-200.000	0.049	0.215
-149.604	-45.007	-0.230	-0.113
-148.589	49.449	-0.102	-0.094
-147.574	-64.024	-0.089	-0.036
-146.560	-81.406	-0.185	0.060
-145.545	-133.103	0.228	0.029
-144.531	34.057	0.325	0.280
-143.516	-55.650	0.190	-0.084
-142.502	137.492	0.055	-0.071
-141.487	142.351	0.073	-0.096
-140.472	468.048	0.113	-0.250
-139.458	427.346	-0.079	0.168
-138.443	175.110	0.079	0.112
-137.429	162.433	-0.104	-0.144
-136.414	-56.533	0.194	0.085
-135.399	-147.461	0.137	-0.011
-134.385	687.884	0.136	0.352
-133.370	70.786	0.080	-0.082
-132.356	6.161	-0.202	-0.148
-131.341	-63.703	-0.184	-0.075
-130.326	-200.000	-0.005	0.068
-129.312	-44.013	-0.097	0.048
-128.297	-163.410	0.229	0.011
-127.283	800.000	-0.173	-0.534
-126.268	-200.000	0.014	0.117
-125.253	-200.000	0.001	0.130
-124.239	354.201	0.044	0.086
-123.224	66.037	0.112	0.112
-122.210	77.767	-0.141	-0.148
-121.195	-52.118	-0.023	-0.011
-120.180	351.317	0.119	-0.233
-119.166	184.602	-0.098	-0.144
-118.151	-153.557	0.238	0.016
-117.137	111.471	0.071	-0.085
-116.122	12.997	0.117	-0.089
-115.107	-161.862	-0.229	0.011
-114.093	263.183	-0.065	-0.111
-113.078	53.668	0.202	-0.192
-112.064	21.501	-0.118	-0.095
-111.049	800.000	0.084	0.263
-110.034	-200.000	-0.009	0.059
-109.020	-52.974	-0.263	0.119
-108.005	-200.000	-0.009	0.146
-106.991	31.143	0.215	0.182
-105.976	-200.000	0.015	-0.108
-104.962	-200.000	-0.018	-0.089
-103.947	142.839	-0.296	0.388
-102.932	-40.838	0.058	0.029
-101.918	28.102	-0.083	0.069
-100.903	-200.000	-0.057	-0.462
-99.889	-46.949	0.262	-0.126
-98.874	432.081	0.100	-0.214
-97.859	71.164	0.172	-0.176
-96.845	-167.879	-0.318	0.012
-95.830	800.000	-0.029	-0.109
-94.816	206.841	0.153	-0.235
-93.801	-52.099	-0.219	0.100
-92.786	-106.239	-0.251	0.055
-91.772	-81.889	-0.198	-0.064
-90.757	-30.690	-0.063	-0.035
-89.743	-143.008	-0.214	-0.020
-88.728	158.829	0.168	-0.230
-87.713	428.001	-0.130	0.276
-86.699	329.249	-0.063	0.119
-85.684	-200.000	0.024	-0.221
-84.670	-58.301	-0.273	-0.117
-83.655	-172.400	-0.300	0.009
-82.640	47.709	0.200	-0.184
-81.626	-200.000	-0.008	0.353
-80.611	-200.000	-0.005	-0.207
-79.597	-43.945	-0.302	-0.150
-78.582	800.000	0.102	-0.295
-77.567	122.019	0.357	-0.439
-76.553	222.291	-0.176	0.280
-75.538	-92.888	-0.151	-0.042
-74.524	-25.529	-0.160	-0.093
-73.509	-200.000	0.041	0.222
-72.494	-65.188	-0.034	-0.014
-71.480	-200.000	-0.016	-0.193
-70.465	8.313	0.137	0.102
-69.451	280.014	-0.028	0.050
-68.436	314.942	-0.068	0.127
-67.422	412.732	0.052	-0.109
-66.407	-200.000	-0.029	-0.159
-65.392	-200.000	0.069	-0.316
-64.378	800.000	-0.061	0.224
-63.363	-65.158	0.293	0.116
-62.349	74.719	-0.098	0.102
-61.334	53.077	-0.805	-0.759
-60.319	-0.493	0.319	0.223
-59.305	800.000	-0.375	-1.377
-58.290	669.263	0.411	1.047
-57.276	349.760	0.830	1.615
-56.261	-200.000	95.305	587.733
-55.246	662.134	1370.241	3477.222
-54.232	199.753	2542.118	3839.932
-53.217	121.285	2140.522	2624.055
-52.203	44.380	1604.763	1450.502
-51.188	35.997	1342.497	1163.057
-50.173	32.769	1300.828	1107.984
-49.159	54.793	1347.666	1279.938
-48.144	57.030	1364.439	1309.168
-47.130	36.019	1323.969	1146.950
-46.115	32.564	1306.346	1111.299
-45.100	32.453	1300.937	1106.000
-44.086	32.313	1298.778	1103.298
-43.071	32.214	1296.774	1100.972
-42.057	32.165	1294.660	1098.849
-41.042	32.349	1292.524	1098.067
-40.027	32.228	1291.621	1096.552
-39.013	32.132	1289.513	1094.156
-37.998	32.143	1288.042	1092.930
-36.984	32.366	1285.623	1092.127
-35.969	32.460	1283.932	1091.197
-34.954	32.475	1282.376	1089.913
-33.940	32.486	1281.080	1088.834
-32.925	32.484	1280.166	1088.003
-31.911	32.592	1278.076	1086.808
-30.896	32.463	1276.444	1084.635
-29.881	32.509	1274.844	1083.497
-28.867	32.454	1273.720	1082.182
-27.852	32.403	1272.834	1081.089
-26.838	32.428	1271.134	1079.748
-25.823	32.559	1269.804	1079.324
-24.809	32.440	1268.936	1077.863
-23.794	32.414	1267.119	1076.131
-22.779	32.540	1265.611	1075.524
-21.765	32.448	1264.827	1074.295
-20.750	32.565	1263.088	1073.437
-19.736	32.337	1261.989	1071.163
-18.721	32.357	1260.954	1070.355
-17.706	32.410	1259.709	1069.558
-16.692	32.347	1258.727	1068.323
-15.677	32.271	1257.752	1067.023
-14.663	32.299	1256.026	1065.673
-13.648	32.311	1255.512	1065.268
-12.633	32.370	1254.171	1064.420
-11.619	32.327	1254.124	1064.093
-10.604	32.334	1252.575	1062.779
-9.590	32.183	1251.807	1061.231
-8.575	32.172	1250.755	1060.236
-7.560	32.368	1249.380	1060.133
-6.546	32.275	1249.135	1059.356
-5.531	32.270	1248.234	1058.525
-4.517	32.333	1247.124	1057.894
-3.502	32.312	1246.511	1057.214
-2.487	32.364	1245.096	1056.266
-1.473	32.212	1241.227	1052.091
-0.458	30.958	1226.325	1032.475
0.556	26.407	1209.182	994.986
1.571	22.654	1215.086	978.960
2.586	21.709	1229.882	985.486
3.600	21.093	1218.741	973.036
4.615	16.016	1147.915	889.670
5.629	8.211	1073.885	793.531
6.644	4.813	1054.574	762.575
7.659	4.617	1052.207	759.838
8.673	4.619	1050.834	758.790
9.688	4.601	1049.838	757.916
10.702	4.763	1048.082	757.367
11.717	9.124	1054.268	783.078
12.731	16.331	1064.178	825.730
13.746	19.024	1067.012	841.036
14.761	18.126	1065.498	835.386
15.775	17.214	1063.033	828.931
16.790	16.164	1060.937	822.111
17.804	15.442	1059.380	817.315
18.819	14.969	1058.885	814.555
19.834	14.820	1057.493	812.689
20.848	14.570	1057.056	811.067
21.863	14.469	1055.746	809.500
22.877	14.230	1055.124	807.789
23.892	14.263	1054.210	807.179
24.907	14.302	1053.580	806.814
25.921	14.327	1052.507	806.043
26.936	14.460	1051.202	805.617
27.950	14.328	1050.168	804.117
28.965	14.380	1048.545	803.052
29.980	14.540	1047.011	802.576
30.994	14.445	1046.340	801.535
32.009	14.610	1045.066	801.278
33.023	14.525	1043.998	799.979
34.038	14.436	1042.975	798.700
35.053	14.435	1041.688	797.641
36.067	14.361	1041.089	796.756
37.082	14.434	1040.373	796.485
38.096	14.454	1039.821	796.088
39.111	14.443	1038.777	795.167
40.126	14.392	1037.478	793.858
41.140	14.152	1036.629	791.998
42.155	14.108	1035.118	790.562
43.169	14.164	1034.135	790.007
44.184	14.129	1033.124	789.002
45.199	14.148	1032.226	788.336
46.213	14.215	1031.586	788.094
47.228	14.341	1030.071	787.463
48.242	14.420	1029.197	787.097
49.257	14.460	1028.194	786.451
50.271	14.374	1027.340	785.321
51.286	14.499	1026.076	784.874
52.301	14.480	1025.513	784.286
53.315	14.246	1024.780	782.555
54.330	14.406	1023.336	782.136
55.344	14.307	1022.654	781.077
56.359	14.239	1022.276	780.404
57.374	14.243	1021.080	779.439
58.388	14.086	1020.014	777.820
59.403	14.199	1019.200	777.661
60.417	14.078	1018.649	776.606
61.432	14.017	1017.824	775.623
62.447	14.064	1017.309	775.382
63.461	14.065	1016.137	774.423
64.476	14.133	1014.945	773.763
65.490	14.096	1014.414	773.120
66.505	14.033	1013.766	772.262
67.520	14.187	1012.623	772.039
68.534	14.094	1012.330	771.317
69.549	13.998	1011.708	770.328
70.563	14.146	1010.543	770.061
71.578	13.926	1010.095	768.631
72.593	13.923	1008.877	767.621
73.607	13.918	1008.649	767.357
74.622	14.002	1007.695	766.954
75.636	13.976	1007.393	766.536
76.651	14.050	1006.605	766.210
77.666	14.081	1006.040	765.853
78.680	14.144	1005.180	765.421
79.695	13.981	1004.742	764.270
80.709	14.082	1004.362	764.376
81.724	14.111	1003.775	763.996
82.739	14.293	1002.877	764.080
83.753	14.488	1002.095	764.309
84.768	14.520	1001.202	763.709
85.782	14.618	1000.185	763.315
86.797	14.530	999.507	762.325
87.812	14.419	998.703	761.139
88.826	14.361	997.827	760.139
89.841	14.341	996.799	759.196
90.855	14.627	995.908	759.755
91.870	14.469	995.156	758.393
92.884	14.425	994.597	757.703
93.899	14.607	993.637	757.729
94.914	14.605	992.981	757.152
95.928	14.611	991.937	756.317
96.943	14.546	991.090	755.312
97.957	14.535	990.329	754.616
98.972	14.494	989.666	753.857
99.987	14.405	988.985	752.869
101.001	14.514	987.861	752.437
102.016	14.478	987.131	751.651
103.030	14.523	986.501	751.308
104.045	14.530	985.518	750.528
105.060	14.472	984.586	749.491
106.074	14.366	983.074	747.796
107.089	14.156	982.813	746.589
108.103	14.220	981.362	745.706
109.118	14.071	980.701	744.471
110.133	14.116	980.114	744.164
111.147	14.187	978.541	743.217
112.162	14.061	978.335	742.437
113.176	14.263	977.537	742.665
114.191	14.285	976.787	742.126
115.206	14.218	976.169	741.295
116.220	14.219	974.985	740.333
117.235	14.277	974.255	739.971
118.249	14.271	973.145	739.037
119.264	14.177	972.284	737.900
120.279	14.176	971.467	737.209
121.293	14.246	970.557	736.766
122.308	14.242	969.816	736.119
123.322	14.106	968.794	734.677
124.337	14.102	967.708	733.769
125.352	14.077	966.950	733.022
126.366	14.115	965.694	732.172
127.381	14.157	964.727	731.556
128.395	14.165	963.834	730.854
129.410	14.199	963.245	730.490
130.424	14.355	961.487	729.776
131.439	14.308	961.664	729.638
132.454	14.352	960.771	729.091
133.468	14.329	960.059	728.386
134.483	14.324	959.559	727.920
135.497	14.295	958.641	727.032
136.512	14.292	957.591	726.159
137.527	14.287	956.900	725.547
138.541	14.381	955.931	725.159
139.556	14.347	955.256	724.432
140.570	14.558	954.330	724.583
141.585	14.650	953.886	724.581
142.600	14.561	953.131	723.556
143.614	14.615	952.360	723.143
144.629	14.695	951.946	723.112
145.643	14.487	950.562	721.098
146.658	14.466	949.695	720.284
147.673	14.470	948.659	719.454
148.687	14.415	947.630	718.372
149.702	14.321	946.946	717.386
150.716	14.427	946.073	717.116
151.731	14.387	945.644	716.553
152.746	14.451	944.897	716.201
153.760	14.578	944.370	716.282
154.775	14.551	944.112	715.907
155.789	14.545	943.489	715.346
156.804	14.618	942.292	714.690
157.819	14.644	941.394	714.055
158.833	14.703	941.543	714.356
159.848	14.714	940.465	713.525
160.862	14.689	939.087	712.309
161.877	14.518	938.127	710.787
162.892	14.499	937.109	709.874
163.906	14.475	936.298	709.095
164.921	14.493	935.307	708.357
165.935	14.611	934.350	708.071
166.950	14.497	933.965	707.231
167.964	14.559	933.035	706.730
168.979	14.496	932.046	705.648
169.994	14.559	931.186	705.200
171.008	14.567	930.915	704.968
172.023	14.744	930.140	705.065
173.037	14.836	929.472	704.887
174.052	14.669	928.500	703.384
175.067	14.618	927.665	702.472
176.081	14.574	927.276	701.930
177.096	14.449	926.575	700.812
178.110	14.589	926.288	701.122
179.125	14.594	925.614	700.569
180.140	14.576	925.192	700.115
181.154	14.700	924.970	700.404
182.169	14.811	924.382	700.364
183.183	14.820	923.907	699.977
184.198	14.851	922.704	699.136
185.213	14.811	922.530	698.775
186.227	14.776	921.980	698.149
187.242	14.878	920.991	697.765
188.256	14.981	920.410	697.694
189.271	14.945	919.658	696.910
190.286	14.599	918.815	694.770
191.300	14.570	918.088	694.037
192.315	14.384	917.479	692.743
193.329	14.427	917.396	692.799
194.344	14.590	916.390	692.655
195.359	14.712	915.527	692.446
196.373	14.846	915.058	692.584
197.388	14.880	915.041	692.650
198.402	14.967	914.221	692.331
199.417	15.030	913.563	692.030
200.432	15.120	913.117	692.005
201.446	15.181	912.522	691.741
202.461	15.141	912.700	691.653
203.475	15.104	911.574	690.586
204.490	15.016	910.935	689.676
205.504	14.832	910.082	688.212
206.519	15.054	908.856	688.139
207.534	15.060	908.232	687.627
208.548	15.147	907.613	687.456
209.563	15.004	906.897	686.268
210.577	14.995	906.255	685.685
211.592	15.163	905.757	685.935
212.607	15.222	904.948	685.500
213.621	15.214	904.152	684.806
214.636	15.300	903.364	684.497
215.650	15.274	903.051	684.096
216.665	15.352	902.181	683.692
217.680	15.385	901.479	683.235
218.694	15.465	900.754	682.950
219.709	15.295	900.496	682.001
220.723	15.325	899.674	681.441
221.738	15.327	899.458	681.228
222.753	15.402	898.364	680.643
223.767	15.398	897.823	680.155
224.782	15.490	897.577	680.282
225.796	15.514	897.303	680.113
226.811	15.478	896.619	679.385
227.826	15.451	895.562	678.415
228.840	15.467	894.555	677.660
229.855	15.495	893.862	677.186
230.869	15.371	893.406	676.280
231.884	15.389	892.540	675.639
232.899	15.380	891.838	675.010
233.913	15.332	891.350	674.388
234.928	15.168	890.712	673.186
235.942	15.223	890.120	672.903
236.957	15.355	889.227	672.696
237.972	15.178	889.266	671.958
238.986	15.378	888.109	671.824
240.001	15.306	888.062	671.439
241.015	15.405	886.961	670.944
242.030	15.327	886.904	670.529
243.045	15.525	885.687	670.342
244.059	15.473	885.355	669.821
245.074	15.413	884.786	669.092
246.088	15.557	883.863	668.909
247.103	15.660	883.270	668.813
248.117	15.618	883.325	668.626
249.132	15.814	882.295	668.567
250.147	15.959	881.825	668.727
251.161	15.952	881.268	668.218
252.176	15.877	880.796	667.505
253.190	16.046	880.092	667.581
254.205	16.006	879.568	666.968
255.220	15.952	878.964	666.236
256.234	16.142	877.888	666.111
257.249	16.082	877.454	665.488
258.263	16.030	876.596	664.571
259.278	16.001	875.978	663.931
260.293	16.201	875.269	664.123
261.307	16.182	874.882	663.693
262.322	16.357	873.919	663.595
263.336	16.074	873.825	662.351
264.351	16.275	872.872	662.360
265.366	16.285	872.139	661.784
266.380	16.184	871.608	660.925
267.395	16.123	870.880	660.075
268.409	16.136	869.754	659.217
269.424	16.236	869.388	659.272
270.439	16.164	868.865	658.534
271.453	16.099	868.130	657.666
272.468	16.132	867.570	657.313
273.482	16.104	867.199	656.861
274.497	16.065	866.544	656.156
275.512	16.176	865.945	656.078
276.526	16.150	865.434	655.530
277.541	16.133	865.198	655.230
278.555	16.112	864.565	654.611
279.570	16.348	863.743	654.846
280.585	16.529	862.720	654.711
281.599	16.314	862.169	653.402
282.614	16.307	861.052	652.473
283.628	16.342	860.607	652.214
284.643	16.384	860.447	652.195
285.657	16.193	860.035	651.088
286.672	16.304	859.191	650.818
287.687	16.439	858.404	650.688
288.701	16.412	858.207	650.375
289.716	16.333	857.745	649.663
290.730	16.438	857.173	649.576
291.745	16.357	856.512	648.706
292.760	16.449	855.920	648.552
293.774	16.578	855.120	648.387
294.789	16.598	854.218	647.721
295.803	16.564	854.154	647.484
296.818	16.433	853.246	646.237
297.833	16.462	852.724	645.897
298.847	16.332	852.266	644.997
299.862	16.525	851.495	645.092
300.876	16.529	850.851	644.563
301.891	16.590	850.429	644.416
302.906	16.738	849.775	644.429
303.920	16.669	849.684	644.038
304.935	16.819	848.799	643.880
305.949	16.806	848.138	643.276
306.964	16.681	847.568	642.311
307.979	16.580	846.986	641.431
308.993	16.775	846.706	641.900
310.008	17.001	845.596	641.857
311.022	16.809	845.363	640.896
312.037	16.782	844.887	640.376
313.052	16.676	844.045	639.284
314.066	16.657	843.415	638.678
315.081	16.727	842.782	638.405
316.095	16.665	842.469	637.876
317.110	16.814	841.629	637.746
318.125	16.674	841.491	637.059
319.139	16.701	841.272	636.938
320.154	16.662	840.619	636.239
321.168	16.784	839.706	635.949
322.183	16.806	839.210	635.602
323.197	16.879	838.829	635.532
324.212	16.845	838.375	635.001
325.227	16.782	837.750	634.238
326.241	16.742	837.514	633.855
327.256	16.835	836.616	633.465
328.270	16.789	835.984	632.759
329.285	16.723	835.452	632.054
330.300	16.808	834.700	631.747
331.314	16.743	834.704	631.450
332.329	17.048	833.656	631.736
333.343	17.018	833.279	631.286
334.358	16.946	833.087	630.814
335.373	17.123	832.719	631.139
336.387	16.899	832.806	630.316
337.402	17.089	832.465	630.709
338.416	17.186	831.802	630.508
339.431	17.073	831.725	629.978
340.446	17.189	831.185	629.941
341.460	17.229	831.280	630.105
342.475	17.304	830.492	629.731
343.489	17.309	830.058	629.365
344.504	17.325	829.749	629.135
345.519	17.254	829.142	628.357
346.533	17.356	828.312	628.047
347.548	17.274	827.815	627.314
348.562	17.297	827.127	626.822
349.577	17.238	826.638	626.176
350.592	17.166	826.157	625.493
351.606	17.075	825.506	624.608
352.621	17.335	824.339	624.627
353.635	17.291	824.179	624.289
354.650	17.326	823.687	623.988
355.665	17.255	823.360	623.426
356.679	17.420	822.288	623.163
357.694	17.371	821.679	622.466
358.708	17.264	821.350	621.771
359.723	17.229	820.709	621.102
360.738	17.343	820.079	620.987
361.752	17.324	819.612	620.508
362.767	17.474	819.189	620.679
363.781	17.690	818.277	620.723
364.796	17.746	817.890	620.576
365.810	17.695	817.656	620.158
366.825	17.733	817.392	620.041
367.840	17.594	816.899	619.108
368.854	17.627	816.202	618.646
369.869	17.606	815.907	618.291
370.883	17.662	815.251	617.942
371.898	17.716	815.154	618.011
372.913	17.741	815.206	618.083
373.927	17.725	814.263	617.257
374.942	17.704	813.837	616.804
375.956	17.774	813.601	616.823
376.971	17.899	813.101	616.841
377.986	18.025	812.575	616.842
379.000	17.911	812.259	616.139
380.015	17.894	811.475	615.426
381.029	17.835	810.840	614.678
382.044	17.813	810.417	614.224
383.059	17.951	809.924	614.290
384.073	17.884	809.228	613.470
385.088	17.857	808.437	612.720
386.102	17.935	807.537	612.261
387.117	17.859	807.309	611.762
388.132	17.733	806.783	610.857
389.146	17.858	806.406	610.964
390.161	17.920	806.023	610.845
391.175	17.957	805.330	610.398
392.190	17.914	804.971	609.917
393.205	17.934	804.800	609.805
394.219	17.809	804.201	608.850
395.234	17.967	803.564	608.879
396.248	17.717	803.385	607.796
397.263	17.808	802.935	607.728
398.278	17.711	802.510	607.008
399.292	17.851	802.091	607.135
400.307	17.845	801.433	606.561
401.321	17.776	801.018	605.947
402.336	18.023	800.474	606.360
403.350	18.026	800.502	606.339
404.365	17.997	799.774	605.631
405.380	18.076	798.905	605.197
406.394	18.332	798.507	605.748
407.409	18.281	798.184	605.271
408.423	18.251	798.087	605.036
409.438	18.364	797.900	605.241
410.453	18.383	797.338	604.827
411.467	18.388	796.724	604.328
412.482	18.470	796.411	604.326
413.496	18.505	795.701	603.857
414.511	18.355	796.075	603.557
415.526	18.540	795.406	603.648
416.540	18.330	795.044	602.581
417.555	18.256	794.387	601.769
418.569	18.353	793.963	601.737
419.584	18.504	793.396	601.782
420.599	18.548	792.551	601.242
421.613	155.891	1370.949	1792.695
422.628	134.898	1455.211	1792.794
