DTS Sentinel unit serial number:	SN413079Multiplexer serial number:	ORYXHardware model number:	OX4-SRSoftware version number:	ORYX F/W v4.00 Oryx Data Collector v3.7.2.0data status	okinstallation	princeton_trtdifferential loss correction	single-endedforward channel	channel 1reverse channel	N/Adate	2019/09/13time	07:06:36forward acquisition time	60.00reverse acquisition time	0.00gamma	496.2192k internal	0.2335k external	0.2335temperature offset calibration	1.0160default loss term (dB/km)	0.3790temperature slope calibration	1.0000multiplexer offset coefficient	1.0000multiplexer slope coefficient	1.0000fibre end	0.00T internal ref (°C)	26.00T ext. ref 1 (°C)	4.13T ext. ref 2 (°C)	21.25length (m)	temperature (°C)	Stokes	anti-Stokes-747.200	-7.870	-0.104	-0.070
-746.185	411.582	0.115	0.244
-745.171	350.596	-0.089	-0.176
-744.156	-33.471	-0.335	0.186
-743.142	33.310	-0.025	-0.022
-742.127	124.153	0.188	0.238
-741.112	86.295	0.130	0.144
-740.098	800.000	0.041	0.126
-739.083	800.000	-0.089	-0.337
-738.069	518.207	-0.113	-0.266
-737.054	469.498	-0.044	0.098
-736.039	-200.000	-0.002	0.144
-735.025	63.501	-0.049	0.050
-734.010	340.490	0.091	0.179
-732.996	-200.000	0.005	-0.188
-731.981	10.493	0.115	-0.088
-730.966	-200.000	-0.021	-0.281
-729.952	-32.433	0.333	-0.187
-728.937	-83.002	-0.226	0.073
-727.923	216.820	0.104	0.165
-726.908	-90.439	0.222	0.065
-725.894	-181.626	-0.471	0.009
-724.879	-200.000	0.010	0.177
-723.864	552.841	0.039	-0.095
-722.850	255.275	0.123	0.211
-721.835	-49.132	-0.455	-0.218
-720.821	22.961	-0.384	-0.316
-719.806	77.057	-0.173	0.185
-718.791	-168.633	0.272	-0.010
-717.777	151.411	-0.250	-0.341
-716.762	5.297	0.260	0.192
-715.748	800.000	0.036	0.152
-714.733	23.741	-0.182	0.150
-713.718	567.889	-0.094	-0.230
-712.704	800.000	-0.084	0.243
-711.689	24.058	-0.076	0.063
-710.675	-69.624	-0.206	-0.079
-709.660	-105.834	0.232	0.052
-708.645	-13.397	-0.284	0.185
-707.631	-55.048	-0.103	0.047
-706.616	-44.562	0.182	0.091
-705.602	-200.000	0.041	-0.234
-704.587	-32.118	-0.036	-0.020
-703.572	-200.000	-0.003	0.204
-702.558	800.000	0.040	-0.123
-701.543	2.311	-0.210	-0.152
-700.529	-71.629	-0.253	-0.095
-699.514	80.197	0.186	-0.200
-698.499	349.309	-0.095	0.188
-697.485	-186.138	0.277	-0.004
-696.470	-73.140	-0.300	0.110
-695.456	-31.747	-0.176	0.099
-694.441	-114.603	-0.205	-0.039
-693.426	-79.153	0.080	-0.027
-692.412	551.392	-0.141	-0.338
-691.397	26.014	0.131	0.110
-690.383	-23.740	-0.112	-0.068
-689.368	703.353	0.035	-0.093
-688.354	-14.667	-0.306	0.197
-687.339	-105.383	0.092	-0.021
-686.324	-122.998	-0.224	0.036
-685.310	98.463	0.306	0.353
-684.295	292.314	-0.014	0.025
-683.281	179.944	-0.307	-0.451
-682.266	117.526	-0.072	0.089
-681.251	800.000	0.037	0.113
-680.237	-127.831	-0.227	-0.033
-679.222	-118.392	-0.183	0.033
-678.208	320.767	-0.051	0.097
-677.193	251.149	0.150	-0.255
-676.178	343.974	-0.192	-0.377
-675.164	-117.955	0.205	-0.037
-674.149	-6.976	0.219	-0.149
-673.135	-200.000	0.021	0.209
-672.120	-18.278	-0.141	-0.088
-671.105	-200.000	0.055	-0.263
-670.091	-120.348	0.235	-0.040
-669.076	650.470	-0.052	-0.133
-668.062	-84.218	0.279	0.088
-667.047	633.866	-0.045	-0.115
-666.032	-77.203	0.291	0.102
-665.018	164.293	-0.103	-0.146
-664.003	101.623	-0.123	-0.143
-662.989	-111.817	-0.193	-0.039
-661.974	172.902	0.167	-0.241
-660.959	202.802	0.069	-0.107
-659.945	-200.000	-0.046	0.219
-658.930	44.554	-0.184	-0.169
-657.916	-200.000	0.001	-0.294
-656.901	800.000	-0.067	0.235
-655.886	-75.270	0.482	0.172
-654.872	14.034	-0.217	-0.169
-653.857	-200.000	-0.010	-0.240
-652.843	-20.829	0.154	0.095
-651.828	601.614	-0.053	0.133
-650.814	-140.731	-0.204	-0.021
-649.799	516.119	-0.053	-0.124
-648.784	-200.000	0.012	0.250
-647.770	-200.000	0.012	-0.267
-646.755	168.042	0.153	-0.217
-645.741	140.992	0.102	-0.135
-644.726	655.222	-0.063	-0.163
-643.711	-62.916	-0.116	-0.048
-642.697	-193.930	-0.059	-0.000
-641.682	-53.211	-0.201	0.092
-640.668	-106.519	-0.354	0.079
-639.653	-155.575	0.318	-0.020
-638.638	59.369	0.148	-0.146
-637.624	-69.029	-0.190	0.073
-636.609	70.322	0.199	0.206
-635.595	52.696	0.331	-0.317
-634.580	-109.798	0.234	0.049
-633.565	121.295	0.158	-0.197
-632.551	5.264	-0.087	-0.064
-631.536	-152.545	-0.384	0.027
-630.522	-200.000	-0.036	-0.438
-629.507	40.930	-0.185	0.167
-628.492	165.083	0.012	0.016
-627.478	-150.273	0.244	0.019
-626.463	-1.838	-0.097	0.068
-625.449	-200.000	0.014	-0.189
-624.434	96.810	-0.124	-0.142
-623.419	-28.857	-0.087	0.050
-622.405	-200.000	0.032	-0.231
-621.390	657.373	0.036	0.094
-620.376	-192.757	-0.401	0.004
-619.361	-88.261	-0.027	-0.008
-618.346	382.992	-0.110	-0.227
-617.332	-69.660	-0.594	0.227
-616.317	123.551	0.151	-0.189
-615.303	-200.000	-0.009	-0.066
-614.288	-56.846	0.271	-0.120
-613.273	800.000	-0.019	-0.073
-612.259	-74.837	-0.392	-0.141
-611.244	-19.117	0.252	-0.156
-610.230	13.791	0.206	0.160
-609.215	-109.259	0.191	-0.041
-608.201	-127.315	-0.331	-0.048
-607.186	593.044	0.025	0.062
-606.171	-46.180	-0.277	-0.136
-605.157	-114.608	0.430	-0.082
-604.142	10.234	-0.182	0.138
-603.128	174.595	0.128	0.185
-602.113	195.595	-0.170	-0.258
-601.098	-89.131	0.161	0.048
-600.084	45.359	-0.200	0.184
-599.069	-200.000	-0.005	0.039
-598.055	299.030	0.088	0.162
-597.040	-200.000	-0.016	0.168
-596.025	-96.902	0.275	0.072
-595.011	-41.154	-0.079	-0.041
-593.996	-54.039	-0.277	0.126
-592.982	-18.652	0.292	-0.182
-591.967	-133.492	-0.189	0.024
-590.952	-151.124	-0.166	0.012
-589.938	-67.124	-0.193	-0.076
-588.923	-88.308	-0.394	0.118
-587.909	-36.942	0.029	0.015
-586.894	-115.015	0.094	0.018
-585.879	-155.212	0.100	0.006
-584.865	494.686	0.101	-0.231
-583.850	319.676	0.107	0.203
-582.836	-38.205	-0.276	0.146
-581.821	-200.000	-0.015	-0.249
-580.806	48.231	-0.199	-0.185
-579.792	206.183	-0.186	-0.290
-578.777	-186.411	-0.207	0.003
-577.763	-200.000	0.024	-0.214
-576.748	-200.000	0.015	0.190
-575.733	-72.099	-0.224	0.083
-574.719	252.806	0.194	-0.331
-573.704	205.243	0.168	-0.261
-572.690	417.694	0.084	0.180
-571.675	91.343	0.385	-0.431
-570.661	800.000	-0.069	0.257
-569.646	800.000	0.074	-0.289
-568.631	215.864	-0.178	-0.281
-567.617	139.844	0.245	0.322
-566.602	-99.985	0.160	-0.040
-565.588	286.128	0.177	0.319
-564.573	-78.886	0.379	0.129
-563.558	-200.000	0.004	-0.237
-562.544	192.509	0.097	-0.146
-561.529	800.000	-0.078	-0.291
-560.515	800.000	-0.072	-0.218
-559.500	26.301	0.254	-0.212
-558.485	-146.481	0.249	-0.022
-557.471	-62.066	-0.207	-0.086
-556.456	-200.000	0.016	-0.144
-555.442	-104.052	-0.148	-0.034
-554.427	324.503	0.142	-0.270
-553.412	-200.000	0.023	-0.221
-552.398	-56.536	-0.322	0.142
-551.383	97.710	-0.232	0.266
-550.369	-137.336	-0.136	0.015
-549.354	800.000	-0.131	0.467
-548.339	-55.329	-0.100	0.045
-547.325	800.000	-0.054	0.172
-546.310	-200.000	0.004	0.249
-545.296	99.693	0.136	-0.158
-544.281	-90.247	0.191	0.055
-543.266	-158.920	-0.177	0.010
-542.252	-173.297	-0.406	0.012
-541.237	-179.260	-0.145	0.003
-540.223	195.290	0.029	-0.043
-539.208	-141.759	-0.009	-0.001
-538.193	38.599	-0.355	0.315
-537.179	-147.529	-0.267	-0.022
-536.164	-200.000	-0.007	-0.312
-535.150	-37.051	-0.291	0.155
-534.135	92.089	-0.102	-0.114
-533.121	-154.342	-0.193	-0.013
-532.106	18.319	-0.013	-0.010
-531.091	-90.475	0.296	-0.085
-530.077	-105.830	-0.321	0.072
-529.062	587.676	0.099	-0.244
-528.048	-200.000	-0.019	-0.292
-527.033	800.000	-0.038	0.130
-526.018	-57.774	0.258	-0.113
-525.004	152.494	0.174	-0.237
-523.989	-155.364	0.090	-0.006
-522.975	-62.705	-0.230	0.095
-521.960	800.000	-0.156	-0.471
-520.945	268.581	0.205	0.359
-519.931	207.055	-0.050	0.078
-518.916	-6.765	-0.225	0.152
-517.902	-91.830	0.180	-0.051
-516.887	-200.000	-0.026	-0.395
-515.872	232.672	0.266	-0.434
-514.858	68.227	0.167	0.170
-513.843	157.688	-0.294	0.405
-512.829	-115.433	-0.181	-0.034
-511.814	143.985	0.018	-0.024
-510.799	800.000	0.130	0.426
-509.785	-170.014	0.264	0.009
-508.770	-30.941	-0.158	-0.089
-507.756	127.927	0.134	-0.170
-506.741	800.000	0.068	-0.236
-505.726	-122.786	-0.264	0.042
-504.712	-134.337	0.139	-0.017
-503.697	163.612	-0.100	0.140
-502.683	-172.078	-0.195	-0.006
-501.668	269.527	-0.128	0.224
-500.653	120.652	0.090	0.112
-499.639	-104.823	-0.088	0.020
-498.624	-99.483	0.331	0.083
-497.610	-97.477	-0.218	0.056
-496.595	-26.731	-0.099	-0.058
-495.581	719.064	-0.023	-0.061
-494.566	800.000	0.048	0.175
-493.551	0.874	0.034	0.024
-492.537	-65.389	0.356	0.143
-491.522	20.062	-0.325	0.261
-490.508	131.795	-0.077	-0.098
-489.493	800.000	-0.031	-0.089
-488.478	285.435	0.064	-0.115
-487.464	-45.451	0.153	0.075
-486.449	800.000	0.041	0.177
-485.435	98.842	0.059	0.067
-484.420	-110.195	-0.137	0.028
-483.405	114.008	0.229	0.277
-482.391	-52.855	-0.100	-0.046
-481.376	-147.030	0.157	0.013
-480.362	-81.546	-0.087	-0.028
-479.347	48.755	-0.184	-0.171
-478.332	123.949	-0.184	-0.230
-477.318	-94.394	0.130	0.035
-476.303	-143.947	-0.091	0.009
-475.289	379.323	-0.066	-0.135
-474.274	800.000	0.089	-0.262
-473.259	-135.123	0.256	-0.031
-472.245	92.987	0.205	0.230
-471.230	-197.199	0.164	-0.001
-470.216	14.553	0.296	0.229
-469.201	112.570	0.049	-0.058
-468.186	97.432	-0.272	-0.311
-467.172	-102.038	0.166	-0.040
-466.157	-87.526	0.073	0.022
-465.143	-94.034	-0.288	0.079
-464.128	800.000	-0.051	0.208
-463.113	-99.630	-0.212	-0.053
-462.099	-200.000	0.016	-0.279
-461.084	37.291	0.199	0.175
-460.070	356.550	0.099	0.195
-459.055	267.163	-0.113	0.196
-458.040	-200.000	-0.019	0.197
-457.026	-200.000	0.028	-0.135
-456.011	-105.563	0.196	-0.044
-454.997	7.541	-0.044	-0.033
-453.982	-94.693	-0.221	0.060
-452.968	572.548	-0.052	0.127
-451.953	44.893	-0.150	0.137
-450.938	-200.000	0.024	-0.107
-449.924	214.953	0.154	-0.243
-448.909	800.000	-0.075	-0.260
-447.895	-137.616	0.100	0.011
-446.880	-200.000	0.004	-0.104
-445.865	588.092	-0.120	0.293
-444.851	-200.000	0.029	0.136
-443.836	-95.360	-0.227	0.061
-442.822	300.790	-0.150	0.276
-441.807	-200.000	0.028	-0.197
-440.792	-164.826	0.040	0.002
-439.778	-93.804	-0.164	0.045
-438.763	-19.713	-0.226	0.139
-437.749	217.723	0.114	-0.180
-436.734	288.576	-0.136	0.244
-435.719	-116.122	-0.084	0.016
-434.705	169.580	0.096	0.136
-433.690	44.925	-0.132	-0.121
-432.676	178.339	-0.157	0.227
-431.661	-200.000	-0.009	-0.156
-430.646	87.200	0.071	-0.078
-429.632	800.000	0.057	0.222
-428.617	612.713	-0.080	0.198
-427.603	-49.485	0.301	-0.142
-426.588	215.461	-0.032	-0.051
-425.573	3.779	0.136	-0.098
-424.559	-21.881	-0.159	-0.096
-423.544	-111.229	-0.072	0.015
-422.530	-156.143	0.237	0.015
-421.515	-110.276	-0.229	-0.047
-420.500	-93.818	0.169	-0.046
-419.486	-79.239	-0.344	-0.116
-418.471	-57.475	0.164	0.071
-417.457	-200.000	-0.038	0.215
-416.442	-62.093	-0.181	-0.075
-415.428	47.824	0.243	-0.225
-414.413	202.034	0.262	-0.401
-413.398	-200.000	-0.005	0.454
-412.384	76.317	0.043	-0.045
-411.369	-81.412	0.151	-0.049
-410.355	666.910	-0.119	0.306
-409.340	800.000	0.112	0.317
-408.325	-143.549	0.137	0.013
-407.311	45.699	0.062	0.057
-406.296	188.402	0.196	-0.291
-405.282	299.697	0.115	0.211
-404.267	-71.670	-0.239	0.089
-403.252	66.356	0.084	0.085
-402.238	66.360	0.136	-0.137
-401.223	34.087	-0.286	-0.247
-400.209	83.859	0.371	0.402
-399.194	429.651	-0.119	-0.254
-398.179	-90.801	0.155	-0.044
-397.165	-200.000	0.029	-0.166
-396.150	800.000	0.072	0.262
-395.136	215.357	-0.023	0.036
-394.121	300.785	0.103	0.189
-393.106	-116.178	-0.225	-0.041
-392.092	-151.840	-0.323	0.023
-391.077	428.298	-0.034	-0.072
-390.063	108.385	-0.190	-0.225
-389.048	224.460	0.023	0.037
-388.033	-200.000	-0.010	0.079
-387.019	-200.000	-0.049	0.277
-386.004	-6.587	-0.181	0.122
-384.990	285.848	-0.121	-0.216
-383.975	466.751	0.135	0.300
-382.960	38.388	-0.116	0.102
-381.946	428.821	0.112	-0.240
-380.931	-18.883	-0.120	0.074
-379.917	-94.751	0.084	0.023
-378.902	261.269	0.113	-0.194
-377.888	-200.000	-0.008	0.186
-376.873	-137.990	0.334	0.037
-375.858	111.456	0.120	0.144
-374.844	-70.281	0.354	-0.133
-373.829	-200.000	0.009	-0.212
-372.815	-200.000	-0.027	0.301
-371.800	-200.000	0.005	0.190
-370.785	117.384	0.173	0.210
-369.771	40.449	0.126	0.113
-368.756	-200.000	-0.010	-0.143
-367.742	30.555	-0.089	-0.076
-366.727	24.567	-0.156	-0.128
-365.712	800.000	0.046	-0.169
-364.698	800.000	-0.063	0.174
-363.683	-9.616	-0.114	0.075
-362.669	-141.134	-0.140	0.014
-361.654	-200.000	-0.034	-0.166
-360.639	96.446	-0.171	-0.194
-359.625	-200.000	-0.033	-0.279
-358.610	-200.000	0.010	0.106
-357.596	-63.466	-0.178	0.072
-356.581	-100.999	-0.070	0.017
-355.566	12.131	-0.296	-0.225
-354.552	800.000	0.061	0.250
-353.537	46.727	0.252	-0.231
-352.523	-93.904	-0.256	0.070
-351.508	-19.933	0.095	-0.058
-350.493	800.000	-0.066	0.280
-349.479	96.287	0.096	0.108
-348.464	-43.775	0.213	0.106
-347.450	-172.383	0.231	-0.007
-346.435	-200.000	-0.046	-0.324
-345.420	398.774	0.008	-0.017
-344.406	-200.000	0.007	0.070
-343.391	210.268	-0.171	-0.265
-342.377	-151.754	0.382	-0.028
-341.362	-200.000	0.010	0.119
-340.348	585.119	0.052	-0.126
-339.333	-144.436	0.178	0.016
-338.318	-54.853	0.347	-0.155
-337.304	111.888	-0.093	-0.111
-336.289	4.559	0.130	-0.094
-335.275	115.565	0.027	0.033
-334.260	800.000	-0.037	0.105
-333.245	170.714	-0.112	0.158
-332.231	40.025	-0.103	0.092
-331.216	-200.000	0.017	-0.431
-330.202	143.645	0.125	0.164
-329.187	93.357	-0.164	0.183
-328.172	-51.078	-0.263	0.122
-327.158	-200.000	-0.001	0.189
-326.143	-133.521	0.226	0.028
-325.129	-95.197	0.126	0.034
-324.114	135.125	-0.144	0.185
-323.099	-73.157	-0.109	-0.039
-322.085	158.368	-0.190	0.261
-321.070	0.855	0.271	0.191
-320.056	124.304	-0.038	0.047
-319.041	-16.564	-0.354	0.222
-318.026	-136.719	0.320	-0.036
-317.012	49.770	-0.199	0.185
-315.997	-200.000	0.030	-0.179
-314.983	-138.306	0.193	-0.021
-313.968	16.542	-0.076	-0.059
-312.953	-131.480	0.245	0.032
-311.939	-147.226	-0.137	0.012
-310.924	-155.053	0.339	-0.022
-309.910	-88.295	0.156	0.046
-308.895	-108.863	0.248	-0.052
-307.880	800.000	-0.102	0.365
-306.866	77.994	-0.270	0.284
-305.851	-200.000	-0.011	0.139
-304.837	-200.000	0.063	0.274
-303.822	55.554	-0.110	0.106
-302.807	-143.329	0.248	0.023
-301.793	-44.315	0.182	-0.090
-300.778	-95.020	-0.189	0.050
-299.764	-200.000	-0.036	0.176
-298.749	-109.167	0.065	0.014
-297.735	-154.902	0.199	-0.013
-296.720	-146.069	0.131	-0.011
-295.705	-45.549	0.398	-0.194
-294.691	800.000	0.086	-0.281
-293.676	-146.097	0.141	0.012
-292.662	-200.000	0.020	-0.129
-291.647	95.482	-0.057	0.064
-290.632	98.357	-0.129	-0.147
-289.618	52.558	-0.188	-0.177
-288.603	45.506	-0.235	-0.214
-287.589	-200.000	-0.004	0.073
-286.574	-200.000	-0.023	0.226
-285.559	-200.000	-0.007	-0.390
-284.545	12.820	-0.190	-0.145
-283.530	800.000	-0.027	-0.091
-282.516	179.342	0.125	-0.180
-281.501	-74.394	0.280	-0.100
-280.486	36.156	-0.151	-0.131
-279.472	176.987	0.075	0.108
-278.457	260.796	-0.118	-0.201
-277.443	800.000	-0.037	-0.142
-276.428	44.319	-0.082	0.075
-275.413	21.323	-0.052	-0.041
-274.399	800.000	0.030	0.095
-273.384	-60.104	0.266	-0.112
-272.370	31.216	0.263	0.223
-271.355	-200.000	-0.203	0.000
-270.340	419.152	-0.042	-0.088
-269.326	-16.173	-0.156	0.098
-268.311	800.000	0.084	0.239
-267.297	85.103	-0.127	0.137
-266.282	56.021	0.417	0.399
-265.267	270.438	0.087	0.151
-264.253	53.287	-0.031	-0.029
-263.238	71.513	0.073	-0.075
-262.224	49.742	-0.085	0.079
-261.209	163.243	0.067	-0.093
-260.195	372.574	-0.109	0.219
-259.180	26.407	0.270	0.222
-258.165	-50.383	0.074	0.035
-257.151	-47.109	-0.058	0.028
-256.136	225.076	0.229	-0.365
-255.122	285.862	-0.065	0.116
-254.107	177.732	-0.227	0.327
-253.092	-43.516	-0.148	0.074
-252.078	-200.000	-0.013	0.158
-251.063	800.000	-0.093	0.286
-250.049	-200.000	0.043	0.232
-249.034	-28.400	0.184	0.105
-248.019	-200.000	0.014	-0.260
-247.005	-20.707	0.082	-0.049
-245.990	-64.080	-0.014	-0.006
-244.976	118.660	-0.111	-0.135
-243.961	788.498	-0.020	-0.054
-242.946	-91.120	0.114	0.032
-241.932	-133.879	0.024	0.003
-240.917	-92.835	-0.217	0.060
-239.903	-140.350	0.183	-0.019
-238.888	59.647	0.330	-0.321
-237.873	-83.824	0.042	-0.013
-236.859	-200.000	-0.025	0.176
-235.844	800.000	0.092	-0.312
-234.830	-31.421	0.063	0.035
-233.815	199.063	-0.109	-0.164
-232.800	50.624	0.033	-0.031
-231.786	-200.000	0.078	-0.392
-230.771	-34.888	-0.098	-0.052
-229.757	-156.918	-0.172	-0.010
-228.742	-88.840	0.331	0.097
-227.727	-200.000	0.033	-0.270
-226.713	-194.016	0.243	-0.002
-225.698	396.923	0.097	-0.199
-224.684	-83.626	-0.188	-0.059
-223.669	26.578	0.187	-0.154
-222.655	256.719	-0.071	0.120
-221.640	219.142	0.158	0.249
-220.625	800.000	0.064	-0.253
-219.611	800.000	-0.013	-0.038
-218.596	96.415	-0.157	-0.176
-217.582	388.552	-0.073	0.148
-216.567	400.033	-0.169	0.349
-215.552	-144.886	-0.119	-0.011
-214.538	495.485	0.177	0.400
-213.523	-194.518	0.284	-0.002
-212.509	377.571	-0.050	-0.100
-211.494	-200.000	-0.003	0.277
-210.479	80.094	0.095	0.100
-209.465	-200.000	0.000	0.115
-208.450	-89.331	-0.108	0.031
-207.436	-200.000	0.016	0.371
-206.421	3.407	-0.225	-0.161
-205.406	405.134	-0.155	-0.322
-204.392	-200.000	0.022	-0.277
-203.377	-39.646	-0.099	-0.051
-202.363	-109.820	0.049	0.010
-201.348	-183.627	-0.088	0.001
-200.333	-65.708	0.186	-0.073
-199.319	-13.834	-0.318	0.202
-198.304	800.000	-0.092	0.285
-197.290	154.116	-0.193	0.260
-196.275	-200.000	-0.057	-0.318
-195.260	44.653	0.101	0.092
-194.246	512.353	-0.144	-0.331
-193.231	166.243	0.168	0.234
-192.217	14.031	-0.113	-0.086
-191.202	13.635	-0.107	0.082
-190.187	119.111	-0.217	0.264
-189.173	-70.429	0.218	0.081
-188.158	-189.225	0.289	0.003
-187.144	-85.583	0.101	-0.031
-186.129	584.549	0.115	-0.277
-185.114	-11.072	0.238	0.154
-184.100	98.387	-0.047	0.054
-183.085	65.800	-0.167	-0.167
-182.071	44.311	-0.166	0.150
-181.056	171.971	-0.160	-0.226
-180.042	21.181	0.192	-0.154
-179.027	424.617	-0.095	-0.201
-178.012	769.637	-0.144	0.385
-176.998	468.029	-0.096	0.212
-175.983	800.000	0.044	0.175
-174.969	69.074	0.205	-0.207
-173.954	-23.120	-0.178	0.105
-172.939	35.409	-0.249	0.214
-171.925	21.102	0.284	-0.226
-170.910	328.955	-0.118	-0.222
-169.896	-92.582	0.246	0.068
-168.881	163.085	0.085	-0.117
-167.866	800.000	0.059	-0.189
-166.852	90.946	-0.237	-0.261
-165.837	-152.974	0.203	0.014
-164.823	24.657	0.170	0.138
-163.808	-154.226	0.131	0.009
-162.793	291.736	0.117	0.210
-161.779	253.303	-0.063	-0.106
-160.764	-200.000	-0.460	0.002
-159.750	800.000	0.076	0.230
-158.735	-178.181	-0.154	-0.004
-157.720	100.302	-0.080	0.092
-156.706	76.220	-0.085	-0.088
-155.691	-200.000	0.020	0.323
-154.677	67.386	0.039	-0.039
-153.662	800.000	0.100	-0.286
-152.647	-170.939	0.261	-0.009
-151.633	-44.948	-0.047	0.023
-150.618	28.212	0.154	0.127
-149.604	722.221	0.136	0.356
-148.589	-69.636	-0.180	-0.068
-147.574	-200.000	-0.024	-0.132
-146.560	-98.349	0.569	0.143
-145.545	800.000	0.092	0.367
-144.531	47.761	-0.179	-0.164
-143.516	56.773	-0.266	-0.255
-142.502	64.872	0.211	-0.209
-141.487	465.600	0.065	-0.143
-140.472	155.603	0.177	-0.239
-139.458	552.144	0.033	-0.079
-138.443	-200.000	0.024	-0.246
-137.429	800.000	0.044	0.160
-136.414	247.679	-0.079	-0.132
-135.399	379.415	0.086	0.174
-134.385	-90.688	0.172	-0.049
-133.370	-155.570	-0.114	-0.007
-132.356	-200.000	0.004	-0.451
-131.341	430.822	-0.170	-0.361
-130.326	167.332	0.045	0.062
-129.312	265.798	-0.215	0.368
-128.297	-42.438	-0.420	0.210
-127.283	-147.115	-0.150	0.013
-126.268	599.774	0.078	0.189
-125.253	-200.000	-0.022	0.108
-124.239	77.357	-0.178	-0.186
-123.224	-85.785	-0.203	0.062
-122.210	-95.096	0.492	-0.130
-121.195	128.022	0.067	0.084
-120.180	800.000	0.044	0.187
-119.166	401.425	0.031	0.065
-118.151	-200.000	-0.017	-0.182
-117.137	75.530	-0.180	0.186
-116.122	-7.020	0.217	0.145
-115.107	80.046	-0.332	0.350
-114.093	148.304	-0.248	0.329
-113.078	52.410	-0.300	0.280
-112.064	4.795	0.132	0.095
-111.049	101.019	-0.257	0.293
-110.034	-56.228	0.094	0.041
-109.020	63.258	-0.164	0.161
-108.005	-200.000	0.004	-0.106
-106.991	-87.850	-0.391	-0.115
-105.976	-137.575	0.320	-0.035
-104.962	-200.000	0.050	0.427
-103.947	-200.000	-0.016	-0.078
-102.932	181.694	0.123	-0.177
-101.918	800.000	0.046	0.179
-100.903	232.957	-0.102	-0.165
-99.889	-109.953	0.088	-0.018
-98.874	126.724	0.031	0.038
-97.859	-200.000	0.023	-0.136
-96.845	-122.447	-0.022	-0.003
-95.830	22.841	-0.080	-0.064
-94.816	-112.561	0.038	-0.007
-93.801	-200.000	-0.042	-0.250
-92.786	-0.667	0.275	0.191
-91.772	58.283	-0.214	0.205
-90.757	-152.355	-0.203	0.014
-89.743	485.866	0.079	0.176
-88.728	-139.296	0.508	-0.053
-87.713	-200.000	0.012	-0.308
-86.699	398.478	0.089	0.182
-85.684	-122.038	-0.184	-0.030
-84.670	-112.398	0.056	-0.011
-83.655	-21.152	0.282	0.169
-82.640	-105.960	-0.339	0.075
-81.626	-132.977	0.281	-0.035
-80.611	-139.851	-0.078	0.008
-79.597	-107.720	0.226	0.048
-78.582	1.115	-0.282	0.198
-77.567	114.035	-0.172	0.205
-76.553	-148.937	0.179	-0.014
-75.538	-16.218	-0.206	0.128
-74.524	-121.332	0.276	0.045
-73.509	33.554	-0.113	0.096
-72.494	-18.591	0.187	0.114
-71.480	-102.584	-0.257	-0.060
-70.465	-65.441	0.047	-0.018
-69.451	-142.252	-0.210	-0.020
-68.436	-87.612	0.298	-0.088
-67.422	-77.662	0.145	0.049
-66.407	78.005	0.151	0.158
-65.392	-5.819	-0.097	0.065
-64.378	273.914	0.050	-0.086
-63.363	-86.731	-0.334	0.100
-62.349	800.000	0.064	0.233
-61.334	145.886	-1.064	-1.395
-60.319	108.051	0.617	0.719
-59.305	282.221	-0.450	-0.789
-58.290	574.808	0.570	1.361
-57.276	800.000	0.722	1.982
-56.261	-200.000	118.274	647.256
-55.246	480.221	1557.820	3454.323
-54.232	173.406	2724.377	3841.989
-53.217	104.952	2155.222	2485.374
-52.203	37.816	1586.702	1378.239
-51.188	29.436	1329.947	1105.231
-50.173	26.560	1291.824	1056.745
-49.159	52.263	1350.973	1259.481
-48.144	50.845	1364.299	1263.393
-47.130	29.442	1317.800	1095.001
-46.115	26.122	1299.735	1060.478
-45.100	25.905	1294.907	1055.223
-44.086	25.866	1292.018	1052.600
-43.071	25.791	1290.217	1050.653
-42.057	25.794	1288.131	1048.935
-41.042	25.882	1286.151	1047.791
-40.027	25.931	1284.508	1046.692
-39.013	25.727	1283.209	1044.413
-37.998	25.869	1281.309	1043.649
-36.984	25.937	1279.404	1042.443
-35.969	25.965	1277.271	1040.830
-34.954	26.024	1275.803	1039.931
-33.940	25.978	1274.490	1038.555
-32.925	26.008	1272.913	1037.403
-31.911	26.185	1270.923	1036.753
-30.896	26.112	1269.895	1035.456
-29.881	26.149	1268.665	1034.622
-28.867	26.192	1267.451	1033.840
-27.852	26.137	1265.983	1032.287
-26.838	26.137	1264.622	1031.133
-25.823	26.132	1263.390	1030.060
-24.809	26.130	1261.908	1028.798
-23.794	26.159	1260.357	1027.663
-22.779	26.123	1259.560	1026.765
-21.765	26.102	1258.122	1025.433
-20.750	26.079	1256.711	1024.113
-19.736	26.009	1255.346	1022.562
-18.721	25.921	1254.591	1021.408
-17.706	25.890	1253.371	1020.198
-16.692	26.016	1251.560	1019.394
-15.677	25.999	1250.803	1018.643
-14.663	25.863	1249.753	1016.978
-13.648	26.009	1248.505	1016.750
-12.633	25.950	1247.567	1015.609
-11.619	25.965	1246.785	1015.018
-10.604	25.916	1245.793	1013.896
-9.590	25.870	1245.488	1013.345
-8.575	25.911	1244.420	1012.668
-7.560	25.929	1243.352	1011.859
-6.546	25.832	1242.676	1010.724
-5.531	26.008	1241.416	1010.648
-4.517	25.903	1240.807	1009.524
-3.502	25.883	1240.014	1008.727
-2.487	25.955	1239.093	1008.340
-1.473	25.918	1235.011	1004.772
-0.458	24.458	1220.571	984.933
0.556	22.900	1204.025	949.385
1.571	19.215	1210.157	934.193
2.586	18.417	1224.530	940.822
3.600	18.299	1212.626	930.951
4.615	14.111	1141.652	854.901
5.629	7.239	1071.285	768.884
6.644	4.429	1053.719	742.783
7.659	4.164	1051.289	739.740
8.673	3.978	1049.659	737.644
9.688	3.950	1048.384	736.549
10.702	4.284	1046.810	736.966
11.717	8.742	1052.786	762.368
12.731	16.298	1063.294	806.113
13.746	21.158	1069.064	833.686
14.761	22.130	1069.871	838.884
15.775	21.454	1068.023	834.142
16.790	20.378	1066.577	827.807
17.804	19.835	1064.631	823.642
18.819	19.439	1064.415	821.516
19.834	19.464	1063.612	820.944
20.848	19.582	1062.573	820.628
21.863	19.327	1061.947	818.860
22.877	19.064	1061.580	817.258
23.892	19.010	1060.828	816.347
24.907	19.006	1060.122	815.716
25.921	19.040	1059.061	814.985
26.936	18.963	1057.557	813.393
27.950	19.152	1055.878	812.925
28.965	19.255	1054.471	812.252
29.980	19.322	1053.104	811.443
30.994	19.423	1052.941	811.724
32.009	19.441	1051.799	810.856
33.023	19.390	1050.858	809.818
34.038	19.225	1049.981	808.294
35.053	19.248	1048.736	807.374
36.067	19.153	1047.749	806.097
37.082	19.272	1047.410	806.325
38.096	19.503	1046.554	806.674
39.111	19.380	1045.991	805.592
40.126	19.172	1044.141	803.128
41.140	18.897	1042.649	800.627
42.155	18.716	1041.884	799.126
43.169	18.681	1040.551	797.870
44.184	18.671	1039.715	797.114
45.199	18.642	1038.949	796.318
46.213	18.999	1037.844	797.056
47.228	19.224	1036.829	797.249
48.242	19.321	1035.869	796.889
49.257	19.118	1035.217	795.377
50.271	19.269	1034.536	795.482
51.286	19.412	1033.502	795.274
52.301	19.222	1032.798	793.789
53.315	19.117	1031.582	792.302
54.330	18.996	1030.611	790.927
55.344	18.862	1029.813	789.630
56.359	18.917	1028.802	789.039
57.374	18.889	1028.024	788.243
58.388	18.714	1027.020	786.600
59.403	18.675	1026.227	785.745
60.417	18.698	1025.375	785.131
61.432	18.650	1024.622	784.265
62.447	18.658	1023.407	783.299
63.461	18.621	1023.246	782.941
64.476	18.483	1021.875	781.193
65.490	18.409	1021.158	780.236
66.505	18.547	1020.443	780.249
67.520	18.617	1020.015	780.171
68.534	18.546	1019.570	779.439
69.549	18.554	1018.354	778.477
70.563	18.510	1017.675	777.690
71.578	18.308	1016.901	776.114
72.593	18.233	1015.865	774.915
73.607	18.257	1015.308	774.532
74.622	18.218	1015.290	774.272
75.636	18.242	1014.298	773.557
76.651	18.278	1013.879	773.330
77.666	18.388	1013.243	773.273
78.680	18.424	1012.122	772.510
79.695	18.432	1011.503	772.009
80.709	18.641	1010.598	772.187
81.724	18.783	1010.147	772.416
82.739	18.804	1009.688	772.088
83.753	19.148	1009.034	773.068
84.768	19.404	1008.749	773.927
85.782	19.525	1007.980	773.811
86.797	19.451	1007.080	772.722
87.812	19.355	1005.727	771.184
88.826	19.252	1004.872	770.003
89.841	19.498	1004.005	770.366
90.855	19.420	1003.511	769.570
91.870	19.403	1003.064	769.084
92.884	19.593	1001.746	768.852
93.899	19.532	1000.741	767.740
94.914	19.509	1000.294	767.226
95.928	19.562	999.273	766.613
96.943	19.328	998.178	764.666
97.957	19.326	997.086	763.752
98.972	19.493	996.436	763.928
99.987	19.497	995.533	763.189
101.001	19.382	994.646	761.931
102.016	19.342	993.835	761.064
103.030	19.454	993.355	761.123
104.045	19.496	992.537	760.617
105.060	19.233	991.802	758.825
106.074	18.958	990.068	756.226
107.089	18.654	988.958	753.975
108.103	18.716	987.823	753.312
109.118	18.638	986.860	752.170
110.133	18.538	986.200	751.163
111.147	18.565	985.185	750.443
112.162	18.619	984.927	750.414
113.176	18.927	983.842	750.866
114.191	18.792	983.660	750.072
115.206	18.762	983.037	749.401
116.220	18.628	982.084	748.025
117.235	18.719	981.343	747.789
118.249	18.737	980.409	747.089
119.264	18.568	979.472	745.574
120.279	18.492	978.621	744.531
121.293	18.472	977.511	743.535
122.308	18.365	976.630	742.336
123.322	18.310	975.657	741.292
124.337	18.354	974.228	740.331
125.352	18.336	973.408	739.563
126.366	18.354	972.331	738.755
127.381	18.385	971.774	738.400
128.395	18.540	970.944	738.373
129.410	18.485	970.079	737.412
130.424	18.601	969.378	737.313
131.439	18.772	968.933	737.644
132.454	18.695	968.365	736.817
133.468	18.781	967.521	736.479
134.483	18.758	966.260	735.354
135.497	18.891	965.693	735.428
136.512	18.842	964.872	734.526
137.527	18.850	964.103	733.911
138.541	18.885	963.436	733.487
139.556	18.844	963.142	733.023
140.570	19.164	962.355	733.725
141.585	19.340	961.753	733.949
142.600	19.363	960.984	733.398
143.614	19.407	960.036	732.795
144.629	19.445	959.569	732.533
145.643	19.302	958.532	731.071
146.658	19.180	957.208	729.479
147.673	19.048	956.222	728.106
148.687	18.800	955.530	726.464
149.702	18.932	954.353	726.064
150.716	18.877	953.487	725.108
151.731	18.783	953.172	724.411
152.746	18.932	952.217	724.247
153.760	19.079	951.088	723.940
154.775	19.147	950.993	724.094
155.789	19.125	950.389	723.474
156.804	19.092	949.896	722.897
157.819	19.147	949.560	722.810
158.833	19.434	948.762	723.341
159.848	19.533	948.084	723.175
160.862	19.325	946.639	721.140
161.877	18.954	945.543	718.691
162.892	18.815	944.260	717.072
163.906	18.833	943.538	716.533
164.921	18.827	942.841	715.916
165.935	18.938	941.881	715.586
166.950	19.032	941.152	715.362
167.964	19.121	939.920	714.729
168.979	18.868	939.330	713.169
169.994	18.963	938.126	712.584
171.008	19.095	937.598	712.668
172.023	19.375	937.308	713.544
173.037	19.436	936.570	713.169
174.052	19.278	935.902	711.946
175.067	18.878	935.115	709.633
176.081	18.758	934.396	708.531
177.096	18.853	933.782	708.393
178.110	19.026	932.947	708.409
179.125	19.085	932.277	708.081
180.140	19.079	931.909	707.714
181.154	19.203	931.993	708.225
182.169	19.369	931.301	708.317
183.183	19.540	930.693	708.494
184.198	19.414	929.766	707.208
185.213	19.485	928.981	706.841
186.227	19.468	928.519	706.356
187.242	19.599	927.957	706.404
188.256	19.782	927.706	706.899
189.271	19.721	926.781	705.881
190.286	19.371	925.373	703.319
191.300	18.773	924.318	700.016
192.315	18.762	923.320	699.156
193.329	18.867	923.312	699.516
194.344	19.111	922.883	700.119
195.359	19.111	922.051	699.428
196.373	19.253	921.956	699.871
197.388	19.465	921.385	700.235
198.402	19.776	920.951	701.106
199.417	19.784	920.715	700.896
200.432	19.989	920.415	701.436
201.446	20.078	919.475	701.016
202.461	20.092	919.373	700.935
203.475	19.972	918.227	699.516
204.490	19.701	917.328	697.674
205.504	19.473	916.682	696.202
206.519	19.528	915.686	695.602
207.534	19.569	915.000	695.187
208.548	19.598	914.644	694.970
209.563	19.480	914.224	694.115
210.577	19.497	913.905	693.881
211.592	19.766	913.050	694.252
212.607	20.011	911.761	694.189
213.621	19.690	911.364	692.540
214.636	19.704	910.741	692.061
215.650	19.698	910.308	691.647
216.665	19.897	909.458	691.738
217.680	20.074	908.718	691.820
218.694	20.108	908.335	691.600
219.709	20.019	907.385	690.461
220.723	20.008	906.806	689.917
221.738	19.884	906.256	688.945
222.753	19.848	905.626	688.261
223.767	19.846	905.662	688.219
224.782	20.047	904.872	688.359
225.796	20.168	904.410	688.426
226.811	20.000	903.671	687.133
227.826	19.821	902.659	685.594
228.840	19.853	901.815	685.021
229.855	19.823	900.754	684.037
230.869	19.871	899.939	683.545
231.884	19.712	899.439	682.478
232.899	19.609	898.922	681.618
233.913	19.481	898.299	680.580
234.928	19.570	897.202	680.038
235.942	19.535	896.884	679.603
236.957	19.578	896.105	679.121
237.972	19.589	895.901	678.948
238.986	19.635	895.142	678.494
240.001	19.514	894.563	677.520
241.015	19.666	894.198	677.779
242.030	19.710	893.721	677.532
243.045	19.836	893.081	677.479
244.059	19.856	892.322	676.923
245.074	19.896	892.057	676.815
246.088	19.997	891.176	676.484
247.103	20.045	891.050	676.514
248.117	20.172	891.110	676.995
249.132	20.545	890.410	677.862
250.147	20.847	889.744	678.471
251.161	20.874	889.084	678.010
252.176	20.951	888.658	677.928
253.190	20.952	887.925	677.311
254.205	21.137	886.939	677.217
255.220	20.769	886.850	675.661
256.234	20.766	886.040	674.972
257.249	20.847	885.510	674.821
258.263	20.701	884.861	673.703
259.278	20.816	883.604	673.130
260.293	20.945	883.208	673.267
261.307	20.990	883.155	673.343
262.322	20.954	882.653	672.762
263.336	21.002	881.941	672.344
264.351	20.932	880.986	671.285
265.366	20.997	880.391	671.022
266.380	20.989	879.536	670.281
267.395	20.779	878.912	668.942
268.409	20.779	877.950	668.147
269.424	20.924	877.027	667.942
270.439	20.719	876.500	666.697
271.453	20.576	875.991	665.703
272.468	20.620	875.279	665.272
273.482	20.633	874.728	664.844
274.497	20.564	874.244	664.154
275.512	20.644	873.405	663.763
276.526	20.570	873.175	663.248
277.541	20.661	872.697	663.173
278.555	20.882	872.481	663.790
279.570	21.086	871.930	664.090
280.585	21.064	870.785	663.078
281.599	20.729	870.141	661.254
282.614	20.736	869.519	660.750
283.628	20.713	868.864	660.107
284.643	20.804	868.004	659.738
285.657	20.776	867.561	659.239
286.672	20.863	866.579	658.761
287.687	20.852	866.148	658.337
288.701	20.899	865.474	657.941
289.716	20.721	865.428	657.178
290.730	20.841	864.795	657.090
291.745	20.908	864.437	657.011
292.760	21.008	863.940	656.953
293.774	21.200	863.077	656.964
294.789	20.954	862.340	655.417
295.803	20.766	861.829	654.265
296.818	20.818	861.039	653.804
297.833	20.905	859.983	653.271
298.847	20.735	859.728	652.380
299.862	20.776	859.043	651.958
300.876	21.058	858.669	652.671
301.891	21.224	858.547	653.141
302.906	21.227	858.013	652.686
303.920	21.387	857.534	652.863
304.935	21.470	857.050	652.746
305.949	21.358	855.957	651.441
306.964	21.132	855.422	650.133
307.979	21.274	854.586	649.969
308.993	21.215	854.512	649.633
310.008	21.339	854.207	649.805
311.022	21.278	853.433	648.934
312.037	21.081	852.128	647.153
313.052	20.953	851.639	646.249
314.066	20.804	851.376	645.440
315.081	20.899	850.604	645.149
316.095	20.840	850.157	644.535
317.110	20.740	849.717	643.777
318.125	20.858	848.790	643.454
319.139	20.867	848.533	643.234
320.154	20.840	848.396	642.974
321.168	20.964	847.224	642.488
322.183	21.065	846.655	642.369
323.197	21.113	846.203	642.145
324.212	21.128	845.666	641.735
325.227	20.974	845.157	640.728
326.241	20.844	844.554	639.737
327.256	21.005	843.515	639.483
328.270	20.915	843.590	639.154
329.285	20.866	842.916	638.407
330.300	20.877	842.386	637.989
331.314	21.044	841.603	637.952
332.329	21.280	841.514	638.691
333.343	21.287	841.001	638.268
334.358	21.387	840.888	638.490
335.373	21.395	840.422	638.112
336.387	21.307	840.261	637.609
337.402	21.619	839.896	638.417
338.416	21.652	839.959	638.528
339.431	21.760	839.675	638.647
340.446	21.914	838.937	638.589
341.460	21.946	838.387	638.230
342.475	21.869	838.414	637.917
343.489	21.937	837.898	637.713
344.504	22.125	837.358	637.930
345.519	21.979	837.532	637.475
346.533	21.911	836.496	636.384
347.548	21.649	835.631	634.719
348.562	21.545	834.655	633.546
349.577	21.345	834.114	632.354
350.592	21.288	833.676	631.760
351.606	21.388	832.662	631.299
352.621	21.320	832.058	630.540
353.635	21.510	831.438	630.700
354.650	21.663	830.631	630.581
355.665	21.568	830.409	630.014
356.679	21.682	829.678	629.816
357.694	21.665	829.380	629.473
358.708	21.683	828.436	628.763
359.723	21.685	828.004	628.387
360.738	21.820	827.242	628.238
361.752	21.734	826.529	627.332
362.767	21.885	826.592	627.866
363.781	22.204	826.269	628.706
364.796	22.426	825.743	629.044
365.810	22.384	825.541	628.682
366.825	22.612	824.678	628.784
367.840	22.338	824.455	627.581
368.854	22.004	824.345	626.252
369.869	21.890	823.635	625.248
370.883	21.856	823.030	624.613
371.898	22.083	823.022	625.362
372.913	22.264	822.281	625.386
373.927	22.192	821.804	624.714
374.942	22.068	821.523	624.003
375.956	22.341	821.080	624.582
376.971	22.378	820.595	624.287
377.986	22.548	820.349	624.649
379.000	22.656	819.481	624.315
380.015	22.481	818.641	623.001
381.029	22.553	818.196	622.861
382.044	22.507	817.856	622.383
383.059	22.649	816.984	622.167
384.073	22.365	816.408	620.673
385.088	22.097	815.588	619.050
386.102	21.908	815.374	618.167
387.117	22.069	814.407	617.946
388.132	22.022	814.177	617.552
389.146	22.174	813.670	617.645
390.161	22.485	813.122	618.267
391.175	22.367	813.119	617.796
392.190	22.181	812.192	616.383
393.205	22.115	811.488	615.563
394.219	21.980	811.739	615.228
395.234	21.944	810.672	614.239
396.248	21.940	810.118	613.748
397.263	21.852	809.680	613.057
398.278	21.778	809.410	612.537
399.292	21.729	808.806	611.857
400.307	21.866	808.060	611.714
401.321	21.958	808.139	612.041
402.336	21.999	807.591	611.716
403.350	22.185	807.064	611.911
404.365	22.318	807.112	612.354
405.380	22.570	806.133	612.436
406.394	22.596	806.223	612.540
407.409	22.705	805.671	612.443
408.423	22.782	805.602	612.603
409.438	22.723	805.080	611.947
410.453	22.792	804.459	611.661
411.467	22.784	804.210	611.391
412.482	23.029	804.055	612.067
413.496	23.100	803.604	611.915
414.511	23.011	803.041	611.125
415.526	23.093	802.214	610.723
416.540	22.869	802.017	609.746
417.555	22.841	801.408	609.134
418.569	23.046	800.975	609.455
419.584	22.852	800.946	608.714
420.599	22.826	800.457	608.196
421.613	165.450	1371.094	1796.821
422.628	143.808	1454.212	1796.896
