DTS Sentinel unit serial number:	SN413079Multiplexer serial number:	ORYXHardware model number:	OX4-SRSoftware version number:	ORYX F/W v4.00 Oryx Data Collector v3.7.2.0data status	okinstallation	princeton_trtdifferential loss correction	single-endedforward channel	channel 1reverse channel	N/Adate	2019/09/11time	06:00:11forward acquisition time	60.00reverse acquisition time	0.00gamma	496.2192k internal	0.2331k external	0.2331temperature offset calibration	0.9922default loss term (dB/km)	0.3790temperature slope calibration	1.0000multiplexer offset coefficient	1.0000multiplexer slope coefficient	1.0000fibre end	0.00T internal ref (°C)	29.44T ext. ref 1 (°C)	-0.22T ext. ref 2 (°C)	23.50length (m)	temperature (°C)	Stokes	anti-Stokes-747.200	-200.000	0.001	-0.008
-746.185	19.024	0.182	-0.147
-745.171	800.000	-0.209	-0.599
-744.156	-200.000	-0.011	0.073
-743.142	-120.380	0.373	-0.064
-742.127	43.064	-0.207	0.190
-741.112	183.470	0.099	0.148
-740.098	-200.000	-0.031	0.292
-739.083	365.922	-0.058	0.117
-738.069	30.236	-0.229	0.197
-737.054	800.000	-0.051	0.176
-736.039	800.000	0.052	-0.176
-735.025	-84.832	0.429	-0.136
-734.010	-21.126	-0.186	-0.114
-732.996	-52.124	-0.110	0.051
-731.981	626.940	-0.037	0.093
-730.966	-105.682	0.113	0.026
-729.952	-121.965	0.112	-0.019
-728.937	-51.491	-0.073	-0.034
-727.923	206.443	0.063	0.098
-726.908	-200.000	-0.038	-0.249
-725.894	319.386	-0.135	-0.257
-724.879	-33.386	-0.294	0.163
-723.864	-200.000	-0.011	-0.068
-722.850	-200.000	-0.167	0.001
-721.835	800.000	0.041	-0.122
-720.821	-200.000	0.024	-0.347
-719.806	-149.719	-0.379	-0.030
-718.791	-158.131	-0.246	0.014
-717.777	800.000	0.090	-0.301
-716.762	18.717	-0.065	-0.053
-715.748	-14.389	-0.020	0.013
-714.733	-25.756	-0.132	-0.078
-713.718	47.972	0.101	0.095
-712.704	-23.302	0.101	0.061
-711.689	-59.519	0.161	0.069
-710.675	278.151	-0.064	0.115
-709.660	80.688	0.212	-0.230
-708.645	-74.311	0.475	-0.173
-707.631	800.000	0.009	0.032
-706.616	-67.206	-0.327	-0.129
-705.602	252.272	-0.064	-0.109
-704.587	-200.000	0.022	-0.249
-703.572	-200.000	0.028	0.214
-702.558	-200.000	0.015	0.171
-701.543	-2.886	-0.115	0.081
-700.529	652.285	0.049	0.126
-699.514	-200.000	-0.053	-0.438
-698.499	-129.208	-0.226	-0.032
-697.485	-10.310	0.131	0.088
-696.470	-81.322	-0.179	-0.059
-695.456	-200.000	-0.021	-0.113
-694.441	-39.941	0.067	-0.035
-693.426	-200.000	0.015	-0.339
-692.412	-1.748	0.292	0.207
-691.397	23.630	-0.113	0.094
-690.383	-200.000	0.006	0.070
-689.368	-4.661	0.109	-0.076
-688.354	800.000	-0.035	-0.134
-687.339	800.000	0.117	-0.341
-686.324	75.572	-0.290	0.308
-685.310	32.570	0.151	-0.131
-684.295	-117.459	0.167	0.030
-683.281	75.140	-0.062	-0.065
-682.266	-53.150	-0.290	-0.134
-681.251	800.000	-0.010	0.038
-680.237	276.308	-0.049	-0.088
-679.222	244.430	-0.092	0.155
-678.208	-200.000	0.007	-0.057
-677.193	-44.711	0.082	-0.041
-676.178	473.466	0.125	0.282
-675.164	-200.000	0.070	0.370
-674.149	92.299	-0.202	-0.229
-673.135	-27.663	-0.091	-0.053
-672.120	-200.000	-0.036	-0.307
-671.105	57.666	0.235	-0.230
-670.091	-85.023	0.276	-0.087
-669.076	66.395	-0.100	-0.102
-668.062	-70.506	-0.141	0.053
-667.047	-77.910	0.085	-0.029
-666.032	-70.648	0.080	0.030
-665.018	800.000	-0.052	-0.166
-664.003	74.855	0.062	-0.066
-662.989	-93.897	0.113	-0.031
-661.974	85.249	0.112	0.123
-660.959	800.000	-0.096	0.313
-659.945	312.846	-0.054	0.102
-658.930	-103.630	-0.193	-0.045
-657.916	-42.814	0.247	0.126
-656.901	260.433	0.059	0.101
-655.886	150.711	-0.215	-0.293
-654.872	27.748	0.168	-0.142
-653.857	800.000	-0.016	0.068
-652.843	800.000	0.047	-0.183
-651.828	136.046	0.071	0.092
-650.814	800.000	0.101	-0.303
-649.799	166.149	-0.150	0.213
-648.784	-117.715	0.173	-0.031
-647.770	-200.000	-0.068	-0.412
-646.755	-15.359	-0.341	-0.219
-645.741	800.000	-0.024	0.099
-644.726	243.318	0.119	0.200
-643.711	-118.432	0.110	-0.019
-642.697	-34.327	0.096	0.053
-641.682	292.195	-0.053	0.097
-640.668	-200.000	-0.017	-0.088
-639.653	800.000	0.087	-0.302
-638.638	53.908	0.180	-0.174
-637.624	-11.355	0.244	-0.161
-636.609	10.326	0.252	-0.192
-635.595	-200.000	-0.054	-0.263
-634.580	-55.274	-0.149	-0.067
-633.565	76.786	0.056	0.060
-632.551	19.981	-0.083	-0.067
-631.536	225.139	-0.066	-0.107
-630.522	-50.510	0.134	0.063
-629.507	-92.513	0.182	-0.051
-628.492	-30.959	0.246	-0.139
-627.478	3.798	-0.234	0.171
-626.463	-13.882	0.042	-0.027
-625.449	179.887	-0.118	0.173
-624.434	220.039	0.111	0.179
-623.419	117.699	0.248	-0.306
-622.405	-49.141	0.266	0.127
-621.390	-121.384	0.163	0.027
-620.376	-200.000	-0.066	-0.354
-619.361	537.383	-0.100	-0.237
-618.346	-76.953	0.048	0.017
-617.332	321.583	-0.120	0.230
-616.317	-40.952	-0.196	-0.102
-615.303	84.330	-0.146	0.160
-614.288	-147.064	-0.249	0.021
-613.273	74.997	0.235	0.248
-612.259	800.000	-0.016	0.047
-611.244	-164.674	0.178	-0.008
-610.230	-54.875	0.172	0.078
-609.215	92.984	0.160	-0.181
-608.201	211.214	-0.053	-0.083
-607.186	800.000	0.079	-0.284
-606.171	87.540	-0.031	-0.034
-605.157	800.000	-0.054	-0.203
-604.142	-57.784	-0.091	0.040
-603.128	800.000	0.046	0.190
-602.113	-10.831	-0.242	-0.160
-601.098	395.053	-0.082	0.171
-600.084	-15.763	0.099	-0.063
-599.069	4.534	-0.239	-0.176
-598.055	183.648	-0.122	0.181
-597.040	-18.526	-0.231	-0.144
-596.025	29.332	-0.052	0.044
-595.011	800.000	-0.078	0.270
-593.996	7.434	-0.358	-0.268
-592.982	-88.023	0.336	0.101
-591.967	800.000	0.030	-0.131
-590.952	164.399	-0.070	-0.098
-589.938	2.301	-0.122	0.088
-588.923	350.512	0.189	0.374
-587.909	402.596	0.068	0.142
-586.894	-200.000	-0.016	-0.245
-585.879	-71.677	0.357	-0.133
-584.865	16.253	-0.146	0.115
-583.850	-104.807	-0.458	0.105
-582.836	800.000	-0.046	0.129
-581.821	-200.000	0.009	0.140
-580.806	40.712	-0.138	0.125
-579.792	8.734	0.082	-0.062
-578.777	511.982	0.159	-0.371
-577.763	-38.234	0.095	-0.050
-576.748	-47.083	-0.096	-0.047
-575.733	800.000	0.021	-0.088
-574.719	10.576	-0.233	-0.178
-573.704	-84.359	0.104	-0.033
-572.690	-200.000	-0.009	-0.054
-571.675	27.404	0.190	-0.160
-570.661	-39.313	0.242	0.127
-569.646	-200.000	0.001	-0.039
-568.631	-169.096	0.206	0.008
-567.617	-200.000	0.001	-0.234
-566.602	205.514	-0.053	-0.082
-565.588	-200.000	0.078	0.458
-564.573	-58.589	-0.065	-0.028
-563.558	-111.896	0.046	-0.009
-562.544	344.463	0.192	0.377
-561.529	-63.657	-0.190	-0.078
-560.515	-103.979	-0.186	-0.043
-559.500	527.478	0.053	-0.125
-558.485	-57.189	-0.082	-0.036
-557.471	-200.000	-0.025	-0.233
-556.456	-200.000	0.077	-0.409
-555.442	-200.000	0.023	-0.160
-554.427	-121.992	0.202	0.033
-553.412	-20.360	-0.251	0.154
-552.398	26.283	0.107	0.089
-551.383	206.369	0.191	0.296
-550.369	15.722	-0.049	0.038
-549.354	602.078	0.117	0.290
-548.339	-86.214	0.199	-0.061
-547.325	-46.276	-0.174	-0.086
-546.310	-94.159	-0.117	0.032
-545.296	-0.939	-0.045	-0.032
-544.281	-66.897	0.255	0.101
-543.266	308.748	0.050	-0.093
-542.252	-200.000	-0.015	-0.474
-541.237	-200.000	0.047	0.226
-540.223	84.376	0.148	-0.161
-539.208	-200.000	0.013	-0.304
-538.193	-113.929	-0.318	0.062
-537.179	718.565	-0.051	0.135
-536.164	-165.974	-0.319	0.014
-535.150	-103.052	-0.240	0.057
-534.135	800.000	-0.052	0.214
-533.121	723.858	-0.062	-0.164
-532.106	-47.618	0.134	-0.065
-531.091	-200.000	0.020	-0.222
-530.077	-200.000	0.017	-0.135
-529.062	-49.452	-0.136	0.065
-528.048	800.000	-0.042	-0.118
-527.033	-79.811	-0.258	-0.087
-526.018	-82.720	0.046	0.015
-525.004	-9.557	0.201	0.134
-523.989	-66.791	-0.403	0.159
-522.975	46.872	0.111	0.103
-521.960	-153.865	0.170	-0.012
-520.945	800.000	-0.022	-0.086
-519.931	-148.476	-0.168	-0.014
-518.916	421.308	0.085	-0.182
-517.902	-62.834	0.062	0.025
-516.887	210.172	0.017	0.026
-515.872	117.274	-0.198	-0.243
-514.858	359.661	-0.069	-0.137
-513.843	800.000	-0.071	0.222
-512.829	499.622	0.087	0.199
-511.814	-200.000	0.003	-0.081
-510.799	72.864	-0.372	-0.388
-509.785	155.217	0.149	-0.205
-508.770	-26.798	-0.077	0.045
-507.756	800.000	0.035	0.130
-506.741	-63.098	0.165	0.068
-505.726	-29.302	0.283	-0.162
-504.712	-132.238	0.275	-0.036
-503.697	-81.151	0.272	0.090
-502.683	-200.000	0.039	0.192
-501.668	800.000	0.041	-0.130
-500.653	9.582	-0.239	-0.180
-499.639	163.390	0.067	-0.095
-498.624	-200.000	-0.046	-0.291
-497.610	-54.384	-0.205	-0.093
-496.595	287.691	0.077	-0.139
-495.581	-71.585	-0.156	-0.058
-494.566	-90.619	0.045	-0.013
-493.551	67.365	-0.256	0.260
-492.537	118.851	0.068	-0.084
-491.522	800.000	-0.066	0.240
-490.508	443.179	-0.138	0.301
-489.493	142.864	-0.213	0.282
-488.478	-144.143	0.167	0.016
-487.464	117.688	0.174	0.214
-486.449	-75.058	0.129	0.046
-485.435	-200.000	0.020	-0.093
-484.420	-96.999	0.192	-0.050
-483.405	800.000	-0.016	-0.059
-482.391	-200.000	0.002	-0.194
-481.376	224.679	0.115	0.185
-480.362	204.288	-0.169	-0.262
-479.347	800.000	-0.074	0.226
-478.332	120.354	0.079	-0.097
-477.318	-200.000	-0.032	-0.183
-476.303	11.852	0.183	0.140
-475.289	-172.708	-0.193	0.006
-474.274	800.000	0.052	-0.177
-473.259	311.269	-0.151	-0.281
-472.245	-200.000	-0.026	0.163
-471.230	800.000	-0.040	0.113
-470.216	162.931	0.271	0.379
-469.201	-74.905	0.338	0.121
-468.186	213.906	-0.042	0.066
-467.172	291.008	0.064	-0.116
-466.157	81.146	0.115	-0.124
-465.143	-65.385	0.235	0.094
-464.128	-200.000	0.010	-0.193
-463.113	404.180	0.094	-0.196
-462.099	292.664	0.105	-0.190
-461.084	373.002	-0.117	-0.237
-460.070	29.861	-0.115	0.097
-459.055	742.635	-0.180	0.482
-458.040	307.066	0.205	-0.380
-457.026	-104.380	-0.243	-0.056
-456.011	28.758	0.261	-0.220
-454.997	800.000	0.074	0.241
-453.982	-104.861	0.352	0.081
-452.968	188.228	-0.310	0.460
-451.953	-200.000	-0.005	0.043
-450.938	-3.543	0.067	0.047
-449.924	-79.320	-0.311	-0.105
-448.909	-200.000	0.038	-0.189
-447.895	800.000	-0.096	-0.264
-446.880	-102.198	0.464	0.111
-445.865	800.000	0.091	0.322
-444.851	-186.323	-0.265	0.004
-443.836	800.000	0.050	-0.188
-442.822	-30.081	0.035	0.020
-441.807	202.016	0.084	-0.128
-440.792	-77.221	-0.213	0.074
-439.778	800.000	0.061	0.195
-438.763	-200.000	-0.023	0.343
-437.749	515.794	0.063	-0.147
-436.734	-115.377	-0.129	0.024
-435.719	-93.134	-0.225	0.062
-434.705	-200.000	0.008	0.066
-433.690	-87.695	0.122	-0.036
-432.676	400.275	-0.090	-0.188
-431.661	-200.000	-0.002	0.068
-430.646	-188.782	-0.216	0.003
-429.632	-200.000	0.120	-0.589
-428.617	-142.107	-0.328	0.032
-427.603	800.000	-0.075	0.269
-426.588	212.816	-0.186	0.293
-425.573	-24.211	-0.283	0.168
-424.559	-200.000	-0.004	0.111
-423.544	800.000	0.008	-0.027
-422.530	-79.233	0.045	0.015
-421.515	-142.753	-0.182	0.018
-420.500	-131.446	0.221	0.029
-419.486	-86.172	-0.133	0.041
-418.471	-38.034	-0.199	0.105
-417.457	-125.265	-0.223	0.034
-416.442	140.219	-0.247	-0.324
-415.428	-200.000	-0.016	-0.104
-414.413	-71.181	0.085	0.032
-413.398	598.538	0.022	-0.054
-412.384	800.000	-0.073	0.221
-411.369	256.111	0.195	0.333
-410.355	120.666	0.152	0.188
-409.340	-24.480	0.417	0.247
-408.325	295.215	0.020	0.037
-407.311	-60.174	0.379	0.161
-406.296	246.543	-0.178	0.298
-405.282	143.797	0.019	0.025
-404.267	657.649	0.104	-0.265
-403.252	-8.009	-0.218	0.146
-402.238	-3.587	0.126	0.087
-401.223	-200.000	-0.012	0.336
-400.209	-200.000	0.047	0.210
-399.194	-143.682	-0.319	-0.030
-398.179	-200.000	-0.036	0.248
-397.165	-27.101	-0.247	0.143
-396.150	-87.359	0.260	-0.078
-395.136	-5.263	-0.120	0.082
-394.121	19.221	-0.132	-0.105
-393.106	-200.000	0.010	-0.122
-392.092	-200.000	0.012	0.284
-391.077	184.468	0.107	0.157
-390.063	-5.139	-0.089	-0.061
-389.048	-200.000	-0.009	-0.278
-388.033	-200.000	0.007	-0.214
-387.019	-23.340	0.273	0.163
-386.004	-200.000	0.020	-0.303
-384.990	335.526	-0.067	0.128
-383.975	415.646	0.081	0.172
-382.960	464.635	0.062	0.137
-381.946	800.000	0.112	-0.337
-380.931	-7.053	-0.287	0.193
-379.917	-23.789	0.255	-0.151
-378.902	-97.532	-0.317	-0.082
-377.888	603.321	-0.073	0.179
-376.873	800.000	0.072	0.262
-375.858	800.000	0.129	-0.389
-374.844	-200.000	0.029	-0.135
-373.829	669.510	0.100	-0.256
-372.815	-6.279	-0.402	-0.272
-371.800	800.000	-0.062	0.206
-370.785	154.643	-0.104	0.141
-369.771	-200.000	0.033	-0.193
-368.756	-162.944	0.049	-0.002
-367.742	-131.653	-0.317	0.041
-366.727	74.776	0.320	0.334
-365.712	3.854	0.186	-0.135
-364.698	-29.000	-0.260	0.148
-363.683	21.398	0.244	0.197
-362.669	40.243	-0.223	0.199
-361.654	-154.654	-0.170	0.011
-360.639	800.000	-0.060	-0.180
-359.625	-200.000	-0.015	0.187
-358.610	-200.000	-0.009	0.198
-357.596	64.064	0.219	0.219
-356.581	-115.712	-0.161	0.030
-355.566	-133.686	-0.132	-0.016
-354.552	-61.538	0.221	0.092
-353.537	5.356	0.082	-0.060
-352.523	-151.294	-0.285	0.021
-351.508	112.769	-0.041	-0.049
-350.493	675.241	-0.075	0.194
-349.479	800.000	-0.098	0.338
-348.464	-111.582	-0.085	-0.017
-347.450	-200.000	-0.038	-0.310
-346.435	-77.743	-0.038	-0.013
-345.420	9.645	-0.215	0.162
-344.406	342.489	0.070	0.136
-343.391	-93.263	0.079	-0.022
-342.377	-102.347	0.129	-0.031
-341.362	-110.859	-0.288	-0.059
-340.348	602.203	-0.020	-0.048
-339.333	231.652	-0.211	-0.343
-338.318	-200.000	-0.025	-0.122
-337.304	-6.001	0.145	-0.098
-336.289	-200.000	0.016	-0.156
-335.275	-57.065	0.198	-0.087
-334.260	-200.000	-0.002	-0.133
-333.245	-133.169	-0.016	-0.002
-332.231	-170.722	0.231	0.008
-331.216	126.185	0.144	-0.181
-330.202	-97.802	0.328	-0.084
-329.187	800.000	-0.048	0.201
-328.172	206.713	0.135	0.208
-327.158	538.950	0.048	-0.113
-326.143	107.030	-0.302	-0.356
-325.129	-200.000	-0.028	0.137
-324.114	55.145	-0.267	0.255
-323.099	248.016	-0.128	0.214
-322.085	-17.909	0.215	0.134
-321.070	-200.000	0.056	-0.363
-320.056	800.000	-0.039	0.121
-319.041	-200.000	0.050	0.310
-318.026	156.716	0.162	0.221
-317.012	246.500	0.012	0.020
-315.997	-73.635	0.185	-0.067
-314.983	-22.803	-0.195	-0.116
-313.968	-172.356	0.216	-0.007
-312.953	-200.000	0.072	-0.396
-311.939	183.458	-0.140	0.204
-310.924	283.762	-0.105	-0.188
-309.910	-44.326	-0.092	0.046
-308.895	611.466	0.121	-0.299
-307.880	139.162	-0.248	0.323
-306.866	13.287	0.166	-0.127
-305.851	-200.000	0.010	0.182
-304.837	-37.932	0.146	0.077
-303.822	481.318	0.119	-0.268
-302.807	-5.013	-0.339	-0.231
-301.793	17.911	-0.076	-0.060
-300.778	-200.000	0.002	-0.216
-299.764	-200.000	0.005	-0.343
-298.749	-35.181	-0.329	-0.177
-297.735	-41.853	-0.101	0.051
-296.720	391.773	-0.181	-0.371
-295.705	800.000	0.117	0.336
-294.691	-9.391	0.230	0.152
-293.676	55.733	-0.048	0.046
-292.662	-5.798	-0.213	0.144
-291.647	69.129	0.164	-0.167
-290.632	-200.000	0.002	0.397
-289.618	26.867	-0.164	-0.136
-288.603	559.665	-0.058	0.139
-287.589	-82.021	0.196	0.063
-286.574	-85.236	0.360	0.111
-285.559	-122.280	-0.292	0.047
-284.545	47.085	0.115	-0.106
-283.530	-200.000	-0.022	-0.167
-282.516	-93.097	-0.131	0.036
-281.501	154.728	-0.101	-0.137
-280.486	96.820	0.136	0.154
-279.472	67.899	-0.128	-0.129
-278.457	-22.852	-0.492	-0.294
-277.443	101.074	-0.108	-0.124
-276.428	26.781	0.259	0.214
-275.413	17.293	-0.037	0.029
-274.399	-56.726	-0.273	0.119
-273.384	146.192	-0.186	-0.246
-272.370	800.000	-0.030	0.112
-271.355	37.937	0.151	-0.132
-270.340	-17.672	-0.052	0.032
-269.326	484.780	0.054	0.121
-268.311	-169.304	0.272	0.010
-267.297	77.199	-0.108	0.114
-266.282	231.305	0.178	0.289
-265.267	35.182	0.197	-0.171
-264.253	86.302	0.126	0.137
-263.238	-128.840	-0.478	0.066
-262.224	800.000	-0.097	-0.288
-261.209	114.082	0.202	-0.243
-260.195	800.000	-0.054	-0.156
-259.180	214.546	0.143	0.223
-258.165	293.591	0.055	0.099
-257.151	-6.627	-0.133	0.090
-256.136	800.000	-0.092	0.327
-255.122	-200.000	-0.007	0.063
-254.107	-70.241	0.261	0.098
-253.092	-35.008	0.324	-0.175
-252.078	800.000	-0.057	0.165
-251.063	-171.555	0.109	0.004
-250.049	-127.024	-0.200	-0.029
-249.034	-200.000	0.049	0.263
-248.019	129.749	0.021	-0.026
-247.005	117.172	-0.239	0.290
-245.990	-200.000	0.018	-0.330
-244.976	-84.523	-0.127	0.040
-243.961	292.155	0.062	-0.112
-242.946	-20.142	0.079	0.048
-241.932	75.334	0.233	-0.242
-240.917	24.279	-0.192	0.157
-239.903	253.511	0.228	-0.385
-238.888	282.448	0.142	-0.251
-237.873	768.743	0.080	-0.215
-236.859	70.690	-0.166	0.169
-235.844	-43.888	-0.061	0.030
-234.830	-200.000	-0.013	-0.066
-233.815	-72.286	0.372	-0.136
-232.800	115.804	-0.145	-0.175
-231.786	10.877	0.134	-0.101
-230.771	164.965	0.057	-0.080
-229.757	-165.296	-0.476	-0.021
-228.742	269.784	-0.078	-0.136
-227.727	19.710	-0.419	-0.333
-226.713	-10.289	-0.127	0.083
-225.698	-43.812	0.303	-0.150
-224.684	-80.191	-0.461	0.152
-223.669	157.570	-0.064	0.088
-222.655	-200.000	0.015	0.097
-221.640	-57.348	0.200	-0.087
-220.625	41.607	0.232	0.207
-219.611	800.000	0.082	-0.239
-218.596	800.000	0.055	-0.191
-217.582	-200.000	0.040	0.708
-216.567	-66.076	-0.225	0.088
-215.552	-116.217	-0.256	-0.047
-214.538	-119.702	0.058	0.010
-213.523	800.000	-0.120	0.346
-212.509	-200.000	-0.006	0.274
-211.494	448.351	-0.080	0.173
-210.479	-200.000	-0.013	0.056
-209.465	1.896	-0.012	0.008
-208.450	-65.085	-0.048	-0.019
-207.436	-21.297	0.248	-0.150
-206.421	-89.936	0.215	-0.062
-205.406	129.536	0.069	0.086
-204.392	123.737	0.174	-0.216
-203.377	354.325	-0.173	0.339
-202.363	800.000	0.129	0.414
-201.348	24.113	0.297	-0.242
-200.333	317.344	-0.113	-0.210
-199.319	-1.768	0.187	-0.129
-198.304	376.689	-0.125	-0.251
-197.290	25.043	-0.119	0.097
-196.275	-200.000	-0.029	0.235
-195.260	45.760	0.147	-0.134
-194.246	-73.554	0.347	0.125
-193.231	38.313	-0.158	-0.139
-192.217	-200.000	0.017	-0.287
-191.202	-158.587	-0.231	-0.013
-190.187	-200.000	-0.023	0.220
-189.173	81.945	0.066	-0.070
-188.158	40.677	0.072	0.064
-187.144	-108.505	-0.257	0.055
-186.129	212.810	-0.080	-0.124
-185.114	333.349	-0.202	0.385
-184.100	-84.874	0.213	-0.066
-183.085	64.384	-0.110	-0.109
-182.071	738.907	0.037	-0.098
-181.056	-7.393	0.250	-0.167
-180.042	-200.000	-0.014	-0.069
-179.027	-200.000	-0.001	0.416
-178.012	-200.000	-0.042	0.246
-176.998	-39.373	-0.018	0.009
-175.983	800.000	0.047	0.145
-174.969	-200.000	0.010	0.273
-173.954	519.120	-0.029	0.066
-172.939	-14.790	-0.188	0.119
-171.925	-87.083	0.174	-0.052
-170.910	36.160	-0.039	0.033
-169.896	-200.000	0.010	-0.130
-168.881	176.829	0.029	0.041
-167.866	-68.100	0.309	-0.118
-166.852	327.952	0.087	0.165
-165.837	-123.387	0.222	0.035
-164.823	298.919	0.131	-0.237
-163.808	-8.702	-0.195	-0.128
-162.793	800.000	0.076	-0.220
-161.779	635.023	-0.044	0.110
-160.764	-132.886	0.310	-0.039
-159.750	618.807	-0.054	-0.133
-158.735	279.969	0.108	0.190
-157.720	146.433	-0.130	0.172
-156.706	26.308	-0.244	0.200
-155.691	-77.482	0.200	-0.068
-154.677	-155.072	0.440	-0.028
-153.662	800.000	0.045	0.160
-152.647	-71.327	0.268	0.099
-151.633	166.300	0.109	-0.152
-150.618	-200.000	0.071	0.410
-149.604	-97.150	0.637	-0.164
-148.589	-4.199	0.138	0.094
-147.574	-200.000	0.007	-0.278
-146.560	-200.000	0.003	0.018
-145.545	800.000	0.042	-0.127
-144.531	35.269	0.281	-0.242
-143.516	800.000	0.084	-0.310
-142.502	168.967	-0.153	0.214
-141.487	99.773	-0.098	-0.111
-140.472	73.435	0.061	0.063
-139.458	363.549	0.135	-0.266
-138.443	-200.000	-0.032	-0.311
-137.429	46.488	-0.142	0.129
-136.414	392.836	0.018	0.036
-135.399	800.000	-0.073	-0.236
-134.385	-21.527	0.146	-0.088
-133.370	5.522	0.133	0.096
-132.356	24.744	0.262	-0.213
-131.341	-164.076	0.322	-0.015
-130.326	-200.000	0.091	0.459
-129.312	137.545	-0.070	0.090
-128.297	551.027	-0.046	0.109
-127.283	49.548	0.017	0.015
-126.268	4.563	0.212	-0.153
-125.253	-196.757	0.163	0.001
-124.239	-93.698	-0.131	0.036
-123.224	21.184	0.067	-0.054
-122.210	-115.440	-0.089	0.017
-121.195	-200.000	0.011	-0.230
-120.180	-17.236	-0.368	-0.228
-119.166	298.648	-0.075	-0.136
-118.151	-140.007	0.139	-0.014
-117.137	75.115	-0.103	-0.106
-116.122	800.000	-0.145	0.455
-115.107	800.000	-0.037	-0.126
-114.093	392.718	0.078	0.160
-113.078	90.054	0.157	-0.173
-112.064	800.000	0.090	-0.284
-111.049	108.342	-0.132	-0.154
-110.034	244.271	0.021	0.034
-109.020	32.951	0.177	0.150
-108.005	-88.266	-0.292	0.086
-106.991	-200.000	-0.004	0.139
-105.976	800.000	-0.130	-0.503
-104.962	128.504	-0.080	-0.100
-103.947	244.612	0.195	-0.321
-102.932	160.423	-0.084	0.115
-101.918	535.042	0.032	0.075
-100.903	289.017	-0.300	0.534
-99.889	-172.094	-0.156	-0.005
-98.874	503.688	0.055	0.125
-97.859	-37.320	-0.098	-0.052
-96.845	-136.018	0.208	-0.024
-95.830	198.816	-0.135	-0.204
-94.816	800.000	0.050	-0.198
-93.801	456.601	-0.075	0.163
-92.786	-77.664	-0.134	-0.046
-91.772	800.000	-0.073	-0.208
-90.757	191.829	0.060	0.089
-89.743	519.657	0.021	-0.049
-88.728	-105.942	0.409	-0.090
-87.713	188.352	-0.066	0.097
-86.699	85.003	0.256	-0.276
-85.684	105.417	0.178	0.207
-84.670	-133.520	0.374	-0.046
-83.655	-87.861	-0.187	0.055
-82.640	54.604	0.081	-0.076
-81.626	36.521	0.042	0.036
-80.611	128.197	0.170	0.212
-79.597	127.042	0.044	0.055
-78.582	223.129	0.113	-0.179
-77.567	-82.169	-0.313	0.100
-76.553	-105.244	0.104	0.023
-75.538	-15.820	0.158	0.099
-74.524	-196.102	0.149	-0.001
-73.509	-200.000	-0.095	-0.472
-72.494	-84.983	0.056	0.017
-71.480	-188.261	-0.219	-0.003
-70.465	27.563	0.089	0.074
-69.451	-110.474	-0.180	-0.037
-68.436	-59.407	0.073	0.031
-67.422	61.101	-0.183	-0.178
-66.407	-134.795	-0.038	-0.005
-65.392	276.020	-0.080	-0.139
-64.378	-10.239	-0.176	0.114
-63.363	12.113	0.195	0.147
-62.349	-99.259	-0.060	-0.015
-61.334	-36.501	-1.137	-0.600
-60.319	14.047	0.538	0.410
-59.305	-200.000	0.109	-0.769
-58.290	171.427	0.844	1.186
-57.276	215.691	0.842	1.310
-56.261	-200.000	105.984	612.911
-55.246	504.774	1508.821	3422.707
-54.232	176.032	2703.241	3844.618
-53.217	111.700	2165.793	2560.755
-52.203	41.379	1599.682	1417.661
-51.188	32.939	1333.751	1131.624
-50.173	29.781	1292.663	1078.342
-49.159	54.490	1346.496	1270.898
-48.144	54.795	1361.503	1286.821
-47.130	33.085	1316.858	1117.980
-46.115	29.579	1299.217	1082.451
-45.100	29.426	1293.893	1077.084
-44.086	29.286	1291.389	1074.137
-43.071	29.351	1288.931	1072.431
-42.057	29.279	1286.665	1070.084
-41.042	29.332	1285.477	1069.364
-40.027	29.359	1283.792	1068.075
-39.013	29.332	1281.615	1066.067
-37.998	29.326	1280.152	1064.768
-36.984	29.367	1278.397	1063.503
-35.969	29.478	1276.414	1062.451
-34.954	29.459	1274.856	1061.001
-33.940	29.432	1273.478	1059.661
-32.925	29.455	1272.429	1058.877
-31.911	29.514	1270.507	1057.573
-30.896	29.437	1269.789	1056.491
-29.881	29.514	1268.076	1055.466
-28.867	29.469	1266.365	1053.746
-27.852	29.526	1265.208	1053.062
-26.838	29.549	1263.451	1051.690
-25.823	29.508	1262.434	1050.568
-24.809	29.517	1261.022	1049.403
-23.794	29.503	1259.626	1048.121
-22.779	29.496	1258.384	1047.007
-21.765	29.565	1256.822	1046.057
-20.750	29.596	1255.571	1045.147
-19.736	29.460	1254.325	1043.302
-18.721	29.419	1253.040	1041.958
-17.706	29.402	1251.778	1040.772
-16.692	29.452	1250.977	1040.349
-15.677	29.386	1249.617	1038.805
-14.663	29.433	1248.675	1038.245
-13.648	29.408	1247.806	1037.337
-12.633	29.421	1247.004	1036.705
-11.619	29.522	1245.644	1036.102
-10.604	29.414	1245.084	1034.986
-9.590	29.386	1244.117	1033.984
-8.575	29.274	1243.683	1032.955
-7.560	29.316	1242.239	1031.951
-6.546	29.357	1241.520	1031.543
-5.531	29.402	1240.645	1031.026
-4.517	29.336	1239.882	1029.979
-3.502	29.426	1238.960	1029.675
-2.487	29.307	1238.223	1028.360
-1.473	29.348	1233.600	1024.705
-0.458	27.945	1219.513	1005.251
0.556	22.290	1202.078	969.095
1.571	18.804	1208.192	954.602
2.586	18.163	1222.225	961.999
3.600	18.063	1212.145	953.422
4.615	13.433	1141.766	873.605
5.629	4.649	1067.350	773.088
6.644	0.148	1046.970	736.278
7.659	-0.365	1044.395	731.895
8.673	-0.381	1043.341	731.014
9.688	-0.281	1041.275	729.991
10.702	0.178	1040.197	731.400
11.717	6.110	1048.747	766.338
12.731	15.109	1061.132	819.539
13.746	19.776	1066.971	846.887
14.761	20.771	1068.558	852.953
15.775	20.830	1068.073	852.779
16.790	20.572	1067.280	850.807
17.804	20.596	1066.569	850.281
18.819	20.537	1066.618	849.956
19.834	20.729	1065.954	850.291
20.848	20.770	1065.408	849.981
21.863	20.723	1064.744	849.145
22.877	20.749	1063.899	848.522
23.892	20.595	1063.448	847.338
24.907	20.659	1062.603	846.905
25.921	20.731	1061.271	846.114
26.936	20.683	1060.192	844.948
27.950	20.644	1058.760	843.545
28.965	20.364	1057.086	840.779
29.980	20.673	1054.761	840.347
30.994	20.739	1054.477	840.366
32.009	20.737	1052.885	839.013
33.023	20.496	1052.015	837.083
34.038	20.693	1051.160	837.279
35.053	20.775	1050.576	837.132
36.067	20.693	1049.597	835.886
37.082	20.821	1048.772	835.769
38.096	21.026	1048.125	836.164
39.111	20.998	1047.627	835.556
40.126	20.934	1045.593	833.555
41.140	20.511	1044.288	830.420
42.155	20.363	1042.216	827.993
43.169	20.364	1041.960	827.719
44.184	20.502	1040.527	827.168
45.199	20.430	1039.584	826.004
46.213	20.373	1039.049	825.234
47.228	20.524	1038.073	825.099
48.242	20.653	1037.022	824.804
49.257	20.877	1036.367	825.270
50.271	20.846	1035.736	824.548
51.286	20.854	1034.780	823.752
52.301	20.926	1033.362	822.890
53.315	20.571	1033.461	821.221
54.330	20.600	1032.482	820.507
55.344	20.809	1031.192	820.395
56.359	20.598	1030.401	818.700
57.374	20.515	1029.077	817.186
58.388	20.704	1028.138	817.254
59.403	20.496	1027.430	815.643
60.417	20.295	1026.902	814.208
61.432	20.592	1026.088	814.884
62.447	20.617	1025.574	814.521
63.461	20.581	1024.756	813.627
64.476	20.496	1023.597	812.242
65.490	20.382	1022.814	811.012
66.505	20.540	1021.694	810.791
67.520	20.489	1021.364	810.221
68.534	20.299	1020.042	808.213
69.549	20.078	1019.346	806.566
70.563	20.185	1018.253	806.123
71.578	20.100	1017.686	805.209
72.593	19.989	1016.268	803.500
73.607	20.091	1016.057	803.736
74.622	20.353	1015.643	804.552
75.636	20.376	1015.019	804.092
76.651	20.101	1014.378	802.243
77.666	20.173	1013.410	801.739
78.680	20.343	1012.355	801.620
79.695	20.315	1011.920	801.073
80.709	20.341	1011.465	800.761
81.724	20.381	1009.988	799.707
82.739	20.469	1009.684	799.799
83.753	20.741	1009.118	800.530
84.768	21.014	1008.196	800.982
85.782	21.066	1007.756	800.801
86.797	20.821	1006.616	798.704
87.812	20.825	1005.447	797.723
88.826	21.003	1004.061	797.366
89.841	20.967	1003.452	796.646
90.855	20.890	1002.452	795.431
91.870	20.929	1001.778	795.001
92.884	20.812	1000.582	793.450
93.899	20.742	999.394	792.119
94.914	21.022	998.395	792.533
95.928	20.846	997.452	790.912
96.943	20.486	996.726	788.635
97.957	20.316	995.584	786.890
98.972	20.230	994.352	785.459
99.987	20.438	993.618	785.750
101.001	20.582	993.127	785.941
102.016	20.689	991.910	785.391
103.030	20.708	990.704	784.457
104.045	20.415	990.206	782.668
105.060	20.175	989.516	780.976
106.074	20.565	988.117	781.557
107.089	20.910	987.342	782.421
108.103	20.774	986.287	780.908
109.118	20.534	985.210	778.910
110.133	20.605	984.483	778.586
111.147	20.189	982.972	775.460
112.162	20.207	981.852	774.588
113.176	20.482	981.513	775.482
114.191	20.299	980.428	773.738
115.206	20.081	979.462	771.938
116.220	20.033	978.764	771.104
117.235	20.354	977.082	771.137
118.249	20.131	976.921	769.952
119.264	20.073	976.078	768.961
120.279	20.230	975.527	769.154
121.293	20.146	974.703	768.066
122.308	20.350	973.247	767.754
123.322	20.171	972.933	766.649
124.337	19.970	971.613	764.653
125.352	19.586	969.204	760.996
126.366	19.623	968.353	760.421
127.381	20.384	968.474	763.797
128.395	20.751	967.976	764.952
129.410	20.673	967.038	763.802
130.424	20.670	966.196	763.055
131.439	20.722	964.977	762.251
132.454	20.640	964.186	761.201
133.468	20.648	963.089	760.302
134.483	20.770	962.359	760.193
135.497	20.812	962.201	760.184
136.512	20.788	961.296	759.298
137.527	20.881	960.352	758.891
138.541	20.898	959.144	757.941
139.556	20.987	958.238	757.546
140.570	20.862	958.156	756.871
141.585	20.985	956.557	756.073
142.600	20.915	955.651	754.985
143.614	21.161	955.026	755.490
144.629	21.147	954.745	755.142
145.643	21.119	952.938	753.526
146.658	20.830	951.777	751.292
147.673	20.895	950.394	750.417
148.687	20.774	949.802	749.359
149.702	20.702	948.885	748.262
150.716	20.673	947.752	747.178
151.731	20.851	947.202	747.443
152.746	20.913	946.793	747.319
153.760	21.112	945.801	747.321
154.775	21.247	945.253	747.399
155.789	20.941	944.453	745.392
156.804	21.061	943.400	745.008
157.819	21.130	942.830	744.787
158.833	21.157	942.175	744.318
159.848	21.362	940.749	743.999
160.862	21.031	939.598	741.618
161.877	21.059	938.995	741.193
162.892	20.968	938.249	740.153
163.906	21.146	936.669	739.598
164.921	21.024	936.136	738.594
165.935	21.111	935.083	738.064
166.950	21.005	934.350	736.972
167.964	21.053	933.293	736.276
168.979	20.813	932.628	734.673
169.994	20.929	931.367	734.103
171.008	21.093	930.685	734.192
172.023	21.140	930.034	733.810
173.037	20.882	928.630	731.555
174.052	20.741	928.122	730.496
175.067	20.729	927.421	729.834
176.081	20.863	926.981	729.982
177.096	20.826	926.104	729.071
178.110	20.667	925.136	727.582
179.125	20.392	924.338	725.741
180.140	20.563	924.149	726.242
181.154	20.710	923.802	726.517
182.169	20.944	923.583	727.257
183.183	20.958	923.619	727.280
184.198	20.944	922.312	726.130
185.213	20.986	921.639	725.709
186.227	20.944	920.596	724.649
187.242	21.101	920.101	724.850
188.256	21.005	919.570	723.968
189.271	21.227	918.623	724.077
190.286	20.815	917.675	721.560
191.300	20.220	916.141	717.830
192.315	19.633	914.038	713.691
193.329	19.442	914.486	713.188
194.344	20.507	914.492	717.532
195.359	20.928	914.844	719.482
196.373	21.016	913.740	718.915
197.388	20.935	913.240	718.121
198.402	20.778	912.936	717.174
199.417	20.903	911.968	716.865
200.432	20.532	911.365	714.803
201.446	20.457	910.610	713.837
202.461	20.637	909.551	713.681
203.475	19.691	907.841	708.402
204.490	18.971	907.044	704.767
205.504	19.882	907.245	708.593
206.519	20.572	906.817	711.018
207.534	20.675	906.614	711.220
208.548	21.061	906.133	712.353
209.563	20.808	905.408	710.687
210.577	20.785	904.558	709.864
211.592	21.151	904.246	711.050
212.607	20.970	903.786	709.890
213.621	21.163	902.770	709.813
214.636	21.126	902.204	709.155
215.650	21.035	901.489	708.158
216.665	21.279	900.783	708.534
217.680	21.011	900.349	707.041
218.694	20.715	898.330	704.195
219.709	20.720	897.884	703.805
220.723	20.860	898.026	704.418
221.738	20.937	897.071	703.919
222.753	21.074	896.170	703.701
223.767	21.008	895.968	703.217
224.782	21.276	895.430	703.812
225.796	21.189	895.237	703.247
226.811	20.529	893.737	699.352
227.826	20.038	892.067	696.012
228.840	20.366	891.606	696.904
229.855	20.343	890.936	696.229
230.869	19.817	890.384	693.626
231.884	20.362	890.430	695.786
232.899	21.098	890.769	698.937
233.913	21.001	889.715	697.660
234.928	20.900	889.117	696.729
235.942	20.948	888.124	696.077
236.957	20.483	887.376	693.574
237.972	20.647	886.890	693.787
238.986	20.845	886.064	693.870
240.001	20.747	885.547	693.014
241.015	20.879	885.098	693.124
242.030	20.773	885.003	692.567
243.045	21.024	884.091	692.789
244.059	21.170	883.741	693.036
245.074	20.944	882.965	691.466
246.088	20.688	881.524	689.266
247.103	20.878	881.493	689.931
248.117	21.300	881.660	691.673
249.132	21.552	881.050	692.129
250.147	21.700	880.563	692.273
251.161	21.823	879.639	691.970
252.176	21.826	878.997	691.414
253.190	21.876	879.096	691.627
254.205	22.012	878.349	691.513
255.220	21.910	877.773	690.597
256.234	21.745	876.897	689.199
257.249	21.596	876.192	687.999
258.263	21.692	875.462	687.740
259.278	21.878	874.730	687.833
260.293	21.782	874.453	687.181
261.307	21.741	873.225	685.992
262.322	21.588	872.384	684.676
263.336	20.701	870.273	679.493
264.351	19.859	868.691	674.915
265.366	20.055	868.559	675.517
266.380	21.241	869.083	680.489
267.395	21.586	868.221	681.098
268.409	21.421	867.995	680.220
269.424	21.655	867.801	680.918
270.439	21.547	867.379	680.106
271.453	21.798	866.635	680.435
272.468	21.859	866.226	680.292
273.482	21.971	865.572	680.150
274.497	21.530	864.385	677.453
275.512	21.257	863.495	675.636
276.526	21.501	863.643	676.635
277.541	21.827	862.837	677.207
278.555	21.440	862.130	675.099
279.570	21.074	861.849	673.405
280.585	21.480	860.953	674.209
281.599	21.484	859.850	673.304
282.614	20.823	858.799	669.880
283.628	20.936	858.443	669.976
284.643	21.233	858.013	670.723
285.657	20.822	856.943	668.248
286.672	20.568	856.153	666.599
287.687	21.247	856.003	669.028
288.701	21.350	855.203	668.737
289.716	20.976	854.256	666.507
290.730	20.825	854.298	665.902
291.745	20.631	852.819	663.950
292.760	20.928	852.957	665.135
293.774	21.862	853.353	668.949
294.789	22.372	852.833	670.426
295.803	22.260	852.006	669.290
296.818	22.270	851.416	668.804
297.833	21.715	850.622	666.011
298.847	21.648	850.262	665.418
299.862	21.986	849.699	666.199
300.876	22.237	849.570	666.992
301.891	21.941	848.619	665.064
302.906	21.604	847.425	662.796
303.920	21.701	847.182	662.913
304.935	22.110	846.883	664.168
305.949	22.108	846.203	663.567
306.964	21.904	845.479	662.172
307.979	22.013	845.182	662.291
308.993	22.199	845.232	662.973
310.008	22.371	844.308	662.839
311.022	22.042	843.307	660.754
312.037	21.799	843.131	659.647
313.052	21.758	841.893	658.463
314.066	20.765	840.546	653.627
315.081	20.451	839.886	651.879
316.095	21.477	840.130	655.856
317.110	21.754	840.199	656.890
318.125	21.039	838.640	652.938
319.139	20.047	836.830	647.765
320.154	20.036	836.792	647.638
321.168	21.018	837.065	651.460
322.183	21.475	837.267	653.266
323.197	21.684	836.890	653.697
324.212	21.786	836.866	654.002
325.227	21.895	835.979	653.655
326.241	21.886	835.299	653.033
327.256	21.793	834.793	652.231
328.270	21.673	834.013	651.118
329.285	21.347	833.149	649.175
330.300	21.325	831.908	648.070
331.314	21.538	832.075	648.933
332.329	21.806	832.061	649.858
333.343	22.135	831.257	650.392
334.358	22.141	830.779	649.981
335.373	21.993	830.705	649.317
336.387	22.418	830.450	650.633
337.402	22.421	830.151	650.353
338.416	22.393	830.151	650.192
339.431	22.463	829.129	649.590
340.446	22.650	828.984	650.108
341.460	22.515	828.305	649.023
342.475	22.355	827.816	647.992
343.489	22.473	827.524	648.143
344.504	22.811	827.227	649.093
345.519	22.809	827.142	648.960
346.533	22.910	826.670	648.907
347.548	22.910	826.048	648.360
348.562	22.798	825.573	647.519
349.577	22.778	824.941	646.893
350.592	22.745	824.208	646.139
351.606	22.759	823.545	645.613
352.621	22.721	822.281	644.428
353.635	22.543	821.661	643.233
354.650	21.763	820.376	639.327
355.665	21.122	818.661	635.603
356.679	21.540	818.602	637.022
357.694	21.860	818.376	637.954
358.708	21.707	817.919	636.983
359.723	22.158	817.858	638.517
360.738	22.426	817.720	639.328
361.752	22.454	817.302	639.048
362.767	22.729	817.001	639.752
363.781	23.051	816.602	640.550
364.796	23.163	816.030	640.451
365.810	23.279	815.511	640.404
366.825	23.199	815.108	639.744
367.840	22.726	814.171	637.243
368.854	22.499	813.271	635.664
369.869	22.464	813.301	635.503
370.883	22.575	812.582	635.287
371.898	22.359	812.336	634.261
372.913	22.505	812.110	634.553
373.927	22.755	811.289	634.752
374.942	22.716	811.282	634.552
375.956	22.872	810.616	634.536
376.971	22.958	810.359	634.589
377.986	23.174	810.002	635.028
379.000	23.292	808.997	634.605
380.015	22.874	808.755	632.863
381.029	23.005	808.091	632.757
382.044	23.007	807.693	632.395
383.059	23.100	807.080	632.192
384.073	23.120	806.324	631.616
385.088	22.993	806.361	631.136
386.102	22.828	805.370	629.715
387.117	22.934	804.822	629.607
388.132	22.403	803.763	626.832
389.146	22.187	803.036	625.443
390.161	22.489	802.795	626.274
391.175	22.922	802.186	627.282
392.190	22.579	801.323	625.333
393.205	21.212	799.301	618.861
394.219	19.777	797.534	612.359
395.234	19.842	797.568	612.560
396.248	21.470	798.843	619.253
397.263	22.869	799.647	624.777
398.278	22.791	798.970	623.916
399.292	22.551	798.383	622.554
400.307	22.459	797.983	621.862
401.321	22.597	797.572	621.976
402.336	23.043	797.740	623.622
403.350	23.166	797.833	624.076
404.365	23.508	797.495	624.960
405.380	23.818	797.069	625.662
406.394	23.922	796.184	625.279
407.409	23.773	795.753	624.361
408.423	23.625	795.548	623.626
409.438	23.787	795.265	623.916
410.453	23.805	794.643	623.438
411.467	23.801	794.165	622.994
412.482	23.835	793.915	622.861
413.496	23.865	793.638	622.694
414.511	23.806	793.046	621.968
415.526	23.934	792.062	621.589
416.540	23.610	792.125	620.449
417.555	23.398	791.458	619.132
418.569	23.398	790.963	618.690
419.584	23.425	790.169	618.107
420.599	23.277	789.633	617.118
421.613	157.625	1365.316	1798.350
422.628	136.472	1449.189	1798.433
