DTS Sentinel unit serial number:	SN413079Multiplexer serial number:	ORYXHardware model number:	OX4-SRSoftware version number:	ORYX F/W v4.00 Oryx Data Collector v3.7.2.0data status	okinstallation	princeton_trtdifferential loss correction	single-endedforward channel	channel 1reverse channel	N/Adate	2019/09/12time	07:44:11forward acquisition time	60.00reverse acquisition time	0.00gamma	496.2192k internal	0.2316k external	0.2316temperature offset calibration	1.0046default loss term (dB/km)	0.3790temperature slope calibration	1.0000multiplexer offset coefficient	1.0000multiplexer slope coefficient	1.0000fibre end	0.00T internal ref (°C)	32.78T ext. ref 1 (°C)	1.62T ext. ref 2 (°C)	28.83length (m)	temperature (°C)	Stokes	anti-Stokes-747.200	-117.336	0.164	0.030
-746.185	244.254	-0.179	0.304
-745.171	44.885	-0.199	0.185
-744.156	340.207	0.218	0.431
-743.142	-176.994	0.029	0.001
-742.127	-200.000	-0.067	0.307
-741.112	-80.440	0.139	0.047
-740.098	-31.570	0.232	0.132
-739.083	-63.915	-0.291	-0.121
-738.069	-200.000	0.008	0.471
-737.054	119.929	0.193	-0.243
-736.039	48.477	0.107	-0.101
-735.025	-200.000	0.008	-0.105
-734.010	153.569	-0.333	-0.462
-732.996	12.452	-0.134	-0.105
-731.981	-28.704	0.082	-0.048
-730.966	800.000	0.027	0.100
-729.952	-165.745	-0.268	0.012
-728.937	-171.131	-0.225	-0.008
-727.923	-89.206	-0.142	-0.042
-726.908	-188.148	-0.045	-0.001
-725.894	-133.035	-0.486	-0.062
-724.879	81.501	0.077	-0.084
-723.864	21.815	-0.300	-0.247
-722.850	-80.594	0.331	0.112
-721.835	113.549	0.153	-0.188
-720.821	93.016	0.080	-0.091
-719.806	-126.661	0.189	-0.028
-718.791	-68.997	0.023	0.009
-717.777	-8.948	-0.397	-0.269
-716.762	-119.038	0.381	0.068
-715.748	800.000	-0.018	0.081
-714.733	156.746	0.020	-0.028
-713.718	-200.000	0.029	-0.364
-712.704	39.585	-0.150	0.137
-711.689	-69.474	0.143	0.056
-710.675	-31.631	-0.078	0.045
-709.660	-167.459	0.187	0.008
-708.645	-23.506	0.216	0.131
-707.631	-47.696	-0.097	0.048
-706.616	228.812	-0.123	-0.203
-705.602	-153.652	-0.384	-0.027
-704.587	-200.000	-0.003	-0.259
-703.572	-200.000	0.108	0.492
-702.558	236.409	0.054	0.091
-701.543	344.669	0.128	-0.254
-700.529	36.763	-0.037	-0.033
-699.514	-200.000	0.030	-0.213
-698.499	-5.758	-0.138	-0.096
-697.485	99.187	0.112	0.131
-696.470	244.551	-0.058	-0.099
-695.456	24.563	0.148	-0.124
-694.441	800.000	-0.101	0.311
-693.426	-200.000	-0.003	0.283
-692.412	495.379	0.123	0.285
-691.397	-8.793	-0.089	-0.060
-690.383	34.495	0.190	-0.168
-689.368	-55.615	0.407	-0.184
-688.354	-105.713	-0.110	0.025
-687.339	3.130	0.113	0.083
-686.324	-92.590	-0.129	-0.037
-685.310	-141.787	-0.366	0.037
-684.295	475.003	0.193	-0.440
-683.281	554.139	-0.046	0.113
-682.266	-124.916	-0.349	0.054
-681.251	-2.765	-0.241	0.170
-680.237	114.084	-0.163	0.201
-679.222	-111.346	0.179	-0.037
-678.208	24.100	-0.422	-0.352
-677.193	-20.014	-0.280	0.175
-676.178	800.000	0.007	0.025
-675.164	-200.000	0.028	0.291
-674.149	-90.875	-0.136	-0.040
-673.135	218.852	0.147	0.237
-672.120	-23.888	0.275	-0.167
-671.105	-99.926	0.038	-0.010
-670.091	-180.029	-0.457	0.010
-669.076	-60.243	0.063	0.027
-668.062	384.138	-0.103	-0.214
-667.047	800.000	0.039	0.166
-666.032	-200.000	-0.041	0.195
-665.018	-80.731	-0.379	-0.127
-664.003	-135.303	-0.086	0.010
-662.989	-200.000	0.043	0.505
-661.974	-200.000	-0.028	-0.219
-660.959	-200.000	-0.038	-0.200
-659.945	-156.325	-0.244	-0.015
-658.930	606.991	-0.051	-0.129
-657.916	-82.141	0.479	-0.158
-656.901	-73.158	-0.370	0.137
-655.886	-200.000	-0.046	0.271
-654.872	-38.125	-0.155	-0.083
-653.857	164.338	0.047	0.067
-652.843	-21.318	-0.191	-0.118
-651.828	-11.224	-0.286	-0.190
-650.814	168.880	-0.168	-0.241
-649.799	157.279	-0.034	-0.048
-648.784	800.000	-0.048	-0.166
-647.770	61.863	-0.103	-0.104
-646.755	-29.531	-0.223	-0.128
-645.741	-48.691	-0.064	-0.031
-644.726	107.246	-0.060	-0.071
-643.711	-156.678	0.407	-0.025
-642.697	-19.732	0.145	0.091
-641.682	-7.753	-0.221	0.151
-640.668	-200.000	-0.011	-0.123
-639.653	82.122	-0.038	-0.041
-638.638	-116.921	0.328	-0.060
-637.624	160.375	-0.038	0.053
-636.609	800.000	0.143	-0.418
-635.595	-200.000	-0.008	0.215
-634.580	-200.000	-0.052	0.257
-633.565	-122.657	-0.316	0.052
-632.551	-124.744	0.017	-0.003
-631.536	94.129	-0.413	-0.473
-630.522	-67.842	-0.023	-0.009
-629.507	368.422	-0.147	0.300
-628.492	-113.674	-0.366	0.072
-627.478	800.000	-0.054	-0.151
-626.463	800.000	-0.066	-0.201
-625.449	11.405	0.149	0.115
-624.434	800.000	0.072	0.231
-623.419	-76.575	0.149	0.053
-622.405	214.094	0.168	-0.268
-621.390	4.687	0.184	-0.136
-620.376	585.372	0.079	-0.195
-619.361	-14.368	0.187	0.121
-618.346	26.279	-0.345	0.290
-617.332	43.495	-0.366	0.337
-616.317	-102.769	0.195	0.047
-615.303	-63.581	0.211	-0.087
-614.288	512.866	-0.099	0.232
-613.273	143.901	0.270	-0.363
-612.259	671.738	0.117	-0.305
-611.244	-96.839	0.195	0.052
-610.230	-200.000	-0.059	-0.429
-609.215	87.921	0.264	0.295
-608.201	-102.743	0.196	0.047
-607.186	393.341	-0.075	0.156
-606.171	-79.472	0.392	0.134
-605.157	-44.918	-0.443	0.223
-604.142	214.942	-0.231	-0.368
-603.128	-200.000	-0.018	0.380
-602.113	-89.327	-0.255	-0.076
-601.098	91.037	-0.287	-0.325
-600.084	-114.825	0.192	-0.037
-599.069	-200.000	0.048	-0.271
-598.055	-200.000	0.018	0.271
-597.040	-115.419	0.285	-0.054
-596.025	-200.000	-0.016	-0.180
-595.011	800.000	0.079	-0.317
-593.996	-200.000	0.170	-0.000
-592.982	-82.459	0.329	0.108
-591.967	-70.661	-0.186	-0.071
-590.952	-101.978	-0.288	0.070
-589.938	-200.000	-0.004	-0.086
-588.923	-192.379	-0.110	0.001
-587.909	-58.844	0.160	-0.070
-586.894	-36.433	0.355	0.193
-585.879	-169.330	0.364	0.014
-584.865	-151.546	0.203	0.015
-583.850	559.322	0.136	-0.330
-582.836	800.000	0.007	0.023
-581.821	800.000	-0.068	0.235
-580.806	-82.203	-0.105	-0.034
-579.792	21.416	-0.101	0.083
-578.777	-120.659	-0.028	0.005
-577.763	41.735	0.057	-0.052
-576.748	97.031	0.209	0.241
-575.733	-200.000	-0.035	-0.448
-574.719	800.000	-0.038	0.120
-573.704	73.288	0.050	0.053
-572.690	-156.692	-0.341	0.021
-571.675	287.720	0.065	-0.119
-570.661	-200.000	-0.060	-0.347
-569.646	800.000	-0.036	-0.107
-568.631	-12.940	0.111	0.073
-567.617	-5.625	0.161	-0.111
-566.602	38.182	0.281	0.252
-565.588	-195.887	-0.268	0.002
-564.573	22.856	-0.247	-0.204
-563.558	-22.089	-0.336	0.205
-562.544	-57.445	-0.237	0.105
-561.529	-45.380	0.154	0.077
-560.515	6.597	0.200	0.150
-559.500	-27.076	-0.110	0.065
-558.485	800.000	-0.054	-0.206
-557.471	-92.155	0.101	0.029
-556.456	-200.000	-0.034	-0.181
-555.442	-59.312	-0.296	0.128
-554.427	-65.691	-0.303	-0.122
-553.412	-22.570	0.423	0.257
-552.398	169.283	0.080	0.115
-551.383	800.000	-0.028	0.115
-550.369	305.523	-0.035	0.066
-549.354	-99.498	0.158	-0.040
-548.339	800.000	-0.038	0.119
-547.325	-80.075	0.161	-0.054
-546.310	-4.688	-0.193	-0.134
-545.296	121.506	0.237	0.297
-544.281	-200.000	-0.002	0.218
-543.266	-94.987	-0.408	0.111
-542.252	-140.008	0.091	-0.010
-541.237	93.623	-0.079	0.090
-540.223	130.506	-0.279	-0.359
-539.208	-155.887	0.274	-0.018
-538.193	-37.654	0.483	0.258
-537.179	20.953	-0.226	0.184
-536.164	-104.975	-0.047	0.011
-535.150	348.284	0.055	-0.109
-534.135	310.837	-0.132	0.248
-533.121	-83.861	-0.297	-0.095
-532.106	-200.000	0.026	-0.191
-531.091	202.819	-0.114	0.177
-530.077	-200.000	-0.002	0.187
-529.062	-100.854	-0.210	0.052
-528.048	-61.066	-0.220	0.093
-527.033	-83.743	0.138	-0.044
-526.018	-37.395	-0.218	0.117
-525.004	-74.402	-0.114	-0.041
-523.989	169.627	-0.091	-0.130
-522.975	-200.000	-0.067	-0.356
-521.960	-187.471	-0.288	0.004
-520.945	-115.073	-0.373	0.071
-519.931	635.343	-0.049	-0.126
-518.916	152.918	-0.187	0.256
-517.902	119.019	0.284	0.353
-516.887	36.835	0.092	-0.082
-515.872	505.053	0.052	-0.120
-514.858	-150.276	-0.265	-0.021
-513.843	-86.494	0.090	0.028
-512.829	-200.000	-0.034	0.229
-511.814	-200.000	0.006	-0.078
-510.799	359.791	0.160	-0.322
-509.785	354.949	0.068	0.136
-508.770	-0.939	0.231	-0.164
-507.756	-57.302	-0.126	-0.056
-506.741	800.000	-0.142	0.565
-505.726	-27.583	-0.164	-0.095
-504.712	347.797	-0.114	0.226
-503.697	-110.223	0.181	-0.038
-502.683	67.162	-0.096	0.098
-501.668	-117.073	-0.177	-0.032
-500.653	800.000	-0.020	-0.063
-499.639	348.476	0.083	0.165
-498.624	-142.904	-0.416	0.041
-497.610	33.601	0.113	-0.098
-496.595	800.000	-0.057	-0.213
-495.581	-93.638	-0.303	-0.084
-494.566	-95.738	0.152	-0.041
-493.551	716.475	0.116	0.310
-492.537	-200.000	0.031	0.278
-491.522	104.659	-0.089	-0.105
-490.508	-133.881	-0.107	-0.013
-489.493	-117.545	-0.176	0.032
-488.478	-200.000	-0.011	0.116
-487.464	-21.870	0.155	-0.095
-486.449	-76.592	0.227	0.080
-485.435	-56.002	0.128	-0.057
-484.420	-200.000	-0.006	-0.232
-483.405	-181.150	-0.335	0.007
-482.391	235.653	-0.195	0.323
-481.376	725.761	-0.120	-0.322
-480.362	-83.376	0.152	0.049
-479.347	150.320	-0.088	-0.120
-478.332	-70.771	0.380	0.144
-477.318	61.439	0.094	-0.094
-476.303	800.000	-0.066	-0.259
-475.289	-118.124	-0.503	-0.090
-474.274	66.845	0.446	0.455
-473.259	170.550	-0.136	-0.196
-472.245	190.211	-0.054	0.081
-471.230	-152.193	-0.237	0.017
-470.216	-200.000	-0.004	-0.250
-469.201	-26.894	-0.195	0.114
-468.186	-7.628	-0.096	-0.065
-467.172	261.954	-0.099	-0.172
-466.157	308.994	-0.072	-0.135
-465.143	-200.000	-0.076	-0.396
-464.128	30.618	0.147	-0.126
-463.113	-191.594	0.105	0.001
-462.099	800.000	-0.031	-0.116
-461.084	116.266	0.262	0.321
-460.070	133.253	-0.174	-0.226
-459.055	225.787	0.310	0.503
-458.040	-157.488	-0.180	0.011
-457.026	800.000	0.065	-0.181
-456.011	-200.000	0.034	-0.260
-454.997	139.686	0.141	-0.186
-453.982	-19.020	-0.223	-0.139
-452.968	96.519	-0.177	-0.203
-451.953	435.355	-0.134	0.292
-450.938	48.996	0.107	0.101
-449.924	245.163	-0.108	-0.182
-448.909	-200.000	-0.028	-0.210
-447.895	-120.985	0.210	-0.035
-446.880	-200.000	0.026	0.130
-445.865	-200.000	-0.001	-0.104
-444.851	-200.000	0.020	0.455
-443.836	-109.937	-0.032	0.007
-442.822	346.188	0.104	-0.205
-441.807	-86.981	0.360	0.110
-440.792	-97.202	-0.264	0.069
-439.778	-110.250	0.544	0.113
-438.763	43.612	0.097	-0.089
-437.749	287.202	-0.040	0.072
-436.734	-200.000	0.018	-0.138
-435.719	-0.979	0.080	-0.057
-434.705	-102.476	-0.228	-0.055
-433.690	367.641	-0.102	0.206
-432.676	-154.242	0.187	0.013
-431.661	14.263	-0.311	-0.242
-430.646	432.551	0.100	-0.218
-429.632	800.000	0.038	0.127
-428.617	-166.868	0.199	0.008
-427.603	-39.118	-0.330	-0.174
-426.588	723.133	0.151	0.402
-425.573	-200.000	-0.003	0.230
-424.559	800.000	-0.103	-0.297
-423.544	357.096	0.119	0.237
-422.530	135.865	-0.231	-0.301
-421.515	5.205	-0.191	-0.141
-420.500	-136.048	-0.078	0.009
-419.486	34.944	0.160	0.140
-418.471	-109.159	0.194	0.041
-417.457	-178.021	0.119	-0.003
-416.442	-62.524	-0.139	-0.058
-415.428	169.449	0.117	0.167
-414.413	20.152	0.261	0.211
-413.398	71.904	-0.063	-0.066
-412.384	-200.000	0.054	-0.451
-411.369	-48.449	-0.276	-0.133
-410.355	160.302	-0.224	0.312
-409.340	-200.000	-0.032	0.166
-408.325	-200.000	-0.012	-0.221
-407.311	-125.147	-0.332	0.051
-406.296	-200.000	-0.023	-0.208
-405.282	47.114	-0.151	-0.141
-404.267	395.394	0.053	-0.110
-403.252	34.779	0.205	0.179
-402.238	-89.342	-0.287	-0.085
-401.223	184.240	-0.179	-0.265
-400.209	409.539	-0.130	0.276
-399.194	-90.696	0.223	0.064
-398.179	501.588	-0.126	-0.290
-397.165	50.015	-0.230	0.217
-396.150	-200.000	0.002	-0.273
-395.136	-62.415	0.157	-0.065
-394.121	-200.000	-0.017	-0.235
-393.106	240.523	0.186	-0.310
-392.092	800.000	0.044	0.144
-391.077	222.542	0.151	-0.243
-390.063	-200.000	0.022	0.132
-389.048	211.003	-0.031	0.049
-388.033	-200.000	0.041	0.188
-387.019	154.566	-0.257	-0.353
-386.004	-200.000	-0.081	-0.355
-384.990	-3.630	0.162	0.112
-383.975	23.660	0.062	0.051
-382.960	261.114	-0.045	0.078
-381.946	800.000	0.022	-0.079
-380.931	800.000	-0.063	-0.192
-379.917	-167.854	-0.155	0.006
-378.902	-200.000	-0.014	0.218
-377.888	-141.348	0.316	-0.032
-376.873	-200.000	0.015	0.122
-375.858	-162.109	-0.329	0.016
-374.844	229.621	-0.080	-0.130
-373.829	119.412	0.135	-0.167
-372.815	-200.000	-0.038	0.310
-371.800	800.000	0.068	0.284
-370.785	-74.176	-0.075	-0.027
-369.771	-200.000	-0.009	-0.237
-368.756	-200.000	0.013	0.068
-367.742	-150.207	0.087	0.007
-366.727	75.532	-0.231	0.243
-365.712	-131.760	0.258	-0.034
-364.698	63.924	-0.047	-0.047
-363.683	401.161	0.060	-0.125
-362.669	-15.742	0.372	-0.237
-361.654	-200.000	-0.045	0.284
-360.639	150.694	0.062	0.084
-359.625	-173.432	-0.330	-0.010
-358.610	101.626	0.162	-0.188
-357.596	-135.913	0.421	0.049
-356.581	-90.672	-0.087	0.025
-355.566	-200.000	0.026	-0.132
-354.552	-200.000	-0.074	-0.417
-353.537	5.618	0.170	0.125
-352.523	61.411	0.258	-0.255
-351.508	-200.000	0.023	0.205
-350.493	800.000	-0.022	0.079
-349.479	800.000	0.031	0.131
-348.464	-200.000	0.039	0.419
-347.450	250.247	0.148	0.251
-346.435	19.462	0.125	-0.100
-345.420	59.706	-0.273	0.269
-344.406	14.665	0.176	0.138
-343.391	187.883	0.197	-0.293
-342.377	116.348	-0.138	-0.168
-341.362	-200.000	0.042	-0.246
-340.348	58.283	-0.121	0.118
-339.333	-94.724	-0.263	0.071
-338.318	7.339	-0.126	0.094
-337.304	-151.524	0.159	0.012
-336.289	273.277	0.027	0.047
-335.275	732.399	0.096	-0.257
-334.260	-90.261	0.271	0.078
-333.245	800.000	-0.027	0.076
-332.231	-54.546	-0.310	0.140
-331.216	162.958	0.172	0.241
-330.202	800.000	-0.121	0.420
-329.187	-200.000	-0.016	0.156
-328.172	41.540	-0.091	-0.082
-327.158	-5.048	-0.101	-0.069
-326.143	-200.000	0.001	-0.249
-325.129	592.457	-0.088	-0.218
-324.114	-38.371	-0.013	0.007
-323.099	136.718	-0.010	0.013
-322.085	-177.070	0.328	-0.008
-321.070	-200.000	-0.015	0.093
-320.056	264.866	0.070	0.121
-319.041	428.258	-0.078	0.168
-318.026	800.000	0.093	0.281
-317.012	-200.000	0.022	0.224
-315.997	-129.850	0.484	0.066
-314.983	-200.000	-0.395	-0.001
-313.968	-186.405	0.435	0.006
-312.953	-55.141	-0.106	-0.048
-311.939	173.612	0.179	-0.257
-310.924	-102.669	0.334	0.079
-309.910	-200.000	-0.033	0.397
-308.895	-117.713	0.186	0.033
-307.880	141.629	0.136	-0.179
-306.866	-200.000	0.036	-0.450
-305.851	755.442	-0.061	-0.164
-304.837	118.953	0.286	0.352
-303.822	-92.000	0.188	-0.053
-302.807	150.840	0.081	-0.110
-301.793	-4.876	-0.286	-0.197
-300.778	391.409	-0.037	0.076
-299.764	219.636	0.208	0.332
-298.749	-200.000	0.007	-0.085
-297.735	108.606	0.105	-0.124
-296.720	111.299	-0.154	0.184
-295.705	-47.274	0.224	-0.109
-294.691	-101.605	-0.370	0.089
-293.676	-116.831	-0.095	-0.017
-292.662	602.638	0.075	-0.187
-291.647	54.742	-0.369	-0.355
-290.632	488.792	0.091	0.206
-289.618	351.595	0.077	0.151
-288.603	-150.891	0.130	0.010
-287.589	-20.352	-0.104	-0.064
-286.574	59.835	0.220	-0.216
-285.559	136.761	-0.179	0.233
-284.545	-72.485	0.148	-0.055
-283.530	-200.000	-0.001	-0.223
-282.516	126.335	-0.152	0.191
-281.501	-49.574	0.279	-0.132
-280.486	-121.302	0.183	0.030
-279.472	175.460	-0.190	0.275
-278.457	773.789	-0.095	0.258
-277.443	259.687	-0.094	-0.161
-276.428	419.467	-0.096	-0.205
-275.413	-200.000	0.007	0.204
-274.399	-103.100	0.072	-0.017
-273.384	-153.393	0.030	0.002
-272.370	332.009	0.149	-0.286
-271.355	595.353	-0.051	-0.126
-270.340	417.971	0.020	0.044
-269.326	-90.966	0.505	0.145
-268.311	207.173	-0.067	0.104
-267.297	-19.844	0.206	0.126
-266.282	-200.000	-0.016	0.536
-265.267	216.671	-0.230	0.364
-264.253	-77.794	0.247	-0.085
-263.238	282.493	0.066	-0.117
-262.224	-131.624	0.180	0.023
-261.209	22.201	0.211	-0.171
-260.195	-18.922	0.231	-0.143
-259.180	-101.351	-0.033	-0.008
-258.165	177.541	-0.167	0.242
-257.151	800.000	-0.073	-0.235
-256.136	254.658	-0.008	-0.013
-255.122	-200.000	0.028	0.363
-254.107	-43.115	0.166	0.084
-253.092	800.000	0.066	-0.278
-252.078	800.000	0.062	0.238
-251.063	-99.711	-0.349	0.087
-250.049	-200.000	0.016	-0.139
-249.034	-145.658	-0.299	0.027
-248.019	367.819	-0.214	0.429
-247.005	111.629	-0.148	-0.177
-245.990	-200.000	-0.013	0.143
-244.976	-200.000	0.012	-0.065
-243.961	596.524	-0.153	0.376
-242.946	-55.404	-0.063	-0.028
-241.932	-87.076	0.227	-0.069
-240.917	-115.834	-0.242	-0.045
-239.903	59.555	0.180	0.176
-238.888	20.295	0.334	0.268
-237.873	35.522	-0.295	-0.257
-236.859	243.217	0.082	0.137
-235.844	-3.956	-0.248	0.171
-234.830	112.018	0.123	0.147
-233.815	179.731	0.032	0.047
-232.800	-200.000	-0.002	-0.128
-231.786	-158.169	0.255	-0.015
-230.771	-102.173	0.112	-0.027
-229.757	-57.914	0.206	-0.090
-228.742	-200.000	0.009	-0.111
-227.727	83.401	-0.138	-0.149
-226.713	132.868	-0.167	0.214
-225.698	-200.000	-0.184	0.001
-224.684	64.393	0.281	-0.281
-223.669	-117.109	0.218	-0.039
-222.655	-23.814	-0.180	0.107
-221.640	25.333	0.037	-0.031
-220.625	-190.160	0.255	0.003
-219.611	361.168	-0.045	-0.089
-218.596	55.206	-0.220	-0.211
-217.582	-11.528	0.112	-0.073
-216.567	-200.000	-0.006	0.385
-215.552	-12.249	-0.215	0.139
-214.538	-65.937	0.176	-0.070
-213.523	-184.192	0.037	0.001
-212.509	337.920	-0.172	-0.332
-211.494	135.534	-0.144	0.186
-210.479	95.464	0.132	0.150
-209.465	-21.884	-0.277	0.167
-208.450	63.337	-0.261	0.260
-207.436	-200.000	0.021	-0.307
-206.421	-11.260	0.148	0.097
-205.406	412.793	0.091	0.191
-204.392	181.158	0.074	-0.108
-203.377	-45.472	-0.292	-0.144
-202.363	-91.308	-0.106	0.030
-201.348	-193.187	0.204	0.002
-200.333	-23.771	-0.124	0.074
-199.319	-200.000	0.006	0.204
-198.304	800.000	-0.072	0.292
-197.290	-195.340	0.120	-0.001
-196.275	83.230	-0.169	0.183
-195.260	661.718	0.081	0.208
-194.246	-200.000	-0.377	0.000
-193.231	-110.043	0.303	-0.063
-192.217	91.346	0.181	-0.201
-191.202	-76.347	0.186	-0.065
-190.187	-121.119	-0.326	-0.054
-189.173	684.844	0.091	-0.236
-188.158	139.141	0.029	0.038
-187.144	-86.657	-0.116	0.035
-186.129	-200.000	0.026	-0.162
-185.114	164.188	0.020	-0.028
-184.100	-200.000	-0.001	0.017
-183.085	478.393	-0.100	-0.225
-182.071	121.300	-0.143	0.176
-181.056	69.714	0.230	-0.235
-180.042	357.855	-0.061	0.121
-179.027	-53.861	-0.222	-0.100
-178.012	-37.141	0.250	-0.133
-176.998	-137.002	0.223	0.025
-175.983	-200.000	0.008	-0.068
-174.969	-200.000	0.008	-0.135
-173.954	-58.943	-0.033	0.014
-172.939	487.157	0.037	0.084
-171.925	156.987	0.058	-0.079
-170.910	-64.897	-0.121	-0.049
-169.896	184.975	0.253	0.371
-168.881	636.048	0.003	-0.007
-167.866	-200.000	0.005	0.165
-166.852	-42.984	-0.197	-0.099
-165.837	3.750	0.084	-0.060
-164.823	-200.000	0.011	-0.150
-163.808	-16.851	-0.198	0.124
-162.793	-93.052	0.230	-0.064
-161.779	475.422	0.064	-0.142
-160.764	800.000	-0.032	-0.092
-159.750	119.698	0.131	-0.161
-158.735	-65.092	0.256	-0.102
-157.720	367.834	0.036	-0.073
-156.706	6.309	0.067	0.049
-155.691	-98.811	0.091	0.023
-154.677	106.961	-0.105	-0.124
-153.662	64.690	-0.197	-0.197
-152.647	92.086	-0.107	0.120
-151.633	86.508	-0.237	-0.259
-150.618	-51.755	0.105	-0.048
-149.604	-177.913	0.264	-0.006
-148.589	352.643	-0.152	-0.298
-147.574	-200.000	-0.009	0.098
-146.560	305.097	0.060	0.111
-145.545	-200.000	0.018	-0.130
-144.531	42.260	0.006	-0.005
-143.516	119.600	0.152	0.186
-142.502	-176.318	0.092	0.002
-141.487	-200.000	-0.053	0.271
-140.472	-65.733	-0.105	0.042
-139.458	81.384	0.122	0.130
-138.443	-46.328	-0.271	0.132
-137.429	-92.220	0.128	-0.036
-136.414	-37.484	-0.389	-0.205
-135.399	-156.121	0.102	0.006
-134.385	46.114	-0.060	0.055
-133.370	-114.796	0.259	0.049
-132.356	676.951	-0.137	-0.351
-131.341	216.974	0.161	-0.254
-130.326	-26.634	0.121	-0.070
-129.312	738.457	0.036	-0.097
-128.297	279.753	0.136	-0.240
-127.283	-105.646	-0.093	0.021
-126.268	-49.351	-0.180	-0.085
-125.253	800.000	-0.079	-0.266
-124.239	72.437	0.034	-0.035
-123.224	21.324	0.172	0.138
-122.210	495.132	-0.021	0.048
-121.195	377.325	-0.132	-0.268
-120.180	-59.431	-0.036	0.015
-119.166	-25.178	0.424	-0.249
-118.151	-154.879	-0.198	0.013
-117.137	-127.703	-0.247	0.035
-116.122	43.028	-0.230	-0.207
-115.107	-21.768	-0.246	-0.148
-114.093	-30.056	0.249	0.140
-113.078	170.498	0.185	-0.261
-112.064	800.000	0.055	-0.194
-111.049	-162.319	0.085	-0.004
-110.034	-200.000	-0.016	-0.442
-109.020	4.538	0.238	0.173
-108.005	-41.933	-0.046	0.023
-106.991	-120.819	-0.291	-0.048
-105.976	-132.352	-0.204	-0.026
-104.962	-127.259	-0.107	0.015
-103.947	-200.000	-0.004	-0.244
-102.932	269.729	-0.086	-0.150
-101.918	22.343	0.178	-0.144
-100.903	-38.100	0.188	-0.098
-99.889	-97.259	-0.071	-0.018
-98.874	384.589	-0.155	-0.315
-97.859	211.339	-0.075	-0.116
-96.845	800.000	0.011	0.038
-95.830	-54.068	0.157	0.070
-94.816	800.000	-0.034	-0.112
-93.801	-135.581	-0.187	-0.022
-92.786	-39.874	0.114	-0.059
-91.772	190.602	0.155	-0.229
-90.757	-200.000	-0.034	0.174
-89.743	-124.980	0.050	0.008
-88.728	398.206	0.067	0.139
-87.713	308.924	-0.063	0.117
-86.699	800.000	-0.054	0.220
-85.684	-72.707	0.371	0.135
-84.670	-106.765	0.197	0.043
-83.655	-86.487	-0.117	-0.035
-82.640	-8.723	0.304	-0.202
-81.626	-29.438	0.278	-0.157
-80.611	-97.542	-0.324	-0.083
-79.597	-200.000	-0.092	0.404
-78.582	-4.434	-0.084	0.057
-77.567	-95.008	0.188	0.050
-76.553	195.311	0.158	0.238
-75.538	84.036	-0.053	-0.057
-74.524	-200.000	-0.056	-0.286
-73.509	166.542	0.130	0.182
-72.494	-44.808	0.311	-0.153
-71.480	309.715	-0.195	-0.359
-70.465	1.229	0.193	-0.137
-69.451	-196.028	-0.108	0.001
-68.436	800.000	0.038	-0.114
-67.422	800.000	-0.057	0.205
-66.407	-4.509	-0.186	-0.127
-65.392	483.382	-0.129	0.290
-64.378	355.841	-0.017	0.033
-63.363	171.167	0.030	0.043
-62.349	159.172	0.059	0.081
-61.334	54.315	-0.919	-0.873
-60.319	147.388	0.362	0.481
-59.305	387.650	-0.288	-0.587
-58.290	236.094	0.833	1.358
-57.276	776.907	0.645	1.737
-56.261	-200.000	97.747	595.236
-55.246	546.144	1403.810	3310.294
-54.232	154.134	2589.070	3502.364
-53.217	112.682	2161.293	2580.645
-52.203	44.528	1615.814	1464.061
-51.188	36.330	1351.667	1175.036
-50.173	33.016	1310.051	1119.215
-49.159	56.129	1357.152	1299.103
-48.144	57.969	1373.733	1325.984
-47.130	36.412	1332.113	1158.340
-46.115	33.066	1313.716	1122.469
-45.100	32.789	1309.734	1117.379
-44.086	32.705	1306.878	1114.403
-43.071	32.676	1304.468	1112.131
-42.057	32.614	1302.802	1110.302
-41.042	32.679	1301.118	1109.205
-40.027	32.706	1299.937	1108.310
-39.013	32.631	1298.019	1106.194
-37.998	32.771	1295.982	1105.236
-36.984	32.772	1294.213	1103.685
-35.969	32.769	1292.461	1102.134
-34.954	32.936	1290.685	1101.548
-33.940	32.847	1289.393	1099.886
-32.925	32.824	1288.073	1098.577
-31.911	32.816	1286.590	1097.226
-30.896	32.799	1285.150	1095.856
-29.881	32.853	1283.614	1094.815
-28.867	32.857	1282.792	1094.095
-27.852	32.889	1280.946	1092.658
-26.838	32.988	1279.184	1091.685
-25.823	33.021	1277.840	1090.687
-24.809	32.834	1276.349	1088.293
-23.794	32.815	1275.565	1087.468
-22.779	32.808	1274.246	1086.263
-21.765	32.811	1273.127	1085.283
-20.750	32.871	1271.556	1084.244
-19.736	32.771	1270.398	1082.642
-18.721	32.736	1269.220	1081.391
-17.706	32.704	1268.331	1080.408
-16.692	32.825	1266.586	1079.573
-15.677	32.714	1265.854	1078.271
-14.663	32.663	1264.788	1077.029
-13.648	32.737	1263.725	1076.506
-12.633	32.725	1263.137	1075.890
-11.619	32.741	1261.773	1074.779
-10.604	32.662	1261.275	1073.861
-9.590	32.780	1259.989	1073.398
-8.575	32.769	1258.785	1072.264
-7.560	32.630	1258.583	1071.260
-6.546	32.703	1257.237	1070.486
-5.531	32.722	1256.355	1069.800
-4.517	32.656	1255.822	1068.927
-3.502	32.750	1254.796	1068.548
-2.487	32.762	1253.761	1067.691
-1.473	32.779	1249.957	1064.507
-0.458	31.584	1235.754	1045.696
0.556	28.125	1218.395	1008.773
1.571	24.753	1223.518	994.217
2.586	23.849	1239.183	1001.766
3.600	23.085	1227.944	988.324
4.615	16.478	1153.614	893.608
5.629	6.189	1076.351	782.698
6.644	2.045	1055.945	747.526
7.659	1.637	1053.441	743.695
8.673	1.444	1052.290	741.875
9.688	1.376	1050.911	740.506
10.702	1.763	1049.076	741.029
11.717	7.926	1057.764	777.260
12.731	18.257	1072.996	839.307
13.746	23.896	1079.922	872.400
14.761	24.955	1081.197	878.548
15.775	25.003	1080.637	878.253
16.790	24.817	1079.501	876.337
17.804	24.673	1079.156	875.277
18.819	24.916	1078.679	876.001
19.834	24.985	1078.484	876.101
20.848	25.068	1078.015	876.051
21.863	25.079	1077.296	875.442
22.877	24.962	1076.861	874.442
23.892	24.839	1076.071	873.122
24.907	25.045	1075.266	873.395
25.921	25.025	1073.977	872.172
26.936	24.930	1073.055	870.887
27.950	24.909	1070.940	868.990
28.965	24.769	1069.465	867.038
29.980	24.903	1068.099	866.503
30.994	25.137	1067.074	866.725
32.009	25.048	1066.394	865.668
33.023	24.856	1064.894	863.446
34.038	24.898	1064.695	863.411
35.053	25.038	1063.712	863.212
36.067	25.044	1062.996	862.585
37.082	25.103	1062.121	862.082
38.096	25.202	1061.812	862.230
39.111	25.289	1060.843	861.786
40.126	25.179	1059.225	859.865
41.140	24.877	1057.695	857.102
42.155	24.606	1056.221	854.536
43.169	24.476	1055.712	853.429
44.184	24.486	1054.916	852.757
45.199	24.548	1053.192	851.582
46.213	24.731	1052.576	851.881
47.228	24.875	1051.714	851.794
48.242	24.800	1051.079	850.847
49.257	24.958	1050.360	850.939
50.271	25.081	1049.761	850.965
51.286	25.101	1048.917	850.298
52.301	25.007	1048.049	849.075
53.315	24.932	1047.237	847.986
54.330	24.928	1046.098	846.972
55.344	25.054	1045.412	846.936
56.359	24.904	1044.370	845.311
57.374	24.784	1043.466	843.937
58.388	24.756	1042.856	843.234
59.403	24.712	1041.766	842.074
60.417	24.553	1040.923	840.570
61.432	24.521	1040.549	840.041
62.447	24.747	1040.019	840.600
63.461	24.744	1039.273	839.911
64.476	24.731	1037.934	838.695
65.490	24.510	1037.166	836.962
66.505	24.741	1036.527	837.456
67.520	24.797	1035.911	837.146
68.534	24.603	1034.839	835.297
69.549	24.248	1033.434	832.433
70.563	24.172	1033.097	831.734
71.578	24.197	1032.227	831.076
72.593	24.101	1031.147	829.684
73.607	24.197	1030.488	829.526
74.622	24.466	1030.300	830.553
75.636	24.608	1029.588	830.568
76.651	24.318	1028.889	828.581
77.666	24.348	1027.923	827.868
78.680	24.407	1027.085	827.394
79.695	24.399	1026.938	827.167
80.709	24.485	1026.066	826.792
81.724	24.502	1025.168	826.072
82.739	24.678	1024.277	826.092
83.753	24.959	1023.978	827.079
84.768	25.213	1023.559	827.839
85.782	25.399	1022.250	827.563
86.797	25.225	1021.032	825.702
87.812	25.038	1020.605	824.426
88.826	25.287	1019.401	824.522
89.841	25.178	1018.857	823.511
90.855	25.202	1017.836	822.722
91.870	25.224	1017.146	822.194
92.884	25.079	1015.627	820.230
93.899	25.144	1014.598	819.624
94.914	25.370	1013.905	820.023
95.928	25.044	1012.777	817.551
96.943	24.859	1011.374	815.503
97.957	24.648	1010.225	813.542
98.972	24.481	1009.441	812.083
99.987	24.765	1008.306	812.386
101.001	25.011	1007.746	812.978
102.016	24.953	1007.093	812.119
103.030	24.923	1006.144	811.145
104.045	24.872	1005.115	810.012
105.060	24.478	1004.386	807.569
106.074	24.861	1003.193	808.271
107.089	25.074	1002.847	808.883
108.103	24.923	1001.614	807.134
109.118	24.702	1000.688	805.320
110.133	24.679	999.809	804.440
111.147	24.461	998.873	802.635
112.162	24.458	997.796	801.685
113.176	24.671	997.184	802.077
114.191	24.681	995.965	801.073
115.206	24.192	995.352	798.316
116.220	24.358	994.514	798.320
117.235	24.439	993.433	797.741
118.249	24.282	992.929	796.566
119.264	24.227	992.200	795.662
120.279	24.397	991.615	795.882
121.293	24.493	990.580	795.410
122.308	24.505	989.764	794.739
123.322	24.199	988.875	792.591
124.337	24.203	987.453	791.401
125.352	23.787	985.795	788.157
126.366	23.652	984.931	786.798
127.381	24.407	985.206	790.292
128.395	24.885	984.661	791.901
129.410	24.917	983.760	791.247
130.424	24.945	982.707	790.455
131.439	24.830	981.912	789.239
132.454	24.804	981.131	788.426
133.468	24.831	979.895	787.484
134.483	24.879	979.535	787.332
135.497	25.127	978.765	787.734
136.512	25.266	977.525	787.278
137.527	25.160	976.813	786.172
138.541	25.198	976.338	785.884
139.556	25.219	975.612	785.320
140.570	25.340	974.421	784.824
141.585	25.267	973.362	783.582
142.600	25.167	972.703	782.546
143.614	25.434	971.882	782.981
144.629	25.519	971.071	782.629
145.643	25.252	969.505	780.137
146.658	25.126	968.487	778.699
147.673	25.240	967.052	777.972
148.687	25.022	966.490	776.506
149.702	24.957	965.720	775.537
150.716	24.871	964.490	774.110
151.731	24.987	964.239	774.343
152.746	25.165	963.832	774.715
153.760	25.335	963.146	774.827
154.775	25.397	962.800	774.749
155.789	25.459	961.321	773.757
156.804	25.323	960.379	772.347
157.819	25.285	960.352	772.094
158.833	25.487	959.233	771.993
159.848	25.571	958.155	771.417
160.862	25.400	956.809	769.532
161.877	25.326	956.041	768.528
162.892	25.300	954.984	767.501
163.906	25.345	953.857	766.719
164.921	25.210	953.267	765.601
165.935	25.265	952.410	765.081
166.950	25.420	951.113	764.630
167.964	25.198	951.123	763.623
168.979	25.287	949.503	762.636
169.994	25.121	948.830	761.323
171.008	25.436	948.077	761.986
172.023	25.425	947.188	761.158
173.037	25.142	946.571	759.398
174.052	24.980	945.266	757.597
175.067	25.017	944.763	757.283
176.081	25.157	944.023	757.215
177.096	25.035	943.717	756.386
178.110	24.697	942.901	754.242
179.125	24.652	942.056	753.307
180.140	24.723	941.600	753.174
181.154	24.755	941.485	753.151
182.169	25.232	941.227	754.888
183.183	25.350	940.576	754.795
184.198	25.244	939.466	753.393
185.213	25.340	938.812	753.202
186.227	25.330	938.579	752.907
187.242	25.306	937.679	752.019
188.256	25.402	936.909	751.738
189.271	25.202	936.944	750.861
190.286	24.989	935.297	748.586
191.300	24.485	933.602	745.061
192.315	23.699	931.822	740.298
193.329	23.697	931.528	739.990
194.344	24.552	932.157	743.985
195.359	25.128	932.065	746.247
196.373	25.181	931.590	746.019
197.388	25.092	931.271	745.329
198.402	25.138	930.571	744.892
199.417	25.279	929.770	744.770
200.432	24.937	928.879	742.575
201.446	24.803	927.942	741.206
202.461	24.784	927.788	740.937
203.475	24.037	925.715	736.127
204.490	23.199	924.468	731.608
205.504	24.163	925.180	736.095
206.519	24.828	924.325	738.091
207.534	24.834	924.342	738.065
208.548	25.339	924.323	740.066
209.563	24.954	923.132	737.463
210.577	24.959	922.638	737.022
211.592	25.363	922.373	738.409
212.607	25.453	921.551	738.053
213.621	25.451	920.731	737.323
214.636	25.183	920.383	735.878
215.650	25.291	919.467	735.524
216.665	25.453	918.876	735.653
217.680	25.253	918.232	734.251
218.694	25.014	916.730	732.010
219.709	24.725	916.588	730.650
220.723	25.091	915.782	731.437
221.738	25.198	915.404	731.507
222.753	25.162	914.702	730.735
223.767	25.348	914.211	731.033
224.782	25.474	913.813	731.165
225.796	25.495	913.277	730.755
226.811	24.878	911.552	726.808
227.826	24.224	910.441	723.205
228.840	24.302	910.034	723.132
229.855	24.490	909.337	723.278
230.869	24.106	908.250	720.793
231.884	24.470	908.229	722.185
232.899	25.250	908.021	725.113
233.913	25.171	907.515	724.321
234.928	25.023	907.230	723.435
235.942	25.032	906.201	722.585
236.957	24.611	905.607	720.351
237.972	24.675	905.441	720.412
238.986	24.723	904.743	719.989
240.001	24.988	903.638	720.111
241.015	25.028	903.668	720.231
242.030	25.096	902.846	719.787
243.045	25.217	902.599	720.010
244.059	25.372	902.093	720.163
245.074	25.102	901.513	718.557
246.088	24.911	899.844	716.398
247.103	25.174	899.825	717.371
248.117	25.665	900.174	719.552
249.132	25.876	899.625	719.892
250.147	26.039	899.340	720.249
251.161	26.162	898.771	720.220
252.176	26.047	898.339	719.353
253.190	26.156	897.658	719.178
254.205	26.313	897.318	719.467
255.220	26.162	896.523	718.165
256.234	26.032	895.972	717.143
257.249	25.990	894.728	715.918
258.263	26.107	894.059	715.783
259.278	26.185	893.444	715.537
260.293	26.095	893.253	714.964
261.307	25.959	892.507	713.766
262.322	25.809	891.646	712.419
263.336	25.171	889.692	708.276
264.351	24.088	887.696	702.355
265.366	24.146	887.912	702.693
266.380	25.271	888.088	707.208
267.395	25.751	888.055	709.009
268.409	25.625	887.463	707.978
269.424	25.913	886.663	708.410
270.439	25.966	886.105	708.109
271.453	25.979	885.743	707.806
272.468	26.268	885.292	708.517
273.482	26.105	884.840	707.453
274.497	25.790	883.661	705.214
275.512	25.282	882.755	702.442
276.526	25.767	882.720	704.249
277.541	25.832	882.460	704.234
278.555	25.773	881.530	703.201
279.570	25.527	880.964	701.724
280.585	25.689	880.823	702.184
281.599	25.641	879.661	701.010
282.614	25.097	878.074	697.566
283.628	25.117	877.914	697.453
284.643	25.498	877.656	698.667
285.657	24.995	876.600	695.814
286.672	24.843	875.600	694.367
287.687	25.375	875.635	696.396
288.701	25.479	874.854	696.119
289.716	25.078	874.187	693.973
290.730	25.265	873.406	694.014
291.745	24.898	872.407	691.744
292.760	25.237	872.945	693.418
293.774	26.058	873.241	696.763
294.789	26.416	872.634	697.599
295.803	26.522	871.736	697.227
296.818	26.530	871.269	696.824
297.833	26.086	870.278	694.263
298.847	25.859	869.624	692.807
299.862	26.152	869.368	693.664
300.876	26.538	868.969	694.770
301.891	26.423	868.286	693.719
302.906	25.956	867.633	691.346
303.920	26.010	867.315	691.238
304.935	26.310	867.291	692.307
305.949	26.366	866.417	691.763
306.964	26.159	865.367	690.073
307.979	26.237	865.222	690.194
308.993	26.504	864.958	690.943
310.008	26.738	864.018	691.023
311.022	26.402	863.439	689.219
312.037	26.118	862.871	687.620
313.052	25.873	861.690	685.686
314.066	25.008	859.956	680.961
315.081	24.730	859.440	679.436
316.095	25.513	859.786	682.626
317.110	26.078	859.532	684.507
318.125	25.264	858.372	680.438
319.139	24.080	856.906	674.729
320.154	24.321	855.934	674.817
321.168	25.157	856.640	678.478
322.183	25.702	857.174	680.903
323.197	25.976	856.724	681.522
324.212	26.231	856.052	681.891
325.227	26.080	855.758	681.027
326.241	25.918	855.026	679.771
327.256	25.983	854.275	679.358
328.270	25.757	853.948	678.189
329.285	25.649	853.020	676.984
330.300	25.449	852.286	675.591
331.314	25.638	852.242	676.206
332.329	26.195	851.573	677.708
333.343	26.372	851.034	677.880
334.358	26.362	850.745	677.553
335.373	26.431	850.802	677.798
336.387	26.726	850.701	678.763
337.402	26.656	850.691	678.432
338.416	26.648	850.100	677.873
339.431	26.813	849.903	678.271
340.446	26.993	849.474	678.540
341.460	26.802	848.823	677.250
342.475	26.427	848.526	675.550
343.489	26.698	847.995	676.080
344.504	27.125	847.406	677.143
345.519	27.123	847.240	676.942
346.533	27.034	846.806	676.205
347.548	27.059	846.411	675.923
348.562	27.140	845.606	675.520
349.577	26.952	845.277	674.498
350.592	27.093	844.432	674.288
351.606	26.947	843.835	673.210
352.621	26.887	842.820	672.118
353.635	26.898	841.984	671.435
354.650	26.141	840.856	667.677
355.665	25.124	839.371	662.680
356.679	25.626	838.966	664.156
357.694	26.205	838.623	665.964
358.708	25.959	838.070	664.556
359.723	26.366	838.157	666.067
360.738	26.742	837.671	667.006
361.752	26.802	837.191	666.788
362.767	27.286	836.548	667.993
363.781	27.327	836.306	667.892
364.796	27.462	835.999	668.082
365.810	27.546	835.800	668.170
366.825	27.326	835.750	667.264
367.840	27.268	834.061	665.646
368.854	26.932	833.100	663.590
369.869	26.786	833.143	663.034
370.883	26.858	832.798	662.964
371.898	26.683	832.218	661.802
372.913	26.905	831.969	662.358
373.927	26.895	831.726	662.070
374.942	26.989	831.405	662.096
375.956	27.101	830.574	661.786
376.971	27.259	830.296	662.079
377.986	27.364	830.334	662.435
379.000	27.433	829.352	661.844
380.015	27.224	828.503	660.347
381.029	27.254	828.124	660.095
382.044	27.337	828.058	660.286
383.059	27.270	827.559	659.589
384.073	27.541	826.580	659.732
385.088	27.392	825.843	658.546
386.102	27.111	825.338	657.069
387.117	27.072	824.807	656.444
388.132	26.727	823.509	654.108
389.146	26.243	822.502	651.508
390.161	26.757	822.565	653.353
391.175	27.188	822.154	654.521
392.190	26.805	821.174	652.303
393.205	25.573	818.981	646.081
394.219	23.943	817.498	639.005
395.234	23.757	817.511	638.289
396.248	25.526	819.053	645.798
397.263	26.890	819.477	650.973
398.278	26.810	819.307	650.492
399.292	26.659	818.553	649.297
400.307	26.779	817.927	649.174
401.321	26.799	817.617	648.942
402.336	27.032	817.746	649.819
403.350	27.726	817.193	651.804
404.365	27.820	817.302	652.169
405.380	28.076	817.020	652.798
406.394	28.113	816.562	652.509
407.409	28.080	815.883	651.790
408.423	28.096	815.643	651.598
409.438	28.051	815.267	651.080
410.453	28.159	814.685	650.942
411.467	28.091	814.224	650.272
412.482	28.130	813.776	649.995
413.496	28.367	813.137	650.269
414.511	28.207	813.036	649.562
415.526	28.331	812.564	649.567
416.540	27.954	812.190	647.877
417.555	27.771	811.044	646.255
418.569	27.984	810.583	646.586
419.584	27.866	810.027	645.669
420.599	27.672	809.332	644.372
421.613	109.086	1285.632	1454.365
422.628	94.257	1355.031	1454.495
