DTS Sentinel unit serial number:	SN413079Multiplexer serial number:	ORYXHardware model number:	OX4-SRSoftware version number:	ORYX F/W v4.00 Oryx Data Collector v3.7.2.0data status	okinstallation	princeton_trtdifferential loss correction	single-endedforward channel	channel 1reverse channel	N/Adate	2019/09/12time	19:20:34forward acquisition time	15.00reverse acquisition time	0.00gamma	496.2192k internal	0.2321k external	0.2321temperature offset calibration	1.0122default loss term (dB/km)	0.3790temperature slope calibration	1.0000multiplexer offset coefficient	1.0000multiplexer slope coefficient	1.0000fibre end	0.00T internal ref (°C)	32.44T ext. ref 1 (°C)	3.20T ext. ref 2 (°C)	26.97length (m)	temperature (°C)	Stokes	anti-Stokes-747.200	-167.307	0.731	0.030
-746.185	195.084	-0.257	0.395
-745.171	409.960	-0.152	0.326
-744.156	800.000	0.222	0.700
-743.142	571.767	-0.195	0.480
-742.127	86.773	0.241	-0.269
-741.112	800.000	0.170	0.566
-740.098	43.184	0.547	0.505
-739.083	-55.359	-0.658	0.298
-738.069	414.168	-0.325	-0.699
-737.054	492.129	-0.222	0.514
-736.039	58.214	0.301	0.298
-735.025	-109.181	1.256	0.270
-734.010	-73.530	0.503	0.185
-732.996	-159.730	-0.231	0.013
-731.981	800.000	0.151	0.517
-730.966	-200.000	0.018	0.355
-729.952	108.098	-0.080	-0.096
-728.937	-200.000	0.103	-0.853
-727.923	-200.000	0.092	-0.771
-726.908	58.547	-0.353	0.350
-725.894	-88.327	0.459	0.139
-724.879	115.642	-0.660	-0.815
-723.864	-70.562	-0.822	0.314
-722.850	11.019	-0.378	-0.291
-721.835	702.989	0.373	0.993
-720.821	-75.640	1.067	0.383
-719.806	-200.000	0.061	0.451
-718.791	-149.436	-0.805	0.065
-717.777	43.387	0.175	0.162
-716.762	-125.551	-1.128	0.173
-715.748	666.765	-0.196	-0.512
-714.733	-53.034	1.151	0.534
-713.718	62.118	0.376	0.378
-712.704	-200.000	0.017	-0.175
-711.689	186.057	-0.365	-0.548
-710.675	6.104	-0.825	-0.617
-709.660	-200.000	-0.041	-0.228
-708.645	-54.795	-0.593	-0.270
-707.631	161.557	-0.391	-0.552
-706.616	800.000	-0.238	-0.977
-705.602	-108.577	-0.440	0.095
-704.587	458.033	0.153	0.342
-703.572	-54.617	-0.980	-0.447
-702.558	23.630	-0.559	0.464
-701.543	-42.078	-0.340	0.176
-700.529	-159.814	-0.418	0.023
-699.514	33.164	-0.334	0.293
-698.499	-146.364	-0.313	-0.028
-697.485	-200.000	-0.057	0.326
-696.470	800.000	-0.010	-0.035
-695.456	106.639	0.148	-0.177
-694.441	-200.000	0.072	0.422
-693.426	-44.850	0.502	0.252
-692.412	-78.965	0.192	-0.066
-691.397	-200.000	0.926	-0.004
-690.383	800.000	-0.064	0.189
-689.368	-17.377	0.423	0.268
-688.354	-200.000	-0.059	-0.578
-687.339	0.470	-0.451	-0.325
-686.324	-137.863	0.387	0.044
-685.310	-61.250	-0.684	-0.291
-684.295	-70.478	-0.206	0.079
-683.281	-88.053	-1.095	-0.331
-682.266	15.608	0.111	0.088
-681.251	-2.527	-0.017	-0.012
-680.237	-124.877	-0.588	-0.091
-679.222	158.776	0.818	-1.145
-678.208	-135.016	-0.906	0.110
-677.193	84.663	-0.274	-0.302
-676.178	-151.446	0.446	-0.033
-675.164	-200.000	0.057	-0.867
-674.149	481.023	0.525	-1.201
-673.135	-103.880	0.647	-0.152
-672.120	113.663	0.400	0.490
-671.105	-64.947	0.882	-0.359
-670.091	800.000	0.249	-1.063
-669.076	-121.113	0.349	0.059
-668.062	93.013	0.164	0.187
-667.047	-200.000	0.008	-0.431
-666.032	285.876	-0.230	-0.418
-665.018	-13.016	-0.506	0.332
-664.003	43.475	0.252	0.232
-662.989	-47.617	-0.097	0.047
-661.974	-2.398	-0.150	-0.106
-660.959	-82.769	-0.394	-0.128
-659.945	645.705	-0.156	-0.400
-658.930	16.172	0.237	-0.188
-657.916	345.989	-0.138	-0.273
-656.901	319.402	0.066	-0.127
-655.886	-159.415	-0.482	0.027
-654.872	90.265	0.030	-0.034
-653.857	-2.134	-0.682	-0.482
-652.843	287.897	0.387	0.706
-651.828	736.549	-0.087	0.236
-650.814	302.873	0.127	-0.237
-649.799	73.181	-0.520	0.548
-648.784	533.328	0.253	-0.604
-647.770	800.000	-0.062	0.239
-646.755	800.000	0.109	0.305
-645.741	79.916	-0.544	0.589
-644.726	116.139	-0.452	-0.557
-643.711	781.766	0.191	-0.526
-642.697	758.767	0.411	1.120
-641.682	16.381	-0.369	-0.293
-640.668	-105.468	-0.644	0.147
-639.653	1.383	0.262	-0.189
-638.638	26.880	-0.195	-0.164
-637.624	-106.510	0.546	-0.123
-636.609	-200.000	0.072	-0.593
-635.595	800.000	0.097	0.317
-634.580	-200.000	0.018	-0.444
-633.565	322.785	0.376	-0.721
-632.551	-200.000	0.087	-0.446
-631.536	795.710	0.200	0.554
-630.522	800.000	0.164	0.632
-629.507	54.398	0.370	-0.358
-628.492	73.009	0.266	-0.279
-627.478	287.721	-0.297	-0.541
-626.463	-142.468	-0.581	-0.057
-625.449	350.955	-0.190	-0.377
-624.434	800.000	0.007	-0.028
-623.419	-148.759	0.139	-0.011
-622.405	36.422	0.178	0.158
-621.390	-200.000	0.094	0.533
-620.376	113.846	-0.097	0.118
-619.361	149.944	0.167	-0.227
-618.346	16.000	0.588	0.466
-617.332	-44.574	-0.604	-0.303
-616.317	7.916	0.393	-0.296
-615.303	-200.000	-0.029	0.340
-614.288	-91.490	-0.191	-0.055
-613.273	-200.000	-0.071	0.772
-612.259	-33.949	-0.811	0.449
-611.244	-69.533	0.624	0.240
-610.230	-200.000	0.122	-0.632
-609.215	7.422	0.484	-0.364
-608.201	1.121	0.145	-0.105
-607.186	-2.789	0.235	0.165
-606.171	-200.000	-0.023	0.428
-605.157	-149.753	0.644	0.051
-604.142	-22.084	-0.603	-0.368
-603.128	-200.000	0.451	0.000
-602.113	-46.401	0.071	-0.035
-601.098	225.008	-0.195	0.317
-600.084	12.182	0.520	0.402
-599.069	27.454	-0.601	-0.508
-598.055	121.789	0.209	0.262
-597.040	-200.000	0.049	0.422
-596.025	-157.689	0.792	-0.047
-595.011	-78.233	-0.414	-0.143
-593.996	247.798	0.663	1.125
-592.982	-84.896	0.961	0.303
-591.967	36.575	-0.339	0.301
-590.952	-200.000	0.073	-0.608
-589.938	-113.588	-0.217	-0.043
-588.923	-200.000	-0.064	-0.421
-587.909	47.224	-0.458	0.428
-586.894	800.000	0.088	0.376
-585.879	285.828	-0.189	0.343
-584.865	-16.333	0.322	0.205
-583.850	-133.716	0.988	-0.124
-582.836	-200.000	0.020	-0.641
-581.821	-10.132	0.381	-0.254
-580.806	-47.083	-0.263	0.129
-579.792	800.000	0.193	-0.820
-578.777	313.793	0.379	-0.716
-577.763	-67.530	-0.627	-0.247
-576.748	-147.520	-0.303	-0.026
-575.733	-50.043	0.527	0.251
-574.719	800.000	-0.107	-0.349
-573.704	30.972	0.617	0.531
-572.690	413.544	0.168	-0.358
-571.675	-40.468	-0.769	-0.401
-570.661	-200.000	-0.034	0.453
-569.646	-200.000	-0.044	-0.251
-568.631	-83.532	0.435	0.140
-567.617	-74.200	-0.402	-0.146
-566.602	-53.448	0.339	-0.156
-565.588	-200.000	0.219	-1.612
-564.573	-33.921	0.438	-0.242
-563.558	0.512	0.460	0.330
-562.544	444.072	0.173	0.380
-561.529	-176.125	0.633	-0.017
-560.515	800.000	-0.162	0.526
-559.500	-200.000	-0.063	-0.570
-558.485	800.000	-0.094	-0.292
-557.471	-99.792	-0.801	0.201
-556.456	93.029	-0.598	0.678
-555.442	-41.710	-0.628	-0.324
-554.427	-200.000	0.022	0.675
-553.412	-83.961	-0.703	0.224
-552.398	-200.000	-0.115	1.247
-551.383	-67.974	-0.228	0.089
-550.369	800.000	-0.212	-0.635
-549.354	178.816	0.551	0.808
-548.339	-78.354	-0.983	0.338
-547.325	-78.796	0.009	0.003
-546.310	216.839	-0.147	-0.235
-545.296	-23.305	-0.346	0.209
-544.281	-4.591	-0.205	-0.142
-543.266	-128.109	-0.699	-0.100
-542.252	155.701	-0.080	0.110
-541.237	129.354	-0.113	-0.145
-540.223	800.000	0.090	-0.363
-539.208	800.000	-0.090	0.364
-538.193	97.071	-0.489	-0.562
-537.179	-46.604	-0.330	-0.162
-536.164	-78.413	-0.679	0.233
-535.150	-28.106	-0.679	0.394
-534.135	47.645	-0.078	0.073
-533.121	-64.450	0.234	0.095
-532.106	398.236	0.025	0.051
-531.091	77.817	0.549	0.587
-530.077	227.145	0.320	-0.521
-529.062	-15.915	0.843	0.538
-528.048	-93.153	0.594	0.166
-527.033	7.161	-0.687	0.514
-526.018	175.063	0.765	1.111
-525.004	28.653	0.635	0.539
-523.989	-51.144	0.761	-0.357
-522.975	-200.000	-0.104	0.574
-521.960	-124.592	0.164	0.025
-520.945	-147.838	-0.622	0.052
-519.931	800.000	0.069	0.298
-518.916	800.000	-0.018	0.060
-517.902	-88.403	1.122	-0.336
-516.887	-81.379	0.332	0.110
-515.872	-23.487	-0.437	0.263
-514.858	-200.000	-0.140	-1.294
-513.843	100.260	0.031	0.036
-512.829	-52.961	1.024	0.472
-511.814	210.554	0.542	0.853
-510.799	368.703	0.061	-0.123
-509.785	15.451	-0.309	0.243
-508.770	441.256	-0.361	-0.791
-507.756	800.000	-0.132	0.425
-506.741	-123.247	1.191	-0.191
-505.726	34.559	-0.400	0.350
-504.712	94.395	0.126	-0.144
-503.697	328.615	0.004	-0.008
-502.683	-134.777	0.035	-0.004
-501.668	122.130	0.496	-0.620
-500.653	-17.248	0.455	-0.287
-499.639	454.910	0.304	0.674
-498.624	678.804	-0.246	-0.641
-497.610	-136.980	0.258	0.030
-496.595	-64.188	-0.316	0.129
-495.581	153.197	0.415	0.568
-494.566	189.215	-0.233	0.349
-493.551	395.007	-0.254	-0.530
-492.537	-19.143	0.347	0.216
-491.522	125.621	0.184	0.232
-490.508	-120.738	-0.402	-0.068
-489.493	-3.123	0.347	-0.242
-488.478	-149.573	-1.427	-0.113
-487.464	-134.103	0.933	-0.115
-486.449	99.255	-0.618	0.715
-485.435	-63.946	0.276	-0.113
-484.420	-200.000	0.106	0.668
-483.405	-200.000	0.044	0.477
-482.391	-101.427	0.472	-0.115
-481.376	-44.362	-0.445	0.223
-480.362	203.316	-0.088	0.136
-479.347	-200.000	-0.026	-0.794
-478.332	-200.000	-0.026	0.256
-477.318	800.000	-0.212	0.600
-476.303	-200.000	-0.005	0.359
-475.289	-200.000	0.020	0.785
-474.274	-1.474	0.516	0.364
-473.259	678.020	0.344	0.895
-472.245	-108.855	0.681	0.146
-471.230	-200.000	-0.165	-0.789
-470.216	-105.249	1.160	0.264
-469.201	154.906	0.234	0.322
-468.186	4.867	-0.203	-0.149
-467.172	800.000	0.277	-0.799
-466.157	-137.355	-0.374	-0.042
-465.143	-136.281	1.238	0.144
-464.128	-99.030	-0.882	-0.224
-463.113	-114.381	-0.938	0.180
-462.099	-112.595	0.452	-0.090
-461.084	415.051	-0.336	-0.715
-460.070	-16.023	0.716	-0.455
-459.055	312.407	0.412	-0.773
-458.040	800.000	-0.144	0.583
-457.026	-57.128	0.126	0.056
-456.011	-158.974	0.487	0.028
-454.997	-200.000	-0.083	-0.553
-453.982	800.000	0.192	-0.714
-452.968	-111.940	-0.477	0.096
-451.953	268.755	-0.364	0.638
-450.938	-117.457	0.206	-0.037
-449.924	-137.708	-0.268	-0.030
-448.909	-200.000	0.030	-0.232
-447.895	15.054	0.582	0.456
-446.880	180.995	-0.133	0.195
-445.865	731.257	-0.178	-0.475
-444.851	800.000	-0.160	-0.629
-443.836	436.815	-0.370	0.804
-442.822	386.797	-0.150	0.309
-441.807	-1.912	-0.230	0.162
-440.792	64.234	-0.454	0.457
-439.778	125.368	0.199	-0.250
-438.763	-200.000	-0.095	-0.772
-437.749	-200.000	-0.001	0.400
-436.734	-191.539	-0.659	-0.007
-435.719	542.782	0.093	0.222
-434.705	-200.000	-0.000	-0.285
-433.690	232.785	0.450	-0.739
-432.676	-29.193	-0.138	-0.079
-431.661	113.792	-0.473	0.574
-430.646	387.618	0.479	-0.989
-429.632	-49.683	-0.369	0.175
-428.617	-34.243	-0.175	0.096
-427.603	-115.815	-0.708	0.132
-426.588	-200.000	0.024	-0.549
-425.573	-169.408	-0.693	0.025
-424.559	800.000	0.023	0.075
-423.544	-200.000	0.088	-0.605
-422.530	-113.780	0.374	0.073
-421.515	189.362	-0.692	-1.035
-420.500	344.590	0.257	0.504
-419.486	-70.134	0.388	-0.147
-418.471	120.193	-0.368	0.456
-417.457	304.271	-0.057	0.106
-416.442	-102.674	-0.933	-0.222
-415.428	-4.904	-0.209	-0.144
-414.413	-57.743	0.179	-0.078
-413.398	381.824	-0.200	-0.409
-412.384	-66.514	0.618	0.245
-411.369	-200.000	0.226	-1.025
-410.355	95.410	-0.364	0.414
-409.340	-157.050	-0.249	-0.015
-408.325	-29.116	-0.249	0.142
-407.311	189.354	-0.519	0.776
-406.296	21.291	0.460	0.373
-405.282	800.000	-0.243	-0.698
-404.267	-162.596	1.056	-0.052
-403.252	62.748	0.364	-0.363
-402.238	-133.634	-0.327	0.041
-401.223	-15.285	-0.374	-0.239
-400.209	498.588	-0.399	0.917
-399.194	-5.272	0.595	0.408
-398.179	800.000	-0.128	-0.357
-397.165	48.161	-0.375	-0.349
-396.150	700.756	0.232	-0.608
-395.136	382.536	0.245	0.501
-394.121	84.136	0.230	-0.250
-393.106	-24.173	0.059	-0.035
-392.092	-63.013	0.558	0.230
-391.077	25.858	-0.059	-0.049
-390.063	422.823	-0.331	0.710
-389.048	127.416	0.063	0.080
-388.033	-166.192	0.632	0.027
-387.019	-116.541	-0.283	0.052
-386.004	359.606	0.250	-0.498
-384.990	178.191	0.591	-0.859
-383.975	6.131	-0.313	0.232
-382.960	113.968	-0.258	-0.312
-381.946	-200.000	-0.044	0.353
-380.931	-119.279	-0.154	-0.027
-379.917	-200.000	-0.072	0.957
-378.902	-24.692	0.048	0.029
-377.888	118.289	0.166	-0.204
-376.873	32.503	0.218	-0.188
-375.858	-157.774	0.454	0.027
-374.844	158.873	-0.303	0.419
-373.829	86.289	0.603	-0.662
-372.815	-86.281	-0.551	-0.169
-371.800	39.961	0.465	0.416
-370.785	-82.012	-0.407	0.132
-369.771	325.022	0.535	-1.019
-368.756	755.731	-0.126	0.340
-367.742	-200.000	0.003	0.077
-366.727	203.397	0.400	0.616
-365.712	182.208	-0.566	-0.831
-364.698	-42.163	0.135	-0.069
-363.683	-46.844	0.549	0.268
-362.669	85.797	-0.309	-0.339
-361.654	404.919	-0.305	-0.641
-360.639	-9.096	0.283	0.188
-359.625	-174.714	-0.417	0.012
-358.610	-200.000	0.044	0.804
-357.596	-200.000	0.074	-0.390
-356.581	89.498	0.170	-0.189
-355.566	49.442	-1.080	1.011
-354.552	-200.000	0.052	0.664
-353.537	800.000	0.087	-0.282
-352.523	-198.855	0.927	-0.005
-351.508	27.250	-0.882	-0.737
-350.493	-200.000	-0.094	0.481
-349.479	-200.000	0.015	0.384
-348.464	85.090	-0.398	0.434
-347.450	130.831	0.043	0.055
-346.435	-136.250	-0.278	0.032
-345.420	2.458	0.656	-0.473
-344.406	-128.271	0.569	-0.081
-343.391	-71.006	0.546	0.204
-342.377	166.887	0.340	-0.480
-341.362	99.292	-0.315	-0.362
-340.348	184.260	0.374	-0.552
-339.333	115.774	-0.293	0.357
-338.318	-200.000	0.013	0.273
-337.304	18.815	-0.320	0.255
-336.289	-162.131	0.313	-0.016
-335.275	-97.876	-0.536	0.138
-334.260	-200.000	-0.028	-0.293
-333.245	800.000	-0.151	-0.495
-332.231	-137.525	-0.464	0.052
-331.216	15.306	-0.410	0.320
-330.202	-145.983	-0.549	-0.048
-329.187	455.999	0.248	0.548
-328.172	-200.000	-0.063	-0.673
-327.158	-40.882	-0.380	0.196
-326.143	-200.000	-0.005	-0.103
-325.129	609.472	0.372	0.923
-324.114	479.280	-0.263	0.593
-323.099	-119.512	0.777	0.134
-322.085	-200.000	0.093	-0.829
-321.070	-16.976	-0.115	-0.072
-320.056	-147.036	0.372	0.032
-319.041	-30.137	-0.462	-0.261
-318.026	-200.000	-0.030	-0.768
-317.012	-125.511	-0.878	-0.133
-315.997	-200.000	-0.012	-0.485
-314.983	-25.993	0.283	-0.166
-313.968	42.972	0.705	0.639
-312.953	143.001	0.506	0.669
-311.939	55.017	-0.117	-0.112
-310.924	15.129	-0.419	0.327
-309.910	800.000	-0.094	0.301
-308.895	-101.318	0.382	0.093
-307.880	654.432	0.262	-0.668
-306.866	-73.107	0.596	0.217
-305.851	-200.000	-0.057	0.793
-304.837	-200.000	0.048	0.422
-303.822	800.000	-0.170	0.529
-302.807	-196.581	-0.723	0.005
-301.793	92.756	-0.486	0.545
-300.778	-126.850	-0.349	-0.051
-299.764	208.882	0.320	-0.498
-298.749	626.350	-0.197	0.495
-297.735	800.000	0.179	0.626
-296.720	-40.151	-0.469	-0.243
-295.705	-39.317	0.518	-0.270
-294.691	69.390	0.467	-0.478
-293.676	219.463	-0.165	0.261
-292.662	-75.398	-0.703	0.249
-291.647	39.440	-0.379	-0.337
-290.632	-9.625	0.548	0.363
-289.618	200.901	0.350	-0.534
-288.603	0.284	-0.482	-0.341
-287.589	-200.000	0.007	-0.388
-286.574	-197.520	0.144	-0.001
-285.559	-55.388	-0.852	-0.379
-284.545	-102.307	-0.359	0.086
-283.530	-63.985	-0.733	0.297
-282.516	3.063	-0.721	0.520
-281.501	607.216	0.173	-0.429
-280.486	800.000	0.116	-0.397
-279.472	-198.473	-0.468	0.003
-278.457	-200.000	-0.078	-0.349
-277.443	15.916	0.537	0.419
-276.428	507.359	0.224	0.515
-275.413	800.000	-0.198	0.588
-274.399	-110.069	-0.574	-0.119
-273.384	-146.477	0.747	0.065
-272.370	800.000	-0.112	-0.358
-271.355	-105.153	-0.588	-0.133
-270.340	-8.860	0.643	0.427
-269.326	543.406	-0.191	-0.453
-268.311	48.016	-0.894	-0.829
-267.297	171.411	0.164	-0.233
-266.282	98.024	0.346	-0.395
-265.267	-132.279	-0.795	-0.102
-264.253	196.701	0.243	-0.367
-263.238	39.025	-0.609	-0.540
-262.224	-200.000	-0.009	-0.599
-261.209	-200.000	0.174	-0.762
-260.195	-200.000	0.040	-1.153
-259.180	-86.548	-0.741	-0.225
-258.165	-110.240	0.486	0.100
-257.151	-56.413	-0.463	-0.204
-256.136	-98.539	-0.454	-0.115
-255.122	-200.000	-0.075	-0.772
-254.107	101.455	0.249	0.288
-253.092	168.922	-0.224	-0.317
-252.078	-113.044	-0.428	0.084
-251.063	-97.882	0.723	-0.185
-250.049	47.977	-0.091	0.085
-249.034	-77.834	0.432	-0.148
-248.019	-200.000	-0.009	-0.382
-247.005	138.086	-0.212	-0.276
-245.990	210.676	-0.208	-0.324
-244.976	-56.026	0.581	-0.257
-243.961	-83.826	0.179	-0.057
-242.946	800.000	-0.325	0.928
-241.932	800.000	-0.174	0.544
-240.917	-51.590	0.408	-0.189
-239.903	16.989	-0.446	-0.350
-238.888	66.879	-0.229	0.231
-237.873	-79.547	0.176	-0.059
-236.859	139.792	-0.241	-0.314
-235.844	-52.527	0.146	-0.067
-234.830	54.157	0.410	-0.391
-233.815	800.000	-0.102	-0.399
-232.800	-32.592	0.353	-0.195
-231.786	450.061	-0.445	0.972
-230.771	-12.990	0.486	0.313
-229.757	58.454	0.151	0.147
-228.742	-200.000	-0.076	-0.483
-227.727	800.000	0.050	-0.160
-226.713	0.545	-0.652	0.461
-225.698	-200.000	0.039	-0.928
-224.684	-31.583	-0.489	0.272
-223.669	800.000	-0.028	-0.096
-222.655	-200.000	-0.044	-0.311
-221.640	11.969	-0.159	0.121
-220.625	-39.151	0.357	0.186
-219.611	19.101	-0.704	-0.559
-218.596	800.000	0.242	0.754
-217.582	677.823	-0.144	0.371
-216.567	-153.681	0.599	0.041
-215.552	413.358	-0.249	0.525
-214.538	-200.000	0.050	-0.318
-213.523	329.663	-0.335	0.638
-212.509	77.073	0.546	0.574
-211.494	-19.165	-0.998	-0.613
-210.479	67.248	0.541	-0.546
-209.465	226.735	0.242	0.389
-208.450	-200.000	0.087	0.567
-207.436	-165.382	0.986	0.043
-206.421	-109.349	0.647	0.136
-205.406	162.166	-0.581	-0.806
-204.392	-123.205	-0.388	-0.061
-203.377	-54.045	-0.392	0.177
-202.363	-66.758	0.128	-0.050
-201.348	800.000	-0.119	0.436
-200.333	-16.878	0.627	-0.392
-199.319	-32.076	-0.378	0.209
-198.304	761.788	0.262	0.702
-197.290	-59.501	0.742	0.315
-196.275	-138.204	-0.572	0.063
-195.260	-96.758	0.561	-0.146
-194.246	43.982	-0.326	-0.295
-193.231	-27.983	-0.772	-0.442
-192.217	-53.309	0.620	-0.281
-191.202	-4.935	-0.553	-0.377
-190.187	-200.000	0.050	0.571
-189.173	106.837	0.716	-0.840
-188.158	-24.278	-0.411	-0.242
-187.144	-200.000	-0.020	0.381
-186.129	-87.614	-0.752	-0.224
-185.114	61.437	0.681	-0.670
-184.100	-121.070	0.857	0.142
-183.085	432.799	-0.356	0.763
-182.071	-134.946	0.526	0.063
-181.056	555.457	0.474	-1.129
-180.042	-82.744	1.038	0.332
-179.027	115.270	0.165	0.200
-178.012	-45.133	-0.204	0.100
-176.998	800.000	-0.192	0.810
-175.983	-126.121	-0.425	0.063
-174.969	-38.648	-1.147	-0.599
-173.954	172.643	0.288	-0.409
-172.939	141.830	-0.308	0.403
-171.925	340.221	0.200	-0.386
-170.910	10.093	0.260	0.195
-169.896	-121.037	0.489	0.081
-168.881	-92.505	-0.311	0.086
-167.866	-66.062	-0.582	0.229
-166.852	-78.381	0.768	-0.260
-165.837	-47.917	0.051	-0.025
-164.823	-73.516	0.283	-0.102
-163.808	800.000	0.229	0.743
-162.793	-200.000	0.050	0.944
-161.779	30.203	-0.369	0.311
-160.764	99.378	-0.627	-0.717
-159.750	-154.107	-0.634	-0.042
-158.735	344.008	0.271	-0.526
-157.720	-200.000	-0.000	-0.555
-156.706	327.831	-0.209	0.396
-155.691	14.938	-0.632	0.488
-154.677	800.000	0.039	0.131
-153.662	86.358	-0.251	0.274
-152.647	151.645	0.106	0.143
-151.633	389.499	0.129	0.263
-150.618	10.456	0.127	0.095
-149.604	-74.285	0.536	-0.191
-148.589	-32.515	-0.922	0.507
-147.574	-162.451	0.395	-0.019
-146.560	603.985	-0.182	0.446
-145.545	218.076	0.362	0.570
-144.531	43.091	-0.140	-0.126
-143.516	17.106	-0.481	0.376
-142.502	337.387	0.101	-0.193
-141.487	-50.785	-0.541	-0.251
-140.472	-200.000	0.002	0.067
-139.458	-27.151	-0.227	-0.131
-138.443	800.000	-0.277	0.847
-137.429	-200.000	-0.038	-0.649
-136.414	-176.768	0.567	0.014
-135.399	-43.665	0.250	-0.124
-134.385	-110.298	-0.342	0.070
-133.370	41.678	-0.250	-0.224
-132.356	-122.700	-0.471	-0.075
-131.341	432.563	0.090	-0.193
-130.326	411.695	-0.127	-0.267
-129.312	-200.000	-0.085	-0.937
-128.297	773.759	0.162	0.436
-127.283	-117.564	0.898	0.160
-126.268	126.751	0.456	-0.570
-125.253	35.398	-0.419	0.363
-124.239	250.626	0.340	0.569
-123.224	-66.348	0.284	-0.111
-122.210	114.242	-0.520	-0.624
-121.195	-200.000	-0.048	0.419
-120.180	385.013	-0.204	-0.414
-119.166	800.000	-0.103	-0.342
-118.151	-56.727	-0.259	0.113
-117.137	-33.160	0.467	-0.255
-116.122	-200.000	0.031	0.325
-115.107	800.000	-0.304	-0.972
-114.093	27.702	-0.257	-0.213
-113.078	343.083	0.259	-0.500
-112.064	750.215	-0.127	0.337
-111.049	14.370	0.636	-0.489
-110.034	-98.570	-0.788	-0.198
-109.020	-200.000	-0.135	0.651
-108.005	220.395	0.075	0.119
-106.991	-72.068	-0.798	-0.292
-105.976	-200.000	-0.069	0.387
-104.962	163.115	0.283	0.392
-103.947	-200.000	-0.053	0.238
-102.932	27.565	0.164	-0.136
-101.918	-50.335	-0.192	-0.089
-100.903	-104.981	0.336	0.076
-99.889	-62.615	0.191	0.078
-98.874	800.000	-0.197	-0.571
-97.859	-92.597	-0.294	-0.081
-96.845	129.775	-0.359	-0.453
-95.830	349.536	0.217	0.423
-94.816	115.688	0.620	-0.747
-93.801	-164.090	0.508	-0.023
-92.786	-200.000	-0.222	-1.065
-91.772	-125.827	-0.334	-0.050
-90.757	330.292	0.456	-0.865
-89.743	-124.224	0.529	-0.082
-88.728	530.794	-0.042	-0.098
-87.713	-149.248	0.158	0.012
-86.699	-20.868	0.219	-0.132
-85.684	65.733	0.662	0.661
-84.670	-101.091	-0.745	0.180
-83.655	-200.000	-0.007	0.604
-82.640	191.773	-0.562	-0.834
-81.626	148.608	0.527	-0.702
-80.611	104.084	-0.383	-0.443
-79.597	-62.099	0.131	0.054
-78.582	-200.000	-0.030	-0.356
-77.567	-94.545	0.358	-0.096
-76.553	-118.133	-0.398	-0.070
-75.538	144.897	0.012	0.015
-74.524	291.187	-0.236	-0.423
-73.509	23.330	0.038	-0.030
-72.494	-53.149	-0.454	0.205
-71.480	-200.000	-0.010	0.077
-70.465	387.399	0.089	-0.182
-69.451	-120.575	0.685	-0.114
-68.436	-200.000	-0.141	-0.666
-67.422	11.119	-0.208	-0.157
-66.407	109.145	0.369	-0.434
-65.392	-120.267	-0.287	0.048
-64.378	-144.419	0.435	0.040
-63.363	-72.010	0.354	-0.129
-62.349	-92.222	0.502	0.140
-61.334	308.561	-0.652	-1.198
-60.319	-200.000	0.016	0.304
-59.305	-200.000	-0.234	-1.222
-58.290	-53.259	1.218	0.550
-57.276	-200.000	0.034	0.702
-56.261	-200.000	95.488	597.178
-55.246	679.634	1351.329	3460.345
-54.232	204.933	2515.533	3840.481
-53.217	120.705	2118.470	2590.368
-52.203	44.434	1590.523	1436.991
-51.188	36.076	1330.485	1152.300
-50.173	32.762	1290.340	1098.230
-49.159	55.984	1340.553	1279.259
-48.144	57.074	1356.601	1300.982
-47.130	36.081	1316.075	1139.666
-46.115	32.709	1296.776	1103.221
-45.100	32.545	1293.175	1099.153
-44.086	32.391	1290.112	1095.612
-43.071	32.335	1288.218	1093.635
-42.057	32.488	1285.144	1091.869
-41.042	32.428	1284.061	1090.555
-40.027	32.711	1281.268	1089.777
-39.013	32.275	1280.672	1086.711
-37.998	32.249	1279.965	1085.914
-36.984	32.337	1277.395	1084.200
-35.969	32.505	1274.924	1083.024
-34.954	32.518	1273.154	1081.555
-33.940	32.592	1271.897	1080.869
-32.925	32.628	1270.721	1080.030
-31.911	32.606	1268.958	1078.363
-30.896	32.579	1268.357	1077.656
-29.881	32.603	1265.918	1075.678
-28.867	32.461	1265.762	1074.696
-27.852	32.415	1263.995	1072.890
-26.838	32.512	1261.980	1071.686
-25.823	32.878	1260.362	1072.349
-24.809	32.620	1259.696	1070.278
-23.794	32.443	1258.563	1068.269
-22.779	32.563	1257.402	1067.917
-21.765	32.388	1256.221	1065.879
-20.750	32.649	1255.487	1066.696
-19.736	32.563	1252.932	1063.998
-18.721	32.379	1253.230	1063.164
-17.706	32.202	1251.874	1060.973
-16.692	32.545	1248.792	1060.250
-15.677	32.147	1249.053	1058.188
-14.663	32.480	1248.092	1059.207
-13.648	32.330	1247.579	1057.886
-12.633	32.436	1245.217	1056.434
-11.619	32.538	1244.090	1056.009
-10.604	32.326	1244.179	1054.853
-9.590	32.272	1242.947	1053.468
-8.575	32.432	1242.396	1053.856
-7.560	32.229	1241.859	1052.220
-6.546	32.115	1241.110	1050.909
-5.531	32.283	1240.212	1051.041
-4.517	32.428	1238.559	1050.410
-3.502	32.342	1237.908	1049.336
-2.487	32.167	1236.698	1047.295
-1.473	32.533	1232.365	1045.615
-0.458	30.771	1218.563	1024.180
0.556	28.328	1200.422	985.132
1.571	24.618	1203.912	967.851
2.586	23.327	1218.562	972.460
3.600	22.955	1208.164	962.055
4.615	17.117	1136.256	874.730
5.629	7.504	1061.993	770.991
6.644	3.462	1043.566	738.226
7.659	3.292	1038.803	733.983
8.673	2.921	1039.156	732.397
9.688	3.126	1036.439	731.392
10.702	3.729	1034.622	732.906
11.717	9.509	1043.460	766.693
12.731	19.109	1057.969	823.423
13.746	24.154	1062.759	851.255
14.761	24.711	1062.676	853.773
15.775	24.408	1061.861	851.595
16.790	23.623	1061.001	847.085
17.804	23.414	1060.196	845.370
18.819	23.434	1059.945	845.193
19.834	23.638	1059.193	845.490
20.848	23.696	1058.796	845.375
21.863	23.868	1057.941	845.436
22.877	23.486	1058.477	843.969
23.892	23.600	1056.595	842.934
24.907	23.662	1055.602	842.362
25.921	23.416	1054.706	840.410
26.936	23.374	1053.494	839.169
27.950	23.342	1051.779	837.578
28.965	23.390	1049.916	836.248
29.980	23.941	1047.971	837.219
30.994	23.819	1047.666	836.323
32.009	23.710	1047.846	835.884
33.023	23.420	1046.681	833.515
34.038	23.831	1044.671	833.767
35.053	23.531	1044.496	832.148
36.067	23.240	1044.571	830.768
37.082	23.302	1044.159	830.658
38.096	23.450	1043.127	830.456
39.111	23.862	1041.094	830.693
40.126	23.875	1039.499	829.407
41.140	23.382	1037.948	825.799
42.155	23.228	1036.779	824.077
43.169	22.678	1037.958	822.379
44.184	22.770	1036.289	821.412
45.199	22.804	1034.712	820.245
46.213	23.059	1033.622	820.495
47.228	23.454	1034.458	822.918
48.242	23.786	1033.361	823.512
49.257	23.924	1032.061	823.043
50.271	23.980	1031.140	822.492
51.286	23.764	1030.675	821.055
52.301	23.807	1029.607	820.327
53.315	23.934	1028.336	819.827
54.330	23.495	1027.981	817.447
55.344	23.407	1027.590	816.659
56.359	23.302	1025.993	814.833
57.374	23.086	1025.866	813.670
58.388	23.360	1024.556	813.817
59.403	22.841	1024.840	811.583
60.417	23.003	1023.193	810.954
61.432	23.038	1022.519	810.506
62.447	23.389	1021.144	810.954
63.461	22.987	1020.849	808.809
64.476	23.155	1019.286	808.266
65.490	22.793	1018.824	806.175
66.505	23.303	1017.250	807.184
67.520	22.823	1017.506	805.124
68.534	22.696	1016.534	803.705
69.549	22.615	1014.944	802.011
70.563	22.600	1015.728	802.491
71.578	22.490	1013.166	799.894
72.593	22.076	1012.757	797.622
73.607	22.078	1012.692	797.507
74.622	22.458	1011.614	798.311
75.636	22.451	1011.907	798.443
76.651	22.550	1010.648	797.826
77.666	22.819	1009.697	798.220
78.680	22.761	1008.766	797.151
79.695	22.652	1008.916	796.706
80.709	23.026	1007.552	797.246
81.724	22.658	1008.475	796.245
82.739	23.036	1006.775	796.538
83.753	23.633	1006.108	798.626
84.768	23.652	1005.974	798.533
85.782	23.825	1006.182	799.406
86.797	23.832	1004.339	797.902
87.812	23.266	1004.533	795.444
88.826	23.779	1002.619	796.158
89.841	24.101	1001.461	796.608
90.855	23.923	1000.649	795.097
91.870	23.981	999.813	794.620
92.884	23.527	1000.115	792.762
93.899	23.845	998.069	792.485
94.914	23.619	998.240	791.544
95.928	23.610	996.643	790.169
96.943	23.696	995.196	789.336
97.957	23.394	994.846	787.646
98.972	23.726	993.023	787.603
99.987	23.572	993.256	787.038
101.001	23.432	991.894	785.268
102.016	23.522	991.571	785.339
103.030	23.547	989.125	783.444
104.045	24.233	990.116	787.190
105.060	23.898	987.209	783.336
106.074	23.661	986.904	781.978
107.089	23.188	986.590	779.578
108.103	23.188	985.280	778.476
109.118	23.222	983.614	777.237
110.133	22.649	983.131	774.275
111.147	22.685	981.339	772.949
112.162	22.715	981.686	773.286
113.176	23.108	979.926	773.550
114.191	23.410	978.801	773.913
115.206	23.018	979.324	772.549
116.220	22.800	979.079	771.334
117.235	22.879	977.268	770.181
118.249	22.813	976.657	769.345
119.264	22.478	976.077	767.359
120.279	22.373	974.890	765.902
121.293	22.291	974.614	765.259
122.308	22.454	972.858	764.522
123.322	22.501	971.719	763.762
124.337	22.438	970.815	762.712
125.352	22.219	970.935	761.789
126.366	22.593	969.855	762.492
127.381	22.486	969.243	761.481
128.395	22.877	968.374	762.419
129.410	23.164	967.301	762.745
130.424	23.041	966.395	761.433
131.439	23.082	966.163	761.360
132.454	22.889	965.533	759.967
133.468	23.319	964.882	761.236
134.483	23.319	963.050	759.721
135.497	23.616	962.703	760.656
136.512	23.335	961.453	758.398
137.527	22.969	961.973	757.170
138.541	23.390	960.698	757.902
139.556	23.450	960.436	757.884
140.570	23.285	959.943	756.725
141.585	24.029	958.045	758.333
142.600	23.837	957.500	757.016
143.614	23.777	957.155	756.422
144.629	24.159	956.323	757.321
145.643	23.868	955.017	754.985
146.658	23.631	954.450	753.464
147.673	23.265	952.971	750.678
148.687	23.321	952.157	750.209
149.702	23.604	949.802	749.481
150.716	23.233	950.116	748.094
151.731	23.572	949.107	748.665
152.746	23.622	948.457	748.299
153.760	23.256	948.271	746.542
154.775	23.515	947.188	746.713
155.789	23.816	946.433	747.316
156.804	23.851	945.336	746.534
157.819	23.627	945.783	745.876
158.833	23.473	945.309	744.793
159.848	24.134	943.947	746.423
160.862	23.830	943.008	744.341
161.877	23.557	941.169	741.683
162.892	23.591	939.844	740.715
163.906	22.679	939.985	736.952
164.921	23.250	938.071	737.768
165.935	23.130	938.593	737.612
166.950	22.974	937.803	736.278
167.964	23.441	936.282	736.959
168.979	23.338	935.073	735.516
169.994	23.231	934.454	734.518
171.008	23.495	934.564	735.634
172.023	23.454	933.797	734.798
173.037	23.689	933.263	735.284
174.052	23.699	931.859	734.154
175.067	23.170	930.995	731.222
176.081	23.106	929.868	730.010
177.096	23.023	929.462	729.282
178.110	22.864	929.594	728.667
179.125	22.695	928.342	726.926
180.140	23.203	926.850	727.783
181.154	23.201	927.447	728.177
182.169	23.750	927.253	730.218
183.183	23.818	927.111	730.321
184.198	23.541	926.336	728.511
185.213	23.594	925.334	727.872
186.227	23.694	924.819	727.814
187.242	23.799	924.390	727.840
188.256	24.112	923.086	728.032
189.271	23.574	923.676	726.230
190.286	23.223	922.454	723.770
191.300	23.062	920.100	721.203
192.315	22.670	919.941	719.414
193.329	22.617	919.401	718.712
194.344	23.147	919.144	720.608
195.359	23.329	919.501	721.567
196.373	23.578	918.666	721.859
197.388	24.109	917.757	723.237
198.402	24.510	916.679	723.950
199.417	24.146	917.746	723.253
200.432	24.162	917.130	722.767
201.446	24.010	916.611	721.679
202.461	24.091	915.889	721.373
203.475	23.963	914.250	719.504
204.490	23.516	913.406	716.966
205.504	23.453	913.618	716.815
206.519	23.914	911.507	716.954
207.534	23.831	911.545	716.586
208.548	23.970	910.187	716.017
209.563	23.752	910.578	715.384
210.577	23.748	909.818	714.705
211.592	24.361	909.786	717.084
212.607	24.447	908.051	715.997
213.621	23.733	909.071	713.868
214.636	24.053	907.901	714.170
215.650	24.055	906.606	713.099
216.665	23.872	906.112	711.913
217.680	23.977	905.890	712.094
218.694	24.246	904.271	711.834
219.709	23.834	903.616	709.612
220.723	23.692	902.390	708.019
221.738	23.729	902.411	708.120
222.753	23.779	902.044	707.972
223.767	24.139	901.191	708.670
224.782	24.239	901.775	709.464
225.796	23.804	901.931	707.794
226.811	24.211	900.325	708.087
227.826	23.239	899.305	703.363
228.840	23.314	898.294	702.809
229.855	23.700	897.360	703.546
230.869	23.601	896.413	702.346
231.884	23.557	896.001	701.790
232.899	23.704	896.013	702.318
233.913	23.586	895.330	701.254
234.928	23.167	894.787	699.113
235.942	23.183	893.185	697.860
236.957	23.217	892.993	697.781
237.972	23.073	892.267	696.585
238.986	23.040	892.467	696.553
240.001	23.078	890.839	695.369
241.015	23.124	890.329	695.091
242.030	23.374	890.414	696.078
243.045	23.658	889.637	696.523
244.059	23.763	889.878	697.060
245.074	23.658	888.961	695.869
246.088	23.706	888.230	695.425
247.103	23.998	888.136	696.431
248.117	24.622	886.789	697.751
249.132	24.552	888.428	698.705
250.147	24.644	888.364	698.954
251.161	24.689	887.310	698.239
252.176	24.873	885.905	697.789
253.190	24.812	885.830	697.431
254.205	24.926	885.408	697.480
255.220	24.967	883.802	696.313
256.234	24.401	884.276	694.421
257.249	24.597	882.953	694.082
258.263	24.521	882.609	693.456
259.278	24.299	882.545	692.480
260.293	24.463	881.654	692.359
261.307	25.082	880.288	693.621
262.322	24.804	879.866	692.149
263.336	24.589	878.655	690.306
264.351	24.235	878.334	688.626
265.366	24.379	877.824	688.720
266.380	24.841	877.689	690.338
267.395	24.691	875.805	688.217
268.409	24.457	876.499	687.799
269.424	24.784	875.499	688.213
270.439	24.717	873.803	686.561
271.453	24.396	874.472	685.791
272.468	24.503	873.190	685.137
273.482	24.882	872.041	685.625
274.497	24.131	872.962	683.410
275.512	24.708	872.180	684.947
276.526	24.808	872.079	685.190
277.541	24.725	871.151	684.082
278.555	24.621	870.717	683.283
279.570	25.227	869.457	684.547
280.585	25.070	868.290	682.970
281.599	24.594	867.590	680.549
282.614	24.230	867.037	678.667
283.628	23.931	867.664	677.957
284.643	24.250	865.949	677.772
285.657	24.582	865.506	678.626
286.672	24.358	865.399	677.631
287.687	24.418	864.386	677.005
288.701	24.748	863.729	677.684
289.716	24.669	863.675	677.280
290.730	24.702	862.627	676.524
291.745	24.984	861.805	676.884
292.760	24.843	861.052	675.702
293.774	25.228	862.168	677.971
294.789	25.176	860.882	676.704
295.803	25.023	859.632	675.087
296.818	24.591	860.017	673.700
297.833	24.660	858.641	672.823
298.847	24.372	858.356	671.457
299.862	24.273	858.581	671.199
300.876	24.659	857.829	672.005
301.891	25.344	857.088	673.934
302.906	25.326	856.500	673.345
303.920	25.556	856.093	673.830
304.935	25.661	855.417	673.629
305.949	25.152	854.786	671.169
306.964	24.904	853.878	669.467
307.979	24.981	853.134	669.116
308.993	25.072	852.854	669.174
310.008	25.120	852.923	669.348
311.022	24.961	852.137	668.080
312.037	24.752	851.680	666.885
313.052	24.406	850.933	664.950
314.066	24.267	849.825	663.508
315.081	24.285	849.717	663.432
316.095	24.533	849.587	664.195
317.110	24.383	848.633	662.832
318.125	24.179	848.149	661.639
319.139	23.761	846.687	658.890
320.154	23.899	846.371	659.097
321.168	24.155	845.478	659.290
322.183	24.520	845.771	660.811
323.197	24.575	845.125	660.453
324.212	24.881	843.986	660.634
325.227	24.243	843.692	657.990
326.241	24.170	842.867	657.020
327.256	24.211	841.779	656.264
328.270	23.925	842.002	655.328
329.285	24.520	840.763	656.491
330.300	24.111	840.007	654.341
331.314	24.140	840.854	655.052
332.329	24.505	840.650	656.174
333.343	24.508	839.666	655.360
334.358	24.964	839.018	656.469
335.373	24.750	839.036	655.640
336.387	24.911	838.642	655.862
337.402	24.941	839.158	656.319
338.416	25.632	837.778	657.710
339.431	25.022	839.259	656.579
340.446	25.433	838.484	657.419
341.460	25.482	837.909	657.088
342.475	25.182	838.326	656.259
343.489	25.303	837.222	655.781
344.504	25.717	836.211	656.442
345.519	25.476	836.136	655.445
346.533	25.836	834.884	655.715
347.548	25.502	835.217	654.704
348.562	25.178	833.765	652.327
349.577	25.568	832.229	652.482
350.592	25.017	832.903	650.954
351.606	24.626	831.697	648.536
352.621	25.104	830.214	649.051
353.635	25.362	829.720	649.541
354.650	24.692	829.961	647.247
355.665	24.819	828.423	646.449
356.679	24.831	829.148	647.002
357.694	24.880	828.151	646.344
358.708	24.712	827.279	645.001
359.723	24.883	826.376	644.854
360.738	24.926	826.220	644.831
361.752	24.933	825.843	644.507
362.767	25.432	825.223	645.760
363.781	25.599	824.460	645.703
364.796	26.034	824.486	647.229
365.810	26.073	824.246	647.122
366.825	25.933	823.514	645.988
367.840	25.834	823.564	645.615
368.854	25.358	822.798	643.253
369.869	25.122	823.344	642.778
370.883	25.463	821.962	642.862
371.898	25.896	821.424	643.930
372.913	25.701	820.848	642.726
373.927	25.369	820.482	641.198
374.942	25.440	819.872	640.917
375.956	25.232	819.822	640.079
376.971	25.979	818.484	641.639
377.986	25.936	819.114	641.923
379.000	26.206	818.341	642.220
380.015	25.527	818.678	640.011
381.029	25.392	817.309	638.404
382.044	25.789	817.114	639.605
383.059	26.275	815.717	640.178
384.073	25.838	813.986	637.217
385.088	25.215	814.427	635.302
386.102	25.093	813.674	634.226
387.117	25.221	812.750	633.901
388.132	25.365	812.160	633.893
389.146	25.125	812.019	632.881
390.161	25.869	812.146	635.550
391.175	26.188	811.808	636.354
392.190	25.591	811.163	633.689
393.205	25.204	809.683	631.114
394.219	24.853	808.791	629.129
395.234	24.658	808.477	628.145
396.248	24.998	808.147	629.028
397.263	24.939	808.089	628.719
398.278	24.727	808.250	628.046
399.292	24.447	807.505	626.429
400.307	24.758	806.516	626.696
401.321	24.950	806.104	626.990
402.336	24.978	806.170	627.085
403.350	25.347	806.508	628.583
404.365	26.092	806.476	631.110
405.380	26.403	804.781	630.814
406.394	26.232	804.896	630.250
407.409	25.995	804.945	629.404
408.423	26.330	804.376	630.073
409.438	25.915	804.480	628.652
410.453	26.119	803.185	628.295
411.467	26.128	802.792	627.965
412.482	26.202	802.155	627.668
413.496	26.260	802.978	628.456
414.511	25.814	802.464	626.449
415.526	26.396	801.658	627.785
416.540	26.405	801.065	627.297
417.555	26.227	800.090	625.860
418.569	26.067	799.845	625.060
419.584	25.773	799.998	624.106
420.599	26.022	799.309	624.375
421.613	161.337	1370.164	1793.922
422.628	140.043	1453.402	1793.976
