DTS Sentinel unit serial number:	SN413079Multiplexer serial number:	ORYXHardware model number:	OX4-SRSoftware version number:	ORYX F/W v4.00 Oryx Data Collector v3.7.2.0data status	okinstallation	princeton_trtdifferential loss correction	single-endedforward channel	channel 1reverse channel	N/Adate	2019/09/13time	06:50:35forward acquisition time	60.00reverse acquisition time	0.00gamma	496.2192k internal	0.2336k external	0.2336temperature offset calibration	1.0160default loss term (dB/km)	0.3790temperature slope calibration	1.0000multiplexer offset coefficient	1.0000multiplexer slope coefficient	1.0000fibre end	0.00T internal ref (°C)	26.00T ext. ref 1 (°C)	4.10T ext. ref 2 (°C)	20.66length (m)	temperature (°C)	Stokes	anti-Stokes-747.200	-177.421	0.130	-0.003
-746.185	-18.617	-0.175	0.109
-745.171	-87.370	-0.198	0.060
-744.156	-200.000	-0.085	0.414
-743.142	-200.000	0.012	0.091
-742.127	-70.550	0.137	0.052
-741.112	-200.000	0.005	-0.296
-740.098	-160.952	-0.326	0.017
-739.083	23.183	0.156	0.129
-738.069	-148.128	0.122	-0.010
-737.054	211.140	0.146	0.230
-736.039	-123.630	-0.169	0.027
-735.025	261.209	-0.086	0.150
-734.010	26.384	-0.201	-0.169
-732.996	-97.205	0.105	-0.027
-731.981	296.185	-0.157	0.289
-730.966	150.836	0.104	-0.142
-729.952	357.015	0.140	-0.279
-728.937	-50.817	0.394	-0.186
-727.923	-54.275	-0.157	0.071
-726.908	-39.483	0.148	-0.078
-725.894	-50.689	-0.194	-0.092
-724.879	-122.199	0.201	0.033
-723.864	-68.549	0.202	0.079
-722.850	800.000	-0.067	0.192
-721.835	279.440	0.122	-0.219
-720.821	-200.000	0.032	-0.248
-719.806	-162.346	-0.188	-0.009
-718.791	414.790	0.044	0.093
-717.777	800.000	-0.119	0.389
-716.762	22.944	-0.209	-0.172
-715.748	800.000	-0.024	0.100
-714.733	-200.000	-0.010	-0.190
-713.718	469.161	-0.119	-0.268
-712.704	-116.082	0.168	0.031
-711.689	-78.374	0.407	-0.140
-710.675	40.244	0.081	0.073
-709.660	800.000	0.123	0.498
-708.645	-18.301	-0.250	0.157
-707.631	20.120	0.131	0.106
-706.616	77.068	0.343	-0.365
-705.602	190.043	0.049	-0.074
-704.587	257.917	0.157	0.271
-703.572	800.000	0.093	-0.300
-702.558	-93.177	-0.634	-0.177
-701.543	-88.615	-0.217	0.065
-700.529	71.781	0.203	0.211
-699.514	21.371	-0.022	-0.018
-698.499	-93.382	0.270	0.075
-697.485	-78.264	-0.051	0.017
-696.470	800.000	-0.132	-0.474
-695.456	320.749	-0.149	0.283
-694.441	54.966	0.213	-0.206
-693.426	-200.000	-0.005	-0.207
-692.412	-25.881	0.145	-0.086
-691.397	-113.278	-0.166	0.033
-690.383	-126.583	-0.088	-0.013
-689.368	710.749	-0.212	-0.561
-688.354	50.436	0.087	-0.083
-687.339	201.237	-0.201	0.309
-686.324	89.555	-0.055	0.062
-685.310	-200.000	0.009	0.223
-684.295	-102.303	-0.305	-0.073
-683.281	-134.053	-0.208	0.026
-682.266	-129.808	-0.161	-0.022
-681.251	116.479	0.040	0.049
-680.237	-80.389	-0.099	-0.033
-679.222	280.221	-0.068	0.121
-678.208	68.915	-0.067	-0.069
-677.193	-200.000	0.025	0.143
-676.178	195.035	-0.109	-0.166
-675.164	800.000	-0.076	-0.306
-674.149	-165.431	0.435	0.019
-673.135	-46.300	0.034	0.017
-672.120	700.544	0.045	-0.119
-671.105	393.274	-0.116	0.242
-670.091	-166.600	-0.265	0.011
-669.076	683.861	-0.040	-0.104
-668.062	-36.742	0.166	-0.090
-667.047	-55.253	-0.285	0.128
-666.032	24.978	0.126	0.105
-665.018	-200.000	0.041	-0.221
-664.003	272.633	0.106	-0.187
-662.989	-32.639	0.346	0.193
-661.974	-54.621	-0.052	-0.024
-660.959	74.082	0.216	0.227
-659.945	95.748	0.042	0.047
-658.930	447.890	-0.093	0.205
-657.916	-174.996	-0.073	-0.002
-656.901	800.000	-0.057	0.158
-655.886	203.339	-0.136	0.211
-654.872	-193.152	-0.414	0.004
-653.857	-73.492	-0.348	0.127
-652.843	66.074	0.060	-0.061
-651.828	800.000	-0.100	-0.360
-650.814	-106.800	0.082	-0.018
-649.799	-169.408	0.189	-0.007
-648.784	12.465	-0.172	0.133
-647.770	-84.481	-0.130	-0.041
-646.755	31.871	0.229	0.197
-645.741	-106.289	0.144	-0.032
-644.726	692.276	-0.127	-0.333
-643.711	-46.815	-0.374	-0.183
-642.697	61.024	0.195	0.193
-641.682	101.601	-0.127	-0.148
-640.668	87.918	-0.253	0.281
-639.653	181.519	0.193	0.284
-638.638	-113.343	-0.177	0.035
-637.624	-144.795	-0.530	0.049
-636.609	800.000	-0.050	0.139
-635.595	-200.000	0.011	0.247
-634.580	800.000	0.036	-0.120
-633.565	227.582	-0.134	0.219
-632.551	86.701	0.371	0.410
-631.536	-200.000	-0.022	-0.250
-630.522	-200.000	0.117	-0.625
-629.507	110.243	0.099	0.119
-628.492	-200.000	-0.018	0.370
-627.478	800.000	-0.099	-0.350
-626.463	-42.785	-0.194	0.099
-625.449	127.351	0.140	-0.177
-624.434	553.137	-0.062	0.148
-623.419	800.000	-0.018	0.078
-622.405	699.292	0.135	0.355
-621.390	-50.827	-0.536	-0.252
-620.376	800.000	0.145	-0.433
-619.361	638.544	-0.097	0.247
-618.346	16.970	-0.127	0.101
-617.332	800.000	0.034	0.130
-616.317	-200.000	0.018	0.349
-615.303	-14.997	0.254	-0.163
-614.288	-9.016	-0.152	0.102
-613.273	-29.542	0.372	0.213
-612.259	20.624	-0.155	0.125
-611.244	-200.000	0.026	-0.139
-610.230	169.141	0.111	-0.159
-609.215	800.000	-0.044	0.161
-608.201	800.000	-0.101	-0.373
-607.186	-113.697	-0.122	-0.024
-606.171	-140.229	-0.293	-0.031
-605.157	253.815	-0.061	-0.103
-604.142	214.034	-0.115	-0.181
-603.128	304.823	0.032	0.060
-602.113	-200.000	0.048	0.254
-601.098	10.963	-0.071	-0.054
-600.084	-131.876	0.283	0.037
-599.069	25.861	0.063	0.052
-598.055	29.136	-0.099	0.084
-597.040	-147.027	0.444	-0.038
-596.025	-123.544	0.272	-0.043
-595.011	-200.000	-0.050	-0.276
-593.996	-84.600	0.328	0.103
-592.982	-200.000	-0.005	-0.113
-591.967	-76.936	0.104	-0.036
-590.952	-119.090	-0.182	-0.032
-589.938	348.200	-0.133	0.261
-588.923	-200.000	-0.038	-0.183
-587.909	-87.200	0.269	0.082
-586.894	-145.464	0.321	-0.029
-585.879	252.908	-0.108	0.184
-584.865	63.890	0.039	0.040
-583.850	308.399	-0.192	-0.358
-582.836	317.847	-0.161	0.304
-581.821	337.055	-0.090	-0.174
-580.806	-77.574	-0.287	0.099
-579.792	-9.523	0.118	-0.078
-578.777	-105.186	-0.347	-0.079
-577.763	162.672	-0.173	-0.243
-576.748	30.525	0.194	-0.166
-575.733	-143.603	-0.176	-0.017
-574.719	139.754	-0.063	-0.083
-573.704	-105.703	-0.368	0.083
-572.690	-200.000	0.017	-0.078
-571.675	-200.000	0.030	-0.177
-570.661	-9.024	-0.249	0.166
-569.646	-144.960	0.341	0.031
-568.631	73.526	0.204	-0.213
-567.617	-57.400	-0.259	-0.114
-566.602	274.748	0.102	0.180
-565.588	353.879	0.079	0.156
-564.573	800.000	-0.053	-0.193
-563.558	141.690	0.220	0.291
-562.544	-109.765	0.169	-0.035
-561.529	20.455	0.291	0.235
-560.515	-120.617	0.286	0.048
-559.500	296.309	0.103	-0.189
-558.485	-43.363	0.202	0.102
-557.471	107.998	0.043	-0.051
-556.456	800.000	-0.051	-0.162
-555.442	-169.904	-0.529	-0.019
-554.427	3.335	-0.153	0.111
-553.412	383.430	-0.087	-0.179
-552.398	-83.171	-0.169	0.054
-551.383	-37.818	0.109	0.058
-550.369	6.763	0.014	0.010
-549.354	637.559	-0.116	0.295
-548.339	-124.063	-0.090	0.014
-547.325	-12.794	0.201	-0.130
-546.310	-29.892	-0.053	0.030
-545.296	20.418	-0.108	-0.087
-544.281	639.596	-0.027	-0.067
-543.266	-165.692	-0.099	0.004
-542.252	-124.434	-0.201	-0.031
-541.237	-115.542	0.181	-0.034
-540.223	-200.000	0.014	-0.070
-539.208	-200.000	-0.000	0.153
-538.193	-200.000	0.055	-0.244
-537.179	271.016	0.087	-0.152
-536.164	588.333	-0.077	0.190
-535.150	-200.000	-0.020	0.367
-534.135	34.512	-0.167	0.145
-533.121	-200.000	0.014	0.105
-532.106	184.240	-0.089	0.131
-531.091	-18.651	-0.156	0.097
-530.077	-139.231	0.363	0.039
-529.062	-58.648	-0.186	-0.080
-528.048	-200.000	-0.004	-0.114
-527.033	-20.177	0.164	0.101
-526.018	72.911	-0.129	0.134
-525.004	341.681	-0.153	-0.298
-523.989	56.143	-0.228	-0.220
-522.975	-42.117	0.347	0.177
-521.960	61.612	-0.242	-0.240
-520.945	97.457	-0.107	-0.122
-519.931	444.707	-0.041	0.090
-518.916	260.000	0.022	-0.038
-517.902	73.884	-0.225	0.235
-516.887	57.601	0.131	-0.127
-515.872	-132.215	-0.299	0.039
-514.858	-76.226	0.063	0.022
-513.843	38.735	0.160	-0.142
-512.829	-200.000	0.067	0.491
-511.814	90.571	-0.084	-0.094
-510.799	117.201	0.223	-0.273
-509.785	-15.920	0.072	-0.045
-508.770	103.843	0.131	0.154
-507.756	47.262	-0.098	0.091
-506.741	-21.798	-0.195	-0.118
-505.726	332.109	0.060	-0.116
-504.712	-38.139	-0.268	0.142
-503.697	32.287	0.100	-0.086
-502.683	-200.000	-0.010	-0.073
-501.668	-66.573	-0.210	-0.083
-500.653	61.988	-0.121	-0.120
-499.639	58.391	-0.149	0.145
-498.624	-81.082	0.302	0.099
-497.610	-77.514	-0.219	0.076
-496.595	800.000	-0.044	0.171
-495.581	-200.000	0.013	0.216
-494.566	747.918	-0.112	-0.299
-493.551	-200.000	-0.049	-0.515
-492.537	276.752	-0.044	0.078
-491.522	-81.232	-0.185	-0.061
-490.508	-200.000	-0.009	-0.066
-489.493	19.324	0.300	0.239
-488.478	9.875	-0.253	-0.191
-487.464	-200.000	-0.005	-0.072
-486.449	58.634	0.093	-0.091
-485.435	50.654	0.138	-0.130
-484.420	-200.000	0.010	0.049
-483.405	368.475	0.093	0.188
-482.391	-200.000	0.027	-0.242
-481.376	-200.000	-0.022	-0.113
-480.362	800.000	0.048	-0.147
-479.347	-200.000	-0.029	0.213
-478.332	371.483	0.077	0.154
-477.318	-78.096	0.076	-0.026
-476.303	-38.240	-0.207	0.109
-475.289	-200.000	0.001	-0.137
-474.274	800.000	-0.024	0.081
-473.259	64.787	0.115	-0.115
-472.245	-85.668	0.291	-0.090
-471.230	-46.563	-0.327	0.159
-470.216	224.614	0.247	0.396
-469.201	6.103	-0.105	0.077
-468.186	-8.799	-0.205	0.137
-467.172	414.476	0.115	0.243
-466.157	-63.751	0.211	-0.086
-465.143	312.142	0.120	-0.224
-464.128	-13.330	-0.038	0.024
-463.113	420.166	-0.060	-0.128
-462.099	-116.102	-0.593	-0.110
-461.084	-200.000	0.074	0.357
-460.070	244.578	0.112	0.187
-459.055	-200.000	-0.033	-0.283
-458.040	800.000	0.126	-0.412
-457.026	310.331	-0.098	0.182
-456.011	216.131	-0.112	-0.177
-454.997	800.000	0.059	-0.246
-453.982	1.724	0.344	0.246
-452.968	508.338	0.128	0.296
-451.953	404.070	-0.142	-0.298
-450.938	-200.000	0.029	-0.345
-449.924	-200.000	-0.057	-0.271
-448.909	-200.000	-0.049	0.284
-447.895	-200.000	-0.032	0.232
-446.880	-121.735	-0.045	-0.007
-445.865	-164.369	-0.239	-0.011
-444.851	-56.429	0.271	0.119
-443.836	-200.000	0.030	-0.235
-442.822	-134.107	0.087	-0.011
-441.807	35.799	0.127	0.111
-440.792	100.646	0.008	0.009
-439.778	77.549	-0.047	0.049
-438.763	41.653	-0.129	-0.116
-437.749	-169.848	-0.322	-0.011
-436.734	-200.000	0.018	0.138
-435.719	32.225	-0.175	-0.150
-434.705	-174.862	0.105	-0.003
-433.690	-35.866	0.291	-0.156
-432.676	26.339	-0.227	0.188
-431.661	-141.728	0.357	-0.036
-430.646	-171.806	-0.084	0.003
-429.632	-39.248	-0.238	-0.124
-428.617	60.858	0.165	-0.162
-427.603	2.863	-0.381	0.275
-426.588	-114.540	0.120	-0.023
-425.573	-200.000	-0.038	0.255
-424.559	-7.186	0.181	0.122
-423.544	-81.534	-0.178	0.058
-422.530	116.934	-0.118	0.144
-421.515	-42.986	-0.104	0.052
-420.500	-200.000	0.011	0.085
-419.486	39.828	0.130	0.116
-418.471	-200.000	0.008	0.077
-417.457	374.383	-0.067	0.136
-416.442	-140.711	0.260	0.027
-415.428	73.101	-0.129	0.134
-414.413	29.224	-0.062	0.052
-413.398	137.220	-0.126	0.164
-412.384	800.000	0.101	0.426
-411.369	-200.000	0.014	-0.207
-410.355	782.005	0.062	0.168
-409.340	402.456	0.206	-0.429
-408.325	673.948	0.067	-0.172
-407.311	9.037	-0.023	0.017
-406.296	46.266	-0.234	0.215
-405.282	37.319	0.241	0.212
-404.267	-112.961	-0.321	-0.063
-403.252	-4.925	0.287	-0.196
-402.238	14.423	0.104	0.080
-401.223	-200.000	0.010	-0.292
-400.209	-154.363	-0.213	0.014
-399.194	-106.468	0.125	-0.028
-398.179	-106.205	0.109	-0.024
-397.165	501.360	-0.086	0.196
-396.150	86.839	-0.165	-0.180
-395.136	-84.730	0.053	-0.017
-394.121	61.528	-0.053	0.053
-393.106	328.160	0.100	-0.189
-392.092	666.278	-0.089	-0.229
-391.077	-135.611	0.324	0.038
-390.063	-38.672	0.187	-0.098
-389.048	800.000	-0.072	-0.222
-388.033	342.001	0.105	0.204
-387.019	-119.782	0.271	0.046
-386.004	-200.000	0.027	0.351
-384.990	-22.388	0.224	0.135
-383.975	-77.458	-0.255	-0.088
-382.960	-151.796	0.255	0.019
-381.946	17.000	-0.078	0.061
-380.931	-101.718	0.156	0.038
-379.917	-114.861	0.364	0.069
-378.902	475.304	0.041	-0.092
-377.888	-136.655	-0.402	-0.046
-376.873	166.667	-0.137	0.193
-375.858	-148.534	0.190	0.015
-374.844	252.951	-0.218	-0.369
-373.829	-141.322	0.106	-0.011
-372.815	-168.053	0.068	0.003
-371.800	507.438	-0.114	0.261
-370.785	7.760	-0.151	-0.112
-369.771	556.216	-0.028	-0.068
-368.756	-84.675	-0.202	-0.063
-367.742	-200.000	0.018	0.200
-366.727	293.587	0.220	-0.398
-365.712	800.000	0.083	0.325
-364.698	-190.877	-0.096	0.001
-363.683	230.199	-0.200	0.324
-362.669	-11.848	-0.182	-0.118
-361.654	-10.985	0.242	-0.158
-360.639	406.649	0.081	0.169
-359.625	-102.237	0.130	-0.031
-358.610	-44.735	0.149	-0.073
-357.596	-200.000	0.000	0.034
-356.581	153.031	0.061	0.083
-355.566	53.144	0.250	-0.237
-354.552	-153.742	-0.105	-0.007
-353.537	-200.000	0.068	-0.341
-352.523	800.000	-0.014	-0.041
-351.508	-76.172	0.119	-0.041
-350.493	-114.311	0.127	0.024
-349.479	-200.000	0.029	0.245
-348.464	-200.000	-0.015	-0.198
-347.450	31.772	-0.085	-0.072
-346.435	36.036	0.289	0.252
-345.420	30.338	-0.252	-0.213
-344.406	238.632	0.132	0.216
-343.391	-12.699	0.061	-0.039
-342.377	800.000	-0.079	-0.310
-341.362	548.607	-0.115	-0.272
-340.348	152.140	-0.148	0.199
-339.333	-200.000	-0.013	-0.265
-338.318	627.359	-0.055	-0.138
-337.304	-200.000	0.051	0.298
-336.289	-200.000	0.000	0.127
-335.275	800.000	-0.055	-0.196
-334.260	-109.870	0.078	-0.016
-333.245	-51.128	-0.134	-0.062
-332.231	-71.362	0.312	0.116
-331.216	219.757	0.194	0.307
-330.202	381.089	0.131	0.265
-329.187	-200.000	0.010	-0.055
-328.172	92.957	0.301	-0.337
-327.158	-75.534	0.408	0.143
-326.143	186.042	-0.251	-0.369
-325.129	800.000	-0.074	-0.267
-324.114	800.000	-0.031	-0.121
-323.099	800.000	0.032	0.129
-322.085	-122.045	-0.238	0.039
-321.070	649.619	-0.094	-0.237
-320.056	65.269	-0.175	0.175
-319.041	-200.000	0.006	-0.173
-318.026	-200.000	-0.067	0.322
-317.012	35.486	-0.106	-0.092
-315.997	130.359	0.153	0.194
-314.983	-75.780	-0.075	-0.026
-313.968	324.052	-0.115	-0.217
-312.953	267.318	-0.102	0.177
-311.939	538.935	0.092	0.215
-310.924	43.366	0.122	0.110
-309.910	50.078	-0.220	-0.205
-308.895	-200.000	-0.036	-0.423
-307.880	-200.000	-0.005	0.173
-306.866	9.997	0.293	-0.220
-305.851	-91.716	-0.271	-0.076
-304.837	166.978	-0.195	-0.273
-303.822	800.000	0.068	0.209
-302.807	-141.202	0.114	0.011
-301.793	45.469	0.085	-0.077
-300.778	-148.693	0.347	0.028
-299.764	-128.573	0.407	-0.057
-298.749	800.000	-0.032	0.123
-297.735	9.868	0.308	-0.231
-296.720	-11.167	0.263	-0.171
-295.705	-200.000	0.004	0.297
-294.691	-200.000	0.026	0.237
-293.676	-200.000	0.069	-0.316
-292.662	800.000	0.093	-0.353
-291.647	12.905	0.402	-0.307
-290.632	-20.122	-0.263	-0.160
-289.618	800.000	-0.027	0.102
-288.603	-191.477	-0.170	0.002
-287.589	1.589	-0.127	-0.090
-286.574	-3.017	0.264	-0.182
-285.559	800.000	-0.039	-0.136
-284.545	-102.075	0.169	-0.040
-283.530	-200.000	0.449	-0.000
-282.516	800.000	0.103	0.338
-281.501	-137.271	-0.128	0.014
-280.486	512.245	-0.023	-0.053
-279.472	642.084	-0.083	-0.208
-278.457	114.255	0.095	-0.114
-277.443	39.951	-0.309	0.273
-276.428	800.000	-0.041	0.152
-275.413	28.290	-0.205	0.171
-274.399	-30.503	0.366	-0.205
-273.384	-200.000	-0.013	0.157
-272.370	411.938	-0.078	0.163
-271.355	432.017	0.033	0.071
-270.340	-132.428	-0.257	-0.033
-269.326	-200.000	-0.070	0.380
-268.311	84.572	-0.148	0.160
-267.297	407.334	-0.118	-0.246
-266.282	-200.000	-0.078	-0.364
-265.267	5.130	0.116	-0.085
-264.253	-104.950	-0.109	0.025
-263.238	-134.118	-0.215	-0.026
-262.224	361.001	-0.055	-0.110
-261.209	800.000	0.126	-0.410
-260.195	-28.213	-0.246	-0.140
-259.180	-199.871	0.113	0.001
-258.165	441.075	0.064	0.139
-257.151	-148.455	0.066	0.005
-256.136	-17.956	-0.189	-0.117
-255.122	-172.090	-0.473	-0.015
-254.107	-81.700	0.263	0.085
-253.092	-26.128	-0.095	-0.055
-252.078	-200.000	0.002	0.141
-251.063	412.911	-0.037	-0.077
-250.049	-91.889	-0.250	-0.070
-249.034	-24.247	-0.276	0.162
-248.019	-1.997	0.231	0.160
-247.005	-200.000	0.096	-0.521
-245.990	-2.075	0.216	0.149
-244.976	124.978	0.173	-0.214
-243.961	796.152	-0.041	0.111
-242.946	-200.000	-0.023	0.159
-241.932	-200.000	-0.120	-0.551
-240.917	248.409	-0.092	-0.154
-239.903	-200.000	0.019	0.094
-238.888	-184.116	-0.120	-0.002
-237.873	310.204	0.066	-0.123
-236.859	285.128	0.194	-0.343
-235.844	-150.924	0.408	0.030
-234.830	703.700	-0.203	0.526
-233.815	399.420	-0.162	0.333
-232.800	73.766	0.087	0.090
-231.786	320.160	-0.046	-0.086
-230.771	800.000	0.030	-0.091
-229.757	-73.394	-0.281	0.101
-228.742	800.000	-0.100	0.280
-227.727	45.922	0.165	0.150
-226.713	-200.000	-0.006	-0.034
-225.698	71.775	-0.123	-0.125
-224.684	-141.456	-0.252	-0.025
-223.669	27.919	0.319	-0.265
-222.655	-103.033	-0.204	0.048
-221.640	-93.098	0.316	-0.087
-220.625	-115.034	0.231	-0.043
-219.611	-4.633	0.095	0.064
-218.596	198.885	-0.081	-0.122
-217.582	124.461	-0.190	-0.235
-216.567	177.099	-0.119	0.170
-215.552	-66.070	0.188	0.074
-214.538	-200.000	-0.000	-0.136
-213.523	270.197	0.122	-0.211
-212.509	-77.782	-0.311	-0.106
-211.494	36.796	-0.145	0.126
-210.479	48.906	-0.123	-0.114
-209.465	770.874	0.067	-0.180
-208.450	-113.898	-0.377	0.072
-207.436	152.694	0.194	0.260
-206.421	-41.628	0.313	-0.158
-205.406	59.035	-0.152	0.147
-204.392	-200.000	0.029	0.270
-203.377	800.000	-0.062	0.192
-202.363	-38.383	-0.089	0.046
-201.348	-107.494	0.159	-0.034
-200.333	316.224	-0.125	0.233
-199.319	-55.722	0.266	-0.117
-198.304	-94.032	0.045	0.012
-197.290	-106.606	0.134	0.029
-196.275	404.260	0.185	0.382
-195.260	-90.072	0.235	0.067
-194.246	185.481	-0.153	0.223
-193.231	-200.000	0.011	0.218
-192.217	800.000	0.046	-0.149
-191.202	-162.548	-0.416	-0.020
-190.187	238.671	0.112	-0.182
-189.173	-78.049	-0.178	0.060
-188.158	-161.369	0.185	-0.009
-187.144	17.101	0.268	-0.209
-186.129	-153.724	-0.277	0.019
-185.114	-72.062	0.080	-0.029
-184.100	-41.131	0.304	0.154
-183.085	-200.000	-0.013	0.077
-182.071	12.086	0.391	0.296
-181.056	-22.237	0.224	0.133
-180.042	165.494	0.085	-0.117
-179.027	269.178	0.041	-0.071
-178.012	-47.004	0.097	0.046
-176.998	-65.762	0.092	-0.036
-175.983	169.765	-0.036	0.050
-174.969	-8.314	-0.267	0.176
-173.954	158.041	-0.237	0.322
-172.939	125.205	-0.128	-0.158
-171.925	-149.677	-0.130	0.010
-170.910	103.445	0.135	0.155
-169.896	-120.285	-0.340	-0.057
-168.881	257.989	0.076	0.129
-167.866	800.000	0.078	-0.306
-166.852	-108.870	-0.194	0.041
-165.837	-54.489	0.207	-0.092
-164.823	78.367	-0.106	0.111
-163.808	82.590	0.146	-0.156
-162.793	527.550	-0.082	0.190
-161.779	342.083	0.122	0.233
-160.764	315.630	-0.127	0.235
-159.750	-12.790	-0.116	-0.074
-158.735	-94.544	-0.171	0.046
-157.720	-10.884	0.108	0.070
-156.706	267.289	-0.045	0.076
-155.691	46.722	0.088	0.080
-154.677	-200.000	-0.045	-0.326
-153.662	-102.321	-0.131	-0.031
-152.647	35.058	0.252	0.217
-151.633	800.000	-0.068	-0.218
-150.618	58.965	0.086	0.083
-149.604	152.405	-0.067	-0.089
-148.589	208.077	0.113	0.173
-147.574	-120.899	-0.539	0.089
-146.560	800.000	0.142	0.445
-145.545	170.997	-0.112	0.157
-144.531	-100.823	0.161	0.039
-143.516	331.883	-0.171	0.324
-142.502	63.467	0.102	-0.100
-141.487	24.953	0.057	0.046
-140.472	-48.485	0.149	0.070
-139.458	800.000	0.033	0.135
-138.443	-106.214	0.058	-0.013
-137.429	-147.823	0.174	-0.014
-136.414	-9.032	0.049	0.032
-135.399	800.000	-0.149	-0.407
-134.385	-53.352	-0.216	0.097
-133.370	86.084	-0.110	0.118
-132.356	-200.000	0.018	-0.275
-131.341	800.000	0.089	-0.252
-130.326	800.000	0.022	0.080
-129.312	-37.476	-0.226	0.118
-128.297	-70.443	0.141	0.052
-127.283	-70.065	-0.113	-0.042
-126.268	-200.000	-0.015	0.177
-125.253	576.427	-0.057	-0.137
-124.239	78.645	0.170	-0.179
-123.224	338.485	-0.138	0.264
-122.210	157.103	0.170	-0.231
-121.195	800.000	0.095	0.270
-120.180	-200.000	-0.001	-0.096
-119.166	-26.310	0.281	-0.162
-118.151	-37.857	0.543	-0.283
-117.137	-200.000	-0.054	0.000
-116.122	187.716	0.080	0.117
-115.107	3.369	-0.201	0.144
-114.093	27.255	-0.282	0.232
-113.078	-200.000	0.048	0.553
-112.064	-200.000	0.029	0.167
-111.049	-200.000	0.015	0.276
-110.034	-127.972	-0.279	0.039
-109.020	689.955	-0.044	-0.114
-108.005	-200.000	0.018	0.120
-106.991	33.791	0.306	-0.260
-105.976	22.665	0.271	-0.218
-104.962	14.731	0.318	-0.244
-103.947	-200.000	0.007	-0.058
-102.932	-69.762	-0.294	-0.110
-101.918	24.066	-0.119	-0.096
-100.903	104.255	0.061	0.071
-99.889	146.066	0.106	-0.139
-98.874	-40.988	-0.186	0.094
-97.859	209.612	-0.095	0.146
-96.845	365.957	0.067	-0.132
-95.830	-104.892	0.228	0.051
-94.816	-200.000	-0.010	0.365
-93.801	516.558	-0.047	0.109
-92.786	0.565	0.114	-0.080
-91.772	396.789	0.165	0.337
-90.757	265.689	-0.019	-0.032
-89.743	-128.057	0.126	0.018
-88.728	800.000	-0.044	0.138
-87.713	-30.042	-0.176	0.098
-86.699	-170.777	0.158	0.005
-85.684	800.000	0.123	0.397
-84.670	276.895	0.140	0.244
-83.655	399.155	-0.155	0.318
-82.640	-121.064	-0.104	0.017
-81.626	188.052	0.045	-0.066
-80.611	42.820	0.164	0.146
-79.597	800.000	0.032	0.123
-78.582	45.937	0.281	-0.254
-77.567	286.074	0.160	-0.282
-76.553	-200.000	-0.054	-0.298
-75.538	-37.642	-0.279	0.145
-74.524	-200.000	0.003	0.105
-73.509	-63.802	-0.345	-0.138
-72.494	-104.132	-0.136	0.031
-71.480	56.041	0.271	0.257
-70.465	375.126	-0.030	0.060
-69.451	-200.000	-0.095	-0.486
-68.436	-200.000	-0.004	0.195
-67.422	191.054	-0.029	0.042
-66.407	-200.000	0.014	0.308
-65.392	-200.000	0.016	0.155
-64.378	128.614	-0.040	0.049
-63.363	800.000	0.073	-0.269
-62.349	8.096	0.139	0.102
-61.334	105.162	-1.009	-1.164
-60.319	-55.288	0.560	0.246
-59.305	328.486	-0.611	-1.147
-58.290	702.306	0.540	1.392
-57.276	800.000	0.485	1.507
-56.261	-200.000	118.415	640.053
-55.246	473.107	1560.082	3437.182
-54.232	173.406	2725.827	3843.466
-53.217	104.586	2155.403	2482.056
-52.203	37.616	1588.061	1377.805
-51.188	29.268	1331.332	1105.213
-50.173	26.569	1292.325	1057.055
-49.159	51.904	1352.431	1258.536
-48.144	50.489	1365.593	1262.278
-47.130	29.428	1318.769	1095.563
-46.115	26.227	1300.441	1061.518
-45.100	25.937	1295.592	1055.817
-44.086	25.839	1293.038	1053.122
-43.071	25.877	1290.850	1051.519
-42.057	25.754	1289.427	1049.603
-41.042	25.787	1287.313	1048.032
-40.027	25.874	1285.542	1047.052
-39.013	25.823	1283.888	1045.367
-37.998	25.908	1281.923	1044.220
-36.984	25.841	1280.173	1042.363
-35.969	25.922	1278.608	1041.518
-34.954	26.112	1276.638	1040.965
-33.940	26.058	1275.398	1039.600
-32.925	26.058	1274.216	1038.600
-31.911	26.086	1272.421	1037.257
-30.896	26.202	1270.420	1036.247
-29.881	26.126	1269.552	1035.064
-28.867	26.134	1268.270	1034.023
-27.852	26.212	1266.676	1033.127
-26.838	26.025	1266.082	1031.535
-25.823	26.077	1264.134	1030.204
-24.809	26.128	1262.603	1029.204
-23.794	26.108	1261.204	1027.913
-22.779	26.156	1260.319	1027.419
-21.765	26.109	1258.977	1026.019
-20.750	26.019	1257.667	1024.401
-19.736	26.028	1256.569	1023.515
-18.721	25.938	1255.235	1021.881
-17.706	26.025	1253.613	1021.008
-16.692	25.933	1253.001	1019.950
-15.677	25.963	1251.877	1019.166
-14.663	25.873	1250.844	1017.773
-13.648	26.004	1249.527	1017.404
-12.633	25.912	1248.855	1016.294
-11.619	25.853	1248.409	1015.563
-10.604	25.917	1247.431	1015.085
-9.590	26.001	1245.933	1014.296
-8.575	25.907	1245.078	1013.033
-7.560	25.898	1244.124	1012.164
-6.546	25.915	1243.470	1011.691
-5.531	25.958	1242.453	1011.065
-4.517	26.014	1241.493	1010.555
-3.502	26.014	1240.769	1009.923
-2.487	25.915	1239.893	1008.617
-1.473	25.953	1235.565	1005.271
-0.458	24.389	1221.078	984.819
0.556	22.589	1204.174	947.661
1.571	18.955	1210.316	932.731
2.586	18.100	1225.084	939.332
3.600	18.040	1213.184	929.800
4.615	13.965	1142.922	854.946
5.629	7.243	1072.477	769.621
6.644	4.342	1054.681	742.911
7.659	4.138	1052.138	740.077
8.673	3.934	1051.270	738.429
9.688	3.997	1049.875	737.682
10.702	4.239	1048.020	737.468
11.717	8.658	1053.568	762.393
12.731	16.237	1064.342	806.471
13.746	21.082	1070.288	834.126
14.761	22.222	1071.320	840.306
15.775	21.406	1069.255	834.719
16.790	20.486	1067.904	829.203
17.804	19.879	1066.377	825.050
18.819	19.607	1065.226	822.790
19.834	19.619	1064.466	822.186
20.848	19.572	1064.269	821.740
21.863	19.389	1063.515	820.214
22.877	19.258	1062.448	818.696
23.892	19.091	1061.817	817.343
24.907	19.118	1060.912	816.705
25.921	19.118	1059.956	815.895
26.936	19.229	1058.089	814.911
27.950	19.140	1057.708	814.128
28.965	19.225	1056.229	813.317
29.980	19.363	1054.487	812.554
30.994	19.397	1053.930	812.214
32.009	19.486	1052.724	811.628
33.023	19.422	1051.972	810.679
34.038	19.412	1050.392	809.342
35.053	19.320	1049.967	808.510
36.067	19.209	1049.198	807.326
37.082	19.172	1048.457	806.514
38.096	19.382	1047.649	806.800
39.111	19.387	1047.058	806.300
40.126	19.175	1046.064	804.472
41.140	18.940	1044.088	801.784
42.155	18.715	1042.920	799.772
43.169	18.716	1042.203	799.153
44.184	18.582	1040.992	797.532
45.199	18.690	1039.804	797.052
46.213	18.973	1038.624	797.388
47.228	19.207	1038.432	798.258
48.242	19.258	1037.446	797.662
49.257	19.211	1036.334	796.520
50.271	19.319	1035.726	796.483
51.286	19.292	1035.321	795.976
52.301	19.238	1033.835	794.513
53.315	19.122	1032.722	793.053
54.330	19.102	1031.532	791.976
55.344	18.932	1031.208	790.877
56.359	19.043	1030.141	790.497
57.374	18.975	1028.821	789.104
58.388	18.719	1028.369	787.512
59.403	18.604	1027.808	786.485
60.417	18.739	1027.179	786.553
61.432	18.737	1026.128	785.671
62.447	18.552	1025.674	784.407
63.461	18.539	1024.379	783.288
64.476	18.652	1023.103	782.758
65.490	18.617	1022.603	782.146
66.505	18.488	1021.790	780.867
67.520	18.561	1021.723	781.080
68.534	18.567	1020.441	780.057
69.549	18.566	1019.822	779.512
70.563	18.469	1018.726	778.165
71.578	18.415	1017.969	777.275
72.593	18.226	1017.218	775.773
73.607	18.211	1016.912	775.404
74.622	18.268	1016.275	775.107
75.636	18.479	1015.260	775.218
76.651	18.610	1014.352	775.050
77.666	18.497	1014.141	774.310
78.680	18.505	1013.487	773.777
79.695	18.655	1012.690	773.778
80.709	18.694	1012.189	773.501
81.724	18.726	1012.052	773.474
82.739	18.869	1011.061	773.291
83.753	19.279	1010.676	774.772
84.768	19.496	1009.744	774.961
85.782	19.568	1009.565	775.080
86.797	19.479	1008.493	773.787
87.812	19.342	1007.023	771.978
88.826	19.456	1006.200	771.791
89.841	19.482	1005.297	771.145
90.855	19.616	1004.615	771.150
91.870	19.584	1003.905	770.397
92.884	19.544	1003.143	769.566
93.899	19.528	1001.997	768.546
94.914	19.651	1001.461	768.616
95.928	19.623	1000.466	767.660
96.943	19.400	999.815	766.099
97.957	19.425	998.411	765.066
98.972	19.386	997.947	764.471
99.987	19.430	997.089	763.942
101.001	19.373	996.302	763.018
102.016	19.360	995.016	761.909
103.030	19.495	994.487	762.035
104.045	19.389	993.763	760.945
105.060	19.126	992.801	758.979
106.074	18.946	991.806	757.358
107.089	18.755	990.327	755.321
108.103	18.701	989.401	754.311
109.118	18.600	988.332	752.987
110.133	18.557	987.540	752.128
111.147	18.578	986.838	751.620
112.162	18.829	985.718	751.799
113.176	18.872	985.133	751.472
114.191	18.783	985.128	751.016
115.206	18.776	984.107	750.140
116.220	18.678	983.553	749.221
117.235	18.695	982.463	748.402
118.249	18.764	981.065	747.569
119.264	18.679	980.415	746.636
120.279	18.637	979.573	745.750
121.293	18.475	978.666	744.289
122.308	18.317	977.924	742.972
123.322	18.324	976.624	741.948
124.337	18.398	975.948	741.692
125.352	18.307	975.054	740.551
126.366	18.396	973.841	739.949
127.381	18.493	972.848	739.547
128.395	18.409	972.287	738.693
129.410	18.484	971.567	738.406
130.424	18.670	970.618	738.418
131.439	18.828	969.906	738.491
132.454	18.903	969.310	738.293
133.468	18.871	968.652	737.592
134.483	18.741	968.165	736.597
135.497	18.847	967.129	736.196
136.512	18.866	966.100	735.430
137.527	18.904	965.219	734.859
138.541	18.972	964.522	734.553
139.556	18.899	964.708	734.316
140.570	18.959	964.396	734.272
141.585	19.272	962.982	734.465
142.600	19.444	961.790	734.220
143.614	19.637	961.148	734.487
144.629	19.615	960.491	733.827
145.643	19.562	959.425	732.722
146.658	19.282	958.467	730.738
147.673	19.140	957.272	729.163
148.687	19.012	956.140	727.692
149.702	18.925	955.879	727.061
150.716	18.894	954.723	725.986
151.731	19.030	953.828	725.817
152.746	18.967	953.733	725.413
153.760	19.096	952.862	725.232
154.775	19.264	952.264	725.418
155.789	19.242	951.544	724.713
156.804	19.248	950.831	724.134
157.819	19.386	950.284	724.230
158.833	19.495	949.941	724.364
159.848	19.590	948.956	723.947
160.862	19.361	948.008	722.200
161.877	18.973	946.962	719.718
162.892	18.954	945.242	718.265
163.906	18.930	944.207	717.316
164.921	18.874	943.928	716.808
165.935	19.055	943.078	716.853
166.950	19.102	942.369	716.446
167.964	19.056	941.267	715.351
168.979	18.910	940.527	714.120
169.994	18.981	939.284	713.408
171.008	19.036	939.215	713.520
172.023	19.453	938.499	714.641
173.037	19.628	937.991	714.916
174.052	19.335	936.962	712.857
175.067	19.045	935.726	710.656
176.081	18.879	935.192	709.501
177.096	18.970	934.521	709.307
178.110	19.007	933.993	708.993
179.125	18.958	933.750	708.543
180.140	19.092	933.284	708.679
181.154	19.244	933.122	709.120
182.169	19.498	932.586	709.695
183.183	19.522	931.871	709.188
184.198	19.538	930.612	708.233
185.213	19.514	930.314	707.843
186.227	19.563	929.819	707.603
187.242	19.558	929.452	707.242
188.256	19.566	929.232	707.046
189.271	19.726	927.976	706.681
190.286	19.238	927.033	703.906
191.300	18.896	925.432	701.236
192.315	18.792	924.736	700.221
193.329	18.851	924.878	700.506
194.344	19.035	924.166	700.655
195.359	19.203	923.482	700.757
196.373	19.338	922.955	700.846
197.388	19.433	922.778	701.033
198.402	19.811	922.254	702.108
199.417	19.690	922.108	701.444
200.432	20.081	921.262	702.325
201.446	20.070	920.932	701.965
202.461	20.185	920.440	701.995
203.475	20.081	919.231	700.591
204.490	19.859	918.294	698.917
205.504	19.550	917.721	697.173
206.519	19.618	916.703	696.610
207.534	19.495	916.456	695.868
208.548	19.472	915.914	695.299
209.563	19.624	915.114	695.242
210.577	19.520	914.661	694.420
211.592	19.983	913.890	695.634
212.607	19.907	913.450	694.930
213.621	19.833	912.359	693.742
214.636	19.747	911.574	692.739
215.650	19.941	911.212	693.179
216.665	19.963	910.565	692.714
217.680	19.960	910.310	692.448
218.694	20.045	909.638	692.216
219.709	20.012	909.030	691.560
220.723	19.905	908.338	690.545
221.738	19.876	907.415	689.665
222.753	19.936	906.831	689.401
223.767	20.098	906.531	689.756
224.782	20.231	906.073	689.875
225.796	20.328	905.552	689.803
226.811	20.154	904.685	688.392
227.826	20.049	903.312	686.870
228.840	20.007	902.727	686.197
229.855	19.984	901.747	685.301
230.869	19.828	901.696	684.585
231.884	19.734	900.880	683.534
232.899	19.664	899.856	682.417
233.913	19.562	899.181	681.444
234.928	19.613	898.558	681.112
235.942	19.588	897.879	680.440
236.957	19.537	897.685	680.029
237.972	19.556	896.892	679.444
238.986	19.585	896.184	678.961
240.001	19.615	895.928	678.824
241.015	19.779	894.978	678.689
242.030	19.788	894.604	678.382
243.045	19.889	894.218	678.426
244.059	19.779	893.924	677.710
245.074	19.763	893.369	677.169
246.088	19.974	892.744	677.460
247.103	20.107	892.029	677.377
248.117	20.446	891.542	678.270
249.132	20.712	891.285	679.054
250.147	20.831	890.781	679.075
251.161	20.840	890.425	678.778
252.176	20.894	889.742	678.406
253.190	20.984	889.326	678.378
254.205	21.054	888.484	677.950
255.220	20.977	887.766	677.040
256.234	20.784	887.344	675.912
257.249	20.874	886.370	675.458
258.263	20.794	885.940	674.762
259.278	20.705	885.005	673.646
260.293	21.029	884.505	674.457
261.307	21.011	884.473	674.304
262.322	21.095	883.438	673.778
263.336	21.027	882.943	673.079
264.351	20.902	882.625	672.296
265.366	21.119	881.502	672.217
266.380	21.004	880.716	671.115
267.395	20.886	880.207	670.216
268.409	20.670	879.335	668.662
269.424	20.718	878.260	667.970
270.439	20.780	877.666	667.695
271.453	20.606	876.804	666.315
272.468	20.500	876.873	665.902
273.482	20.589	876.091	665.591
274.497	20.740	874.950	665.240
275.512	20.570	874.554	664.231
276.526	20.755	874.039	664.489
277.541	20.649	874.163	664.117
278.555	21.026	873.377	664.899
279.570	21.173	872.829	664.984
280.585	21.039	872.293	664.007
281.599	20.935	871.322	662.814
282.614	20.767	870.741	661.674
283.628	20.755	870.022	661.024
284.643	20.895	869.240	660.902
285.657	20.897	868.568	660.343
286.672	20.821	868.173	659.694
287.687	20.943	867.448	659.546
288.701	20.951	866.751	658.990
289.716	21.079	866.070	658.898
290.730	21.005	865.461	658.094
291.745	20.921	865.241	657.552
292.760	20.950	865.131	657.521
293.774	21.041	864.613	657.411
294.789	21.165	863.331	656.843
295.803	20.933	862.540	655.313
296.818	20.762	862.140	654.307
297.833	20.961	861.329	654.383
298.847	20.955	861.054	654.094
299.862	21.060	860.186	653.771
300.876	21.117	860.021	653.797
301.891	21.268	859.541	653.941
302.906	21.294	859.222	653.737
303.920	21.520	858.784	654.192
304.935	21.583	858.293	653.996
305.949	21.500	857.676	653.160
306.964	21.315	856.390	651.431
307.979	21.310	855.828	650.927
308.993	21.517	855.109	651.092
310.008	21.705	854.501	651.273
311.022	21.373	854.136	649.703
312.037	21.258	853.455	648.700
313.052	21.052	852.950	647.495
314.066	20.902	852.364	646.434
315.081	20.741	851.926	645.449
316.095	20.999	851.005	645.650
317.110	20.948	850.525	645.039
318.125	20.911	850.220	644.614
319.139	20.824	849.748	643.878
320.154	20.982	848.863	643.733
321.168	20.957	848.924	643.629
322.183	21.092	848.294	643.593
323.197	21.053	847.589	642.859
324.212	21.175	846.634	642.526
325.227	20.858	846.532	641.225
326.241	21.013	845.640	641.061
327.256	20.947	845.331	640.528
328.270	20.922	844.385	639.663
329.285	20.862	844.302	639.324
330.300	20.974	843.435	639.022
331.314	20.995	843.016	638.726
332.329	21.245	842.258	639.007
333.343	21.391	842.428	639.617
334.358	21.364	842.206	639.292
335.373	21.304	842.050	638.899
336.387	21.372	841.389	638.587
337.402	21.515	841.281	638.972
338.416	21.763	840.869	639.506
339.431	21.780	840.523	639.247
340.446	21.786	839.961	638.786
341.460	22.048	839.700	639.485
342.475	21.947	839.278	638.740
343.489	22.108	838.951	639.021
344.504	22.227	838.534	639.078
345.519	22.170	838.316	638.648
346.533	22.041	837.217	637.287
347.548	21.793	836.726	635.957
348.562	21.604	835.849	634.551
349.577	21.453	835.280	633.515
350.592	21.436	834.425	632.749
351.606	21.478	833.931	632.471
352.621	21.299	833.267	631.265
353.635	21.384	832.661	631.054
354.650	21.493	832.078	630.950
355.665	21.524	831.863	630.844
356.679	21.785	830.661	630.815
357.694	21.614	830.479	630.006
358.708	21.623	829.840	629.498
359.723	21.792	828.980	629.397
360.738	21.635	828.599	628.489
361.752	21.723	828.235	628.472
362.767	21.923	827.461	628.546
363.781	22.136	827.434	629.234
364.796	22.295	826.828	629.286
365.810	22.511	826.103	629.452
366.825	22.302	826.679	629.085
367.840	22.104	825.858	627.698
368.854	22.064	825.001	626.850
369.869	22.103	824.578	626.611
370.883	22.048	824.255	626.113
371.898	22.246	824.108	626.652
372.913	22.485	823.077	626.663
373.927	22.162	822.533	625.046
374.942	22.355	822.008	625.278
375.956	22.395	821.930	625.305
376.971	22.473	821.939	625.533
377.986	22.516	821.359	625.188
379.000	22.697	820.766	625.324
380.015	22.495	819.984	623.957
381.029	22.432	819.366	623.209
382.044	22.516	819.206	623.329
383.059	22.588	818.153	622.727
384.073	22.342	817.541	621.339
385.088	22.130	816.843	620.004
386.102	22.227	816.026	619.670
387.117	22.217	815.397	619.104
388.132	22.157	814.652	618.271
389.146	22.362	814.437	618.776
390.161	22.502	813.970	618.858
391.175	22.410	814.099	618.576
392.190	22.139	813.320	616.977
393.205	22.182	812.561	616.501
394.219	22.166	811.972	615.944
395.234	22.140	811.870	615.719
396.248	21.940	810.884	614.218
397.263	21.767	810.626	613.361
398.278	21.918	810.285	613.579
399.292	21.887	809.876	613.107
400.307	21.918	809.306	612.728
401.321	21.971	808.773	612.457
402.336	22.292	808.163	613.056
403.350	22.368	808.270	613.350
404.365	22.199	808.302	612.732
405.380	22.486	807.987	613.437
406.394	22.682	806.973	613.296
407.409	22.791	806.583	613.323
408.423	22.792	806.737	613.389
409.438	22.800	806.247	612.990
410.453	22.718	805.822	612.330
411.467	22.863	805.159	612.272
412.482	22.837	805.032	612.033
413.496	23.183	804.615	612.861
414.511	23.041	804.033	611.869
415.526	22.931	803.657	611.151
416.540	22.916	803.139	610.649
417.555	23.003	802.371	610.313
418.569	22.805	802.394	609.592
419.584	23.007	801.549	609.593
420.599	23.030	801.363	609.476
421.613	165.606	1372.086	1798.512
422.628	143.965	1455.204	1798.596
