DTS Sentinel unit serial number:	SN413079Multiplexer serial number:	ORYXHardware model number:	OX4-SRSoftware version number:	ORYX F/W v4.00 Oryx Data Collector v3.7.2.0data status	okinstallation	princeton_trtdifferential loss correction	single-endedforward channel	channel 1reverse channel	N/Adate	2019/09/15time	14:10:35forward acquisition time	60.00reverse acquisition time	0.00gamma	496.2192k internal	0.2292k external	0.2292temperature offset calibration	0.9966default loss term (dB/km)	0.3790temperature slope calibration	1.0000multiplexer offset coefficient	1.0000multiplexer slope coefficient	1.0000fibre end	0.00T internal ref (°C)	38.77T ext. ref 1 (°C)	4.95T ext. ref 2 (°C)	35.88length (m)	temperature (°C)	Stokes	anti-Stokes-747.200	-200.000	0.009	-0.162
-746.185	121.827	-0.114	0.145
-745.171	-25.919	0.219	0.132
-744.156	800.000	-0.048	0.200
-743.142	309.435	-0.068	0.129
-742.127	275.960	-0.212	0.385
-741.112	-133.284	0.203	-0.026
-740.098	-200.000	-0.035	0.163
-739.083	800.000	0.057	-0.232
-738.069	-200.000	-0.023	0.251
-737.054	72.454	0.032	0.034
-736.039	-50.744	-0.462	0.223
-735.025	800.000	-0.112	0.461
-734.010	439.299	-0.125	0.279
-732.996	430.591	-0.255	-0.566
-731.981	-29.721	-0.150	0.088
-730.966	1.799	0.093	0.068
-729.952	66.708	-0.168	0.175
-728.937	35.118	0.245	-0.220
-727.923	594.237	-0.137	-0.346
-726.908	-78.770	0.325	-0.113
-725.894	-80.320	0.208	-0.071
-724.879	186.694	-0.139	-0.212
-723.864	2.418	0.113	-0.084
-722.850	87.520	-0.089	-0.100
-721.835	693.170	-0.120	-0.323
-720.821	9.232	-0.263	-0.203
-719.806	-149.464	-0.308	-0.025
-718.791	-58.836	-0.203	-0.090
-717.777	-200.000	0.047	-0.387
-716.762	78.305	0.091	-0.100
-715.748	45.366	0.225	-0.212
-714.733	56.560	-0.330	0.328
-713.718	-101.474	-0.177	-0.044
-712.704	315.487	0.034	-0.065
-711.689	20.488	-0.244	-0.201
-710.675	-200.000	-0.022	-0.158
-709.660	-200.000	-0.010	-0.187
-708.645	432.996	0.114	0.253
-707.631	649.236	0.170	-0.446
-706.616	-156.729	-0.247	-0.016
-705.602	800.000	-0.108	-0.456
-704.587	662.192	-0.053	0.141
-703.572	-166.395	0.102	-0.004
-702.558	-3.023	0.024	0.017
-701.543	-200.000	-0.019	0.166
-700.529	294.692	0.036	0.066
-699.514	-200.000	0.002	-0.211
-698.499	800.000	0.129	-0.431
-697.485	68.776	0.134	0.140
-696.470	-23.154	0.139	0.086
-695.456	800.000	-0.116	-0.436
-694.441	800.000	0.090	-0.302
-693.426	16.558	-0.091	0.074
-692.412	187.071	-0.047	-0.072
-691.397	402.941	-0.013	-0.027
-690.383	473.383	0.067	-0.153
-689.368	-78.692	-0.198	-0.069
-688.354	19.592	0.134	-0.110
-687.339	-200.000	0.021	0.173
-686.324	-200.000	-0.019	-0.220
-685.310	-200.000	-0.012	-0.305
-684.295	-170.245	0.107	-0.004
-683.281	800.000	-0.097	0.277
-682.266	-200.000	0.003	0.034
-681.251	-119.385	-0.142	0.025
-680.237	-49.107	-0.289	0.141
-679.222	-169.421	0.065	-0.002
-678.208	685.785	0.129	-0.345
-677.193	-155.417	-0.342	0.023
-676.178	-200.000	-0.031	0.282
-675.164	92.331	-0.158	-0.181
-674.149	800.000	-0.080	0.233
-673.135	800.000	-0.070	0.214
-672.120	-200.000	0.022	-0.166
-671.105	-78.906	-0.021	-0.007
-670.091	180.373	0.213	-0.319
-669.076	-200.000	-0.031	-0.314
-668.062	31.388	-0.082	-0.072
-667.047	-41.331	-0.264	0.139
-666.032	-20.062	-0.164	0.103
-665.018	22.506	0.315	-0.263
-664.003	201.107	-0.104	-0.163
-662.989	5.425	-0.154	0.116
-661.974	154.334	0.216	0.302
-660.959	-200.000	-0.006	-0.069
-659.945	800.000	0.034	0.134
-658.930	-200.000	-0.027	-0.147
-657.916	-89.806	0.262	0.078
-656.901	800.000	0.014	0.048
-655.886	800.000	0.058	-0.176
-654.872	-114.088	-0.412	-0.081
-653.857	86.471	-0.236	-0.265
-652.843	-85.075	0.380	-0.121
-651.828	-65.250	0.052	-0.021
-650.814	16.762	-0.142	-0.115
-649.799	120.575	0.097	-0.123
-648.784	-30.500	0.095	-0.055
-647.770	-128.106	-0.314	-0.046
-646.755	-101.805	0.449	-0.111
-645.741	-125.629	0.330	0.051
-644.726	-110.803	0.244	-0.051
-643.711	-136.767	0.018	-0.002
-642.697	285.191	-0.136	0.250
-641.682	800.000	0.101	-0.348
-640.668	165.472	0.069	0.099
-639.653	-200.000	-0.010	0.076
-638.638	-200.000	-0.010	0.104
-637.624	-200.000	-0.013	0.174
-636.609	-117.282	-0.306	-0.057
-635.595	238.589	0.174	0.295
-634.580	0.555	0.165	-0.120
-633.565	-200.000	-0.017	-0.132
-632.551	-46.547	-0.528	-0.264
-631.536	384.202	0.064	0.134
-630.522	-100.924	0.310	0.078
-629.507	-200.000	0.017	0.315
-628.492	164.543	0.085	0.122
-627.478	330.939	-0.184	-0.360
-626.463	196.134	0.123	-0.191
-625.449	10.082	-0.285	-0.221
-624.434	-116.655	-0.395	0.074
-623.419	90.050	0.064	0.073
-622.405	38.671	0.145	0.132
-621.390	-94.281	-0.255	-0.071
-620.376	499.515	-0.032	-0.076
-619.361	-50.185	-0.038	-0.018
-618.346	414.416	0.112	-0.243
-617.332	-200.000	0.058	-0.318
-616.317	171.544	0.204	0.298
-615.303	-200.000	0.009	-0.101
-614.288	-1.042	-0.194	-0.140
-613.273	-86.602	-0.180	0.056
-612.259	480.163	-0.033	0.075
-611.244	19.646	-0.081	-0.066
-610.230	65.070	0.052	0.053
-609.215	104.547	-0.225	-0.270
-608.201	800.000	-0.025	-0.081
-607.186	-87.291	-0.191	-0.059
-606.171	279.617	-0.021	0.037
-605.157	26.786	0.146	0.124
-604.142	800.000	-0.068	-0.291
-603.128	173.944	-0.095	-0.140
-602.113	182.793	0.121	-0.182
-601.098	289.464	-0.148	0.273
-600.084	-200.000	-0.017	-0.242
-599.069	-105.462	-0.332	-0.077
-598.055	7.128	-0.233	-0.177
-597.040	-52.609	-0.106	-0.050
-596.025	-200.000	-0.038	0.225
-595.011	-89.624	-0.177	-0.053
-593.996	-121.604	-0.040	-0.007
-592.982	-97.014	0.092	0.025
-591.967	-200.000	-0.042	-0.283
-590.952	-200.000	0.015	-0.118
-589.938	491.642	0.163	-0.380
-588.923	-189.996	0.066	-0.001
-587.909	-43.048	0.208	-0.107
-586.894	-65.839	-0.074	0.030
-585.879	-200.000	0.027	0.135
-584.865	87.004	-0.147	-0.166
-583.850	800.000	-0.086	-0.260
-582.836	-111.009	-0.085	0.018
-581.821	-120.368	-0.398	-0.069
-580.806	181.992	0.145	0.218
-579.792	51.056	-0.079	-0.076
-578.777	-200.000	-0.025	0.307
-577.763	-159.056	0.192	-0.011
-576.748	-139.390	-0.193	0.021
-575.733	1.750	-0.114	-0.084
-574.719	709.218	0.036	0.098
-573.704	98.898	-0.206	-0.242
-572.690	-46.045	-0.134	-0.067
-571.675	-200.000	0.057	0.349
-570.661	-178.586	-0.108	-0.003
-569.646	-200.000	0.043	0.293
-568.631	-107.120	-0.122	-0.027
-567.617	-200.000	0.009	-0.220
-566.602	-200.000	0.052	-0.257
-565.588	63.092	-0.281	0.286
-564.573	45.305	0.270	-0.253
-563.558	-12.653	-0.120	-0.079
-562.544	-63.972	0.233	0.097
-561.529	800.000	0.035	0.142
-560.515	149.013	-0.220	0.303
-559.500	170.675	-0.010	0.015
-558.485	275.695	0.181	0.326
-557.471	-41.865	0.144	0.075
-556.456	-38.662	-0.295	-0.158
-555.442	219.453	0.022	-0.037
-554.427	520.982	0.103	0.246
-553.412	800.000	-0.015	0.060
-552.398	-113.897	0.027	-0.005
-551.383	-122.905	0.253	0.041
-550.369	-190.797	0.360	-0.004
-549.354	-133.163	-0.132	0.017
-548.339	-160.598	-0.120	0.007
-547.325	-160.253	0.356	0.020
-546.310	129.521	0.152	-0.197
-545.296	245.098	-0.073	-0.125
-544.281	421.354	-0.107	-0.234
-543.266	-141.841	-0.091	0.009
-542.252	-200.000	-0.013	-0.225
-541.237	-118.562	-0.315	-0.057
-540.223	27.127	-0.125	0.106
-539.208	800.000	-0.027	0.097
-538.193	800.000	-0.046	-0.134
-537.179	-82.862	0.291	-0.095
-536.164	-54.072	-0.104	0.048
-535.150	-96.679	-0.261	-0.070
-534.135	-68.457	0.251	-0.099
-533.121	-13.602	0.106	-0.069
-532.106	582.373	0.079	-0.197
-531.091	-200.000	0.021	-0.182
-530.077	-200.000	-0.026	-0.315
-529.062	-200.000	-0.014	-0.150
-528.048	-58.441	0.309	0.136
-527.033	133.804	-0.148	0.194
-526.018	-97.730	0.063	-0.016
-525.004	-102.849	0.259	-0.063
-523.989	-96.899	0.247	0.066
-522.975	-79.048	0.167	0.058
-521.960	800.000	0.121	0.430
-520.945	750.589	0.088	-0.241
-519.931	-174.591	-0.077	0.002
-518.916	-72.973	-0.392	-0.146
-517.902	-81.483	-0.164	0.055
-516.887	273.097	0.095	0.169
-515.872	4.630	-0.205	0.153
-514.858	36.464	-0.090	-0.081
-513.843	-11.475	0.129	0.086
-512.829	-200.000	-0.018	0.203
-511.814	-14.480	0.194	-0.127
-510.799	91.511	-0.179	-0.203
-509.785	623.134	-0.170	0.434
-508.770	100.242	-0.160	-0.188
-507.756	-28.329	0.115	0.067
-506.741	-125.216	0.114	-0.018
-505.726	-20.904	-0.120	0.074
-504.712	-200.000	-0.011	0.126
-503.697	-200.000	-0.017	-0.273
-502.683	800.000	-0.087	-0.367
-501.668	-200.000	0.002	-0.327
-500.653	324.852	-0.098	-0.189
-499.639	5.011	-0.129	-0.096
-498.624	-2.345	-0.122	0.087
-497.610	-7.496	-0.191	0.131
-496.595	-63.657	0.188	0.078
-495.581	224.284	0.094	0.154
-494.566	109.031	-0.098	0.119
-493.551	-33.374	-0.125	-0.070
-492.537	-75.801	0.224	-0.081
-491.522	-32.227	0.118	0.067
-490.508	10.270	0.034	0.026
-489.493	354.808	-0.045	0.091
-488.478	-198.636	-0.116	-0.001
-487.464	-200.000	-0.023	-0.160
-486.449	-151.810	-0.201	0.015
-485.435	115.730	-0.122	0.151
-484.420	800.000	-0.050	0.210
-483.405	286.135	-0.170	-0.311
-482.391	-200.000	-0.033	0.236
-481.376	576.220	-0.142	0.351
-480.362	-200.000	-0.032	-0.157
-479.347	731.710	0.081	0.220
-478.332	22.869	-0.065	-0.054
-477.318	-49.939	0.208	-0.100
-476.303	57.126	0.172	-0.170
-475.289	715.003	-0.044	0.118
-474.274	-40.274	0.075	-0.040
-473.259	387.758	0.032	0.067
-472.245	800.000	-0.068	-0.255
-471.230	800.000	0.038	-0.117
-470.216	-16.399	0.158	-0.101
-469.201	800.000	0.142	-0.415
-468.186	-18.608	-0.249	0.157
-467.172	-141.719	0.200	-0.020
-466.157	-29.908	0.152	0.088
-465.143	-27.004	-0.184	0.109
-464.128	20.292	0.172	0.141
-463.113	129.497	-0.040	0.051
-462.099	-2.443	-0.153	-0.108
-461.084	-90.662	0.146	0.043
-460.070	-48.918	-0.165	0.080
-459.055	-65.200	0.035	0.014
-458.040	-102.188	-0.242	0.059
-457.026	16.069	-0.062	0.049
-456.011	-119.406	-0.229	0.040
-454.997	124.983	-0.065	0.082
-453.982	-200.000	0.038	0.190
-452.968	-200.000	-0.059	0.268
-451.953	-7.023	-0.247	-0.170
-450.938	-77.216	0.157	0.055
-449.924	-101.480	-0.332	-0.082
-448.909	800.000	0.084	-0.251
-447.895	800.000	-0.082	0.236
-446.880	760.971	0.063	0.173
-445.865	172.364	-0.118	-0.172
-444.851	-167.117	0.141	-0.006
-443.836	-116.061	0.152	-0.029
-442.822	-109.134	0.114	0.024
-441.807	510.233	0.053	-0.124
-440.792	108.200	-0.103	-0.125
-439.778	-200.000	-0.019	0.356
-438.763	13.124	0.398	-0.311
-437.749	800.000	-0.064	-0.203
-436.734	-200.000	-0.022	0.221
-435.719	-200.000	-0.016	-0.116
-434.705	20.390	0.044	0.036
-433.690	145.107	-0.236	0.319
-432.676	-12.096	0.426	0.282
-431.661	800.000	-0.068	0.254
-430.646	-97.003	0.160	0.042
-429.632	512.689	0.095	-0.224
-428.617	-100.909	-0.314	0.078
-427.603	-146.557	0.254	-0.022
-426.588	-86.800	-0.325	0.100
-425.573	-79.905	-0.343	0.117
-424.559	-21.240	-0.239	-0.147
-423.544	-158.802	0.084	0.005
-422.530	-93.789	-0.399	-0.111
-421.515	56.294	0.206	0.202
-420.500	-81.495	-0.315	0.105
-419.486	-15.900	-0.279	-0.180
-418.471	42.249	0.119	0.109
-417.457	85.452	-0.092	0.102
-416.442	-45.964	0.131	0.065
-415.428	489.990	-0.097	-0.224
-414.413	-147.879	0.109	0.009
-413.398	-74.457	0.170	-0.062
-412.384	-75.316	-0.114	0.041
-411.369	-103.983	-0.277	-0.065
-410.355	-200.000	0.006	-0.230
-409.340	219.477	0.100	-0.162
-408.325	-147.764	-0.258	0.022
-407.311	-66.948	0.026	-0.010
-406.296	142.654	0.095	-0.127
-405.282	390.032	-0.085	0.177
-404.267	-200.000	0.019	0.259
-403.252	60.798	0.213	0.214
-402.238	-200.000	0.035	-0.300
-401.223	800.000	-0.056	-0.170
-400.209	-125.508	-0.124	0.019
-399.194	-57.510	0.352	0.156
-398.179	-200.000	-0.059	0.321
-397.165	-60.597	0.202	0.086
-396.150	99.255	-0.220	0.257
-395.136	-200.000	-0.017	0.196
-394.121	279.639	0.209	-0.376
-393.106	114.446	0.163	-0.201
-392.092	-98.127	-0.199	-0.052
-391.077	800.000	0.018	-0.069
-390.063	3.330	-0.071	0.052
-389.048	28.247	-0.145	-0.123
-388.033	-200.000	-0.053	0.459
-387.019	-19.441	0.173	-0.108
-386.004	-143.443	0.323	-0.031
-384.990	552.291	-0.137	0.333
-383.975	800.000	-0.081	0.284
-382.960	-63.886	-0.040	-0.017
-381.946	74.196	-0.129	-0.137
-380.931	-139.306	0.167	-0.018
-379.917	-26.516	-0.076	-0.045
-378.902	800.000	0.132	-0.399
-377.888	159.350	-0.127	0.179
-376.873	285.405	-0.136	0.247
-375.858	-71.731	-0.097	0.037
-374.844	-89.156	0.441	-0.131
-373.829	737.765	0.052	0.141
-372.815	800.000	-0.108	0.317
-371.800	5.352	-0.093	0.069
-370.785	105.890	0.074	-0.089
-369.771	-37.642	-0.083	-0.045
-368.756	800.000	-0.021	-0.070
-367.742	362.241	0.153	0.310
-366.727	444.247	0.101	-0.223
-365.712	-88.053	-0.110	-0.033
-364.698	800.000	-0.023	0.073
-363.683	163.811	0.113	0.161
-362.669	800.000	-0.026	-0.110
-361.654	-100.162	-0.281	0.070
-360.639	-142.805	-0.023	-0.002
-359.625	407.208	-0.101	0.215
-358.610	-200.000	0.023	-0.340
-357.596	-96.436	-0.140	-0.037
-356.581	-165.073	-0.264	0.012
-355.566	800.000	-0.066	-0.223
-354.552	-200.000	-0.004	0.061
-353.537	-22.587	0.384	-0.234
-352.523	-183.282	0.130	-0.002
-351.508	264.423	-0.128	-0.225
-350.493	-145.547	-0.296	0.027
-349.479	530.555	-0.073	0.174
-348.464	-200.000	-0.048	0.455
-347.450	-38.767	-0.390	0.207
-346.435	59.567	0.050	-0.050
-345.420	-200.000	-0.026	-0.171
-344.406	84.716	-0.045	0.049
-343.391	-200.000	-0.030	-0.294
-342.377	-8.351	-0.043	-0.029
-341.362	-129.243	0.114	-0.016
-340.348	401.811	-0.218	-0.461
-339.333	144.680	0.097	0.130
-338.318	-147.810	0.070	0.006
-337.304	-141.686	0.111	0.011
-336.289	192.878	0.188	0.287
-335.275	800.000	-0.066	0.212
-334.260	-200.000	-0.038	-0.288
-333.245	13.587	-0.207	0.162
-332.231	-50.397	0.212	-0.101
-331.216	-1.272	0.121	0.086
-330.202	141.292	0.174	0.232
-329.187	357.741	0.151	-0.303
-328.172	800.000	0.066	-0.267
-327.158	-20.234	0.156	-0.097
-326.143	322.265	0.116	0.222
-325.129	-200.000	0.005	-0.077
-324.114	36.516	0.227	0.202
-323.099	51.475	0.143	0.136
-322.085	800.000	0.040	0.112
-321.070	-145.125	0.358	0.033
-320.056	-136.103	-0.239	0.028
-319.041	-185.720	0.303	0.005
-318.026	-117.669	0.191	-0.035
-317.012	285.704	-0.153	-0.277
-315.997	-88.864	-0.192	0.057
-314.983	-12.620	-0.298	-0.196
-313.968	221.036	-0.139	0.224
-312.953	-89.693	-0.217	0.064
-311.939	-134.465	-0.209	-0.026
-310.924	-155.630	-0.232	0.015
-309.910	-65.283	0.174	-0.071
-308.895	-146.680	0.354	0.031
-307.880	-74.195	-0.386	0.140
-306.866	118.024	-0.164	-0.203
-305.851	613.606	-0.117	0.296
-304.837	-2.735	0.131	-0.092
-303.822	-39.816	0.215	-0.113
-302.807	-200.000	-0.079	-0.418
-301.793	-111.716	0.222	-0.045
-300.778	450.582	0.072	0.161
-299.764	-97.148	-0.140	-0.037
-298.749	-64.482	0.309	0.126
-297.735	60.082	-0.171	0.170
-296.720	75.639	-0.216	0.229
-295.705	26.038	-0.206	-0.173
-294.691	78.928	0.344	-0.371
-293.676	199.007	0.114	0.176
-292.662	800.000	0.117	-0.493
-291.647	-200.000	-0.030	-0.239
-290.632	800.000	-0.092	0.318
-289.618	-61.144	0.089	-0.038
-288.603	71.580	-0.146	0.153
-287.589	128.660	0.170	-0.218
-286.574	-37.426	0.136	-0.073
-285.559	374.717	0.029	-0.059
-284.545	-14.986	-0.424	-0.273
-283.530	-200.000	-0.013	0.179
-282.516	102.755	0.029	0.034
-281.501	-50.429	-0.103	-0.049
-280.486	800.000	0.063	0.233
-279.472	-194.132	0.064	0.001
-278.457	-200.000	-0.012	-0.129
-277.443	-200.000	0.046	0.370
-276.428	800.000	0.084	-0.239
-275.413	-79.004	-0.082	-0.028
-274.399	511.267	-0.031	-0.073
-273.384	800.000	0.132	-0.371
-272.370	-2.915	0.165	0.116
-271.355	35.390	0.262	0.231
-270.340	27.978	0.224	0.190
-269.326	205.804	-0.238	0.372
-268.311	-43.109	0.563	0.287
-267.297	190.032	0.135	-0.203
-266.282	3.372	-0.259	0.190
-265.267	-200.000	0.046	0.383
-264.253	27.782	-0.146	0.123
-263.238	313.372	-0.218	0.412
-262.224	-48.972	-0.388	-0.187
-261.209	-200.000	0.057	-0.256
-260.195	5.237	-0.061	0.045
-259.180	297.580	-0.158	0.291
-258.165	800.000	0.059	0.186
-257.151	800.000	0.043	0.126
-256.136	-200.000	0.012	-0.159
-255.122	-179.844	0.114	0.002
-254.107	-200.000	0.013	-0.227
-253.092	14.668	0.092	-0.072
-252.078	58.241	0.146	-0.144
-251.063	-34.150	0.117	0.065
-250.049	-200.000	0.033	-0.178
-249.034	-82.908	0.086	-0.028
-248.019	205.528	0.105	-0.164
-247.005	541.199	-0.020	0.049
-245.990	-200.000	-0.003	-0.136
-244.976	-200.000	0.051	-0.273
-243.961	-94.641	0.330	-0.090
-242.946	-78.312	-0.197	0.068
-241.932	-200.000	-0.009	0.146
-240.917	177.942	0.075	-0.110
-239.903	205.844	-0.179	-0.279
-238.888	56.323	0.167	0.163
-237.873	-4.978	-0.116	0.080
-236.859	-140.256	0.419	0.044
-235.844	60.722	0.103	0.102
-234.830	-84.544	-0.292	-0.092
-233.815	-200.000	0.009	0.232
-232.800	82.747	-0.120	0.131
-231.786	182.435	0.103	-0.152
-230.771	-200.000	0.005	-0.072
-229.757	201.371	0.101	0.156
-228.742	-186.751	0.269	0.004
-227.727	-175.306	0.302	-0.008
-226.713	566.315	0.057	0.138
-225.698	640.237	-0.032	-0.083
-224.684	396.188	0.118	0.246
-223.669	-200.000	0.009	-0.301
-222.655	248.241	0.154	-0.261
-221.640	218.212	0.155	-0.248
-220.625	-23.452	0.107	0.064
-219.611	-80.997	0.062	-0.021
-218.596	-200.000	0.006	-0.059
-217.582	129.571	0.244	-0.312
-216.567	-162.884	0.053	-0.003
-215.552	115.976	0.124	-0.153
-214.538	47.688	-0.126	0.118
-213.523	87.151	0.195	0.216
-212.509	233.680	0.113	0.187
-211.494	800.000	-0.017	-0.068
-210.479	-39.604	0.187	-0.098
-209.465	800.000	0.047	-0.186
-208.450	211.539	-0.085	0.134
-207.436	-112.027	0.475	0.096
-206.421	210.280	-0.069	-0.108
-205.406	-15.671	0.234	-0.149
-204.392	25.333	0.150	-0.125
-203.377	78.791	-0.416	0.446
-202.363	281.859	0.075	-0.135
-201.348	-33.293	-0.086	0.048
-200.333	-200.000	0.002	0.347
-199.319	-22.788	-0.137	-0.083
-198.304	800.000	-0.048	0.200
-197.290	-176.370	0.159	0.004
-196.275	70.165	-0.044	0.045
-195.260	-200.000	0.002	0.322
-194.246	394.183	-0.059	-0.124
-193.231	-82.581	-0.111	0.036
-192.217	-21.824	-0.108	-0.066
-191.202	-149.188	-0.124	0.010
-190.187	-82.537	-0.220	0.072
-189.173	356.442	-0.136	-0.272
-188.158	800.000	-0.087	0.270
-187.144	-17.679	0.118	0.074
-186.129	403.552	0.083	-0.175
-185.114	608.376	-0.007	-0.018
-184.100	52.974	0.198	0.190
-183.085	26.437	-0.084	-0.070
-182.071	800.000	-0.040	-0.155
-181.056	-44.671	-0.149	-0.074
-180.042	800.000	-0.039	-0.114
-179.027	-63.370	0.035	0.015
-178.012	445.297	-0.032	0.070
-176.998	6.669	-0.171	0.127
-175.983	-90.441	0.294	-0.085
-174.969	-75.428	0.203	-0.073
-173.954	800.000	-0.132	-0.372
-172.939	-200.000	-0.015	0.124
-171.925	162.704	0.056	0.078
-170.910	108.855	0.160	-0.191
-169.896	-102.823	-0.170	-0.040
-168.881	-144.735	0.256	0.024
-167.866	800.000	0.038	-0.162
-166.852	176.736	-0.255	0.372
-165.837	-200.000	-0.016	-0.116
-164.823	54.934	0.160	-0.155
-163.808	-200.000	0.004	-0.029
-162.793	-200.000	-0.003	0.135
-161.779	800.000	0.059	0.231
-160.764	567.404	-0.155	0.376
-159.750	-147.691	0.300	0.025
-158.735	-122.541	0.198	-0.032
-157.720	244.156	0.119	0.200
-156.706	800.000	0.017	0.047
-155.691	231.520	-0.173	0.283
-154.677	168.353	0.058	0.083
-153.662	88.232	0.123	0.136
-152.647	-145.309	-0.133	-0.012
-151.633	267.964	-0.082	-0.144
-150.618	-200.000	-0.010	-0.153
-149.604	-64.118	-0.111	0.045
-148.589	-51.718	0.341	-0.159
-147.574	-85.040	0.414	0.130
-146.560	-54.103	-0.043	-0.019
-145.545	196.850	-0.120	0.183
-144.531	-200.000	0.027	0.178
-143.516	11.711	0.159	0.122
-142.502	258.408	0.223	-0.385
-141.487	-85.488	0.198	-0.061
-140.472	-200.000	0.001	0.165
-139.458	-38.448	0.223	-0.118
-138.443	-88.291	0.153	-0.046
-137.429	362.677	-0.040	0.079
-136.414	99.317	0.086	0.099
-135.399	36.484	0.236	-0.208
-134.385	-200.000	-0.040	0.245
-133.370	-9.723	-0.216	-0.144
-132.356	272.726	0.109	0.193
-131.341	505.546	0.055	0.128
-130.326	800.000	0.037	0.113
-129.312	80.510	-0.045	-0.048
-128.297	145.573	0.140	-0.187
-127.283	-34.775	-0.173	-0.095
-126.268	-66.280	0.346	0.138
-125.253	619.179	-0.090	0.225
-124.239	-200.000	-0.081	-0.368
-123.224	-98.833	0.181	0.046
-122.210	-200.000	0.005	-0.256
-121.195	46.267	-0.149	0.138
-120.180	-200.000	0.042	0.211
-119.166	-200.000	0.037	-0.190
-118.151	800.000	0.074	0.221
-117.137	-105.649	-0.242	-0.055
-116.122	-200.000	-0.000	-0.209
-115.107	800.000	0.087	-0.252
-114.093	-43.593	0.220	0.111
-113.078	800.000	0.083	-0.262
-112.064	-129.989	0.073	-0.010
-111.049	800.000	-0.066	0.268
-110.034	195.415	-0.283	0.429
-109.020	-200.000	-0.050	-0.291
-108.005	242.608	0.203	0.340
-106.991	110.858	0.057	-0.068
-105.976	-93.207	0.044	-0.012
-104.962	-72.018	0.284	-0.106
-103.947	-90.520	0.065	-0.019
-102.932	-200.000	0.006	-0.143
-101.918	-27.352	-0.279	-0.162
-100.903	32.291	-0.152	-0.131
-99.889	-154.586	-0.105	-0.007
-98.874	-200.000	0.192	0.001
-97.859	799.565	0.071	-0.196
-96.845	411.409	-0.175	-0.370
-95.830	-200.000	0.206	-0.000
-94.816	-38.808	0.282	-0.149
-93.801	3.737	0.447	-0.326
-92.786	21.412	0.215	-0.175
-91.772	298.001	-0.085	0.156
-90.757	-57.759	-0.240	-0.105
-89.743	-200.000	-0.000	-0.135
-88.728	268.121	-0.119	-0.209
-87.713	-130.024	-0.538	0.073
-86.699	169.776	0.091	-0.129
-85.684	346.161	0.090	0.177
-84.670	49.485	0.141	0.132
-83.655	-200.000	0.025	-0.268
-82.640	-42.005	0.371	-0.189
-81.626	-33.004	-0.036	-0.020
-80.611	451.047	0.118	-0.259
-79.597	420.036	-0.091	-0.195
-78.582	-183.478	-0.194	0.003
-77.567	21.879	0.107	0.087
-76.553	54.402	-0.108	-0.104
-75.538	-148.525	-0.047	0.004
-74.524	-200.000	-0.027	-0.266
-73.509	23.379	0.251	0.205
-72.494	-92.461	-0.062	0.017
-71.480	-200.000	-0.020	0.112
-70.465	-55.635	0.283	-0.126
-69.451	169.796	0.114	-0.163
-68.436	-200.000	0.049	-0.320
-67.422	-58.993	-0.145	0.063
-66.407	429.919	-0.142	0.307
-65.392	-200.000	-0.010	-0.131
-64.378	484.532	-0.015	0.035
-63.363	-200.000	0.011	0.182
-62.349	-200.000	0.024	0.666
-61.334	181.553	-0.474	-0.694
-60.319	-17.718	0.285	0.178
-59.305	410.664	-0.468	-0.988
-58.290	145.222	0.547	0.730
-57.276	-200.000	0.346	1.691
-56.261	-200.000	80.454	505.201
-55.246	543.028	1374.461	3266.550
-54.232	181.243	2602.982	3812.255
-53.217	120.301	2246.753	2778.358
-52.203	49.787	1695.497	1591.899
-51.188	42.197	1426.478	1290.637
-50.173	38.953	1382.220	1230.258
-49.159	56.950	1420.232	1378.496
-48.144	62.127	1438.922	1429.381
-47.130	42.714	1400.820	1270.490
-46.115	38.853	1384.390	1231.365
-45.100	38.664	1379.642	1225.911
-44.086	38.658	1376.603	1223.125
-43.071	38.446	1375.043	1220.367
-42.057	38.646	1372.498	1219.307
-41.042	38.623	1370.604	1217.432
-40.027	38.697	1369.178	1216.577
-39.013	38.628	1367.626	1214.719
-37.998	38.554	1365.940	1212.718
-36.984	38.651	1363.880	1211.436
-35.969	38.816	1361.520	1210.314
-34.954	38.862	1359.966	1209.170
-33.940	38.828	1358.680	1207.770
-32.925	38.938	1357.015	1206.915
-31.911	38.891	1355.689	1205.399
-30.896	38.931	1354.396	1204.449
-29.881	38.873	1352.675	1202.513
-28.867	38.821	1351.117	1200.763
-27.852	38.920	1350.077	1200.394
-26.838	38.884	1348.346	1198.590
-25.823	38.790	1347.012	1196.785
-24.809	38.961	1345.404	1196.351
-23.794	38.771	1344.312	1194.174
-22.779	38.772	1342.694	1192.693
-21.765	38.900	1341.203	1192.098
-20.750	38.917	1339.867	1190.970
-19.736	38.747	1338.426	1188.608
-18.721	38.660	1337.564	1187.268
-17.706	38.759	1336.102	1186.523
-16.692	38.774	1334.663	1185.288
-15.677	38.698	1334.262	1184.431
-14.663	38.726	1333.077	1183.498
-13.648	38.634	1332.035	1181.968
-12.633	38.645	1331.117	1181.176
-11.619	38.641	1329.832	1179.962
-10.604	38.765	1328.764	1179.717
-9.590	38.713	1327.996	1178.677
-8.575	38.688	1326.950	1177.547
-7.560	38.680	1326.219	1176.808
-6.546	38.775	1325.253	1176.471
-5.531	38.667	1324.521	1175.125
-4.517	38.704	1323.896	1174.746
-3.502	38.679	1322.821	1173.601
-2.487	38.825	1321.194	1172.983
-1.473	38.902	1317.547	1170.157
-0.458	37.998	1303.149	1151.988
0.556	33.222	1283.684	1112.360
1.571	29.290	1286.950	1091.855
2.586	27.531	1301.999	1093.970
3.600	26.278	1290.185	1076.489
4.615	19.940	1214.180	977.324
5.629	10.124	1132.051	859.222
6.644	5.327	1108.467	816.240
7.659	4.924	1105.998	812.251
8.673	4.847	1104.241	810.486
9.688	4.713	1103.040	808.839
10.702	5.229	1102.141	810.786
11.717	11.004	1110.931	847.327
12.731	18.694	1122.155	896.113
13.746	19.766	1121.711	901.269
14.761	17.858	1118.403	888.604
15.775	16.680	1115.957	880.462
16.790	15.545	1113.862	872.832
17.804	14.808	1112.407	867.792
18.819	14.572	1110.470	864.980
19.834	14.166	1110.150	862.551
20.848	13.946	1109.245	860.633
21.863	13.758	1107.883	858.524
22.877	13.680	1107.474	857.727
23.892	13.524	1106.583	856.155
24.907	13.519	1105.855	855.491
25.921	13.631	1105.048	855.369
26.936	13.578	1103.591	853.895
27.950	13.669	1102.069	853.109
28.965	13.767	1100.454	852.286
29.980	13.797	1099.215	851.403
30.994	13.887	1097.651	850.578
32.009	13.871	1096.860	849.807
33.023	13.914	1095.317	848.760
34.038	13.732	1094.922	847.445
35.053	13.711	1093.903	846.475
36.067	13.666	1093.134	845.576
37.082	13.698	1092.136	844.896
38.096	13.722	1091.436	844.401
39.111	13.662	1090.612	843.379
40.126	13.782	1088.914	842.602
41.140	13.541	1087.985	840.587
42.155	13.456	1086.819	839.183
43.169	13.575	1085.010	838.311
44.184	13.489	1084.295	837.253
45.199	13.486	1083.241	836.349
46.213	13.540	1082.147	835.701
47.228	13.511	1081.369	834.882
48.242	13.563	1080.726	834.572
49.257	13.614	1079.203	833.577
50.271	13.685	1078.268	833.142
51.286	13.651	1077.456	832.266
52.301	13.633	1076.364	831.261
53.315	13.624	1075.512	830.484
54.330	13.579	1074.337	829.279
55.344	13.510	1073.514	828.225
56.359	13.536	1072.423	827.438
57.374	13.496	1071.508	826.462
58.388	13.500	1070.420	825.566
59.403	13.363	1069.755	824.300
60.417	13.502	1068.689	824.099
61.432	13.506	1067.860	823.403
62.447	13.444	1067.159	822.484
63.461	13.352	1066.368	821.344
64.476	13.464	1065.507	821.162
65.490	13.321	1064.546	819.644
66.505	13.482	1063.931	819.895
67.520	13.448	1063.491	819.312
68.534	13.522	1062.170	818.588
69.549	13.429	1061.451	817.503
70.563	13.525	1060.485	817.161
71.578	13.260	1059.733	815.200
72.593	13.376	1058.998	815.135
73.607	13.280	1058.272	814.034
74.622	13.321	1057.983	813.939
75.636	13.276	1056.838	812.764
76.651	13.352	1056.138	812.526
77.666	13.373	1055.580	812.130
78.680	13.367	1054.885	811.495
79.695	13.428	1054.394	811.346
80.709	13.399	1053.799	810.675
81.724	13.531	1053.018	810.644
82.739	13.589	1052.315	810.318
83.753	13.587	1051.621	809.701
84.768	13.757	1050.422	809.534
85.782	13.808	1049.748	809.193
86.797	13.694	1049.036	808.017
87.812	13.618	1047.510	806.399
88.826	13.687	1046.700	806.039
89.841	13.690	1045.745	805.252
90.855	13.804	1044.567	804.824
91.870	13.779	1044.185	804.337
92.884	13.849	1043.079	803.751
93.899	13.796	1042.348	802.861
94.914	13.868	1041.545	802.521
95.928	13.834	1040.479	801.465
96.943	13.700	1040.014	800.391
97.957	13.682	1039.030	799.474
98.972	13.674	1037.954	798.535
99.987	13.689	1037.092	797.876
101.001	13.792	1035.996	797.455
102.016	13.755	1035.641	796.935
103.030	13.795	1034.493	796.172
104.045	13.798	1033.481	795.340
105.060	13.786	1032.487	794.444
106.074	13.638	1031.778	793.122
107.089	13.395	1030.680	791.047
108.103	13.590	1029.466	790.974
109.118	13.382	1028.822	789.418
110.133	13.510	1027.639	789.050
111.147	13.550	1026.881	788.587
112.162	13.488	1026.216	787.711
113.176	13.590	1025.469	787.552
114.191	13.561	1024.586	786.670
115.206	13.566	1024.065	786.223
116.220	13.638	1023.128	785.776
117.235	13.553	1022.010	784.442
118.249	13.662	1021.319	784.360
119.264	13.577	1020.491	783.253
120.279	13.471	1019.965	782.279
121.293	13.580	1018.721	781.770
122.308	13.541	1018.245	781.152
123.322	13.560	1017.059	780.263
124.337	13.473	1015.635	778.693
125.352	13.553	1014.694	778.278
126.366	13.540	1013.463	777.203
127.381	13.600	1012.338	776.556
128.395	13.587	1011.496	775.776
129.410	13.561	1011.074	775.266
130.424	13.687	1009.910	774.893
131.439	13.703	1009.108	774.281
132.454	13.797	1008.097	773.876
133.468	13.746	1007.597	773.188
134.483	13.648	1006.961	772.172
135.497	13.643	1006.065	771.396
136.512	13.706	1005.050	770.841
137.527	13.806	1003.940	770.387
138.541	13.677	1003.738	769.566
139.556	13.792	1002.630	769.180
140.570	13.830	1001.970	768.782
141.585	13.984	1000.846	768.562
142.600	14.004	1000.400	768.247
143.614	13.930	999.446	767.104
144.629	13.888	999.224	766.671
145.643	13.867	998.091	765.639
146.658	13.822	996.622	764.236
147.673	13.792	995.838	763.428
148.687	13.666	995.037	762.169
149.702	13.712	994.054	761.558
150.716	13.636	993.413	760.653
151.731	13.721	992.509	760.284
152.746	13.805	991.795	760.052
153.760	13.894	990.646	759.510
154.775	13.847	990.422	759.057
155.789	13.892	989.869	758.772
156.804	13.840	988.957	757.768
157.819	13.926	988.612	757.832
158.833	13.944	987.907	757.306
159.848	14.073	986.805	756.982
160.862	13.956	985.777	755.591
161.877	13.827	984.922	754.281
162.892	13.880	983.559	753.411
163.906	13.670	983.110	752.049
164.921	13.824	982.432	752.165
165.935	13.815	981.523	751.360
166.950	13.927	980.428	750.961
167.964	14.011	979.186	750.324
168.979	13.899	978.416	749.160
169.994	13.932	977.686	748.687
171.008	14.051	976.747	748.434
172.023	13.994	976.079	747.599
173.037	13.919	975.777	746.965
174.052	14.060	974.653	746.674
175.067	13.942	973.838	745.455
176.081	13.871	973.313	744.668
177.096	13.959	972.674	744.508
178.110	13.874	972.362	743.823
179.125	13.912	971.670	743.398
180.140	14.043	971.050	743.441
181.154	14.088	970.674	743.290
182.169	14.163	969.946	743.000
183.183	14.177	969.323	742.520
184.198	14.137	968.597	741.719
185.213	14.124	968.140	741.246
186.227	14.217	967.005	740.726
187.242	14.373	966.377	740.872
188.256	14.327	965.955	740.281
189.271	14.300	965.376	739.649
190.286	14.143	964.235	738.015
191.300	13.874	963.619	736.284
192.315	13.973	962.607	735.885
193.329	13.958	962.358	735.565
194.344	13.948	961.622	734.893
195.359	14.038	961.097	734.825
196.373	14.145	960.411	734.705
197.388	14.271	960.261	735.084
198.402	14.417	959.501	735.082
199.417	14.379	958.906	734.394
200.432	14.466	958.262	734.216
201.446	14.513	957.511	733.782
202.461	14.582	956.633	733.349
203.475	14.397	956.616	732.460
204.490	14.380	955.695	731.611
205.504	14.404	954.665	730.863
206.519	14.417	953.901	730.272
207.534	14.464	952.931	729.672
208.548	14.481	952.260	729.166
209.563	14.411	951.651	728.328
210.577	14.460	951.080	728.044
211.592	14.520	950.382	727.706
212.607	14.636	949.711	727.634
213.621	14.545	948.766	726.450
214.636	14.561	947.991	725.862
215.650	14.641	947.209	725.544
216.665	14.749	946.395	725.327
217.680	14.659	945.841	724.447
218.694	14.640	945.993	724.419
219.709	14.693	944.664	723.565
220.723	14.793	943.996	723.421
221.738	14.734	943.134	722.441
222.753	14.793	942.432	722.098
223.767	14.796	941.948	721.675
224.782	14.806	941.818	721.556
225.796	14.737	941.293	720.791
226.811	14.724	940.124	719.775
227.826	14.730	939.632	719.360
228.840	14.751	938.712	718.684
229.855	14.834	937.708	718.209
230.869	14.709	937.122	717.160
231.884	14.677	936.249	716.289
232.899	14.642	935.466	715.479
233.913	14.701	934.835	715.186
234.928	14.680	934.436	714.726
235.942	14.663	933.825	714.121
236.957	14.614	933.346	713.483
237.972	14.726	932.548	713.286
238.986	14.693	931.870	712.565
240.001	14.792	931.123	712.356
241.015	14.794	930.759	712.020
242.030	14.808	929.586	711.121
243.045	14.805	929.281	710.812
244.059	14.860	928.894	710.687
245.074	14.882	928.199	710.184
246.088	14.976	927.011	709.612
247.103	15.095	926.304	709.512
248.117	15.053	926.369	709.321
249.132	14.967	926.161	708.736
250.147	15.141	925.188	708.663
251.161	15.264	924.480	708.580
252.176	15.298	923.660	708.030
253.190	15.432	923.045	708.064
254.205	15.304	922.701	707.196
255.220	15.305	921.706	706.376
256.234	15.270	921.304	705.857
257.249	15.345	920.424	705.436
258.263	15.342	919.563	704.702
259.278	15.238	918.957	703.738
260.293	15.246	918.843	703.621
261.307	15.422	917.732	703.446
262.322	15.365	917.570	703.021
263.336	15.509	916.239	702.541
264.351	15.514	915.447	701.892
265.366	15.528	915.323	701.794
266.380	15.490	914.565	700.991
267.395	15.476	914.050	700.476
268.409	15.436	913.111	699.530
269.424	15.690	912.082	699.736
270.439	15.374	911.490	697.904
271.453	15.481	910.578	697.591
272.468	15.430	910.034	696.900
273.482	15.512	909.570	696.824
274.497	15.616	908.510	696.379
275.512	15.530	908.498	695.953
276.526	15.497	907.725	695.165
277.541	15.644	907.101	695.232
278.555	15.668	906.952	695.156
279.570	15.769	905.944	694.738
280.585	15.590	905.453	693.562
281.599	15.670	904.241	692.901
282.614	15.758	903.734	692.812
283.628	15.618	903.228	691.787
284.643	15.627	902.314	691.063
285.657	15.680	901.650	690.712
286.672	15.865	901.160	691.036
287.687	15.624	900.526	689.499
288.701	15.730	899.864	689.367
289.716	15.751	899.729	689.288
290.730	15.769	898.996	688.741
291.745	15.818	898.152	688.231
292.760	15.733	897.755	687.520
293.774	15.898	896.953	687.520
294.789	15.966	896.317	687.248
295.803	15.832	895.514	686.026
296.818	15.812	894.857	685.380
297.833	15.840	894.114	684.862
298.847	15.757	893.393	683.913
299.862	15.742	893.033	683.514
300.876	15.871	892.353	683.459
301.891	15.857	892.212	683.231
302.906	16.046	891.116	683.099
303.920	16.149	890.179	682.739
304.935	16.189	889.817	682.561
305.949	16.148	889.208	681.867
306.964	15.990	888.596	680.701
307.979	15.980	887.962	680.115
308.993	16.150	887.478	680.369
310.008	16.199	886.842	680.021
311.022	15.999	886.601	678.966
312.037	16.041	885.752	678.427
313.052	16.139	884.638	677.907
314.066	15.955	884.470	676.980
315.081	16.001	883.928	676.690
316.095	16.043	883.511	676.477
317.110	15.975	882.846	675.636
318.125	16.012	882.286	675.298
319.139	16.126	881.200	674.864
320.154	16.105	881.297	674.792
321.168	16.033	881.102	674.297
322.183	16.154	880.332	674.132
323.197	16.246	879.522	673.818
324.212	16.238	879.006	673.330
325.227	16.160	878.297	672.416
326.241	16.198	877.901	672.205
327.256	16.158	877.165	671.426
328.270	16.164	876.695	671.027
329.285	16.075	875.912	670.018
330.300	16.288	875.510	670.495
331.314	16.246	874.900	669.802
332.329	16.279	874.529	669.589
333.343	16.281	874.393	669.434
334.358	16.294	873.585	668.809
335.373	16.266	872.815	668.050
336.387	16.288	872.785	668.052
337.402	16.431	872.514	668.352
338.416	16.516	872.133	668.336
339.431	16.446	872.043	667.935
340.446	16.467	871.443	667.497
341.460	16.474	871.134	667.231
342.475	16.594	870.548	667.196
343.489	16.550	870.165	666.670
344.504	16.742	869.586	666.922
345.519	16.659	869.224	666.260
346.533	16.799	868.474	666.177
347.548	16.604	867.804	664.836
348.562	16.500	867.291	663.975
349.577	16.499	866.903	663.615
350.592	16.519	865.904	662.870
351.606	16.608	864.778	662.300
352.621	16.614	864.329	661.921
353.635	16.532	863.977	661.272
354.650	16.563	863.385	660.879
355.665	16.630	862.503	660.408
356.679	16.664	862.083	660.161
357.694	16.699	861.465	659.767
358.708	16.757	860.806	659.428
359.723	16.729	860.246	658.832
360.738	16.718	859.631	658.260
361.752	16.697	859.167	657.764
362.767	16.911	858.155	657.763
363.781	16.885	857.991	657.476
364.796	16.966	857.636	657.463
365.810	16.942	857.278	657.037
366.825	16.903	857.091	656.684
367.840	17.025	855.810	656.115
368.854	16.912	855.611	655.469
369.869	16.980	855.001	655.207
370.883	17.049	854.631	655.131
371.898	16.939	854.597	654.624
372.913	17.095	853.911	654.642
373.927	17.006	853.236	653.721
374.942	17.084	852.990	653.776
375.956	17.071	852.607	653.376
376.971	17.236	851.840	653.365
377.986	17.159	851.645	652.858
379.000	17.305	850.783	652.703
380.015	17.277	850.241	652.122
381.029	17.272	849.997	651.856
382.044	17.289	849.271	651.307
383.059	17.412	848.500	651.131
384.073	17.388	847.689	650.358
385.088	17.104	847.641	649.177
386.102	17.153	846.839	648.692
387.117	17.124	846.626	648.363
388.132	17.178	846.078	648.091
389.146	17.158	845.009	647.140
390.161	17.266	844.642	647.213
391.175	17.350	844.307	647.218
392.190	17.354	843.199	646.325
393.205	17.416	843.059	646.397
394.219	17.205	843.144	645.603
395.234	17.117	842.624	644.814
396.248	17.010	842.078	643.933
397.263	17.198	841.162	643.886
398.278	17.198	841.125	643.802
399.292	17.071	840.826	643.034
400.307	17.153	840.214	642.822
401.321	17.218	839.705	642.621
402.336	17.246	839.106	642.212
403.350	17.328	839.102	642.461
404.365	17.349	837.989	641.632
405.380	17.438	837.964	641.889
406.394	17.550	837.032	641.541
407.409	17.563	836.501	641.128
408.423	17.542	836.786	641.209
409.438	17.718	836.092	641.284
410.453	17.717	835.475	640.748
411.467	17.761	835.245	640.683
412.482	17.703	834.686	639.980
413.496	17.730	834.371	639.782
414.511	17.869	833.692	639.725
415.526	17.768	833.484	639.129
416.540	17.770	833.054	638.752
417.555	17.776	832.562	638.342
418.569	17.747	831.990	637.739
419.584	17.798	831.827	637.747
420.599	17.900	831.129	637.535
421.613	146.050	1366.216	1764.698
422.628	127.317	1444.196	1764.785
