DTS Sentinel unit serial number:	SN413079Multiplexer serial number:	ORYXHardware model number:	OX4-SRSoftware version number:	ORYX F/W v4.00 Oryx Data Collector v3.7.2.0data status	okinstallation	princeton_trtdifferential loss correction	single-endedforward channel	channel 1reverse channel	N/Adate	2019/09/13time	03:50:35forward acquisition time	60.00reverse acquisition time	0.00gamma	496.2192k internal	0.2332k external	0.2332temperature offset calibration	1.0159default loss term (dB/km)	0.3790temperature slope calibration	1.0000multiplexer offset coefficient	1.0000multiplexer slope coefficient	1.0000fibre end	0.00T internal ref (°C)	27.12T ext. ref 1 (°C)	4.07T ext. ref 2 (°C)	21.41length (m)	temperature (°C)	Stokes	anti-Stokes-747.200	-200.000	-0.028	-0.472
-746.185	-25.165	-0.144	0.086
-745.171	800.000	0.090	-0.276
-744.156	606.019	-0.060	-0.151
-743.142	91.182	0.123	-0.138
-742.127	-200.000	0.019	0.260
-741.112	77.205	0.074	-0.079
-740.098	-131.194	-0.156	-0.021
-739.083	-84.238	-0.302	-0.096
-738.069	800.000	0.066	-0.254
-737.054	-25.116	0.354	-0.211
-736.039	-118.686	-0.243	0.043
-735.025	65.689	0.159	0.162
-734.010	358.177	-0.086	-0.172
-732.996	125.034	-0.107	0.136
-731.981	449.591	-0.052	-0.116
-730.966	-200.000	-0.009	0.176
-729.952	-119.604	-0.091	0.016
-728.937	-200.000	0.067	0.397
-727.923	40.114	-0.402	-0.363
-726.908	-200.000	0.020	-0.426
-725.894	97.311	0.127	0.146
-724.879	-4.982	-0.092	0.064
-723.864	-200.000	0.003	-0.298
-722.850	-200.000	0.043	-0.276
-721.835	-95.726	0.084	-0.022
-720.821	-82.809	-0.275	-0.089
-719.806	-54.071	0.271	-0.124
-718.791	382.656	-0.071	-0.146
-717.777	-132.420	-0.117	-0.015
-716.762	-200.000	-0.044	-0.208
-715.748	-35.671	-0.258	-0.141
-714.733	-200.000	0.034	-0.267
-713.718	-200.000	-0.013	-0.215
-712.704	800.000	-0.174	-0.608
-711.689	-73.697	-0.076	-0.028
-710.675	-173.268	0.096	-0.003
-709.660	437.189	-0.040	-0.087
-708.645	148.540	-0.009	0.012
-707.631	195.926	0.068	-0.103
-706.616	-10.977	-0.112	-0.074
-705.602	306.410	0.086	-0.161
-704.587	117.514	0.320	0.395
-703.572	800.000	0.081	-0.230
-702.558	-99.279	-0.206	0.052
-701.543	128.504	0.113	-0.145
-700.529	-200.000	0.040	-0.224
-699.514	800.000	0.057	-0.167
-698.499	800.000	-0.027	0.117
-697.485	-137.880	-0.494	0.056
-696.470	-66.217	0.044	0.018
-695.456	-142.719	-0.191	-0.019
-694.441	467.029	0.156	-0.352
-693.426	-11.603	-0.030	0.020
-692.412	-123.437	0.271	-0.043
-691.397	-44.793	0.130	0.065
-690.383	71.135	-0.095	-0.099
-689.368	-175.326	0.038	-0.001
-688.354	202.602	-0.171	-0.265
-687.339	-164.308	-0.220	-0.010
-686.324	229.296	-0.117	-0.192
-685.310	800.000	0.058	0.208
-684.295	20.676	0.194	0.157
-683.281	-96.346	-0.155	0.041
-682.266	-200.000	-0.048	0.226
-681.251	800.000	-0.127	-0.359
-680.237	-200.000	0.041	-0.203
-679.222	769.906	-0.207	-0.564
-678.208	-73.075	-0.130	0.048
-677.193	91.681	-0.238	0.269
-676.178	-111.426	-0.297	0.061
-675.164	-23.322	0.054	0.033
-674.149	248.843	-0.120	-0.204
-673.135	24.681	-0.308	-0.256
-672.120	203.737	0.112	-0.174
-671.105	-200.000	-0.068	-0.520
-670.091	494.027	0.216	-0.498
-669.076	-132.380	-0.364	-0.047
-668.062	-200.000	0.017	0.131
-667.047	22.912	-0.410	-0.337
-666.032	800.000	0.029	-0.105
-665.018	158.921	0.136	0.190
-664.003	-43.995	-0.282	0.142
-662.989	-200.000	-0.020	0.384
-661.974	37.057	-0.224	-0.199
-660.959	191.225	0.311	-0.469
-659.945	461.866	0.183	-0.409
-658.930	800.000	-0.071	-0.247
-657.916	676.063	0.022	-0.057
-656.901	4.471	0.139	0.102
-655.886	-108.728	-0.126	-0.027
-654.872	-200.000	0.020	-0.170
-653.857	-200.000	-0.014	-0.151
-652.843	-196.681	0.064	0.000
-651.828	-73.989	-0.158	0.057
-650.814	-65.664	0.231	-0.093
-649.799	-200.000	-0.012	0.185
-648.784	-96.158	-0.088	0.023
-647.770	800.000	-0.069	-0.252
-646.755	-83.994	0.278	0.089
-645.741	-200.000	0.000	0.202
-644.726	-29.575	-0.095	0.054
-643.711	-200.000	-0.020	0.256
-642.697	179.915	-0.188	0.276
-641.682	-137.769	0.164	0.018
-640.668	-30.120	0.105	-0.060
-639.653	-200.000	0.000	-0.241
-638.638	388.732	-0.103	-0.214
-637.624	443.867	0.059	-0.129
-636.609	377.885	0.114	0.233
-635.595	800.000	-0.097	-0.341
-634.580	-99.577	0.206	-0.052
-633.565	-158.089	-0.152	0.009
-632.551	506.196	0.056	0.129
-631.536	-200.000	0.008	-0.087
-630.522	37.182	0.129	0.115
-629.507	-0.344	-0.122	0.087
-628.492	-200.000	-0.002	0.145
-627.478	-160.077	-0.024	-0.001
-626.463	109.451	0.111	-0.133
-625.449	-155.065	0.383	0.025
-624.434	-72.482	-0.579	-0.214
-623.419	357.880	-0.077	0.153
-622.405	800.000	-0.025	-0.083
-621.390	-165.999	-0.093	-0.004
-620.376	-200.000	0.011	-0.120
-619.361	-200.000	0.035	-0.222
-618.346	328.639	-0.165	-0.317
-617.332	109.551	0.208	0.249
-616.317	34.806	0.186	-0.163
-615.303	-30.903	0.185	-0.105
-614.288	-107.857	0.178	-0.039
-613.273	-200.000	-0.031	0.661
-612.259	-27.417	0.034	0.020
-611.244	53.123	-0.146	0.140
-610.230	-78.244	-0.238	-0.082
-609.215	10.877	-0.288	0.220
-608.201	-30.316	0.375	-0.213
-607.186	-118.273	-0.278	0.049
-606.171	120.497	0.022	-0.028
-605.157	247.463	0.064	0.109
-604.142	-200.000	0.034	-0.151
-603.128	23.122	0.227	-0.186
-602.113	601.528	0.147	0.365
-601.098	231.920	0.193	0.316
-600.084	-114.062	0.236	0.046
-599.069	56.120	-0.194	-0.189
-598.055	-41.688	0.350	0.180
-597.040	-56.231	-0.135	0.060
-596.025	249.929	-0.018	-0.031
-595.011	-176.508	-0.154	-0.004
-593.996	-137.257	-0.168	0.019
-592.982	365.952	0.096	-0.193
-591.967	-200.000	-0.005	-0.189
-590.952	-12.646	-0.394	-0.257
-589.938	-94.178	-0.382	-0.105
-588.923	-37.171	-0.369	-0.198
-587.909	359.022	-0.055	-0.110
-586.894	-200.000	0.002	-0.052
-585.879	37.635	-0.239	0.212
-584.865	-171.620	-0.334	0.011
-583.850	440.950	0.015	0.033
-582.836	45.277	0.274	0.252
-581.821	123.346	0.259	0.325
-580.806	-138.929	0.295	-0.032
-579.792	651.375	0.056	-0.143
-578.777	-95.497	0.167	-0.045
-577.763	-104.082	-0.197	0.046
-576.748	800.000	0.063	-0.234
-575.733	-143.972	0.087	-0.008
-574.719	95.257	0.061	0.070
-573.704	-200.000	0.068	0.300
-572.690	-55.118	-0.153	0.069
-571.675	30.888	0.182	-0.156
-570.661	535.388	0.045	-0.106
-569.646	70.503	0.092	-0.095
-568.631	-200.000	0.021	-0.109
-567.617	173.050	0.182	-0.262
-566.602	641.495	-0.041	0.104
-565.588	-34.823	0.317	-0.173
-564.573	96.411	-0.082	0.093
-563.558	-136.589	-0.351	-0.041
-562.544	-8.205	-0.133	0.089
-561.529	-200.000	-0.001	0.049
-560.515	273.733	-0.221	-0.391
-559.500	160.288	-0.102	-0.142
-558.485	411.873	0.022	0.046
-557.471	-80.280	0.431	0.144
-556.456	109.593	0.107	0.128
-555.442	-103.961	0.333	0.077
-554.427	249.556	0.057	0.096
-553.412	64.280	0.065	0.066
-552.398	-200.000	-0.011	-0.173
-551.383	-200.000	0.016	-0.230
-550.369	-69.371	-0.093	-0.036
-549.354	-99.877	0.165	-0.041
-548.339	-141.733	-0.352	0.035
-547.325	-66.225	0.165	0.066
-546.310	14.401	-0.279	0.217
-545.296	666.689	-0.085	-0.220
-544.281	-200.000	0.039	0.333
-543.266	-20.256	0.059	-0.036
-542.252	71.064	0.062	-0.064
-541.237	287.839	0.073	0.131
-540.223	-111.691	-0.102	-0.021
-539.208	72.136	-0.097	0.101
-538.193	800.000	0.095	-0.343
-537.179	50.129	-0.141	-0.133
-536.164	102.175	0.133	-0.155
-535.150	18.613	-0.176	-0.140
-534.135	55.244	0.196	-0.189
-533.121	145.402	-0.126	0.169
-532.106	800.000	0.016	-0.066
-531.091	-136.428	0.114	-0.013
-530.077	191.350	0.202	0.304
-529.062	-200.000	-0.030	-0.169
-528.048	75.418	0.164	0.172
-527.033	413.822	0.122	0.260
-526.018	-57.445	0.464	0.203
-525.004	-200.000	-0.005	-0.051
-523.989	12.397	-0.050	0.039
-522.975	20.963	-0.191	0.155
-521.960	-200.000	-0.012	0.250
-520.945	23.253	-0.371	-0.304
-519.931	253.294	0.189	0.321
-518.916	-73.539	0.100	0.036
-517.902	-200.000	0.009	0.243
-516.887	-78.178	-0.531	0.182
-515.872	-186.386	0.349	-0.005
-514.858	88.275	-0.431	-0.477
-513.843	-109.327	0.109	-0.023
-512.829	-185.537	-0.479	0.007
-511.814	98.633	0.039	0.044
-510.799	-134.986	-0.149	0.018
-509.785	-77.853	-0.089	-0.031
-508.770	-200.000	-0.006	0.117
-507.756	-62.133	0.118	-0.049
-506.741	147.175	0.065	-0.087
-505.726	-141.233	-0.261	0.026
-504.712	-200.000	-0.018	-0.414
-503.697	-129.508	-0.216	-0.030
-502.683	319.761	-0.108	-0.204
-501.668	-67.063	-0.062	0.025
-500.653	-8.267	-0.184	-0.124
-499.639	506.012	-0.038	-0.087
-498.624	-60.583	-0.115	0.049
-497.610	-111.411	-0.460	-0.093
-496.595	13.167	0.452	-0.349
-495.581	94.917	0.177	-0.201
-494.566	-30.810	-0.339	0.191
-493.551	25.677	0.124	0.102
-492.537	-200.000	0.052	0.391
-491.522	-125.240	-0.334	0.051
-490.508	-54.389	0.170	0.077
-489.493	5.937	0.322	0.237
-488.478	-8.653	0.176	-0.117
-487.464	-200.000	-0.019	0.176
-486.449	-200.000	0.008	-0.130
-485.435	800.000	0.139	-0.397
-484.420	18.894	-0.119	0.095
-483.405	1.724	0.280	-0.201
-482.391	769.539	-0.169	0.458
-481.376	118.093	0.032	-0.040
-480.362	-49.946	0.212	-0.100
-479.347	-200.000	-0.015	-0.126
-478.332	-77.790	0.013	-0.004
-477.318	283.129	0.228	0.407
-476.303	257.304	0.023	-0.039
-475.289	74.592	-0.165	-0.173
-474.274	-68.981	0.047	0.018
-473.259	162.582	0.063	-0.089
-472.245	211.963	-0.183	-0.286
-471.230	-200.000	0.040	-0.289
-470.216	-200.000	-0.006	-0.127
-469.201	41.699	0.110	-0.099
-468.186	613.562	0.062	0.153
-467.172	-120.497	-0.231	0.039
-466.157	77.197	0.176	0.186
-465.143	254.204	0.179	0.305
-464.128	582.390	0.117	-0.286
-463.113	-200.000	0.030	-0.135
-462.099	227.411	-0.053	-0.086
-461.084	-27.315	0.063	0.037
-460.070	800.000	-0.039	0.163
-459.055	-3.736	0.327	0.226
-458.040	-87.286	-0.190	-0.057
-457.026	-200.000	0.009	0.119
-456.011	-41.287	0.077	0.040
-454.997	-144.348	-0.244	0.023
-453.982	-72.489	-0.377	0.139
-452.968	-200.000	-0.048	0.311
-451.953	-118.777	-0.063	-0.011
-450.938	-98.710	0.390	-0.099
-449.924	-200.000	-0.041	0.235
-448.909	144.040	-0.053	0.070
-447.895	-192.561	0.243	-0.002
-446.880	27.976	0.054	0.045
-445.865	75.390	-0.186	0.195
-444.851	-12.034	-0.126	-0.082
-443.836	-28.051	0.134	0.077
-442.822	11.785	-0.169	-0.129
-441.807	-200.000	-0.041	-0.257
-440.792	-16.001	0.043	-0.027
-439.778	-9.412	0.183	0.122
-438.763	-108.783	0.301	0.064
-437.749	-144.971	0.136	0.012
-436.734	5.227	0.384	-0.281
-435.719	97.903	0.027	0.031
-434.705	333.773	0.133	0.255
-433.690	42.305	-0.418	0.377
-432.676	-99.357	-0.149	-0.037
-431.661	539.954	0.066	-0.157
-430.646	-179.884	0.393	0.008
-429.632	-200.000	0.226	0.000
-428.617	-16.291	0.055	0.034
-427.603	-24.374	-0.088	0.052
-426.588	-100.545	0.102	0.025
-425.573	42.515	-0.065	-0.059
-424.559	-76.449	-0.452	-0.158
-423.544	-119.498	0.176	0.030
-422.530	-11.978	0.276	-0.180
-421.515	-200.000	-0.014	-0.115
-420.500	0.903	0.196	-0.140
-419.486	-138.906	-0.250	0.027
-418.471	-200.000	0.021	-0.215
-417.457	170.158	0.195	-0.277
-416.442	142.872	-0.181	-0.238
-415.428	89.053	-0.275	-0.304
-414.413	-153.839	0.259	-0.018
-413.398	99.472	0.077	-0.089
-412.384	-153.702	-0.182	-0.012
-411.369	-159.636	0.481	0.026
-410.355	-200.000	0.005	-0.083
-409.340	322.371	-0.048	-0.092
-408.325	324.822	0.111	-0.210
-407.311	-10.572	0.057	-0.037
-406.296	-17.085	-0.251	-0.157
-405.282	-200.000	-0.032	-0.213
-404.267	391.358	0.128	0.264
-403.252	201.561	-0.081	0.123
-402.238	18.270	-0.188	-0.149
-401.223	-154.486	-0.020	-0.001
-400.209	-20.855	-0.073	-0.044
-399.194	800.000	-0.041	0.163
-398.179	-16.634	-0.289	-0.182
-397.165	-24.430	-0.082	0.048
-396.150	-140.915	0.132	-0.013
-395.136	-200.000	0.018	-0.097
-394.121	94.917	0.139	0.157
-393.106	45.544	0.076	0.069
-392.092	-200.000	0.017	-0.172
-391.077	800.000	0.030	0.105
-390.063	24.402	-0.065	0.053
-389.048	-14.987	-0.063	0.040
-388.033	-140.342	0.311	-0.032
-387.019	30.098	0.022	0.019
-386.004	-112.246	0.277	-0.055
-384.990	-200.000	-0.000	-0.107
-383.975	29.156	0.224	0.189
-382.960	-190.161	-0.025	0.000
-381.946	800.000	0.028	-0.077
-380.931	-121.583	0.226	-0.037
-379.917	-105.989	-0.211	-0.047
-378.902	112.849	0.163	-0.195
-377.888	185.798	-0.100	-0.147
-376.873	-74.596	0.074	0.026
-375.858	-78.751	-0.302	-0.102
-374.844	-71.853	0.283	0.104
-373.829	-200.000	-0.001	0.156
-372.815	-200.000	-0.033	0.338
-371.800	-29.457	-0.228	-0.129
-370.785	20.088	-0.263	-0.211
-369.771	301.297	0.184	-0.337
-368.756	-118.817	-0.210	-0.037
-367.742	-200.000	0.019	0.089
-366.727	-200.000	0.044	0.195
-365.712	-44.380	-0.300	0.149
-364.698	29.563	0.214	0.181
-363.683	800.000	-0.039	0.120
-362.669	-180.236	-0.322	-0.007
-361.654	-92.886	-0.191	-0.053
-360.639	-139.580	-0.191	-0.020
-359.625	-174.023	0.310	-0.009
-358.610	-103.798	0.277	0.064
-357.596	-200.000	0.009	-0.073
-356.581	496.473	0.056	0.127
-355.566	-18.741	0.200	0.124
-354.552	502.189	-0.261	-0.598
-353.537	74.472	0.249	-0.259
-352.523	132.765	-0.041	0.053
-351.508	-108.707	-0.289	0.061
-350.493	-116.016	-0.084	0.016
-349.479	156.226	0.146	0.200
-348.464	20.708	0.119	-0.096
-347.450	96.699	-0.132	0.150
-346.435	800.000	-0.051	-0.140
-345.420	12.414	-0.229	0.175
-344.406	92.247	0.134	0.149
-343.391	-200.000	0.091	-0.419
-342.377	156.174	0.101	0.138
-341.362	-14.206	-0.263	-0.168
-340.348	128.315	-0.230	0.290
-339.333	-200.000	0.017	0.102
-338.318	-18.140	0.290	0.180
-337.304	485.942	-0.164	-0.371
-336.289	-5.517	-0.153	0.104
-335.275	28.070	-0.101	0.085
-334.260	2.284	0.099	-0.071
-333.245	-63.610	-0.059	0.024
-332.231	229.815	0.089	0.144
-331.216	-151.311	-0.155	0.011
-330.202	-200.000	-0.042	-0.458
-329.187	68.634	-0.162	0.164
-328.172	-33.023	0.168	0.092
-327.158	158.283	0.017	-0.024
-326.143	58.665	0.039	-0.038
-325.129	158.206	0.139	0.191
-324.114	-85.519	-0.137	-0.042
-323.099	119.621	-0.106	0.130
-322.085	-31.342	-0.294	0.164
-321.070	-55.463	0.317	-0.141
-320.056	-86.129	0.215	0.066
-319.041	-110.607	0.140	0.029
-318.026	219.711	-0.089	-0.140
-317.012	42.582	-0.274	-0.246
-315.997	-182.397	0.082	-0.002
-314.983	57.312	0.194	0.187
-313.968	800.000	-0.052	0.189
-312.953	46.573	0.206	-0.189
-311.939	-129.281	0.400	0.055
-310.924	-144.378	0.101	-0.009
-309.910	246.284	0.117	-0.195
-308.895	344.734	0.163	-0.317
-307.880	160.178	0.149	0.206
-306.866	-200.000	0.031	0.214
-305.851	-200.000	0.007	0.237
-304.837	-40.737	-0.127	0.065
-303.822	0.259	0.118	-0.083
-302.807	-140.789	-0.288	-0.029
-301.793	-200.000	0.014	0.252
-300.778	-200.000	0.007	-0.100
-299.764	-65.372	0.227	-0.090
-298.749	-138.314	0.111	0.012
-297.735	-200.000	-0.074	-0.385
-296.720	76.836	-0.256	0.269
-295.705	305.669	-0.117	0.215
-294.691	800.000	-0.111	-0.406
-293.676	220.052	0.128	-0.203
-292.662	-90.752	-0.286	-0.081
-291.647	61.100	0.145	-0.143
-290.632	-159.676	0.218	0.012
-289.618	-76.501	0.254	0.088
-288.603	-7.940	0.274	-0.183
-287.589	67.773	-0.130	-0.132
-286.574	800.000	0.049	-0.166
-285.559	-103.547	0.283	0.066
-284.545	263.609	0.081	-0.140
-283.530	-70.088	0.298	0.112
-282.516	800.000	-0.065	-0.224
-281.501	-71.057	-0.265	0.098
-280.486	16.160	0.109	0.085
-279.472	-200.000	0.010	0.114
-278.457	273.752	0.095	-0.166
-277.443	-94.650	0.128	-0.034
-276.428	800.000	-0.064	0.267
-275.413	-59.539	0.437	-0.185
-274.399	184.051	-0.097	0.142
-273.384	53.756	-0.162	-0.153
-272.370	26.631	-0.075	0.062
-271.355	171.112	-0.163	-0.231
-270.340	-82.643	-0.182	0.058
-269.326	-22.854	0.043	-0.026
-268.311	273.587	-0.061	0.106
-267.297	-110.194	-0.066	0.013
-266.282	468.671	0.142	0.315
-265.267	-200.000	0.055	0.273
-264.253	146.001	0.176	0.233
-263.238	-119.648	-0.230	0.039
-262.224	-21.032	-0.081	-0.049
-261.209	-200.000	-0.037	-0.229
-260.195	-74.224	0.184	0.066
-259.180	475.154	-0.131	0.292
-258.165	671.553	0.045	0.116
-257.151	103.267	-0.057	-0.066
-256.136	-200.000	0.030	0.178
-255.122	414.687	0.057	-0.120
-254.107	-132.705	0.318	-0.040
-253.092	67.452	0.136	-0.137
-252.078	408.686	-0.032	0.067
-251.063	-163.885	0.257	0.012
-250.049	-200.000	0.055	0.252
-249.034	-108.254	0.085	0.018
-248.019	43.379	-0.297	0.268
-247.005	252.599	0.184	0.309
-245.990	800.000	-0.102	0.364
-244.976	-52.250	-0.058	-0.026
-243.961	-168.809	-0.127	-0.005
-242.946	-15.366	-0.309	0.195
-241.932	-200.000	0.008	0.141
-240.917	-22.230	-0.337	0.202
-239.903	-113.267	-0.099	0.019
-238.888	317.873	0.123	-0.230
-237.873	-143.499	-0.129	-0.012
-236.859	-185.245	-0.242	0.004
-235.844	-43.782	-0.027	-0.013
-234.830	495.652	0.036	0.082
-233.815	301.873	0.218	-0.397
-232.800	218.170	0.227	-0.357
-231.786	-200.000	-0.013	-0.367
-230.771	-61.459	-0.249	-0.103
-229.757	479.894	0.054	0.120
-228.742	-83.393	-0.097	-0.031
-227.727	-106.591	-0.086	-0.019
-226.713	-108.095	-0.277	-0.059
-225.698	94.558	-0.235	-0.263
-224.684	-200.000	0.049	0.362
-223.669	526.561	0.109	-0.254
-222.655	-69.728	0.198	0.075
-221.640	-37.385	-0.195	0.102
-220.625	800.000	0.124	-0.346
-219.611	-88.099	0.168	-0.050
-218.596	486.811	-0.086	0.193
-217.582	-84.402	-0.121	-0.038
-216.567	-109.200	0.162	0.034
-215.552	517.071	-0.015	0.034
-214.538	-149.324	-0.051	0.004
-213.523	560.633	0.044	-0.104
-212.509	564.756	0.082	0.196
-211.494	800.000	-0.066	0.247
-210.479	-200.000	0.024	-0.155
-209.465	28.460	-0.105	-0.087
-208.450	-200.000	0.027	-0.296
-207.436	-114.840	-0.120	-0.023
-206.421	263.576	-0.121	0.207
-205.406	-200.000	-0.009	0.112
-204.392	64.383	-0.191	-0.190
-203.377	310.561	-0.097	-0.178
-202.363	-110.339	-0.305	-0.063
-201.348	177.784	0.086	-0.123
-200.333	-26.187	0.065	0.038
-199.319	-200.000	-0.035	0.342
-198.304	-34.937	-0.182	0.098
-197.290	311.891	0.118	0.218
-196.275	-99.773	-0.181	-0.045
-195.260	163.197	-0.102	-0.141
-194.246	-100.767	0.134	-0.032
-193.231	-129.446	-0.113	-0.015
-192.217	-88.383	0.231	-0.068
-191.202	-200.000	-0.057	-0.315
-190.187	210.397	-0.102	0.158
-189.173	204.604	-0.157	0.239
-188.158	249.886	-0.004	-0.007
-187.144	800.000	-0.064	-0.219
-186.129	-100.718	-0.496	-0.120
-185.114	146.400	0.055	0.073
-184.100	-104.167	-0.134	0.031
-183.085	-83.938	-0.251	-0.079
-182.071	234.602	0.174	-0.283
-181.056	106.515	-0.062	0.072
-180.042	612.487	0.148	0.364
-179.027	-25.034	0.026	0.015
-178.012	-200.000	0.017	0.120
-176.998	-70.218	0.142	0.053
-175.983	-48.658	-0.273	0.129
-174.969	15.347	-0.243	-0.188
-173.954	-200.000	0.075	0.331
-172.939	800.000	0.075	-0.265
-171.925	204.498	-0.051	-0.077
-170.910	-62.851	0.285	0.116
-169.896	-200.000	0.039	0.352
-168.881	308.389	-0.030	-0.056
-167.866	-87.024	0.324	0.097
-166.852	67.037	0.146	0.147
-165.837	118.612	-0.116	-0.141
-164.823	-18.490	0.230	-0.141
-163.808	341.777	-0.155	0.298
-162.793	194.482	0.109	0.163
-161.779	15.796	0.142	0.110
-160.764	86.026	-0.213	0.230
-159.750	-36.996	-0.215	-0.113
-158.735	114.123	-0.131	-0.157
-157.720	800.000	-0.118	0.362
-156.706	184.148	-0.201	0.293
-155.691	4.816	-0.146	-0.105
-154.677	758.610	-0.004	0.011
-153.662	-75.355	0.202	-0.071
-152.647	800.000	0.091	0.262
-151.633	104.219	-0.139	-0.161
-150.618	146.016	-0.145	-0.191
-149.604	800.000	0.065	0.196
-148.589	-151.380	0.496	0.036
-147.574	679.881	-0.083	0.212
-146.560	-182.015	0.429	-0.008
-145.545	136.529	-0.179	0.230
-144.531	-200.000	0.051	0.334
-143.516	-95.788	-0.262	-0.069
-142.502	-104.673	0.158	-0.036
-141.487	-117.497	-0.186	0.033
-140.472	-200.000	-0.015	0.248
-139.458	-77.999	-0.267	-0.090
-138.443	-82.961	-0.164	0.052
-137.429	-105.433	0.146	0.033
-136.414	67.488	0.270	0.270
-135.399	-200.000	-0.011	0.147
-134.385	125.362	-0.142	-0.176
-133.370	-110.610	0.416	0.084
-132.356	-64.974	0.168	0.067
-131.341	800.000	-0.066	-0.205
-130.326	-200.000	-0.006	-0.025
-129.312	-200.000	-0.064	-0.279
-128.297	800.000	0.103	0.301
-127.283	800.000	0.081	-0.234
-126.268	66.013	-0.162	0.161
-125.253	-140.874	0.140	-0.014
-124.239	221.088	0.038	0.059
-123.224	-83.778	-0.083	-0.026
-122.210	-87.252	0.232	-0.069
-121.195	-200.000	-0.073	-0.326
-120.180	-150.112	0.184	0.014
-119.166	-99.282	0.352	0.087
-118.151	-73.006	-0.266	-0.096
-117.137	-53.349	-0.193	0.087
-116.122	-200.000	0.024	-0.223
-115.107	756.202	0.075	-0.200
-114.093	516.582	-0.107	-0.246
-113.078	-73.564	0.474	-0.170
-112.064	-26.881	-0.108	-0.062
-111.049	800.000	0.071	-0.235
-110.034	-17.522	0.150	-0.093
-109.020	-85.625	-0.247	0.075
-108.005	484.607	0.183	-0.409
-106.991	173.362	0.142	-0.200
-105.976	-200.000	0.008	-0.040
-104.962	-79.894	0.292	-0.096
-103.947	-109.929	0.086	0.018
-102.932	-109.643	0.280	0.058
-101.918	-200.000	0.062	0.304
-100.903	13.924	0.190	0.145
-99.889	800.000	-0.039	0.134
-98.874	-4.848	0.298	0.201
-97.859	0.950	-0.096	0.068
-96.845	107.068	0.253	0.295
-95.830	70.927	-0.053	0.054
-94.816	-200.000	-0.022	0.183
-93.801	-61.065	0.070	0.029
-92.786	-200.000	-0.007	0.124
-91.772	-190.881	0.096	-0.001
-90.757	-200.000	0.022	0.203
-89.743	159.848	-0.131	0.178
-88.728	-145.416	0.175	0.015
-87.713	-200.000	0.008	-0.060
-86.699	-200.000	0.005	0.222
-85.684	193.515	-0.156	-0.232
-84.670	-107.328	-0.197	-0.042
-83.655	254.824	-0.105	-0.176
-82.640	776.388	0.050	0.133
-81.626	156.272	-0.050	0.068
-80.611	-63.086	0.309	-0.125
-79.597	-200.000	-0.044	-0.363
-78.582	-115.380	-0.178	-0.033
-77.567	577.774	0.081	0.194
-76.553	15.377	-0.277	-0.213
-75.538	-165.690	-0.356	-0.015
-74.524	-94.180	-0.201	0.054
-73.509	339.171	-0.053	-0.102
-72.494	77.215	-0.017	-0.018
-71.480	-111.186	0.238	0.048
-70.465	110.184	0.091	-0.108
-69.451	-50.148	0.295	-0.137
-68.436	29.413	-0.219	0.182
-67.422	-200.000	-0.034	0.304
-66.407	163.222	0.079	0.109
-65.392	327.556	0.042	-0.078
-64.378	348.136	-0.169	0.327
-63.363	-18.487	0.095	-0.058
-62.349	572.270	-0.112	0.266
-61.334	-16.965	-1.115	-0.690
-60.319	26.028	0.563	0.460
-59.305	-200.000	-0.073	-0.947
-58.290	60.482	0.881	0.854
-57.276	314.302	0.850	1.566
-56.261	-200.000	116.288	664.571
-55.246	531.582	1532.570	3548.780
-54.232	176.995	2698.421	3844.173
-53.217	108.863	2150.447	2516.629
-52.203	38.767	1593.035	1392.272
-51.188	30.443	1339.231	1120.453
-50.173	27.534	1301.320	1071.614
-49.159	56.030	1359.239	1291.147
-48.144	53.742	1373.230	1290.697
-47.130	30.635	1327.733	1111.806
-46.115	27.257	1310.004	1076.952
-45.100	27.099	1304.864	1071.749
-44.086	26.987	1302.497	1069.102
-43.071	26.908	1300.272	1066.769
-42.057	26.872	1298.671	1065.206
-41.042	27.056	1296.812	1064.718
-40.027	27.001	1295.500	1063.278
-39.013	27.032	1293.138	1061.476
-37.998	27.063	1291.410	1060.193
-36.984	27.121	1289.551	1058.963
-35.969	27.153	1288.006	1057.839
-34.954	27.096	1286.535	1056.258
-33.940	27.158	1285.267	1055.536
-32.925	27.185	1283.663	1054.337
-31.911	27.149	1282.202	1052.884
-30.896	27.109	1280.790	1051.452
-29.881	27.170	1279.445	1050.656
-28.867	27.286	1277.939	1050.046
-27.852	27.251	1276.635	1048.732
-26.838	27.213	1275.380	1047.444
-25.823	27.223	1274.005	1046.330
-24.809	27.143	1272.770	1044.812
-23.794	27.135	1271.188	1043.427
-22.779	27.150	1269.806	1042.340
-21.765	27.143	1268.639	1041.300
-20.750	27.240	1267.249	1040.673
-19.736	27.169	1266.102	1039.281
-18.721	27.074	1265.067	1037.847
-17.706	27.107	1263.939	1037.070
-16.692	27.096	1262.748	1035.990
-15.677	27.140	1261.753	1035.384
-14.663	27.031	1260.845	1033.975
-13.648	27.107	1259.662	1033.397
-12.633	27.149	1258.405	1032.566
-11.619	27.117	1257.808	1031.850
-10.604	27.174	1256.694	1031.221
-9.590	27.011	1256.198	1029.849
-8.575	27.100	1254.880	1029.227
-7.560	27.076	1254.146	1028.453
-6.546	27.035	1253.067	1027.295
-5.531	27.079	1251.911	1026.553
-4.517	27.078	1251.226	1025.947
-3.502	27.098	1250.800	1025.668
-2.487	27.220	1249.401	1025.166
-1.473	27.034	1245.288	1020.708
-0.458	25.444	1230.489	999.697
0.556	23.494	1212.726	960.718
1.571	19.505	1218.337	943.323
2.586	18.544	1233.081	949.339
3.600	18.278	1221.043	938.527
4.615	14.362	1149.994	863.578
5.629	7.318	1078.981	775.810
6.644	4.386	1060.812	748.556
7.659	4.101	1058.634	745.580
8.673	3.858	1057.158	743.310
9.688	3.917	1055.730	742.523
10.702	4.263	1053.937	742.851
11.717	8.858	1059.980	769.140
12.731	16.723	1071.029	815.088
13.746	21.453	1077.332	842.659
14.761	22.613	1078.040	848.726
15.775	21.682	1076.500	842.962
16.790	20.949	1074.098	837.486
17.804	20.168	1073.522	833.211
18.819	19.967	1072.558	831.420
19.834	19.969	1071.856	830.815
20.848	19.982	1071.276	830.351
21.863	19.856	1070.440	829.029
22.877	19.755	1069.507	827.751
23.892	19.618	1069.106	826.708
24.907	19.459	1068.252	825.217
25.921	19.443	1067.220	824.269
26.936	19.470	1065.666	823.124
27.950	19.501	1064.341	822.175
28.965	19.678	1062.910	821.841
29.980	19.835	1061.705	821.579
30.994	19.877	1060.769	820.984
32.009	19.984	1060.101	820.899
33.023	19.866	1058.714	819.194
34.038	19.787	1057.631	817.912
35.053	19.535	1056.933	816.107
36.067	19.644	1055.581	815.509
37.082	19.519	1055.293	814.624
38.096	19.822	1054.492	815.361
39.111	19.719	1053.885	814.334
40.126	19.624	1052.079	812.420
41.140	19.321	1050.411	809.639
42.155	19.122	1049.750	808.121
43.169	19.126	1048.344	806.987
44.184	19.112	1047.407	806.129
45.199	19.252	1046.408	805.943
46.213	19.181	1046.358	805.502
47.228	19.741	1045.159	807.123
48.242	19.656	1044.037	805.786
49.257	19.571	1043.624	805.000
50.271	19.653	1042.696	804.597
51.286	19.854	1041.783	804.755
52.301	19.745	1041.213	803.739
53.315	19.544	1039.643	801.523
54.330	19.442	1038.555	800.141
55.344	19.349	1038.008	799.213
56.359	19.376	1036.874	798.398
57.374	19.307	1036.373	797.621
58.388	19.166	1035.047	795.879
59.403	19.018	1034.495	794.699
60.417	18.996	1033.809	793.999
61.432	18.960	1032.718	792.928
62.447	18.926	1032.307	792.385
63.461	18.938	1031.253	791.562
64.476	18.908	1030.174	790.526
65.490	18.934	1028.852	789.558
66.505	19.132	1028.274	789.953
67.520	19.051	1027.913	789.238
68.534	19.006	1027.333	788.513
69.549	18.845	1026.585	787.134
70.563	18.664	1025.953	785.750
71.578	18.589	1024.878	784.512
72.593	18.557	1023.668	783.372
73.607	18.631	1022.987	783.118
74.622	18.668	1022.854	783.117
75.636	18.888	1022.143	783.509
76.651	18.755	1021.636	782.444
77.666	18.696	1020.766	781.440
78.680	18.643	1020.258	780.738
79.695	18.964	1019.561	781.597
80.709	19.137	1018.837	781.757
81.724	19.046	1018.501	781.019
82.739	19.220	1017.999	781.352
83.753	19.675	1017.163	782.705
84.768	19.930	1016.996	783.660
85.782	20.161	1016.114	783.956
86.797	20.024	1015.074	782.466
87.812	19.865	1013.826	780.716
88.826	19.848	1012.917	779.873
89.841	19.926	1012.263	779.652
90.855	20.025	1011.431	779.387
91.870	20.138	1010.438	779.060
92.884	19.925	1009.749	777.505
93.899	19.971	1008.727	776.854
94.914	20.014	1008.198	776.571
95.928	20.093	1006.738	775.732
96.943	19.899	1005.865	774.121
97.957	19.752	1005.205	772.886
98.972	19.850	1004.249	772.521
99.987	19.929	1003.628	772.328
101.001	19.843	1002.302	770.854
102.016	19.863	1001.523	770.278
103.030	19.860	1000.993	769.789
104.045	19.841	1000.455	769.222
105.060	19.725	998.810	767.376
106.074	19.442	997.268	764.868
107.089	19.192	996.717	763.269
108.103	18.918	995.928	761.386
109.118	18.952	994.340	760.252
110.133	18.964	993.621	759.689
111.147	18.930	992.539	758.645
112.162	19.139	992.037	759.119
113.176	19.275	991.551	759.276
114.191	19.255	990.860	758.593
115.206	19.284	989.604	757.691
116.220	19.131	989.241	756.676
117.235	19.089	988.030	755.495
118.249	19.044	987.381	754.737
119.264	18.881	986.548	753.318
120.279	18.798	985.982	752.453
121.293	18.873	984.951	751.931
122.308	18.760	984.193	750.791
123.322	18.656	982.935	749.310
124.337	18.628	981.763	748.230
125.352	18.671	980.930	747.715
126.366	18.547	979.967	746.373
127.381	18.760	979.114	746.584
128.395	18.736	978.596	746.022
129.410	18.853	977.394	745.547
130.424	18.861	976.962	745.185
131.439	19.133	975.750	745.372
132.454	19.154	975.118	744.914
133.468	19.080	974.705	744.215
134.483	19.156	973.702	743.708
135.497	19.099	973.237	743.041
136.512	19.066	971.994	741.886
137.527	19.219	971.243	741.905
138.541	19.237	970.460	741.319
139.556	19.258	969.913	740.928
140.570	19.517	969.299	741.505
141.585	19.779	968.670	742.083
142.600	19.850	967.771	741.631
143.614	19.917	967.239	741.448
144.629	20.046	966.367	741.265
145.643	19.931	965.285	739.875
146.658	19.571	963.803	737.137
147.673	19.297	963.185	735.434
148.687	19.311	961.802	734.369
149.702	19.371	960.797	733.795
150.716	19.283	960.047	732.783
151.731	19.348	959.390	732.493
152.746	19.442	958.820	732.392
153.760	19.350	958.185	731.451
154.775	19.574	957.646	731.924
155.789	19.603	956.969	731.467
156.804	19.557	956.023	730.484
157.819	19.699	955.865	730.896
158.833	19.917	955.070	731.145
159.848	19.980	954.407	730.841
160.862	19.889	953.471	729.676
161.877	19.436	952.085	726.643
162.892	19.232	950.968	724.867
163.906	19.155	950.149	723.855
164.921	19.197	949.181	723.229
165.935	19.380	948.206	723.190
166.950	19.506	947.470	723.092
167.964	19.477	946.551	722.206
168.979	19.360	945.534	720.878
169.994	19.325	944.690	720.025
171.008	19.493	944.263	720.335
172.023	19.746	944.150	721.242
173.037	19.959	942.807	721.040
174.052	19.603	942.338	719.136
175.067	19.394	940.958	717.150
176.081	19.117	940.337	715.461
177.096	19.144	939.525	714.893
178.110	19.268	939.242	715.127
179.125	19.388	938.399	714.919
180.140	19.461	938.355	715.125
181.154	19.636	938.253	715.712
182.169	19.687	938.339	715.925
183.183	19.892	937.274	715.898
184.198	19.744	936.225	714.420
185.213	19.700	935.552	713.663
186.227	19.984	934.821	714.214
187.242	20.033	934.543	714.138
188.256	20.167	933.735	714.010
189.271	20.140	933.126	713.369
190.286	19.750	931.950	710.803
191.300	19.209	930.880	707.702
192.315	19.065	930.196	706.531
193.329	19.096	929.711	706.224
194.344	19.258	929.653	706.785
195.359	19.500	928.330	706.708
196.373	19.662	927.822	706.923
197.388	19.811	927.941	707.557
198.402	19.968	927.982	708.168
199.417	20.219	926.941	708.337
200.432	20.251	926.990	708.444
201.446	20.339	926.541	708.395
202.461	20.478	925.840	708.366
203.475	20.264	924.903	706.714
204.490	20.034	923.817	704.883
205.504	19.878	923.246	703.752
206.519	19.802	922.510	702.821
207.534	19.774	921.871	702.158
208.548	19.882	920.931	701.815
209.563	19.877	920.260	701.224
210.577	19.913	920.362	701.386
211.592	20.284	919.457	702.134
212.607	20.271	918.930	701.618
213.621	20.146	918.328	700.589
214.636	20.062	917.090	699.247
215.650	20.195	916.341	699.147
216.665	20.279	916.223	699.336
217.680	20.400	915.520	699.225
218.694	20.386	914.927	698.653
219.709	20.272	914.508	697.812
220.723	20.233	913.746	697.011
221.738	20.228	912.902	696.287
222.753	20.152	911.940	695.188
223.767	20.305	911.764	695.603
224.782	20.511	911.200	695.940
225.796	20.530	911.141	695.908
226.811	20.383	910.041	694.417
227.826	20.236	909.094	693.045
228.840	20.215	908.381	692.359
229.855	20.136	907.575	691.368
230.869	20.138	906.900	690.799
231.884	20.039	906.001	689.660
232.899	20.087	905.259	689.225
233.913	19.968	904.424	688.056
234.928	19.744	903.877	686.687
235.942	19.861	903.191	686.572
236.957	19.821	902.881	686.115
237.972	19.768	902.283	685.391
238.986	19.877	901.758	685.362
240.001	19.796	901.086	684.471
241.015	19.939	900.845	684.794
242.030	20.002	900.381	684.628
243.045	20.083	899.297	684.062
244.059	20.101	899.030	683.871
245.074	20.304	898.244	684.015
246.088	20.431	897.700	684.039
247.103	20.513	897.016	683.778
248.117	20.815	897.179	685.033
249.132	21.131	896.830	685.947
250.147	21.327	895.889	685.935
251.161	21.341	895.403	685.557
252.176	21.247	895.591	685.274
253.190	21.252	895.001	684.777
254.205	21.240	894.256	684.102
255.220	21.397	892.867	683.591
256.234	21.220	892.632	682.659
257.249	21.352	891.742	682.433
258.263	21.099	891.479	681.185
259.278	21.201	890.593	680.846
260.293	21.344	890.352	681.160
261.307	21.411	889.489	680.699
262.322	21.432	888.881	680.254
263.336	21.408	888.241	679.611
264.351	21.495	887.340	679.202
265.366	21.495	886.482	678.482
266.380	21.370	886.314	677.811
267.395	21.274	885.176	676.509
268.409	21.227	884.682	675.891
269.424	21.108	884.137	674.953
270.439	20.907	883.633	673.730
271.453	20.762	882.435	672.200
272.468	20.956	881.840	672.434
273.482	20.977	881.614	672.283
274.497	20.927	880.955	671.528
275.512	21.018	880.352	671.360
276.526	21.146	879.726	671.315
277.541	20.977	880.051	670.853
278.555	21.290	878.870	671.097
279.570	21.412	878.443	671.179
280.585	21.376	877.549	670.301
281.599	21.180	876.506	668.693
282.614	20.960	876.085	667.471
283.628	21.017	875.444	667.141
284.643	21.003	874.545	666.343
285.657	21.086	874.152	666.303
286.672	21.132	873.287	665.759
287.687	21.037	873.093	665.188
288.701	21.119	872.572	665.046
289.716	21.178	871.892	664.693
290.730	21.333	871.347	664.810
291.745	21.350	870.652	664.286
292.760	21.481	870.152	664.341
293.774	21.611	869.800	664.509
294.789	21.412	869.123	663.175
295.803	21.088	868.065	661.083
296.818	21.082	867.134	660.295
297.833	21.091	866.693	659.935
298.847	21.184	866.246	659.886
299.862	21.255	865.886	659.821
300.876	21.392	865.232	659.783
301.891	21.684	864.706	660.422
302.906	21.567	864.682	659.907
303.920	21.953	864.158	660.903
304.935	21.941	863.241	660.098
305.949	21.607	863.185	658.740
306.964	21.512	861.894	657.338
307.979	21.625	861.386	657.317
308.993	21.771	860.923	657.455
310.008	21.636	860.751	656.756
311.022	21.538	860.008	655.767
312.037	21.450	858.957	654.578
313.052	21.297	857.980	653.200
314.066	20.893	857.900	651.572
315.081	21.053	856.938	651.381
316.095	21.160	856.271	651.216
317.110	21.100	855.894	650.647
318.125	21.113	855.422	650.282
319.139	21.090	854.991	649.812
320.154	21.174	854.782	649.905
321.168	21.179	854.484	649.641
322.183	21.298	853.224	649.066
323.197	21.266	853.229	648.893
324.212	21.411	852.517	648.833
325.227	21.300	851.861	647.865
326.241	21.151	851.324	646.848
327.256	21.272	850.733	646.790
328.270	21.251	849.898	646.022
329.285	21.220	849.434	645.497
330.300	21.028	849.174	644.530
331.314	21.252	848.432	644.738
332.329	21.346	848.236	644.879
333.343	21.662	847.906	645.736
334.358	21.684	847.468	645.426
335.373	21.586	847.030	644.676
336.387	21.689	846.779	644.807
337.402	21.725	846.630	644.766
338.416	22.172	846.186	646.015
339.431	22.157	845.876	645.667
340.446	22.119	845.899	645.489
341.460	22.243	845.605	645.663
342.475	22.321	844.673	645.181
343.489	22.278	844.377	644.738
344.504	22.358	844.199	644.837
345.519	22.402	844.005	644.794
346.533	22.409	842.753	643.809
347.548	22.114	841.885	642.008
348.562	21.924	841.070	640.638
349.577	21.845	840.522	639.875
350.592	21.598	839.953	638.484
351.606	21.479	839.239	637.452
352.621	21.776	838.577	637.972
353.635	21.794	838.428	637.868
354.650	21.795	837.745	637.296
355.665	21.829	836.855	636.685
356.679	22.074	836.239	637.051
357.694	22.008	835.587	636.257
358.708	21.734	835.876	635.426
359.723	21.813	834.816	634.851
360.738	21.823	833.802	634.061
361.752	21.964	833.450	634.246
362.767	22.310	833.246	635.285
363.781	22.337	833.047	635.176
364.796	22.527	832.846	635.651
365.810	22.706	832.214	635.759
366.825	22.872	831.717	635.918
367.840	22.618	831.154	634.520
368.854	22.399	830.503	633.177
369.869	22.319	830.016	632.463
370.883	22.472	829.314	632.422
371.898	22.552	829.242	632.597
372.913	22.560	829.337	632.644
373.927	22.529	828.479	631.822
374.942	22.591	827.744	631.427
375.956	22.613	827.478	631.247
376.971	22.774	827.248	631.594
377.986	23.064	826.516	632.013
379.000	22.827	826.049	630.753
380.015	22.795	825.638	630.270
381.029	22.698	825.146	629.494
382.044	22.795	824.364	629.187
383.059	22.813	823.691	628.681
384.073	22.663	823.097	627.640
385.088	22.420	822.485	626.252
386.102	22.234	821.502	624.786
387.117	22.182	821.434	624.495
388.132	22.300	820.054	623.809
389.146	22.374	820.281	624.188
390.161	22.702	819.835	624.955
391.175	22.777	819.079	624.593
392.190	22.512	818.649	623.269
393.205	22.448	817.590	622.182
394.219	22.423	817.492	621.964
395.234	22.281	817.168	621.162
396.248	21.983	816.630	619.645
397.263	22.084	816.102	619.546
398.278	22.266	815.333	619.548
399.292	22.115	814.930	618.656
400.307	22.096	814.456	618.174
401.321	22.188	814.018	618.113
402.336	22.211	813.962	618.096
403.350	22.389	813.777	618.526
404.365	22.678	813.318	619.136
405.380	22.894	812.848	619.482
406.394	22.977	812.130	619.172
407.409	22.836	812.330	618.774
408.423	22.996	811.953	618.991
409.438	23.047	811.420	618.710
410.453	23.071	811.198	618.570
411.467	23.148	810.615	618.340
412.482	23.316	810.389	618.701
413.496	23.406	809.846	618.543
414.511	23.332	809.786	618.187
415.526	23.105	809.129	616.838
416.540	22.979	808.557	615.909
417.555	22.993	808.341	615.737
418.569	23.161	807.344	615.508
419.584	23.346	806.888	615.750
420.599	23.148	806.826	614.959
421.613	164.772	1372.798	1798.258
422.628	143.383	1455.241	1798.343
