DTS Sentinel unit serial number:	SN413079Multiplexer serial number:	ORYXHardware model number:	OX4-SRSoftware version number:	ORYX F/W v4.00 Oryx Data Collector v3.7.2.0data status	okinstallation	princeton_trtdifferential loss correction	single-endedforward channel	channel 1reverse channel	N/Adate	2019/09/11time	14:28:11forward acquisition time	60.00reverse acquisition time	0.00gamma	496.2192k internal	0.2293k external	0.2293temperature offset calibration	0.9983default loss term (dB/km)	0.3790temperature slope calibration	1.0000multiplexer offset coefficient	1.0000multiplexer slope coefficient	1.0000fibre end	0.00T internal ref (°C)	42.16T ext. ref 1 (°C)	0.90T ext. ref 2 (°C)	37.72length (m)	temperature (°C)	Stokes	anti-Stokes-747.200	800.000	0.018	0.056
-746.185	-200.000	-0.047	0.372
-745.171	74.684	-0.051	0.055
-744.156	117.928	0.225	0.283
-743.142	20.274	0.028	-0.023
-742.127	157.500	0.124	0.175
-741.112	-149.089	0.328	0.027
-740.098	139.073	0.167	0.224
-739.083	44.799	0.052	0.049
-738.069	800.000	0.116	-0.410
-737.054	-57.058	-0.061	-0.027
-736.039	-94.466	-0.173	0.048
-735.025	800.000	-0.053	-0.159
-734.010	-200.000	-0.004	0.213
-732.996	-16.367	-0.108	0.070
-731.981	335.327	0.131	-0.259
-730.966	800.000	0.079	0.340
-729.952	800.000	0.093	0.292
-728.937	-28.653	-0.065	-0.038
-727.923	-191.343	-0.167	0.002
-726.908	-9.074	-0.122	-0.083
-725.894	-200.000	-0.042	-0.246
-724.879	-200.000	0.044	0.207
-723.864	-142.367	0.093	-0.009
-722.850	-25.359	0.167	0.101
-721.835	-79.494	-0.441	0.152
-720.821	-116.427	0.257	-0.049
-719.806	-200.000	-0.002	-0.117
-718.791	21.794	-0.150	-0.125
-717.777	-200.000	-0.021	-0.189
-716.762	286.819	-0.081	-0.149
-715.748	-77.185	0.102	0.036
-714.733	107.924	0.250	-0.304
-713.718	-200.000	-0.001	-0.120
-712.704	-131.744	-0.336	0.045
-711.689	-71.502	0.144	0.055
-710.675	309.590	0.087	0.167
-709.660	525.947	0.178	-0.429
-708.645	440.066	-0.018	-0.040
-707.631	800.000	-0.079	0.225
-706.616	-100.166	-0.599	-0.152
-705.602	-200.000	0.010	-0.134
-704.587	0.841	0.161	-0.118
-703.572	-23.222	-0.055	0.034
-702.558	-141.975	-0.119	-0.012
-701.543	-105.151	0.235	-0.055
-700.529	53.429	0.069	0.067
-699.514	-28.908	-0.248	0.146
-698.499	26.999	-0.159	-0.136
-697.485	65.966	0.365	0.378
-696.470	182.937	-0.086	0.129
-695.456	-75.265	-0.211	0.077
-694.441	-200.000	-0.011	0.061
-693.426	-78.216	-0.262	-0.092
-692.412	-200.000	0.012	-0.127
-691.397	-138.222	0.178	0.020
-690.383	261.829	-0.016	-0.029
-689.368	-31.085	0.209	-0.121
-688.354	-116.971	-0.288	-0.054
-687.339	-169.813	0.459	0.017
-686.324	-54.411	0.250	0.116
-685.310	225.398	-0.110	0.183
-684.295	-164.977	-0.311	0.014
-683.281	800.000	-0.093	0.411
-682.266	149.629	-0.137	-0.189
-681.251	-29.791	-0.229	-0.133
-680.237	-200.000	-0.003	-0.277
-679.222	331.196	-0.118	0.233
-678.208	-145.477	0.219	0.020
-677.193	37.648	-0.326	-0.295
-676.178	800.000	0.022	-0.064
-675.164	-200.000	-0.007	-0.136
-674.149	-89.641	0.060	0.018
-673.135	58.128	-0.041	0.041
-672.120	68.189	-0.068	0.071
-671.105	317.405	0.059	0.114
-670.091	-106.153	-0.129	-0.030
-669.076	800.000	-0.106	0.342
-668.062	-125.105	0.078	0.012
-667.047	-103.011	-0.216	0.052
-666.032	193.448	0.242	-0.373
-665.018	-91.143	-0.358	-0.105
-664.003	-200.000	-0.002	-0.048
-662.989	352.687	-0.032	-0.065
-661.974	306.658	-0.082	0.155
-660.959	-200.000	-0.058	0.426
-659.945	-10.575	-0.544	-0.367
-658.930	-200.000	-0.011	-0.086
-657.916	-108.470	0.157	-0.035
-656.901	-200.000	0.039	-0.194
-655.886	-119.804	-0.098	-0.017
-654.872	-104.796	-0.119	0.028
-653.857	-109.458	-0.115	0.025
-652.843	238.746	0.118	0.199
-651.828	180.947	-0.219	0.328
-650.814	-126.553	-0.331	-0.050
-649.799	19.861	-0.123	-0.101
-648.784	-61.581	0.252	0.108
-647.770	-17.068	-0.205	-0.132
-646.755	71.178	0.112	-0.118
-645.741	769.199	-0.115	-0.319
-644.726	-200.000	-0.064	0.388
-643.711	800.000	0.108	-0.326
-642.697	275.820	-0.109	0.198
-641.682	-20.081	0.211	-0.132
-640.668	-31.226	-0.044	0.025
-639.653	-200.000	0.011	0.061
-638.638	-200.000	0.049	-0.234
-637.624	-125.946	0.478	0.073
-636.609	-3.820	0.319	0.226
-635.595	-134.872	0.034	0.004
-634.580	24.821	-0.310	0.262
-633.565	-111.519	-0.285	-0.059
-632.551	-200.000	0.000	-0.146
-631.536	-87.127	-0.485	0.150
-630.522	58.558	0.161	-0.161
-629.507	-120.470	-0.073	-0.013
-628.492	-200.000	-0.010	-0.063
-627.478	-200.000	-0.032	0.434
-626.463	-94.791	0.208	-0.057
-625.449	34.446	0.089	0.079
-624.434	-97.635	0.227	0.060
-623.419	16.156	-0.125	0.100
-622.405	-156.434	-0.076	-0.005
-621.390	-200.000	-0.028	-0.126
-620.376	126.207	-0.205	-0.264
-619.361	73.269	0.019	-0.021
-618.346	50.893	0.180	0.173
-617.332	30.111	-0.183	-0.159
-616.317	-24.115	0.394	-0.239
-615.303	119.370	-0.120	0.151
-614.288	-71.944	0.333	0.126
-613.273	-200.000	-0.004	-0.047
-612.259	800.000	-0.095	-0.378
-611.244	800.000	-0.073	0.237
-610.230	-200.000	0.067	-0.362
-609.215	143.658	0.186	-0.252
-608.201	147.872	0.227	-0.311
-607.186	23.721	0.151	-0.127
-606.171	760.434	0.210	-0.579
-605.157	238.062	-0.206	-0.348
-604.142	-55.687	-0.201	0.092
-603.128	248.312	-0.020	0.035
-602.113	-192.961	-0.427	-0.004
-601.098	2.479	0.272	-0.200
-600.084	-104.578	0.181	-0.043
-599.069	-81.069	-0.287	-0.097
-598.055	306.854	-0.151	-0.287
-597.040	800.000	0.039	-0.126
-596.025	-105.512	0.398	-0.092
-595.011	-25.387	-0.101	-0.061
-593.996	-89.978	0.257	0.076
-592.982	-185.766	0.161	-0.002
-591.967	87.387	-0.207	0.233
-590.952	-91.109	0.239	0.070
-589.938	-49.243	0.024	-0.012
-588.923	-200.000	0.019	0.165
-587.909	-100.152	0.157	-0.040
-586.894	-75.526	-0.109	0.039
-585.879	24.428	0.116	0.098
-584.865	-46.680	0.118	0.059
-583.850	369.887	-0.103	0.211
-582.836	321.664	-0.074	-0.143
-581.821	114.427	-0.345	-0.428
-580.806	-47.869	-0.126	0.062
-579.792	-147.773	0.130	0.011
-578.777	800.000	0.041	0.159
-577.763	-132.517	-0.296	0.039
-576.748	99.001	0.137	0.161
-575.733	-37.167	0.270	0.147
-574.719	105.127	-0.148	0.178
-573.704	-85.071	-0.009	-0.003
-572.690	-64.983	-0.124	0.051
-571.675	54.867	0.125	-0.123
-570.661	-145.864	-0.098	-0.009
-569.646	164.096	0.140	-0.200
-568.631	-105.706	0.172	-0.040
-567.617	17.987	-0.173	0.140
-566.602	-3.732	0.084	0.059
-565.588	-60.240	0.067	0.029
-564.573	123.166	-0.056	0.072
-563.558	-11.699	0.201	0.134
-562.544	317.769	0.196	0.377
-561.529	235.096	0.085	0.142
-560.515	-1.189	0.108	0.077
-559.500	437.483	0.051	-0.113
-558.485	-200.000	0.038	0.369
-557.471	64.491	0.132	-0.135
-556.456	331.806	-0.043	0.084
-555.442	-200.000	-0.007	-0.134
-554.427	-200.000	-0.029	-0.209
-553.412	-78.720	0.106	0.037
-552.398	-79.092	-0.277	-0.096
-551.383	-108.460	0.082	-0.018
-550.369	-56.352	-0.272	0.123
-549.354	-85.079	-0.187	0.059
-548.339	800.000	0.030	0.109
-547.325	97.364	0.092	0.107
-546.310	-200.000	-0.011	-0.122
-545.296	-4.277	-0.025	0.018
-544.281	177.203	-0.262	-0.387
-543.266	-114.640	0.061	-0.012
-542.252	-200.000	-0.014	0.083
-541.237	-200.000	0.029	0.461
-540.223	-200.000	0.002	0.046
-539.208	-107.511	-0.260	-0.058
-538.193	-49.913	0.304	-0.146
-537.179	-148.382	-0.309	0.026
-536.164	-200.000	0.148	-0.000
-535.150	-158.257	0.236	-0.014
-534.135	-84.176	0.162	-0.052
-533.121	-74.386	-0.383	0.140
-532.106	139.073	-0.071	0.094
-531.091	269.054	0.075	0.134
-530.077	-200.000	0.013	0.370
-529.062	-200.000	0.049	0.233
-528.048	-200.000	-0.004	0.036
-527.033	133.462	-0.153	0.201
-526.018	-200.000	-0.067	-0.379
-525.004	-86.023	-0.192	0.060
-523.989	-75.219	0.221	-0.080
-522.975	-187.404	0.203	0.003
-521.960	-172.995	0.201	-0.006
-520.945	-148.589	0.298	-0.025
-519.931	150.875	-0.180	-0.248
-518.916	45.964	0.060	-0.057
-517.902	-200.000	-0.034	-0.405
-516.887	-51.943	-0.207	0.098
-515.872	181.865	0.098	-0.146
-514.858	-131.844	0.064	-0.009
-513.843	364.750	0.168	0.342
-512.829	-38.354	0.190	-0.102
-511.814	800.000	-0.039	-0.145
-510.799	-128.312	0.172	-0.025
-509.785	179.747	0.080	0.119
-508.770	-81.056	0.061	-0.020
-507.756	251.712	-0.053	0.091
-506.741	111.418	0.166	0.203
-505.726	193.472	-0.145	-0.222
-504.712	35.887	-0.194	-0.173
-503.697	800.000	0.069	-0.284
-502.683	767.461	0.039	-0.107
-501.668	21.425	0.286	-0.236
-500.653	-115.908	-0.416	-0.079
-499.639	-13.735	0.442	-0.290
-498.624	-73.381	-0.196	-0.073
-497.610	-200.000	-0.016	0.192
-496.595	102.040	-0.174	-0.206
-495.581	-110.623	-0.214	0.045
-494.566	347.404	0.102	0.203
-493.551	-96.723	-0.116	-0.031
-492.537	-92.308	-0.233	0.066
-491.522	-82.988	-0.448	0.146
-490.508	-113.485	0.018	0.004
-489.493	77.866	-0.218	-0.236
-488.478	614.277	-0.054	0.138
-487.464	-7.067	-0.041	-0.028
-486.449	271.065	0.124	-0.220
-485.435	-44.722	0.120	0.060
-484.420	248.508	-0.127	-0.218
-483.405	-29.287	-0.207	-0.120
-482.391	-24.189	0.312	-0.189
-481.376	-72.643	-0.325	-0.121
-480.362	432.574	-0.253	-0.555
-479.347	96.056	-0.169	0.196
-478.332	26.392	-0.115	-0.097
-477.318	-118.556	0.032	0.006
-476.303	1.946	-0.110	0.081
-475.289	-200.000	-0.045	0.283
-474.274	-114.468	0.117	-0.023
-473.259	-107.198	0.207	-0.046
-472.245	800.000	0.105	-0.332
-471.230	-121.579	0.193	-0.032
-470.216	-200.000	0.029	-0.285
-469.201	-149.550	-0.891	-0.071
-468.186	-200.000	-0.043	0.226
-467.172	-105.790	0.338	0.077
-466.157	7.564	-0.145	-0.110
-465.143	0.354	-0.097	0.070
-464.128	172.594	-0.063	0.092
-463.113	178.461	-0.041	0.060
-462.099	-200.000	0.045	-0.367
-461.084	-9.844	0.184	0.124
-460.070	800.000	-0.074	0.233
-459.055	-111.722	-0.210	-0.043
-458.040	136.844	0.124	-0.164
-457.026	123.482	0.274	0.347
-456.011	34.560	0.030	0.027
-454.997	163.958	0.038	0.055
-453.982	-100.071	0.160	-0.040
-452.968	285.231	0.103	-0.187
-451.953	-200.000	0.000	-0.219
-450.938	124.163	0.094	-0.120
-449.924	-200.000	-0.013	-0.061
-448.909	42.477	0.019	0.018
-447.895	47.080	-0.353	0.332
-446.880	-30.070	0.124	0.071
-445.865	-200.000	0.006	-0.224
-444.851	800.000	-0.032	0.137
-443.836	-200.000	0.074	0.440
-442.822	800.000	-0.133	0.438
-441.807	-15.597	0.186	0.120
-440.792	-93.759	0.089	-0.025
-439.778	62.740	-0.183	0.185
-438.763	800.000	0.068	-0.225
-437.749	24.959	-0.101	-0.085
-436.734	-37.065	0.086	0.047
-435.719	-75.861	0.257	-0.092
-434.705	-114.989	0.193	-0.037
-433.690	-19.953	0.119	0.074
-432.676	-121.392	-0.216	0.036
-431.661	-57.872	0.197	-0.087
-430.646	-78.243	0.123	-0.043
-429.632	214.892	-0.060	0.097
-428.617	220.776	-0.159	-0.258
-427.603	-73.190	-0.070	0.026
-426.588	-30.551	-0.441	0.253
-425.573	-5.878	-0.096	-0.066
-424.559	800.000	0.087	0.248
-423.544	-59.983	-0.457	-0.197
-422.530	-35.106	0.088	0.048
-421.515	327.486	-0.107	0.208
-420.500	-85.161	0.050	-0.016
-419.486	13.526	0.148	-0.116
-418.471	-107.352	0.293	0.065
-417.457	349.091	0.098	0.195
-416.442	460.634	-0.024	0.055
-415.428	108.129	-0.194	0.234
-414.413	-42.718	0.145	0.075
-413.398	-47.483	-0.189	-0.093
-412.384	3.014	-0.273	0.200
-411.369	108.285	0.217	0.261
-410.355	712.404	0.029	-0.077
-409.340	-200.000	-0.024	-0.315
-408.325	250.883	-0.134	-0.230
-407.311	22.564	0.273	0.226
-406.296	-87.518	-0.450	0.138
-405.282	191.427	0.056	0.085
-404.267	-183.972	-0.197	-0.003
-403.252	-200.000	-0.028	-0.193
-402.238	273.236	-0.076	-0.136
-401.223	800.000	-0.048	-0.154
-400.209	-35.313	0.153	0.084
-399.194	-184.338	-0.364	0.006
-398.179	8.724	-0.364	0.277
-397.165	292.245	0.100	0.185
-396.150	4.690	0.143	0.106
-395.136	45.470	0.215	-0.201
-394.121	397.246	-0.051	0.107
-393.106	74.505	0.058	-0.062
-392.092	-102.419	-0.199	-0.048
-391.077	52.134	-0.107	-0.103
-390.063	189.341	0.085	-0.128
-389.048	57.856	-0.167	0.165
-388.033	32.025	0.120	0.105
-387.019	117.605	-0.141	0.175
-386.004	20.603	0.326	-0.266
-384.990	-21.837	0.120	-0.074
-383.975	136.947	-0.256	-0.337
-382.960	192.170	0.081	-0.123
-381.946	551.898	-0.050	-0.121
-380.931	137.631	-0.272	-0.360
-379.917	-28.801	0.364	0.211
-378.902	11.410	0.335	-0.259
-377.888	-200.000	-0.063	0.289
-376.873	-66.652	0.137	0.055
-375.858	391.798	0.116	0.243
-374.844	644.753	-0.072	-0.186
-373.829	-200.000	-0.034	0.167
-372.815	-200.000	-0.019	0.168
-371.800	13.923	-0.067	0.052
-370.785	17.059	0.102	-0.082
-369.771	5.927	0.129	0.096
-368.756	-55.422	-0.073	-0.033
-367.742	-200.000	0.047	-0.231
-366.727	-200.000	0.007	0.094
-365.712	70.909	0.129	-0.135
-364.698	217.093	-0.064	-0.103
-363.683	-200.000	0.015	-0.303
-362.669	-200.000	0.065	-0.459
-361.654	147.420	0.126	-0.172
-360.639	-30.718	-0.200	-0.114
-359.625	486.996	-0.212	0.487
-358.610	-1.925	-0.221	-0.157
-357.596	800.000	-0.039	-0.158
-356.581	121.735	-0.091	0.115
-355.566	-200.000	0.071	0.373
-354.552	176.788	-0.125	0.184
-353.537	800.000	0.058	-0.166
-352.523	-13.385	0.101	-0.066
-351.508	257.699	-0.095	0.164
-350.493	-200.000	0.001	0.354
-349.479	-200.000	-0.031	-0.230
-348.464	149.958	0.217	0.296
-347.450	-200.000	0.027	0.161
-346.435	-36.242	-0.168	0.091
-345.420	-200.000	0.009	-0.181
-344.406	-127.719	0.216	0.031
-343.391	-83.064	0.347	0.112
-342.377	-118.024	0.113	0.020
-341.362	-36.789	-0.315	0.170
-340.348	66.483	0.150	-0.153
-339.333	-134.876	-0.128	0.016
-338.318	107.298	0.184	0.221
-337.304	-40.642	-0.244	-0.127
-336.289	-200.000	0.009	-0.103
-335.275	23.171	0.338	0.280
-334.260	126.994	0.153	0.195
-333.245	-200.000	-0.026	0.260
-332.231	-190.745	0.102	-0.001
-331.216	252.093	0.199	0.342
-330.202	208.674	0.088	0.139
-329.187	-200.000	0.005	-0.096
-328.172	250.693	0.057	0.097
-327.158	57.565	0.224	-0.221
-326.143	174.324	-0.200	-0.291
-325.129	-112.394	-0.165	0.033
-324.114	-41.285	-0.172	0.089
-323.099	-114.926	-0.186	0.036
-322.085	110.937	-0.059	-0.072
-321.070	110.001	-0.115	0.139
-320.056	-89.611	0.199	0.059
-319.041	-146.277	-0.233	0.021
-318.026	226.600	-0.185	0.303
-317.012	333.026	-0.157	-0.306
-315.997	800.000	0.043	-0.150
-314.983	249.150	-0.089	-0.152
-313.968	800.000	-0.069	0.214
-312.953	-165.729	-0.251	0.011
-311.939	229.902	0.051	-0.084
-310.924	110.547	-0.240	0.291
-309.910	800.000	-0.081	0.285
-308.895	-200.000	0.008	0.196
-307.880	-6.653	-0.157	-0.108
-306.866	-12.054	-0.125	0.082
-305.851	527.637	0.160	0.379
-304.837	-164.316	0.179	0.008
-303.822	800.000	0.050	0.168
-302.807	325.588	-0.107	-0.205
-301.793	44.615	-0.276	-0.255
-300.778	401.896	0.070	0.149
-299.764	800.000	0.060	-0.206
-298.749	317.515	-0.090	-0.172
-297.735	66.419	0.179	0.183
-296.720	105.766	-0.105	0.124
-295.705	-11.259	0.170	0.112
-294.691	175.464	0.037	0.053
-293.676	44.578	-0.192	0.177
-292.662	800.000	0.072	-0.252
-291.647	-21.805	0.098	0.060
-290.632	-200.000	0.006	-0.055
-289.618	-200.000	0.015	0.214
-288.603	-112.125	0.277	-0.056
-287.589	-200.000	-0.001	-0.012
-286.574	94.317	-0.269	0.307
-285.559	-54.124	0.358	-0.164
-284.545	235.977	0.102	0.169
-283.530	-148.084	0.125	-0.010
-282.516	800.000	-0.060	-0.209
-281.501	-6.075	0.168	-0.115
-280.486	-83.212	0.150	0.048
-279.472	800.000	0.027	0.093
-278.457	-200.000	0.002	-0.224
-277.443	-200.000	-0.002	-0.082
-276.428	-145.103	0.048	-0.004
-275.413	194.413	-0.144	0.220
-274.399	-200.000	-0.021	-0.238
-273.384	-14.421	-0.256	0.166
-272.370	273.752	0.118	-0.209
-271.355	-132.823	0.105	0.013
-270.340	-99.461	0.145	0.037
-269.326	-200.000	0.005	-0.089
-268.311	-83.492	-0.065	0.021
-267.297	800.000	-0.129	-0.465
-266.282	539.951	-0.099	-0.237
-265.267	402.877	-0.217	0.459
-264.253	-24.084	-0.110	0.066
-263.238	57.117	-0.058	0.057
-262.224	800.000	-0.041	-0.133
-261.209	439.501	-0.104	0.228
-260.195	336.784	-0.145	0.283
-259.180	800.000	0.014	0.052
-258.165	-200.000	-0.010	0.119
-257.151	145.800	0.099	-0.133
-256.136	-200.000	-0.018	-0.089
-255.122	800.000	-0.071	-0.276
-254.107	-13.919	0.371	-0.241
-253.092	-109.228	0.200	-0.043
-252.078	-200.000	-0.069	-0.374
-251.063	-200.000	-0.000	0.352
-250.049	-192.859	-0.106	-0.001
-249.034	-200.000	0.009	-0.219
-248.019	-110.784	-0.079	-0.016
-247.005	-200.000	0.013	0.207
-245.990	14.309	0.272	0.213
-244.976	212.266	0.172	-0.272
-243.961	6.915	0.197	-0.147
-242.946	591.317	0.024	-0.060
-241.932	-39.016	0.058	-0.031
-240.917	56.403	-0.181	0.176
-239.903	50.481	-0.280	0.265
-238.888	-78.640	-0.100	-0.034
-237.873	-200.000	0.019	0.145
-236.859	176.491	0.097	-0.142
-235.844	515.450	0.120	-0.281
-234.830	100.432	-0.090	0.105
-233.815	142.803	0.291	-0.388
-232.800	-171.375	-0.180	0.006
-231.786	217.915	-0.147	-0.235
-230.771	190.250	-0.139	-0.210
-229.757	106.339	0.122	-0.146
-228.742	-145.019	0.165	0.015
-227.727	9.354	-0.206	0.157
-226.713	-76.726	-0.204	0.072
-225.698	-70.565	0.201	-0.076
-224.684	153.253	-0.083	0.114
-223.669	92.105	0.146	-0.165
-222.655	-200.000	0.007	0.048
-221.640	250.838	-0.097	0.165
-220.625	415.882	0.067	-0.142
-219.611	-200.000	-0.050	0.330
-218.596	-116.943	-0.306	0.056
-217.582	293.436	0.165	0.302
-216.567	-71.975	-0.029	-0.011
-215.552	-200.000	-0.009	-0.057
-214.538	800.000	-0.067	0.219
-213.523	-106.418	-0.169	-0.038
-212.509	-22.559	0.151	0.092
-211.494	-200.000	-0.037	-0.264
-210.479	-162.259	-0.316	-0.016
-209.465	40.632	0.177	0.160
-208.450	-200.000	-0.055	0.261
-207.436	-81.803	-0.211	0.069
-206.421	800.000	-0.090	-0.292
-205.406	-21.665	-0.272	0.166
-204.392	-107.942	-0.117	-0.025
-203.377	-3.742	0.243	0.169
-202.363	82.453	0.062	0.067
-201.348	-158.333	0.118	-0.007
-200.333	-165.656	0.272	0.012
-199.319	-158.124	0.403	-0.024
-198.304	-200.000	-0.025	0.219
-197.290	367.757	0.118	-0.238
-196.275	800.000	-0.058	-0.178
-195.260	164.674	-0.202	0.285
-194.246	18.536	0.068	-0.054
-193.231	-0.030	-0.193	-0.138
-192.217	-28.422	0.268	0.155
-191.202	9.893	0.358	0.272
-190.187	-62.753	-0.263	-0.109
-189.173	-56.812	0.159	0.070
-188.158	131.321	0.178	-0.229
-187.144	209.979	0.035	-0.055
-186.129	-187.934	0.358	-0.005
-185.114	-86.161	0.293	-0.090
-184.100	162.214	-0.135	-0.190
-183.085	-91.921	-0.323	-0.092
-182.071	-200.000	-0.061	0.419
-181.056	-139.150	0.128	0.014
-180.042	444.042	-0.066	0.145
-179.027	-91.367	0.085	0.024
-178.012	41.796	0.205	-0.186
-176.998	800.000	-0.074	-0.249
-175.983	501.880	0.048	0.110
-174.969	-15.774	0.105	0.067
-173.954	145.788	0.105	0.140
-172.939	-135.094	-0.189	-0.023
-171.925	103.954	-0.110	-0.129
-170.910	-104.068	0.111	0.026
-169.896	-200.000	-0.025	0.169
-168.881	-137.058	0.548	0.063
-167.866	200.136	-0.062	-0.095
-166.852	-1.788	0.101	-0.071
-165.837	-200.000	0.021	-0.127
-164.823	434.287	-0.038	-0.083
-163.808	5.696	-0.129	0.095
-162.793	-112.939	0.228	-0.045
-161.779	-76.576	-0.340	-0.120
-160.764	-8.792	0.167	-0.112
-159.750	92.196	-0.158	-0.178
-158.735	-200.000	-0.011	0.106
-157.720	135.784	0.107	-0.139
-156.706	69.443	0.108	0.112
-155.691	61.604	-0.335	0.333
-154.677	598.655	-0.144	-0.358
-153.662	800.000	-0.036	0.115
-152.647	145.670	-0.149	0.199
-151.633	800.000	-0.097	0.286
-150.618	558.807	0.070	-0.168
-149.604	-108.217	0.200	0.043
-148.589	800.000	0.015	0.066
-147.574	150.376	0.045	-0.062
-146.560	-120.802	-0.214	-0.036
-145.545	-145.659	-0.157	-0.014
-144.531	48.128	-0.217	0.203
-143.516	103.683	0.156	0.183
-142.502	261.748	0.176	0.304
-141.487	800.000	-0.138	0.425
-140.472	-16.015	0.177	-0.112
-139.458	-200.000	-0.001	-0.198
-138.443	-16.430	0.341	-0.216
-137.429	23.886	-0.126	-0.104
-136.414	-200.000	0.176	-0.001
-135.399	12.288	0.126	-0.097
-134.385	-17.249	0.183	-0.115
-133.370	61.354	-0.030	-0.030
-132.356	-82.571	-0.303	0.098
-131.341	-72.971	-0.453	-0.166
-130.326	-86.492	-0.118	0.036
-129.312	-14.016	-0.133	0.086
-128.297	-51.606	0.227	-0.106
-127.283	-117.379	-0.211	-0.038
-126.268	76.665	0.114	-0.120
-125.253	800.000	-0.101	0.378
-124.239	105.563	-0.100	0.118
-123.224	525.778	0.093	0.219
-122.210	490.020	-0.061	0.139
-121.195	511.906	0.032	0.073
-120.180	-0.017	0.233	-0.165
-119.166	365.422	-0.037	-0.074
-118.151	800.000	0.141	0.441
-117.137	800.000	0.019	-0.074
-116.122	-200.000	-0.023	-0.189
-115.107	64.802	0.047	0.047
-114.093	-131.478	-0.129	-0.017
-113.078	-76.208	-0.048	-0.017
-112.064	266.904	-0.313	-0.546
-111.049	-75.511	0.312	0.111
-110.034	-48.531	0.307	-0.148
-109.020	343.484	0.051	-0.100
-108.005	-136.722	0.338	0.039
-106.991	-114.395	0.234	0.045
-105.976	338.886	-0.036	0.070
-104.962	800.000	0.087	0.248
-103.947	395.050	-0.109	-0.227
-102.932	-10.670	0.166	-0.110
-101.918	-102.150	0.380	0.091
-100.903	-200.000	0.051	0.242
-99.889	300.611	0.058	0.107
-98.874	800.000	0.026	-0.112
-97.859	345.021	-0.067	-0.132
-96.845	-32.388	0.074	0.041
-95.830	126.744	-0.154	0.195
-94.816	-40.545	-0.207	0.107
-93.801	4.406	0.295	-0.216
-92.786	67.067	-0.122	-0.124
-91.772	-200.000	-0.006	0.250
-90.757	-27.144	-0.086	0.050
-89.743	-200.000	-0.041	0.239
-88.728	-142.769	-0.248	0.024
-87.713	92.485	-0.231	0.260
-86.699	-114.738	-0.156	0.030
-85.684	-200.000	0.069	0.345
-84.670	-47.229	0.203	-0.099
-83.655	79.173	0.209	-0.224
-82.640	-2.732	0.110	-0.077
-81.626	800.000	-0.112	0.471
-80.611	212.676	0.261	-0.410
-79.597	554.224	-0.047	-0.112
-78.582	184.291	-0.184	-0.272
-77.567	337.444	-0.100	0.193
-76.553	800.000	-0.014	-0.044
-75.538	27.147	-0.070	-0.058
-74.524	490.298	-0.085	0.194
-73.509	11.853	-0.242	0.186
-72.494	252.941	0.129	-0.220
-71.480	-200.000	-0.066	-0.359
-70.465	2.477	-0.188	0.135
-69.451	-97.186	0.025	-0.007
-68.436	58.271	-0.145	-0.141
-67.422	756.289	-0.050	-0.135
-66.407	-200.000	-0.007	-0.249
-65.392	-29.069	-0.328	-0.188
-64.378	-200.000	-0.006	-0.178
-63.363	-17.093	0.011	-0.007
-62.349	800.000	-0.026	0.112
-61.334	325.856	-0.365	-0.696
-60.319	-85.523	0.413	-0.128
-59.305	-200.000	0.071	-0.693
-58.290	278.624	0.358	0.636
-57.276	800.000	0.471	1.504
-56.261	-200.000	75.169	533.578
-55.246	562.349	1302.411	3138.634
-54.232	146.788	2537.947	3397.896
-53.217	121.309	2227.291	2762.742
-52.203	54.918	1666.707	1602.666
-51.188	46.305	1385.330	1278.824
-50.173	42.430	1338.046	1211.790
-49.159	60.749	1372.562	1354.990
-48.144	68.353	1391.234	1419.573
-47.130	46.531	1353.730	1250.822
-46.115	42.344	1337.566	1210.641
-45.100	42.108	1332.470	1204.563
-44.086	42.069	1329.994	1202.045
-43.071	42.094	1327.365	1199.770
-42.057	41.955	1325.300	1197.024
-41.042	41.937	1323.611	1195.346
-40.027	42.089	1322.057	1194.797
-39.013	41.995	1320.411	1192.702
-37.998	42.167	1318.093	1191.588
-36.984	42.115	1316.539	1189.826
-35.969	42.103	1314.873	1188.201
-34.954	42.213	1313.304	1187.389
-33.940	42.149	1312.177	1185.943
-32.925	42.230	1310.243	1184.624
-31.911	42.215	1308.979	1183.347
-30.896	42.298	1307.146	1182.132
-29.881	42.264	1305.526	1180.424
-28.867	42.337	1304.243	1179.643
-27.852	42.325	1302.762	1178.185
-26.838	42.228	1300.976	1175.958
-25.823	42.174	1300.074	1174.778
-24.809	42.310	1298.594	1174.191
-23.794	42.386	1296.572	1172.757
-22.779	42.267	1295.491	1171.041
-21.765	42.225	1294.712	1170.044
-20.750	42.172	1293.159	1168.285
-19.736	42.173	1291.929	1167.133
-18.721	42.104	1290.389	1165.291
-17.706	42.084	1289.263	1164.116
-16.692	42.225	1287.664	1163.446
-15.677	42.119	1287.001	1162.186
-14.663	42.089	1285.669	1160.758
-13.648	42.027	1284.570	1159.364
-12.633	42.042	1283.782	1158.694
-11.619	41.988	1282.962	1157.598
-10.604	42.089	1282.493	1157.712
-9.590	42.109	1280.629	1156.095
-8.575	42.026	1279.848	1154.866
-7.560	42.177	1278.651	1154.612
-6.546	42.058	1278.063	1153.347
-5.531	42.076	1277.086	1152.525
-4.517	41.972	1276.211	1151.094
-3.502	42.011	1275.698	1150.810
-2.487	42.034	1274.346	1149.676
-1.473	42.212	1270.645	1147.311
-0.458	41.298	1256.401	1129.226
0.556	36.857	1235.914	1089.436
1.571	33.127	1238.093	1070.194
2.586	31.884	1253.048	1075.895
3.600	30.081	1241.637	1055.744
4.615	21.004	1163.569	940.560
5.629	7.494	1078.367	803.627
6.644	1.394	1053.222	754.586
7.659	0.911	1050.379	750.086
8.673	0.717	1049.150	748.182
9.688	0.581	1047.982	746.612
10.702	1.166	1047.075	748.787
11.717	9.050	1058.910	796.433
12.731	20.200	1074.784	864.170
13.746	23.719	1077.660	883.954
14.761	23.203	1077.080	880.832
15.775	23.225	1076.286	880.218
16.790	22.852	1075.618	877.739
17.804	22.801	1075.107	876.991
18.819	22.984	1074.573	877.384
19.834	23.051	1074.058	877.220
20.848	23.014	1073.408	876.428
21.863	23.071	1072.854	876.178
22.877	22.997	1071.705	874.796
23.892	22.878	1071.597	874.043
24.907	23.001	1070.741	873.878
25.921	22.888	1069.854	872.517
26.936	22.974	1068.346	871.633
27.950	22.903	1067.101	870.191
28.965	22.711	1065.251	867.664
29.980	22.982	1062.987	867.070
30.994	23.169	1062.062	867.155
32.009	23.009	1061.961	866.214
33.023	22.848	1060.358	864.040
34.038	22.847	1059.540	863.291
35.053	22.992	1059.161	863.618
36.067	22.981	1058.139	862.651
37.082	23.124	1057.254	862.553
38.096	23.250	1057.355	863.175
39.111	23.299	1056.340	862.505
40.126	23.161	1054.724	860.438
41.140	22.728	1053.277	857.082
42.155	22.578	1051.651	854.953
43.169	22.599	1050.837	854.318
44.184	22.664	1050.058	853.926
45.199	22.583	1048.994	852.590
46.213	22.654	1048.115	852.146
47.228	22.726	1047.431	851.861
48.242	22.841	1046.108	851.264
49.257	22.872	1045.703	851.009
50.271	23.091	1045.037	851.446
51.286	23.121	1043.979	850.651
52.301	23.108	1042.986	849.704
53.315	22.940	1042.235	848.210
54.330	23.014	1041.035	847.517
55.344	22.981	1040.680	846.996
56.359	22.980	1039.847	846.237
57.374	22.743	1038.667	844.066
58.388	22.861	1037.557	843.653
59.403	22.835	1036.929	842.945
60.417	22.501	1036.254	840.730
61.432	22.756	1035.441	841.208
62.447	22.803	1035.341	841.276
63.461	22.895	1034.060	840.602
64.476	22.804	1033.073	839.291
65.490	22.596	1032.353	837.644
66.505	22.645	1031.995	837.513
67.520	22.884	1030.290	837.187
68.534	22.654	1029.371	835.276
69.549	22.216	1028.405	832.347
70.563	22.415	1027.623	832.579
71.578	22.126	1027.785	831.273
72.593	22.056	1026.169	829.559
73.607	22.216	1025.711	829.872
74.622	22.558	1025.521	831.259
75.636	22.593	1024.720	830.699
76.651	22.487	1023.323	828.997
77.666	22.400	1022.601	827.926
78.680	22.550	1021.931	828.016
79.695	22.550	1021.696	827.753
80.709	22.748	1020.512	827.650
81.724	22.719	1020.096	827.101
82.739	22.709	1019.273	826.316
83.753	22.891	1019.039	826.905
84.768	23.086	1018.244	827.097
85.782	23.501	1016.514	827.559
86.797	23.431	1015.699	826.496
87.812	23.203	1014.960	824.756
88.826	23.198	1014.182	824.031
89.841	23.266	1013.418	823.651
90.855	23.263	1012.093	822.487
91.870	23.204	1011.830	821.929
92.884	23.253	1010.002	820.596
93.899	23.109	1009.030	819.066
94.914	23.319	1008.443	819.492
95.928	23.188	1007.218	817.816
96.943	22.842	1006.454	815.527
97.957	22.607	1005.147	813.310
98.972	22.513	1004.009	811.883
99.987	22.709	1003.331	812.170
101.001	22.939	1002.495	812.478
102.016	22.902	1001.913	811.765
103.030	22.891	1000.541	810.530
104.045	22.884	999.741	809.777
105.060	22.633	999.003	807.959
106.074	22.779	998.512	808.161
107.089	23.161	997.603	809.101
108.103	23.123	996.275	807.777
109.118	22.815	995.118	805.363
110.133	22.873	994.056	804.696
111.147	22.595	993.095	802.579
112.162	22.494	991.945	801.123
113.176	22.727	991.588	801.819
114.191	22.612	990.749	800.551
115.206	22.277	989.651	798.073
116.220	22.267	988.880	797.332
117.235	22.407	988.189	797.342
118.249	22.456	987.329	796.797
119.264	22.311	986.748	795.601
120.279	22.361	986.003	795.158
121.293	22.567	984.985	795.194
122.308	22.472	984.189	794.053
123.322	22.480	982.691	792.812
124.337	22.375	981.353	791.191
125.352	21.893	979.922	787.801
126.366	21.787	979.038	786.545
127.381	22.567	978.930	789.887
128.395	22.919	978.624	791.149
129.410	23.042	977.794	790.956
130.424	23.021	976.766	789.960
131.439	22.991	976.099	789.218
132.454	22.921	974.951	787.907
133.468	22.826	974.170	786.786
134.483	22.876	973.802	786.641
135.497	23.248	972.868	787.472
136.512	23.352	971.760	786.969
137.527	23.378	970.816	786.249
138.541	23.299	970.443	785.526
139.556	23.218	969.481	784.319
140.570	23.427	968.554	784.426
141.585	23.460	967.367	783.540
142.600	23.334	966.476	782.190
143.614	23.542	966.086	782.724
144.629	23.730	965.059	782.651
145.643	23.492	963.823	780.533
146.658	23.288	962.565	778.547
147.673	23.275	961.135	777.264
148.687	23.144	960.486	776.098
149.702	23.026	959.391	774.630
150.716	22.962	958.677	773.703
151.731	23.101	958.031	773.720
152.746	23.283	957.241	773.811
153.760	23.369	956.587	773.586
154.775	23.466	956.179	773.612
155.789	23.318	955.505	772.352
156.804	23.430	954.124	771.657
157.819	23.396	953.382	770.839
158.833	23.492	952.987	770.870
159.848	23.469	951.916	769.834
160.862	23.310	950.541	767.967
161.877	23.289	949.651	767.088
162.892	23.429	948.621	766.792
163.906	23.319	947.736	765.535
164.921	23.430	946.497	764.948
165.935	23.390	945.904	764.226
166.950	23.490	944.689	763.606
167.964	23.308	943.975	762.182
168.979	23.288	942.642	760.952
169.994	23.103	942.273	759.792
171.008	23.363	941.568	760.270
172.023	23.411	940.637	759.659
173.037	23.272	939.030	757.699
174.052	23.182	938.132	756.522
175.067	23.223	937.772	756.341
176.081	23.229	937.439	756.029
177.096	23.144	937.107	755.332
178.110	22.794	936.322	753.140
179.125	22.781	934.938	751.904
180.140	22.840	935.000	752.138
181.154	22.906	934.389	751.860
182.169	23.179	934.346	752.922
183.183	23.431	933.789	753.479
184.198	23.284	932.811	752.000
185.213	23.245	932.375	751.413
186.227	23.330	931.912	751.337
187.242	23.389	930.749	750.583
188.256	23.512	929.974	750.412
189.271	23.418	929.537	749.595
190.286	23.206	928.245	747.591
191.300	22.612	927.265	744.226
192.315	21.933	925.198	739.642
193.329	21.804	925.504	739.279
194.344	22.593	925.736	742.724
195.359	23.325	925.342	745.425
196.373	23.464	924.596	745.342
197.388	23.215	924.222	743.926
198.402	23.174	923.627	743.208
199.417	23.249	922.996	742.949
200.432	23.077	921.972	741.341
201.446	22.866	921.179	739.753
202.461	22.981	920.427	739.567
203.475	22.193	918.977	735.043
204.490	21.294	917.399	729.961
205.504	22.314	917.611	734.322
206.519	22.889	918.000	736.968
207.534	22.776	917.825	736.294
208.548	23.333	917.395	738.205
209.563	23.148	916.060	736.295
210.577	23.116	915.192	735.401
211.592	23.572	915.140	737.189
212.607	23.501	914.364	736.205
213.621	23.481	913.809	735.607
214.636	23.511	912.956	734.980
215.650	23.420	912.256	733.975
216.665	23.395	912.050	733.639
217.680	23.345	911.146	732.643
218.694	23.003	909.819	730.099
219.709	22.906	908.801	728.815
220.723	23.054	908.978	729.504
221.738	23.309	907.918	729.639
222.753	23.223	907.538	728.917
223.767	23.288	907.001	728.687
224.782	23.508	906.798	729.363
225.796	23.648	906.189	729.386
226.811	22.982	904.370	725.124
227.826	22.275	903.569	721.521
228.840	22.515	902.732	721.770
229.855	22.516	902.073	721.184
230.869	22.180	901.004	718.890
231.884	22.662	900.986	720.783
232.899	23.300	901.457	723.704
233.913	23.232	900.397	722.513
234.928	23.228	899.955	722.077
235.942	23.177	899.286	721.271
236.957	22.961	898.604	719.777
237.972	22.891	898.083	719.012
238.986	23.137	897.066	719.134
240.001	22.907	896.983	718.068
241.015	23.010	896.364	717.929
242.030	23.218	895.954	718.382
243.045	23.287	895.452	718.196
244.059	23.380	895.153	718.267
245.074	23.198	894.147	716.660
246.088	22.979	892.694	714.549
247.103	23.208	892.571	715.311
248.117	23.834	892.559	717.766
249.132	23.984	892.400	718.181
250.147	24.128	891.459	717.940
251.161	24.239	891.195	718.114
252.176	24.123	890.860	717.311
253.190	24.287	890.109	717.303
254.205	24.326	889.590	716.979
255.220	24.284	889.254	716.474
256.234	24.182	888.248	715.193
257.249	24.093	887.246	713.966
258.263	24.161	886.284	713.400
259.278	24.318	885.899	713.657
260.293	24.187	885.827	713.011
261.307	24.078	884.798	711.683
262.322	24.044	883.690	710.594
263.336	23.258	881.777	705.859
264.351	22.266	879.855	700.311
265.366	22.225	879.995	700.198
266.380	23.373	880.339	704.978
267.395	23.744	880.335	706.389
268.409	23.665	879.922	705.680
269.424	23.849	879.101	705.692
270.439	24.050	878.327	705.805
271.453	24.172	877.461	705.530
272.468	24.231	877.490	705.723
273.482	24.348	876.786	705.558
274.497	23.969	875.654	703.086
275.512	23.637	874.674	700.928
276.526	23.918	875.023	702.253
277.541	24.028	874.854	702.490
278.555	23.864	873.605	700.781
279.570	23.670	873.216	699.641
280.585	23.879	872.574	699.888
281.599	23.848	871.669	698.979
282.614	23.173	870.476	695.308
283.628	23.249	869.795	695.002
284.643	23.583	869.679	696.158
285.657	23.190	868.591	693.687
286.672	22.854	867.939	691.787
287.687	23.526	867.553	694.049
288.701	23.678	866.730	693.924
289.716	23.237	866.080	691.620
290.730	23.165	865.890	691.125
291.745	23.092	864.622	689.766
292.760	23.298	864.274	690.231
293.774	24.191	864.962	694.200
294.789	24.384	865.135	695.030
295.803	24.523	864.166	694.731
296.818	24.507	863.417	694.004
297.833	24.192	862.253	691.786
298.847	24.029	861.635	690.595
299.862	24.229	861.378	691.104
300.876	24.520	861.129	691.973
301.891	24.433	860.206	690.831
302.906	24.110	859.346	688.830
303.920	24.181	859.213	688.937
304.935	24.712	858.486	690.345
305.949	24.413	858.323	688.996
306.964	24.212	857.055	687.143
307.979	24.156	856.888	686.734
308.993	24.535	856.924	688.160
310.008	24.616	856.101	687.750
311.022	24.410	854.956	685.980
312.037	24.306	854.298	684.993
313.052	24.047	853.365	683.188
314.066	23.166	852.109	678.744
315.081	22.899	851.270	676.993
316.095	23.698	851.652	680.301
317.110	24.208	851.408	681.995
318.125	23.508	849.935	678.082
319.139	22.305	848.650	672.400
320.154	22.325	848.375	672.200
321.168	23.251	848.744	675.971
322.183	24.040	848.344	678.603
323.197	24.146	848.306	678.914
324.212	24.282	847.873	679.025
325.227	24.275	847.496	678.638
326.241	24.239	846.721	677.821
327.256	24.021	846.060	676.404
328.270	24.132	845.085	675.984
329.285	23.868	844.571	674.513
330.300	23.751	843.583	673.222
331.314	23.805	843.888	673.610
332.329	24.167	843.881	674.917
333.343	24.445	843.267	675.415
334.358	24.340	842.552	674.388
335.373	24.387	842.620	674.562
336.387	24.534	842.908	675.286
337.402	24.759	842.271	675.568
338.416	24.758	841.649	675.005
339.431	24.949	841.201	675.306
340.446	25.011	840.875	675.219
341.460	24.866	840.634	674.418
342.475	24.695	840.240	673.400
343.489	24.694	839.968	673.115
344.504	25.034	839.195	673.715
345.519	25.216	838.959	674.153
346.533	25.197	838.482	673.636
347.548	25.250	838.049	673.430
348.562	25.239	837.302	672.726
349.577	25.235	836.671	672.144
350.592	25.189	836.047	671.414
351.606	25.154	835.318	670.638
352.621	25.018	834.366	669.307
353.635	24.875	833.817	668.271
354.650	24.322	832.316	664.948
355.665	23.391	830.621	660.071
356.679	23.663	830.774	661.145
357.694	24.263	830.168	662.836
358.708	24.244	829.497	662.174
359.723	24.490	829.450	662.989
360.738	24.834	829.162	663.977
361.752	24.864	828.798	663.739
362.767	25.190	828.624	664.748
363.781	25.408	828.113	665.088
364.796	25.646	827.446	665.374
365.810	25.556	827.319	664.880
366.825	25.546	827.030	664.550
367.840	25.271	826.031	662.673
368.854	24.970	824.943	660.634
369.869	24.743	824.994	659.776
370.883	24.841	824.748	659.885
371.898	24.882	823.987	659.367
372.913	24.869	823.930	659.216
373.927	24.913	823.678	659.120
374.942	25.188	822.694	659.284
375.956	25.282	822.669	659.549
376.971	25.331	822.178	659.278
377.986	25.388	821.902	659.210
379.000	25.530	821.034	658.974
380.015	25.333	820.440	657.717
381.029	25.360	820.143	657.518
382.044	25.509	819.469	657.465
383.059	25.385	819.004	656.582
384.073	25.522	818.666	656.753
385.088	25.428	817.852	655.699
386.102	25.166	817.015	654.014
387.117	25.167	816.307	653.394
388.132	24.889	815.088	651.350
389.146	24.566	814.214	649.419
390.161	24.808	814.279	650.294
391.175	25.315	814.021	651.870
392.190	24.957	813.379	649.998
393.205	23.717	811.264	643.760
394.219	22.091	809.510	636.426
395.234	22.048	808.987	635.804
396.248	23.649	810.844	643.010
397.263	25.076	811.531	648.665
398.278	25.177	810.879	648.451
399.292	24.856	810.457	646.897
400.307	24.774	809.726	645.961
401.321	24.869	809.398	645.987
402.336	25.224	809.613	647.381
403.350	25.690	809.122	648.610
404.365	25.979	808.992	649.491
405.380	26.294	808.631	650.276
406.394	26.246	808.228	649.721
407.409	26.184	807.694	649.014
408.423	26.053	807.255	648.131
409.438	26.192	807.180	648.515
410.453	26.416	806.282	648.540
411.467	26.200	805.783	647.305
412.482	26.083	805.675	646.742
413.496	26.292	805.494	647.290
414.511	26.129	804.894	646.165
415.526	26.255	804.360	646.129
416.540	26.184	803.605	645.214
417.555	25.907	802.693	643.434
418.569	25.969	802.361	643.332
419.584	25.830	802.196	642.649
420.599	25.610	801.789	641.480
421.613	90.796	1253.124	1349.820
422.628	77.679	1318.904	1349.953
