DTS Sentinel unit serial number:	SN413079Multiplexer serial number:	ORYXHardware model number:	OX4-SRSoftware version number:	ORYX F/W v4.00 Oryx Data Collector v3.7.2.0data status	okinstallation	princeton_trtdifferential loss correction	single-endedforward channel	channel 1reverse channel	N/Adate	2019/09/18time	03:42:35forward acquisition time	60.00reverse acquisition time	0.00gamma	496.2192k internal	0.2340k external	0.2340temperature offset calibration	0.9974default loss term (dB/km)	0.3790temperature slope calibration	1.0000multiplexer offset coefficient	1.0000multiplexer slope coefficient	1.0000fibre end	0.00T internal ref (°C)	22.94T ext. ref 1 (°C)	0.18T ext. ref 2 (°C)	18.05length (m)	temperature (°C)	Stokes	anti-Stokes-747.200	-67.328	0.220	0.087
-746.185	338.685	-0.059	-0.116
-745.171	190.972	-0.093	-0.140
-744.156	631.956	-0.122	0.309
-743.142	-25.851	-0.208	0.123
-742.127	438.645	0.055	0.120
-741.112	64.148	-0.050	0.050
-740.098	-200.000	0.033	0.190
-739.083	-200.000	0.037	-0.234
-738.069	104.798	0.168	0.198
-737.054	590.820	-0.144	-0.355
-736.039	800.000	-0.087	-0.271
-735.025	-200.000	0.010	0.045
-734.010	-200.000	-0.026	-0.154
-732.996	-157.195	-0.130	-0.008
-731.981	11.973	-0.181	0.139
-730.966	-68.357	-0.354	-0.138
-729.952	800.000	-0.060	-0.219
-728.937	-132.221	0.088	-0.011
-727.923	-200.000	-0.004	-0.090
-726.908	-84.036	0.134	-0.043
-725.894	-165.655	-0.221	-0.010
-724.879	-33.125	0.208	0.116
-723.864	790.785	-0.072	-0.199
-722.850	124.611	0.059	0.074
-721.835	-122.780	0.138	0.022
-720.821	-200.000	-0.063	0.534
-719.806	33.515	-0.168	-0.146
-718.791	357.648	-0.080	0.159
-717.777	279.822	-0.114	-0.204
-716.762	-90.834	0.117	0.034
-715.748	-74.470	0.057	-0.020
-714.733	-200.000	-0.019	0.343
-713.718	-117.135	-0.421	-0.077
-712.704	-200.000	-0.038	0.241
-711.689	221.102	0.032	-0.052
-710.675	-59.268	-0.238	-0.102
-709.660	-200.000	-0.031	-0.313
-708.645	147.155	0.097	-0.130
-707.631	388.737	-0.117	-0.242
-706.616	-175.299	-0.366	0.010
-705.602	512.437	0.089	-0.207
-704.587	-4.426	0.132	0.092
-703.572	800.000	-0.030	0.125
-702.558	-162.349	0.220	0.011
-701.543	-79.712	0.389	0.131
-700.529	-0.655	0.204	0.145
-699.514	-37.093	0.201	0.108
-698.499	638.676	-0.091	0.231
-697.485	-143.286	-0.143	0.014
-696.470	-200.000	0.023	0.175
-695.456	127.856	-0.185	-0.235
-694.441	800.000	0.059	-0.239
-693.426	58.797	-0.193	-0.190
-692.412	-0.625	-0.247	0.175
-691.397	-15.861	0.049	-0.031
-690.383	800.000	-0.052	-0.184
-689.368	-89.670	-0.300	-0.088
-688.354	85.742	-0.132	0.146
-687.339	-140.652	0.209	0.022
-686.324	415.626	0.053	0.113
-685.310	59.750	0.212	0.209
-684.295	99.333	0.044	0.051
-683.281	-100.713	0.194	-0.048
-682.266	800.000	-0.062	-0.268
-681.251	800.000	-0.066	0.258
-680.237	-200.000	0.036	0.185
-679.222	56.237	0.194	-0.188
-678.208	-53.072	0.340	0.156
-677.193	-158.910	0.247	0.014
-676.178	-200.000	0.021	-0.234
-675.164	124.391	0.130	-0.164
-674.149	72.627	0.155	-0.162
-673.135	-200.000	-0.002	-0.177
-672.120	-102.594	0.163	-0.039
-671.105	-35.763	-0.155	-0.084
-670.091	-172.871	0.154	-0.005
-669.076	-200.000	0.002	-0.034
-668.062	143.322	-0.128	-0.170
-667.047	2.447	0.230	-0.166
-666.032	-76.945	-0.236	0.082
-665.018	-200.000	-0.001	0.232
-664.003	-32.520	-0.187	0.104
-662.989	18.299	0.233	0.186
-661.974	208.172	0.192	-0.300
-660.959	-200.000	0.030	0.177
-659.945	54.027	-0.133	0.128
-658.930	-137.346	0.154	0.017
-657.916	39.935	-0.340	0.305
-656.901	-103.658	-0.166	-0.039
-655.886	350.368	0.118	0.233
-654.872	-60.988	0.155	-0.066
-653.857	-96.861	0.471	0.124
-652.843	-99.932	-0.161	0.040
-651.828	-200.000	-0.035	-0.245
-650.814	159.217	0.076	0.105
-649.799	10.583	-0.103	0.078
-648.784	-61.883	-0.312	0.131
-647.770	40.829	0.140	-0.126
-646.755	800.000	0.100	0.384
-645.741	-63.632	-0.241	0.099
-644.726	-6.233	0.532	0.363
-643.711	-62.285	-0.169	-0.070
-642.697	-200.000	0.017	-0.156
-641.682	-72.542	-0.439	-0.162
-640.668	-71.220	-0.307	-0.115
-639.653	154.727	-0.170	-0.234
-638.638	-200.000	-0.023	0.323
-637.624	-15.510	-0.324	-0.207
-636.609	-176.886	-0.185	0.005
-635.595	-156.699	-0.093	0.006
-634.580	228.526	0.126	-0.205
-633.565	182.987	-0.141	-0.208
-632.551	-200.000	-0.020	0.155
-631.536	-200.000	-0.018	-0.109
-630.522	-97.705	0.158	-0.041
-629.507	-163.085	0.360	0.017
-628.492	800.000	-0.017	-0.058
-627.478	108.039	0.185	0.220
-626.463	-109.888	0.345	0.072
-625.449	51.956	-0.130	-0.124
-624.434	510.063	-0.058	-0.135
-623.419	613.778	-0.086	-0.215
-622.405	111.995	0.251	-0.302
-621.390	124.893	-0.263	0.331
-620.376	225.223	-0.074	0.119
-619.361	40.176	-0.218	0.196
-618.346	-11.703	-0.236	0.155
-617.332	-57.443	-0.252	0.111
-616.317	-200.000	0.002	-0.057
-615.303	-61.096	0.111	0.047
-614.288	-66.466	0.394	0.156
-613.273	-200.000	-0.019	0.141
-612.259	800.000	-0.033	-0.128
-611.244	-200.000	0.011	0.199
-610.230	-200.000	0.003	-0.446
-609.215	87.100	0.185	0.204
-608.201	-48.018	0.095	0.046
-607.186	-200.000	0.057	0.288
-606.171	800.000	0.100	0.325
-605.157	-103.389	-0.182	0.043
-604.142	-200.000	-0.036	0.324
-603.128	-72.098	0.158	0.059
-602.113	800.000	-0.112	-0.312
-601.098	-63.780	-0.296	0.121
-600.084	-200.000	0.017	0.457
-599.069	0.916	0.268	-0.191
-598.055	19.236	0.043	-0.035
-597.040	641.751	-0.062	-0.157
-596.025	-103.512	0.412	-0.097
-595.011	-118.238	-0.305	-0.054
-593.996	47.399	0.359	0.334
-592.982	-200.000	-0.011	0.133
-591.967	-200.000	-0.018	-0.083
-590.952	183.916	-0.081	-0.120
-589.938	146.908	-0.198	-0.265
-588.923	-39.307	-0.076	0.040
-587.909	-37.717	0.093	-0.049
-586.894	-200.000	-0.007	-0.187
-585.879	37.204	-0.169	0.149
-584.865	0.958	-0.347	0.248
-583.850	-200.000	-0.014	0.076
-582.836	800.000	-0.062	0.262
-581.821	9.678	-0.096	-0.072
-580.806	-200.000	-0.018	-0.322
-579.792	-200.000	0.014	-0.129
-578.777	-75.638	-0.082	-0.029
-577.763	255.137	0.196	-0.334
-576.748	38.847	-0.299	0.266
-575.733	-200.000	-0.003	-0.305
-574.719	-63.598	-0.201	0.082
-573.704	-200.000	-0.042	0.242
-572.690	239.856	0.032	-0.054
-571.675	-200.000	0.039	-0.311
-570.661	-90.249	-0.163	0.047
-569.646	247.915	-0.063	-0.106
-568.631	35.073	0.289	0.252
-567.617	218.566	-0.286	0.454
-566.602	-89.426	0.399	-0.117
-565.588	437.309	-0.043	0.093
-564.573	311.500	-0.219	-0.409
-563.558	-200.000	0.025	0.190
-562.544	96.444	-0.175	-0.199
-561.529	-200.000	-0.069	-0.344
-560.515	-93.934	-0.087	0.024
-559.500	419.015	-0.118	0.252
-558.485	-97.476	0.101	0.026
-557.471	-187.489	0.251	-0.003
-556.456	-115.830	0.331	-0.062
-555.442	55.938	0.216	0.208
-554.427	-50.639	0.154	0.072
-553.412	555.494	-0.107	-0.256
-552.398	174.465	0.088	-0.126
-551.383	800.000	-0.094	0.271
-550.369	165.537	0.063	0.089
-549.354	-200.000	-0.064	0.313
-548.339	-111.667	-0.248	0.050
-547.325	-44.796	0.270	0.134
-546.310	-126.392	0.271	-0.040
-545.296	-19.389	0.169	0.104
-544.281	-200.000	0.031	-0.188
-543.266	-33.727	-0.335	0.184
-542.252	-200.000	0.063	-0.364
-541.237	-64.278	-0.316	0.128
-540.223	201.939	-0.120	0.184
-539.208	800.000	0.016	0.046
-538.193	123.662	-0.018	0.022
-537.179	613.354	-0.044	-0.110
-536.164	-69.933	-0.252	0.095
-535.150	-200.000	0.012	0.348
-534.135	-95.288	-0.357	-0.095
-533.121	80.953	-0.162	0.173
-532.106	-200.000	-0.038	0.217
-531.091	-128.023	-0.167	-0.024
-530.077	-200.000	-0.035	0.348
-529.062	-12.742	0.143	0.092
-528.048	800.000	-0.056	0.240
-527.033	-68.089	0.169	0.066
-526.018	-200.000	-0.009	0.310
-525.004	-40.082	0.240	0.124
-523.989	-83.618	0.087	-0.028
-522.975	-151.795	-0.182	-0.013
-521.960	-150.091	-0.334	0.026
-520.945	-200.000	0.034	-0.407
-519.931	-200.000	0.013	-0.129
-518.916	350.084	-0.144	0.283
-517.902	800.000	0.058	-0.196
-516.887	183.131	-0.132	-0.194
-515.872	50.078	-0.205	-0.192
-514.858	18.029	-0.073	-0.058
-513.843	71.102	-0.116	-0.120
-512.829	764.347	-0.021	-0.057
-511.814	448.820	0.175	-0.383
-510.799	126.677	-0.097	-0.123
-509.785	-0.974	-0.111	0.078
-508.770	-200.000	0.004	0.264
-507.756	-200.000	-0.047	0.616
-506.741	-200.000	-0.008	-0.058
-505.726	-86.667	0.381	-0.116
-504.712	-162.716	0.237	0.012
-503.697	-79.621	-0.144	-0.048
-502.683	-200.000	-0.009	-0.127
-501.668	265.596	0.173	-0.299
-500.653	-19.100	0.089	-0.055
-499.639	472.317	-0.119	0.266
-498.624	302.476	-0.107	-0.196
-497.610	193.803	0.087	0.130
-496.595	800.000	0.030	-0.103
-495.581	-15.431	-0.165	-0.105
-494.566	-84.754	0.196	0.061
-493.551	151.963	-0.113	-0.153
-492.537	-155.479	0.105	0.007
-491.522	-165.162	-0.185	0.008
-490.508	-124.898	0.074	-0.011
-489.493	-200.000	-0.086	0.390
-488.478	-18.778	-0.191	0.118
-487.464	-177.396	0.184	-0.004
-486.449	423.326	-0.019	-0.041
-485.435	-200.000	0.026	0.147
-484.420	48.828	-0.254	-0.237
-483.405	21.478	0.036	-0.029
-482.391	78.397	0.116	0.123
-481.376	40.544	0.118	-0.105
-480.362	-145.871	0.267	0.024
-479.347	800.000	-0.087	-0.337
-478.332	-52.526	-0.182	0.083
-477.318	-116.705	0.228	-0.041
-476.303	-65.524	0.321	0.128
-475.289	-120.117	-0.100	0.017
-474.274	800.000	-0.066	0.284
-473.259	-1.138	0.328	0.230
-472.245	800.000	0.050	-0.145
-471.230	-200.000	0.010	0.156
-470.216	-60.351	-0.147	0.062
-469.201	286.458	-0.134	-0.240
-468.186	-131.860	-0.461	-0.060
-467.172	138.895	-0.119	0.154
-466.157	21.056	-0.201	-0.162
-465.143	65.942	-0.233	0.234
-464.128	800.000	0.102	0.295
-463.113	-109.985	-0.163	-0.034
-462.099	163.878	0.107	0.149
-461.084	-200.000	0.040	-0.174
-460.070	-108.148	0.224	0.048
-459.055	800.000	-0.056	-0.204
-458.040	154.659	0.273	0.372
-457.026	800.000	-0.026	-0.104
-456.011	-175.602	0.075	0.002
-454.997	37.476	-0.154	0.135
-453.982	10.184	0.126	-0.095
-452.968	-200.000	-0.046	0.327
-451.953	-137.895	-0.478	0.053
-450.938	-130.381	0.188	0.025
-449.924	-17.166	0.128	-0.080
-448.909	63.543	0.041	0.041
-447.895	-126.058	0.463	-0.069
-446.880	34.576	0.177	-0.153
-445.865	-200.000	0.024	0.126
-444.851	270.744	-0.085	0.147
-443.836	-67.783	-0.119	-0.046
-442.822	668.856	-0.053	-0.136
-441.807	-200.000	0.006	0.047
-440.792	-108.115	0.573	-0.123
-439.778	182.788	-0.128	-0.187
-438.763	800.000	-0.127	-0.388
-437.749	-51.697	-0.105	-0.049
-436.734	-200.000	-0.031	-0.343
-435.719	55.562	0.158	-0.151
-434.705	-79.049	-0.207	-0.070
-433.690	-88.978	0.045	0.013
-432.676	-95.911	0.029	0.008
-431.661	-36.667	-0.105	0.056
-430.646	319.607	-0.120	0.225
-429.632	-119.671	-0.334	0.057
-428.617	211.741	-0.288	0.449
-427.603	-159.420	-0.171	0.009
-426.588	-126.384	0.256	0.038
-425.573	-165.566	0.364	0.016
-424.559	-19.556	0.090	-0.055
-423.544	800.000	0.109	0.440
-422.530	25.895	-0.203	-0.167
-421.515	-163.960	0.243	-0.011
-420.500	-179.882	-0.275	-0.006
-419.486	-200.000	-0.007	-0.330
-418.471	-30.065	0.376	0.212
-417.457	-28.715	-0.132	-0.075
-416.442	8.078	-0.379	-0.282
-415.428	800.000	-0.056	-0.156
-414.413	800.000	-0.048	-0.148
-413.398	-200.000	-0.030	0.182
-412.384	-75.119	-0.300	0.106
-411.369	-46.493	-0.182	-0.088
-410.355	71.442	0.106	0.109
-409.340	-71.409	0.339	-0.126
-408.325	-200.000	-0.012	-0.362
-407.311	-200.000	-0.013	-0.061
-406.296	-200.000	0.038	0.221
-405.282	-200.000	0.001	-0.044
-404.267	72.155	-0.155	-0.160
-403.252	-200.000	0.019	-0.105
-402.238	33.117	0.134	0.115
-401.223	-70.101	-0.294	-0.111
-400.209	470.170	-0.024	-0.053
-399.194	-200.000	0.006	-0.031
-398.179	381.904	-0.097	-0.196
-397.165	28.697	-0.111	0.093
-396.150	113.954	0.194	-0.234
-395.136	137.269	-0.076	0.098
-394.121	-91.139	0.187	0.053
-393.106	-200.000	-0.053	0.315
-392.092	1.065	0.264	-0.187
-391.077	743.001	-0.083	-0.221
-390.063	-44.988	0.113	0.056
-389.048	-97.308	0.425	0.109
-388.033	-200.000	0.034	0.154
-387.019	222.269	0.072	-0.115
-386.004	-150.031	0.102	0.008
-384.990	135.819	0.150	0.194
-383.975	-149.211	-0.425	-0.034
-382.960	-189.660	-0.359	-0.004
-381.946	-107.739	0.063	-0.014
-380.931	-85.388	-0.329	-0.101
-379.917	-200.000	0.023	-0.127
-378.902	-163.027	-0.129	0.006
-377.888	-200.000	0.080	0.388
-376.873	60.890	-0.058	-0.057
-375.858	-98.610	0.298	-0.075
-374.844	52.217	0.188	0.177
-373.829	-2.629	-0.238	0.165
-372.815	-135.172	0.062	-0.007
-371.800	-156.251	-0.034	-0.002
-370.785	-69.579	0.148	0.056
-369.771	-200.000	0.035	-0.242
-368.756	800.000	0.062	-0.190
-367.742	-19.131	0.084	-0.051
-366.727	-6.932	-0.166	0.112
-365.712	-74.972	-0.097	0.034
-364.698	-200.000	-0.048	-0.355
-363.683	800.000	-0.104	0.318
-362.669	800.000	-0.046	-0.165
-361.654	800.000	-0.036	0.132
-360.639	-200.000	-0.013	-0.128
-359.625	-48.645	0.502	0.238
-358.610	47.278	0.189	-0.174
-357.596	55.722	0.155	-0.148
-356.581	-200.000	0.016	-0.361
-355.566	-200.000	-0.005	-0.038
-354.552	-48.781	0.138	0.066
-353.537	-5.155	-0.157	0.107
-352.523	160.169	0.018	-0.024
-351.508	596.764	0.086	-0.211
-350.493	411.976	-0.226	-0.474
-349.479	-200.000	-0.053	-0.236
-348.464	-105.814	-0.074	0.017
-347.450	-200.000	-0.042	0.298
-346.435	-70.272	-0.042	0.016
-345.420	113.255	0.134	0.161
-344.406	-103.518	-0.325	-0.075
-343.391	-200.000	-0.019	0.165
-342.377	-14.314	0.345	-0.220
-341.362	800.000	0.050	-0.192
-340.348	162.375	0.156	0.215
-339.333	-200.000	0.014	-0.144
-338.318	-7.458	-0.154	-0.103
-337.304	77.913	0.075	-0.078
-336.289	-32.877	-0.302	0.166
-335.275	-167.351	0.154	-0.006
-334.260	148.499	-0.149	0.199
-333.245	-56.880	-0.151	-0.066
-332.231	-37.025	-0.203	0.107
-331.216	-179.634	-0.203	-0.004
-330.202	-200.000	-0.044	0.294
-329.187	-85.872	0.089	0.027
-328.172	194.350	0.068	-0.101
-327.158	-128.750	0.232	-0.032
-326.143	-99.146	0.230	-0.057
-325.129	-25.300	0.147	0.086
-324.114	-200.000	0.007	-0.216
-323.099	167.854	-0.290	0.406
-322.085	31.565	-0.041	0.035
-321.070	-200.000	0.062	-0.330
-320.056	-31.770	0.387	-0.214
-319.041	-28.879	0.150	-0.085
-318.026	-200.000	0.059	0.399
-317.012	-200.000	-0.155	0.000
-315.997	-43.596	0.190	0.095
-314.983	-160.747	0.281	0.015
-313.968	-200.000	0.027	-0.463
-312.953	-46.792	0.066	-0.032
-311.939	-126.890	-0.300	-0.044
-310.924	-200.000	0.011	-0.209
-309.910	800.000	-0.115	0.320
-308.895	800.000	0.049	-0.171
-307.880	-15.440	-0.035	-0.022
-306.866	52.231	0.059	-0.055
-305.851	-200.000	0.044	-0.212
-304.837	-91.541	0.181	-0.051
-303.822	-11.479	0.099	-0.064
-302.807	-200.000	0.045	-0.208
-301.793	-138.008	-0.124	-0.014
-300.778	-200.000	-0.055	0.399
-299.764	8.435	-0.244	0.181
-298.749	-8.777	0.189	-0.125
-297.735	704.611	0.106	-0.276
-296.720	9.444	0.186	0.139
-295.705	800.000	-0.075	-0.283
-294.691	-79.913	0.129	0.043
-293.676	29.321	-0.258	0.216
-292.662	-105.978	-0.192	0.043
-291.647	-162.965	-0.254	0.012
-290.632	-200.000	-0.003	-0.056
-289.618	-200.000	0.003	0.023
-288.603	52.324	0.086	-0.081
-287.589	18.972	0.236	0.186
-286.574	-149.504	-0.104	0.008
-285.559	-200.000	-0.006	0.345
-284.545	260.806	0.082	-0.139
-283.530	18.570	0.136	-0.107
-282.516	-124.013	-0.206	0.032
-281.501	-180.190	0.427	0.009
-280.486	-133.716	0.063	0.008
-279.472	-119.119	0.202	0.035
-278.457	-148.697	0.049	-0.004
-277.443	-4.308	-0.093	-0.063
-276.428	65.347	0.173	-0.172
-275.413	800.000	-0.036	0.128
-274.399	130.377	0.104	0.132
-273.384	12.220	-0.181	-0.138
-272.370	451.150	0.060	-0.130
-271.355	-1.636	0.239	-0.165
-270.340	-44.508	0.064	0.032
-269.326	39.686	-0.195	0.172
-268.311	50.604	-0.096	-0.089
-267.297	-6.809	0.341	0.228
-266.282	-89.277	0.302	0.087
-265.267	77.935	0.187	-0.196
-264.253	-186.681	-0.313	-0.004
-263.238	4.670	-0.188	-0.136
-262.224	-97.354	0.195	-0.050
-261.209	-75.233	-0.221	0.078
-260.195	-34.965	0.326	0.175
-259.180	800.000	-0.104	-0.316
-258.165	0.794	0.287	0.202
-257.151	84.051	-0.062	-0.067
-256.136	-87.801	0.062	0.018
-255.122	-200.000	-0.028	-0.282
-254.107	-200.000	0.096	-0.469
-253.092	103.898	0.136	0.157
-252.078	800.000	0.084	0.271
-251.063	800.000	0.076	-0.291
-250.049	-83.283	-0.253	-0.080
-249.034	357.058	-0.030	0.059
-248.019	-200.000	0.008	0.261
-247.005	391.447	0.064	0.130
-245.990	-200.000	0.027	-0.294
-244.976	-200.000	-0.007	0.093
-243.961	-5.680	0.130	0.088
-242.946	-119.509	-0.299	-0.051
-241.932	41.081	0.130	-0.115
-240.917	365.515	-0.091	0.180
-239.903	523.566	-0.074	0.172
-238.888	-98.307	0.284	-0.072
-237.873	-16.385	0.138	0.086
-236.859	-47.546	0.111	0.053
-235.844	800.000	0.045	0.130
-234.830	294.209	-0.103	-0.186
-233.815	362.048	-0.205	-0.405
-232.800	-200.000	-0.033	0.240
-231.786	-174.491	-0.136	0.004
-230.771	131.345	-0.328	-0.414
-229.757	4.618	0.224	-0.162
-228.742	-34.124	-0.087	-0.047
-227.727	800.000	-0.064	0.234
-226.713	72.289	-0.216	-0.221
-225.698	4.392	-0.340	-0.245
-224.684	-69.319	0.342	0.129
-223.669	-180.852	0.110	0.002
-222.655	-55.139	-0.363	-0.160
-221.640	-3.967	0.257	-0.175
-220.625	29.573	0.138	0.115
-219.611	720.135	-0.065	-0.170
-218.596	800.000	-0.040	-0.142
-217.582	743.584	0.127	-0.336
-216.567	-162.274	-0.080	0.004
-215.552	-49.649	0.181	-0.084
-214.538	-47.201	0.222	-0.106
-213.523	-25.089	-0.141	-0.082
-212.509	-200.000	0.036	0.223
-211.494	-200.000	0.083	0.416
-210.479	-13.154	-0.224	-0.143
-209.465	-37.346	0.453	0.237
-208.450	-58.720	-0.198	0.084
-207.436	-200.000	0.079	0.476
-206.421	-200.000	0.007	0.133
-205.406	216.693	0.132	-0.206
-204.392	294.785	-0.084	0.151
-203.377	37.389	0.392	0.341
-202.363	226.562	-0.093	0.149
-201.348	-74.644	0.133	0.047
-200.333	-200.000	0.008	-0.140
-199.319	-40.351	0.140	-0.072
-198.304	162.629	-0.122	-0.168
-197.290	-200.000	0.056	-0.313
-196.275	228.695	0.273	0.436
-195.260	761.143	-0.037	0.099
-194.246	-200.000	0.035	-0.190
-193.231	-42.263	-0.291	0.146
-192.217	41.479	0.242	-0.215
-191.202	76.494	-0.156	0.162
-190.187	-138.309	0.138	-0.015
-189.173	-200.000	0.028	0.380
-188.158	-39.143	-0.203	-0.105
-187.144	239.776	-0.127	-0.208
-186.129	84.351	-0.138	0.148
-185.114	552.702	-0.037	-0.086
-184.100	-200.000	0.007	-0.217
-183.085	-83.150	0.209	-0.066
-182.071	523.655	0.053	-0.122
-181.056	800.000	-0.138	-0.428
-180.042	774.910	0.027	-0.072
-179.027	800.000	0.061	-0.198
-178.012	-200.000	0.000	0.089
-176.998	592.307	-0.075	-0.182
-175.983	-200.000	-0.019	-0.141
-174.969	438.435	-0.096	-0.205
-173.954	151.404	0.108	0.144
-172.939	-123.384	0.160	-0.025
-171.925	462.701	0.050	-0.109
-170.910	800.000	0.078	0.223
-169.896	-200.000	0.044	-0.374
-168.881	652.084	-0.088	0.222
-167.866	-200.000	-0.007	-0.112
-166.852	-142.733	-0.075	-0.007
-165.837	21.974	0.111	-0.089
-164.823	-157.102	-0.454	-0.027
-163.808	-200.000	0.025	-0.258
-162.793	-65.840	0.098	-0.038
-161.779	236.064	0.102	0.166
-160.764	-200.000	0.030	0.198
-159.750	48.184	-0.270	0.248
-158.735	266.771	0.067	0.115
-157.720	49.108	0.152	0.140
-156.706	375.237	0.058	-0.116
-155.691	-200.000	-0.059	0.419
-154.677	282.956	0.180	0.317
-153.662	13.896	-0.047	-0.036
-152.647	160.618	-0.165	0.225
-151.633	-15.401	0.079	0.050
-150.618	800.000	0.075	0.230
-149.604	202.633	-0.043	-0.065
-148.589	180.671	-0.063	0.091
-147.574	646.061	-0.105	-0.262
-146.560	-200.000	0.043	-0.228
-145.545	-75.202	0.383	-0.134
-144.531	-124.374	0.393	-0.060
-143.516	-77.053	0.392	0.134
-142.502	165.622	-0.096	-0.133
-141.487	-80.859	-0.016	0.005
-140.472	-200.000	-0.023	0.225
-139.458	41.377	0.322	0.285
-138.443	-111.482	-0.183	-0.036
-137.429	-57.527	0.180	-0.077
-136.414	128.502	-0.049	-0.061
-135.399	339.069	0.119	0.226
-134.385	115.014	-0.109	0.130
-133.370	92.148	0.128	0.142
-132.356	-23.071	0.113	-0.067
-131.341	88.463	-0.172	0.187
-130.326	-70.255	0.249	-0.092
-129.312	-100.218	-0.273	-0.066
-128.297	800.000	0.108	0.319
-127.283	66.518	-0.170	-0.169
-126.268	6.464	-0.154	0.112
-125.253	69.660	-0.399	0.402
-124.239	-160.324	0.418	-0.022
-123.224	370.743	-0.073	0.145
-122.210	378.610	0.151	0.301
-121.195	-128.526	0.094	-0.013
-120.180	-118.663	-0.094	0.016
-119.166	-200.000	-0.019	0.200
-118.151	-157.869	-0.079	0.005
-117.137	565.853	-0.152	0.361
-116.122	249.093	0.122	0.202
-115.107	-38.441	-0.131	-0.068
-114.093	432.683	-0.117	0.249
-113.078	-13.228	-0.231	0.147
-112.064	-200.000	0.022	-0.140
-111.049	-140.139	0.179	-0.018
-110.034	297.434	0.102	0.184
-109.020	254.640	0.070	0.117
-108.005	-200.000	0.024	0.271
-106.991	-200.000	0.061	0.281
-105.976	-74.608	-0.116	0.041
-104.962	166.258	-0.210	0.290
-103.947	175.841	-0.058	-0.083
-102.932	192.258	0.135	-0.199
-101.918	-25.575	-0.138	0.080
-100.903	635.946	0.040	0.099
-99.889	-200.000	0.006	-0.139
-98.874	244.349	-0.111	0.183
-97.859	-200.000	-0.057	0.328
-96.845	-200.000	-0.020	0.116
-95.830	263.514	0.096	0.162
-94.816	-200.000	0.004	0.044
-93.801	-106.384	-0.182	-0.040
-92.786	-164.029	0.192	0.009
-91.772	-22.899	0.361	-0.213
-90.757	32.812	-0.233	-0.197
-89.743	-117.733	0.465	0.082
-88.728	-78.292	-0.260	-0.087
-87.713	103.012	-0.098	-0.112
-86.699	138.253	0.275	-0.353
-85.684	-200.000	0.016	-0.294
-84.670	100.598	0.119	-0.135
-83.655	477.098	-0.138	0.306
-82.640	-3.846	0.204	-0.138
-81.626	-42.113	0.185	0.093
-80.611	-9.481	0.244	0.159
-79.597	16.880	-0.075	0.058
-78.582	-200.000	0.004	-0.128
-77.567	-200.000	-0.022	0.153
-76.553	83.402	0.305	0.325
-75.538	220.906	-0.126	0.197
-74.524	69.571	-0.057	-0.057
-73.509	-200.000	-0.011	-0.078
-72.494	486.773	0.060	-0.134
-71.480	159.421	0.143	-0.194
-70.465	-179.265	-0.140	-0.003
-69.451	-131.543	0.191	0.025
-68.436	247.147	-0.105	0.173
-67.422	-57.556	-0.151	-0.065
-66.407	285.913	0.229	0.403
-65.392	-200.000	0.055	-0.298
-64.378	30.889	0.232	0.194
-63.363	481.042	-0.139	0.309
-62.349	328.575	0.151	0.283
-61.334	36.467	-1.218	-1.049
-60.319	14.981	0.957	0.731
-59.305	612.853	-0.671	-1.640
-58.290	800.000	0.417	1.403
-57.276	498.118	0.753	1.692
-56.261	-200.000	126.156	659.542
-55.246	408.943	1587.750	3280.025
-54.232	140.738	2743.239	3536.744
-53.217	95.571	2162.967	2407.633
-52.203	34.624	1593.204	1358.488
-51.188	26.033	1337.783	1089.044
-50.173	23.723	1299.702	1044.437
-49.159	51.961	1369.467	1272.400
-48.144	48.454	1380.817	1261.717
-47.130	26.285	1328.798	1083.068
-46.115	23.172	1309.580	1048.942
-45.100	22.894	1304.914	1043.523
-44.086	22.838	1301.996	1040.818
-43.071	22.782	1299.810	1038.695
-42.057	22.742	1297.910	1036.904
-41.042	22.829	1296.313	1036.096
-40.027	22.835	1294.515	1034.655
-39.013	22.720	1293.141	1032.838
-37.998	22.833	1290.824	1031.608
-36.984	22.850	1289.114	1030.305
-35.969	22.886	1287.209	1028.949
-34.954	22.987	1285.750	1028.331
-33.940	22.850	1285.046	1026.926
-32.925	22.941	1283.396	1026.096
-31.911	22.969	1281.825	1024.962
-30.896	23.046	1280.338	1024.177
-29.881	23.075	1278.947	1023.194
-28.867	23.049	1277.822	1022.100
-27.852	23.074	1276.273	1020.969
-26.838	23.196	1274.701	1020.375
-25.823	23.094	1273.526	1018.807
-24.809	23.020	1271.975	1017.099
-23.794	23.059	1271.105	1016.587
-22.779	23.069	1269.355	1015.202
-21.765	22.982	1268.274	1013.797
-20.750	23.056	1266.738	1012.954
-19.736	22.936	1265.997	1011.634
-18.721	22.838	1264.687	1009.986
-17.706	22.862	1263.298	1008.975
-16.692	22.939	1262.553	1008.779
-15.677	22.987	1260.709	1007.543
-14.663	22.866	1260.115	1006.339
-13.648	22.906	1258.508	1005.244
-12.633	22.970	1257.984	1005.147
-11.619	22.750	1258.061	1003.918
-10.604	22.885	1256.804	1003.639
-9.590	22.813	1255.815	1002.400
-8.575	22.812	1254.945	1001.664
-7.560	22.882	1253.534	1000.894
-6.546	22.981	1252.421	1000.527
-5.531	22.906	1251.998	999.721
-4.517	22.871	1251.409	999.016
-3.502	22.959	1250.313	998.598
-2.487	22.931	1249.504	997.755
-1.473	22.896	1245.310	994.168
-0.458	21.460	1230.955	974.676
0.556	16.938	1216.839	942.357
1.571	13.660	1225.721	930.776
2.586	13.179	1241.579	940.000
3.600	13.234	1229.217	930.866
4.615	9.761	1156.647	857.400
5.629	3.280	1085.521	772.190
6.644	0.327	1068.654	745.532
7.659	0.158	1067.072	743.525
8.673	0.080	1066.044	742.358
9.688	0.146	1064.432	741.495
10.702	0.180	1062.530	740.274
11.717	4.023	1066.598	761.980
12.731	11.115	1076.205	803.894
13.746	15.739	1081.495	830.662
14.761	16.736	1082.382	836.193
15.775	15.970	1080.784	831.106
16.790	15.041	1078.673	824.835
17.804	14.408	1077.424	820.690
18.819	14.009	1076.365	817.847
19.834	13.799	1075.037	815.735
20.848	13.524	1074.402	813.830
21.863	13.393	1073.530	812.453
22.877	13.216	1072.454	810.699
23.892	13.063	1071.982	809.520
24.907	13.054	1071.745	809.228
25.921	13.136	1070.600	808.690
26.936	13.087	1069.953	807.889
27.950	13.096	1068.912	807.078
28.965	13.195	1067.656	806.542
29.980	13.245	1066.246	805.649
30.994	13.400	1064.959	805.361
32.009	13.304	1064.165	804.220
33.023	13.294	1063.105	803.299
34.038	13.353	1062.221	802.847
35.053	13.267	1061.406	801.741
36.067	13.278	1060.454	801.008
37.082	13.149	1059.897	799.888
38.096	13.287	1059.196	799.958
39.111	13.318	1057.874	799.039
40.126	13.326	1056.727	798.143
41.140	13.146	1055.781	796.487
42.155	13.176	1054.142	795.326
43.169	13.132	1053.289	794.397
44.184	13.184	1052.159	793.724
45.199	13.102	1051.641	792.873
46.213	13.135	1050.608	792.180
47.228	13.160	1049.819	791.633
48.242	13.211	1048.610	790.900
49.257	13.220	1047.520	790.048
50.271	13.148	1046.780	789.075
51.286	13.169	1045.712	788.304
52.301	13.214	1044.944	787.869
53.315	13.223	1043.617	786.843
54.330	13.192	1042.661	785.901
55.344	13.204	1041.728	785.187
56.359	13.178	1041.164	784.572
57.374	13.101	1040.387	783.550
58.388	13.084	1039.233	782.531
59.403	13.012	1038.497	781.565
60.417	13.203	1037.364	781.547
61.432	13.164	1036.512	780.652
62.447	12.964	1036.441	779.584
63.461	13.205	1034.993	779.564
64.476	13.168	1033.897	778.495
65.490	13.106	1033.611	777.920
66.505	12.977	1033.329	777.032
67.520	13.020	1032.455	776.508
68.534	13.024	1031.655	775.855
69.549	13.139	1030.773	775.661
70.563	13.082	1029.765	774.569
71.578	13.036	1028.780	773.545
72.593	13.046	1028.400	773.236
73.607	13.114	1027.543	772.840
74.622	13.062	1027.041	772.150
75.636	13.080	1026.283	771.599
76.651	12.962	1025.711	770.549
77.666	12.922	1025.430	770.080
78.680	13.108	1024.121	769.900
79.695	13.009	1023.559	768.947
80.709	13.174	1023.469	769.580
81.724	13.140	1022.209	768.406
82.739	13.126	1021.876	768.025
83.753	13.261	1020.748	767.733
84.768	13.239	1019.950	766.963
85.782	13.311	1019.140	766.620
86.797	13.200	1018.633	765.656
87.812	13.202	1017.196	764.517
88.826	13.277	1016.151	764.011
89.841	13.350	1015.016	763.426
90.855	13.206	1014.528	762.328
91.870	13.220	1013.426	761.499
92.884	13.448	1012.471	761.764
93.899	13.282	1011.705	760.354
94.914	13.284	1011.062	759.816
95.928	13.269	1010.600	759.332
96.943	13.286	1009.664	758.637
97.957	13.353	1008.592	758.072
98.972	13.460	1007.532	757.697
99.987	13.329	1006.575	756.315
101.001	13.214	1006.155	755.406
102.016	13.297	1004.840	754.731
103.030	13.308	1003.996	754.077
104.045	13.336	1003.547	753.802
105.060	13.254	1002.657	752.694
106.074	13.216	1001.965	751.934
107.089	13.160	1000.734	750.691
108.103	13.185	999.560	749.858
109.118	13.096	999.303	749.194
110.133	13.095	998.307	748.378
111.147	13.244	997.281	748.213
112.162	13.157	996.235	746.972
113.176	13.335	995.488	747.151
114.191	13.283	994.997	746.480
115.206	13.239	994.087	745.532
116.220	13.239	993.130	744.749
117.235	13.238	992.499	744.206
118.249	13.346	991.203	743.652
119.264	13.334	990.689	743.148
120.279	13.260	989.944	742.190
121.293	13.079	989.331	740.852
122.308	13.297	988.062	740.814
123.322	13.068	987.288	739.144
124.337	13.112	986.299	738.534
125.352	13.153	985.118	737.770
126.366	13.282	984.287	737.658
127.381	13.144	983.227	736.182
128.395	13.179	982.271	735.558
129.410	13.171	981.081	734.563
130.424	13.179	980.668	734.228
131.439	13.287	979.404	733.695
132.454	13.227	979.320	733.298
133.468	13.247	977.753	732.150
134.483	13.236	977.220	731.636
135.497	13.356	975.941	731.146
136.512	13.138	975.907	730.091
137.527	13.288	974.410	729.570
138.541	13.264	973.619	728.809
139.556	13.197	973.075	728.040
140.570	13.324	972.628	728.201
141.585	13.359	971.759	727.639
142.600	13.262	970.896	726.505
143.614	13.550	969.536	726.682
144.629	13.416	969.277	725.836
145.643	13.470	968.591	725.496
146.658	13.405	967.006	723.960
147.673	13.419	966.082	723.266
148.687	13.342	965.463	722.405
149.702	13.271	964.751	721.498
150.716	13.313	963.831	720.929
151.731	13.370	963.139	720.595
152.746	13.347	962.355	719.842
153.760	13.525	961.313	719.774
154.775	13.431	961.318	719.307
155.789	13.407	960.611	718.611
156.804	13.369	959.924	717.865
157.819	13.463	959.216	717.682
158.833	13.529	958.765	717.568
159.848	13.644	957.206	716.832
160.862	13.605	956.594	716.141
161.877	13.587	955.281	715.020
162.892	13.533	954.427	714.086
163.906	13.565	953.632	713.563
164.921	13.478	953.291	712.872
165.935	13.440	952.328	711.923
166.950	13.564	950.977	711.385
167.964	13.636	950.360	711.169
168.979	13.539	949.768	710.245
169.994	13.659	948.484	709.737
171.008	13.528	947.762	708.574
172.023	13.632	947.480	708.745
173.037	13.650	946.153	707.766
174.052	13.743	945.941	707.941
175.067	13.548	945.320	706.582
176.081	13.596	944.583	706.173
177.096	13.581	943.704	705.390
178.110	13.504	943.360	704.742
179.125	13.702	942.550	704.918
180.140	13.568	942.377	704.158
181.154	13.860	941.305	704.532
182.169	13.622	941.014	703.242
183.183	13.816	940.579	703.676
184.198	13.757	939.645	702.667
185.213	13.795	938.669	702.036
186.227	13.863	938.354	702.026
187.242	13.950	937.440	701.648
188.256	13.912	937.053	701.136
189.271	13.852	936.161	700.155
190.286	13.807	935.085	699.097
191.300	13.708	934.509	698.188
192.315	13.707	934.305	697.967
193.329	13.851	933.473	697.890
194.344	13.740	932.673	696.764
195.359	13.841	932.289	696.839
196.373	13.895	931.804	696.645
197.388	13.910	931.091	696.109
198.402	13.945	930.932	696.076
199.417	14.017	929.910	695.553
200.432	14.011	929.296	695.009
201.446	14.109	928.795	694.979
202.461	14.214	928.278	694.969
203.475	14.170	927.736	694.319
204.490	14.047	927.046	693.228
205.504	14.048	926.009	692.395
206.519	14.114	925.384	692.141
207.534	14.180	924.419	691.634
208.548	14.024	924.362	690.880
209.563	14.087	923.654	690.554
210.577	14.120	922.850	690.030
211.592	14.238	922.161	689.943
212.607	14.460	920.916	689.869
213.621	14.263	920.412	688.616
214.636	14.263	919.940	688.199
215.650	14.253	919.354	687.657
216.665	14.341	918.631	687.419
217.680	14.492	917.227	686.932
218.694	14.392	916.957	686.255
219.709	14.390	916.395	685.766
220.723	14.297	916.061	685.075
221.738	14.355	914.905	684.385
222.753	14.448	914.596	684.478
223.767	14.552	913.855	684.289
224.782	14.404	913.581	683.415
225.796	14.476	913.123	683.308
226.811	14.359	912.650	682.415
227.826	14.354	911.734	681.648
228.840	14.347	910.942	680.969
229.855	14.341	910.332	680.427
230.869	14.449	908.847	679.695
231.884	14.328	908.995	679.253
232.899	14.412	908.041	678.824
233.913	14.402	907.310	678.178
234.928	14.424	906.572	677.654
235.942	14.442	905.946	677.198
236.957	14.402	905.447	676.605
237.972	14.360	905.246	676.223
238.986	14.438	904.390	675.839
240.001	14.462	903.768	675.411
241.015	14.435	902.889	674.588
242.030	14.562	902.619	674.839
243.045	14.600	901.508	674.101
244.059	14.601	901.012	673.675
245.074	14.659	900.121	673.185
246.088	14.620	899.504	672.504
247.103	14.662	898.968	672.216
248.117	14.672	898.881	672.130
249.132	14.787	898.191	672.016
250.147	14.778	897.264	671.227
251.161	14.933	896.527	671.239
252.176	14.835	896.111	670.478
253.190	14.877	895.235	669.930
254.205	14.794	895.120	669.451
255.220	14.857	894.317	669.042
256.234	14.924	893.665	668.764
257.249	15.002	892.903	668.448
258.263	14.957	892.243	667.714
259.278	14.912	891.663	667.041
260.293	15.097	890.721	667.015
261.307	15.118	890.255	666.690
262.322	15.112	889.927	666.363
263.336	15.150	889.043	665.792
264.351	15.058	888.441	664.919
265.366	15.144	887.927	664.817
266.380	15.147	887.185	664.212
267.395	15.132	886.109	663.289
268.409	15.228	885.348	663.042
269.424	15.203	884.987	662.613
270.439	15.181	883.993	661.721
271.453	15.091	883.126	660.662
272.468	15.120	882.922	660.564
273.482	15.253	882.215	660.501
274.497	15.221	881.556	659.822
275.512	15.160	881.153	659.221
276.526	15.086	880.922	658.700
277.541	15.222	880.417	658.800
278.555	15.221	879.855	658.317
279.570	15.357	878.913	658.085
280.585	15.370	878.006	657.402
281.599	15.295	877.270	656.498
282.614	15.252	877.167	656.195
283.628	15.302	876.479	655.817
284.643	15.385	875.606	655.428
285.657	15.397	874.794	654.812
286.672	15.215	874.649	653.932
287.687	15.443	873.651	654.018
288.701	15.503	872.925	653.650
289.716	15.497	872.630	653.350
290.730	15.548	872.002	653.017
291.745	15.471	871.796	652.507
292.760	15.477	871.012	651.884
293.774	15.582	870.350	651.742
294.789	15.559	869.596	651.030
295.803	15.546	869.048	650.511
296.818	15.411	868.402	649.447
297.833	15.595	867.422	649.369
298.847	15.589	866.605	648.675
299.862	15.659	866.022	648.453
300.876	15.610	865.781	648.023
301.891	15.578	865.109	647.342
302.906	15.678	864.625	647.306
303.920	15.700	864.197	647.014
304.935	15.841	863.610	647.062
305.949	15.898	862.766	646.591
306.964	15.709	862.201	645.384
307.979	15.811	861.610	645.274
308.993	15.871	861.044	645.024
310.008	15.816	860.559	644.393
311.022	15.765	859.618	643.437
312.037	15.881	858.899	643.284
313.052	15.694	859.036	642.615
314.066	15.732	858.201	642.079
315.081	15.675	858.066	641.705
316.095	15.891	856.912	641.608
317.110	15.693	856.896	640.785
318.125	15.895	856.068	640.877
319.139	15.869	855.709	640.454
320.154	15.897	855.057	640.014
321.168	15.747	854.579	639.030
322.183	15.841	853.739	638.701
323.197	16.044	853.135	638.963
324.212	15.903	852.946	638.230
325.227	16.013	852.196	638.031
326.241	15.853	851.715	637.008
327.256	15.811	851.612	636.717
328.270	15.976	850.676	636.581
329.285	16.011	849.843	636.034
330.300	15.907	849.377	635.237
331.314	15.995	848.676	634.987
332.329	15.967	848.474	634.675
333.343	16.045	848.213	634.720
334.358	16.010	847.580	634.055
335.373	16.049	847.041	633.744
336.387	16.035	846.904	633.533
337.402	16.196	846.324	633.647
338.416	16.119	846.177	633.193
339.431	16.075	845.763	632.661
340.446	16.297	844.994	632.862
341.460	16.225	844.718	632.330
342.475	16.304	844.402	632.333
343.489	16.371	843.749	632.037
344.504	16.285	843.430	631.421
345.519	16.277	843.006	631.020
346.533	16.416	842.373	631.008
347.548	16.326	842.004	630.342
348.562	16.333	841.281	629.768
349.577	16.410	840.639	629.521
350.592	16.368	840.105	628.908
351.606	16.338	839.820	628.527
352.621	16.315	838.804	627.627
353.635	16.289	838.207	627.027
354.650	16.353	837.735	626.857
355.665	16.516	836.782	626.693
356.679	16.533	836.494	626.482
357.694	16.554	835.351	625.651
358.708	16.350	835.468	624.928
359.723	16.456	834.489	624.532
360.738	16.508	833.867	624.204
361.752	16.583	833.480	624.134
362.767	16.454	832.754	623.061
363.781	16.526	831.994	622.700
364.796	16.625	831.685	622.780
365.810	16.682	831.330	622.669
366.825	16.784	831.046	622.776
367.840	16.721	829.956	621.670
368.854	16.587	830.169	621.285
369.869	16.833	829.515	621.645
370.883	16.681	829.310	620.878
371.898	16.849	828.742	621.012
372.913	16.804	828.289	620.455
373.927	16.806	827.706	619.969
374.942	16.853	826.913	619.491
375.956	16.887	826.845	619.509
376.971	16.889	826.645	619.313
377.986	17.006	825.813	619.060
379.000	16.876	825.530	618.320
380.015	16.875	825.320	618.107
381.029	16.869	824.544	617.446
382.044	16.894	823.609	616.785
383.059	16.862	823.517	616.543
384.073	17.059	822.751	616.633
385.088	16.938	822.616	616.037
386.102	16.855	822.106	615.298
387.117	16.724	821.290	614.158
388.132	16.958	820.501	614.363
389.146	17.013	820.069	614.182
390.161	16.997	819.610	613.726
391.175	17.115	818.925	613.585
392.190	17.192	818.409	613.425
393.205	17.168	817.749	612.788
394.219	17.031	817.771	612.256
395.234	16.973	817.247	611.599
396.248	17.027	816.779	611.391
397.263	17.125	816.305	611.334
398.278	17.086	815.983	610.900
399.292	17.107	815.463	610.530
400.307	17.170	814.812	610.214
401.321	17.043	814.609	609.554
402.336	17.055	814.329	609.335
403.350	17.109	813.497	608.849
404.365	17.148	813.079	608.625
405.380	17.204	812.741	608.515
406.394	17.265	812.334	608.378
407.409	17.336	811.887	608.243
408.423	17.384	811.281	607.907
409.438	17.363	811.241	607.748
410.453	17.407	810.685	607.433
411.467	17.444	809.947	606.960
412.482	17.413	809.779	606.667
413.496	17.426	809.644	606.560
414.511	17.423	809.059	606.058
415.526	17.517	808.697	606.066
416.540	17.513	808.220	605.642
417.555	17.660	807.524	605.588
418.569	17.482	806.966	604.486
419.584	17.590	806.621	604.555
420.599	17.522	806.444	604.128
421.613	114.074	1299.215	1489.577
422.628	98.525	1370.947	1489.638
