DTS Sentinel unit serial number:	SN413079Multiplexer serial number:	ORYXHardware model number:	OX4-SRSoftware version number:	ORYX F/W v4.00 Oryx Data Collector v3.7.2.0data status	okinstallation	princeton_trtdifferential loss correction	single-endedforward channel	channel 1reverse channel	N/Adate	2019/09/17time	22:46:35forward acquisition time	60.00reverse acquisition time	0.00gamma	496.2192k internal	0.2340k external	0.2340temperature offset calibration	0.9980default loss term (dB/km)	0.3790temperature slope calibration	1.0000multiplexer offset coefficient	1.0000multiplexer slope coefficient	1.0000fibre end	0.00T internal ref (°C)	25.02T ext. ref 1 (°C)	0.18T ext. ref 2 (°C)	18.30length (m)	temperature (°C)	Stokes	anti-Stokes-747.200	800.000	0.137	0.516
-746.185	573.960	-0.085	0.207
-745.171	800.000	-0.073	0.310
-744.156	800.000	-0.091	0.259
-743.142	-135.187	0.189	-0.023
-742.127	365.391	-0.133	0.268
-741.112	800.000	-0.052	-0.187
-740.098	42.657	0.106	-0.097
-739.083	-2.549	-0.274	-0.193
-738.069	-27.230	-0.261	-0.152
-737.054	-113.978	-0.138	-0.027
-736.039	-92.337	0.056	0.016
-735.025	559.025	-0.037	-0.090
-734.010	687.650	-0.028	0.073
-732.996	-200.000	0.019	-0.166
-731.981	-200.000	-0.022	0.151
-730.966	633.752	-0.068	0.172
-729.952	-37.374	-0.097	-0.052
-728.937	-16.346	-0.201	0.128
-727.923	-200.000	-0.006	0.359
-726.908	800.000	-0.031	-0.097
-725.894	68.971	0.189	-0.195
-724.879	-56.396	-0.186	-0.083
-723.864	106.873	0.113	0.134
-722.850	800.000	0.059	-0.184
-721.835	-36.391	0.166	0.090
-720.821	-76.959	-0.083	0.029
-719.806	512.730	0.165	-0.385
-718.791	79.654	-0.132	-0.142
-717.777	-166.429	0.338	-0.014
-716.762	-200.000	0.004	-0.138
-715.748	559.131	0.069	-0.168
-714.733	-200.000	0.020	-0.622
-713.718	56.762	0.045	0.044
-712.704	-200.000	0.002	0.114
-711.689	-200.000	0.007	-0.072
-710.675	-94.658	0.099	-0.027
-709.660	679.477	-0.117	0.305
-708.645	-8.466	-0.083	0.056
-707.631	-16.200	0.369	-0.234
-706.616	-200.000	0.011	-0.198
-705.602	800.000	0.033	0.107
-704.587	-100.828	-0.040	-0.010
-703.572	-45.462	0.156	0.078
-702.558	-200.000	0.005	0.039
-701.543	439.675	-0.090	0.198
-700.529	-200.000	0.042	0.350
-699.514	38.649	0.145	-0.129
-698.499	-83.285	-0.149	-0.048
-697.485	237.436	0.065	-0.107
-696.470	170.434	0.207	0.296
-695.456	800.000	-0.063	-0.200
-694.441	-29.129	-0.227	0.130
-693.426	26.925	0.074	-0.062
-692.412	-18.203	-0.200	-0.125
-691.397	800.000	-0.145	-0.449
-690.383	-106.073	-0.381	0.086
-689.368	0.207	0.154	-0.110
-688.354	-200.000	0.021	0.159
-687.339	684.729	0.120	0.315
-686.324	-121.072	-0.212	0.036
-685.310	-44.006	0.106	0.053
-684.295	136.296	-0.084	0.109
-683.281	14.455	0.015	-0.011
-682.266	800.000	-0.039	0.165
-681.251	472.110	-0.126	-0.283
-680.237	167.192	-0.192	-0.273
-679.222	-99.503	0.217	-0.055
-678.208	736.054	-0.114	-0.306
-677.193	-11.786	0.150	-0.099
-676.178	-67.467	0.065	-0.026
-675.164	-121.382	0.433	0.072
-674.149	95.971	-0.060	0.069
-673.135	288.287	0.119	-0.216
-672.120	-119.279	0.299	0.052
-671.105	8.389	-0.186	0.140
-670.091	800.000	0.098	-0.312
-669.076	-200.000	0.039	0.223
-668.062	16.760	-0.088	0.070
-667.047	-200.000	0.007	0.256
-666.032	800.000	-0.081	-0.236
-665.018	-28.316	-0.200	0.115
-664.003	-24.124	0.197	-0.117
-662.989	23.548	-0.140	0.115
-661.974	-110.867	0.069	-0.014
-660.959	-37.765	-0.198	-0.105
-659.945	-127.945	-0.236	0.034
-658.930	-116.817	-0.102	0.019
-657.916	49.753	0.076	0.072
-656.901	414.826	-0.072	0.154
-655.886	800.000	-0.087	0.279
-654.872	-46.803	0.226	-0.110
-653.857	-200.000	0.018	-0.147
-652.843	-200.000	0.037	-0.173
-651.828	800.000	-0.035	0.122
-650.814	-100.526	-0.111	-0.027
-649.799	-56.278	0.244	-0.108
-648.784	54.935	0.040	-0.038
-647.770	800.000	0.032	0.124
-646.755	666.733	0.088	0.227
-645.741	36.496	-0.212	0.186
-644.726	800.000	0.019	-0.069
-643.711	-35.815	-0.285	0.154
-642.697	17.811	0.328	-0.260
-641.682	800.000	0.080	0.258
-640.668	-15.056	0.222	0.142
-639.653	-115.066	0.372	-0.070
-638.638	9.766	-0.083	-0.063
-637.624	-49.069	0.260	-0.124
-636.609	-99.721	0.432	0.108
-635.595	-60.997	-0.166	0.070
-634.580	53.554	-0.100	0.096
-633.565	-200.000	0.051	0.233
-632.551	188.660	-0.256	0.382
-631.536	-200.000	0.012	-0.201
-630.522	297.908	0.113	-0.208
-629.507	-60.245	0.135	-0.057
-628.492	-109.316	-0.071	-0.015
-627.478	-56.235	0.094	-0.042
-626.463	-103.522	-0.185	-0.043
-625.449	25.937	-0.233	-0.194
-624.434	-55.085	-0.278	-0.125
-623.419	-89.463	-0.448	0.131
-622.405	800.000	-0.024	-0.068
-621.390	-145.240	-0.182	0.016
-620.376	-200.000	-0.074	0.357
-619.361	-82.501	-0.194	0.063
-618.346	-117.275	0.404	-0.073
-617.332	43.884	-0.059	-0.054
-616.317	-200.000	-0.002	-0.215
-615.303	-83.195	-0.267	0.086
-614.288	-139.204	0.121	0.013
-613.273	-12.967	0.101	0.065
-612.259	100.174	0.069	-0.079
-611.244	-9.397	-0.106	0.071
-610.230	301.230	-0.105	0.193
-609.215	639.122	-0.105	0.267
-608.201	-200.000	0.020	-0.272
-607.186	-37.472	0.249	-0.133
-606.171	-152.041	-0.238	-0.017
-605.157	-178.069	0.314	-0.007
-604.142	-179.436	-0.416	0.009
-603.128	-156.657	-0.166	0.010
-602.113	-67.467	-0.056	-0.022
-601.098	800.000	-0.032	0.113
-600.084	-197.235	0.106	-0.001
-599.069	-95.840	-0.066	0.018
-598.055	648.217	-0.033	0.085
-597.040	-11.441	-0.053	0.035
-596.025	-113.670	-0.294	-0.057
-595.011	800.000	-0.130	0.469
-593.996	-200.000	0.084	-0.000
-592.982	-17.990	0.415	-0.259
-591.967	-200.000	0.019	-0.137
-590.952	46.652	0.127	-0.117
-589.938	50.748	-0.107	0.101
-588.923	-19.094	0.406	-0.251
-587.909	-137.839	-0.082	0.009
-586.894	-19.783	-0.143	-0.088
-585.879	486.718	0.058	0.133
-584.865	-145.410	-0.124	-0.011
-583.850	-200.000	0.007	-0.328
-582.836	-83.122	-0.102	0.033
-581.821	-200.000	-0.004	0.189
-580.806	452.532	-0.074	0.163
-579.792	-184.766	0.237	0.004
-578.777	601.549	0.087	-0.215
-577.763	-139.114	0.304	-0.033
-576.748	-132.131	-0.317	-0.041
-575.733	40.854	0.216	0.194
-574.719	-67.143	0.329	-0.129
-573.704	121.730	0.063	0.078
-572.690	-86.182	-0.262	-0.080
-571.675	97.198	0.178	-0.204
-570.661	-152.042	0.172	0.012
-569.646	-15.640	-0.289	-0.183
-568.631	-200.000	0.012	-0.073
-567.617	-26.712	0.211	-0.123
-566.602	34.037	0.376	-0.326
-565.588	800.000	-0.084	0.241
-564.573	500.381	-0.049	0.113
-563.558	124.012	-0.153	-0.191
-562.544	-200.000	0.022	0.188
-561.529	408.278	0.110	0.231
-560.515	65.312	-0.126	0.127
-559.500	-46.042	-0.260	-0.127
-558.485	430.235	-0.042	0.090
-557.471	88.154	-0.166	-0.183
-556.456	-26.186	-0.184	-0.107
-555.442	800.000	-0.059	-0.215
-554.427	-200.000	0.023	0.184
-553.412	800.000	-0.148	-0.586
-552.398	13.495	-0.193	-0.149
-551.383	138.277	0.284	0.371
-550.369	-200.000	-0.004	-0.047
-549.354	-75.272	0.105	0.037
-548.339	-20.086	0.040	0.024
-547.325	-200.000	0.074	0.378
-546.310	-98.983	0.201	0.051
-545.296	125.309	-0.127	-0.160
-544.281	-48.884	-0.135	-0.065
-543.266	800.000	-0.033	-0.130
-542.252	103.551	0.152	-0.177
-541.237	-124.285	0.139	-0.022
-540.223	168.255	-0.146	0.207
-539.208	-18.654	-0.075	-0.046
-538.193	-14.353	0.108	0.069
-537.179	-89.327	0.097	-0.029
-536.164	173.305	-0.174	-0.249
-535.150	-41.994	-0.040	0.020
-534.135	-114.786	-0.591	0.112
-533.121	-22.396	0.165	-0.100
-532.106	594.454	-0.014	0.035
-531.091	41.468	-0.161	0.145
-530.077	800.000	-0.041	-0.114
-529.062	-200.000	-0.032	-0.414
-528.048	-200.000	-0.001	-0.192
-527.033	-93.628	-0.308	0.084
-526.018	508.898	-0.053	0.121
-525.004	52.791	-0.145	0.138
-523.989	134.656	0.166	-0.214
-522.975	191.667	0.069	0.104
-521.960	-200.000	0.072	0.402
-520.945	-54.707	-0.166	-0.075
-519.931	16.323	0.245	-0.192
-518.916	-63.728	-0.160	0.065
-517.902	800.000	0.066	0.242
-516.887	800.000	-0.043	0.145
-515.872	291.824	-0.080	-0.145
-514.858	48.713	-0.134	-0.125
-513.843	-68.305	-0.068	0.026
-512.829	-69.778	0.192	0.073
-511.814	800.000	0.172	0.484
-510.799	-142.270	-0.088	-0.009
-509.785	-112.629	0.158	-0.031
-508.770	483.581	0.084	0.189
-507.756	-25.445	-0.156	-0.091
-506.741	-18.596	-0.228	-0.141
-505.726	-156.616	0.248	0.015
-504.712	-200.000	-0.044	-0.214
-503.697	-19.087	-0.334	0.206
-502.683	800.000	0.086	0.373
-501.668	800.000	0.088	0.327
-500.653	-5.871	-0.173	-0.117
-499.639	23.638	-0.256	-0.209
-498.624	-200.000	0.020	-0.170
-497.610	-105.355	0.256	0.058
-496.595	-77.824	0.114	0.039
-495.581	-79.245	0.124	-0.042
-494.566	800.000	-0.044	-0.163
-493.551	-63.451	-0.143	0.058
-492.537	177.354	-0.170	-0.246
-491.522	37.016	-0.262	-0.231
-490.508	-90.547	0.110	0.032
-489.493	-107.982	-0.149	0.032
-488.478	445.829	0.155	-0.338
-487.464	-82.390	-0.319	-0.103
-486.449	199.809	0.204	-0.311
-485.435	800.000	0.050	0.161
-484.420	312.025	-0.098	0.182
-483.405	-200.000	0.016	0.115
-482.391	-170.568	0.398	-0.014
-481.376	-200.000	0.025	-0.153
-480.362	800.000	0.031	-0.093
-479.347	-120.357	0.143	-0.024
-478.332	165.665	-0.209	0.293
-477.318	75.464	-0.065	-0.069
-476.303	800.000	0.084	0.331
-475.289	-94.970	-0.143	0.038
-474.274	-200.000	0.007	0.432
-473.259	-200.000	0.002	0.117
-472.245	800.000	0.035	-0.126
-471.230	-200.000	-0.015	0.073
-470.216	27.512	0.234	-0.195
-469.201	800.000	0.052	-0.205
-468.186	-3.708	-0.034	0.024
-467.172	130.376	0.236	0.300
-466.157	-200.000	0.013	0.277
-465.143	225.984	-0.088	-0.142
-464.128	98.845	0.094	-0.107
-463.113	-200.000	-0.035	-0.178
-462.099	367.541	0.077	-0.153
-461.084	800.000	-0.054	0.180
-460.070	134.384	-0.086	-0.111
-459.055	-40.816	0.263	-0.135
-458.040	-200.000	0.003	0.032
-457.026	-200.000	-0.016	-0.276
-456.011	800.000	-0.101	-0.283
-454.997	-56.653	-0.236	0.104
-453.982	14.272	0.081	-0.063
-452.968	127.383	-0.173	0.218
-451.953	-152.896	0.196	-0.014
-450.938	103.014	0.089	-0.103
-449.924	-67.419	0.129	-0.050
-448.909	-7.577	0.137	0.092
-447.895	30.416	-0.155	-0.132
-446.880	800.000	0.035	0.129
-445.865	461.174	-0.154	-0.341
-444.851	33.266	-0.162	-0.139
-443.836	-115.924	0.168	-0.031
-442.822	800.000	-0.072	0.275
-441.807	-73.482	0.134	-0.048
-440.792	-200.000	-0.053	-0.280
-439.778	33.159	-0.128	-0.110
-438.763	711.480	0.048	-0.125
-437.749	341.084	-0.074	0.144
-436.734	800.000	0.092	-0.338
-435.719	381.746	-0.079	0.162
-434.705	24.930	0.084	0.069
-433.690	-200.000	-0.009	-0.109
-432.676	265.588	0.103	-0.178
-431.661	76.861	-0.175	0.184
-430.646	9.109	0.170	0.127
-429.632	-124.679	0.289	0.044
-428.617	252.809	0.052	0.088
-427.603	387.962	0.279	0.572
-426.588	-200.000	-0.034	0.288
-425.573	84.894	-0.111	-0.120
-424.559	800.000	-0.059	0.205
-423.544	-27.420	-0.185	-0.106
-422.530	346.029	-0.095	-0.185
-421.515	-200.000	-0.017	0.115
-420.500	-16.507	-0.127	0.080
-419.486	167.113	0.172	0.241
-418.471	448.557	-0.057	-0.125
-417.457	-34.748	0.283	0.153
-416.442	-104.818	-0.182	0.041
-415.428	0.975	-0.190	0.135
-414.413	151.431	0.115	0.155
-413.398	104.935	-0.122	0.142
-412.384	-200.000	-0.021	-0.111
-411.369	-149.776	0.356	-0.028
-410.355	-140.942	-0.156	-0.016
-409.340	13.538	-0.161	-0.123
-408.325	-200.000	0.031	-0.211
-407.311	14.109	0.278	0.214
-406.296	-200.000	-0.060	0.364
-405.282	0.372	0.086	-0.061
-404.267	-200.000	0.035	-0.195
-403.252	-131.758	0.283	-0.037
-402.238	-139.817	0.139	-0.015
-401.223	2.312	-0.059	0.042
-400.209	-26.663	-0.112	-0.065
-399.194	92.785	0.183	-0.205
-398.179	-118.848	-0.171	-0.030
-397.165	800.000	0.096	0.330
-396.150	800.000	-0.106	0.301
-395.136	-37.541	0.278	-0.147
-394.121	206.058	-0.145	0.223
-393.106	108.574	-0.323	0.382
-392.092	66.336	-0.153	0.154
-391.077	-28.853	0.136	-0.077
-390.063	242.201	0.032	-0.053
-389.048	-200.000	-0.041	0.212
-388.033	81.993	0.111	-0.119
-387.019	-200.000	0.026	-0.210
-386.004	-200.000	-0.017	-0.299
-384.990	-19.228	-0.254	0.156
-383.975	-40.917	0.073	0.037
-382.960	9.059	-0.081	-0.060
-381.946	141.668	0.051	0.067
-380.931	-40.538	-0.244	0.125
-379.917	800.000	0.095	-0.398
-378.902	800.000	0.072	0.309
-377.888	800.000	-0.088	-0.252
-376.873	800.000	-0.097	0.333
-375.858	-51.596	0.099	-0.046
-374.844	800.000	-0.053	-0.173
-373.829	10.116	0.253	-0.190
-372.815	126.644	-0.123	0.154
-371.800	800.000	-0.059	0.162
-370.785	-200.000	-0.034	-0.153
-369.771	-67.502	0.090	-0.035
-368.756	-10.613	0.143	0.094
-367.742	-200.000	0.034	0.225
-366.727	-200.000	-0.036	0.235
-365.712	-7.581	0.273	0.182
-364.698	239.145	0.153	0.252
-363.683	627.493	0.102	-0.255
-362.669	372.212	-0.132	0.265
-361.654	-154.479	0.242	0.016
-360.639	-84.421	0.216	-0.067
-359.625	155.703	-0.216	0.294
-358.610	-200.000	-0.019	0.232
-357.596	-100.992	0.184	0.045
-356.581	-68.610	-0.153	-0.058
-355.566	-170.385	0.334	0.012
-354.552	-49.246	-0.120	-0.057
-353.537	-109.056	0.112	0.024
-352.523	-110.414	0.174	-0.036
-351.508	7.229	0.426	0.314
-350.493	-101.783	-0.194	0.046
-349.479	-14.811	-0.120	-0.076
-348.464	-10.107	-0.025	0.017
-347.450	20.672	-0.177	-0.142
-346.435	-41.921	-0.305	-0.154
-345.420	768.691	0.046	0.123
-344.406	53.528	-0.309	-0.292
-343.391	-200.000	-0.004	0.039
-342.377	-131.138	0.065	-0.009
-341.362	-134.777	0.370	-0.044
-340.348	-128.483	-0.292	0.041
-339.333	-200.000	-0.015	-0.161
-338.318	36.922	-0.158	-0.138
-337.304	14.906	-0.197	0.152
-336.289	-50.237	0.192	-0.090
-335.275	-69.314	0.080	0.030
-334.260	-130.093	-0.187	0.025
-333.245	-53.636	-0.363	0.164
-332.231	-22.094	-0.158	0.095
-331.216	23.581	-0.267	0.217
-330.202	-4.270	-0.220	-0.150
-329.187	-200.000	0.042	-0.221
-328.172	51.896	-0.257	0.241
-327.158	93.676	-0.156	0.175
-326.143	330.630	0.185	-0.351
-325.129	33.463	-0.149	0.128
-324.114	800.000	-0.078	-0.274
-323.099	-200.000	-0.063	0.601
-322.085	106.635	-0.302	-0.354
-321.070	800.000	-0.101	-0.391
-320.056	-200.000	0.006	-0.202
-319.041	158.370	-0.141	-0.193
-318.026	-15.703	0.075	-0.047
-317.012	498.530	-0.107	0.243
-315.997	-37.162	0.132	-0.070
-314.983	94.233	0.141	-0.158
-313.968	-200.000	0.035	-0.188
-312.953	425.597	-0.079	-0.168
-311.939	502.669	0.086	-0.197
-310.924	-200.000	0.128	-0.562
-309.910	-146.115	0.259	0.022
-308.895	800.000	-0.063	-0.259
-307.880	-62.422	-0.164	-0.067
-306.866	-29.807	-0.371	-0.208
-305.851	-147.905	-0.375	0.031
-304.837	143.762	0.108	-0.141
-303.822	100.075	0.267	0.305
-302.807	-123.073	0.075	-0.012
-301.793	-168.038	0.222	-0.009
-300.778	800.000	-0.033	0.138
-299.764	800.000	-0.030	-0.114
-298.749	-31.847	0.043	0.024
-297.735	112.236	0.169	-0.201
-296.720	-9.572	-0.109	-0.071
-295.705	-153.307	0.072	0.005
-294.691	4.599	0.156	0.113
-293.676	93.780	-0.092	0.103
-292.662	2.008	0.137	-0.098
-291.647	7.738	-0.138	-0.102
-290.632	100.583	-0.023	0.027
-289.618	165.754	0.107	0.149
-288.603	800.000	0.036	0.131
-287.589	15.802	0.070	-0.054
-286.574	145.820	-0.143	0.188
-285.559	-146.579	-0.086	0.007
-284.545	126.365	0.192	-0.239
-283.530	159.927	0.155	-0.213
-282.516	82.889	0.130	0.140
-281.501	-50.416	-0.196	-0.091
-280.486	79.730	-0.194	-0.205
-279.472	-163.542	-0.307	-0.014
-278.457	-125.951	-0.014	0.002
-277.443	-95.250	-0.361	-0.096
-276.428	-139.957	0.220	-0.023
-275.413	137.159	0.311	0.400
-274.399	-20.011	-0.302	0.183
-273.384	44.934	0.153	0.139
-272.370	125.570	-0.089	0.110
-271.355	-88.148	0.262	0.077
-270.340	-200.000	-0.004	0.091
-269.326	-122.471	0.482	0.077
-268.311	800.000	-0.065	0.194
-267.297	714.017	0.009	0.024
-266.282	-85.284	-0.120	0.037
-265.267	-87.150	0.289	-0.087
-264.253	-54.628	0.413	-0.184
-263.238	-200.000	0.014	-0.086
-262.224	414.089	0.177	0.370
-261.209	800.000	0.148	0.446
-260.195	-17.917	-0.107	-0.066
-259.180	-8.296	-0.184	-0.122
-258.165	775.209	0.036	-0.097
-257.151	120.858	-0.292	-0.357
-256.136	105.183	-0.227	-0.264
-255.122	164.489	0.124	-0.172
-254.107	-126.037	0.490	-0.072
-253.092	-200.000	-0.002	0.117
-252.078	-200.000	-0.013	-0.076
-251.063	800.000	-0.044	0.181
-250.049	-189.950	0.160	0.002
-249.034	-43.657	0.070	-0.035
-248.019	-106.374	-0.133	-0.029
-247.005	42.213	-0.227	0.203
-245.990	800.000	-0.030	0.088
-244.976	-98.600	-0.119	-0.030
-243.961	38.864	-0.135	0.119
-242.946	5.629	0.147	0.107
-241.932	-129.194	0.207	-0.028
-240.917	-200.000	0.071	-0.386
-239.903	58.376	-0.241	-0.232
-238.888	-200.000	0.047	0.295
-237.873	-21.731	-0.140	-0.084
-236.859	770.344	-0.157	0.420
-235.844	531.128	-0.162	-0.375
-234.830	-200.000	0.023	-0.170
-233.815	-85.159	-0.235	0.072
-232.800	800.000	0.059	0.223
-231.786	-28.179	-0.112	0.064
-230.771	92.189	0.269	0.298
-229.757	2.426	0.235	0.167
-228.742	-59.640	0.304	0.128
-227.727	493.266	-0.037	0.083
-226.713	678.047	0.072	-0.185
-225.698	-15.090	0.383	0.241
-224.684	31.240	-0.189	0.159
-223.669	55.219	-0.054	0.051
-222.655	800.000	0.029	0.091
-221.640	61.078	-0.211	0.206
-220.625	347.700	-0.044	-0.086
-219.611	-200.000	0.052	-0.224
-218.596	-34.721	-0.463	-0.249
-217.582	64.882	-0.127	0.125
-216.567	132.212	0.099	-0.126
-215.552	334.339	-0.113	-0.215
-214.538	-94.920	0.197	-0.052
-213.523	-121.462	-0.211	0.034
-212.509	800.000	0.063	-0.256
-211.494	616.576	0.100	0.245
-210.479	800.000	-0.015	-0.053
-209.465	-62.166	0.242	-0.099
-208.450	684.886	-0.131	-0.336
-207.436	-200.000	0.019	0.167
-206.421	215.948	0.102	0.158
-205.406	-124.903	0.069	-0.010
-204.392	-119.590	0.062	-0.011
-203.377	418.329	0.100	0.209
-202.363	-54.091	-0.180	0.080
-201.348	-108.516	0.121	-0.026
-200.333	571.909	-0.077	0.185
-199.319	-20.800	-0.119	-0.072
-198.304	-107.405	-0.089	0.019
-197.290	-1.014	0.088	0.061
-196.275	-132.629	-0.168	0.021
-195.260	-29.822	0.118	0.066
-194.246	800.000	-0.043	0.157
-193.231	-69.269	-0.322	-0.121
-192.217	-50.852	0.282	-0.130
-191.202	141.630	-0.158	0.206
-190.187	-200.000	-0.027	-0.231
-189.173	214.640	0.245	-0.381
-188.158	-109.895	0.162	0.033
-187.144	800.000	0.067	-0.214
-186.129	-45.736	-0.442	-0.214
-185.114	114.459	0.082	0.097
-184.100	-72.635	0.294	-0.106
-183.085	114.240	-0.347	-0.415
-182.071	-24.215	-0.193	-0.113
-181.056	-200.000	-0.008	0.264
-180.042	-20.233	-0.039	0.024
-179.027	-171.630	0.320	0.010
-178.012	395.181	-0.114	0.232
-176.998	-130.027	0.168	-0.023
-175.983	-2.310	-0.064	0.044
-174.969	-139.978	-0.112	-0.012
-173.954	-193.587	-0.610	-0.005
-172.939	-200.000	0.013	0.173
-171.925	-111.387	0.249	0.050
-170.910	234.688	0.148	-0.240
-169.896	-148.867	0.181	-0.014
-168.881	-72.641	0.091	-0.033
-167.866	-200.000	-0.027	-0.137
-166.852	177.781	-0.178	-0.255
-165.837	46.313	0.124	0.113
-164.823	-40.696	0.206	-0.105
-163.808	-86.682	0.112	0.034
-162.793	-193.867	0.037	-0.000
-161.779	-200.000	-0.004	-0.132
-160.764	119.998	0.079	-0.096
-159.750	86.021	0.188	0.202
-158.735	0.489	0.083	0.058
-157.720	-141.925	-0.113	0.011
-156.706	800.000	-0.088	-0.280
-155.691	-200.000	0.014	0.156
-154.677	78.404	-0.165	0.173
-153.662	157.104	0.279	0.378
-152.647	-153.447	0.591	-0.040
-151.633	-200.000	-0.041	-0.357
-150.618	-200.000	-0.019	-0.381
-149.604	9.434	0.320	-0.237
-148.589	-155.026	-0.272	0.017
-147.574	358.678	0.236	-0.462
-146.560	-53.700	0.173	-0.077
-145.545	378.269	0.145	-0.290
-144.531	-108.617	0.269	-0.057
-143.516	287.825	0.188	-0.334
-142.502	244.079	0.162	0.267
-141.487	691.307	0.074	-0.190
-140.472	-54.109	-0.183	-0.082
-139.458	-68.717	-0.190	-0.072
-138.443	71.689	0.128	0.130
-137.429	-200.000	0.013	0.255
-136.414	800.000	0.025	0.074
-135.399	-41.316	-0.396	-0.200
-134.385	512.572	-0.076	-0.173
-133.370	-8.768	-0.238	0.156
-132.356	63.303	0.223	0.219
-131.341	36.864	0.117	0.102
-130.326	-109.003	-0.236	-0.049
-129.312	38.804	-0.157	-0.137
-128.297	9.715	0.341	0.253
-127.283	-200.000	-0.001	-0.348
-126.268	-148.107	-0.227	-0.018
-125.253	-200.000	0.005	0.094
-124.239	-200.000	0.008	0.101
-123.224	800.000	0.016	-0.053
-122.210	344.242	-0.139	0.266
-121.195	7.340	0.285	0.208
-120.180	59.513	-0.165	0.159
-119.166	278.592	-0.073	-0.127
-118.151	50.579	-0.042	-0.039
-117.137	137.309	0.057	0.073
-116.122	167.852	0.186	0.259
-115.107	213.915	0.149	0.231
-114.093	680.350	-0.037	-0.093
-113.078	117.884	0.220	-0.266
-112.064	-163.545	-0.215	-0.010
-111.049	-23.645	-0.280	-0.164
-110.034	-143.115	-0.225	-0.021
-109.020	800.000	0.057	-0.154
-108.005	54.316	-0.107	0.101
-106.991	252.507	-0.238	0.397
-105.976	-145.144	-0.164	-0.015
-104.962	-104.426	-0.224	0.051
-103.947	66.012	-0.152	0.151
-102.932	-25.356	0.350	-0.203
-101.918	474.789	-0.026	0.058
-100.903	-76.666	-0.410	-0.141
-99.889	-149.276	0.059	0.005
-98.874	-121.060	0.440	0.072
-97.859	800.000	0.034	0.124
-96.845	60.999	-0.151	-0.147
-95.830	-0.362	-0.126	0.088
-94.816	80.076	0.233	0.245
-93.801	-45.304	-0.271	-0.131
-92.786	382.713	-0.040	-0.081
-91.772	-77.759	0.240	0.081
-90.757	-118.364	-0.265	0.046
-89.743	328.865	-0.056	0.106
-88.728	-143.841	0.149	0.014
-87.713	10.684	-0.291	-0.217
-86.699	62.616	-0.066	-0.065
-85.684	31.356	0.275	0.231
-84.670	-200.000	-0.037	-0.365
-83.655	-200.000	-0.031	-0.183
-82.640	-200.000	0.022	-0.146
-81.626	-50.038	0.118	-0.055
-80.611	7.919	-0.074	0.054
-79.597	87.893	-0.019	-0.021
-78.582	-200.000	-0.054	-0.324
-77.567	-200.000	-0.055	-0.358
-76.553	-35.207	-0.196	-0.104
-75.538	-158.498	0.058	0.003
-74.524	-86.110	-0.230	-0.069
-73.509	46.336	0.106	-0.096
-72.494	-157.390	0.296	0.017
-71.480	455.215	0.163	0.353
-70.465	-161.530	-0.202	0.010
-69.451	16.704	0.233	0.180
-68.436	77.012	-0.193	0.201
-67.422	-200.000	-0.018	-0.336
-66.407	126.576	-0.184	-0.227
-65.392	105.066	0.112	-0.130
-64.378	351.265	-0.128	-0.248
-63.363	-200.000	-0.035	-0.267
-62.349	127.707	-0.121	0.150
-61.334	109.767	-1.084	-1.269
-60.319	-64.470	0.600	0.238
-59.305	-200.000	-0.189	-1.263
-58.290	305.543	0.693	1.258
-57.276	800.000	0.395	1.667
-56.261	-200.000	119.630	614.541
-55.246	410.210	1533.113	3171.735
-54.232	148.841	2676.835	3531.840
-53.217	97.045	2125.807	2379.210
-52.203	35.829	1573.386	1350.178
-51.188	28.327	1320.959	1089.112
-50.173	25.619	1283.716	1042.690
-49.159	50.087	1350.507	1243.848
-48.144	48.320	1363.235	1244.970
-47.130	28.349	1312.026	1081.703
-46.115	25.196	1293.471	1047.975
-45.100	24.956	1288.587	1042.581
-44.086	24.873	1286.777	1040.592
-43.071	24.855	1284.050	1038.241
-42.057	24.863	1282.200	1036.753
-41.042	24.881	1280.299	1035.275
-40.027	24.898	1279.034	1034.312
-39.013	24.830	1276.882	1032.140
-37.998	24.941	1275.082	1031.280
-36.984	25.037	1273.177	1030.254
-35.969	24.994	1271.860	1028.898
-34.954	25.062	1269.659	1027.470
-33.940	25.107	1268.423	1026.685
-32.925	25.069	1267.403	1025.598
-31.911	25.179	1265.539	1024.681
-30.896	25.144	1264.064	1023.244
-29.881	25.063	1263.032	1021.905
-28.867	25.210	1261.395	1021.378
-27.852	25.031	1260.704	1019.761
-26.838	25.055	1259.466	1018.854
-25.823	25.059	1258.281	1017.877
-24.809	25.048	1256.826	1016.598
-23.794	25.072	1255.640	1015.735
-22.779	25.043	1253.841	1014.076
-21.765	25.135	1252.647	1013.590
-20.750	25.121	1251.139	1012.249
-19.736	25.088	1250.419	1011.443
-18.721	24.973	1249.219	1009.782
-17.706	25.029	1248.091	1009.144
-16.692	24.976	1246.649	1007.644
-15.677	24.987	1246.223	1007.320
-14.663	24.983	1244.980	1006.250
-13.648	24.980	1243.790	1005.235
-12.633	25.076	1242.380	1004.591
-11.619	24.875	1242.499	1003.524
-10.604	25.000	1240.938	1002.920
-9.590	24.934	1240.182	1001.904
-8.575	24.967	1238.481	1000.671
-7.560	24.934	1238.180	1000.201
-6.546	24.974	1237.425	999.776
-5.531	24.782	1237.201	998.485
-4.517	25.055	1235.476	998.576
-3.502	24.944	1235.153	997.658
-2.487	25.017	1234.247	997.294
-1.473	24.872	1229.555	992.655
-0.458	23.173	1214.796	971.386
0.556	17.856	1198.780	932.966
1.571	14.145	1205.713	917.838
2.586	13.359	1220.606	924.697
3.600	13.263	1208.782	915.129
4.615	9.814	1137.614	843.180
5.629	3.368	1067.461	759.425
6.644	0.271	1050.416	732.194
7.659	0.170	1048.249	730.132
8.673	0.112	1047.584	729.322
9.688	0.177	1046.137	728.566
10.702	0.373	1043.920	727.903
11.717	4.167	1048.598	749.471
12.731	11.427	1057.317	790.932
13.746	15.883	1063.248	816.967
14.761	16.804	1063.913	821.876
15.775	16.112	1061.836	816.850
16.790	15.103	1060.018	810.497
17.804	14.423	1058.312	805.832
18.819	14.024	1057.765	803.415
19.834	13.812	1056.929	801.684
20.848	13.493	1056.274	799.578
21.863	13.396	1054.959	798.043
22.877	13.159	1054.228	796.277
23.892	13.107	1053.824	795.652
24.907	13.213	1053.021	795.488
25.921	13.228	1052.633	795.196
26.936	13.323	1051.293	794.570
27.950	13.252	1050.380	793.466
28.965	13.347	1049.237	792.991
29.980	13.519	1047.510	792.434
30.994	13.358	1046.763	791.031
32.009	13.439	1046.012	790.783
33.023	13.560	1044.487	790.134
34.038	13.475	1044.019	789.305
35.053	13.367	1042.922	787.891
36.067	13.402	1042.136	787.398
37.082	13.326	1041.867	786.761
38.096	13.412	1040.891	786.363
39.111	13.375	1040.300	785.672
40.126	13.389	1038.731	784.482
41.140	13.210	1037.932	782.964
42.155	13.186	1036.657	781.817
43.169	13.092	1036.095	780.879
44.184	13.166	1034.291	779.800
45.199	13.229	1033.709	779.591
46.213	13.200	1032.364	778.371
47.228	13.251	1031.814	778.126
48.242	13.291	1030.473	777.236
49.257	13.250	1029.559	776.287
50.271	13.314	1028.919	776.033
51.286	13.376	1027.853	775.453
52.301	13.344	1026.673	774.341
53.315	13.257	1025.801	773.209
54.330	13.336	1024.882	772.820
55.344	13.287	1024.026	771.875
56.359	13.275	1022.841	770.856
57.374	13.319	1021.977	770.343
58.388	13.174	1021.331	769.115
59.403	13.172	1020.793	768.632
60.417	13.162	1019.955	767.886
61.432	13.070	1019.020	766.686
62.447	13.071	1018.250	766.042
63.461	13.052	1017.753	765.513
64.476	13.138	1016.808	765.134
65.490	13.120	1015.860	764.272
66.505	13.164	1015.358	764.028
67.520	13.268	1014.377	763.705
68.534	13.289	1013.545	763.104
69.549	13.189	1013.011	762.173
70.563	13.057	1012.709	761.272
71.578	13.209	1011.346	760.880
72.593	12.982	1011.171	759.634
73.607	13.026	1010.462	759.236
74.622	13.118	1009.491	758.863
75.636	13.085	1008.490	757.893
76.651	13.158	1007.841	757.671
77.666	13.062	1007.653	757.022
78.680	13.064	1007.046	756.510
79.695	13.089	1006.339	756.026
80.709	13.217	1005.251	755.728
81.724	13.180	1004.955	755.272
82.739	13.152	1004.437	754.687
83.753	13.316	1003.307	754.516
84.768	13.344	1002.186	753.736
85.782	13.357	1001.439	753.168
86.797	13.352	1000.548	752.408
87.812	13.226	999.891	751.273
88.826	13.233	999.282	750.783
89.841	13.242	998.074	749.850
90.855	13.338	997.279	749.619
91.870	13.426	996.435	749.319
92.884	13.391	995.401	748.316
93.899	13.359	994.933	747.755
94.914	13.367	994.182	747.157
95.928	13.365	993.342	746.454
96.943	13.285	992.692	745.537
97.957	13.298	991.640	744.738
98.972	13.384	990.653	744.317
99.987	13.434	989.362	743.508
101.001	13.331	988.911	742.639
102.016	13.348	987.890	741.883
103.030	13.410	987.244	741.611
104.045	13.372	986.191	740.586
105.060	13.355	985.737	740.100
106.074	13.310	984.657	739.027
107.089	13.232	983.529	737.762
108.103	13.226	983.021	737.292
109.118	13.202	981.767	736.180
110.133	13.205	981.030	735.576
111.147	13.110	980.631	734.790
112.162	13.312	979.754	734.965
113.176	13.202	979.045	733.878
114.191	13.353	977.978	733.683
115.206	13.254	977.384	732.732
116.220	13.275	976.514	732.108
117.235	13.203	975.450	730.927
118.249	13.289	974.719	730.697
119.264	13.291	973.962	730.073
120.279	13.365	973.038	729.643
121.293	13.427	972.051	729.110
122.308	13.262	971.423	727.850
123.322	13.386	970.080	727.324
124.337	13.239	969.306	726.033
125.352	13.264	968.549	725.513
126.366	13.366	967.649	725.220
127.381	13.390	966.247	724.211
128.395	13.314	965.104	722.958
129.410	13.326	964.708	722.649
130.424	13.251	964.169	721.856
131.439	13.421	963.032	721.680
132.454	13.516	961.709	721.037
133.468	13.363	961.615	720.238
134.483	13.390	960.405	719.384
135.497	13.458	959.700	719.088
136.512	13.443	958.633	718.160
137.527	13.465	958.084	717.783
138.541	13.272	957.803	716.670
139.556	13.453	956.664	716.538
140.570	13.391	956.060	715.756
141.585	13.540	954.728	715.340
142.600	13.484	954.210	714.644
143.614	13.487	953.601	714.140
144.629	13.599	952.884	714.022
145.643	13.536	952.187	713.166
146.658	13.419	951.241	711.888
147.673	13.591	949.394	711.184
148.687	13.545	949.194	710.775
149.702	13.572	948.276	710.137
150.716	13.512	947.954	709.578
151.731	13.549	947.170	709.085
152.746	13.491	946.392	708.192
153.760	13.607	945.857	708.227
154.775	13.560	945.504	707.698
155.789	13.653	944.574	707.334
156.804	13.652	943.712	706.624
157.819	13.744	943.161	706.541
158.833	13.777	942.767	706.324
159.848	13.604	941.976	704.931
160.862	13.703	940.616	704.274
161.877	13.680	939.639	703.382
162.892	13.534	938.800	702.070
163.906	13.632	938.109	701.907
164.921	13.689	937.088	701.323
165.935	13.578	936.386	700.266
166.950	13.603	935.595	699.720
167.964	13.599	934.900	699.119
168.979	13.740	933.561	698.649
169.994	13.575	933.130	697.571
171.008	13.681	932.830	697.734
172.023	13.794	931.737	697.328
173.037	13.714	931.331	696.627
174.052	13.798	930.241	696.100
175.067	13.727	929.457	695.157
176.081	13.576	929.190	694.261
177.096	13.779	928.554	694.574
178.110	13.746	927.989	693.954
179.125	13.882	927.270	693.921
180.140	13.843	926.558	693.166
181.154	13.896	926.123	692.998
182.169	13.966	925.464	692.739
183.183	13.874	925.010	691.953
184.198	13.919	924.215	691.485
185.213	13.919	923.485	690.874
186.227	14.056	922.605	690.728
187.242	13.961	922.245	690.002
188.256	14.002	921.690	689.694
189.271	14.038	920.895	689.189
190.286	13.840	920.124	687.729
191.300	13.759	919.666	686.992
192.315	13.743	919.160	686.488
193.329	13.767	918.235	685.834
194.344	13.874	917.442	685.624
195.359	13.836	917.245	685.258
196.373	14.057	916.518	685.564
197.388	14.017	916.119	685.041
198.402	14.018	915.432	684.473
199.417	14.091	914.954	684.354
200.432	14.122	914.201	683.859
201.446	14.212	913.454	683.610
202.461	14.328	913.099	683.761
203.475	14.107	912.781	682.552
204.490	14.156	911.890	682.029
205.504	14.334	910.862	681.925
206.519	14.059	910.836	680.720
207.534	14.168	909.357	680.000
208.548	14.129	908.968	679.489
209.563	14.232	908.735	679.679
210.577	14.271	907.920	679.165
211.592	14.469	906.708	679.006
212.607	14.416	905.973	678.179
213.621	14.210	905.734	677.103
214.636	14.287	904.650	676.546
215.650	14.305	904.111	676.154
216.665	14.272	903.481	675.489
217.680	14.417	902.769	675.486
218.694	14.434	902.070	674.973
219.709	14.394	901.563	674.371
220.723	14.302	901.208	673.674
221.738	14.432	900.537	673.639
222.753	14.474	899.666	673.096
223.767	14.558	899.084	672.941
224.782	14.506	898.612	672.317
225.796	14.413	898.209	671.583
226.811	14.483	897.153	671.014
227.826	14.536	896.753	670.868
228.840	14.558	895.657	670.080
229.855	14.470	894.887	669.091
230.869	14.597	894.164	669.000
231.884	14.381	893.740	667.758
232.899	14.502	893.000	667.632
233.913	14.551	892.152	667.132
234.928	14.579	891.498	666.698
235.942	14.427	891.234	665.835
236.957	14.689	890.462	666.242
237.972	14.616	889.799	665.396
238.986	14.612	888.977	664.709
240.001	14.643	888.429	664.364
241.015	14.635	887.975	663.932
242.030	14.581	887.374	663.211
243.045	14.727	886.788	663.294
244.059	14.651	885.994	662.339
245.074	14.607	885.403	661.663
246.088	14.723	884.898	661.687
247.103	14.669	884.541	661.150
248.117	14.846	883.747	661.197
249.132	14.843	883.154	660.685
250.147	14.958	882.413	660.525
251.161	14.973	881.385	659.756
252.176	15.054	880.939	659.684
253.190	14.970	880.652	659.078
254.205	14.993	879.843	658.504
255.220	14.938	879.059	657.643
256.234	15.062	878.382	657.567
257.249	15.025	877.706	656.855
258.263	15.119	876.849	656.527
259.278	15.158	876.148	656.097
260.293	15.193	875.559	655.734
261.307	15.079	875.600	655.260
262.322	15.176	874.723	654.923
263.336	15.219	874.075	654.551
264.351	15.214	873.348	653.928
265.366	15.069	872.847	652.929
266.380	15.195	872.252	652.916
267.395	15.222	871.239	652.206
268.409	15.197	870.590	651.566
269.424	15.297	869.880	651.367
270.439	15.399	868.895	650.967
271.453	15.297	868.327	650.088
272.468	15.193	868.119	649.472
273.482	15.223	868.033	649.466
274.497	15.135	867.261	648.488
275.512	15.285	866.219	648.233
276.526	15.281	866.239	648.174
277.541	15.323	865.358	647.622
278.555	15.349	865.038	647.424
279.570	15.419	864.105	646.940
280.585	15.439	863.115	646.216
281.599	15.445	862.346	645.608
282.614	15.446	861.868	645.196
283.628	15.461	861.458	644.891
284.643	15.450	860.782	644.285
285.657	15.393	860.515	643.809
286.672	15.521	859.437	643.435
287.687	15.417	858.968	642.629
288.701	15.484	858.506	642.484
289.716	15.522	857.837	642.072
290.730	15.557	857.344	641.779
291.745	15.533	856.819	641.237
292.760	15.575	856.249	640.916
293.774	15.402	855.818	639.875
294.789	15.729	854.868	640.353
295.803	15.576	854.477	639.421
296.818	15.590	853.278	638.523
297.833	15.694	852.788	638.493
298.847	15.587	852.248	637.628
299.862	15.701	851.847	637.705
300.876	15.674	851.735	637.461
301.891	15.684	850.606	636.596
302.906	15.764	849.929	636.338
303.920	15.941	849.488	636.618
304.935	15.872	848.936	635.889
305.949	15.919	847.715	635.094
306.964	15.957	847.597	635.092
307.979	16.037	847.076	634.949
308.993	15.877	846.788	634.074
310.008	15.937	845.913	633.590
311.022	16.123	845.266	633.748
312.037	16.070	844.948	633.253
313.052	15.826	844.809	632.177
314.066	15.871	843.958	631.652
315.081	15.838	843.358	631.023
316.095	15.969	842.749	631.005
317.110	16.025	841.590	630.288
318.125	15.948	841.478	629.862
319.139	15.873	841.284	629.381
320.154	16.090	840.493	629.542
321.168	16.052	839.919	628.916
322.183	16.002	839.571	628.412
323.197	16.004	838.956	627.904
324.212	15.850	838.813	627.169
325.227	15.956	837.951	626.862
326.241	16.054	837.238	626.637
327.256	15.963	836.963	626.037
328.270	16.014	835.986	625.443
329.285	16.006	835.778	625.201
330.300	15.922	835.335	624.504
331.314	16.098	834.531	624.499
332.329	16.227	833.762	624.343
333.343	16.163	833.908	624.160
334.358	16.113	833.473	623.598
335.373	16.195	832.683	623.251
336.387	16.257	832.564	623.336
337.402	16.139	832.473	622.779
338.416	16.375	832.050	623.277
339.431	16.292	832.054	622.921
340.446	16.282	831.188	622.178
341.460	16.217	830.692	621.513
342.475	16.359	830.162	621.584
343.489	16.465	830.009	621.804
344.504	16.279	830.133	621.158
345.519	16.405	829.097	620.791
346.533	16.500	828.370	620.539
347.548	16.380	828.400	620.066
348.562	16.387	827.301	619.215
349.577	16.337	826.909	618.683
350.592	16.486	825.699	618.268
351.606	16.562	825.186	618.108
352.621	16.483	824.680	617.385
353.635	16.349	824.506	616.711
354.650	16.335	823.797	616.076
355.665	16.442	823.229	615.987
356.679	16.532	822.602	615.793
357.694	16.559	821.854	615.274
358.708	16.584	821.214	614.832
359.723	16.592	820.647	614.381
360.738	16.554	820.270	613.907
361.752	16.606	819.511	613.473
362.767	16.580	819.240	613.123
363.781	16.622	818.955	613.008
364.796	16.613	818.170	612.332
365.810	16.637	817.717	612.028
366.825	16.730	817.594	612.217
367.840	16.832	816.715	611.871
368.854	16.791	816.413	611.445
369.869	16.785	815.873	610.962
370.883	16.846	815.323	610.717
371.898	16.742	815.263	610.244
372.913	17.014	814.671	610.727
373.927	16.738	814.328	609.421
374.942	16.773	814.274	609.452
375.956	17.053	813.176	609.582
376.971	17.031	812.693	609.088
377.986	17.006	812.817	609.037
379.000	17.084	812.003	608.654
380.015	17.148	811.409	608.383
381.029	17.064	810.593	607.416
382.044	17.017	810.347	607.011
383.059	17.029	809.757	606.561
384.073	17.006	809.472	606.208
385.088	17.042	808.673	605.685
386.102	17.061	807.887	605.111
387.117	17.070	807.599	604.873
388.132	16.997	807.090	604.178
389.146	16.958	806.789	603.762
390.161	17.162	805.947	603.804
391.175	17.092	805.617	603.253
392.190	17.177	805.017	603.054
393.205	17.049	804.310	602.017
394.219	17.004	804.490	601.939
395.234	17.162	803.729	601.875
396.248	17.225	802.936	601.449
397.263	17.065	802.816	600.742
398.278	17.161	802.672	600.920
399.292	17.221	802.165	600.698
400.307	17.196	801.703	600.214
401.321	17.143	801.510	599.827
402.336	17.256	800.611	599.500
403.350	17.277	800.568	599.491
404.365	17.270	800.111	599.069
405.380	17.251	799.220	598.282
406.394	17.466	798.912	598.754
407.409	17.400	798.374	598.069
408.423	17.479	798.132	598.112
409.438	17.521	797.847	597.992
410.453	17.454	797.255	597.259
411.467	17.529	796.694	597.051
412.482	17.529	796.385	596.766
413.496	17.551	796.050	596.537
414.511	17.443	795.797	595.918
415.526	17.713	795.188	596.353
416.540	17.528	795.199	595.663
417.555	17.547	794.482	595.139
418.569	17.577	794.026	594.850
419.584	17.663	793.404	594.630
420.599	17.663	793.027	594.296
421.613	113.832	1296.873	1485.013
422.628	97.939	1370.264	1485.072
