DTS Sentinel unit serial number:	SN413079Multiplexer serial number:	ORYXHardware model number:	OX4-SRSoftware version number:	ORYX F/W v4.00 Oryx Data Collector v3.7.2.0data status	okinstallation	princeton_trtdifferential loss correction	single-endedforward channel	channel 1reverse channel	N/Adate	2019/09/18time	06:34:35forward acquisition time	60.00reverse acquisition time	0.00gamma	496.2192k internal	0.2339k external	0.2339temperature offset calibration	0.9979default loss term (dB/km)	0.3790temperature slope calibration	1.0000multiplexer offset coefficient	1.0000multiplexer slope coefficient	1.0000fibre end	0.00T internal ref (°C)	23.27T ext. ref 1 (°C)	0.19T ext. ref 2 (°C)	17.25length (m)	temperature (°C)	Stokes	anti-Stokes-747.200	-77.948	0.183	0.063
-746.185	-102.777	-0.155	-0.037
-745.171	-14.726	-0.219	0.141
-744.156	-92.489	-0.085	-0.024
-743.142	800.000	0.053	-0.176
-742.127	468.884	-0.139	-0.313
-741.112	107.194	-0.132	0.158
-740.098	-200.000	0.016	0.122
-739.083	-200.000	0.001	-0.249
-738.069	357.950	0.058	0.116
-737.054	800.000	-0.044	0.137
-736.039	-42.506	-0.342	-0.175
-735.025	207.360	0.203	0.318
-734.010	109.302	-0.165	-0.198
-732.996	800.000	0.124	-0.459
-731.981	-200.000	0.007	0.309
-730.966	23.938	-0.282	-0.233
-729.952	-200.000	0.022	-0.528
-728.937	191.660	-0.121	0.182
-727.923	800.000	0.038	0.116
-726.908	800.000	-0.034	-0.115
-725.894	-100.039	-0.161	0.040
-724.879	386.438	-0.046	0.095
-723.864	-200.000	-0.029	0.297
-722.850	-110.694	0.209	-0.043
-721.835	249.931	0.209	0.356
-720.821	58.745	-0.248	0.244
-719.806	-98.380	0.212	0.054
-718.791	-44.976	0.121	-0.060
-717.777	-2.808	0.060	0.042
-716.762	800.000	-0.220	0.629
-715.748	-200.000	0.004	0.155
-714.733	800.000	-0.056	0.193
-713.718	-100.519	-0.057	0.014
-712.704	339.530	-0.054	-0.105
-711.689	-178.976	0.281	0.006
-710.675	-84.328	0.051	-0.016
-709.660	-77.272	-0.360	-0.125
-708.645	-200.000	0.036	0.235
-707.631	-8.263	0.146	0.098
-706.616	-74.586	-0.091	-0.033
-705.602	-81.109	0.219	0.073
-704.587	-147.919	-0.293	-0.024
-703.572	38.316	-0.080	-0.071
-702.558	-152.206	-0.048	0.003
-701.543	34.983	0.064	-0.056
-700.529	-123.061	0.224	-0.036
-699.514	1.935	-0.327	0.236
-698.499	-154.034	-0.520	0.035
-697.485	800.000	0.061	-0.252
-696.470	-77.105	0.378	-0.132
-695.456	-200.000	0.016	0.244
-694.441	800.000	-0.110	0.357
-693.426	-200.000	-0.039	0.386
-692.412	-8.825	0.110	-0.074
-691.397	-105.294	-0.198	-0.045
-690.383	42.804	-0.098	-0.090
-689.368	185.574	-0.112	-0.167
-688.354	79.117	-0.172	0.184
-687.339	-104.703	0.444	0.102
-686.324	326.662	-0.143	0.274
-685.310	800.000	0.077	0.231
-684.295	157.674	-0.205	0.284
-683.281	93.485	-0.184	-0.209
-682.266	216.624	0.167	-0.266
-681.251	-200.000	0.029	-0.243
-680.237	69.719	-0.144	0.149
-679.222	109.494	-0.057	-0.068
-678.208	-1.272	0.199	-0.141
-677.193	-67.600	-0.162	0.064
-676.178	-200.000	0.010	-0.180
-675.164	436.445	-0.148	0.323
-674.149	267.440	0.167	-0.292
-673.135	68.253	0.068	0.069
-672.120	559.540	-0.016	-0.038
-671.105	251.221	0.060	-0.102
-670.091	38.207	-0.124	0.111
-669.076	-79.262	-0.147	0.050
-668.062	-164.665	-0.213	-0.010
-667.047	59.829	-0.373	0.368
-666.032	402.153	-0.113	-0.237
-665.018	-50.837	0.179	0.084
-664.003	-20.103	0.091	0.056
-662.989	-200.000	-0.041	-0.361
-661.974	37.956	0.126	-0.112
-660.959	-200.000	0.042	0.328
-659.945	-200.000	-0.026	-0.186
-658.930	-15.559	-0.168	0.107
-657.916	747.984	0.048	-0.131
-656.901	23.409	0.067	0.055
-655.886	-200.000	0.024	-0.273
-654.872	656.400	-0.153	0.392
-653.857	800.000	-0.059	-0.179
-652.843	-36.242	0.252	0.136
-651.828	-149.321	-0.264	-0.021
-650.814	-16.355	-0.207	0.131
-649.799	-70.934	-0.173	-0.065
-648.784	-200.000	0.040	0.181
-647.770	800.000	-0.137	-0.395
-646.755	252.412	-0.065	-0.111
-645.741	-167.236	-0.260	-0.011
-644.726	105.710	-0.096	-0.114
-643.711	171.615	0.138	0.199
-642.697	240.281	-0.122	0.203
-641.682	11.744	0.237	0.182
-640.668	546.765	0.035	0.083
-639.653	363.107	-0.021	-0.042
-638.638	-70.165	0.228	0.087
-637.624	-200.000	-0.016	0.119
-636.609	-126.542	-0.136	-0.020
-635.595	-200.000	0.045	-0.199
-634.580	-15.123	-0.365	0.234
-633.565	-62.400	-0.142	-0.059
-632.551	-200.000	0.040	-0.242
-631.536	-200.000	-0.007	-0.199
-630.522	-182.420	-0.179	-0.003
-629.507	110.774	0.112	0.135
-628.492	-10.510	0.222	-0.147
-627.478	-54.336	-0.567	-0.257
-626.463	-63.186	0.134	0.055
-625.449	800.000	0.028	0.088
-624.434	100.692	-0.143	-0.165
-623.419	-110.965	0.032	-0.006
-622.405	-69.331	0.375	0.144
-621.390	29.657	-0.235	0.199
-620.376	5.805	-0.272	0.201
-619.361	272.964	0.191	-0.338
-618.346	68.178	0.139	-0.142
-617.332	124.361	-0.176	-0.221
-616.317	-200.000	-0.022	-0.277
-615.303	800.000	0.131	0.366
-614.288	172.674	-0.307	-0.441
-613.273	671.969	-0.071	-0.184
-612.259	-80.103	-0.245	0.082
-611.244	800.000	0.047	0.198
-610.230	-100.614	0.046	0.011
-609.215	335.206	-0.169	-0.327
-608.201	0.840	0.142	-0.101
-607.186	-140.009	-0.222	0.023
-606.171	-124.183	0.069	0.011
-605.157	-166.095	-0.423	-0.018
-604.142	-64.069	0.175	0.071
-603.128	-44.873	-0.063	0.031
-602.113	689.142	0.078	-0.204
-601.098	105.815	-0.238	0.281
-600.084	-94.624	0.205	-0.056
-599.069	800.000	0.088	-0.242
-598.055	-39.450	0.335	-0.175
-597.040	112.164	0.110	0.133
-596.025	800.000	0.023	-0.082
-595.011	736.320	0.090	-0.241
-593.996	-158.031	-0.256	-0.015
-592.982	-28.636	-0.181	-0.104
-591.967	-81.567	0.034	-0.011
-590.952	114.409	0.104	-0.126
-589.938	-77.682	-0.276	-0.095
-588.923	-200.000	-0.026	-0.176
-587.909	54.991	0.101	-0.098
-586.894	120.466	-0.093	-0.116
-585.879	800.000	0.095	-0.281
-584.865	-24.945	-0.269	-0.159
-583.850	-200.000	-0.002	-0.075
-582.836	279.418	0.074	-0.131
-581.821	317.673	0.157	-0.296
-580.806	-131.712	-0.209	-0.027
-579.792	13.420	-0.056	-0.043
-578.777	219.839	-0.235	-0.375
-577.763	-200.000	-0.029	0.138
-576.748	-100.761	-0.206	-0.050
-575.733	-200.000	0.015	0.247
-574.719	248.904	0.040	0.068
-573.704	800.000	0.052	0.187
-572.690	-21.546	0.095	0.058
-571.675	-74.380	0.266	-0.096
-570.661	-71.311	-0.099	-0.037
-569.646	64.298	0.263	-0.264
-568.631	800.000	-0.065	0.233
-567.617	563.785	0.066	0.160
-566.602	-60.887	-0.221	0.093
-565.588	-117.323	0.190	0.034
-564.573	35.966	0.265	-0.232
-563.558	90.800	0.321	-0.359
-562.544	5.622	-0.197	0.145
-561.529	-200.000	-0.041	-0.323
-560.515	-200.000	-0.015	-0.088
-559.500	531.920	0.122	-0.288
-558.485	-147.860	0.056	0.005
-557.471	-121.727	-0.200	-0.033
-556.456	-135.584	0.244	-0.029
-555.442	5.370	-0.244	0.179
-554.427	-79.504	0.123	0.041
-553.412	-76.910	-0.173	-0.060
-552.398	-112.957	0.271	-0.053
-551.383	-106.104	-0.431	0.096
-550.369	-125.528	-0.091	-0.014
-549.354	31.326	0.212	0.181
-548.339	381.481	-0.188	0.384
-547.325	-22.514	0.239	-0.144
-546.310	-119.701	-0.173	-0.030
-545.296	-47.057	-0.135	0.066
-544.281	-104.321	0.355	0.082
-543.266	13.698	-0.191	-0.148
-542.252	-200.000	0.011	-0.078
-541.237	19.312	-0.144	-0.115
-540.223	-200.000	0.006	0.155
-539.208	222.106	-0.080	-0.129
-538.193	800.000	-0.025	-0.102
-537.179	213.371	0.043	-0.068
-536.164	-200.000	0.058	-0.324
-535.150	-109.844	-0.164	-0.034
-534.135	-200.000	-0.007	0.045
-533.121	-45.173	-0.160	-0.079
-532.106	-200.000	-0.012	0.053
-531.091	-127.632	-0.236	0.034
-530.077	-53.046	0.238	0.109
-529.062	-74.497	-0.135	0.049
-528.048	-18.073	0.097	-0.061
-527.033	-17.589	-0.150	0.094
-526.018	-200.000	-0.001	0.113
-525.004	27.070	-0.167	-0.139
-523.989	-200.000	-0.034	0.190
-522.975	85.445	0.069	-0.075
-521.960	61.052	0.206	0.204
-520.945	-200.000	-0.002	0.136
-519.931	420.265	0.063	0.134
-518.916	-200.000	-0.073	0.351
-517.902	-21.073	0.334	0.203
-516.887	1.307	-0.020	0.014
-515.872	-131.748	0.347	-0.045
-514.858	800.000	-0.054	0.149
-513.843	-108.126	0.264	-0.057
-512.829	-21.149	-0.087	0.053
-511.814	49.955	-0.052	0.048
-510.799	165.610	-0.147	0.207
-509.785	-6.832	0.155	0.105
-508.770	-151.637	0.281	0.021
-507.756	-83.617	-0.302	-0.096
-506.741	800.000	-0.151	-0.452
-505.726	-101.078	0.133	-0.032
-504.712	-200.000	-0.040	0.215
-503.697	194.285	0.074	-0.111
-502.683	800.000	-0.069	-0.275
-501.668	180.910	0.175	-0.255
-500.653	-200.000	0.028	-0.272
-499.639	-131.551	-0.193	0.025
-498.624	-200.000	-0.024	-0.215
-497.610	800.000	-0.073	-0.234
-496.595	125.189	0.093	-0.116
-495.581	227.427	-0.275	-0.444
-494.566	-72.584	-0.003	0.001
-493.551	-126.176	0.295	-0.044
-492.537	-200.000	0.037	0.284
-491.522	77.640	-0.140	0.148
-490.508	65.307	0.056	-0.056
-489.493	-121.771	0.416	0.068
-488.478	-94.582	-0.280	0.076
-487.464	31.395	0.265	-0.226
-486.449	-200.000	-0.191	0.000
-485.435	276.907	0.078	-0.138
-484.420	69.826	-0.039	0.040
-483.405	210.290	0.240	-0.374
-482.391	-104.454	-0.249	0.057
-481.376	325.695	0.090	0.171
-480.362	-29.578	0.285	0.162
-479.347	394.902	-0.081	-0.167
-478.332	204.439	0.068	-0.105
-477.318	111.321	0.107	0.128
-476.303	-178.595	0.193	0.004
-475.289	179.623	-0.104	-0.152
-474.274	108.799	0.154	-0.182
-473.259	1.924	-0.129	-0.092
-472.245	-81.812	0.237	0.077
-471.230	371.524	-0.090	0.181
-470.216	800.000	-0.077	-0.278
-469.201	-39.239	-0.269	0.140
-468.186	274.783	0.128	-0.224
-467.172	-147.569	-0.179	-0.015
-466.157	-134.978	-0.304	-0.036
-465.143	-200.000	-0.044	0.297
-464.128	-63.743	0.286	-0.116
-463.113	-115.086	-0.155	-0.029
-462.099	292.445	0.073	-0.131
-461.084	800.000	0.081	0.317
-460.070	800.000	-0.043	0.140
-459.055	452.554	-0.067	-0.146
-458.040	-200.000	-0.004	0.107
-457.026	-200.000	-0.048	0.233
-456.011	-119.429	0.434	0.075
-454.997	-121.542	-0.155	-0.026
-453.982	235.122	-0.179	0.293
-452.968	18.157	-0.051	0.040
-451.953	-69.176	-0.331	0.126
-450.938	43.665	0.088	0.080
-449.924	800.000	-0.051	-0.204
-448.909	-12.476	0.159	0.103
-447.895	-200.000	0.037	-0.260
-446.880	-200.000	0.115	-0.523
-445.865	-200.000	0.003	-0.061
-444.851	-200.000	-0.058	0.312
-443.836	-38.398	-0.123	-0.065
-442.822	-200.000	0.010	-0.129
-441.807	606.746	0.039	0.097
-440.792	76.436	0.112	0.118
-439.778	-155.698	-0.215	0.014
-438.763	-200.000	0.021	0.131
-437.749	-13.937	0.231	0.148
-436.734	-114.138	0.220	0.042
-435.719	800.000	-0.029	-0.099
-434.705	236.022	0.159	0.260
-433.690	-130.537	0.262	0.035
-432.676	-33.670	-0.141	-0.077
-431.661	-200.000	-0.044	0.272
-430.646	600.028	0.134	-0.330
-429.632	-40.322	-0.224	0.115
-428.617	-17.323	-0.026	0.016
-427.603	-200.000	0.028	0.331
-426.588	-50.723	0.182	0.085
-425.573	800.000	-0.091	-0.264
-424.559	790.037	-0.116	0.314
-423.544	156.304	-0.260	0.356
-422.530	32.455	0.226	0.194
-421.515	-65.400	-0.070	0.028
-420.500	187.463	0.167	-0.247
-419.486	800.000	-0.045	-0.139
-418.471	237.875	0.078	0.129
-417.457	-65.691	0.246	-0.098
-416.442	-200.000	-0.050	0.317
-415.428	320.095	0.087	0.163
-414.413	-200.000	0.010	-0.114
-413.398	800.000	0.061	-0.176
-412.384	-47.826	0.331	-0.159
-411.369	-110.815	0.099	-0.020
-410.355	-149.311	-0.176	-0.014
-409.340	800.000	-0.073	0.285
-408.325	301.760	-0.110	0.201
-407.311	197.487	0.064	-0.097
-406.296	-20.908	0.090	0.055
-405.282	800.000	-0.113	0.446
-404.267	-80.583	0.121	-0.040
-403.252	-200.000	-0.028	0.129
-402.238	39.211	-0.211	-0.187
-401.223	-47.281	-0.284	0.137
-400.209	-37.495	-0.336	0.177
-399.194	30.795	-0.134	0.114
-398.179	151.785	-0.098	-0.132
-397.165	9.998	0.146	-0.110
-396.150	10.344	0.310	-0.234
-395.136	70.824	-0.162	-0.166
-394.121	800.000	-0.083	0.228
-393.106	-96.591	0.336	0.088
-392.092	34.622	-0.205	0.177
-391.077	14.170	0.136	-0.105
-390.063	800.000	0.069	0.194
-389.048	-70.283	-0.505	0.190
-388.033	-200.000	-0.094	0.526
-387.019	800.000	0.036	-0.137
-386.004	-69.075	-0.097	-0.037
-384.990	167.937	0.135	0.190
-383.975	310.780	0.050	-0.092
-382.960	-11.015	0.037	-0.024
-381.946	-182.449	0.247	0.004
-380.931	-23.198	-0.009	0.006
-379.917	-100.943	0.151	0.037
-378.902	-86.166	-0.075	-0.023
-377.888	-126.608	0.153	-0.022
-376.873	-86.570	-0.132	0.040
-375.858	-200.000	0.059	-0.446
-374.844	272.962	-0.130	-0.228
-373.829	-86.954	-0.155	-0.047
-372.815	-200.000	0.001	0.304
-371.800	-78.937	-0.237	-0.080
-370.785	-200.000	-0.040	-0.237
-369.771	118.246	0.077	0.094
-368.756	-74.608	0.259	-0.092
-367.742	327.614	0.049	0.092
-366.727	150.287	-0.176	0.236
-365.712	-59.617	-0.197	0.083
-364.698	49.411	0.078	0.072
-363.683	-2.368	-0.031	-0.021
-362.669	-200.000	0.012	0.066
-361.654	128.360	-0.324	0.408
-360.639	174.896	0.147	-0.210
-359.625	-124.909	-0.157	0.024
-358.610	-118.008	-0.366	-0.065
-357.596	42.252	0.195	-0.175
-356.581	-133.138	-0.295	-0.037
-355.566	-59.628	-0.450	-0.191
-354.552	-123.769	0.284	-0.044
-353.537	-16.427	-0.206	-0.129
-352.523	93.730	-0.066	-0.074
-351.508	-70.765	-0.295	-0.110
-350.493	263.291	0.079	-0.135
-349.479	800.000	-0.066	-0.239
-348.464	-200.000	0.002	0.021
-347.450	118.903	-0.071	-0.087
-346.435	-114.644	0.222	0.042
-345.420	87.041	-0.154	0.168
-344.406	800.000	0.062	0.214
-343.391	-81.837	-0.483	0.156
-342.377	-110.783	0.233	-0.047
-341.362	60.351	0.103	0.101
-340.348	-13.265	-0.067	0.043
-339.333	177.701	0.072	-0.103
-338.318	-27.700	-0.250	0.143
-337.304	-76.377	0.262	0.091
-336.289	146.597	0.102	-0.135
-335.275	-200.000	-0.001	0.194
-334.260	215.250	0.250	0.391
-333.245	49.609	-0.298	-0.277
-332.231	-200.000	-0.004	0.229
-331.216	-200.000	0.037	0.247
-330.202	26.003	0.364	0.300
-329.187	-200.000	0.024	0.144
-328.172	160.642	0.058	0.080
-327.158	6.775	0.213	-0.156
-326.143	16.356	0.289	0.225
-325.129	32.632	0.192	0.164
-324.114	476.789	-0.111	-0.249
-323.099	393.701	-0.063	-0.129
-322.085	58.347	0.187	0.181
-321.070	6.867	0.111	0.081
-320.056	-138.063	0.165	-0.018
-319.041	-193.166	0.175	0.002
-318.026	-67.263	0.229	-0.089
-317.012	-142.747	-0.139	-0.013
-315.997	319.956	-0.046	0.085
-314.983	108.950	0.096	0.113
-313.968	425.772	-0.132	0.280
-312.953	800.000	0.046	-0.192
-311.939	281.375	-0.152	-0.268
-310.924	-1.844	0.117	0.081
-309.910	-144.900	-0.288	-0.026
-308.895	-93.468	0.248	-0.068
-307.880	626.493	-0.114	-0.284
-306.866	99.234	0.181	-0.207
-305.851	-160.884	0.369	-0.019
-304.837	24.005	0.113	0.092
-303.822	-200.000	-0.013	0.239
-302.807	-109.040	-0.365	0.077
-301.793	361.909	0.052	-0.103
-300.778	-39.946	0.284	-0.146
-299.764	-59.927	-0.035	-0.015
-298.749	-45.242	-0.310	-0.152
-297.735	-48.588	-0.154	-0.073
-296.720	554.672	0.126	-0.298
-295.705	-162.757	0.145	-0.007
-294.691	-35.665	-0.346	0.185
-293.676	-200.000	-0.042	-0.198
-292.662	-200.000	0.047	0.223
-291.647	-66.890	-0.037	0.014
-290.632	-23.576	0.099	0.058
-289.618	-190.925	-0.176	-0.002
-288.603	115.606	0.147	0.178
-287.589	-104.650	-0.102	-0.023
-286.574	471.404	-0.092	-0.205
-285.559	-189.689	-0.128	0.001
-284.545	-3.278	0.184	0.126
-283.530	-200.000	-0.006	0.266
-282.516	569.011	0.045	0.108
-281.501	-79.199	0.102	0.034
-280.486	-112.551	-0.096	0.019
-279.472	51.733	-0.248	-0.233
-278.457	166.485	-0.152	-0.212
-277.443	-28.859	0.376	-0.213
-276.428	-60.740	0.088	0.037
-275.413	-108.814	0.288	-0.061
-274.399	45.482	0.093	0.085
-273.384	-104.502	0.221	-0.050
-272.370	-148.535	0.198	0.016
-271.355	44.125	-0.049	-0.045
-270.340	-125.427	0.133	0.020
-269.326	145.973	0.129	-0.171
-268.311	5.070	-0.264	-0.191
-267.297	-50.434	0.287	0.133
-266.282	-156.937	0.270	-0.016
-265.267	800.000	-0.051	0.173
-264.253	94.485	-0.078	-0.087
-263.238	-139.937	-0.333	-0.035
-262.224	800.000	-0.056	0.176
-261.209	104.235	-0.149	-0.173
-260.195	647.664	-0.019	-0.047
-259.180	195.425	0.140	-0.209
-258.165	-79.590	-0.130	0.043
-257.151	47.542	-0.259	0.238
-256.136	-1.717	0.120	-0.083
-255.122	-200.000	0.046	-0.239
-254.107	-51.652	-0.086	-0.039
-253.092	9.181	0.166	-0.124
-252.078	800.000	-0.043	-0.128
-251.063	-81.289	0.189	0.061
-250.049	-62.487	-0.163	-0.067
-249.034	-63.363	0.208	-0.084
-248.019	-33.358	-0.261	-0.142
-247.005	156.944	0.048	-0.065
-245.990	-24.240	0.147	-0.086
-244.976	543.784	0.180	0.423
-243.961	-71.356	0.200	0.074
-242.946	95.111	0.230	-0.257
-241.932	-16.254	0.200	-0.125
-240.917	-200.000	0.056	-0.366
-239.903	-7.823	-0.338	0.225
-238.888	-156.773	-0.221	-0.013
-237.873	161.226	-0.077	0.105
-236.859	117.513	0.114	-0.138
-235.844	457.656	0.055	-0.120
-234.830	-200.000	-0.004	0.157
-233.815	-200.000	0.094	0.473
-232.800	279.252	-0.143	-0.251
-231.786	66.272	0.086	0.086
-230.771	147.574	0.031	-0.040
-229.757	426.302	-0.110	-0.233
-228.742	-23.013	-0.307	0.182
-227.727	243.542	0.100	-0.165
-226.713	87.959	-0.099	-0.108
-225.698	219.804	0.112	0.176
-224.684	-7.040	0.124	-0.083
-223.669	800.000	-0.143	-0.449
-222.655	-200.000	0.000	-0.229
-221.640	25.875	-0.177	0.145
-220.625	-66.001	0.176	-0.069
-219.611	-92.158	-0.257	-0.071
-218.596	-200.000	0.014	-0.103
-217.582	-1.679	0.329	0.228
-216.567	336.728	-0.040	-0.076
-215.552	245.443	-0.063	0.105
-214.538	-14.527	-0.117	0.074
-213.523	800.000	-0.102	-0.323
-212.509	-41.071	-0.111	0.056
-211.494	59.794	-0.345	-0.334
-210.479	49.420	0.077	-0.071
-209.465	-117.500	0.169	-0.030
-208.450	-52.801	-0.225	-0.102
-207.436	-131.632	-0.233	-0.030
-206.421	-90.936	-0.085	0.024
-205.406	-200.000	0.022	-0.210
-204.392	-151.762	-0.136	-0.010
-203.377	-69.864	0.140	0.052
-202.363	800.000	0.063	0.260
-201.348	-99.481	-0.241	0.059
-200.333	187.545	-0.277	0.406
-199.319	210.774	-0.215	0.332
-198.304	-170.820	-0.206	0.007
-197.290	142.367	-0.090	0.118
-196.275	-69.016	0.084	0.032
-195.260	90.410	0.161	0.177
-194.246	-77.326	0.160	0.055
-193.231	275.881	0.100	-0.174
-192.217	-11.679	-0.203	0.131
-191.202	800.000	0.065	0.221
-190.187	-200.000	-0.023	0.343
-189.173	14.520	0.349	0.268
-188.158	39.854	-0.261	0.230
-187.144	437.276	0.130	-0.278
-186.129	-200.000	0.035	0.334
-185.114	800.000	-0.043	0.128
-184.100	-166.317	0.220	-0.009
-183.085	275.946	-0.198	0.345
-182.071	-162.538	-0.067	0.003
-181.056	-25.020	0.124	0.072
-180.042	-29.337	0.304	-0.171
-179.027	65.750	-0.042	0.041
-178.012	-2.306	-0.102	0.070
-176.998	-100.833	-0.026	-0.006
-175.983	73.443	-0.233	0.239
-174.969	-113.951	0.141	0.027
-173.954	-176.125	0.326	0.008
-172.939	-47.660	0.320	-0.152
-171.925	232.864	0.111	-0.178
-170.910	-17.767	0.180	-0.111
-169.896	-89.658	-0.153	0.044
-168.881	-152.743	0.239	0.017
-167.866	22.119	-0.152	-0.122
-166.852	-147.687	-0.118	0.010
-165.837	-45.908	0.218	-0.105
-164.823	383.254	-0.076	-0.153
-163.808	-200.000	-0.063	0.300
-162.793	4.054	0.089	-0.064
-161.779	-200.000	0.041	0.252
-160.764	-108.621	0.343	0.072
-159.750	11.006	0.134	0.101
-158.735	-200.000	-0.037	0.329
-157.720	800.000	-0.075	0.319
-156.706	-152.785	0.098	-0.007
-155.691	-200.000	-0.011	0.175
-154.677	-109.089	0.176	0.037
-153.662	404.455	0.089	-0.185
-152.647	-200.000	0.006	0.268
-151.633	223.714	0.142	0.225
-150.618	-200.000	-0.005	-0.229
-149.604	-181.184	0.166	0.003
-148.589	-200.000	0.001	0.452
-147.574	189.421	0.081	-0.119
-146.560	800.000	-0.085	-0.239
-145.545	-80.556	0.117	0.038
-144.531	-63.366	0.177	0.071
-143.516	-64.594	0.152	0.061
-142.502	-200.000	-0.064	0.406
-141.487	-200.000	0.001	-0.134
-140.472	-29.490	0.380	-0.213
-139.458	50.254	0.206	-0.190
-138.443	130.461	0.199	0.250
-137.429	-43.280	0.223	-0.111
-136.414	141.021	0.237	0.307
-135.399	-200.000	-0.010	-0.140
-134.385	296.445	-0.134	0.241
-133.370	-200.000	-0.094	0.414
-132.356	6.697	-0.288	-0.210
-131.341	-200.000	-0.009	0.078
-130.326	11.794	0.263	-0.198
-129.312	281.890	0.092	0.161
-128.297	-124.475	-0.034	-0.005
-127.283	800.000	0.024	0.094
-126.268	-92.043	0.208	-0.058
-125.253	51.499	-0.221	0.206
-124.239	281.826	0.111	0.194
-123.224	186.164	-0.141	-0.205
-122.210	626.669	0.044	-0.109
-121.195	71.972	-0.227	0.231
-120.180	177.248	-0.104	0.148
-119.166	34.924	0.352	0.302
-118.151	178.077	0.218	-0.311
-117.137	-25.012	-0.299	0.173
-116.122	133.098	0.079	0.100
-115.107	-105.976	-0.035	-0.008
-114.093	-57.142	0.369	0.159
-113.078	-22.519	-0.201	-0.119
-112.064	-103.899	-0.313	-0.072
-111.049	-200.000	-0.017	-0.105
-110.034	274.217	-0.155	0.269
-109.020	123.376	-0.183	0.225
-108.005	800.000	-0.004	0.016
-106.991	96.585	0.061	0.068
-105.976	221.981	0.154	-0.243
-104.962	-200.000	0.012	0.227
-103.947	-199.442	-0.182	0.001
-102.932	76.912	0.072	-0.075
-101.918	-82.402	-0.143	-0.046
-100.903	-200.000	0.010	0.061
-99.889	-127.557	-0.313	-0.044
-98.874	-200.000	0.022	0.167
-97.859	800.000	-0.076	0.274
-96.845	175.901	0.059	-0.084
-95.830	341.076	-0.143	0.274
-94.816	333.272	-0.063	-0.120
-93.801	120.495	0.092	0.112
-92.786	67.330	-0.140	-0.140
-91.772	-44.947	-0.077	-0.037
-90.757	-200.000	0.025	0.231
-89.743	-200.000	0.027	-0.433
-88.728	-163.621	0.377	-0.017
-87.713	351.261	0.184	-0.356
-86.699	125.194	0.091	0.112
-85.684	96.516	0.171	-0.191
-84.670	-95.953	-0.238	-0.062
-83.655	140.927	-0.277	-0.358
-82.640	-160.626	-0.098	-0.005
-81.626	-161.210	-0.325	0.017
-80.611	63.153	0.041	0.041
-79.597	-200.000	-0.012	0.055
-78.582	432.958	-0.064	-0.137
-77.567	112.931	-0.068	-0.080
-76.553	-49.164	-0.061	0.028
-75.538	800.000	0.101	-0.335
-74.524	-70.557	0.154	-0.057
-73.509	-11.319	-0.279	0.180
-72.494	521.717	0.124	-0.284
-71.480	-23.400	0.336	-0.197
-70.465	-6.867	0.150	0.099
-69.451	109.712	0.161	0.189
-68.436	-125.037	-0.157	0.024
-67.422	223.533	0.237	-0.374
-66.407	477.932	0.091	0.200
-65.392	-34.428	-0.052	0.028
-64.378	38.247	0.151	-0.131
-63.363	800.000	-0.134	0.457
-62.349	0.377	-0.097	0.068
-61.334	136.178	-0.922	-1.174
-60.319	227.736	0.543	0.863
-59.305	800.000	-0.359	-1.401
-58.290	800.000	0.588	1.606
-57.276	800.000	0.586	1.718
-56.261	-200.000	124.457	645.001
-55.246	402.870	1572.916	3229.993
-54.232	141.555	2733.917	3535.002
-53.217	94.807	2167.033	2406.754
-52.203	34.823	1597.308	1364.160
-51.188	26.364	1340.596	1093.939
-50.173	23.926	1302.933	1048.805
-49.159	51.960	1372.060	1275.506
-48.144	49.040	1383.848	1268.742
-47.130	26.746	1331.685	1088.794
-46.115	23.422	1312.301	1053.185
-45.100	23.139	1307.459	1047.583
-44.086	23.100	1304.574	1044.997
-43.071	23.134	1302.612	1043.590
-42.057	23.194	1300.045	1041.840
-41.042	23.157	1298.965	1040.716
-40.027	23.120	1297.211	1039.056
-39.013	23.189	1295.115	1037.742
-37.998	23.211	1293.398	1036.454
-36.984	23.178	1292.178	1035.241
-35.969	23.224	1290.341	1033.996
-34.954	23.285	1288.419	1032.772
-33.940	23.339	1286.847	1031.781
-32.925	23.290	1285.714	1030.550
-31.911	23.311	1284.615	1029.746
-30.896	23.279	1283.369	1028.521
-29.881	23.299	1282.030	1027.527
-28.867	23.406	1280.297	1026.714
-27.852	23.416	1279.409	1026.020
-26.838	23.457	1277.543	1024.723
-25.823	23.396	1276.762	1023.701
-24.809	23.346	1275.513	1022.372
-23.794	23.352	1273.949	1021.110
-22.779	23.282	1272.621	1019.603
-21.765	23.338	1271.080	1018.653
-20.750	23.325	1269.673	1017.408
-19.736	23.302	1268.508	1016.299
-18.721	23.281	1267.386	1015.244
-17.706	23.176	1266.815	1014.140
-16.692	23.209	1265.632	1013.345
-15.677	23.220	1263.654	1011.785
-14.663	23.240	1262.747	1011.132
-13.648	23.107	1261.972	1009.712
-12.633	23.247	1260.711	1009.461
-11.619	23.198	1260.408	1008.901
-10.604	23.173	1259.612	1008.081
-9.590	23.320	1258.362	1007.878
-8.575	23.216	1257.039	1006.185
-7.560	23.172	1256.468	1005.439
-6.546	23.163	1256.207	1005.138
-5.531	23.305	1254.742	1004.728
-4.517	23.221	1253.702	1003.385
-3.502	23.265	1253.385	1003.338
-2.487	23.235	1252.074	1002.078
-1.473	23.149	1247.727	998.073
-0.458	21.579	1233.011	977.506
0.556	16.629	1217.441	941.143
1.571	13.058	1225.615	927.353
2.586	12.452	1241.105	935.539
3.600	12.599	1228.777	926.998
4.615	9.284	1156.549	854.827
5.629	3.153	1086.135	772.018
6.644	0.376	1069.111	746.124
7.659	0.216	1067.454	744.108
8.673	0.044	1066.757	742.709
9.688	0.135	1064.899	741.796
10.702	0.293	1062.823	741.066
11.717	3.970	1067.431	762.345
12.731	10.793	1076.195	802.327
13.746	15.487	1082.406	830.149
14.761	16.686	1083.417	836.780
15.775	15.981	1081.770	831.954
16.790	14.983	1079.866	825.496
17.804	14.407	1078.027	821.177
18.819	14.048	1076.665	818.300
19.834	13.783	1076.215	816.583
20.848	13.587	1075.054	814.667
21.863	13.345	1074.292	812.829
22.877	13.235	1073.580	811.677
23.892	13.204	1072.826	810.885
24.907	13.161	1071.668	809.725
25.921	13.248	1071.410	809.883
26.936	13.227	1070.772	809.227
27.950	13.173	1070.016	808.320
28.965	13.280	1068.427	807.570
29.980	13.381	1066.890	806.830
30.994	13.392	1065.775	805.969
32.009	13.403	1065.321	805.607
33.023	13.336	1064.046	804.247
34.038	13.438	1062.866	803.781
35.053	13.383	1062.064	802.835
36.067	13.246	1061.148	801.406
37.082	13.410	1060.328	801.514
38.096	13.216	1059.900	800.176
39.111	13.330	1058.815	799.838
40.126	13.314	1057.560	798.745
41.140	13.183	1056.429	797.185
42.155	13.250	1055.016	796.370
43.169	13.089	1054.438	795.091
44.184	13.256	1053.199	794.888
45.199	13.128	1052.428	793.625
46.213	13.167	1051.036	792.687
47.228	13.195	1050.154	792.088
48.242	13.200	1049.339	791.426
49.257	13.122	1048.293	790.198
50.271	13.234	1047.469	790.040
51.286	13.337	1046.323	789.598
52.301	13.360	1045.461	788.989
53.315	13.128	1044.612	787.170
54.330	13.353	1043.258	787.150
55.344	13.262	1042.321	785.941
56.359	13.167	1041.764	785.003
57.374	13.133	1041.002	784.198
58.388	13.163	1039.787	783.354
59.403	13.155	1039.371	782.931
60.417	13.292	1038.304	782.707
61.432	13.140	1037.359	781.207
62.447	12.915	1037.014	779.815
63.461	13.021	1036.108	779.567
64.476	12.976	1035.632	778.926
65.490	12.932	1034.374	777.705
66.505	13.028	1033.616	777.516
67.520	13.186	1032.972	777.707
68.534	13.032	1032.168	776.311
69.549	13.229	1031.362	776.560
70.563	13.054	1030.844	775.277
71.578	13.084	1029.842	774.600
72.593	13.034	1029.158	773.783
73.607	12.980	1028.760	773.158
74.622	13.019	1028.139	772.809
75.636	13.007	1027.261	772.021
76.651	13.080	1026.295	771.570
77.666	13.044	1025.923	771.054
78.680	13.108	1025.091	770.659
79.695	13.272	1024.025	770.553
80.709	13.143	1023.722	769.657
81.724	13.172	1023.240	769.361
82.739	13.191	1022.396	768.746
83.753	13.310	1021.448	768.519
84.768	13.262	1020.810	767.747
85.782	13.339	1019.656	767.171
86.797	13.331	1018.323	766.062
87.812	13.229	1018.502	765.655
88.826	13.370	1016.940	765.064
89.841	13.347	1015.852	764.074
90.855	13.393	1015.187	763.717
91.870	13.238	1015.123	762.890
92.884	13.451	1013.652	762.697
93.899	13.396	1012.889	761.799
94.914	13.378	1012.274	761.187
95.928	13.406	1011.177	760.425
96.943	13.362	1010.519	759.661
97.957	13.261	1009.893	758.657
98.972	13.394	1008.747	758.340
99.987	13.313	1007.812	757.198
101.001	13.367	1006.801	756.622
102.016	13.282	1006.199	755.715
103.030	13.362	1005.074	755.166
104.045	13.375	1004.666	754.853
105.060	13.312	1004.042	754.031
106.074	13.304	1003.084	753.205
107.089	13.290	1001.676	752.021
108.103	13.183	1001.060	751.006
109.118	13.234	1000.222	750.540
110.133	13.301	998.833	749.736
111.147	13.270	998.099	748.978
112.162	13.309	997.060	748.308
113.176	13.283	996.975	748.063
114.191	13.290	996.036	747.320
115.206	13.302	995.176	746.663
116.220	13.215	994.412	745.633
117.235	13.354	993.461	745.480
118.249	13.327	992.760	744.768
119.264	13.295	991.826	743.857
120.279	13.414	990.729	743.503
121.293	13.219	990.427	742.333
122.308	13.247	989.256	741.517
123.322	13.252	988.220	740.698
124.337	13.128	987.752	739.723
125.352	13.232	986.434	739.137
126.366	13.278	985.173	738.333
127.381	13.163	984.017	736.886
128.395	13.305	982.950	736.655
129.410	13.282	982.343	736.033
130.424	13.472	980.698	735.582
131.439	13.530	980.278	735.456
132.454	13.333	979.447	733.894
133.468	13.260	978.954	733.138
134.483	13.346	977.921	732.679
135.497	13.336	977.016	731.892
136.512	13.323	976.383	731.295
137.527	13.326	975.445	730.542
138.541	13.163	974.954	729.390
139.556	13.338	974.138	729.487
140.570	13.413	973.081	728.962
141.585	13.582	972.136	728.932
142.600	13.373	971.681	727.609
143.614	13.490	971.067	727.600
144.629	13.460	970.331	726.849
145.643	13.509	968.825	725.872
146.658	13.423	968.215	724.973
147.673	13.419	967.281	724.194
148.687	13.434	966.337	723.487
149.702	13.445	965.183	722.610
150.716	13.437	964.921	722.315
151.731	13.436	963.891	721.474
152.746	13.528	963.164	721.269
153.760	13.412	962.779	720.411
154.775	13.527	962.239	720.442
155.789	13.584	961.805	720.300
156.804	13.465	961.390	719.409
157.819	13.700	960.051	719.364
158.833	13.692	959.740	719.033
159.848	13.570	959.048	717.920
160.862	13.664	957.718	717.269
161.877	13.740	956.133	716.346
162.892	13.463	956.163	715.111
163.906	13.596	954.830	714.621
164.921	13.655	954.244	714.374
165.935	13.643	952.864	713.226
166.950	13.708	951.970	712.774
167.964	13.546	951.480	711.649
168.979	13.517	950.684	710.868
169.994	13.679	949.390	710.530
171.008	13.821	948.794	710.628
172.023	13.693	948.582	709.861
173.037	13.774	947.734	709.508
174.052	13.717	946.990	708.645
175.067	13.696	946.325	707.996
176.081	13.639	946.333	707.696
177.096	13.781	944.978	707.225
178.110	13.783	944.040	706.468
179.125	13.752	944.186	706.382
180.140	13.717	943.853	705.921
181.154	13.761	942.829	705.280
182.169	13.806	942.448	705.125
183.183	13.896	941.861	705.006
184.198	13.937	940.759	704.294
185.213	13.874	939.859	703.291
186.227	14.016	939.165	703.311
187.242	13.938	938.602	702.496
188.256	14.017	938.298	702.541
189.271	13.973	937.527	701.712
190.286	13.849	936.727	700.531
191.300	13.726	935.942	699.361
192.315	13.795	935.364	699.157
193.329	13.741	935.036	698.624
194.344	13.782	934.347	698.219
195.359	13.884	933.545	697.989
196.373	13.957	933.151	697.937
197.388	14.111	932.307	697.891
198.402	14.160	931.404	697.359
199.417	14.141	931.105	696.995
200.432	14.169	930.359	696.494
201.446	14.228	930.047	696.444
202.461	14.212	929.595	695.975
203.475	14.236	928.984	695.559
204.490	14.110	928.321	694.474
205.504	14.137	927.665	694.032
206.519	14.220	926.778	693.656
207.534	14.052	926.151	692.426
208.548	14.163	925.392	692.257
209.563	14.086	924.582	691.272
210.577	14.239	923.970	691.387
211.592	14.187	923.485	690.746
212.607	14.426	922.578	691.000
213.621	14.357	921.730	690.018
214.636	14.182	921.330	688.934
215.650	14.440	920.096	689.016
216.665	14.368	919.255	688.028
217.680	14.376	918.773	687.638
218.694	14.405	918.076	687.177
219.709	14.314	917.935	686.632
220.723	14.417	916.743	686.103
221.738	14.469	916.096	685.774
222.753	14.455	915.627	685.306
223.767	14.500	915.355	685.226
224.782	14.581	914.338	684.738
225.796	14.557	914.096	684.397
226.811	14.449	913.511	683.456
227.826	14.459	912.744	682.861
228.840	14.445	911.801	682.036
229.855	14.550	910.439	681.387
230.869	14.475	910.146	680.801
231.884	14.493	909.354	680.222
232.899	14.425	908.689	679.388
233.913	14.446	908.528	679.295
234.928	14.466	907.427	678.492
235.942	14.558	906.706	678.267
236.957	14.495	906.215	677.584
237.972	14.573	905.619	677.394
238.986	14.525	905.044	676.711
240.001	14.580	904.319	676.332
241.015	14.559	904.140	676.051
242.030	14.560	903.390	675.437
243.045	14.557	902.865	674.969
244.059	14.555	902.310	674.487
245.074	14.595	901.469	673.960
246.088	14.761	900.861	674.118
247.103	14.855	899.515	673.427
248.117	14.708	899.408	672.696
249.132	14.877	898.823	672.879
250.147	14.856	897.878	672.030
251.161	14.994	897.528	672.262
252.176	15.045	896.580	671.699
253.190	14.913	896.183	670.809
254.205	14.905	895.421	670.147
255.220	15.003	895.009	670.173
256.234	15.051	894.242	669.732
257.249	14.981	893.795	669.059
258.263	14.986	892.915	668.359
259.278	14.988	892.504	668.002
260.293	15.012	891.743	667.467
261.307	14.999	891.255	666.994
262.322	15.107	890.273	666.630
263.336	15.244	889.303	666.387
264.351	14.998	889.167	665.249
265.366	15.165	888.108	665.060
266.380	15.249	887.669	665.005
267.395	15.045	887.044	663.672
268.409	15.271	886.255	663.916
269.424	15.209	885.429	662.994
270.439	15.181	884.809	662.362
271.453	15.284	884.070	662.155
272.468	15.285	883.634	661.775
273.482	15.121	883.694	661.113
274.497	15.285	882.378	660.716
275.512	15.313	881.706	660.266
276.526	15.285	881.763	660.138
277.541	15.226	881.235	659.454
278.555	15.421	880.300	659.464
279.570	15.426	879.570	658.877
280.585	15.484	878.781	658.455
281.599	15.402	878.134	657.590
282.614	15.413	877.680	657.233
283.628	15.375	876.952	656.481
284.643	15.342	876.321	655.824
285.657	15.448	875.798	655.787
286.672	15.602	874.559	655.401
287.687	15.529	874.107	654.723
288.701	15.504	873.697	654.258
289.716	15.606	872.806	653.930
290.730	15.459	872.798	653.295
291.745	15.498	872.090	652.858
292.760	15.674	871.257	652.862
293.774	15.580	870.789	652.089
294.789	15.601	869.879	651.432
295.803	15.639	869.076	650.917
296.818	15.667	868.948	650.872
297.833	15.554	868.114	649.753
298.847	15.769	867.151	649.807
299.862	15.540	867.024	648.768
300.876	15.514	866.784	648.431
301.891	15.760	865.747	648.549
302.906	15.820	865.175	648.291
303.920	15.877	864.722	648.114
304.935	15.734	864.332	647.216
305.949	15.756	863.387	646.537
306.964	15.808	863.180	646.521
307.979	15.853	862.422	646.071
308.993	15.917	861.458	645.536
310.008	16.021	861.047	645.569
311.022	15.935	861.028	645.169
312.037	15.713	860.384	643.780
313.052	15.912	859.279	643.656
314.066	15.808	859.028	643.014
315.081	15.746	858.177	642.084
316.095	15.793	857.820	641.939
317.110	15.971	857.091	642.016
318.125	15.988	856.494	641.577
319.139	15.901	856.454	641.156
320.154	15.854	855.820	640.449
321.168	15.957	855.298	640.391
322.183	15.808	855.112	639.630
323.197	15.941	854.335	639.495
324.212	15.918	853.919	639.041
325.227	16.057	852.562	638.496
326.241	15.962	852.412	637.969
327.256	15.981	852.000	637.674
328.270	15.990	851.491	637.271
329.285	16.045	850.623	636.775
330.300	16.011	850.345	636.379
331.314	16.147	849.304	636.057
332.329	16.069	849.172	635.608
333.343	16.360	848.528	636.166
334.358	16.205	848.083	635.191
335.373	16.064	848.208	634.699
336.387	16.070	847.852	634.400
337.402	16.222	847.299	634.500
338.416	16.233	847.068	634.314
339.431	16.411	846.203	634.278
340.446	16.309	845.957	633.653
341.460	16.260	845.534	633.098
342.475	16.221	845.163	632.618
343.489	16.317	844.714	632.583
344.504	16.456	844.112	632.599
345.519	16.421	843.626	632.050
346.533	16.419	843.460	631.860
347.548	16.418	842.884	631.367
348.562	16.299	842.571	630.636
349.577	16.444	841.714	630.479
350.592	16.401	840.983	629.714
351.606	16.411	839.943	628.916
352.621	16.348	839.687	628.436
353.635	16.395	838.961	628.010
354.650	16.387	838.233	627.382
355.665	16.479	837.279	626.953
356.679	16.540	837.065	626.963
357.694	16.578	836.231	626.423
358.708	16.496	835.787	625.731
359.723	16.486	835.445	625.384
360.738	16.590	834.174	624.762
361.752	16.632	833.906	624.660
362.767	16.547	833.542	624.017
363.781	16.786	832.877	624.347
364.796	16.719	832.637	623.866
365.810	16.649	832.324	623.319
366.825	16.716	831.892	623.183
367.840	16.719	831.256	622.666
368.854	16.788	831.036	622.699
369.869	16.750	830.411	622.036
370.883	16.794	829.853	621.725
371.898	16.912	829.582	621.900
372.913	16.882	829.491	621.665
373.927	16.878	828.712	621.010
374.942	16.879	828.210	620.584
375.956	16.790	827.705	619.825
376.971	17.044	827.165	620.294
377.986	17.038	826.897	620.017
379.000	17.024	826.165	619.363
380.015	17.034	825.781	619.057
381.029	17.002	825.134	618.400
382.044	17.033	824.306	617.836
383.059	17.098	823.483	617.400
384.073	17.036	823.759	617.327
385.088	16.990	823.429	616.858
386.102	16.920	822.698	616.004
387.117	16.953	822.106	615.624
388.132	16.886	821.709	615.030
389.146	17.013	820.815	614.765
390.161	17.120	820.056	614.532
391.175	17.263	819.769	614.779
392.190	17.113	819.454	613.944
393.205	17.026	819.143	613.345
394.219	17.031	818.901	613.127
395.234	16.957	818.583	612.565
396.248	17.045	817.853	612.284
397.263	17.085	817.161	611.856
398.278	17.094	816.808	611.572
399.292	17.151	816.660	611.609
400.307	17.091	816.423	611.161
401.321	17.180	815.737	610.915
402.336	17.190	815.035	610.370
403.350	17.094	814.734	609.748
404.365	17.225	814.565	610.036
405.380	17.313	813.423	609.442
406.394	17.188	813.313	608.858
407.409	17.379	812.959	609.223
408.423	17.338	812.721	608.845
409.438	17.403	812.412	608.792
410.453	17.464	811.639	608.376
411.467	17.535	810.817	607.961
412.482	17.259	810.901	606.983
413.496	17.456	810.382	607.245
414.511	17.540	809.944	607.162
415.526	17.628	809.780	607.300
416.540	17.432	808.932	605.911
417.555	17.434	808.906	605.847
418.569	17.652	807.869	605.791
419.584	17.697	807.404	605.548
420.599	17.605	807.555	605.281
421.613	113.697	1299.405	1487.996
422.628	98.212	1371.005	1488.087
