DTS Sentinel unit serial number:	SN413079Multiplexer serial number:	ORYXHardware model number:	OX4-SRSoftware version number:	ORYX F/W v4.00 Oryx Data Collector v3.7.2.0data status	okinstallation	princeton_trtdifferential loss correction	single-endedforward channel	channel 1reverse channel	N/Adate	2019/09/14time	03:58:35forward acquisition time	60.00reverse acquisition time	0.00gamma	496.2192k internal	0.2335k external	0.2335temperature offset calibration	1.0076default loss term (dB/km)	0.3790temperature slope calibration	1.0000multiplexer offset coefficient	1.0000multiplexer slope coefficient	1.0000fibre end	0.00T internal ref (°C)	26.67T ext. ref 1 (°C)	3.31T ext. ref 2 (°C)	21.77length (m)	temperature (°C)	Stokes	anti-Stokes-747.200	269.358	0.100	0.176
-746.185	28.549	-0.031	-0.027
-745.171	-200.000	0.025	0.228
-744.156	-200.000	-0.027	0.258
-743.142	7.260	-0.161	0.121
-742.127	-200.000	0.037	-0.239
-741.112	-200.000	-0.015	-0.248
-740.098	-71.017	-0.401	0.152
-739.083	42.730	-0.128	0.118
-738.069	-200.000	0.019	0.230
-737.054	-10.756	-0.248	0.165
-736.039	-100.307	-0.299	-0.074
-735.025	-66.936	0.401	0.159
-734.010	-121.669	-0.398	0.066
-732.996	292.022	-0.193	-0.352
-731.981	-48.952	0.131	-0.063
-730.966	366.696	0.130	0.263
-729.952	55.312	-0.164	0.159
-728.937	0.330	-0.298	-0.214
-727.923	22.156	0.273	-0.223
-726.908	70.651	-0.168	-0.174
-725.894	-74.860	-0.445	0.160
-724.879	-151.827	-0.358	0.026
-723.864	-117.419	-0.413	0.075
-722.850	-200.000	0.015	-0.135
-721.835	-115.047	-0.159	0.030
-720.821	759.362	0.034	0.093
-719.806	-23.271	-0.176	0.106
-718.791	-91.515	-0.076	0.022
-717.777	-69.835	0.150	-0.057
-716.762	-36.066	-0.279	-0.151
-715.748	-89.773	-0.296	-0.087
-714.733	276.283	0.096	0.172
-713.718	108.673	-0.306	0.367
-712.704	322.293	-0.014	-0.027
-711.689	-200.000	0.009	0.153
-710.675	-28.999	-0.160	-0.092
-709.660	-67.271	-0.088	-0.035
-708.645	374.606	-0.080	0.163
-707.631	104.450	-0.111	-0.131
-706.616	-129.194	0.131	0.018
-705.602	48.810	-0.153	-0.144
-704.587	224.428	0.064	-0.103
-703.572	37.633	0.372	0.331
-702.558	-132.999	-0.032	0.004
-701.543	-122.821	0.136	0.022
-700.529	-75.359	-0.356	0.127
-699.514	-2.830	-0.258	-0.181
-698.499	294.136	-0.156	0.285
-697.485	-70.688	0.341	-0.129
-696.470	-105.140	-0.053	0.012
-695.456	800.000	-0.034	0.118
-694.441	-200.000	0.058	-0.277
-693.426	-200.000	-0.032	-0.174
-692.412	12.360	0.125	-0.097
-691.397	-27.759	-0.118	-0.069
-690.383	651.241	-0.141	0.361
-689.368	136.292	-0.143	-0.187
-688.354	-68.264	0.033	-0.013
-687.339	28.571	0.037	0.032
-686.324	513.158	0.022	0.051
-685.310	-52.070	-0.267	0.124
-684.295	78.726	0.100	0.107
-683.281	-151.798	-0.346	0.025
-682.266	-119.846	0.130	0.022
-681.251	800.000	0.096	0.357
-680.237	152.834	-0.202	-0.276
-679.222	-121.312	0.225	-0.038
-678.208	-10.918	0.097	-0.064
-677.193	-69.057	0.231	0.089
-676.178	41.262	0.046	-0.042
-675.164	3.998	0.092	0.068
-674.149	-114.693	0.263	-0.050
-673.135	112.050	-0.126	-0.152
-672.120	-51.156	-0.154	0.073
-671.105	800.000	0.054	-0.167
-670.091	240.994	0.050	0.084
-669.076	-137.769	-0.146	-0.016
-668.062	484.333	0.145	0.331
-667.047	-200.000	0.028	-0.262
-666.032	-200.000	-0.015	-0.100
-665.018	-69.765	0.149	-0.057
-664.003	25.843	0.120	0.100
-662.989	-181.373	0.389	-0.008
-661.974	-97.800	-0.175	0.045
-660.959	-120.856	0.336	-0.057
-659.945	370.694	0.019	-0.039
-658.930	-77.039	0.354	0.124
-657.916	227.342	-0.121	-0.196
-656.901	-200.000	0.037	-0.317
-655.886	55.895	-0.068	-0.066
-654.872	-200.000	0.036	0.245
-653.857	-116.769	0.415	0.076
-652.843	136.079	0.100	0.131
-651.828	800.000	-0.078	0.256
-650.814	-20.875	0.499	-0.306
-649.799	99.696	-0.101	-0.117
-648.784	-130.516	0.172	-0.023
-647.770	-64.125	-0.105	0.043
-646.755	-111.023	-0.092	0.019
-645.741	-5.860	-0.165	-0.113
-644.726	24.525	-0.005	-0.004
-643.711	19.518	-0.166	-0.133
-642.697	393.608	-0.120	-0.250
-641.682	84.491	-0.123	0.134
-640.668	-70.804	0.157	-0.059
-639.653	-71.381	-0.446	0.167
-638.638	156.432	0.165	-0.227
-637.624	-1.792	0.300	0.212
-636.609	-122.068	-0.049	-0.008
-635.595	-123.211	-0.272	-0.043
-634.580	229.349	0.165	-0.270
-633.565	1.726	-0.072	0.052
-632.551	696.110	-0.124	-0.325
-631.536	124.234	-0.118	-0.148
-630.522	-107.881	0.095	-0.021
-629.507	-1.885	-0.145	0.102
-628.492	29.625	-0.189	-0.161
-627.478	-26.301	0.241	-0.142
-626.463	-9.341	0.215	-0.144
-625.449	221.777	0.155	-0.249
-624.434	-60.160	0.087	-0.037
-623.419	-43.751	-0.253	-0.128
-622.405	-109.830	0.424	-0.089
-621.390	800.000	0.137	-0.472
-620.376	800.000	0.038	0.166
-619.361	-64.722	-0.108	-0.044
-618.346	621.166	-0.089	-0.224
-617.332	-200.000	-0.001	0.191
-616.317	-38.911	-0.196	-0.103
-615.303	675.474	0.105	0.272
-614.288	113.582	-0.088	-0.107
-613.273	3.450	-0.326	-0.237
-612.259	-47.297	-0.174	0.085
-611.244	21.654	0.124	-0.101
-610.230	-83.022	-0.223	0.072
-609.215	14.402	-0.165	-0.129
-608.201	6.139	-0.265	0.196
-607.186	39.641	0.098	0.088
-606.171	780.513	0.133	0.364
-605.157	103.093	-0.068	0.080
-604.142	-66.371	-0.291	0.116
-603.128	-88.506	-0.134	-0.040
-602.113	312.363	0.068	0.128
-601.098	-80.777	0.135	0.045
-600.084	-200.000	-0.004	0.043
-599.069	-116.738	0.349	-0.064
-598.055	65.514	-0.151	-0.153
-597.040	-91.668	-0.309	-0.088
-596.025	-200.000	0.017	0.154
-595.011	-64.885	-0.176	0.071
-593.996	80.721	0.091	-0.098
-592.982	42.666	-0.318	-0.289
-591.967	-77.878	0.148	-0.051
-590.952	-134.418	0.183	-0.022
-589.938	345.105	-0.102	-0.200
-588.923	61.398	0.154	0.153
-587.909	-51.927	0.185	0.086
-586.894	-200.000	0.059	-0.273
-585.879	800.000	0.017	-0.055
-584.865	-65.406	-0.186	-0.075
-583.850	800.000	-0.057	0.163
-582.836	-72.894	0.207	-0.076
-581.821	412.862	-0.123	0.261
-580.806	-94.136	-0.047	-0.013
-579.792	246.742	-0.127	0.214
-578.777	-200.000	-0.004	0.059
-577.763	-200.000	0.014	0.200
-576.748	-67.262	0.075	0.029
-575.733	12.757	0.212	-0.163
-574.719	-153.476	-0.240	-0.017
-573.704	-58.313	0.245	0.107
-572.690	-200.000	0.051	-0.248
-571.675	-200.000	0.045	-0.449
-570.661	71.985	-0.147	-0.152
-569.646	-19.150	0.302	0.187
-568.631	-200.000	0.030	0.208
-567.617	32.321	0.192	0.165
-566.602	-200.000	-0.009	-0.116
-565.588	-148.919	-0.226	-0.018
-564.573	800.000	-0.093	0.358
-563.558	-77.719	-0.133	-0.046
-562.544	-23.064	-0.039	0.024
-561.529	732.068	0.060	-0.159
-560.515	-62.576	0.428	0.177
-559.500	-200.000	-0.002	0.171
-558.485	192.082	-0.080	-0.121
-557.471	-125.301	-0.299	-0.046
-556.456	12.145	0.320	-0.246
-555.442	-75.312	0.241	-0.086
-554.427	178.128	0.045	-0.065
-553.412	-91.991	-0.148	0.042
-552.398	55.291	0.146	-0.141
-551.383	-98.740	-0.052	0.013
-550.369	-132.398	0.239	0.031
-549.354	571.653	-0.093	0.226
-548.339	-33.892	-0.283	-0.155
-547.325	-38.071	-0.288	0.152
-546.310	-78.304	-0.282	-0.096
-545.296	-18.331	0.150	0.093
-544.281	-43.583	-0.243	-0.122
-543.266	800.000	0.016	-0.054
-542.252	-200.000	0.001	0.206
-541.237	154.267	-0.174	0.238
-540.223	558.428	-0.136	0.328
-539.208	-52.613	-0.101	0.047
-538.193	132.291	-0.205	-0.263
-537.179	-200.000	-0.001	-0.165
-536.164	12.160	0.047	0.036
-535.150	523.980	-0.055	0.129
-534.135	-200.000	0.009	-0.194
-533.121	-200.000	0.002	-0.120
-532.106	6.839	-0.182	0.135
-531.091	-122.901	0.107	-0.017
-530.077	-74.161	-0.211	0.076
-529.062	351.266	0.057	-0.112
-528.048	-9.773	0.155	-0.103
-527.033	-5.843	-0.038	0.026
-526.018	-185.360	-0.230	-0.004
-525.004	363.298	-0.269	-0.539
-523.989	329.223	0.093	0.179
-522.975	-39.980	-0.059	0.031
-521.960	-85.779	-0.230	-0.071
-520.945	123.637	-0.095	0.118
-519.931	-200.000	0.037	0.195
-518.916	-89.231	-0.077	-0.023
-517.902	-200.000	-0.011	0.119
-516.887	401.603	-0.078	-0.164
-515.872	-185.655	-0.363	-0.005
-514.858	15.364	0.301	0.235
-513.843	280.269	-0.054	0.096
-512.829	-145.773	-0.261	-0.023
-511.814	16.498	-0.181	0.142
-510.799	-8.426	-0.288	0.193
-509.785	20.961	-0.204	0.164
-508.770	52.627	-0.063	-0.059
-507.756	-200.000	0.028	0.244
-506.741	199.791	0.070	0.107
-505.726	-88.880	-0.067	-0.020
-504.712	1.983	0.208	0.150
-503.697	-136.814	0.071	-0.008
-502.683	153.325	-0.158	-0.215
-501.668	-200.000	0.008	0.316
-500.653	-11.017	0.206	-0.136
-499.639	-59.417	0.095	0.041
-498.624	-100.203	0.190	-0.047
-497.610	-47.418	-0.173	-0.084
-496.595	-16.791	-0.134	-0.085
-495.581	800.000	-0.022	0.081
-494.566	65.185	-0.165	0.166
-493.551	800.000	-0.033	0.101
-492.537	-61.463	-0.399	-0.167
-491.522	-11.366	0.258	0.169
-490.508	130.951	-0.120	0.153
-489.493	-200.000	-0.008	-0.391
-488.478	21.047	-0.106	0.085
-487.464	-93.520	0.312	-0.086
-486.449	-122.051	-0.137	0.022
-485.435	-200.000	0.020	-0.444
-484.420	-51.938	-0.236	0.109
-483.405	158.739	0.186	-0.256
-482.391	800.000	-0.044	-0.152
-481.376	-28.950	0.131	-0.075
-480.362	800.000	0.034	0.110
-479.347	10.212	-0.176	0.133
-478.332	636.756	0.073	0.184
-477.318	-98.851	0.190	-0.048
-476.303	-73.657	0.120	0.043
-475.289	327.244	0.131	-0.250
-474.274	-4.814	0.212	0.145
-473.259	-200.000	0.064	0.310
-472.245	-200.000	-0.019	0.214
-471.230	-118.588	0.155	-0.027
-470.216	-86.275	0.377	-0.115
-469.201	-200.000	0.072	-0.344
-468.186	259.863	0.017	0.029
-467.172	-18.121	0.359	-0.223
-466.157	-136.708	-0.255	-0.029
-465.143	-200.000	0.008	0.114
-464.128	29.576	-0.184	0.156
-463.113	-28.153	0.139	-0.080
-462.099	-200.000	-0.006	-0.171
-461.084	-94.406	0.329	-0.089
-460.070	-118.730	-0.460	-0.081
-459.055	-55.733	-0.574	-0.255
-458.040	800.000	0.071	-0.216
-457.026	-73.851	-0.393	-0.142
-456.011	85.774	0.095	-0.104
-454.997	800.000	0.034	-0.113
-453.982	-49.433	-0.139	0.066
-452.968	78.199	-0.159	0.169
-451.953	-108.523	0.167	0.036
-450.938	-33.317	-0.044	-0.024
-449.924	-116.515	0.049	-0.009
-448.909	87.278	-0.049	0.054
-447.895	396.735	0.078	0.162
-446.880	-100.780	0.215	0.053
-445.865	-150.392	-0.275	-0.021
-444.851	-83.672	0.262	0.083
-443.836	296.447	-0.032	0.057
-442.822	-11.104	0.082	-0.054
-441.807	691.817	0.051	-0.133
-440.792	-200.000	0.054	0.296
-439.778	22.262	-0.021	-0.017
-438.763	-32.860	0.233	-0.128
-437.749	-6.712	0.312	0.211
-436.734	-63.411	-0.081	0.033
-435.719	303.187	-0.086	0.157
-434.705	246.103	0.093	-0.155
-433.690	-25.350	0.126	0.074
-432.676	46.650	-0.076	-0.070
-431.661	9.979	0.312	-0.235
-430.646	-22.313	-0.158	0.095
-429.632	-200.000	-0.031	0.259
-428.617	273.025	0.035	-0.062
-427.603	-67.476	0.326	0.127
-426.588	-66.038	-0.309	0.122
-425.573	577.366	0.118	-0.286
-424.559	120.766	-0.059	-0.073
-423.544	800.000	-0.071	0.194
-422.530	-73.846	0.274	-0.099
-421.515	77.023	0.160	-0.169
-420.500	7.289	-0.225	-0.166
-419.486	204.801	0.084	0.129
-418.471	-62.816	0.305	0.125
-417.457	800.000	0.065	0.192
-416.442	800.000	-0.056	0.203
-415.428	196.688	0.217	0.327
-414.413	-126.528	0.091	-0.013
-413.398	23.674	0.091	0.074
-412.384	-50.965	-0.222	-0.103
-411.369	26.942	0.156	-0.130
-410.355	800.000	-0.094	-0.342
-409.340	-64.050	-0.180	-0.073
-408.325	-100.818	0.531	-0.130
-407.311	-89.729	-0.184	-0.053
-406.296	124.489	0.261	0.325
-405.282	-3.005	-0.246	0.170
-404.267	-200.000	0.023	0.238
-403.252	-200.000	-0.021	-0.119
-402.238	213.030	-0.079	0.124
-401.223	15.654	-0.464	0.361
-400.209	-83.452	-0.359	-0.114
-399.194	-120.441	0.325	-0.055
-398.179	800.000	0.034	-0.111
-397.165	-71.591	0.112	0.042
-396.150	329.756	0.133	0.253
-395.136	5.129	0.107	-0.078
-394.121	-200.000	0.054	0.275
-393.106	-200.000	-0.004	-0.202
-392.092	800.000	-0.074	0.275
-391.077	-74.720	0.346	-0.123
-390.063	-200.000	-0.014	0.240
-389.048	31.759	-0.117	0.100
-388.033	-32.555	0.237	0.131
-387.019	-76.704	0.082	-0.029
-386.004	-86.349	0.100	-0.030
-384.990	-37.679	0.033	0.017
-383.975	288.159	-0.075	-0.134
-382.960	2.826	0.122	0.087
-381.946	103.224	-0.110	0.128
-380.931	800.000	-0.110	0.344
-379.917	20.319	0.246	0.196
-378.902	-200.000	0.063	0.294
-377.888	-60.606	0.303	-0.127
-376.873	-200.000	-0.008	0.049
-375.858	-200.000	-0.005	0.077
-374.844	-44.247	0.282	-0.140
-373.829	-72.105	-0.098	0.036
-372.815	-59.088	0.117	0.050
-371.800	56.994	-0.109	0.105
-370.785	-59.884	0.190	-0.080
-369.771	-88.174	0.316	0.094
-368.756	27.658	0.098	-0.082
-367.742	-28.724	0.065	0.037
-366.727	-200.000	-0.044	-0.283
-365.712	800.000	-0.056	-0.158
-364.698	-200.000	0.002	0.080
-363.683	327.005	-0.184	-0.348
-362.669	8.311	-0.150	0.112
-361.654	-200.000	-0.002	-0.026
-360.639	245.449	0.089	0.148
-359.625	462.659	0.037	0.082
-358.610	-48.272	0.185	0.088
-357.596	104.115	0.055	0.064
-356.581	739.577	0.110	-0.293
-355.566	-16.414	-0.124	-0.078
-354.552	-200.000	-0.024	0.126
-353.537	-106.048	0.360	0.080
-352.523	49.544	-0.123	-0.114
-351.508	257.115	0.088	-0.149
-350.493	-111.995	-0.333	0.066
-349.479	67.280	-0.070	0.071
-348.464	456.490	-0.035	-0.077
-347.450	-117.848	0.143	0.025
-346.435	-163.448	-0.030	-0.001
-345.420	-200.000	-0.007	-0.122
-344.406	451.459	-0.094	-0.206
-343.391	559.765	0.019	-0.045
-342.377	-200.000	0.015	0.106
-341.362	-200.000	0.012	0.093
-340.348	458.941	0.059	0.129
-339.333	-141.965	0.249	0.025
-338.318	50.351	0.200	-0.186
-337.304	7.189	0.130	0.096
-336.289	206.567	-0.079	-0.122
-335.275	39.582	-0.192	-0.170
-334.260	-120.229	-0.291	-0.049
-333.245	-138.016	-0.226	0.025
-332.231	4.060	0.114	-0.083
-331.216	172.810	0.092	0.131
-330.202	-27.796	0.286	0.164
-329.187	50.719	-0.075	-0.070
-328.172	64.289	-0.083	-0.083
-327.158	165.998	-0.160	0.224
-326.143	-80.124	-0.492	-0.163
-325.129	-132.424	-0.298	0.038
-324.114	-200.000	0.016	0.213
-323.099	-12.912	0.051	0.033
-322.085	527.810	0.140	-0.325
-321.070	40.527	-0.319	-0.284
-320.056	174.706	-0.245	0.350
-319.041	233.689	-0.127	0.206
-318.026	-38.402	0.170	0.089
-317.012	393.246	0.069	-0.142
-315.997	203.265	0.175	0.267
-314.983	-82.519	-0.212	-0.068
-313.968	410.114	0.029	0.060
-312.953	-78.838	-0.120	-0.041
-311.939	-62.374	0.280	-0.115
-310.924	-200.000	-0.034	0.157
-309.910	-200.000	0.008	-0.067
-308.895	59.843	-0.112	0.109
-307.880	296.871	-0.159	-0.287
-306.866	531.927	0.097	0.228
-305.851	-59.271	-0.285	-0.121
-304.837	57.265	0.121	0.117
-303.822	121.485	0.149	0.183
-302.807	250.269	-0.033	0.055
-301.793	-200.000	-0.011	0.051
-300.778	95.993	0.257	0.290
-299.764	198.721	0.058	0.087
-298.749	-132.825	0.074	-0.009
-297.735	49.010	0.147	0.136
-296.720	-108.417	0.348	-0.074
-295.705	-73.598	0.219	-0.079
-294.691	-200.000	-0.089	0.520
-293.676	-45.099	-0.367	-0.180
-292.662	-200.000	0.027	0.216
-291.647	-200.000	-0.069	0.353
-290.632	800.000	-0.018	-0.066
-289.618	-161.350	0.158	0.008
-288.603	-200.000	-0.026	-0.199
-287.589	-200.000	0.056	0.294
-286.574	68.968	-0.116	-0.117
-285.559	-107.592	-0.291	0.063
-284.545	-126.880	0.306	-0.045
-283.530	138.438	-0.206	0.267
-282.516	626.079	-0.034	0.084
-281.501	64.598	0.060	-0.059
-280.486	-13.650	0.087	0.055
-279.472	243.492	-0.078	-0.129
-278.457	114.223	-0.072	-0.087
-277.443	-2.273	0.198	-0.137
-276.428	189.894	-0.128	0.190
-275.413	-21.249	0.099	0.060
-274.399	-101.734	-0.271	-0.065
-273.384	800.000	0.046	-0.177
-272.370	800.000	0.086	-0.254
-271.355	-128.094	0.202	0.029
-270.340	-200.000	-0.019	-0.202
-269.326	-23.466	0.156	-0.092
-268.311	9.147	-0.228	0.170
-267.297	-108.635	-0.183	-0.039
-266.282	-19.332	0.308	0.188
-265.267	-81.201	-0.178	-0.058
-264.253	-27.927	-0.065	0.037
-263.238	607.977	0.069	-0.169
-262.224	-200.000	0.015	0.090
-261.209	8.929	-0.154	0.115
-260.195	-50.208	0.253	-0.118
-259.180	-200.000	-0.014	0.360
-258.165	91.537	0.218	0.242
-257.151	-147.554	0.094	-0.008
-256.136	189.672	-0.049	0.073
-255.122	-113.043	-0.175	-0.034
-254.107	-14.342	-0.135	0.086
-253.092	-82.640	0.056	-0.018
-252.078	221.115	-0.078	0.124
-251.063	415.929	-0.139	-0.293
-250.049	2.236	0.249	0.177
-249.034	-65.447	-0.083	0.033
-248.019	-141.212	-0.169	0.017
-247.005	273.629	0.158	-0.275
-245.990	595.152	-0.109	0.266
-244.976	-200.000	0.017	0.215
-243.961	134.057	0.183	-0.233
-242.946	-97.476	-0.389	0.100
-241.932	120.570	-0.124	0.151
-240.917	29.429	0.233	0.195
-239.903	-38.613	-0.145	0.075
-238.888	-200.000	-0.000	-0.276
-237.873	-64.712	0.248	0.099
-236.859	800.000	0.080	-0.251
-235.844	77.734	0.134	0.141
-234.830	97.651	0.097	0.109
-233.815	-33.759	-0.217	-0.118
-232.800	-164.873	-0.028	0.001
-231.786	166.514	0.105	-0.146
-230.771	-160.228	0.222	-0.012
-229.757	62.085	-0.141	-0.139
-228.742	800.000	0.111	-0.316
-227.727	-200.000	-0.012	0.084
-226.713	-200.000	-0.075	-0.419
-225.698	69.318	-0.188	0.191
-224.684	-112.111	0.216	-0.043
-223.669	-200.000	0.001	-0.127
-222.655	-108.646	-0.071	0.015
-221.640	-177.994	0.224	0.005
-220.625	-90.522	-0.248	-0.071
-219.611	-200.000	-0.004	0.063
-218.596	10.832	-0.172	0.130
-217.582	508.818	0.159	-0.363
-216.567	498.885	0.062	-0.141
-215.552	60.424	-0.130	0.127
-214.538	11.457	0.167	-0.126
-213.523	800.000	-0.059	-0.252
-212.509	-200.000	0.001	0.006
-211.494	-18.377	0.272	-0.167
-210.479	185.900	-0.102	-0.150
-209.465	8.430	0.252	0.187
-208.450	296.377	-0.126	0.228
-207.436	-123.143	-0.060	-0.009
-206.421	53.051	0.127	-0.120
-205.406	-123.589	0.163	0.025
-204.392	-192.224	0.025	-0.000
-203.377	-200.000	-0.002	0.060
-202.363	800.000	0.063	-0.267
-201.348	76.253	-0.157	-0.163
-200.333	800.000	0.048	-0.205
-199.319	-22.884	-0.130	-0.077
-198.304	58.990	0.204	0.198
-197.290	150.256	0.047	0.063
-196.275	-165.316	-0.215	0.009
-195.260	771.613	-0.054	-0.144
-194.246	376.010	0.052	0.105
-193.231	-145.658	0.334	-0.029
-192.217	800.000	-0.054	-0.162
-191.202	528.735	-0.039	0.091
-190.187	800.000	0.162	0.478
-189.173	-30.142	-0.217	-0.121
-188.158	-200.000	0.005	-0.061
-187.144	-86.110	0.324	0.098
-186.129	800.000	0.038	0.107
-185.114	-18.429	0.242	0.148
-184.100	626.048	-0.087	0.215
-183.085	6.762	-0.106	0.078
-182.071	112.033	-0.198	-0.236
-181.056	-200.000	0.028	-0.194
-180.042	112.804	0.154	-0.183
-179.027	77.134	-0.132	0.138
-178.012	493.390	-0.111	0.251
-176.998	-134.431	0.092	-0.011
-175.983	-125.141	0.173	0.026
-174.969	129.514	-0.011	-0.014
-173.954	-118.280	0.346	-0.060
-172.939	-200.000	-0.017	-0.208
-171.925	-200.000	0.058	0.000
-170.910	-200.000	-0.072	-0.456
-169.896	-172.964	-0.359	-0.011
-168.881	-200.000	-0.006	0.082
-167.866	201.601	-0.035	-0.054
-166.852	-139.523	0.082	-0.009
-165.837	-91.504	-0.307	-0.086
-164.823	-200.000	0.022	0.163
-163.808	-127.732	0.263	-0.037
-162.793	74.109	-0.052	-0.053
-161.779	101.090	-0.081	-0.092
-160.764	-46.778	0.215	0.103
-159.750	115.887	0.119	0.143
-158.735	90.561	0.165	0.181
-157.720	-200.000	0.023	-0.266
-156.706	66.126	-0.178	-0.177
-155.691	73.364	-0.051	-0.052
-154.677	37.143	-0.181	-0.157
-153.662	362.663	0.076	0.149
-152.647	-200.000	0.015	-0.187
-151.633	-131.514	-0.119	0.015
-150.618	-74.148	-0.093	-0.033
-149.604	686.338	0.077	-0.199
-148.589	800.000	0.011	0.036
-147.574	-200.000	0.007	0.178
-146.560	-74.382	-0.195	-0.069
-145.545	1.742	-0.281	-0.199
-144.531	513.769	0.024	0.055
-143.516	-170.963	-0.145	-0.005
-142.502	363.490	-0.205	0.404
-141.487	100.036	0.133	-0.151
-140.472	-42.856	0.154	0.077
-139.458	-55.899	0.296	0.130
-138.443	-125.807	0.421	0.062
-137.429	-186.544	-0.059	-0.001
-136.414	-200.000	0.005	0.108
-135.399	72.562	0.179	0.183
-134.385	-118.124	0.201	0.035
-133.370	-200.000	0.067	-0.551
-132.356	299.640	-0.072	-0.130
-131.341	90.785	-0.186	-0.205
-130.326	-110.911	-0.123	0.025
-129.312	-200.000	0.010	0.205
-128.297	-200.000	-0.014	0.095
-127.283	-200.000	-0.006	-0.326
-126.268	373.400	0.081	-0.161
-125.253	-200.000	-0.010	0.387
-124.239	-24.631	-0.130	0.076
-123.224	-85.023	-0.130	-0.040
-122.210	44.663	0.149	0.134
-121.195	318.773	-0.073	0.136
-120.180	-112.470	0.272	0.053
-119.166	-200.000	-0.035	0.164
-118.151	-87.379	0.159	0.047
-117.137	504.875	-0.080	0.181
-116.122	800.000	0.064	0.234
-115.107	800.000	-0.039	-0.144
-114.093	-200.000	0.067	0.292
-113.078	70.101	-0.144	-0.145
-112.064	46.253	0.266	0.242
-111.049	-49.802	0.256	0.119
-110.034	800.000	0.059	0.171
-109.020	-15.473	0.110	0.069
-108.005	-147.294	-0.140	0.012
-106.991	800.000	-0.150	0.409
-105.976	2.935	-0.239	0.170
-104.962	8.957	0.034	-0.025
-103.947	27.484	0.145	-0.120
-102.932	-91.056	-0.259	0.073
-101.918	0.482	-0.294	0.205
-100.903	-121.839	0.270	-0.044
-99.889	-131.769	0.319	0.041
-98.874	50.521	0.125	-0.116
-97.859	-77.502	-0.448	0.152
-96.845	-14.131	0.139	-0.088
-95.830	-59.069	0.166	0.070
-94.816	-87.149	0.173	-0.051
-93.801	287.529	0.150	-0.266
-92.786	-91.763	-0.152	-0.042
-91.772	-39.214	-0.255	0.131
-90.757	-67.651	0.282	0.108
-89.743	-84.515	-0.094	-0.029
-88.728	-200.000	0.002	0.183
-87.713	149.312	0.080	0.105
-86.699	6.443	0.356	-0.259
-85.684	336.582	0.108	-0.206
-84.670	-28.418	0.346	0.195
-83.655	-30.038	0.225	0.125
-82.640	306.320	-0.075	0.137
-81.626	15.433	-0.238	0.183
-80.611	-200.000	-0.030	0.280
-79.597	800.000	-0.079	0.232
-78.582	-94.447	0.246	0.066
-77.567	-97.641	0.328	-0.083
-76.553	-200.000	-0.004	-0.203
-75.538	-126.110	-0.102	0.015
-74.524	-86.855	-0.323	0.096
-73.509	476.037	0.072	0.160
-72.494	-30.305	0.192	-0.106
-71.480	-56.768	0.109	-0.047
-70.465	113.884	-0.177	-0.210
-69.451	170.518	0.109	-0.153
-68.436	-200.000	-0.017	-0.096
-67.422	-134.986	-0.114	-0.013
-66.407	-200.000	0.002	0.144
-65.392	-3.911	-0.206	0.140
-64.378	-200.000	0.042	0.213
-63.363	-92.038	-0.216	-0.060
-62.349	-108.701	0.333	0.070
-61.334	69.158	-1.211	-1.217
-60.319	176.771	0.260	0.370
-59.305	-200.000	-0.063	-1.205
-58.290	775.796	0.552	1.474
-57.276	692.491	0.586	1.501
-56.261	-200.000	116.345	651.213
-55.246	515.664	1538.897	3514.755
-54.232	175.546	2710.598	3842.750
-53.217	107.549	2159.530	2512.663
-52.203	38.558	1593.546	1389.409
-51.188	30.025	1335.813	1113.615
-50.173	27.154	1297.836	1065.119
-49.159	54.148	1355.537	1274.843
-48.144	52.225	1369.562	1276.493
-47.130	30.158	1323.843	1104.253
-46.115	26.688	1305.860	1068.784
-45.100	26.656	1300.327	1064.022
-44.086	26.515	1298.206	1061.417
-43.071	26.557	1295.486	1059.396
-42.057	26.511	1293.811	1057.720
-41.042	26.463	1292.142	1056.029
-40.027	26.521	1290.351	1054.866
-39.013	26.578	1288.635	1053.754
-37.998	26.489	1286.914	1051.785
-36.984	26.686	1284.938	1051.271
-35.969	26.657	1283.272	1049.698
-34.954	26.662	1281.503	1048.240
-33.940	26.677	1280.548	1047.501
-32.925	26.713	1279.000	1046.403
-31.911	26.682	1277.529	1044.979
-30.896	26.812	1275.974	1044.413
-29.881	26.779	1274.643	1043.096
-28.867	26.788	1273.410	1042.097
-27.852	26.814	1272.043	1041.087
-26.838	26.778	1270.560	1039.623
-25.823	26.701	1269.313	1038.120
-24.809	26.719	1268.072	1037.170
-23.794	26.842	1266.117	1036.231
-22.779	26.721	1265.207	1034.754
-21.765	26.761	1263.900	1033.868
-20.750	26.688	1262.802	1032.518
-19.736	26.564	1262.036	1031.143
-18.721	26.657	1260.160	1030.100
-17.706	26.695	1258.910	1029.248
-16.692	26.676	1258.291	1028.596
-15.677	26.605	1257.164	1027.233
-14.663	26.569	1255.533	1025.655
-13.648	26.584	1254.896	1025.178
-12.633	26.654	1253.454	1024.353
-11.619	26.675	1252.655	1023.780
-10.604	26.606	1252.250	1023.020
-9.590	26.539	1251.549	1022.024
-8.575	26.748	1250.102	1021.982
-7.560	26.591	1249.530	1020.588
-6.546	26.677	1248.736	1020.386
-5.531	26.679	1247.369	1019.241
-4.517	26.635	1246.655	1018.371
-3.502	26.627	1245.451	1017.297
-2.487	26.611	1244.881	1016.706
-1.473	26.602	1240.947	1013.402
-0.458	25.060	1226.195	992.780
0.556	22.143	1209.501	957.455
1.571	18.558	1216.099	942.918
2.586	17.725	1231.365	950.030
3.600	17.404	1219.482	939.007
4.615	13.056	1148.005	861.257
5.629	6.226	1077.159	774.501
6.644	3.389	1059.948	748.295
7.659	3.155	1057.313	745.238
8.673	3.381	1055.602	745.059
9.688	3.306	1054.549	743.886
10.702	3.457	1052.425	743.050
11.717	7.311	1057.719	765.359
12.731	14.611	1068.238	808.385
13.746	18.962	1073.310	833.280
14.761	19.574	1073.586	836.386
15.775	18.716	1071.906	830.852
16.790	17.622	1070.202	824.171
17.804	17.008	1068.705	819.976
18.819	16.866	1067.227	818.084
19.834	16.670	1066.479	816.495
20.848	16.454	1065.866	814.913
21.863	16.257	1064.802	813.079
22.877	16.088	1064.439	811.916
23.892	16.113	1063.478	811.231
24.907	16.154	1062.992	810.982
25.921	16.105	1061.732	809.717
26.936	16.110	1060.437	808.681
27.950	16.259	1058.859	808.119
28.965	16.118	1057.930	806.666
29.980	16.373	1055.887	806.251
30.994	16.407	1055.147	805.778
32.009	16.415	1054.231	805.044
33.023	16.284	1053.333	803.665
34.038	16.342	1051.857	802.746
35.053	16.272	1050.574	801.363
36.067	16.294	1049.812	800.815
37.082	16.250	1049.516	800.309
38.096	16.353	1049.068	800.384
39.111	16.321	1048.108	799.427
40.126	16.282	1046.644	798.056
41.140	16.017	1045.121	795.577
42.155	15.840	1044.022	793.835
43.169	15.850	1042.772	792.859
44.184	15.944	1042.035	792.673
45.199	15.871	1040.738	791.269
46.213	16.085	1039.819	791.508
47.228	16.131	1039.377	791.316
48.242	16.275	1037.907	790.800
49.257	16.147	1037.279	789.657
50.271	16.257	1036.129	789.222
51.286	16.256	1035.759	788.867
52.301	16.314	1034.536	788.136
53.315	16.116	1033.502	786.357
54.330	16.049	1032.184	784.970
55.344	16.159	1031.112	784.598
56.359	16.043	1030.296	783.371
57.374	16.071	1029.488	782.816
58.388	15.888	1028.960	781.496
59.403	15.876	1028.111	780.725
60.417	15.827	1027.021	779.601
61.432	15.830	1026.568	779.203
62.447	15.823	1025.542	778.325
63.461	15.687	1024.453	776.800
64.476	15.748	1023.868	776.568
65.490	15.773	1022.996	775.953
66.505	15.818	1022.187	775.480
67.520	15.812	1021.507	774.865
68.534	15.808	1020.704	774.170
69.549	15.774	1020.157	773.530
70.563	15.696	1019.201	772.379
71.578	15.637	1018.277	771.340
72.593	15.705	1016.749	770.428
73.607	15.540	1016.801	769.640
74.622	15.607	1016.336	769.530
75.636	15.680	1015.705	769.317
76.651	15.659	1014.842	768.501
77.666	15.765	1013.931	768.223
78.680	15.701	1013.798	767.766
79.695	15.789	1012.680	767.251
80.709	15.791	1012.319	766.920
81.724	15.874	1011.679	766.744
82.739	15.985	1010.731	766.463
83.753	16.095	1010.210	766.501
84.768	16.222	1009.568	766.519
85.782	16.437	1008.588	766.686
86.797	16.313	1007.833	765.481
87.812	16.172	1006.345	763.646
88.826	16.146	1005.947	763.157
89.841	16.255	1004.751	762.676
90.855	16.357	1003.961	762.470
91.870	16.278	1003.507	761.699
92.884	16.371	1002.016	760.919
93.899	16.432	1001.571	760.791
94.914	16.471	1001.276	760.675
95.928	16.451	1000.182	759.686
96.943	16.187	999.725	758.086
97.957	16.309	998.080	757.320
98.972	16.446	997.218	757.209
99.987	16.311	996.476	755.977
101.001	16.351	995.137	755.072
102.016	16.254	994.995	754.465
103.030	16.429	993.659	754.164
104.045	16.360	993.241	753.475
105.060	16.127	992.253	751.620
106.074	16.015	991.283	750.320
107.089	15.853	989.738	748.365
108.103	15.854	989.085	747.809
109.118	15.941	987.857	747.200
110.133	15.885	987.021	746.253
111.147	15.860	986.216	745.468
112.162	15.976	985.540	745.405
113.176	16.031	985.236	745.350
114.191	16.115	984.367	744.999
115.206	15.976	983.703	743.817
116.220	15.931	982.599	742.719
117.235	16.074	981.360	742.346
118.249	16.025	980.575	741.468
119.264	15.913	980.083	740.538
120.279	15.884	978.964	739.499
121.293	15.983	977.914	739.076
122.308	15.832	977.196	737.806
123.322	15.826	976.213	736.972
124.337	15.782	975.144	735.907
125.352	15.760	974.236	735.061
126.366	15.714	973.232	734.040
127.381	15.797	972.080	733.467
128.395	15.749	971.714	732.917
129.410	15.845	970.762	732.550
130.424	15.880	969.938	732.015
131.439	15.967	968.990	731.613
132.454	15.821	968.674	730.676
133.468	16.166	967.124	730.938
134.483	15.998	966.617	729.762
135.497	16.014	965.819	729.167
136.512	16.132	965.028	729.016
137.527	16.132	964.084	728.237
138.541	16.125	963.668	727.828
139.556	16.080	963.227	727.236
140.570	16.206	962.595	727.240
141.585	16.389	961.922	727.453
142.600	16.443	960.642	726.654
143.614	16.474	959.734	726.033
144.629	16.433	959.371	725.519
145.643	16.557	957.645	724.681
146.658	16.339	956.753	723.010
147.673	16.239	956.207	722.105
148.687	16.131	955.327	720.915
149.702	16.215	954.507	720.589
150.716	16.077	953.624	719.274
151.731	16.302	952.316	719.181
152.746	16.082	952.206	718.096
153.760	16.134	951.713	717.883
154.775	16.198	951.361	717.828
155.789	16.455	950.387	718.120
156.804	16.404	949.263	716.990
157.819	16.387	949.325	716.900
158.833	16.431	948.886	716.692
159.848	16.519	947.505	715.958
160.862	16.422	946.700	714.879
161.877	16.295	945.341	713.251
162.892	16.171	944.631	712.128
163.906	16.126	943.552	711.061
164.921	16.257	942.637	710.864
165.935	16.289	941.949	710.414
166.950	16.333	941.319	710.061
167.964	16.235	940.698	709.121
168.979	16.224	939.662	708.228
169.994	16.338	938.578	707.827
171.008	16.381	937.650	707.244
172.023	16.497	937.336	707.433
173.037	16.580	936.659	707.202
174.052	16.365	936.205	705.903
175.067	16.170	935.398	704.414
176.081	16.283	934.268	703.973
177.096	16.351	933.535	703.642
178.110	16.194	933.167	702.648
179.125	16.263	932.661	702.492
180.140	16.307	932.499	702.490
181.154	16.509	931.923	702.836
182.169	16.478	931.642	702.431
183.183	16.624	931.067	702.542
184.198	16.508	930.361	701.469
185.213	16.519	929.567	700.854
186.227	16.574	929.064	700.638
187.242	16.607	928.454	700.251
188.256	16.699	927.685	699.991
189.271	16.763	926.715	699.461
190.286	16.523	926.008	697.875
191.300	16.223	924.945	695.775
192.315	16.119	924.539	694.982
193.329	16.248	923.950	695.009
194.344	16.239	923.631	694.668
195.359	16.458	922.685	694.796
196.373	16.614	922.055	694.899
197.388	16.682	922.162	695.201
198.402	16.768	921.426	694.937
199.417	16.935	920.283	694.696
200.432	16.909	920.327	694.563
201.446	16.969	919.656	694.241
202.461	17.116	919.157	694.403
203.475	16.859	919.008	693.180
204.490	16.871	917.620	692.118
205.504	16.738	916.845	690.930
206.519	16.728	916.391	690.488
207.534	16.645	915.497	689.413
208.548	16.793	914.749	689.392
209.563	16.774	914.664	689.189
210.577	16.823	913.711	688.611
211.592	17.176	912.968	689.420
212.607	17.044	912.291	688.313
213.621	16.791	911.428	686.579
214.636	17.013	910.653	686.832
215.650	17.030	909.959	686.315
216.665	17.131	909.125	686.032
217.680	17.166	908.666	685.769
218.694	17.120	908.365	685.295
219.709	17.212	907.341	684.832
220.723	17.208	906.900	684.421
221.738	17.090	905.785	683.046
222.753	17.095	905.332	682.665
223.767	17.075	905.245	682.457
224.782	17.275	904.672	682.767
225.796	17.522	903.764	683.015
226.811	17.263	902.994	681.333
227.826	16.952	902.717	679.818
228.840	17.093	901.584	679.471
229.855	16.994	900.723	678.365
230.869	17.085	900.153	678.237
231.884	17.131	899.167	677.620
232.899	17.125	898.407	676.964
233.913	16.973	897.729	675.786
234.928	16.991	897.328	675.497
235.942	17.010	896.569	674.941
236.957	17.064	895.928	674.614
237.972	16.953	895.599	673.863
238.986	17.119	894.916	673.951
240.001	17.015	894.287	673.004
241.015	17.138	893.494	672.835
242.030	17.101	893.231	672.431
243.045	17.159	892.619	672.141
244.059	17.171	892.277	671.869
245.074	17.261	891.243	671.388
246.088	17.230	891.050	671.060
247.103	17.385	890.448	671.161
248.117	17.520	889.957	671.261
249.132	17.666	889.182	671.195
250.147	17.746	888.632	671.035
251.161	17.885	888.000	671.045
252.176	17.792	887.651	670.355
253.190	17.858	887.081	670.125
254.205	17.909	886.229	669.623
255.220	17.786	885.484	668.520
256.234	17.870	884.753	668.237
257.249	17.950	884.194	668.067
258.263	17.951	883.373	667.392
259.278	17.953	882.822	666.924
260.293	17.827	882.719	666.296
261.307	17.949	881.922	666.111
262.322	18.064	881.236	665.980
263.336	18.117	880.217	665.359
264.351	18.100	879.660	664.814
265.366	18.087	879.070	664.259
266.380	18.054	878.514	663.652
267.395	18.161	877.607	663.320
268.409	17.952	876.948	661.955
269.424	17.910	876.579	661.455
270.439	17.792	875.924	660.444
271.453	17.980	874.647	660.149
272.468	17.938	874.307	659.673
273.482	17.866	873.875	659.012
274.497	17.759	873.622	658.348
275.512	17.955	872.803	658.430
276.526	17.988	872.159	658.012
277.541	18.043	871.580	657.730
278.555	18.119	871.391	657.819
279.570	18.285	870.746	657.915
280.585	18.123	870.287	656.888
281.599	18.011	869.059	655.472
282.614	17.901	868.639	654.674
283.628	18.044	867.812	654.540
284.643	18.092	867.231	654.231
285.657	18.164	866.525	653.915
286.672	18.218	865.606	653.368
287.687	18.254	865.291	653.210
288.701	18.129	864.880	652.367
289.716	18.189	864.379	652.159
290.730	18.158	863.895	651.617
291.745	18.232	863.114	651.255
292.760	18.289	862.128	650.670
293.774	18.293	862.015	650.541
294.789	18.251	861.572	649.989
295.803	18.102	860.795	648.781
296.818	18.125	860.125	648.303
297.833	18.212	858.985	647.719
298.847	18.186	858.566	647.246
299.862	18.203	858.406	647.134
300.876	18.447	857.863	647.587
301.891	18.438	856.768	646.671
302.906	18.508	857.054	647.095
303.920	18.738	855.676	646.863
304.935	18.577	855.996	646.438
305.949	18.595	854.815	645.557
306.964	18.611	854.286	645.163
307.979	18.528	853.657	644.318
308.993	18.563	853.110	643.979
310.008	18.464	852.726	643.260
311.022	18.500	851.953	642.757
312.037	18.666	851.082	642.663
313.052	18.263	850.534	640.684
314.066	18.337	849.972	640.484
315.081	18.415	849.438	640.315
316.095	18.347	848.751	639.486
317.110	18.437	848.364	639.474
318.125	18.401	848.119	639.097
319.139	18.267	847.750	638.265
320.154	18.522	846.627	638.309
321.168	18.355	846.508	637.545
322.183	18.537	845.679	637.541
323.197	18.516	845.368	637.169
324.212	18.443	845.059	636.612
325.227	18.505	844.271	636.189
326.241	18.581	843.606	635.915
327.256	18.538	843.094	635.312
328.270	18.480	842.258	634.412
329.285	18.473	841.643	633.868
330.300	18.615	841.108	633.932
331.314	18.477	841.083	633.349
332.329	18.607	840.430	633.282
333.343	18.838	839.914	633.688
334.358	18.593	839.983	632.779
335.373	18.728	839.155	632.597
336.387	18.820	839.176	632.894
337.402	18.771	838.819	632.389
338.416	19.033	838.417	632.994
339.431	19.097	837.805	632.711
340.446	19.024	837.802	632.386
341.460	19.015	837.427	632.013
342.475	19.350	836.582	632.550
343.489	19.166	836.393	631.674
344.504	19.216	835.958	631.476
345.519	19.285	835.149	631.061
346.533	19.138	834.997	630.350
347.548	18.894	834.529	629.051
348.562	18.943	833.842	628.654
349.577	18.801	833.173	627.578
350.592	18.790	832.377	626.879
351.606	18.761	832.076	626.494
352.621	18.896	830.785	625.959
353.635	18.879	830.317	625.488
354.650	19.011	829.964	625.645
355.665	19.032	829.336	625.192
356.679	19.207	828.595	625.215
357.694	19.145	828.202	624.640
358.708	19.041	827.377	623.585
359.723	19.141	827.051	623.645
360.738	19.168	826.209	623.053
361.752	19.178	825.951	622.840
362.767	19.218	825.792	622.810
363.781	19.346	824.766	622.442
364.796	19.571	824.434	622.946
365.810	19.532	824.260	622.622
366.825	19.580	823.832	622.416
367.840	19.488	823.142	621.507
368.854	19.528	822.497	621.109
369.869	19.367	822.245	620.286
370.883	19.448	821.856	620.229
371.898	19.588	821.415	620.342
372.913	19.502	821.192	619.812
373.927	19.475	820.373	619.043
374.942	19.476	820.238	618.889
375.956	19.566	819.694	618.746
376.971	19.667	819.305	618.761
377.986	19.684	818.909	618.468
379.000	19.656	818.409	617.934
380.015	19.623	817.886	617.366
381.029	19.737	817.317	617.290
382.044	19.790	816.604	616.885
383.059	19.722	816.019	616.147
384.073	19.638	815.530	615.422
385.088	19.614	814.347	614.393
386.102	19.563	814.221	614.059
387.117	19.402	813.502	612.893
388.132	19.593	812.741	612.942
389.146	19.607	812.402	612.682
390.161	19.671	812.318	612.790
391.175	19.631	812.010	612.361
392.190	19.586	811.372	611.667
393.205	19.517	810.767	610.914
394.219	19.660	810.569	611.215
395.234	19.524	810.086	610.316
396.248	19.426	809.449	609.436
397.263	19.433	808.848	608.955
398.278	19.376	808.840	608.695
399.292	19.516	807.977	608.484
400.307	19.430	807.782	607.982
401.321	19.506	807.333	607.858
402.336	19.456	807.264	607.576
403.350	19.583	806.560	607.439
404.365	19.801	805.844	607.613
405.380	19.827	805.693	607.534
406.394	19.886	805.075	607.224
407.409	19.965	804.630	607.108
408.423	20.235	803.947	607.485
409.438	20.171	804.074	607.304
410.453	20.008	803.660	606.367
411.467	20.241	802.635	606.355
412.482	20.117	802.651	605.879
413.496	20.257	802.458	606.170
414.511	20.267	802.196	605.954
415.526	20.082	801.473	604.709
416.540	20.066	801.052	604.281
417.555	20.253	800.106	604.163
418.569	20.150	800.005	603.677
419.584	20.171	799.509	603.321
420.599	20.333	799.091	603.517
421.613	162.263	1371.459	1797.196
422.628	140.866	1454.837	1797.251
