DTS Sentinel unit serial number:	SN413079Multiplexer serial number:	ORYXHardware model number:	OX4-SRSoftware version number:	ORYX F/W v4.00 Oryx Data Collector v3.7.2.0data status	okinstallation	princeton_trtdifferential loss correction	single-endedforward channel	channel 1reverse channel	N/Adate	2019/09/11time	18:56:11forward acquisition time	60.00reverse acquisition time	0.00gamma	496.2192k internal	0.2292k external	0.2292temperature offset calibration	1.0013default loss term (dB/km)	0.3790temperature slope calibration	1.0000multiplexer offset coefficient	1.0000multiplexer slope coefficient	1.0000fibre end	0.00T internal ref (°C)	42.56T ext. ref 1 (°C)	1.26T ext. ref 2 (°C)	34.75length (m)	temperature (°C)	Stokes	anti-Stokes-747.200	-102.197	-0.319	-0.079
-746.185	163.059	0.203	0.292
-745.171	522.891	-0.039	0.095
-744.156	37.373	-0.029	-0.027
-743.142	800.000	0.106	-0.357
-742.127	800.000	0.017	-0.052
-741.112	135.539	-0.177	0.236
-740.098	800.000	0.077	0.272
-739.083	21.908	-0.336	-0.281
-738.069	800.000	0.107	0.333
-737.054	-4.009	0.135	0.096
-736.039	-200.000	-0.020	0.097
-735.025	-200.000	0.004	0.439
-734.010	128.241	0.039	-0.051
-732.996	-29.498	0.126	-0.074
-731.981	548.158	-0.122	-0.298
-730.966	-200.000	0.020	-0.223
-729.952	746.844	-0.019	0.053
-728.937	173.545	-0.156	-0.230
-727.923	-41.209	-0.217	-0.115
-726.908	-95.849	0.104	-0.028
-725.894	43.677	0.030	-0.028
-724.879	566.268	-0.131	0.325
-723.864	-35.287	-0.260	-0.145
-722.850	-23.634	-0.385	-0.236
-721.835	-111.773	0.435	0.090
-720.821	22.812	0.023	0.019
-719.806	111.783	-0.053	-0.065
-718.791	-89.225	-0.211	-0.064
-717.777	128.289	-0.099	0.129
-716.762	800.000	-0.037	-0.111
-715.748	302.739	-0.084	0.159
-714.733	-28.462	-0.130	-0.077
-713.718	-70.058	-0.250	-0.097
-712.704	-167.041	-0.039	0.002
-711.689	800.000	-0.076	0.251
-710.675	138.743	0.135	-0.182
-709.660	198.153	0.183	0.286
-708.645	-142.771	0.225	-0.022
-707.631	-17.976	0.249	-0.160
-706.616	-200.000	-0.019	-0.317
-705.602	222.956	-0.186	-0.306
-704.587	112.130	-0.254	-0.314
-703.572	71.478	-0.216	0.229
-702.558	18.899	0.161	-0.132
-701.543	323.395	0.029	0.056
-700.529	261.820	0.161	0.285
-699.514	-200.000	0.001	-0.139
-698.499	699.209	0.028	-0.075
-697.485	-109.792	-0.217	-0.047
-696.470	-200.000	0.032	-0.232
-695.456	800.000	-0.046	-0.143
-694.441	248.279	-0.196	-0.339
-693.426	-61.228	0.328	0.141
-692.412	-25.524	0.146	0.088
-691.397	-81.289	-0.228	0.077
-690.383	800.000	-0.094	-0.414
-689.368	362.069	-0.066	-0.136
-688.354	255.909	0.020	-0.035
-687.339	113.171	-0.215	0.266
-686.324	152.194	0.180	-0.251
-685.310	451.770	0.068	-0.154
-684.295	35.710	-0.436	0.392
-683.281	45.263	-0.263	0.247
-682.266	800.000	0.036	0.143
-681.251	38.145	0.243	0.221
-680.237	-75.915	-0.291	0.105
-679.222	-126.708	0.077	0.012
-678.208	-200.000	0.027	0.236
-677.193	103.930	-0.122	0.146
-676.178	-160.576	-0.071	0.004
-675.164	200.540	-0.103	-0.161
-674.149	15.465	-0.148	0.118
-673.135	80.873	-0.199	-0.219
-672.120	-130.484	-0.270	-0.037
-671.105	-200.000	0.009	-0.135
-670.091	103.090	-0.097	0.116
-669.076	-104.823	-0.212	0.050
-668.062	-200.000	0.003	0.131
-667.047	800.000	0.035	-0.115
-666.032	-43.497	0.265	-0.136
-665.018	-150.046	0.300	0.024
-664.003	-13.873	0.227	-0.150
-662.989	9.961	0.070	0.054
-661.974	-14.906	-0.183	0.120
-660.959	800.000	-0.053	-0.210
-659.945	-99.220	-0.297	0.077
-658.930	390.116	0.134	0.283
-657.916	298.370	-0.035	-0.066
-656.901	-81.967	0.498	0.166
-655.886	800.000	-0.064	0.249
-654.872	174.169	0.056	0.082
-653.857	-64.995	-0.205	0.084
-652.843	-81.780	-0.209	0.070
-651.828	348.316	0.019	-0.039
-650.814	16.492	0.274	-0.221
-649.799	7.135	-0.233	0.177
-648.784	62.864	0.111	0.113
-647.770	-200.000	-0.024	-0.182
-646.755	800.000	0.068	0.245
-645.741	-200.000	0.023	-0.106
-644.726	143.646	0.111	-0.151
-643.711	-200.000	0.017	0.189
-642.697	617.568	0.070	0.179
-641.682	-42.935	0.456	-0.236
-640.668	-200.000	-0.005	0.099
-639.653	-99.414	0.292	-0.075
-638.638	147.326	-0.254	-0.349
-637.624	-110.608	0.148	-0.031
-636.609	28.601	0.227	0.196
-635.595	-18.140	0.132	0.084
-634.580	-45.462	-0.218	-0.110
-633.565	-116.957	-0.323	-0.060
-632.551	227.864	0.126	0.208
-631.536	-46.323	-0.246	-0.123
-630.522	-138.904	0.111	0.012
-629.507	800.000	0.043	0.155
-628.492	31.667	-0.208	-0.183
-627.478	-200.000	-0.024	-0.335
-626.463	-124.999	-0.175	-0.027
-625.449	-102.160	-0.146	-0.036
-624.434	800.000	0.099	-0.285
-623.419	-200.000	-0.029	0.267
-622.405	-200.000	0.022	0.198
-621.390	246.098	0.165	-0.284
-620.376	-200.000	0.071	-0.354
-619.361	42.807	0.259	-0.240
-618.346	800.000	0.049	-0.139
-617.332	-200.000	0.000	0.474
-616.317	-152.591	-0.205	-0.015
-615.303	-200.000	-0.085	-0.394
-614.288	-200.000	0.051	-0.291
-613.273	36.371	-0.209	-0.188
-612.259	-200.000	-0.011	-0.133
-611.244	-187.543	-0.121	0.002
-610.230	-33.134	0.070	-0.039
-609.215	-124.409	-0.032	0.005
-608.201	-160.376	-0.137	-0.007
-607.186	-200.000	-0.010	-0.327
-606.171	220.523	-0.063	0.102
-605.157	251.324	0.084	-0.145
-604.142	-89.493	-0.142	0.043
-603.128	224.851	0.098	-0.162
-602.113	425.235	-0.083	-0.181
-601.098	800.000	-0.075	-0.240
-600.084	-0.876	0.175	0.126
-599.069	-20.123	0.079	0.049
-598.055	25.951	-0.032	0.027
-597.040	342.449	-0.116	-0.232
-596.025	739.042	0.080	0.217
-595.011	-87.307	-0.309	0.095
-593.996	235.386	0.150	-0.252
-592.982	-113.514	0.238	-0.047
-591.967	-115.332	-0.109	0.021
-590.952	365.115	-0.165	-0.338
-589.938	-9.670	0.017	-0.011
-588.923	187.446	-0.097	-0.148
-587.909	-136.693	0.436	-0.051
-586.894	-104.688	-0.133	-0.031
-585.879	142.288	-0.087	-0.117
-584.865	265.112	0.147	0.260
-583.850	238.958	0.035	0.059
-582.836	800.000	-0.046	-0.193
-581.821	147.816	0.208	-0.286
-580.806	157.741	0.040	0.056
-579.792	171.853	0.100	0.147
-578.777	244.063	0.163	0.279
-577.763	232.865	0.075	-0.125
-576.748	-18.405	0.119	-0.076
-575.733	92.818	-0.223	-0.256
-574.719	-88.321	0.197	-0.060
-573.704	-169.104	-0.289	0.011
-572.690	-105.118	0.130	-0.030
-571.675	-200.000	0.019	0.172
-570.661	-114.334	0.218	-0.043
-569.646	114.195	-0.203	-0.251
-568.631	-135.239	0.258	0.031
-567.617	-200.000	0.009	0.113
-566.602	-200.000	0.016	-0.192
-565.588	-49.862	-0.273	-0.132
-564.573	39.640	0.128	0.116
-563.558	-8.492	0.260	-0.177
-562.544	42.012	0.184	0.169
-561.529	-42.143	0.191	0.099
-560.515	791.452	0.053	-0.149
-559.500	231.772	-0.022	0.037
-558.485	262.545	-0.051	-0.090
-557.471	20.892	-0.238	-0.196
-556.456	800.000	-0.037	-0.139
-555.442	-145.271	0.332	-0.030
-554.427	47.781	0.082	-0.077
-553.412	-95.474	0.210	-0.057
-552.398	-74.835	-0.192	0.070
-551.383	-200.000	-0.054	0.375
-550.369	58.023	-0.139	-0.138
-549.354	5.653	0.126	0.095
-548.339	-200.000	-0.019	0.096
-547.325	-200.000	-0.030	-0.204
-546.310	-174.076	0.244	-0.007
-545.296	50.100	0.190	0.182
-544.281	-61.043	-0.151	0.065
-543.266	687.426	-0.092	0.244
-542.252	55.790	0.297	0.292
-541.237	-200.000	-0.046	0.346
-540.223	72.906	0.171	0.181
-539.208	-56.819	-0.203	0.091
-538.193	4.319	0.133	0.099
-537.179	-21.620	-0.036	-0.022
-536.164	-200.000	0.032	-0.220
-535.150	28.986	0.246	-0.212
-534.135	65.797	0.116	-0.120
-533.121	-200.000	-0.037	-0.193
-532.106	259.346	0.109	-0.190
-531.091	595.522	-0.055	-0.138
-530.077	-113.868	-0.379	0.075
-529.062	-100.211	-0.136	0.034
-528.048	-30.309	-0.158	-0.091
-527.033	-84.689	-0.189	-0.060
-526.018	-101.528	-0.094	-0.023
-525.004	-82.009	-0.154	-0.051
-523.989	582.356	0.114	0.284
-522.975	800.000	0.128	0.390
-521.960	227.220	0.165	0.272
-520.945	43.601	0.105	0.097
-519.931	-72.301	-0.076	0.029
-518.916	21.586	0.025	-0.020
-517.902	379.568	-0.067	0.140
-516.887	-160.738	0.219	-0.012
-515.872	-200.000	-0.049	-0.517
-514.858	-157.685	0.568	0.034
-513.843	-139.958	0.443	0.047
-512.829	-200.000	-0.056	0.289
-511.814	-122.877	-0.194	0.032
-510.799	-18.147	-0.088	-0.056
-509.785	130.424	-0.126	-0.164
-508.770	94.335	-0.058	0.066
-507.756	283.585	-0.034	-0.062
-506.741	-95.661	-0.045	-0.012
-505.726	-110.582	-0.406	-0.085
-504.712	-70.106	0.230	-0.089
-503.697	-200.000	0.068	-0.407
-502.683	-67.778	-0.255	-0.101
-501.668	-67.544	-0.115	0.046
-500.653	-26.122	0.397	-0.237
-499.639	-55.832	0.098	0.044
-498.624	-60.536	0.100	0.043
-497.610	328.271	-0.104	0.202
-496.595	34.021	-0.270	0.239
-495.581	-200.000	0.004	-0.377
-494.566	16.530	-0.189	0.152
-493.551	-200.000	0.027	0.158
-492.537	66.355	0.101	-0.104
-491.522	-5.139	-0.157	-0.110
-490.508	37.455	-0.296	0.266
-489.493	141.631	0.149	0.200
-488.478	-42.686	-0.144	0.074
-487.464	-200.000	0.006	0.169
-486.449	-28.115	0.048	-0.028
-485.435	606.442	0.115	-0.290
-484.420	625.216	-0.029	0.073
-483.405	99.394	0.123	-0.144
-482.391	-55.558	0.322	-0.146
-481.376	-156.583	0.076	0.005
-480.362	272.771	0.282	0.504
-479.347	-53.929	-0.451	0.208
-478.332	501.529	-0.051	-0.119
-477.318	137.496	0.086	-0.113
-476.303	100.912	0.266	0.314
-475.289	237.446	-0.060	0.101
-474.274	-200.000	-0.020	-0.165
-473.259	-200.000	-0.036	0.307
-472.245	-200.000	0.010	-0.066
-471.230	-163.121	0.122	0.006
-470.216	7.103	-0.315	-0.238
-469.201	449.134	0.089	0.199
-468.186	98.101	-0.048	0.056
-467.172	234.920	-0.079	0.132
-466.157	180.294	0.180	-0.267
-465.143	-95.885	-0.260	-0.070
-464.128	317.192	0.138	0.264
-463.113	21.269	0.282	-0.232
-462.099	369.819	0.041	-0.084
-461.084	-64.932	0.200	-0.082
-460.070	190.900	-0.068	-0.104
-459.055	291.920	-0.061	-0.113
-458.040	-137.405	-0.215	-0.025
-457.026	707.279	0.020	-0.054
-456.011	800.000	0.083	-0.263
-454.997	-54.926	-0.297	0.135
-453.982	611.910	-0.089	0.224
-452.968	686.402	-0.153	0.406
-451.953	47.615	0.206	0.194
-450.938	-136.457	0.270	0.032
-449.924	-132.924	0.245	-0.032
-448.909	-55.581	-0.240	0.109
-447.895	-47.550	-0.274	0.135
-446.880	322.813	0.108	-0.209
-445.865	-200.000	0.011	-0.198
-444.851	602.362	0.119	0.298
-443.836	93.049	-0.130	-0.149
-442.822	162.237	-0.112	0.159
-441.807	764.475	-0.129	-0.353
-440.792	-142.483	-0.046	0.005
-439.778	-77.349	-0.045	-0.016
-438.763	25.250	0.178	-0.149
-437.749	415.900	-0.076	-0.163
-436.734	694.714	0.109	-0.290
-435.719	-55.529	0.219	-0.099
-434.705	-26.858	0.138	0.081
-433.690	178.369	0.075	-0.111
-432.676	56.566	-0.071	-0.070
-431.661	-110.464	0.148	-0.031
-430.646	473.899	-0.018	-0.042
-429.632	800.000	-0.072	-0.270
-428.617	522.487	-0.123	-0.293
-427.603	37.677	0.249	-0.223
-426.588	270.109	0.096	-0.171
-425.573	-41.587	-0.270	0.140
-424.559	-108.739	0.203	0.044
-423.544	163.986	-0.105	0.149
-422.530	-46.352	-0.269	-0.133
-421.515	-96.529	0.465	0.124
-420.500	221.161	0.183	0.297
-419.486	-50.814	-0.165	-0.078
-418.471	257.702	0.018	0.031
-417.457	631.452	0.029	-0.073
-416.442	357.304	-0.128	-0.259
-415.428	-200.000	0.008	0.154
-414.413	147.553	-0.102	0.138
-413.398	-200.000	-0.004	0.098
-412.384	123.316	0.282	-0.357
-411.369	-170.422	0.346	-0.012
-410.355	800.000	-0.174	-0.503
-409.340	-66.799	-0.223	-0.089
-408.325	338.416	0.060	-0.118
-407.311	-200.000	0.004	-0.366
-406.296	46.148	-0.318	-0.297
-405.282	-170.955	-0.024	0.001
-404.267	-25.237	0.122	-0.073
-403.252	-200.000	-0.031	-0.162
-402.238	201.707	-0.097	0.151
-401.223	-200.000	0.003	-0.069
-400.209	106.022	-0.120	-0.143
-399.194	-200.000	0.002	0.297
-398.179	-66.110	0.250	0.101
-397.165	-83.187	0.299	0.097
-396.150	-138.722	0.331	0.037
-395.136	-200.000	0.036	0.343
-394.121	-137.461	-0.282	-0.032
-393.106	-65.591	0.103	-0.042
-392.092	174.355	-0.083	-0.122
-391.077	192.499	-0.117	0.179
-390.063	-69.793	0.207	0.080
-389.048	375.195	-0.167	-0.345
-388.033	800.000	0.059	0.180
-387.019	330.428	-0.132	0.256
-386.004	-9.384	0.205	-0.138
-384.990	-104.391	-0.114	-0.027
-383.975	-76.250	0.195	-0.069
-382.960	4.900	0.116	-0.086
-381.946	777.071	0.025	0.070
-380.931	57.371	-0.093	0.091
-379.917	-112.882	-0.117	-0.023
-378.902	-32.023	-0.290	-0.164
-377.888	-200.000	0.012	0.134
-376.873	66.173	-0.193	-0.198
-375.858	282.043	0.070	-0.127
-374.844	-200.000	0.002	0.190
-373.829	-76.063	0.126	0.045
-372.815	104.562	-0.135	0.161
-371.800	365.974	-0.073	0.149
-370.785	-38.634	-0.311	-0.166
-369.771	175.001	-0.104	-0.153
-368.756	236.746	-0.129	0.215
-367.742	-152.542	-0.321	0.023
-366.727	-200.000	0.012	-0.215
-365.712	800.000	0.059	0.175
-364.698	800.000	-0.046	0.194
-363.683	-20.153	-0.322	-0.200
-362.669	284.339	-0.234	-0.425
-361.654	471.578	0.039	-0.089
-360.639	800.000	-0.051	-0.201
-359.625	141.942	0.097	-0.130
-358.610	-38.868	-0.200	0.106
-357.596	72.030	-0.308	-0.323
-356.581	513.643	0.089	0.209
-355.566	94.397	0.131	0.150
-354.552	143.114	0.208	-0.278
-353.537	-47.982	0.293	0.143
-352.523	-57.232	-0.160	0.071
-351.508	516.918	0.060	0.142
-350.493	-200.000	0.003	0.085
-349.479	303.055	0.091	0.169
-348.464	-61.816	-0.123	0.052
-347.450	-200.000	0.013	-0.096
-346.435	-18.426	0.130	0.082
-345.420	800.000	0.042	0.157
-344.406	266.805	-0.068	0.120
-343.391	-12.591	-0.020	-0.013
-342.377	79.747	0.284	0.308
-341.362	-200.000	-0.000	0.266
-340.348	-18.543	0.263	0.166
-339.333	-51.925	0.185	-0.087
-338.318	-200.000	0.045	0.304
-337.304	-40.698	-0.242	-0.126
-336.289	-30.990	0.181	-0.103
-335.275	-200.000	-0.015	0.345
-334.260	288.947	-0.060	0.110
-333.245	-80.609	-0.316	-0.106
-332.231	15.054	-0.059	0.047
-331.216	15.674	0.244	0.193
-330.202	-54.376	-0.193	0.088
-329.187	-146.122	0.177	0.016
-328.172	770.993	0.143	-0.393
-327.158	-76.389	0.175	-0.062
-326.143	-200.000	0.023	0.386
-325.129	88.370	0.070	0.078
-324.114	-39.049	-0.263	0.139
-323.099	-147.346	0.306	-0.026
-322.085	81.106	0.144	0.156
-321.070	623.969	-0.074	0.189
-320.056	-200.000	0.001	0.085
-319.041	265.056	-0.011	-0.020
-318.026	-25.827	-0.319	0.189
-317.012	50.023	-0.174	0.165
-315.997	701.427	0.024	-0.063
-314.983	-200.000	0.036	0.165
-313.968	-13.759	-0.079	0.051
-312.953	-200.000	0.015	0.130
-311.939	39.235	0.011	0.010
-310.924	-34.395	-0.326	0.180
-309.910	262.747	-0.124	-0.216
-308.895	-42.737	0.208	0.106
-307.880	-70.767	0.077	0.029
-306.866	-200.000	0.021	-0.113
-305.851	-200.000	0.034	0.157
-304.837	688.256	0.158	0.417
-303.822	-47.859	-0.342	-0.167
-302.807	488.749	0.150	0.346
-301.793	135.088	-0.088	0.115
-300.778	-50.614	-0.412	-0.195
-299.764	110.996	0.073	-0.089
-298.749	-200.000	-0.004	-0.037
-297.735	29.660	-0.359	0.307
-296.720	-166.174	0.206	0.009
-295.705	418.377	-0.185	-0.399
-294.691	19.936	-0.152	-0.123
-293.676	800.000	0.044	0.156
-292.662	169.967	0.076	-0.110
-291.647	-57.166	0.147	0.065
-290.632	-8.763	0.081	0.055
-289.618	-182.303	0.598	-0.011
-288.603	-35.851	-0.030	-0.016
-287.589	555.431	-0.063	0.153
-286.574	-200.000	-0.472	-0.001
-285.559	58.054	-0.120	-0.118
-284.545	-4.745	0.114	0.079
-283.530	42.226	0.275	0.251
-282.516	-200.000	-0.093	0.419
-281.501	165.077	-0.062	-0.088
-280.486	36.556	0.139	-0.123
-279.472	228.604	0.111	-0.182
-278.457	-132.102	-0.326	-0.043
-277.443	-103.114	0.169	0.040
-276.428	396.309	0.049	-0.103
-275.413	-157.617	0.439	0.026
-274.399	147.381	-0.171	0.231
-273.384	46.044	-0.224	-0.209
-272.370	-200.000	-0.003	0.151
-271.355	138.574	-0.222	0.292
-270.340	-200.000	-0.053	-0.287
-269.326	-27.876	-0.124	0.072
-268.311	117.799	-0.215	-0.266
-267.297	165.510	0.155	-0.221
-266.282	122.914	0.184	-0.231
-265.267	-76.070	0.216	0.077
-264.253	-200.000	0.053	0.444
-263.238	-200.000	-0.006	0.233
-262.224	-148.837	-0.294	0.024
-261.209	-81.777	-0.036	0.012
-260.195	-15.802	-0.225	-0.144
-259.180	-175.789	-0.184	-0.005
-258.165	-37.887	0.494	0.264
-257.151	-101.856	0.060	-0.015
-256.136	800.000	0.036	0.125
-255.122	496.179	0.094	0.217
-254.107	525.646	-0.140	0.331
-253.092	-80.994	-0.336	0.112
-252.078	-87.084	-0.104	0.032
-251.063	16.664	0.133	0.106
-250.049	-140.934	-0.394	-0.041
-249.034	125.842	-0.138	-0.174
-248.019	-95.517	0.149	-0.040
-247.005	302.575	-0.071	0.132
-245.990	-155.910	-0.281	-0.018
-244.976	-151.555	-0.197	0.015
-243.961	-92.273	0.379	-0.107
-242.946	-67.403	0.200	-0.079
-241.932	411.055	-0.111	-0.235
-240.917	-94.233	0.264	-0.073
-239.903	-200.000	0.031	-0.000
-238.888	-121.540	0.396	-0.066
-237.873	659.000	0.024	0.063
-236.859	186.216	0.299	-0.447
-235.844	-94.761	0.282	-0.077
-234.830	-109.487	0.143	-0.030
-233.815	7.042	-0.430	0.322
-232.800	-177.760	-0.218	0.005
-231.786	174.686	0.073	0.106
-230.771	-119.652	-0.106	-0.018
-229.757	-79.103	-0.150	0.051
-228.742	106.303	0.101	-0.120
-227.727	51.845	0.322	0.307
-226.713	-129.478	0.161	-0.022
-225.698	-100.186	0.109	-0.027
-224.684	-200.000	-0.009	0.133
-223.669	-200.000	-0.001	-0.241
-222.655	1.619	-0.321	-0.232
-221.640	-78.684	-0.067	0.023
-220.625	57.102	0.194	-0.190
-219.611	22.658	0.067	-0.055
-218.596	-116.228	0.191	-0.036
-217.582	-51.634	-0.314	-0.147
-216.567	-200.000	0.000	-0.056
-215.552	-200.000	0.012	0.383
-214.538	16.041	-0.182	-0.144
-213.523	-75.514	0.359	0.128
-212.509	136.399	-0.104	-0.136
-211.494	19.974	-0.179	-0.145
-210.479	-38.870	-0.143	0.075
-209.465	363.576	0.137	0.275
-208.450	167.301	-0.363	-0.517
-207.436	688.624	-0.113	0.296
-206.421	-99.947	-0.135	-0.034
-205.406	-60.925	-0.039	0.016
-204.392	23.520	-0.157	0.130
-203.377	800.000	0.088	-0.295
-202.363	-106.707	-0.246	0.055
-201.348	-200.000	-0.026	-0.187
-200.333	424.657	-0.155	0.334
-199.319	-103.633	-0.066	0.015
-198.304	-200.000	-0.030	0.194
-197.290	217.957	0.129	-0.206
-196.275	206.909	0.079	-0.123
-195.260	-95.893	0.215	0.057
-194.246	-20.371	-0.115	-0.071
-193.231	800.000	0.034	0.133
-192.217	-107.147	0.257	-0.057
-191.202	68.134	0.337	0.346
-190.187	-156.793	0.473	0.029
-189.173	437.363	0.142	0.311
-188.158	-200.000	0.039	-0.237
-187.144	-71.450	-0.119	-0.045
-186.129	-200.000	-0.004	0.047
-185.114	403.345	0.115	-0.243
-184.100	23.162	-0.155	-0.128
-183.085	-131.845	-0.305	0.040
-182.071	17.628	-0.235	0.187
-181.056	-129.896	0.049	0.007
-180.042	-142.257	0.305	-0.030
-179.027	-33.348	0.243	0.135
-178.012	-29.568	-0.247	-0.141
-176.998	-200.000	0.032	-0.189
-175.983	-122.837	0.130	-0.021
-174.969	38.349	-0.450	-0.401
-173.954	191.129	-0.423	0.638
-172.939	12.525	-0.203	0.157
-171.925	3.144	-0.192	-0.140
-170.910	800.000	-0.036	0.128
-169.896	-66.788	0.191	0.075
-168.881	-117.773	-0.459	0.083
-167.866	-200.000	-0.024	-0.133
-166.852	58.138	-0.157	0.154
-165.837	-40.756	0.246	0.128
-164.823	-150.322	-0.198	-0.015
-163.808	219.101	-0.143	0.229
-162.793	-116.692	0.128	0.024
-161.779	-200.000	-0.015	0.136
-160.764	-86.026	-0.179	0.055
-159.750	-113.366	-0.368	0.072
-158.735	64.623	0.166	0.168
-157.720	-135.670	0.268	-0.032
-156.706	-116.586	0.122	-0.022
-155.691	-34.111	0.216	0.119
-154.677	-60.549	-0.274	-0.116
-153.662	-200.000	0.004	-0.386
-152.647	-200.000	0.058	0.260
-151.633	319.383	0.103	0.196
-150.618	-200.000	-0.003	0.089
-149.604	424.190	-0.025	-0.055
-148.589	223.490	-0.106	-0.171
-147.574	-200.000	-0.092	0.638
-146.560	-200.000	0.059	0.380
-145.545	-150.133	0.230	-0.018
-144.531	115.365	0.155	0.189
-143.516	135.813	0.206	0.268
-142.502	800.000	-0.104	0.339
-141.487	704.815	0.125	0.330
-140.472	-90.040	-0.354	0.103
-139.458	-102.860	0.287	-0.068
-138.443	-53.428	-0.176	-0.080
-137.429	377.063	0.132	0.269
-136.414	-200.000	-0.024	0.278
-135.399	-87.910	-0.117	-0.035
-134.385	-200.000	0.088	0.391
-133.370	-200.000	0.058	-0.274
-132.356	719.602	0.162	0.431
-131.341	-16.996	-0.240	0.151
-130.326	-200.000	0.068	0.328
-129.312	-116.224	0.315	0.058
-128.297	-94.797	0.471	0.128
-127.283	9.266	0.221	0.167
-126.268	553.670	0.137	0.328
-125.253	358.674	-0.184	0.368
-124.239	800.000	0.051	0.211
-123.224	-66.605	-0.202	-0.080
-122.210	34.177	0.197	-0.172
-121.195	-156.366	0.203	0.013
-120.180	-122.555	-0.146	0.024
-119.166	313.207	0.153	0.287
-118.151	-200.000	-0.060	0.321
-117.137	216.104	0.077	0.122
-116.122	71.533	-0.013	-0.013
-115.107	-200.000	-0.000	0.140
-114.093	96.691	0.183	-0.210
-113.078	-200.000	0.010	-0.071
-112.064	4.770	-0.076	0.056
-111.049	60.898	0.091	-0.091
-110.034	90.243	-0.057	-0.064
-109.020	22.190	0.115	0.093
-108.005	-200.000	0.005	0.216
-106.991	-139.280	-0.179	-0.019
-105.976	800.000	-0.046	0.132
-104.962	-176.328	0.146	0.004
-103.947	-182.701	-0.163	-0.003
-102.932	800.000	-0.047	-0.178
-101.918	101.444	0.345	-0.401
-100.903	-200.000	0.024	0.379
-99.889	-114.601	-0.127	0.024
-98.874	487.286	-0.082	0.188
-97.859	800.000	0.029	0.101
-96.845	-13.032	0.068	-0.044
-95.830	7.151	-0.157	0.117
-94.816	-200.000	-0.056	0.251
-93.801	-200.000	0.041	-0.387
-92.786	-200.000	-0.003	0.054
-91.772	315.974	0.089	0.168
-90.757	-200.000	-0.002	-0.033
-89.743	19.301	0.132	0.106
-88.728	800.000	-0.020	-0.086
-87.713	-200.000	-0.014	-0.326
-86.699	800.000	0.081	0.237
-85.684	142.264	0.104	-0.138
-84.670	-200.000	0.018	-0.104
-83.655	-200.000	-0.025	-0.144
-82.640	-200.000	0.029	0.169
-81.626	245.237	-0.111	0.187
-80.611	625.531	0.051	0.128
-79.597	-200.000	-0.002	-0.075
-78.582	57.839	-0.228	0.223
-77.567	56.653	-0.205	0.199
-76.553	-118.588	0.099	-0.017
-75.538	-200.000	0.035	0.414
-74.524	23.212	0.106	-0.086
-73.509	-41.100	0.328	-0.169
-72.494	800.000	0.065	-0.196
-71.480	-200.000	0.010	0.200
-70.465	-42.251	-0.218	0.111
-69.451	-200.000	-0.047	-0.209
-68.436	54.861	-0.249	-0.239
-67.422	800.000	0.066	0.222
-66.407	-100.997	0.175	-0.043
-65.392	-200.000	-0.009	-0.193
-64.378	-48.302	-0.186	0.089
-63.363	-35.172	0.417	-0.226
-62.349	-175.397	-0.194	0.005
-61.334	4.361	-0.751	-0.549
-60.319	95.627	0.392	0.446
-59.305	-200.000	-0.103	-0.633
-58.290	90.325	0.512	0.571
-57.276	800.000	0.642	1.920
-56.261	-200.000	75.931	530.334
-55.246	556.280	1311.452	3147.683
-54.232	146.983	2537.057	3399.609
-53.217	122.984	2214.675	2762.583
-52.203	55.356	1659.405	1599.360
-51.188	46.707	1381.134	1277.830
-50.173	42.760	1335.750	1212.070
-49.159	62.402	1370.090	1362.906
-48.144	70.004	1388.349	1427.008
-47.130	46.987	1351.411	1251.831
-46.115	42.778	1335.004	1211.306
-45.100	42.563	1330.803	1206.158
-44.086	42.485	1328.481	1203.536
-43.071	42.399	1325.774	1200.524
-42.057	42.331	1324.010	1198.470
-41.042	42.444	1322.070	1197.344
-40.027	42.411	1320.977	1196.108
-39.013	42.566	1318.215	1194.482
-37.998	42.496	1316.753	1192.696
-36.984	42.510	1315.028	1191.168
-35.969	42.638	1313.034	1190.073
-34.954	42.670	1311.535	1188.855
-33.940	42.559	1310.043	1186.800
-32.925	42.596	1309.045	1186.070
-31.911	42.583	1307.462	1184.509
-30.896	42.695	1305.644	1183.475
-29.881	42.747	1304.301	1182.517
-28.867	42.656	1302.650	1180.441
-27.852	42.688	1301.271	1179.331
-26.838	42.600	1300.299	1177.887
-25.823	42.651	1298.234	1176.268
-24.809	42.722	1296.875	1175.403
-23.794	42.626	1295.770	1173.795
-22.779	42.608	1294.298	1172.308
-21.765	42.629	1292.823	1171.048
-20.750	42.700	1291.429	1170.152
-19.736	42.562	1290.489	1168.456
-18.721	42.549	1289.308	1167.261
-17.706	42.543	1288.327	1166.295
-16.692	42.599	1286.605	1165.015
-15.677	42.460	1286.386	1163.960
-14.663	42.531	1284.542	1162.661
-13.648	42.357	1284.045	1161.157
-12.633	42.470	1282.482	1160.349
-11.619	42.501	1281.368	1159.473
-10.604	42.501	1280.776	1158.890
-9.590	42.507	1279.619	1157.833
-8.575	42.567	1278.356	1156.989
-7.560	42.414	1277.650	1155.423
-6.546	42.451	1276.538	1154.586
-5.531	42.410	1276.159	1153.963
-4.517	42.555	1274.726	1153.455
-3.502	42.468	1273.981	1152.234
-2.487	42.406	1273.646	1151.531
-1.473	42.375	1269.359	1147.429
-0.458	40.616	1253.036	1122.691
0.556	35.197	1231.843	1073.700
1.571	30.381	1233.626	1048.052
2.586	29.092	1248.271	1053.038
3.600	27.703	1237.861	1036.274
4.615	19.826	1161.573	930.152
5.629	7.356	1078.586	800.982
6.644	1.688	1054.193	754.755
7.659	1.240	1051.505	750.546
8.673	1.066	1050.196	748.688
9.688	1.058	1048.665	747.488
10.702	1.434	1048.090	748.868
11.717	8.597	1058.788	792.008
12.731	19.161	1073.665	855.842
13.746	23.592	1078.170	881.420
14.761	23.786	1078.847	882.860
15.775	23.888	1077.710	882.356
16.790	23.713	1077.106	880.916
17.804	23.550	1076.434	879.478
18.819	23.649	1076.403	879.868
19.834	23.694	1075.608	879.364
20.848	23.736	1075.070	879.055
21.863	23.702	1074.840	878.622
22.877	23.671	1073.873	877.597
23.892	23.651	1073.335	876.981
24.907	23.755	1072.261	876.540
25.921	23.737	1071.281	875.572
26.936	23.649	1070.102	874.096
27.950	23.515	1068.591	872.127
28.965	23.551	1066.756	870.729
29.980	23.613	1065.410	869.857
30.994	23.784	1064.406	869.800
32.009	23.669	1063.348	868.296
33.023	23.487	1061.829	866.089
34.038	23.639	1061.518	866.500
35.053	23.561	1061.235	865.810
36.067	23.645	1060.422	865.484
37.082	23.777	1059.267	865.106
38.096	23.928	1058.865	865.436
39.111	24.003	1058.122	865.115
40.126	23.898	1056.033	862.821
41.140	23.499	1054.735	859.752
42.155	23.227	1053.356	857.233
43.169	23.308	1052.506	856.861
44.184	23.317	1051.762	856.222
45.199	23.329	1050.520	855.194
46.213	23.459	1049.468	854.884
47.228	23.538	1048.633	854.514
48.242	23.640	1048.105	854.497
49.257	23.822	1047.208	854.564
50.271	23.732	1047.254	854.093
51.286	23.740	1046.415	853.373
52.301	23.798	1045.225	852.602
53.315	23.761	1044.495	851.756
54.330	23.772	1043.190	850.668
55.344	23.793	1042.416	850.066
56.359	23.683	1041.602	848.799
57.374	23.448	1040.542	846.739
58.388	23.406	1039.942	845.975
59.403	23.374	1039.188	845.135
60.417	23.337	1038.228	844.104
61.432	23.348	1037.527	843.512
62.447	23.471	1036.987	843.581
63.461	23.522	1036.025	842.965
64.476	23.535	1035.113	842.209
65.490	23.394	1034.390	840.880
66.505	23.419	1033.913	840.534
67.520	23.446	1033.307	840.097
68.534	23.333	1032.031	838.449
69.549	23.026	1030.725	835.864
70.563	23.036	1030.093	835.325
71.578	22.828	1029.734	833.977
72.593	22.786	1028.178	832.447
73.607	22.927	1027.710	832.659
74.622	23.274	1027.025	833.661
75.636	23.302	1026.778	833.521
76.651	23.168	1025.303	831.619
77.666	22.999	1024.740	830.295
78.680	23.228	1024.390	831.011
79.695	23.290	1023.571	830.566
80.709	23.315	1023.082	830.212
81.724	23.230	1022.310	829.115
82.739	23.352	1021.786	829.187
83.753	23.586	1021.533	830.005
84.768	24.039	1019.886	830.709
85.782	24.057	1019.709	830.575
86.797	23.988	1018.565	829.247
87.812	23.789	1017.218	827.150
88.826	23.884	1016.632	827.040
89.841	24.062	1015.688	827.030
90.855	24.148	1014.566	826.442
91.870	23.918	1013.953	824.802
92.884	23.857	1012.226	823.041
93.899	23.913	1011.572	822.694
94.914	23.963	1010.884	822.296
95.928	23.757	1010.004	820.553
96.943	23.518	1008.684	818.307
97.957	23.423	1007.284	816.662
98.972	23.241	1006.414	815.048
99.987	23.442	1005.950	815.524
101.001	23.741	1005.346	816.337
102.016	23.662	1004.668	815.349
103.030	23.589	1003.337	813.864
104.045	23.431	1002.536	812.419
105.060	23.351	1001.297	810.977
106.074	23.269	1001.174	810.426
107.089	23.757	1000.616	812.136
108.103	23.633	999.287	810.421
109.118	23.580	997.943	809.016
110.133	23.497	996.843	807.676
111.147	23.237	995.554	805.375
112.162	23.120	994.793	804.159
113.176	23.286	994.436	804.550
114.191	23.361	993.383	803.968
115.206	23.062	992.336	801.695
116.220	22.945	991.390	800.331
117.235	23.169	990.703	800.718
118.249	23.127	989.979	799.874
119.264	23.100	988.796	798.723
120.279	23.123	988.486	798.509
121.293	23.245	988.117	798.689
122.308	23.252	986.748	797.544
123.322	23.174	985.638	796.224
124.337	22.935	984.555	794.206
125.352	22.538	982.663	790.829
126.366	22.566	981.324	789.805
127.381	23.218	981.584	792.866
128.395	23.589	981.343	794.263
129.410	23.766	980.491	794.291
130.424	23.688	979.279	792.893
131.439	23.580	978.724	791.893
132.454	23.736	977.752	791.729
133.468	23.728	976.663	790.742
134.483	23.889	976.069	790.910
135.497	23.992	975.237	790.623
136.512	24.008	974.491	790.017
137.527	24.008	973.542	789.177
138.541	23.961	973.189	788.616
139.556	23.956	972.222	787.738
140.570	24.076	971.372	787.513
141.585	24.100	970.591	786.915
142.600	24.083	969.212	785.653
143.614	24.214	968.602	785.667
144.629	24.301	967.925	785.433
145.643	24.208	966.708	783.965
146.658	23.842	965.553	781.352
147.673	23.930	964.144	780.526
148.687	23.811	963.454	779.379
149.702	23.740	962.421	778.162
150.716	23.717	961.988	777.641
151.731	23.840	961.080	777.376
152.746	24.049	960.109	777.435
153.760	24.061	959.649	777.049
154.775	24.193	959.337	777.299
155.789	24.015	958.061	775.423
156.804	24.029	957.278	774.782
157.819	24.045	956.395	774.068
158.833	24.251	955.610	774.259
159.848	24.151	954.713	773.028
160.862	23.955	953.877	771.436
161.877	24.208	952.491	771.342
162.892	24.132	951.924	770.486
163.906	24.211	950.051	769.240
164.921	23.991	949.602	767.863
165.935	24.189	948.483	767.742
166.950	24.116	947.753	766.767
167.964	24.027	947.062	765.760
168.979	23.983	945.670	764.379
169.994	23.915	944.796	763.309
171.008	24.056	944.636	763.720
172.023	24.102	943.899	763.252
173.037	24.069	942.398	761.830
174.052	23.688	942.048	759.848
175.067	23.854	940.833	759.510
176.081	23.878	940.558	759.327
177.096	23.981	939.582	758.912
178.110	23.637	938.757	756.709
179.125	23.312	938.325	754.910
180.140	23.550	937.608	755.279
181.154	23.678	937.298	755.509
182.169	23.862	937.561	756.436
183.183	24.022	937.147	756.717
184.198	24.083	936.016	755.995
185.213	24.115	935.109	755.332
186.227	24.109	934.412	754.676
187.242	23.963	934.426	753.999
188.256	24.039	933.310	753.355
189.271	24.095	932.355	752.753
190.286	23.929	931.329	751.159
191.300	23.233	929.999	747.083
192.315	22.510	928.035	742.394
193.329	22.501	927.637	741.971
194.344	23.272	928.514	745.858
195.359	23.933	928.454	748.523
196.373	24.022	927.979	748.450
197.388	23.853	927.000	746.885
198.402	24.010	926.565	747.127
199.417	23.954	925.962	746.338
200.432	23.766	924.754	744.514
201.446	23.574	924.044	743.069
202.461	23.560	923.489	742.499
203.475	22.768	921.973	737.906
204.490	21.939	920.434	733.145
205.504	22.915	920.533	737.235
206.519	23.488	920.493	739.528
207.534	23.528	920.198	739.391
208.548	24.087	919.683	741.243
209.563	23.861	918.962	739.655
210.577	23.557	918.273	737.769
211.592	24.160	918.051	740.034
212.607	24.212	917.190	739.491
213.621	24.179	916.424	738.670
214.636	24.051	915.808	737.577
215.650	24.131	914.972	737.172
216.665	24.344	914.346	737.481
217.680	24.230	913.787	736.494
218.694	23.715	912.581	733.329
219.709	23.693	912.113	732.798
220.723	23.824	911.866	733.075
221.738	24.069	910.894	733.240
222.753	24.037	910.379	732.628
223.767	24.090	909.836	732.344
224.782	24.144	909.714	732.405
225.796	24.177	909.121	731.996
226.811	23.539	907.558	728.055
227.826	22.876	906.451	724.387
228.840	23.152	905.738	724.882
229.855	23.228	905.028	724.561
230.869	22.984	903.802	722.520
231.884	23.204	903.927	723.455
232.899	23.970	904.088	726.647
233.913	23.944	903.476	725.985
234.928	23.881	902.939	725.235
235.942	23.902	902.135	724.611
236.957	23.683	900.897	722.659
237.972	23.456	900.873	721.653
238.986	23.566	900.041	721.370
240.001	23.660	899.457	721.220
241.015	23.775	898.770	721.073
242.030	23.945	898.386	721.388
243.045	23.996	898.248	721.420
244.059	24.021	897.925	721.199
245.074	24.000	896.497	719.903
246.088	23.687	895.625	717.876
247.103	23.857	895.604	718.483
248.117	24.431	895.265	720.465
249.132	24.631	895.133	721.099
250.147	24.676	894.841	720.982
251.161	24.896	893.945	721.084
252.176	24.813	893.515	720.340
253.190	24.942	892.800	720.216
254.205	25.001	892.277	719.970
255.220	24.903	892.013	719.298
256.234	24.740	891.437	718.115
257.249	24.719	890.340	717.083
258.263	24.801	889.652	716.795
259.278	24.833	888.856	716.219
260.293	24.868	888.790	716.241
261.307	24.780	887.613	714.880
262.322	24.767	886.789	714.098
263.336	24.007	884.668	709.301
264.351	22.904	883.007	703.515
265.366	22.919	882.755	703.315
266.380	24.051	883.566	708.406
267.395	24.430	883.242	709.591
268.409	24.452	882.697	709.176
269.424	24.750	881.919	709.672
270.439	24.774	881.500	709.367
271.453	24.679	880.996	708.523
272.468	24.786	880.645	708.601
273.482	24.905	880.283	708.717
274.497	24.583	878.857	706.233
275.512	24.140	878.029	703.756
276.526	24.592	877.959	705.423
277.541	24.844	877.382	705.890
278.555	24.609	876.791	704.426
279.570	24.505	875.904	703.244
280.585	24.486	875.543	702.817
281.599	24.560	874.641	702.321
282.614	24.070	873.115	699.110
283.628	23.970	872.402	698.085
284.643	24.257	872.319	699.081
285.657	23.961	871.371	697.100
286.672	23.657	870.509	695.161
287.687	24.222	870.621	697.399
288.701	24.245	869.863	696.818
289.716	24.055	869.169	695.458
290.730	23.972	868.698	694.697
291.745	23.610	867.643	692.378
292.760	23.806	867.638	693.080
293.774	24.938	867.697	697.479
294.789	25.381	867.529	699.004
295.803	25.238	866.976	697.942
296.818	25.291	866.382	697.606
297.833	24.749	865.199	694.488
298.847	24.667	864.678	693.692
299.862	25.153	864.355	695.257
300.876	25.237	864.045	695.269
301.891	25.152	862.973	694.019
302.906	24.729	862.367	691.831
303.920	24.957	861.607	692.043
304.935	25.341	861.339	693.248
305.949	25.017	861.204	691.828
306.964	25.010	860.497	691.170
307.979	24.900	860.106	690.372
308.993	25.278	859.827	691.543
310.008	25.263	859.130	690.863
311.022	25.073	858.348	689.443
312.037	25.101	857.279	688.633
313.052	24.666	857.030	686.700
314.066	23.891	855.263	682.249
315.081	23.394	854.808	679.922
316.095	24.364	855.073	683.793
317.110	24.805	854.507	684.968
318.125	24.090	853.009	680.973
319.139	23.094	851.583	675.968
320.154	23.122	851.364	675.843
321.168	23.872	851.466	678.730
322.183	24.657	851.749	681.891
323.197	24.519	851.840	681.374
324.212	24.995	851.063	682.510
325.227	24.944	850.584	681.871
326.241	24.821	849.777	680.693
327.256	24.706	849.198	679.733
328.270	24.635	848.692	679.000
329.285	24.486	847.733	677.608
330.300	24.375	846.780	676.364
331.314	24.574	846.698	676.992
332.329	24.932	846.633	678.238
333.343	25.074	846.486	678.595
334.358	25.201	845.487	678.217
335.373	25.097	845.673	677.913
336.387	25.347	845.354	678.540
337.402	25.480	845.214	678.872
338.416	25.383	844.901	678.193
339.431	25.522	844.798	678.575
340.446	25.635	844.246	678.497
341.460	25.463	843.771	677.406
342.475	25.405	843.299	676.751
343.489	25.473	842.584	676.373
344.504	25.630	842.526	676.855
345.519	25.805	842.082	677.098
346.533	25.996	841.600	677.368
347.548	25.897	841.121	676.550
348.562	25.741	840.659	675.534
349.577	25.697	839.760	674.588
350.592	25.737	839.081	674.131
351.606	25.794	838.607	673.905
352.621	25.779	837.429	672.842
353.635	25.517	837.222	671.638
354.650	24.937	835.653	668.158
355.665	24.066	833.792	663.365
356.679	24.327	833.921	664.380
357.694	24.768	833.559	665.676
358.708	24.785	832.647	664.953
359.723	25.078	832.775	666.084
360.738	25.522	832.197	667.210
361.752	25.617	832.016	667.361
362.767	25.889	831.705	668.060
363.781	26.069	831.307	668.347
364.796	26.267	830.746	668.571
365.810	26.286	830.431	668.327
366.825	26.240	830.093	667.827
367.840	25.876	829.144	665.660
368.854	25.577	828.246	663.775
369.869	25.568	827.726	663.267
370.883	25.671	827.110	663.094
371.898	25.392	827.434	662.269
372.913	25.556	827.108	662.552
373.927	25.676	826.593	662.524
374.942	25.876	826.147	662.844
375.956	25.873	825.714	662.428
376.971	26.034	825.453	662.749
377.986	26.171	824.964	662.803
379.000	26.047	824.098	661.592
380.015	25.965	823.762	660.961
381.029	25.989	822.897	660.299
382.044	26.229	822.464	660.770
383.059	26.421	821.860	660.929
384.073	26.361	821.332	660.226
385.088	26.107	821.064	659.025
386.102	25.973	820.218	657.800
387.117	26.026	819.044	656.992
388.132	25.582	818.273	654.701
389.146	24.936	817.678	651.817
390.161	25.504	817.066	653.335
391.175	25.941	817.138	654.922
392.190	25.503	816.533	652.789
393.205	24.244	814.198	646.301
394.219	22.731	812.349	639.299
395.234	22.645	812.121	638.753
396.248	24.219	813.595	645.563
397.263	25.872	814.437	652.163
398.278	25.844	813.884	651.558
399.292	25.525	813.261	649.852
400.307	25.511	812.673	649.273
401.321	25.631	812.378	649.413
402.336	25.978	812.514	650.718
403.350	26.457	812.171	652.110
404.365	26.580	812.142	652.474
405.380	26.834	812.115	653.308
406.394	26.983	811.407	653.218
407.409	26.909	810.782	652.391
408.423	26.750	810.545	651.572
409.438	27.029	810.053	652.119
410.453	26.950	809.586	651.401
411.467	26.948	808.829	650.729
412.482	26.808	808.596	649.982
413.496	27.007	808.257	650.365
414.511	26.860	807.958	649.540
415.526	27.052	807.221	649.578
416.540	26.827	806.559	648.181
417.555	26.442	806.056	646.346
418.569	26.627	805.450	646.463
419.584	26.668	804.926	646.132
420.599	26.446	804.623	645.039
421.613	91.402	1255.167	1351.531
422.628	78.281	1320.843	1351.655
