DTS Sentinel unit serial number:	SN413079Multiplexer serial number:	ORYXHardware model number:	OX4-SRSoftware version number:	ORYX F/W v4.00 Oryx Data Collector v3.7.2.0data status	okinstallation	princeton_trtdifferential loss correction	single-endedforward channel	channel 1reverse channel	N/Adate	2019/09/18time	00:18:35forward acquisition time	60.00reverse acquisition time	0.00gamma	496.2192k internal	0.2340k external	0.2340temperature offset calibration	0.9980default loss term (dB/km)	0.3790temperature slope calibration	1.0000multiplexer offset coefficient	1.0000multiplexer slope coefficient	1.0000fibre end	0.00T internal ref (°C)	23.67T ext. ref 1 (°C)	0.17T ext. ref 2 (°C)	17.21length (m)	temperature (°C)	Stokes	anti-Stokes-747.200	121.218	0.062	-0.077
-746.185	180.513	-0.158	0.233
-745.171	-106.878	0.357	-0.079
-744.156	31.069	0.093	0.080
-743.142	-200.000	-0.011	-0.191
-742.127	142.316	-0.053	-0.070
-741.112	-71.333	0.087	-0.032
-740.098	800.000	-0.067	0.284
-739.083	800.000	0.036	0.148
-738.069	-94.740	-0.139	-0.038
-737.054	-110.729	-0.252	-0.052
-736.039	-85.104	-0.416	-0.130
-735.025	7.092	0.138	0.103
-734.010	-96.667	-0.443	-0.117
-732.996	-132.688	0.245	-0.031
-731.981	49.097	0.222	0.209
-730.966	-117.248	0.301	-0.055
-729.952	144.637	-0.288	-0.386
-728.937	67.846	-0.244	0.250
-727.923	-69.965	-0.136	-0.052
-726.908	-28.569	0.241	-0.139
-725.894	84.571	-0.047	0.052
-724.879	267.400	-0.148	-0.259
-723.864	-32.890	0.262	0.146
-722.850	-61.226	-0.358	-0.151
-721.835	-47.552	0.110	-0.054
-720.821	-200.000	0.001	0.373
-719.806	-44.645	-0.144	-0.072
-718.791	348.123	-0.122	0.242
-717.777	-57.100	-0.121	0.054
-716.762	-200.000	0.004	0.084
-715.748	-120.035	-0.236	0.041
-714.733	-14.675	0.083	0.053
-713.718	86.476	-0.133	0.146
-712.704	-18.939	0.177	-0.110
-711.689	146.891	-0.252	-0.339
-710.675	216.481	0.099	-0.157
-709.660	416.852	-0.074	-0.158
-708.645	-89.391	0.209	0.062
-707.631	-200.000	0.006	-0.072
-706.616	800.000	-0.057	-0.168
-705.602	-99.474	-0.159	0.040
-704.587	-200.000	-0.023	-0.195
-703.572	-125.837	0.191	-0.029
-702.558	592.145	0.071	0.176
-701.543	395.335	-0.084	-0.174
-700.529	603.777	0.070	0.175
-699.514	137.600	-0.049	-0.065
-698.499	800.000	0.002	0.010
-697.485	54.558	0.166	0.160
-696.470	-127.786	-0.133	-0.019
-695.456	-200.000	0.004	-0.044
-694.441	104.247	0.194	-0.228
-693.426	-149.498	-0.254	-0.020
-692.412	22.799	0.098	-0.080
-691.397	-136.635	-0.259	0.030
-690.383	800.000	-0.055	-0.224
-689.368	463.247	-0.108	-0.241
-688.354	-17.498	-0.145	0.091
-687.339	-200.000	-0.060	-0.467
-686.324	-200.000	0.023	-0.138
-685.310	-24.628	-0.155	0.092
-684.295	-52.396	-0.119	-0.055
-683.281	-200.000	0.019	-0.121
-682.266	-12.568	-0.286	-0.187
-681.251	-200.000	0.035	-0.269
-680.237	177.984	-0.116	-0.169
-679.222	21.049	0.116	0.094
-678.208	90.713	0.260	0.291
-677.193	-130.361	-0.201	0.027
-676.178	-16.467	-0.123	-0.078
-675.164	-48.930	0.206	-0.099
-674.149	-200.000	-0.008	-0.170
-673.135	-49.479	-0.191	-0.091
-672.120	800.000	-0.064	0.181
-671.105	-200.000	0.064	-0.308
-670.091	-200.000	-0.034	0.269
-669.076	139.967	0.216	-0.284
-668.062	-104.972	0.336	0.077
-667.047	6.069	-0.159	0.117
-666.032	7.645	-0.090	-0.068
-665.018	-158.146	0.293	-0.017
-664.003	800.000	-0.066	0.192
-662.989	-51.094	-0.363	-0.170
-661.974	-200.000	-0.046	0.483
-660.959	-200.000	-0.013	-0.253
-659.945	-94.026	0.203	0.056
-658.930	114.791	-0.033	-0.040
-657.916	27.518	0.251	0.211
-656.901	3.756	-0.051	0.037
-655.886	-200.000	0.176	0.000
-654.872	800.000	0.051	0.208
-653.857	-83.313	-0.188	-0.060
-652.843	642.712	0.070	-0.177
-651.828	-127.414	-0.329	0.048
-650.814	-169.035	-0.138	-0.005
-649.799	25.778	0.137	-0.114
-648.784	-135.376	-0.290	0.035
-647.770	-178.821	-0.229	0.005
-646.755	169.532	-0.177	-0.253
-645.741	231.666	-0.077	0.126
-644.726	3.325	0.192	-0.140
-643.711	-104.661	0.189	0.044
-642.697	-142.377	-0.236	0.023
-641.682	141.344	0.245	0.324
-640.668	-89.992	0.067	0.020
-639.653	-200.000	0.005	0.120
-638.638	-200.000	0.008	-0.280
-637.624	591.120	0.107	-0.263
-636.609	54.492	0.010	-0.010
-635.595	-200.000	0.009	-0.095
-634.580	-141.233	-0.169	-0.017
-633.565	180.570	-0.228	-0.334
-632.551	343.755	-0.106	0.206
-631.536	-200.000	0.017	-0.419
-630.522	800.000	0.111	0.341
-629.507	213.656	-0.043	-0.068
-628.492	438.493	0.153	0.334
-627.478	-93.949	-0.194	-0.053
-626.463	143.135	-0.241	-0.320
-625.449	-197.601	-0.167	-0.001
-624.434	85.684	-0.192	-0.210
-623.419	-200.000	-0.036	0.246
-622.405	-24.291	0.165	-0.098
-621.390	-200.000	0.063	0.279
-620.376	40.060	0.173	0.155
-619.361	325.231	0.092	0.175
-618.346	283.272	0.159	-0.284
-617.332	531.996	0.063	-0.148
-616.317	-143.881	0.416	-0.039
-615.303	800.000	-0.097	-0.425
-614.288	572.680	-0.133	-0.323
-613.273	-127.189	-0.101	0.015
-612.259	-200.000	0.020	-0.141
-611.244	-4.060	-0.358	0.247
-610.230	47.997	-0.079	0.074
-609.215	21.454	-0.271	-0.220
-608.201	0.660	0.228	-0.163
-607.186	446.149	-0.139	-0.305
-606.171	-26.553	-0.086	-0.050
-605.157	-19.899	0.156	-0.096
-604.142	800.000	0.006	-0.024
-603.128	-87.817	-0.070	0.021
-602.113	-47.371	0.129	-0.063
-601.098	-138.628	-0.228	0.025
-600.084	-66.825	-0.219	-0.086
-599.069	-156.653	0.199	-0.012
-598.055	141.538	-0.024	0.032
-597.040	-111.649	0.320	0.065
-596.025	-200.000	0.058	-0.492
-595.011	511.371	-0.083	-0.193
-593.996	64.543	-0.056	0.056
-592.982	363.830	-0.113	0.227
-591.967	800.000	0.076	0.236
-590.952	-14.047	-0.241	0.155
-589.938	360.080	-0.072	-0.144
-588.923	-200.000	-0.025	-0.180
-587.909	-200.000	-0.049	-0.311
-586.894	-11.037	-0.259	-0.170
-585.879	-45.418	-0.276	-0.137
-584.865	-160.296	-0.127	-0.007
-583.850	-12.823	-0.131	0.085
-582.836	-78.532	0.266	0.091
-581.821	-81.078	-0.214	0.071
-580.806	242.808	-0.146	0.243
-579.792	800.000	-0.011	0.034
-578.777	206.909	0.145	0.225
-577.763	-11.767	0.336	0.219
-576.748	-75.301	0.108	-0.038
-575.733	59.566	-0.191	-0.187
-574.719	316.306	-0.095	0.178
-573.704	6.779	0.050	0.037
-572.690	-88.981	-0.111	-0.033
-571.675	-39.962	0.082	0.043
-570.661	96.011	0.219	-0.250
-569.646	-104.522	0.473	-0.109
-568.631	-85.975	0.162	0.050
-567.617	57.562	-0.067	0.065
-566.602	-200.000	-0.022	0.227
-565.588	-200.000	0.022	0.135
-564.573	-42.797	0.340	-0.172
-563.558	28.913	0.316	0.267
-562.544	800.000	-0.067	-0.195
-561.529	152.440	0.242	0.329
-560.515	15.537	0.019	0.015
-559.500	-175.932	-0.294	0.008
-558.485	33.212	0.148	-0.128
-557.471	64.463	0.128	-0.128
-556.456	-200.000	-0.029	-0.352
-555.442	-200.000	0.053	-0.356
-554.427	-0.179	0.133	0.094
-553.412	-147.628	-0.278	0.023
-552.398	-94.683	-0.161	0.044
-551.383	615.069	0.100	-0.248
-550.369	27.804	0.191	-0.160
-549.354	198.714	-0.145	0.221
-548.339	22.292	-0.208	0.169
-547.325	-168.683	0.325	0.012
-546.310	-3.091	-0.126	-0.087
-545.296	239.231	-0.144	-0.237
-544.281	-200.000	-0.074	-0.462
-543.266	800.000	0.057	0.163
-542.252	800.000	-0.091	-0.312
-541.237	-73.966	0.228	-0.082
-540.223	-41.801	-0.205	0.104
-539.208	-101.210	-0.455	-0.111
-538.193	689.783	0.048	-0.125
-537.179	-100.229	0.109	0.027
-536.164	800.000	0.030	0.119
-535.150	-138.882	-0.312	0.034
-534.135	-200.000	-0.025	0.154
-533.121	94.207	0.146	0.165
-532.106	-96.400	-0.294	0.077
-531.091	24.410	-0.104	-0.086
-530.077	175.074	-0.209	-0.300
-529.062	6.375	-0.426	-0.314
-528.048	108.247	-0.223	-0.264
-527.033	800.000	-0.052	-0.180
-526.018	800.000	0.046	0.135
-525.004	-42.694	-0.187	0.094
-523.989	230.768	0.096	0.155
-522.975	178.881	-0.149	0.217
-521.960	539.728	0.043	0.101
-520.945	-200.000	-0.040	-0.222
-519.931	800.000	-0.055	0.179
-518.916	-164.044	0.308	-0.014
-517.902	58.368	-0.169	0.165
-516.887	-152.762	-0.247	0.017
-515.872	99.174	0.161	0.185
-514.858	800.000	-0.083	0.277
-513.843	-197.154	-0.282	0.002
-512.829	-135.522	0.380	-0.045
-511.814	-31.079	-0.472	-0.264
-510.799	258.534	-0.188	0.322
-509.785	-200.000	0.010	-0.049
-508.770	76.567	-0.128	0.135
-507.756	-23.864	-0.234	0.139
-506.741	-200.000	0.023	-0.265
-505.726	800.000	-0.035	-0.110
-504.712	-200.000	0.015	0.080
-503.697	14.556	0.129	0.100
-502.683	-60.991	0.204	-0.086
-501.668	771.068	-0.055	0.148
-500.653	-174.693	0.250	0.007
-499.639	-28.288	0.018	0.010
-498.624	320.830	0.123	0.232
-497.610	-33.306	0.200	-0.110
-496.595	290.903	0.096	0.173
-495.581	-193.092	-0.166	-0.001
-494.566	-23.659	-0.130	0.077
-493.551	40.872	-0.266	0.238
-492.537	-74.051	0.232	0.084
-491.522	2.199	0.153	0.110
-490.508	-200.000	0.000	-0.076
-489.493	-200.000	-0.009	-0.056
-488.478	-200.000	0.001	-0.105
-487.464	84.196	0.055	-0.059
-486.449	-200.000	-0.055	0.253
-485.435	-0.259	-0.133	0.094
-484.420	-58.044	-0.077	0.033
-483.405	154.334	0.328	-0.447
-482.391	800.000	-0.039	-0.128
-481.376	4.017	-0.132	-0.096
-480.362	191.746	0.071	0.107
-479.347	-200.000	0.024	0.299
-478.332	-21.745	0.126	0.076
-477.318	-83.241	0.135	-0.043
-476.303	198.765	0.032	0.049
-475.289	-50.675	0.165	-0.077
-474.274	-200.000	0.040	0.275
-473.259	769.003	-0.094	0.254
-472.245	-200.000	-0.003	0.065
-471.230	-100.380	-0.411	0.101
-470.216	-25.643	-0.236	-0.138
-469.201	11.710	0.108	-0.082
-468.186	-134.403	-0.367	0.045
-467.172	-151.565	0.061	-0.004
-466.157	106.608	-0.089	-0.105
-465.143	99.664	0.277	0.317
-464.128	-39.873	-0.287	-0.148
-463.113	187.314	-0.287	0.425
-462.099	-3.126	0.157	0.109
-461.084	114.511	0.233	-0.282
-460.070	-200.000	-0.008	0.150
-459.055	-51.855	0.125	-0.057
-458.040	-49.342	0.290	0.137
-457.026	98.288	0.113	-0.129
-456.011	180.280	-0.148	-0.215
-454.997	-200.000	0.022	-0.148
-453.982	800.000	-0.095	-0.304
-452.968	-47.768	0.252	-0.121
-451.953	-200.000	0.001	0.032
-450.938	246.241	0.056	-0.094
-449.924	-200.000	0.013	0.144
-448.909	-68.143	-0.189	-0.073
-447.895	-166.382	0.287	-0.012
-446.880	-95.802	-0.353	0.093
-445.865	-41.235	0.122	-0.062
-444.851	-64.783	0.331	0.133
-443.836	-71.702	-0.148	0.055
-442.822	-161.264	0.240	0.012
-441.807	5.469	-0.158	-0.116
-440.792	54.216	0.104	0.099
-439.778	50.419	0.116	0.109
-438.763	-200.000	0.007	-0.069
-437.749	215.260	-0.091	0.144
-436.734	-115.331	-0.498	-0.093
-435.719	180.147	0.127	-0.184
-434.705	-78.895	-0.250	0.084
-433.690	-42.708	0.176	-0.089
-432.676	-200.000	0.006	-0.075
-431.661	-115.674	0.134	-0.025
-430.646	42.095	-0.221	-0.198
-429.632	-128.977	0.097	-0.013
-428.617	-200.000	0.497	0.001
-427.603	-27.717	0.114	-0.065
-426.588	-91.587	-0.265	0.075
-425.573	338.227	-0.135	0.261
-424.559	-68.198	-0.066	-0.026
-423.544	58.351	-0.296	-0.287
-422.530	-200.000	0.006	-0.065
-421.515	-40.682	0.072	0.037
-420.500	-131.114	0.089	-0.012
-419.486	800.000	0.096	-0.395
-418.471	-200.000	0.008	-0.124
-417.457	-200.000	-0.035	0.182
-416.442	71.154	0.200	-0.205
-415.428	-50.127	0.071	-0.033
-414.413	-66.871	-0.402	0.157
-413.398	-127.785	0.224	-0.032
-412.384	800.000	-0.085	-0.327
-411.369	-200.000	-0.025	0.175
-410.355	17.197	0.116	0.091
-409.340	262.126	-0.056	-0.096
-408.325	128.001	-0.293	-0.369
-407.311	-74.321	0.504	-0.180
-406.296	-200.000	-0.011	-0.202
-405.282	150.465	0.111	0.149
-404.267	800.000	-0.061	0.200
-403.252	614.343	-0.042	-0.104
-402.238	615.294	0.023	0.058
-401.223	112.509	-0.157	-0.188
-400.209	-103.234	0.295	-0.069
-399.194	-104.296	0.195	0.045
-398.179	289.206	0.140	0.251
-397.165	-94.430	-0.298	-0.080
-396.150	800.000	0.065	-0.190
-395.136	698.527	0.008	0.021
-394.121	38.658	0.101	-0.089
-393.106	41.225	-0.147	0.131
-392.092	3.617	0.156	-0.113
-391.077	-145.608	0.081	0.007
-390.063	93.153	0.021	0.023
-389.048	15.194	-0.121	-0.094
-388.033	-200.000	-0.066	0.358
-387.019	-129.417	-0.338	-0.046
-386.004	-32.977	0.248	0.136
-384.990	-60.295	0.043	-0.018
-383.975	800.000	-0.032	-0.134
-382.960	540.421	-0.228	0.537
-381.946	-74.287	0.510	-0.182
-380.931	234.316	-0.034	0.056
-379.917	-148.496	0.406	0.033
-378.902	69.462	-0.135	0.137
-377.888	-200.000	0.012	-0.072
-376.873	496.720	-0.176	-0.400
-375.858	98.059	0.315	0.358
-374.844	-148.638	0.211	0.017
-373.829	-19.955	0.359	0.219
-372.815	800.000	-0.057	-0.218
-371.800	134.101	-0.071	0.091
-370.785	-158.956	-0.240	-0.013
-369.771	-200.000	0.007	-0.248
-368.756	343.098	0.052	0.101
-367.742	255.105	0.094	0.159
-366.727	288.150	0.010	0.018
-365.712	-200.000	-0.006	-0.128
-364.698	-76.987	-0.084	0.029
-363.683	120.777	-0.107	0.131
-362.669	-200.000	-0.064	0.290
-361.654	-126.627	0.060	0.009
-360.639	-99.334	0.235	-0.059
-359.625	-60.405	0.051	0.021
-358.610	217.652	0.099	-0.155
-357.596	-7.569	-0.143	-0.095
-356.581	-106.307	-0.074	-0.016
-355.566	-20.213	0.138	0.084
-354.552	80.223	-0.100	-0.106
-353.537	15.460	0.127	-0.098
-352.523	-200.000	0.012	-0.054
-351.508	103.687	0.107	0.124
-350.493	800.000	-0.034	-0.123
-349.479	-200.000	0.038	0.213
-348.464	311.026	0.192	0.356
-347.450	-200.000	0.009	-0.135
-346.435	97.598	-0.065	-0.074
-345.420	-161.017	-0.089	-0.005
-344.406	-200.000	-0.009	-0.116
-343.391	-29.870	0.169	0.095
-342.377	558.831	-0.012	0.030
-341.362	-116.595	0.039	-0.007
-340.348	-101.773	-0.059	-0.014
-339.333	-107.999	-0.374	-0.080
-338.318	683.317	-0.033	0.084
-337.304	-141.578	-0.240	-0.024
-336.289	-71.131	-0.400	-0.148
-335.275	-16.629	0.378	0.236
-334.260	87.281	0.302	0.330
-333.245	800.000	-0.130	-0.410
-332.231	35.460	0.076	0.066
-331.216	241.221	-0.019	-0.031
-330.202	117.747	0.097	0.118
-329.187	55.950	-0.203	0.194
-328.172	-171.075	-0.188	0.006
-327.158	-61.895	-0.249	-0.103
-326.143	46.168	-0.110	0.101
-325.129	-200.000	0.007	0.256
-324.114	64.412	-0.164	0.162
-323.099	-200.000	0.053	0.355
-322.085	-200.000	0.032	-0.317
-321.070	592.433	-0.070	-0.171
-320.056	407.788	-0.151	0.315
-319.041	163.497	-0.158	0.219
-318.026	7.663	0.217	0.160
-317.012	78.747	0.200	0.211
-315.997	52.066	0.126	-0.118
-314.983	800.000	-0.046	-0.168
-313.968	148.399	0.113	0.151
-312.953	92.429	0.204	-0.227
-311.939	395.141	0.081	-0.166
-310.924	-29.477	-0.159	0.090
-309.910	-200.000	0.054	-0.237
-308.895	277.521	0.172	-0.302
-307.880	800.000	0.048	-0.137
-306.866	-157.155	-0.199	0.012
-305.851	3.876	0.258	-0.186
-304.837	450.954	-0.065	-0.141
-303.822	-21.676	-0.208	-0.125
-302.807	-11.799	0.351	-0.227
-301.793	800.000	0.103	0.328
-300.778	89.643	-0.073	-0.080
-299.764	-94.429	-0.186	0.050
-298.749	-200.000	-0.009	0.099
-297.735	506.464	0.096	0.220
-296.720	-26.627	0.375	0.216
-295.705	-135.721	0.177	0.021
-294.691	-200.000	-0.067	-0.339
-293.676	75.308	0.291	0.302
-292.662	403.870	0.183	0.380
-291.647	-200.000	-0.021	0.188
-290.632	-142.629	0.187	0.018
-289.618	-121.297	-0.164	-0.027
-288.603	-112.487	0.324	-0.064
-287.589	-74.702	-0.242	-0.086
-286.574	800.000	-0.006	0.027
-285.559	-76.004	-0.063	-0.022
-284.545	-77.007	0.251	0.086
-283.530	232.738	0.165	-0.266
-282.516	800.000	-0.036	0.125
-281.501	-200.000	0.004	0.035
-280.486	-200.000	0.045	0.224
-279.472	96.460	0.068	0.077
-278.457	217.404	-0.152	-0.239
-277.443	126.650	-0.021	0.027
-276.428	-200.000	0.020	0.175
-275.413	286.112	0.138	-0.245
-274.399	800.000	0.034	0.128
-273.384	-34.824	-0.198	-0.107
-272.370	225.075	0.038	0.061
-271.355	229.311	0.220	-0.353
-270.340	83.977	-0.155	0.167
-269.326	118.863	0.234	-0.285
-268.311	341.440	0.064	0.124
-267.297	-57.966	-0.181	0.078
-266.282	-200.000	0.024	0.129
-265.267	-14.288	-0.150	0.095
-264.253	81.021	-0.006	-0.007
-263.238	489.907	0.119	-0.268
-262.224	278.626	-0.124	0.217
-261.209	689.044	0.089	0.229
-260.195	395.212	-0.053	-0.110
-259.180	-124.687	0.116	-0.018
-258.165	51.707	0.031	0.029
-257.151	-157.641	0.358	0.021
-256.136	199.653	-0.038	0.058
-255.122	-21.194	-0.196	0.118
-254.107	800.000	0.019	0.058
-253.092	-105.518	-0.238	0.053
-252.078	800.000	-0.035	-0.147
-251.063	-33.502	-0.221	0.120
-250.049	241.288	-0.184	0.302
-249.034	313.446	0.146	-0.270
-248.019	187.400	0.172	-0.252
-247.005	47.223	0.175	-0.160
-245.990	120.433	0.298	0.364
-244.976	-146.924	0.259	-0.022
-243.961	-139.776	-0.181	0.019
-242.946	101.977	-0.092	-0.105
-241.932	-143.344	0.203	0.019
-240.917	293.542	0.084	0.151
-239.903	800.000	0.077	0.286
-238.888	-47.202	-0.119	0.057
-237.873	45.241	0.030	-0.027
-236.859	332.010	0.153	0.291
-235.844	-141.440	0.145	0.014
-234.830	206.304	0.187	0.286
-233.815	422.989	-0.136	0.288
-232.800	3.299	-0.218	0.156
-231.786	-38.357	-0.203	0.105
-230.771	145.195	-0.067	-0.088
-229.757	15.266	-0.007	0.005
-228.742	800.000	0.025	-0.073
-227.727	20.029	0.143	0.113
-226.713	204.125	-0.084	0.128
-225.698	-100.793	0.059	-0.014
-224.684	-132.218	0.174	0.022
-223.669	-200.000	-0.002	-0.280
-222.655	800.000	-0.065	0.177
-221.640	512.993	0.048	0.110
-220.625	-92.656	-0.324	0.089
-219.611	287.667	-0.187	-0.333
-218.596	19.859	-0.064	-0.051
-217.582	646.860	0.059	-0.149
-216.567	-127.922	0.232	-0.033
-215.552	31.789	0.041	-0.035
-214.538	-200.000	-0.025	0.267
-213.523	232.339	-0.220	0.355
-212.509	-88.734	-0.191	0.056
-211.494	384.186	-0.220	-0.444
-210.479	171.816	0.298	-0.420
-209.465	-136.292	-0.053	-0.006
-208.450	227.691	0.036	0.058
-207.436	-200.000	-0.009	-0.069
-206.421	32.491	-0.132	-0.112
-205.406	-35.253	-0.112	-0.060
-204.392	74.633	-0.109	0.112
-203.377	88.297	0.060	0.066
-202.363	-64.277	0.118	0.047
-201.348	741.490	0.009	-0.023
-200.333	-27.762	0.091	0.052
-199.319	-93.532	-0.037	-0.010
-198.304	132.111	-0.210	0.265
-197.290	-200.000	-0.037	0.179
-196.275	85.984	-0.139	0.150
-195.260	-80.417	-0.355	0.116
-194.246	320.634	0.035	0.065
-193.231	-127.167	0.257	-0.037
-192.217	491.715	-0.125	-0.281
-191.202	-200.000	0.029	-0.142
-190.187	368.171	0.051	0.102
-189.173	79.851	0.145	0.152
-188.158	11.833	0.066	0.050
-187.144	-200.000	0.035	0.166
-186.129	-177.246	0.119	-0.003
-185.114	15.184	-0.320	-0.246
-184.100	7.711	0.193	0.142
-183.085	-23.737	0.150	0.088
-182.071	-200.000	0.039	-0.266
-181.056	-163.093	0.251	0.012
-180.042	-113.916	0.221	-0.042
-179.027	-172.684	-0.304	-0.009
-178.012	800.000	0.115	0.331
-176.998	-51.446	-0.252	-0.116
-175.983	25.680	-0.302	-0.247
-174.969	-200.000	-0.060	-0.374
-173.954	-79.830	0.049	-0.016
-172.939	-107.381	0.206	-0.044
-171.925	-129.246	-0.232	0.032
-170.910	-200.000	0.006	-0.174
-169.896	21.634	-0.114	0.091
-168.881	297.727	-0.142	0.256
-167.866	134.642	0.044	-0.056
-166.852	1.797	0.180	0.127
-165.837	-200.000	-0.005	-0.110
-164.823	-165.485	-0.121	-0.005
-163.808	-116.859	0.144	-0.026
-162.793	7.634	-0.070	0.051
-161.779	53.657	0.139	0.131
-160.764	-81.879	-0.080	-0.026
-159.750	-127.633	-0.200	0.028
-158.735	-97.507	0.236	-0.060
-157.720	-74.088	0.175	0.062
-156.706	-20.647	0.065	0.039
-155.691	-86.752	-0.308	0.092
-154.677	-115.127	0.146	0.027
-153.662	-46.414	0.176	-0.085
-152.647	-73.532	-0.189	-0.068
-151.633	19.122	-0.056	0.044
-150.618	89.972	0.160	0.175
-149.604	800.000	0.049	0.148
-148.589	383.330	-0.123	-0.249
-147.574	-200.000	0.016	-0.116
-146.560	-123.352	-0.275	-0.043
-145.545	-71.865	0.497	-0.181
-144.531	1.641	0.361	0.254
-143.516	-159.870	-0.330	0.018
-142.502	-163.946	0.095	0.004
-141.487	-200.000	0.017	0.320
-140.472	-0.962	-0.306	0.212
-139.458	40.385	-0.200	0.176
-138.443	800.000	-0.043	-0.129
-137.429	-200.000	0.009	-0.079
-136.414	72.565	0.250	-0.255
-135.399	-123.054	-0.328	0.052
-134.385	800.000	0.039	0.138
-133.370	191.883	-0.180	-0.266
-132.356	103.367	-0.108	0.124
-131.341	116.733	-0.291	0.349
-130.326	72.298	-0.157	-0.160
-129.312	800.000	-0.092	-0.296
-128.297	-96.287	-0.133	0.034
-127.283	-200.000	0.001	-0.037
-126.268	800.000	-0.057	0.186
-125.253	140.581	0.151	-0.195
-124.239	-200.000	-0.016	-0.190
-123.224	-49.459	0.247	-0.115
-122.210	-200.000	0.033	0.184
-121.195	-200.000	0.047	0.320
-120.180	800.000	-0.080	0.283
-119.166	141.627	0.137	-0.177
-118.151	133.157	-0.189	-0.239
-117.137	-200.000	-0.006	-0.037
-116.122	10.041	-0.124	0.092
-115.107	51.726	-0.111	-0.103
-114.093	-177.065	-0.043	0.001
-113.078	-200.000	0.094	-0.433
-112.064	198.922	0.066	0.099
-111.049	-200.000	-0.042	-0.276
-110.034	108.272	0.106	0.123
-109.020	294.666	-0.125	-0.223
-108.005	800.000	-0.073	-0.227
-106.991	-200.000	0.039	0.508
-105.976	-42.598	-0.117	-0.058
-104.962	-54.171	0.111	0.049
-103.947	289.087	0.067	0.119
-102.932	-135.010	-0.546	-0.064
-101.918	-65.994	0.092	0.036
-100.903	800.000	0.049	0.196
-99.889	-21.669	0.158	0.094
-98.874	440.737	0.028	0.060
-97.859	104.563	-0.024	-0.028
-96.845	-67.598	0.055	0.021
-95.830	-200.000	-0.017	0.092
-94.816	-93.802	0.366	-0.099
-93.801	6.683	-0.153	0.111
-92.786	-62.972	-0.197	0.079
-91.772	-162.928	0.091	0.004
-90.757	-200.000	-0.019	0.290
-89.743	800.000	-0.102	0.314
-88.728	-108.391	0.254	0.054
-87.713	379.758	-0.048	0.095
-86.699	-27.725	-0.173	-0.098
-85.684	197.944	0.053	0.079
-84.670	-200.000	0.002	0.011
-83.655	-200.000	0.058	0.468
-82.640	800.000	0.027	0.081
-81.626	354.097	0.078	0.151
-80.611	32.023	-0.288	-0.243
-79.597	-200.000	0.034	-0.208
-78.582	800.000	0.031	0.101
-77.567	392.369	-0.097	0.196
-76.553	-126.092	0.207	-0.030
-75.538	-74.337	-0.465	-0.164
-74.524	-200.000	-0.005	0.105
-73.509	593.280	0.075	0.180
-72.494	-43.372	-0.123	-0.061
-71.480	118.423	-0.101	0.122
-70.465	-200.000	-0.007	0.335
-69.451	302.673	-0.031	0.056
-68.436	241.989	-0.097	-0.158
-67.422	724.462	-0.098	0.256
-66.407	-114.885	-0.069	0.013
-65.392	76.120	-0.314	0.324
-64.378	141.979	-0.038	-0.050
-63.363	8.387	0.177	0.130
-62.349	800.000	-0.060	0.188
-61.334	-9.081	-1.276	-0.834
-60.319	44.870	0.790	0.710
-59.305	553.820	-0.420	-0.987
-58.290	561.502	0.716	1.690
-57.276	411.575	0.758	1.571
-56.261	-200.000	123.641	663.317
-55.246	440.242	1543.983	3292.369
-54.232	147.549	2689.809	3535.085
-53.217	97.737	2136.697	2396.662
-52.203	34.996	1579.449	1349.098
-51.188	26.927	1325.000	1083.758
-50.173	24.238	1288.123	1037.915
-49.159	52.329	1356.868	1262.610
-48.144	49.077	1368.039	1253.513
-47.130	27.073	1316.283	1077.324
-46.115	23.832	1297.379	1042.828
-45.100	23.615	1292.011	1037.201
-44.086	23.621	1289.748	1035.381
-43.071	23.529	1287.361	1032.888
-42.057	23.468	1285.847	1031.278
-41.042	23.531	1284.075	1030.177
-40.027	23.438	1283.088	1028.806
-39.013	23.605	1280.363	1027.552
-37.998	23.555	1278.796	1025.963
-36.984	23.632	1277.365	1025.219
-35.969	23.575	1275.788	1023.582
-34.954	23.721	1273.890	1022.862
-33.940	23.640	1272.673	1021.374
-32.925	23.742	1271.851	1021.262
-31.911	23.778	1269.694	1019.697
-30.896	23.829	1268.541	1019.024
-29.881	23.874	1266.972	1017.978
-28.867	23.805	1265.492	1016.355
-27.852	23.777	1264.583	1015.425
-26.838	23.789	1263.704	1014.745
-25.823	23.813	1261.924	1013.412
-24.809	23.763	1260.827	1012.206
-23.794	23.846	1259.213	1011.347
-22.779	23.764	1258.201	1010.025
-21.765	23.678	1257.085	1008.603
-20.750	23.742	1255.819	1007.909
-19.736	23.691	1254.333	1006.385
-18.721	23.637	1253.766	1005.586
-17.706	23.585	1252.742	1004.431
-16.692	23.604	1251.147	1003.219
-15.677	23.638	1249.845	1002.326
-14.663	23.651	1248.387	1001.193
-13.648	23.636	1247.319	1000.208
-12.633	23.584	1246.776	999.443
-11.619	23.596	1246.003	998.849
-10.604	23.550	1245.438	998.102
-9.590	23.625	1244.408	997.657
-8.575	23.643	1242.853	996.470
-7.560	23.637	1242.535	996.141
-6.546	23.548	1241.641	994.889
-5.531	23.505	1241.056	994.138
-4.517	23.622	1239.798	993.747
-3.502	23.661	1239.326	993.546
-2.487	23.561	1238.777	992.507
-1.473	23.563	1234.038	988.684
-0.458	21.931	1219.218	967.777
0.556	16.895	1203.779	931.320
1.571	13.309	1211.115	917.058
2.586	12.547	1226.313	924.206
3.600	12.747	1213.767	915.783
4.615	9.258	1143.299	844.239
5.629	3.094	1073.083	761.855
6.644	0.403	1056.271	736.723
7.659	0.131	1053.998	733.745
8.673	0.043	1053.483	732.893
9.688	0.103	1051.837	731.971
10.702	0.412	1049.435	731.737
11.717	4.015	1053.927	752.337
12.731	11.089	1063.212	793.478
13.746	15.768	1069.479	820.969
14.761	16.763	1069.842	826.027
15.775	16.149	1068.237	821.724
16.790	15.118	1066.424	815.243
17.804	14.508	1064.441	810.689
18.819	14.088	1063.571	807.916
19.834	13.754	1063.003	805.792
20.848	13.530	1061.807	803.727
21.863	13.392	1061.307	802.608
22.877	13.122	1060.784	800.830
23.892	13.167	1059.684	800.148
24.907	13.162	1059.131	799.632
25.921	13.312	1058.233	799.610
26.936	13.235	1057.357	798.506
27.950	13.301	1056.294	797.953
28.965	13.317	1055.386	797.274
29.980	13.307	1053.548	795.765
30.994	13.397	1052.767	795.540
32.009	13.380	1052.150	794.921
33.023	13.409	1051.152	794.237
34.038	13.378	1050.025	793.162
35.053	13.365	1048.906	792.188
36.067	13.277	1048.373	791.290
37.082	13.418	1047.235	791.039
38.096	13.456	1046.780	790.806
39.111	13.419	1046.042	790.003
40.126	13.386	1044.449	788.572
41.140	13.199	1043.638	786.999
42.155	13.229	1042.804	786.443
43.169	13.221	1041.831	785.599
44.184	13.068	1041.058	784.221
45.199	13.066	1040.232	783.522
46.213	13.262	1038.506	783.079
47.228	13.302	1037.558	782.487
48.242	13.186	1036.583	781.133
49.257	13.304	1035.689	780.945
50.271	13.290	1034.836	780.168
51.286	13.273	1034.028	779.411
52.301	13.324	1033.266	779.008
53.315	13.327	1031.714	777.780
54.330	13.244	1031.363	777.057
55.344	13.388	1029.787	776.477
56.359	13.199	1029.110	775.011
57.374	13.263	1028.253	774.600
58.388	13.218	1027.234	773.554
59.403	13.169	1027.035	773.103
60.417	13.094	1026.131	772.004
61.432	13.171	1025.004	771.448
62.447	13.095	1024.676	770.779
63.461	13.187	1023.628	770.351
64.476	13.033	1022.831	768.966
65.490	13.151	1022.139	768.929
66.505	13.358	1020.601	768.662
67.520	13.117	1020.733	767.573
68.534	13.281	1019.707	767.499
69.549	13.130	1019.143	766.305
70.563	13.147	1018.372	765.734
71.578	13.112	1017.768	765.053
72.593	13.120	1016.690	764.211
73.607	12.959	1016.347	763.140
74.622	13.245	1015.153	763.499
75.636	13.108	1014.450	762.270
76.651	13.023	1013.876	761.379
77.666	12.934	1013.782	760.828
78.680	13.148	1012.429	760.735
79.695	13.034	1012.047	759.854
80.709	13.032	1011.567	759.415
81.724	13.070	1011.089	759.166
82.739	13.234	1010.032	759.059
83.753	13.317	1009.193	758.741
84.768	13.285	1008.562	758.054
85.782	13.250	1007.648	757.137
86.797	13.306	1006.638	756.567
87.812	13.184	1006.090	755.533
88.826	13.245	1005.059	754.968
89.841	13.324	1003.670	754.219
90.855	13.353	1002.780	753.615
91.870	13.394	1002.200	753.301
92.884	13.448	1001.239	752.755
93.899	13.430	1000.690	752.197
94.914	13.437	999.319	751.131
95.928	13.470	998.801	750.824
96.943	13.418	998.284	750.132
97.957	13.342	997.413	749.067
98.972	13.432	996.353	748.613
99.987	13.327	995.689	747.571
101.001	13.394	994.224	746.711
102.016	13.378	993.867	746.303
103.030	13.462	992.761	745.784
104.045	13.348	992.415	744.947
105.060	13.419	991.440	744.467
106.074	13.321	990.759	743.451
107.089	13.305	989.588	742.435
108.103	13.328	988.218	741.445
109.118	13.219	987.483	740.339
110.133	13.232	986.924	739.912
111.147	13.233	985.767	738.981
112.162	13.290	985.326	738.843
113.176	13.314	984.327	738.132
114.191	13.338	983.546	737.590
115.206	13.459	982.491	737.272
116.220	13.245	982.646	736.373
117.235	13.321	981.027	735.432
118.249	13.375	980.283	735.046
119.264	13.339	979.773	734.439
120.279	13.305	979.099	733.718
121.293	13.375	977.709	732.923
122.308	13.308	976.987	732.020
123.322	13.199	976.321	730.975
124.337	13.185	975.459	730.203
125.352	13.222	974.228	729.380
126.366	13.194	973.160	728.390
127.381	13.254	972.288	727.939
128.395	13.326	971.212	727.386
129.410	13.348	970.115	726.596
130.424	13.371	969.566	726.223
131.439	13.410	968.825	725.774
132.454	13.237	968.253	724.522
133.468	13.397	967.148	724.332
134.483	13.365	966.389	723.560
135.497	13.357	965.661	722.917
136.512	13.279	964.937	721.970
137.527	13.210	964.183	721.038
138.541	13.373	963.263	720.998
139.556	13.326	962.685	720.299
140.570	13.341	962.168	719.914
141.585	13.482	960.781	719.424
142.600	13.537	959.930	718.960
143.614	13.610	959.350	718.782
144.629	13.490	958.848	717.820
145.643	13.368	957.719	716.386
146.658	13.541	956.200	715.932
147.673	13.442	955.633	715.016
148.687	13.417	955.039	714.400
149.702	13.387	954.412	713.739
150.716	13.519	953.162	713.308
151.731	13.433	952.678	712.512
152.746	13.447	951.949	711.964
153.760	13.509	951.169	711.586
154.775	13.585	950.738	711.527
155.789	13.607	950.034	711.033
156.804	13.666	949.067	710.497
157.819	13.648	948.671	710.060
158.833	13.607	948.204	709.472
159.848	13.883	946.908	709.622
160.862	13.601	946.447	708.008
161.877	13.658	945.253	707.296
162.892	13.475	944.390	705.806
163.906	13.496	943.890	705.460
164.921	13.533	942.738	704.692
165.935	13.503	941.879	703.862
166.950	13.570	940.869	703.331
167.964	13.645	940.194	703.082
168.979	13.609	939.485	702.335
169.994	13.624	939.028	701.994
171.008	13.819	937.902	701.916
172.023	13.747	937.272	701.081
173.037	13.713	936.760	700.491
174.052	13.720	935.979	699.873
175.067	13.733	935.300	699.361
176.081	13.631	934.774	698.472
177.096	13.602	934.175	697.840
178.110	13.674	933.545	697.613
179.125	13.752	932.985	697.461
180.140	13.715	932.499	696.881
181.154	13.814	931.956	696.830
182.169	13.847	931.450	696.525
183.183	13.877	930.930	696.202
184.198	13.956	929.833	695.650
185.213	13.970	929.352	695.287
186.227	13.947	928.764	694.691
187.242	13.905	927.862	693.778
188.256	14.011	927.265	693.715
189.271	13.958	926.410	692.791
190.286	13.780	925.885	691.595
191.300	13.710	925.448	690.916
192.315	13.768	924.829	690.635
193.329	13.824	924.217	690.347
194.344	13.890	923.335	689.902
195.359	13.865	922.761	689.309
196.373	13.867	922.815	689.296
197.388	13.976	921.543	688.739
198.402	14.079	921.114	688.785
199.417	14.160	920.592	688.669
200.432	14.111	920.188	688.103
201.446	14.164	919.634	687.847
202.461	14.044	919.000	686.816
203.475	14.158	918.680	686.985
204.490	14.055	917.555	685.660
205.504	14.168	917.028	685.668
206.519	14.102	916.213	684.727
207.534	13.978	915.905	683.929
208.548	14.136	914.816	683.703
209.563	14.208	914.228	683.500
210.577	14.200	913.935	683.187
211.592	14.253	912.606	682.349
212.607	14.316	912.006	682.101
213.621	14.253	911.761	681.596
214.636	14.192	911.037	680.745
215.650	14.334	910.075	680.548
216.665	14.517	909.138	680.535
217.680	14.456	908.790	679.962
218.694	14.177	908.327	678.419
219.709	14.262	907.746	678.274
220.723	14.313	906.914	677.797
221.738	14.418	906.051	677.521
222.753	14.380	905.201	676.670
223.767	14.476	904.645	676.583
224.782	14.561	904.094	676.459
225.796	14.551	903.394	675.835
226.811	14.506	902.969	675.274
227.826	14.432	902.363	674.461
228.840	14.476	901.683	674.069
229.855	14.431	900.647	673.055
230.869	14.417	900.000	672.457
231.884	14.394	899.566	671.979
232.899	14.549	898.606	671.826
233.913	14.542	897.490	670.904
234.928	14.521	897.146	670.506
235.942	14.511	896.746	670.106
236.957	14.463	896.096	669.369
237.972	14.387	896.077	668.989
238.986	14.543	895.081	668.810
240.001	14.515	894.551	668.244
241.015	14.599	893.897	668.034
242.030	14.571	893.626	667.659
243.045	14.636	892.741	667.198
244.059	14.519	892.523	666.507
245.074	14.639	891.783	666.377
246.088	14.643	890.830	665.623
247.103	14.724	889.975	665.246
248.117	14.650	889.786	664.750
249.132	14.963	888.647	665.087
250.147	14.913	888.385	664.634
251.161	14.880	887.728	663.952
252.176	15.032	886.905	663.882
253.190	14.932	886.396	663.044
254.205	14.975	885.690	662.629
255.220	14.966	885.093	662.089
256.234	14.903	884.225	661.130
257.249	15.029	883.459	660.997
258.263	14.951	883.122	660.378
259.278	15.085	882.240	660.187
260.293	15.202	881.412	659.971
261.307	15.079	881.264	659.318
262.322	15.136	880.626	659.008
263.336	15.227	879.378	658.371
264.351	15.106	879.077	657.611
265.366	15.288	878.548	657.874
266.380	15.385	877.765	657.609
267.395	15.042	877.432	655.959
268.409	15.314	876.424	656.209
269.424	15.218	875.790	655.301
270.439	15.259	875.334	655.064
271.453	15.236	874.449	654.252
272.468	15.203	874.062	653.776
273.482	15.184	873.689	653.364
274.497	15.333	872.756	653.191
275.512	15.126	872.087	651.828
276.526	15.182	871.749	651.735
277.541	15.272	871.413	651.777
278.555	15.361	870.739	651.558
279.570	15.491	869.949	651.414
280.585	15.385	869.409	650.540
281.599	15.375	868.182	649.525
282.614	15.356	867.950	649.224
283.628	15.361	867.096	648.547
284.643	15.532	866.633	648.802
285.657	15.502	865.958	648.122
286.672	15.549	865.238	647.710
287.687	15.348	864.907	646.629
288.701	15.423	864.200	646.331
289.716	15.528	863.443	646.112
290.730	15.479	862.897	645.460
291.745	15.563	862.190	645.196
292.760	15.587	861.751	644.903
293.774	15.612	861.136	644.482
294.789	15.682	860.454	644.180
295.803	15.633	859.901	643.523
296.818	15.620	859.037	642.770
297.833	15.659	858.047	642.121
298.847	15.638	857.609	641.656
299.862	15.631	857.285	641.331
300.876	15.718	856.834	641.268
301.891	15.788	856.348	641.115
302.906	15.805	855.578	640.546
303.920	15.748	855.074	639.896
304.935	15.856	854.565	639.869
305.949	15.887	853.409	639.063
306.964	15.832	853.063	638.538
307.979	15.845	852.534	638.134
308.993	15.820	852.260	637.781
310.008	15.935	851.439	637.544
311.022	15.909	850.808	636.916
312.037	15.936	850.434	636.682
313.052	15.888	849.715	635.905
314.066	15.883	849.355	635.562
315.081	15.722	849.028	634.654
316.095	16.007	847.877	634.809
317.110	15.993	847.265	634.242
318.125	15.841	847.198	633.565
319.139	15.833	847.021	633.346
320.154	15.967	846.182	633.167
321.168	15.887	845.942	632.630
322.183	16.014	845.003	632.351
323.197	15.985	844.342	631.690
324.212	15.904	844.115	631.161
325.227	15.950	843.488	630.808
326.241	16.103	842.665	630.711
327.256	15.932	842.302	629.743
328.270	16.056	841.810	629.781
329.285	16.026	841.385	629.297
330.300	16.113	840.213	628.690
331.314	16.054	839.846	628.140
332.329	16.148	839.750	628.361
333.343	16.045	839.243	627.542
334.358	16.245	838.473	627.658
335.373	16.141	838.337	627.113
336.387	16.241	837.955	627.141
337.402	16.081	838.107	626.607
338.416	16.256	837.357	626.641
339.431	16.308	837.050	626.545
340.446	16.317	836.609	626.195
341.460	16.326	836.337	625.970
342.475	16.334	835.824	625.561
343.489	16.322	835.361	625.114
344.504	16.341	834.990	624.851
345.519	16.564	834.383	625.167
346.533	16.377	833.876	624.041
347.548	16.344	833.299	623.429
348.562	16.498	832.457	623.315
349.577	16.261	832.071	622.095
350.592	16.292	831.610	621.809
351.606	16.391	830.669	621.414
352.621	16.555	829.936	621.413
353.635	16.455	829.627	620.761
354.650	16.518	828.699	620.243
355.665	16.440	828.049	619.416
356.679	16.365	827.768	618.876
357.694	16.565	827.055	619.021
358.708	16.505	826.383	618.243
359.723	16.604	825.411	617.822
360.738	16.663	825.050	617.714
361.752	16.576	824.617	617.016
362.767	16.579	824.439	616.841
363.781	16.666	823.698	616.547
364.796	16.618	823.355	616.063
365.810	16.779	823.054	616.368
366.825	16.695	822.269	615.422
367.840	16.743	821.767	615.166
368.854	16.896	821.471	615.444
369.869	16.713	821.358	614.642
370.883	16.829	820.795	614.586
371.898	16.885	820.480	614.498
372.913	16.943	819.868	614.196
373.927	17.013	819.223	613.913
374.942	16.817	818.837	612.860
375.956	17.064	818.650	613.559
376.971	16.952	817.809	612.470
377.986	16.991	817.580	612.385
379.000	16.960	817.262	611.980
380.015	16.954	816.699	611.484
381.029	17.017	816.373	611.411
382.044	17.133	815.384	611.035
383.059	17.081	814.673	610.261
384.073	17.101	814.222	609.938
385.088	17.018	813.678	609.181
386.102	16.982	813.362	608.760
387.117	17.154	812.591	608.747
388.132	16.986	811.985	607.636
389.146	17.154	811.780	608.031
390.161	17.016	811.271	607.104
391.175	17.185	810.808	607.306
392.190	17.093	810.420	606.633
393.205	17.169	809.563	606.208
394.219	17.058	809.561	605.758
395.234	17.113	809.024	605.499
396.248	17.033	808.890	605.060
397.263	17.030	808.360	604.599
398.278	17.215	807.603	604.638
399.292	17.206	807.195	604.246
400.307	17.137	807.181	603.937
401.321	17.127	806.705	603.491
402.336	17.091	805.957	602.752
403.350	17.362	805.404	603.247
404.365	17.314	805.105	602.798
405.380	17.373	804.500	602.503
406.394	17.333	803.995	601.927
407.409	17.492	803.331	601.939
408.423	17.521	803.235	601.917
409.438	17.438	802.903	601.322
410.453	17.528	802.468	601.262
411.467	17.486	802.096	600.780
412.482	17.509	801.536	600.388
413.496	17.608	801.244	600.466
414.511	17.631	800.975	600.294
415.526	17.583	800.452	599.678
416.540	17.508	799.729	598.819
417.555	17.494	799.415	598.481
418.569	17.484	799.347	598.345
419.584	17.522	798.931	598.112
420.599	17.531	797.994	597.392
421.613	114.188	1298.270	1487.959
422.628	98.387	1371.149	1488.022
