DTS Sentinel unit serial number:	SN413079Multiplexer serial number:	ORYXHardware model number:	OX4-SRSoftware version number:	ORYX F/W v4.00 Oryx Data Collector v3.7.2.0data status	okinstallation	princeton_trtdifferential loss correction	single-endedforward channel	channel 1reverse channel	N/Adate	2019/09/13time	18:26:35forward acquisition time	60.00reverse acquisition time	0.00gamma	496.2192k internal	0.2314k external	0.2314temperature offset calibration	1.0130default loss term (dB/km)	0.3790temperature slope calibration	1.0000multiplexer offset coefficient	1.0000multiplexer slope coefficient	1.0000fibre end	0.00T internal ref (°C)	33.59T ext. ref 1 (°C)	4.30T ext. ref 2 (°C)	26.55length (m)	temperature (°C)	Stokes	anti-Stokes-747.200	-166.474	0.371	0.016
-746.185	-200.000	-0.047	0.248
-745.171	-200.000	0.298	-0.001
-744.156	-200.000	0.005	0.299
-743.142	-200.000	-0.004	0.036
-742.127	-200.000	-0.045	0.236
-741.112	800.000	0.055	0.155
-740.098	74.304	-0.043	0.046
-739.083	7.228	0.043	0.032
-738.069	-200.000	0.003	-0.173
-737.054	-100.832	-0.179	-0.045
-736.039	800.000	-0.024	-0.086
-735.025	-166.326	0.094	-0.004
-734.010	800.000	-0.051	-0.177
-732.996	0.630	0.107	-0.077
-731.981	-78.618	0.093	-0.032
-730.966	-26.935	0.236	-0.140
-729.952	-114.315	-0.142	-0.028
-728.937	32.253	0.098	-0.086
-727.923	658.574	-0.100	0.260
-726.908	-91.051	-0.214	-0.062
-725.894	-31.444	0.126	-0.072
-724.879	-165.557	-0.246	0.011
-723.864	-200.000	-0.068	0.354
-722.850	-200.000	0.023	-0.131
-721.835	406.299	0.121	0.259
-720.821	340.819	-0.088	0.175
-719.806	312.071	-0.186	0.354
-718.791	800.000	0.109	-0.326
-717.777	-74.107	-0.096	0.035
-716.762	800.000	-0.062	-0.246
-715.748	800.000	-0.052	-0.159
-714.733	-68.210	-0.145	-0.057
-713.718	707.316	-0.134	-0.360
-712.704	452.555	-0.018	-0.041
-711.689	-200.000	-0.003	0.069
-710.675	82.935	0.091	0.101
-709.660	-200.000	0.083	0.518
-708.645	537.570	-0.119	0.285
-707.631	-200.000	-0.005	0.095
-706.616	-200.000	0.038	-0.193
-705.602	114.098	-0.151	0.185
-704.587	-93.994	-0.329	-0.091
-703.572	51.774	-0.177	-0.171
-702.558	-136.708	0.280	-0.033
-701.543	115.548	-0.230	-0.284
-700.529	800.000	0.016	-0.055
-699.514	-37.304	0.259	-0.140
-698.499	-200.000	-0.048	-0.280
-697.485	771.603	0.089	-0.245
-696.470	27.529	-0.209	-0.178
-695.456	320.608	-0.089	-0.170
-694.441	30.030	0.136	-0.117
-693.426	-50.308	0.227	-0.108
-692.412	-200.000	0.034	0.295
-691.397	-119.776	-0.205	-0.036
-690.383	673.536	0.121	-0.317
-689.368	-32.648	-0.230	-0.129
-688.354	337.456	-0.037	0.072
-687.339	-110.614	-0.274	0.057
-686.324	21.340	0.352	0.290
-685.310	82.143	0.122	-0.134
-684.295	-126.558	-0.093	-0.014
-683.281	145.959	-0.227	0.308
-682.266	-200.000	0.009	-0.204
-681.251	-200.000	-0.001	-0.179
-680.237	641.780	-0.127	0.326
-679.222	45.209	0.115	-0.108
-678.208	-60.958	-0.080	-0.034
-677.193	-10.968	0.230	-0.154
-676.178	-87.636	-0.265	0.081
-675.164	199.150	-0.058	0.089
-674.149	-14.036	-0.096	-0.063
-673.135	-125.735	0.016	0.003
-672.120	102.634	0.193	-0.228
-671.105	-76.910	0.197	-0.070
-670.091	685.730	-0.110	0.291
-669.076	-145.120	-0.414	-0.038
-668.062	-34.553	0.177	-0.098
-667.047	-200.000	0.045	0.237
-666.032	166.332	0.045	0.065
-665.018	-84.597	-0.247	0.079
-664.003	-127.945	0.181	0.026
-662.989	64.615	0.066	-0.067
-661.974	281.255	0.088	-0.158
-660.959	185.229	-0.136	-0.204
-659.945	336.487	0.092	-0.180
-658.930	800.000	-0.037	-0.119
-657.916	-172.849	-0.236	-0.007
-656.901	686.122	-0.110	-0.291
-655.886	5.149	-0.150	-0.112
-654.872	-200.000	-0.077	-0.353
-653.857	-179.072	0.052	-0.001
-652.843	104.329	0.116	-0.138
-651.828	34.346	0.156	0.138
-650.814	-140.262	-0.067	0.007
-649.799	800.000	0.106	-0.299
-648.784	13.706	0.192	0.150
-647.770	-166.882	-0.294	-0.012
-646.755	800.000	-0.064	-0.220
-645.741	-188.457	-0.235	0.003
-644.726	-200.000	-0.014	-0.341
-643.711	-38.084	0.123	-0.066
-642.697	-200.000	-0.008	-0.083
-641.682	243.133	-0.141	-0.239
-640.668	-200.000	-0.000	0.058
-639.653	-173.665	-0.448	-0.014
-638.638	-65.331	-0.129	0.053
-637.624	108.437	0.048	0.058
-636.609	-200.000	0.052	0.331
-635.595	-130.166	-0.149	-0.020
-634.580	-200.000	0.034	0.232
-633.565	-200.000	0.008	0.105
-632.551	-88.675	0.146	0.044
-631.536	-42.406	-0.310	0.159
-630.522	79.863	-0.220	0.238
-629.507	-34.221	-0.140	-0.077
-628.492	68.011	0.147	0.152
-627.478	800.000	0.045	-0.134
-626.463	-91.505	0.262	-0.075
-625.449	387.725	-0.099	-0.206
-624.434	110.737	0.264	0.321
-623.419	800.000	-0.092	-0.345
-622.405	-200.000	0.043	-0.566
-621.390	556.382	-0.148	-0.360
-620.376	-200.000	-0.014	-0.226
-619.361	23.146	-0.213	-0.176
-618.346	-15.931	0.060	0.038
-617.332	-50.635	0.344	-0.164
-616.317	-99.875	0.269	-0.068
-615.303	121.867	-0.121	-0.153
-614.288	157.645	0.189	0.264
-613.273	-86.737	0.079	-0.025
-612.259	-200.000	0.052	0.397
-611.244	47.640	0.095	0.089
-610.230	235.699	-0.023	-0.038
-609.215	-85.170	-0.169	-0.053
-608.201	-143.943	-0.349	-0.033
-607.186	-93.657	0.186	-0.052
-606.171	154.382	-0.069	0.096
-605.157	-120.638	-0.123	-0.021
-604.142	-200.000	-0.003	-0.278
-603.128	-200.000	-0.030	-0.187
-602.113	492.184	-0.185	-0.428
-601.098	-153.025	0.021	-0.001
-600.084	-136.104	0.279	0.033
-599.069	-200.000	0.011	0.078
-598.055	-24.042	0.089	0.054
-597.040	800.000	-0.054	0.206
-596.025	-200.000	0.044	-0.292
-595.011	-68.220	0.142	0.056
-593.996	-9.649	-0.261	0.175
-592.982	-91.310	0.183	-0.053
-591.967	-62.359	-0.127	0.053
-590.952	800.000	0.049	0.153
-589.938	-119.259	-0.112	0.020
-588.923	-200.000	-0.013	0.131
-587.909	322.349	0.057	-0.110
-586.894	-41.259	0.115	-0.060
-585.879	83.904	-0.131	-0.144
-584.865	514.936	-0.032	-0.075
-583.850	87.115	-0.078	0.087
-582.836	443.047	0.098	-0.217
-581.821	-101.266	-0.056	-0.014
-580.806	-200.000	0.003	0.238
-579.792	193.830	0.234	0.357
-578.777	-200.000	-0.021	0.102
-577.763	673.908	-0.079	-0.205
-576.748	-118.356	-0.247	-0.044
-575.733	-200.000	0.029	0.456
-574.719	-9.763	0.130	-0.087
-573.704	-112.139	0.347	0.070
-572.690	-5.118	0.084	0.058
-571.675	6.212	-0.191	-0.142
-570.661	22.578	0.231	0.190
-569.646	72.522	0.108	-0.114
-568.631	-156.906	-0.139	-0.009
-567.617	338.171	0.056	0.110
-566.602	-72.915	0.039	0.015
-565.588	186.313	0.139	-0.209
-564.573	-200.000	0.022	-0.205
-563.558	189.541	-0.246	0.371
-562.544	81.716	0.122	0.132
-561.529	131.321	0.078	0.100
-560.515	213.635	-0.098	0.156
-559.500	120.000	0.125	-0.156
-558.485	63.050	0.079	-0.080
-557.471	-100.168	-0.154	0.039
-556.456	160.086	-0.057	0.080
-555.442	-37.481	-0.147	-0.079
-554.427	-139.840	0.208	0.022
-553.412	-189.135	-0.211	-0.003
-552.398	312.534	0.119	0.225
-551.383	-82.514	-0.252	-0.082
-550.369	200.215	-0.098	-0.151
-549.354	-82.719	0.094	0.031
-548.339	474.708	-0.078	-0.178
-547.325	-125.789	-0.308	0.047
-546.310	371.952	-0.090	-0.184
-545.296	161.269	-0.022	0.031
-544.281	800.000	0.097	-0.420
-543.266	-85.727	-0.127	0.040
-542.252	760.814	-0.040	0.109
-541.237	-78.770	0.391	0.134
-540.223	-57.613	-0.124	0.055
-539.208	-161.516	0.043	0.002
-538.193	5.820	0.028	-0.021
-537.179	10.930	-0.148	0.113
-536.164	-200.000	-0.018	0.194
-535.150	156.907	-0.161	-0.224
-534.135	-71.349	0.195	-0.074
-533.121	515.753	0.066	-0.155
-532.106	-81.144	0.380	0.126
-531.091	-200.000	-0.026	-0.334
-530.077	-63.652	-0.221	0.091
-529.062	-46.704	-0.021	-0.010
-528.048	-73.926	0.127	0.046
-527.033	-200.000	0.017	0.140
-526.018	156.857	0.168	-0.233
-525.004	435.202	-0.053	-0.116
-523.989	-94.495	-0.029	-0.008
-522.975	-40.196	-0.271	0.142
-521.960	800.000	-0.041	-0.123
-520.945	-52.675	-0.116	0.054
-519.931	-200.000	0.047	-0.252
-518.916	-200.000	0.051	-0.270
-517.902	-18.956	-0.150	0.094
-516.887	-145.179	-0.029	-0.003
-515.872	-98.344	-0.265	-0.068
-514.858	-114.381	0.334	0.065
-513.843	-24.619	0.270	-0.161
-512.829	-76.255	0.099	-0.035
-511.814	-85.528	-0.113	-0.035
-510.799	-182.027	-0.046	0.001
-509.785	276.796	-0.107	0.192
-508.770	166.081	-0.156	-0.222
-507.756	800.000	-0.133	-0.398
-506.741	-120.351	0.066	-0.011
-505.726	-103.066	-0.234	0.056
-504.712	-200.000	0.025	-0.115
-503.697	71.309	0.033	0.034
-502.683	-52.175	0.126	0.059
-501.668	106.325	0.127	-0.151
-500.653	-200.000	-0.020	-0.337
-499.639	352.560	-0.099	-0.198
-498.624	800.000	-0.104	0.412
-497.610	-200.000	0.003	-0.112
-496.595	800.000	-0.019	0.069
-495.581	767.518	-0.077	0.211
-494.566	-200.000	0.059	-0.295
-493.551	-200.000	0.028	-0.165
-492.537	-200.000	0.025	-0.335
-491.522	-200.000	0.007	-0.111
-490.508	484.587	0.083	-0.190
-489.493	615.984	-0.067	0.170
-488.478	44.993	-0.289	0.267
-487.464	800.000	0.086	-0.293
-486.449	-79.205	-0.161	-0.055
-485.435	-41.377	-0.185	-0.096
-484.420	-116.503	0.148	0.027
-483.405	244.992	-0.104	0.175
-482.391	326.676	-0.056	-0.108
-481.376	75.086	0.324	0.343
-480.362	120.185	-0.160	0.200
-479.347	164.374	0.200	-0.283
-478.332	-100.908	0.405	0.100
-477.318	-200.000	0.011	-0.239
-476.303	99.000	-0.254	0.294
-475.289	-161.705	-0.377	-0.019
-474.274	-42.014	0.095	-0.049
-473.259	19.169	0.139	0.112
-472.245	20.518	0.371	0.301
-471.230	800.000	0.039	0.109
-470.216	196.408	0.021	0.032
-469.201	132.801	0.169	0.218
-468.186	36.841	-0.168	0.149
-467.172	-70.359	0.194	0.074
-466.157	151.712	0.126	-0.172
-465.143	-59.635	-0.376	-0.162
-464.128	-200.000	-0.039	-0.290
-463.113	-200.000	-0.007	-0.181
-462.099	-34.072	0.135	0.074
-461.084	144.754	-0.064	0.085
-460.070	-157.065	-0.212	-0.013
-459.055	-47.972	0.211	-0.102
-458.040	-98.799	-0.246	0.063
-457.026	800.000	-0.052	0.167
-456.011	90.728	-0.133	-0.149
-454.997	-200.000	-0.077	-0.401
-453.982	800.000	0.045	-0.181
-452.968	202.711	0.136	-0.210
-451.953	139.379	0.140	0.184
-450.938	-149.008	-0.263	0.021
-449.924	-54.805	-0.243	0.110
-448.909	-110.915	-0.164	-0.034
-447.895	-12.972	-0.295	0.192
-446.880	16.139	0.203	0.160
-445.865	-63.827	0.276	0.113
-444.851	-34.875	-0.350	-0.192
-443.836	429.287	-0.071	-0.154
-442.822	2.093	-0.156	-0.113
-441.807	-12.408	-0.149	0.098
-440.792	10.885	0.184	-0.141
-439.778	86.518	-0.134	0.149
-438.763	800.000	0.005	0.020
-437.749	113.717	0.149	-0.181
-436.734	477.536	-0.120	0.273
-435.719	-85.343	0.278	0.087
-434.705	-133.701	-0.219	0.027
-433.690	451.742	0.043	0.095
-432.676	86.670	0.288	0.318
-431.661	-102.138	-0.256	-0.062
-430.646	208.991	0.029	-0.046
-429.632	37.911	0.191	-0.170
-428.617	130.348	0.214	-0.274
-427.603	800.000	0.056	-0.195
-426.588	-22.998	-0.391	0.236
-425.573	-150.636	-0.074	-0.006
-424.559	-47.271	0.226	-0.110
-423.544	-17.230	-0.280	0.177
-422.530	-200.000	-0.005	0.243
-421.515	-179.475	0.047	0.001
-420.500	-78.415	0.077	-0.026
-419.486	385.287	0.066	-0.137
-418.471	800.000	-0.070	-0.211
-417.457	189.311	0.067	0.100
-416.442	357.151	0.123	0.244
-415.428	-200.000	0.022	-0.122
-414.413	-175.924	-0.429	-0.011
-413.398	-155.340	-0.135	-0.009
-412.384	800.000	-0.086	0.279
-411.369	44.894	-0.330	0.304
-410.355	-179.615	-0.280	-0.006
-409.340	62.187	-0.269	0.269
-408.325	64.020	-0.044	0.045
-407.311	17.092	-0.225	0.178
-406.296	-48.777	-0.198	-0.095
-405.282	-200.000	-0.018	0.533
-404.267	-43.489	0.147	-0.074
-403.252	-178.700	0.077	0.002
-402.238	-83.466	0.365	0.117
-401.223	55.745	-0.229	-0.222
-400.209	336.716	-0.042	0.082
-399.194	150.381	-0.088	0.120
-398.179	-200.000	-0.007	-0.314
-397.165	-89.200	0.094	-0.028
-396.150	98.591	0.259	0.299
-395.136	435.444	-0.206	0.447
-394.121	-38.821	-0.232	-0.122
-393.106	618.654	0.021	0.053
-392.092	-90.002	-0.142	0.041
-391.077	129.812	-0.069	-0.088
-390.063	800.000	-0.036	0.125
-389.048	-10.585	-0.146	-0.097
-388.033	30.783	-0.172	0.147
-387.019	-183.559	0.336	0.006
-386.004	48.490	-0.187	0.175
-384.990	-93.694	-0.248	-0.068
-383.975	265.563	0.088	0.154
-382.960	-64.015	0.425	0.173
-381.946	-200.000	-0.025	0.238
-380.931	-45.990	-0.035	0.017
-379.917	10.021	0.153	0.116
-378.902	-102.614	-0.146	-0.035
-377.888	-38.940	-0.266	-0.140
-376.873	409.593	0.100	0.211
-375.858	800.000	-0.052	0.161
-374.844	249.130	0.095	0.160
-373.829	696.486	-0.055	-0.145
-372.815	-200.000	-0.033	-0.329
-371.800	22.120	0.084	-0.069
-370.785	453.743	0.116	-0.255
-369.771	-200.000	0.014	0.285
-368.756	800.000	-0.045	-0.149
-367.742	-60.628	0.042	0.018
-366.727	-59.696	-0.099	0.042
-365.712	8.526	0.055	-0.041
-364.698	-39.472	-0.142	-0.074
-363.683	-128.661	0.181	-0.026
-362.669	-95.843	0.370	0.099
-361.654	-84.251	0.215	-0.068
-360.639	466.483	0.193	0.431
-359.625	-200.000	-0.014	0.285
-358.610	44.560	0.111	-0.102
-357.596	-2.182	0.317	0.222
-356.581	-145.315	0.346	0.031
-355.566	-11.957	0.326	-0.213
-354.552	572.062	0.135	-0.328
-353.537	61.831	-0.084	0.083
-352.523	-169.623	-0.237	0.009
-351.508	130.485	-0.080	0.103
-350.493	102.815	-0.127	0.149
-349.479	100.115	0.114	0.132
-348.464	140.751	0.175	-0.231
-347.450	-142.015	0.172	-0.017
-346.435	-189.134	0.375	-0.004
-345.420	-200.000	-0.006	0.109
-344.406	47.020	0.161	0.149
-343.391	800.000	0.032	-0.095
-342.377	6.314	0.126	-0.093
-341.362	-40.696	0.326	0.168
-340.348	-185.630	-0.326	-0.005
-339.333	261.959	-0.292	0.506
-338.318	125.272	0.141	0.177
-337.304	-125.901	0.355	-0.053
-336.289	-27.731	-0.030	-0.017
-335.275	55.081	-0.099	-0.096
-334.260	26.753	-0.055	-0.046
-333.245	-142.282	-0.181	-0.018
-332.231	-41.288	0.165	-0.085
-331.216	95.627	-0.259	0.295
-330.202	63.482	0.041	0.041
-329.187	-181.995	-0.173	-0.003
-328.172	-58.949	0.021	0.009
-327.158	162.952	0.122	0.171
-326.143	89.294	0.101	-0.112
-325.129	170.603	0.072	-0.103
-324.114	-108.801	-0.125	0.027
-323.099	-89.024	0.268	0.079
-322.085	-2.964	0.168	0.117
-321.070	253.413	-0.079	-0.135
-320.056	-108.808	-0.281	-0.060
-319.041	-200.000	0.008	0.194
-318.026	-145.022	-0.381	-0.035
-317.012	-200.000	0.004	-0.023
-315.997	-11.471	0.087	-0.057
-314.983	319.534	0.156	-0.295
-313.968	-88.728	-0.072	-0.021
-312.953	-18.023	0.041	0.025
-311.939	-200.000	-0.025	0.154
-310.924	-37.939	-0.464	-0.246
-309.910	341.133	-0.108	-0.209
-308.895	358.470	-0.021	0.041
-307.880	800.000	0.158	-0.492
-306.866	-142.505	0.061	0.006
-305.851	83.505	0.125	-0.136
-304.837	-40.233	0.320	0.166
-303.822	800.000	-0.036	-0.123
-302.807	-171.091	0.141	0.005
-301.793	800.000	-0.076	-0.325
-300.778	24.452	0.158	0.130
-299.764	14.515	-0.141	-0.110
-298.749	-60.175	-0.113	-0.048
-297.735	119.493	0.278	-0.343
-296.720	32.017	-0.170	-0.146
-295.705	641.699	-0.091	0.230
-294.691	1.729	-0.065	0.046
-293.676	-117.426	0.250	0.045
-292.662	-79.880	-0.227	-0.076
-291.647	-45.493	0.541	0.267
-290.632	-200.000	0.048	0.439
-289.618	-180.885	-0.067	-0.001
-288.603	131.524	0.181	0.232
-287.589	-200.000	-0.028	-0.217
-286.574	29.611	-0.229	-0.194
-285.559	800.000	-0.108	-0.360
-284.545	-188.849	0.368	-0.004
-283.530	139.761	0.031	-0.041
-282.516	148.335	0.198	0.266
-281.501	-200.000	-0.045	0.308
-280.486	-167.457	-0.097	0.004
-279.472	-132.466	0.245	-0.031
-278.457	-24.017	0.271	-0.161
-277.443	-19.607	0.104	0.064
-276.428	-79.023	-0.193	-0.065
-275.413	-73.710	-0.082	-0.030
-274.399	-200.000	0.034	0.318
-273.384	-57.678	0.325	0.142
-272.370	-21.594	0.034	0.021
-271.355	-200.000	0.054	0.433
-270.340	-88.000	-0.305	0.091
-269.326	82.647	0.214	-0.231
-268.311	-9.155	-0.180	-0.120
-267.297	-17.934	-0.121	0.075
-266.282	-9.627	-0.132	0.088
-265.267	-186.512	0.324	0.005
-264.253	-200.000	0.006	0.117
-263.238	-200.000	-0.039	-0.423
-262.224	-200.000	-0.027	-0.157
-261.209	519.029	-0.117	-0.273
-260.195	182.163	-0.193	-0.283
-259.180	-200.000	-0.004	-0.214
-258.165	113.376	0.071	-0.086
-257.151	-32.855	-0.169	0.093
-256.136	58.349	0.125	-0.122
-255.122	-200.000	-0.004	-0.138
-254.107	56.823	0.122	0.118
-253.092	-32.049	-0.123	0.069
-252.078	191.098	-0.221	-0.331
-251.063	-86.512	-0.424	0.129
-250.049	15.669	-0.293	-0.229
-249.034	36.846	-0.174	-0.153
-248.019	144.057	0.139	0.184
-247.005	-25.066	-0.270	0.159
-245.990	12.954	0.271	-0.208
-244.976	-200.000	0.009	-0.126
-243.961	279.453	-0.214	0.380
-242.946	-179.377	0.250	0.005
-241.932	25.669	0.151	0.125
-240.917	-200.000	-0.007	-0.073
-239.903	800.000	0.034	-0.118
-238.888	4.187	-0.341	-0.248
-237.873	44.895	0.197	0.180
-236.859	61.888	-0.259	-0.256
-235.844	-116.914	0.549	0.100
-234.830	-102.337	0.211	0.050
-233.815	800.000	0.056	0.159
-232.800	-178.276	0.096	-0.002
-231.786	-64.260	-0.199	-0.080
-230.771	-89.140	0.250	0.073
-229.757	119.096	-0.202	-0.248
-228.742	-10.779	0.208	0.137
-227.727	-33.649	0.088	0.048
-226.713	69.210	-0.025	0.026
-225.698	-115.582	0.345	0.064
-224.684	-81.327	0.358	0.117
-223.669	-200.000	0.009	0.191
-222.655	12.715	0.327	-0.251
-221.640	-120.768	-0.372	0.062
-220.625	800.000	0.060	0.165
-219.611	-200.000	0.042	0.337
-218.596	-114.824	-0.499	0.095
-217.582	0.602	-0.138	-0.098
-216.567	62.908	-0.056	0.056
-215.552	11.821	0.178	-0.135
-214.538	-89.803	-0.284	0.082
-213.523	28.451	0.247	-0.207
-212.509	-101.217	0.143	0.035
-211.494	-91.857	-0.154	0.044
-210.479	82.474	0.282	0.303
-209.465	-143.210	-0.129	-0.012
-208.450	800.000	0.103	-0.382
-207.436	-98.450	-0.165	0.042
-206.421	11.709	-0.357	0.272
-205.406	-190.301	-0.341	0.004
-204.392	85.716	0.097	-0.106
-203.377	-33.042	0.050	0.028
-202.363	-132.193	0.308	-0.040
-201.348	800.000	0.152	0.521
-200.333	-170.383	-0.329	0.011
-199.319	-200.000	-0.006	-0.112
-198.304	800.000	0.080	0.276
-197.290	-200.000	-0.068	-0.327
-196.275	-52.296	-0.071	0.033
-195.260	-11.054	0.196	-0.128
-194.246	-122.870	-0.219	-0.035
-193.231	67.230	0.193	0.195
-192.217	-49.705	-0.168	-0.079
-191.202	245.524	0.093	-0.156
-190.187	800.000	0.114	0.325
-189.173	150.485	0.125	0.168
-188.158	800.000	0.080	-0.223
-187.144	-200.000	-0.006	0.054
-186.129	-109.619	-0.517	0.108
-185.114	-200.000	0.014	0.127
-184.100	-200.000	0.048	-0.244
-183.085	-200.000	0.027	-0.188
-182.071	102.217	0.050	-0.058
-181.056	-61.882	-0.123	-0.051
-180.042	547.055	0.195	-0.462
-179.027	364.736	0.092	-0.184
-178.012	569.259	-0.034	-0.082
-176.998	-67.593	-0.204	0.079
-175.983	-133.691	-0.118	0.015
-174.969	184.337	-0.083	-0.122
-173.954	52.138	0.056	0.053
-172.939	-184.805	-0.395	-0.006
-171.925	-79.579	0.297	-0.099
-170.910	-11.525	-0.174	-0.113
-169.896	334.728	0.175	0.336
-168.881	-168.481	0.325	-0.012
-167.866	-186.867	0.118	0.002
-166.852	163.779	0.062	-0.086
-165.837	800.000	-0.053	0.206
-164.823	141.649	0.195	-0.256
-163.808	127.307	-0.054	-0.067
-162.793	-76.339	0.112	-0.039
-161.779	-104.029	-0.137	0.032
-160.764	-200.000	0.011	0.191
-159.750	-200.000	-0.002	-0.033
-158.735	-46.615	0.164	-0.080
-157.720	-200.000	0.103	0.449
-156.706	449.693	0.165	0.360
-155.691	24.883	-0.187	0.154
-154.677	-126.996	0.403	0.059
-153.662	0.609	-0.173	0.123
-152.647	800.000	-0.026	0.104
-151.633	-60.772	0.114	-0.048
-150.618	3.735	-0.086	0.062
-149.604	800.000	-0.058	0.162
-148.589	229.626	-0.046	0.074
-147.574	-89.074	0.152	0.044
-146.560	-200.000	-0.029	0.162
-145.545	-30.695	-0.208	-0.116
-144.531	124.671	0.113	-0.141
-143.516	-106.500	0.149	0.033
-142.502	-49.313	0.252	0.119
-141.487	-17.498	0.326	-0.203
-140.472	152.903	0.105	0.142
-139.458	757.411	-0.089	-0.237
-138.443	800.000	0.083	-0.263
-137.429	-200.000	0.021	0.219
-136.414	559.243	0.065	0.156
-135.399	-146.678	0.293	-0.025
-134.385	800.000	-0.044	-0.166
-133.370	-8.079	0.046	0.031
-132.356	-200.000	-0.008	-0.193
-131.341	16.151	-0.114	-0.089
-130.326	-38.294	-0.110	-0.058
-129.312	527.929	0.071	0.166
-128.297	159.663	0.046	-0.064
-127.283	-62.567	0.211	0.087
-126.268	-95.055	-0.339	-0.091
-125.253	-76.914	-0.427	0.148
-124.239	800.000	-0.108	0.354
-123.224	800.000	-0.074	0.210
-122.210	800.000	-0.068	0.189
-121.195	-200.000	0.004	0.082
-120.180	-20.143	-0.084	0.051
-119.166	-57.455	0.460	0.200
-118.151	70.353	0.115	-0.117
-117.137	-200.000	-0.041	-0.205
-116.122	-38.899	0.230	-0.120
-115.107	-37.462	0.195	0.103
-114.093	-144.534	0.270	-0.025
-113.078	-138.271	-0.103	-0.011
-112.064	99.965	-0.011	-0.013
-111.049	562.533	0.149	-0.357
-110.034	-6.136	0.213	0.144
-109.020	-27.452	0.226	-0.130
-108.005	116.225	0.123	-0.149
-106.991	-200.000	0.068	-0.457
-105.976	-130.345	-0.105	0.014
-104.962	154.123	-0.212	0.288
-103.947	800.000	0.097	-0.365
-102.932	258.478	-0.099	0.169
-101.918	343.356	0.081	0.158
-100.903	-111.386	0.209	0.042
-99.889	-99.819	0.220	-0.055
-98.874	800.000	0.058	-0.206
-97.859	-200.000	0.028	-0.139
-96.845	-90.800	-0.240	0.068
-95.830	-26.237	0.252	-0.146
-94.816	272.193	-0.136	0.237
-93.801	-200.000	-0.011	0.360
-92.786	-84.148	0.144	-0.045
-91.772	-30.040	0.094	-0.053
-90.757	175.857	0.058	-0.084
-89.743	-123.825	0.174	0.027
-88.728	-200.000	-0.012	0.124
-87.713	-200.000	0.003	-0.095
-86.699	86.902	0.154	-0.168
-85.684	800.000	-0.071	-0.231
-84.670	800.000	0.055	-0.206
-83.655	-200.000	0.025	-0.192
-82.640	-76.831	0.238	0.082
-81.626	-73.337	-0.430	0.155
-80.611	296.598	-0.026	0.048
-79.597	-81.889	0.581	-0.188
-78.582	626.200	0.046	0.115
-77.567	-64.151	0.195	-0.078
-76.553	-90.512	0.326	-0.093
-75.538	138.549	0.061	-0.079
-74.524	131.356	0.200	0.253
-73.509	-200.000	-0.017	0.102
-72.494	-12.763	0.087	0.056
-71.480	43.926	0.222	-0.201
-70.465	-58.010	0.347	-0.149
-69.451	-200.000	-0.055	-0.455
-68.436	800.000	-0.050	0.186
-67.422	-134.468	-0.381	0.046
-66.407	-200.000	-0.035	0.273
-65.392	3.543	0.208	0.149
-64.378	137.985	0.198	-0.256
-63.363	4.217	-0.211	0.152
-62.349	-200.000	-0.002	-0.173
-61.334	71.665	-0.866	-0.888
-60.319	361.211	0.473	0.936
-59.305	412.101	-0.332	-0.696
-58.290	800.000	0.414	1.149
-57.276	134.835	1.071	1.373
-56.261	-200.000	96.219	569.089
-55.246	627.897	1388.252	3460.407
-54.232	194.827	2564.896	3840.427
-53.217	118.529	2151.257	2619.867
-52.203	45.228	1613.782	1468.042
-51.188	37.188	1351.572	1180.812
-50.173	33.863	1309.812	1124.635
-49.159	55.737	1355.871	1296.253
-48.144	57.854	1373.004	1325.304
-47.130	37.214	1331.942	1163.630
-46.115	33.675	1315.042	1127.827
-45.100	33.615	1309.741	1122.880
-44.086	33.654	1307.542	1121.186
-43.071	33.415	1305.493	1117.969
-42.057	33.428	1303.006	1115.873
-41.042	33.439	1302.142	1115.156
-40.027	33.446	1300.643	1113.868
-39.013	33.450	1298.704	1112.185
-37.998	33.505	1296.963	1110.973
-36.984	33.450	1295.106	1109.017
-35.969	33.562	1293.382	1108.149
-34.954	33.632	1291.743	1107.112
-33.940	33.745	1290.154	1106.364
-32.925	33.728	1289.115	1105.330
-31.911	33.799	1287.473	1104.291
-30.896	33.657	1285.800	1101.991
-29.881	33.733	1285.025	1101.719
-28.867	33.813	1282.921	1100.338
-27.852	33.786	1281.615	1099.018
-26.838	33.814	1280.580	1098.250
-25.823	33.653	1279.343	1096.214
-24.809	33.601	1278.115	1094.819
-23.794	33.604	1276.880	1093.733
-22.779	33.694	1275.145	1092.725
-21.765	33.722	1273.822	1091.708
-20.750	33.674	1272.906	1090.604
-19.736	33.579	1271.737	1089.013
-18.721	33.573	1270.478	1087.855
-17.706	33.473	1269.283	1086.214
-16.692	33.484	1268.097	1085.224
-15.677	33.428	1267.315	1084.188
-14.663	33.547	1266.224	1083.893
-13.648	33.612	1264.993	1083.167
-12.633	33.689	1263.998	1082.711
-11.619	33.569	1263.781	1081.798
-10.604	33.484	1262.353	1080.046
-9.590	33.432	1261.821	1079.254
-8.575	33.531	1260.227	1078.409
-7.560	33.466	1259.902	1077.722
-6.546	33.441	1258.524	1076.357
-5.531	33.491	1257.650	1075.852
-4.517	33.477	1256.901	1075.088
-3.502	33.499	1256.086	1074.475
-2.487	33.499	1255.311	1073.770
-1.473	33.332	1250.989	1069.082
-0.458	31.519	1235.212	1045.441
0.556	27.988	1215.124	997.484
1.571	23.216	1218.621	974.077
2.586	21.918	1232.544	977.887
3.600	20.885	1220.927	962.876
4.615	15.785	1149.815	880.105
5.629	8.050	1075.852	785.426
6.644	4.542	1056.706	754.371
7.659	4.198	1054.244	750.883
8.673	4.241	1052.715	749.937
9.688	4.209	1051.867	749.112
10.702	4.526	1049.811	749.109
11.717	8.573	1055.628	772.776
12.731	16.508	1066.953	819.609
13.746	20.856	1071.974	844.521
14.761	21.067	1071.606	845.178
15.775	20.133	1070.124	839.414
16.790	19.140	1068.014	832.880
17.804	18.333	1066.662	827.852
18.819	17.984	1065.534	825.222
19.834	17.992	1064.530	824.408
20.848	17.968	1063.643	823.529
21.863	17.603	1063.006	821.209
22.877	17.512	1062.286	820.137
23.892	17.452	1061.729	819.346
24.907	17.513	1060.614	818.710
25.921	17.435	1059.822	817.650
26.936	17.411	1058.749	816.632
27.950	17.510	1057.098	815.764
28.965	17.600	1055.705	815.044
29.980	17.797	1054.019	814.613
30.994	17.793	1053.261	813.935
32.009	17.812	1052.118	813.071
33.023	17.784	1051.142	812.115
34.038	17.762	1050.127	811.153
35.053	17.612	1049.104	809.575
36.067	17.535	1048.446	808.634
37.082	17.604	1047.985	808.532
38.096	17.762	1046.813	808.305
39.111	17.894	1046.274	808.444
40.126	17.613	1045.175	806.191
41.140	17.376	1043.598	803.787
42.155	17.273	1042.200	802.151
43.169	17.254	1040.860	800.961
44.184	17.215	1040.306	800.278
45.199	17.167	1039.343	799.243
46.213	17.319	1038.664	799.361
47.228	17.519	1037.751	799.528
48.242	17.523	1036.717	798.682
49.257	17.445	1035.673	797.438
50.271	17.569	1034.667	797.174
51.286	17.714	1034.060	797.316
52.301	17.635	1032.750	795.867
53.315	17.403	1032.018	794.148
54.330	17.383	1030.852	793.088
55.344	17.386	1029.565	792.040
56.359	17.303	1029.028	791.170
57.374	17.353	1027.963	790.516
58.388	17.285	1027.254	789.583
59.403	17.265	1025.942	788.413
60.417	17.123	1025.674	787.481
61.432	17.101	1025.297	787.016
62.447	16.975	1024.357	785.645
63.461	17.080	1023.350	785.288
64.476	16.901	1022.610	783.823
65.490	16.936	1021.618	783.154
66.505	17.120	1020.592	783.145
67.520	17.197	1020.018	782.992
68.534	17.250	1019.508	782.777
69.549	17.111	1018.636	781.398
70.563	16.983	1017.956	780.218
71.578	16.875	1016.895	778.841
72.593	16.858	1015.790	777.846
73.607	16.882	1015.445	777.625
74.622	16.918	1014.782	777.210
75.636	17.009	1014.298	777.190
76.651	16.943	1013.459	776.177
77.666	16.950	1012.972	775.764
78.680	16.795	1012.801	774.856
79.695	16.842	1011.912	774.323
80.709	17.201	1011.531	775.602
81.724	17.277	1010.709	775.252
82.739	17.277	1010.147	774.749
83.753	17.575	1009.366	775.439
84.768	17.769	1008.874	775.874
85.782	17.870	1007.864	775.491
86.797	17.680	1006.766	773.714
87.812	17.693	1005.786	772.953
88.826	17.647	1005.009	772.076
89.841	17.747	1004.120	771.779
90.855	17.892	1003.301	771.738
91.870	17.799	1002.455	770.597
92.884	17.722	1001.951	769.796
93.899	17.739	1000.754	768.884
94.914	17.901	999.878	768.874
95.928	17.800	999.107	767.756
96.943	17.677	998.172	766.419
97.957	17.646	997.437	765.646
98.972	17.643	996.939	765.182
99.987	17.816	995.791	765.009
101.001	17.843	994.343	763.951
102.016	17.656	994.134	762.883
103.030	17.766	992.968	762.415
104.045	17.777	992.431	761.984
105.060	17.515	991.697	760.184
106.074	17.419	989.690	758.151
107.089	17.168	989.035	756.461
108.103	17.136	987.978	755.446
109.118	17.047	987.131	754.336
110.133	17.099	986.129	753.734
111.147	16.992	985.705	752.870
112.162	17.155	985.051	753.024
113.176	17.364	983.735	752.879
114.191	17.431	983.670	753.055
115.206	17.413	982.525	752.036
116.220	17.207	981.699	750.425
117.235	17.245	980.937	749.945
118.249	17.255	979.998	749.205
119.264	17.304	978.808	748.444
120.279	17.067	978.081	746.778
121.293	16.991	977.503	745.940
122.308	17.036	976.152	745.040
123.322	17.090	975.165	744.458
124.337	17.130	974.231	743.852
125.352	16.932	973.550	742.399
126.366	17.127	972.359	742.277
127.381	17.119	971.068	741.194
128.395	17.030	970.976	740.668
129.410	17.017	969.743	739.608
130.424	17.215	968.977	739.819
131.439	17.280	968.543	739.704
132.454	17.244	967.844	738.948
133.468	17.427	967.012	739.044
134.483	17.336	966.063	737.858
135.497	17.389	964.893	737.127
136.512	17.347	964.489	736.572
137.527	17.344	963.432	735.688
138.541	17.348	962.728	735.100
139.556	17.358	962.072	734.578
140.570	17.431	961.702	734.547
141.585	17.794	960.500	735.127
142.600	17.842	959.353	734.394
143.614	17.774	958.953	733.728
144.629	17.992	957.883	733.782
145.643	17.723	956.831	731.754
146.658	17.656	955.923	730.707
147.673	17.475	954.988	729.155
148.687	17.337	954.331	727.998
149.702	17.258	953.196	726.729
150.716	17.279	952.580	726.287
151.731	17.471	951.537	726.248
152.746	17.485	950.993	725.824
153.760	17.480	950.714	725.525
154.775	17.724	949.837	725.835
155.789	17.579	949.691	725.041
156.804	17.620	948.643	724.350
157.819	17.763	948.029	724.425
158.833	17.811	947.787	724.380
159.848	17.870	946.800	723.811
160.862	17.660	945.873	722.148
161.877	17.508	944.222	720.182
162.892	17.350	943.039	718.550
163.906	17.456	942.357	718.413
164.921	17.301	941.763	717.242
165.935	17.503	941.141	717.555
166.950	17.526	940.018	716.734
167.964	17.699	938.899	716.543
168.979	17.482	938.567	715.314
169.994	17.392	937.657	714.182
171.008	17.461	936.956	713.873
172.023	17.755	936.086	714.380
173.037	17.841	935.550	714.265
174.052	17.625	935.266	713.083
175.067	17.618	934.159	712.147
176.081	17.430	933.578	710.854
177.096	17.536	932.779	710.628
178.110	17.479	932.046	709.768
179.125	17.500	931.876	709.664
180.140	17.617	931.436	709.751
181.154	17.591	931.160	709.371
182.169	17.826	930.288	709.622
183.183	17.881	929.732	709.363
184.198	17.976	928.751	708.945
185.213	17.953	928.194	708.364
186.227	17.817	927.903	707.515
187.242	18.036	927.160	707.791
188.256	18.106	926.626	707.613
189.271	18.122	925.903	707.061
190.286	17.781	925.258	705.099
191.300	17.470	923.616	702.502
192.315	17.421	923.215	701.931
193.329	17.448	922.715	701.599
194.344	17.525	922.395	701.614
195.359	17.587	921.554	701.168
196.373	17.838	921.025	701.736
197.388	17.800	921.159	701.619
198.402	18.163	920.589	702.614
199.417	18.183	919.647	701.914
200.432	18.347	919.149	702.144
201.446	18.298	918.813	701.626
202.461	18.374	918.383	701.546
203.475	18.295	917.967	700.844
204.490	18.008	916.688	698.630
205.504	17.930	915.911	697.657
206.519	17.879	915.620	697.164
207.534	17.947	914.851	696.795
208.548	17.997	914.054	696.330
209.563	18.094	913.049	695.898
210.577	18.180	912.451	695.734
211.592	18.331	911.994	695.938
212.607	18.225	911.428	695.010
213.621	18.127	910.835	694.102
214.636	18.250	909.627	693.616
215.650	18.245	909.156	693.176
216.665	18.444	908.340	693.299
217.680	18.525	907.970	693.280
218.694	18.338	907.522	692.121
219.709	18.334	906.578	691.326
220.723	18.255	906.225	690.675
221.738	18.356	905.433	690.419
222.753	18.257	905.011	689.635
223.767	18.572	903.549	689.729
224.782	18.486	903.673	689.414
225.796	18.556	903.361	689.398
226.811	18.510	902.413	688.429
227.826	18.271	901.672	686.846
228.840	18.459	900.391	686.563
229.855	18.363	899.697	685.587
230.869	18.247	899.294	684.756
231.884	18.273	898.636	684.298
232.899	18.328	897.889	683.886
233.913	18.093	897.346	682.476
234.928	18.139	896.519	681.968
235.942	17.926	896.245	680.851
236.957	18.160	895.884	681.451
237.972	18.244	894.617	680.759
238.986	18.157	894.197	680.035
240.001	18.072	893.469	679.083
241.015	18.225	893.033	679.299
242.030	18.366	892.200	679.165
243.045	18.421	891.887	679.083
244.059	18.362	891.763	678.697
245.074	18.374	890.941	678.055
246.088	18.494	890.189	677.901
247.103	18.640	889.184	677.649
248.117	18.740	889.243	678.031
249.132	18.856	888.896	678.162
250.147	19.098	888.306	678.606
251.161	19.131	887.654	678.181
252.176	19.100	886.967	677.471
253.190	19.128	886.458	677.134
254.205	19.183	885.520	676.575
255.220	19.120	885.302	676.099
256.234	19.163	884.381	675.506
257.249	19.153	883.563	674.783
258.263	19.034	883.102	673.905
259.278	19.236	882.033	673.821
260.293	19.249	881.508	673.410
261.307	19.374	880.973	673.430
262.322	19.234	880.672	672.594
263.336	19.319	879.848	672.236
264.351	19.114	879.140	670.836
265.366	19.304	878.819	671.273
266.380	19.410	877.697	670.766
267.395	19.217	877.358	669.699
268.409	19.196	876.514	668.915
269.424	19.315	875.715	668.706
270.439	19.099	875.183	667.405
271.453	19.096	874.397	666.733
272.468	19.139	873.959	666.506
273.482	19.126	873.256	665.860
274.497	19.181	872.575	665.497
275.512	19.023	872.499	664.770
276.526	19.207	871.621	664.751
277.541	19.275	871.168	664.611
278.555	19.141	870.912	663.839
279.570	19.582	870.200	664.937
280.585	19.572	869.008	663.926
281.599	19.250	868.409	662.174
282.614	19.079	867.635	660.870
283.628	19.226	867.241	661.074
284.643	19.174	866.544	660.286
285.657	19.259	865.896	660.060
286.672	19.335	865.754	660.184
287.687	19.389	864.670	659.505
288.701	19.429	864.008	659.093
289.716	19.266	863.710	658.185
290.730	19.291	863.438	658.015
291.745	19.456	862.339	657.750
292.760	19.455	862.074	657.484
293.774	19.727	861.337	657.900
294.789	19.712	860.775	657.355
295.803	19.504	860.008	655.922
296.818	19.373	859.051	654.636
297.833	19.499	858.609	654.717
298.847	19.383	858.285	653.976
299.862	19.547	857.365	653.836
300.876	19.473	857.197	653.371
301.891	19.736	856.508	653.782
302.906	19.890	855.887	653.831
303.920	19.902	855.703	653.680
304.935	20.109	855.085	653.929
305.949	19.936	854.085	652.457
306.964	19.771	853.828	651.580
307.979	19.810	853.387	651.333
308.993	19.878	852.875	651.139
310.008	19.911	852.119	650.631
311.022	19.824	851.338	649.648
312.037	19.665	851.093	648.805
313.052	19.552	850.119	647.582
314.066	19.442	849.569	646.696
315.081	19.484	849.372	646.644
316.095	19.531	848.404	646.026
317.110	19.464	848.076	645.467
318.125	19.567	847.410	645.290
319.139	19.590	847.158	645.125
320.154	19.569	846.535	644.516
321.168	19.677	845.512	644.085
322.183	19.684	845.313	643.903
323.197	19.783	844.860	643.869
324.212	19.665	844.573	643.153
325.227	19.631	843.758	642.349
326.241	19.594	843.481	641.944
327.256	19.597	842.766	641.352
328.270	19.621	841.926	640.746
329.285	19.563	841.747	640.339
330.300	19.593	840.980	639.811
331.314	19.738	840.155	639.663
332.329	19.924	839.842	640.054
333.343	19.955	839.841	640.114
334.358	19.842	839.404	639.305
335.373	19.952	838.864	639.245
336.387	19.910	839.019	639.151
337.402	20.064	838.533	639.291
338.416	20.257	837.846	639.424
339.431	20.259	837.935	639.442
340.446	20.229	837.514	638.953
341.460	20.297	837.086	638.820
342.475	20.343	836.901	638.791
343.489	20.305	836.381	638.199
344.504	20.605	835.665	638.700
345.519	20.603	835.392	638.425
346.533	20.414	834.391	636.911
347.548	20.274	834.198	636.193
348.562	20.248	833.575	635.568
349.577	19.976	832.882	633.988
350.592	19.903	832.317	633.234
351.606	19.903	831.374	632.461
352.621	20.147	830.391	632.546
353.635	20.071	830.020	631.930
354.650	20.102	829.621	631.685
355.665	20.300	828.810	631.732
356.679	20.338	828.533	631.601
357.694	20.298	827.639	630.720
358.708	20.302	827.162	630.316
359.723	20.190	826.701	629.503
360.738	20.286	826.121	629.353
361.752	20.420	825.402	629.234
362.767	20.420	825.173	629.003
363.781	20.638	824.533	629.251
364.796	20.719	824.289	629.300
365.810	20.715	824.159	629.130
366.825	20.620	823.697	628.381
367.840	20.868	823.446	629.029
368.854	20.706	822.510	627.675
369.869	20.639	822.192	627.134
370.883	20.621	821.710	626.646
371.898	20.758	821.085	626.608
372.913	20.665	821.089	626.219
373.927	20.631	820.422	625.531
374.942	20.882	819.751	625.869
375.956	20.854	819.394	625.439
376.971	21.017	818.713	625.449
377.986	21.152	818.596	625.790
379.000	21.037	818.425	625.188
380.015	20.949	817.686	624.255
381.029	20.960	817.088	623.782
382.044	21.027	816.295	623.361
383.059	21.025	815.624	622.787
384.073	20.971	815.098	622.137
385.088	20.729	814.486	620.752
386.102	20.591	814.059	619.879
387.117	20.626	813.437	619.475
388.132	20.701	812.761	619.175
389.146	20.746	812.440	619.034
390.161	20.947	812.060	619.403
391.175	20.877	811.626	618.768
392.190	20.720	811.156	617.799
393.205	20.739	810.749	617.502
394.219	20.805	810.118	617.199
395.234	20.766	809.138	616.263
396.248	20.538	809.137	615.397
397.263	20.541	808.678	615.007
398.278	20.722	808.142	615.185
399.292	20.635	807.742	614.516
400.307	20.575	807.553	614.109
401.321	20.527	807.065	613.511
402.336	20.757	806.361	613.735
403.350	20.779	805.895	613.403
404.365	20.882	805.519	613.426
405.380	21.007	805.314	613.653
406.394	21.205	804.825	613.924
407.409	21.212	804.357	613.537
408.423	21.210	804.183	613.344
409.438	21.217	804.219	613.340
410.453	21.357	803.751	613.423
411.467	21.366	802.934	612.775
412.482	21.564	802.397	613.003
413.496	21.481	802.227	612.528
414.511	21.355	801.759	611.677
415.526	21.495	801.204	611.687
416.540	21.459	800.588	611.040
417.555	21.429	800.476	610.796
418.569	21.464	800.087	610.567
419.584	21.343	799.794	609.865
420.599	21.408	798.807	609.286
421.613	160.367	1370.469	1793.591
422.628	139.167	1453.787	1793.727
