DTS Sentinel unit serial number:	SN413079Multiplexer serial number:	ORYXHardware model number:	OX4-SRSoftware version number:	ORYX F/W v4.00 Oryx Data Collector v3.7.2.0data status	okinstallation	princeton_trtdifferential loss correction	single-endedforward channel	channel 1reverse channel	N/Adate	2019/09/14time	21:14:35forward acquisition time	60.00reverse acquisition time	0.00gamma	496.2192k internal	0.2317k external	0.2317temperature offset calibration	1.0015default loss term (dB/km)	0.3790temperature slope calibration	1.0000multiplexer offset coefficient	1.0000multiplexer slope coefficient	1.0000fibre end	0.00T internal ref (°C)	33.00T ext. ref 1 (°C)	4.77T ext. ref 2 (°C)	27.82length (m)	temperature (°C)	Stokes	anti-Stokes-747.200	625.791	-0.170	0.435
-746.185	800.000	-0.183	0.639
-745.171	-200.000	-0.064	0.294
-744.156	170.414	0.148	0.214
-743.142	494.302	-0.139	-0.324
-742.127	9.402	-0.128	0.098
-741.112	800.000	-0.082	-0.305
-740.098	24.899	0.027	-0.022
-739.083	74.615	-0.153	-0.163
-738.069	-103.873	-0.141	-0.033
-737.054	800.000	-0.045	-0.191
-736.039	-15.952	0.141	0.091
-735.025	-81.760	-0.204	0.068
-734.010	-117.459	-0.326	0.060
-732.996	-0.504	-0.207	-0.149
-731.981	260.286	-0.147	-0.257
-730.966	-56.933	-0.248	-0.111
-729.952	-200.000	-0.036	-0.208
-728.937	800.000	0.030	0.134
-727.923	-30.376	-0.218	0.125
-726.908	-115.108	-0.286	0.055
-725.894	-150.654	-0.331	0.026
-724.879	-158.312	0.298	-0.018
-723.864	-77.681	-0.304	-0.106
-722.850	-0.694	-0.105	0.075
-721.835	-79.314	-0.120	-0.041
-720.821	77.485	0.123	-0.132
-719.806	67.274	-0.311	-0.321
-718.791	800.000	0.034	0.134
-717.777	-40.869	0.276	-0.144
-716.762	505.290	-0.102	0.240
-715.748	-25.229	0.232	-0.139
-714.733	-47.753	-0.093	-0.045
-713.718	-25.883	0.243	0.145
-712.704	-70.130	-0.044	0.017
-711.689	504.084	0.094	0.219
-710.675	-24.565	-0.146	-0.088
-709.660	-81.486	0.247	-0.082
-708.645	403.279	-0.079	0.167
-707.631	-184.784	0.195	-0.003
-706.616	129.012	-0.118	-0.152
-705.602	109.825	-0.094	-0.114
-704.587	131.069	0.211	-0.273
-703.572	-200.000	0.044	0.457
-702.558	173.745	-0.110	0.161
-701.543	44.041	0.094	-0.088
-700.529	-200.000	0.001	0.073
-699.514	-200.000	-0.033	-0.173
-698.499	-114.863	-0.117	0.023
-697.485	-105.549	-0.193	0.044
-696.470	-90.909	0.353	0.103
-695.456	85.239	0.055	-0.061
-694.441	45.200	-0.140	-0.130
-693.426	-104.862	-0.088	0.020
-692.412	-42.604	-0.179	0.092
-691.397	800.000	-0.112	-0.372
-690.383	-55.080	0.241	0.110
-689.368	-148.471	-0.275	-0.023
-688.354	184.255	0.107	0.159
-687.339	-40.401	0.117	-0.062
-686.324	82.504	0.214	-0.235
-685.310	800.000	-0.017	0.074
-684.295	-138.682	-0.039	-0.004
-683.281	-96.443	0.271	0.072
-682.266	800.000	-0.026	-0.079
-681.251	-200.000	0.002	-0.190
-680.237	202.200	0.204	-0.318
-679.222	-54.921	0.175	0.080
-678.208	-57.732	-0.301	0.133
-677.193	800.000	0.014	-0.055
-676.178	-52.968	0.110	-0.051
-675.164	349.730	0.125	-0.249
-674.149	3.092	-0.059	0.043
-673.135	15.635	-0.186	-0.148
-672.120	220.519	0.112	0.182
-671.105	-74.710	-0.224	-0.081
-670.091	149.519	-0.140	-0.191
-669.076	143.612	0.131	-0.176
-668.062	-38.648	-0.056	0.030
-667.047	-200.000	0.005	-0.059
-666.032	-200.000	0.003	0.107
-665.018	-73.348	0.205	0.076
-664.003	58.069	-0.219	0.217
-662.989	-113.666	-0.173	0.034
-661.974	15.074	0.107	-0.085
-660.959	-166.183	-0.220	-0.009
-659.945	747.598	-0.107	-0.292
-658.930	115.099	0.107	-0.131
-657.916	-136.290	-0.456	-0.054
-656.901	-200.000	0.019	-0.384
-655.886	-14.422	0.132	0.086
-654.872	390.823	0.083	-0.174
-653.857	-25.861	0.279	-0.166
-652.843	-200.000	0.006	0.103
-651.828	-125.335	0.025	0.004
-650.814	-27.421	-0.040	0.023
-649.799	185.291	-0.102	-0.153
-648.784	-200.000	0.010	0.065
-647.770	-112.050	-0.375	-0.076
-646.755	2.376	-0.361	-0.263
-645.741	328.537	0.164	0.318
-644.726	-34.213	-0.146	0.081
-643.711	287.769	0.098	-0.179
-642.697	310.921	-0.130	0.246
-641.682	230.632	0.108	0.178
-640.668	-200.000	-0.062	0.371
-639.653	800.000	0.079	-0.332
-638.638	575.408	-0.072	0.178
-637.624	180.020	-0.030	-0.044
-636.609	-6.318	-0.106	0.073
-635.595	-42.319	0.113	-0.058
-634.580	-200.000	-0.025	0.132
-633.565	153.033	0.105	-0.145
-632.551	800.000	-0.022	0.081
-631.536	58.203	-0.244	0.241
-630.522	-200.000	0.024	-0.372
-629.507	-180.289	-0.354	-0.007
-628.492	168.496	0.034	0.048
-627.478	1.690	-0.253	0.184
-626.463	-200.000	0.074	0.408
-625.449	59.958	0.094	-0.094
-624.434	-200.000	-0.001	-0.433
-623.419	-73.470	-0.182	-0.067
-622.405	73.993	-0.018	0.019
-621.390	681.958	0.058	-0.151
-620.376	-200.000	-0.029	-0.297
-619.361	-200.000	0.002	-0.165
-618.346	5.564	0.188	-0.140
-617.332	800.000	0.104	0.436
-616.317	346.611	0.164	0.325
-615.303	-200.000	-0.005	-0.342
-614.288	197.048	0.174	-0.267
-613.273	44.067	0.220	0.203
-612.259	-47.920	0.228	-0.111
-611.244	168.076	-0.116	-0.167
-610.230	-61.671	0.167	0.070
-609.215	-10.019	-0.306	0.205
-608.201	-104.732	0.198	-0.046
-607.186	-116.665	0.096	-0.018
-606.171	-200.000	0.023	0.182
-605.157	68.969	-0.173	0.178
-604.142	-49.403	0.059	-0.028
-603.128	-78.293	-0.094	0.033
-602.113	-200.000	-0.007	0.068
-601.098	37.844	-0.112	-0.100
-600.084	-117.940	0.171	-0.031
-599.069	118.335	-0.134	0.166
-598.055	-31.211	-0.077	0.044
-597.040	800.000	0.052	-0.157
-596.025	-200.000	-0.396	-0.001
-595.011	-32.072	0.103	-0.058
-593.996	46.227	-0.182	-0.170
-592.982	76.250	0.187	0.199
-591.967	-200.000	0.012	-0.145
-590.952	-19.591	-0.081	0.050
-589.938	88.671	-0.182	0.204
-588.923	70.783	0.020	0.021
-587.909	96.046	0.163	-0.187
-586.894	-150.681	-0.111	-0.009
-585.879	438.035	-0.031	0.068
-584.865	-188.638	0.260	0.003
-583.850	-51.670	-0.272	0.128
-582.836	201.237	0.041	-0.064
-581.821	-183.965	0.157	0.003
-580.806	-62.175	-0.102	-0.043
-579.792	-200.000	0.038	-0.173
-578.777	800.000	0.070	-0.199
-577.763	2.313	-0.415	-0.302
-576.748	-200.000	0.021	-0.271
-575.733	-45.025	-0.339	-0.169
-574.719	-200.000	-0.058	-0.346
-573.704	-69.902	-0.126	0.048
-572.690	-120.394	-0.467	-0.080
-571.675	-200.000	-0.010	0.472
-570.661	214.887	0.035	-0.055
-569.646	800.000	0.158	-0.441
-568.631	800.000	-0.004	0.012
-567.617	133.875	0.352	0.458
-566.602	-200.000	0.010	-0.069
-565.588	-7.884	-0.448	-0.304
-564.573	36.113	-0.100	-0.089
-563.558	-6.593	0.201	-0.138
-562.544	800.000	-0.036	-0.110
-561.529	800.000	0.021	-0.078
-560.515	-200.000	0.016	-0.081
-559.500	-57.504	0.316	-0.139
-558.485	199.000	-0.042	0.064
-557.471	20.492	-0.122	-0.099
-556.456	129.413	0.207	0.265
-555.442	68.464	0.208	-0.214
-554.427	-46.912	0.348	0.171
-553.412	800.000	0.100	0.313
-552.398	-200.000	-0.002	0.015
-551.383	-18.689	0.084	0.053
-550.369	800.000	0.078	0.217
-549.354	-96.682	0.294	-0.078
-548.339	37.279	-0.104	0.093
-547.325	52.195	-0.057	0.054
-546.310	800.000	-0.105	0.419
-545.296	428.291	-0.031	0.068
-544.281	-200.000	-0.014	0.105
-543.266	4.407	-0.065	0.048
-542.252	23.641	-0.427	-0.353
-541.237	-48.074	-0.265	0.129
-540.223	14.195	-0.355	0.277
-539.208	-6.669	0.207	0.142
-538.193	69.410	-0.101	0.105
-537.179	-186.866	-0.274	0.004
-536.164	47.756	-0.122	-0.114
-535.150	1.129	0.165	0.119
-534.135	136.321	0.191	-0.250
-533.121	-200.000	-0.048	0.259
-532.106	669.604	0.158	0.410
-531.091	-200.000	-0.001	-0.136
-530.077	342.767	-0.068	0.133
-529.062	24.434	-0.359	0.298
-528.048	-86.389	0.213	-0.066
-527.033	-200.000	0.033	0.204
-526.018	-200.000	-0.007	-0.059
-525.004	453.846	0.057	0.126
-523.989	-98.954	0.250	-0.064
-522.975	-57.804	0.265	0.116
-521.960	90.370	-0.234	-0.262
-520.945	178.711	-0.219	0.322
-519.931	262.184	0.099	0.173
-518.916	-50.343	0.117	-0.055
-517.902	-200.000	0.027	-0.173
-516.887	298.841	0.052	-0.096
-515.872	-91.341	-0.432	-0.124
-514.858	-123.958	0.045	-0.007
-513.843	187.381	-0.191	-0.286
-512.829	-37.742	-0.160	-0.085
-511.814	-152.695	0.374	0.027
-510.799	-129.079	0.250	-0.035
-509.785	-64.063	-0.149	-0.061
-508.770	-152.075	0.143	-0.010
-507.756	753.600	0.100	-0.270
-506.741	262.749	0.059	0.103
-505.726	700.770	-0.059	-0.156
-504.712	-177.623	0.486	0.012
-503.697	171.175	0.065	-0.094
-502.683	-156.328	0.295	0.019
-501.668	-54.073	0.221	-0.101
-500.653	-171.946	0.332	0.011
-499.639	-1.098	0.152	0.108
-498.624	-174.998	0.043	-0.001
-497.610	-65.827	-0.278	-0.112
-496.595	100.374	-0.122	-0.142
-495.581	-141.900	0.113	-0.011
-494.566	571.841	-0.095	0.231
-493.551	0.486	-0.222	-0.159
-492.537	-200.000	-0.010	0.114
-491.522	-131.308	0.286	0.038
-490.508	89.226	0.050	-0.056
-489.493	-57.616	0.173	0.076
-488.478	571.301	0.181	0.442
-487.464	16.833	0.177	0.140
-486.449	-105.937	0.195	-0.044
-485.435	2.539	0.296	-0.215
-484.420	-60.509	0.154	0.066
-483.405	-157.164	-0.079	-0.005
-482.391	173.865	-0.057	-0.082
-481.376	-73.463	0.303	-0.111
-480.362	558.698	0.144	0.347
-479.347	-200.000	-0.009	0.380
-478.332	800.000	-0.109	0.321
-477.318	6.248	-0.079	0.058
-476.303	-200.000	-0.007	-0.113
-475.289	-110.015	0.174	-0.036
-474.274	-122.007	-0.219	-0.036
-473.259	10.755	0.133	0.102
-472.245	-4.967	0.072	-0.049
-471.230	-57.217	0.212	0.093
-470.216	-200.000	0.018	0.202
-469.201	170.856	-0.127	-0.182
-468.186	800.000	-0.051	-0.144
-467.172	-163.734	-0.166	0.008
-466.157	-56.122	0.040	0.018
-465.143	-132.244	0.450	0.058
-464.128	-170.324	-0.393	-0.014
-463.113	-64.388	-0.184	0.075
-462.099	20.754	0.314	-0.254
-461.084	-59.832	0.060	0.026
-460.070	89.949	-0.037	-0.041
-459.055	-200.000	-0.043	-0.211
-458.040	136.651	-0.180	0.236
-457.026	76.078	-0.160	0.170
-456.011	-200.000	0.013	-0.081
-454.997	270.221	-0.036	-0.063
-453.982	800.000	-0.077	-0.239
-452.968	-81.495	-0.074	-0.024
-451.953	-131.243	0.067	-0.009
-450.938	-82.939	-0.073	0.024
-449.924	136.612	-0.105	-0.138
-448.909	-24.865	-0.138	0.082
-447.895	-152.767	0.104	0.007
-446.880	346.922	-0.123	-0.243
-445.865	-88.045	0.136	0.041
-444.851	-200.000	-0.011	-0.196
-443.836	-26.164	0.499	-0.293
-442.822	149.338	-0.073	0.099
-441.807	72.641	0.123	-0.128
-440.792	185.084	-0.146	0.216
-439.778	269.994	0.131	-0.230
-438.763	-154.455	-0.173	-0.012
-437.749	78.776	-0.113	-0.121
-436.734	-150.359	0.156	0.012
-435.719	-144.993	-0.248	-0.023
-434.705	-177.262	0.112	0.003
-433.690	-200.000	0.022	0.188
-432.676	222.039	-0.238	0.383
-431.661	-200.000	-0.049	-0.260
-430.646	460.554	0.161	0.359
-429.632	51.812	-0.113	-0.108
-428.617	19.412	-0.166	0.134
-427.603	-131.751	-0.390	-0.051
-426.588	307.992	-0.084	0.156
-425.573	338.550	0.132	-0.258
-424.559	-200.000	-0.007	-0.346
-423.544	15.735	0.090	-0.071
-422.530	-48.450	-0.156	0.075
-421.515	5.739	-0.068	0.050
-420.500	-126.499	-0.293	-0.044
-419.486	127.819	-0.101	-0.128
-418.471	-200.000	0.024	-0.140
-417.457	114.177	-0.137	0.167
-416.442	94.069	-0.228	-0.259
-415.428	107.005	0.199	0.236
-414.413	10.076	-0.264	-0.200
-413.398	-200.000	-0.022	-0.534
-412.384	320.834	-0.106	0.200
-411.369	4.061	0.221	-0.161
-410.355	-200.000	0.040	-0.230
-409.340	83.197	-0.144	0.156
-408.325	418.335	0.045	0.097
-407.311	-200.000	0.051	-0.338
-406.296	800.000	0.068	-0.223
-405.282	149.055	-0.218	-0.295
-404.267	-104.011	-0.112	0.026
-403.252	-140.421	-0.336	0.035
-402.238	18.553	-0.197	-0.158
-401.223	20.996	0.065	-0.053
-400.209	-23.562	-0.075	0.045
-399.194	-179.891	0.540	0.012
-398.179	-200.000	-0.008	-0.209
-397.165	689.412	0.059	-0.155
-396.150	-39.876	0.164	-0.085
-395.136	12.349	0.260	0.200
-394.121	54.135	-0.251	-0.241
-393.106	-184.034	0.331	-0.006
-392.092	302.762	0.032	0.059
-391.077	32.388	-0.295	0.254
-390.063	-101.496	0.494	0.120
-389.048	206.292	-0.141	0.219
-388.033	22.777	0.098	0.080
-387.019	-42.335	0.158	-0.081
-386.004	-110.553	-0.197	0.041
-384.990	310.458	-0.179	0.335
-383.975	12.075	0.092	0.071
-382.960	21.865	-0.086	0.070
-381.946	-101.829	0.346	0.083
-380.931	800.000	0.037	-0.133
-379.917	800.000	-0.066	-0.259
-378.902	311.128	0.105	0.197
-377.888	-21.099	-0.125	0.076
-376.873	800.000	-0.117	-0.353
-375.858	265.478	0.088	0.154
-374.844	-26.709	0.133	0.078
-373.829	-200.000	0.025	0.136
-372.815	-17.820	0.330	0.206
-371.800	-145.793	0.058	0.005
-370.785	34.303	0.033	-0.029
-369.771	34.285	0.240	-0.209
-368.756	104.528	-0.246	-0.289
-367.742	34.196	0.100	0.087
-366.727	-43.723	-0.246	0.124
-365.712	175.382	0.255	0.369
-364.698	-71.091	0.141	-0.053
-363.683	-144.912	0.234	0.021
-362.669	160.416	-0.069	0.095
-361.654	-81.618	0.072	-0.024
-360.639	139.529	0.146	0.192
-359.625	46.302	0.047	-0.043
-358.610	-102.774	0.214	0.051
-357.596	-200.000	-0.041	0.222
-356.581	1.912	-0.269	-0.193
-355.566	44.373	0.126	0.115
-354.552	151.452	0.176	0.240
-353.537	42.469	0.311	0.282
-352.523	800.000	-0.062	0.228
-351.508	-200.000	-0.002	-0.057
-350.493	574.291	-0.116	-0.281
-349.479	199.655	0.257	0.393
-348.464	-92.290	-0.033	0.009
-347.450	185.877	-0.088	-0.131
-346.435	-15.937	-0.286	0.181
-345.420	800.000	0.036	0.108
-344.406	-200.000	-0.034	-0.191
-343.391	-200.000	0.011	-0.277
-342.377	-144.941	-0.294	-0.027
-341.362	-45.893	-0.121	-0.059
-340.348	-69.175	-0.061	-0.023
-339.333	208.940	-0.017	0.027
-338.318	115.321	-0.073	0.089
-337.304	28.676	-0.139	-0.117
-336.289	17.339	-0.112	0.088
-335.275	89.206	-0.243	0.270
-334.260	-71.557	-0.259	-0.097
-333.245	-43.727	0.089	0.045
-332.231	-200.000	-0.011	-0.205
-331.216	-200.000	0.053	-0.244
-330.202	-38.884	0.043	-0.023
-329.187	-200.000	-0.002	-0.234
-328.172	-124.973	-0.220	-0.034
-327.158	-200.000	-0.017	0.174
-326.143	-153.932	-0.398	-0.027
-325.129	-102.517	0.176	-0.042
-324.114	-26.698	-0.089	-0.052
-323.099	-200.000	0.039	0.401
-322.085	-43.458	-0.233	-0.117
-321.070	-71.996	-0.087	0.032
-320.056	-187.983	-0.148	0.002
-319.041	-86.769	0.448	-0.136
-318.026	208.997	0.043	0.067
-317.012	-200.000	0.053	-0.443
-315.997	800.000	-0.025	-0.094
-314.983	68.046	-0.123	-0.125
-313.968	378.405	0.195	0.397
-312.953	-200.000	0.007	-0.062
-311.939	800.000	0.049	-0.148
-310.924	-45.832	-0.152	-0.075
-309.910	271.309	-0.141	0.248
-308.895	-197.569	0.163	0.001
-307.880	800.000	0.088	-0.305
-306.866	-137.490	0.154	0.017
-305.851	-200.000	-0.020	-0.408
-304.837	-17.295	-0.098	0.061
-303.822	52.728	0.094	0.090
-302.807	-91.927	-0.223	-0.063
-301.793	332.686	-0.057	0.110
-300.778	325.571	0.032	0.060
-299.764	-200.000	-0.016	-0.197
-298.749	-200.000	-0.036	-0.233
-297.735	-27.729	0.183	0.105
-296.720	-88.777	-0.396	0.117
-295.705	-65.274	0.237	0.095
-294.691	580.581	-0.070	0.172
-293.676	-95.811	0.518	0.138
-292.662	-200.000	0.014	-0.384
-291.647	800.000	-0.039	-0.129
-290.632	73.366	0.038	0.040
-289.618	-87.587	-0.306	-0.092
-288.603	-18.085	-0.140	0.087
-287.589	-200.000	-0.138	-0.000
-286.574	-52.158	-0.079	-0.037
-285.559	64.234	0.138	0.138
-284.545	96.913	0.228	-0.259
-283.530	-164.651	0.417	-0.019
-282.516	800.000	-0.065	0.202
-281.501	216.195	0.156	0.247
-280.486	-8.929	-0.167	0.111
-279.472	-5.302	0.189	-0.129
-278.457	202.105	0.130	0.199
-277.443	39.436	0.290	-0.258
-276.428	-200.000	0.086	-0.399
-275.413	165.634	0.129	-0.182
-274.399	-70.605	0.485	-0.182
-273.384	42.056	-0.300	-0.271
-272.370	-77.212	-0.164	-0.057
-271.355	226.554	0.098	-0.158
-270.340	1.460	0.211	0.151
-269.326	315.296	0.209	0.392
-268.311	-138.689	0.125	0.014
-267.297	800.000	-0.083	0.276
-266.282	159.565	0.171	-0.236
-265.267	-68.670	-0.144	0.055
-264.253	-200.000	-0.050	-0.317
-263.238	73.491	-0.315	-0.328
-262.224	-37.905	-0.145	0.076
-261.209	-71.917	-0.159	0.059
-260.195	-200.000	-0.009	-0.165
-259.180	-200.000	-0.036	-0.218
-258.165	-200.000	-0.069	0.301
-257.151	-133.338	0.248	-0.031
-256.136	-196.925	0.602	-0.004
-255.122	-200.000	0.013	-0.069
-254.107	800.000	-0.058	0.175
-253.092	800.000	-0.055	0.202
-252.078	-44.118	0.230	0.115
-251.063	255.937	0.067	-0.115
-250.049	222.661	0.085	-0.135
-249.034	-95.002	-0.070	-0.019
-248.019	-115.463	-0.179	0.033
-247.005	-139.762	-0.120	-0.013
-245.990	-200.000	-0.037	0.410
-244.976	-53.247	0.236	0.107
-243.961	-53.381	-0.101	0.046
-242.946	-107.518	-0.284	-0.062
-241.932	179.950	0.127	0.184
-240.917	-200.000	0.048	0.315
-239.903	25.172	-0.329	0.271
-238.888	-145.103	-0.280	-0.025
-237.873	-200.000	0.005	0.106
-236.859	6.944	0.140	0.103
-235.844	21.567	-0.253	-0.205
-234.830	-200.000	0.014	-0.237
-233.815	234.785	-0.098	-0.161
-232.800	102.195	0.117	0.135
-231.786	381.387	-0.077	0.156
-230.771	-200.000	-0.052	0.320
-229.757	-80.974	0.332	0.109
-228.742	345.206	-0.191	0.372
-227.727	296.049	-0.084	0.153
-226.713	-140.597	0.146	0.015
-225.698	-104.802	0.230	0.053
-224.684	-93.939	-0.346	0.094
-223.669	-134.772	0.290	0.035
-222.655	308.570	0.134	0.247
-221.640	-150.762	-0.112	0.008
-220.625	231.241	0.080	0.129
-219.611	-93.027	0.282	0.078
-218.596	68.146	-0.254	-0.258
-217.582	178.960	-0.087	-0.127
-216.567	120.618	0.158	0.195
-215.552	31.597	-0.408	-0.348
-214.538	7.906	0.352	-0.261
-213.523	-66.566	0.248	0.097
-212.509	-14.529	-0.237	0.151
-211.494	15.457	-0.167	0.130
-210.479	-83.672	0.197	-0.062
-209.465	300.240	-0.083	-0.152
-208.450	-95.902	0.226	-0.060
-207.436	411.661	0.111	0.234
-206.421	103.627	-0.202	-0.236
-205.406	637.311	0.145	-0.364
-204.392	-83.510	-0.432	-0.137
-203.377	427.253	0.097	0.207
-202.363	-35.333	0.329	-0.177
-201.348	69.139	-0.125	0.128
-200.333	800.000	-0.038	-0.144
-199.319	-200.000	0.049	-0.219
-198.304	-154.231	0.100	0.007
-197.290	800.000	-0.028	0.121
-196.275	800.000	-0.038	0.108
-195.260	-40.764	-0.128	0.066
-194.246	-200.000	-0.014	-0.085
-193.231	172.896	-0.138	0.198
-192.217	-60.813	-0.300	0.126
-191.202	-200.000	-0.055	0.468
-190.187	-200.000	-0.003	-0.120
-189.173	-71.470	-0.271	0.101
-188.158	105.577	0.332	-0.389
-187.144	-70.832	-0.081	0.030
-186.129	-131.284	-0.356	0.047
-185.114	-108.252	0.250	0.054
-184.100	195.617	-0.127	0.191
-183.085	-200.000	0.022	-0.118
-182.071	-95.855	-0.125	-0.033
-181.056	-23.273	0.140	0.083
-180.042	-200.000	0.085	0.404
-179.027	-77.479	-0.157	0.054
-178.012	-74.893	0.197	0.070
-176.998	174.977	0.102	-0.146
-175.983	526.410	-0.119	-0.279
-174.969	-146.790	-0.262	0.022
-173.954	-15.229	0.142	0.090
-172.939	535.518	0.048	-0.112
-171.925	-21.175	-0.117	-0.071
-170.910	-81.757	0.025	-0.008
-169.896	-200.000	-0.014	0.099
-168.881	-178.181	0.081	0.002
-167.866	326.733	-0.133	-0.252
-166.852	-71.240	-0.253	0.094
-165.837	-112.282	0.202	-0.040
-164.823	-115.083	0.222	-0.042
-163.808	44.935	-0.111	0.101
-162.793	733.715	-0.097	0.257
-161.779	800.000	0.054	-0.214
-160.764	800.000	0.130	-0.394
-159.750	-200.000	0.050	-0.319
-158.735	-46.624	0.126	0.061
-157.720	-200.000	-0.050	0.230
-156.706	-86.900	-0.388	-0.117
-155.691	296.593	-0.041	-0.074
-154.677	-132.757	0.165	-0.021
-153.662	130.546	-0.214	0.271
-152.647	114.784	-0.036	-0.044
-151.633	800.000	0.050	0.184
-150.618	800.000	-0.097	-0.400
-149.604	16.655	0.398	0.311
-148.589	20.684	0.355	0.284
-147.574	-200.000	0.012	0.067
-146.560	31.875	-0.086	-0.073
-145.545	-59.556	-0.133	-0.057
-144.531	136.932	-0.227	-0.293
-143.516	118.799	0.352	0.430
-142.502	0.440	-0.412	0.291
-141.487	2.550	-0.088	-0.063
-140.472	-200.000	0.041	-0.419
-139.458	648.580	-0.045	0.115
-138.443	402.157	-0.144	0.299
-137.429	-200.000	0.013	0.266
-136.414	595.846	-0.046	0.112
-135.399	-70.504	-0.262	-0.098
-134.385	-46.085	-0.076	0.037
-133.370	238.689	0.225	0.369
-132.356	527.533	-0.078	-0.182
-131.341	352.612	0.165	0.324
-130.326	98.325	-0.217	0.248
-129.312	323.050	0.055	0.104
-128.297	212.984	0.089	0.138
-127.283	331.830	0.102	0.194
-126.268	-1.659	-0.092	0.064
-125.253	-48.675	-0.222	-0.105
-124.239	14.863	-0.099	0.077
-123.224	-139.337	0.228	0.024
-122.210	-200.000	-0.068	0.321
-121.195	-5.484	0.155	-0.105
-120.180	800.000	-0.057	0.210
-119.166	-8.012	-0.218	0.146
-118.151	-97.848	0.274	0.070
-117.137	-89.011	0.413	0.121
-116.122	344.102	0.040	-0.078
-115.107	-24.497	0.119	-0.070
-114.093	185.348	0.064	-0.094
-113.078	156.850	-0.128	0.175
-112.064	-31.510	0.223	0.124
-111.049	-200.000	0.038	-0.313
-110.034	800.000	0.069	-0.192
-109.020	384.809	0.033	0.068
-108.005	143.491	0.089	-0.117
-106.991	-200.000	-0.034	-0.318
-105.976	-78.318	0.050	-0.017
-104.962	-10.264	0.117	-0.077
-103.947	47.974	0.055	0.050
-102.932	-200.000	0.037	0.324
-101.918	-10.962	-0.280	0.183
-100.903	-0.647	0.109	-0.076
-99.889	-39.139	-0.227	-0.118
-98.874	-119.997	-0.046	-0.008
-97.859	800.000	-0.016	-0.062
-96.845	-33.207	0.094	-0.052
-95.830	-115.939	-0.172	0.032
-94.816	-200.000	-0.003	-0.161
-93.801	-16.497	-0.184	0.115
-92.786	-156.198	-0.141	0.009
-91.772	-103.049	0.219	0.051
-90.757	800.000	-0.040	0.168
-89.743	-86.366	0.129	0.039
-88.728	109.677	0.201	-0.238
-87.713	25.816	0.167	0.138
-86.699	-103.423	-0.328	-0.076
-85.684	32.329	-0.217	0.185
-84.670	11.481	-0.056	0.042
-83.655	-111.186	0.282	-0.057
-82.640	-79.296	-0.197	-0.066
-81.626	134.627	-0.048	0.062
-80.611	72.014	-0.186	-0.191
-79.597	800.000	0.051	-0.179
-78.582	-200.000	-0.019	-0.139
-77.567	658.723	0.139	0.352
-76.553	-89.440	-0.159	0.046
-75.538	72.906	0.263	-0.271
-74.524	800.000	-0.063	0.184
-73.509	31.499	0.092	-0.078
-72.494	-42.881	-0.219	-0.110
-71.480	-62.349	0.298	0.122
-70.465	800.000	-0.084	0.252
-69.451	-178.652	-0.225	-0.005
-68.436	-200.000	0.004	0.206
-67.422	-119.049	0.269	0.046
-66.407	-200.000	-0.011	0.121
-65.392	245.190	0.160	-0.266
-64.378	232.739	-0.092	0.149
-63.363	329.126	0.106	-0.201
-62.349	800.000	-0.019	-0.058
-61.334	247.713	-0.584	-0.973
-60.319	-107.098	0.529	0.115
-59.305	800.000	-0.295	-0.859
-58.290	649.235	0.373	0.940
-57.276	-200.000	0.177	1.569
-56.261	-200.000	95.483	564.751
-55.246	636.805	1377.406	3447.262
-54.232	197.660	2551.689	3839.906
-53.217	118.975	2144.894	2612.351
-52.203	44.516	1608.504	1456.169
-51.188	36.549	1346.058	1170.534
-50.173	33.302	1303.708	1114.577
-49.159	55.304	1349.855	1286.192
-48.144	57.465	1367.108	1315.508
-47.130	36.642	1325.838	1153.324
-46.115	33.089	1308.818	1117.512
-45.100	32.986	1304.130	1112.857
-44.086	32.931	1301.654	1110.374
-43.071	32.929	1298.952	1108.015
-42.057	32.706	1298.145	1105.971
-41.042	32.834	1295.916	1104.783
-40.027	32.857	1294.440	1103.611
-39.013	32.934	1292.118	1102.038
-37.998	32.960	1290.539	1100.801
-36.984	32.950	1288.961	1099.351
-35.969	32.987	1287.272	1098.082
-34.954	33.032	1285.465	1096.757
-33.940	32.944	1284.192	1095.119
-32.925	33.051	1282.897	1094.589
-31.911	32.999	1281.237	1092.833
-30.896	33.082	1279.711	1091.964
-29.881	33.149	1278.143	1090.974
-28.867	33.063	1277.200	1089.629
-27.852	33.143	1275.651	1088.724
-26.838	33.134	1274.021	1087.236
-25.823	33.186	1272.748	1086.408
-24.809	33.142	1271.416	1084.976
-23.794	33.033	1270.023	1083.118
-22.779	32.961	1269.168	1081.934
-21.765	32.981	1267.881	1080.907
-20.750	33.098	1266.367	1080.245
-19.736	33.033	1264.936	1078.605
-18.721	32.972	1264.109	1077.512
-17.706	33.007	1263.023	1076.743
-16.692	32.981	1261.885	1075.581
-15.677	33.036	1260.666	1074.814
-14.663	32.966	1259.729	1073.576
-13.648	32.875	1258.556	1072.013
-12.633	32.991	1257.665	1071.872
-11.619	32.976	1256.780	1070.987
-10.604	32.980	1256.222	1070.495
-9.590	32.909	1254.985	1068.993
-8.575	32.965	1254.238	1068.633
-7.560	32.944	1253.138	1067.536
-6.546	32.860	1252.111	1066.142
-5.531	32.918	1251.472	1065.883
-4.517	32.870	1250.910	1065.095
-3.502	32.978	1249.985	1064.870
-2.487	32.962	1248.789	1063.721
-1.473	32.865	1245.037	1059.938
-0.458	31.434	1230.270	1039.378
0.556	27.170	1212.465	1000.936
1.571	23.433	1217.757	984.506
2.586	22.409	1232.801	990.817
3.600	21.789	1221.559	978.240
4.615	16.561	1150.277	893.528
5.629	8.507	1076.388	796.099
6.644	4.902	1056.846	763.923
7.659	4.697	1054.611	761.239
8.673	4.762	1053.402	760.616
9.688	4.719	1052.340	759.572
10.702	4.860	1050.336	758.743
11.717	9.285	1056.429	784.720
12.731	16.482	1066.686	827.622
13.746	19.257	1069.293	843.168
14.761	18.672	1067.126	838.528
15.775	17.423	1065.558	831.125
16.790	16.431	1063.251	824.417
17.804	15.723	1061.606	819.619
18.819	15.414	1060.641	817.298
19.834	15.204	1060.023	815.726
20.848	14.841	1059.330	813.352
21.863	14.707	1058.468	811.969
22.877	14.528	1057.845	810.549
23.892	14.567	1056.854	809.906
24.907	14.639	1056.129	809.630
25.921	14.619	1054.996	808.594
26.936	14.723	1053.236	807.677
27.950	14.551	1052.480	806.190
28.965	14.705	1050.966	805.703
29.980	14.884	1049.275	805.202
30.994	14.923	1048.035	804.363
32.009	14.896	1047.773	803.963
33.023	14.712	1046.757	802.226
34.038	14.787	1045.081	801.231
35.053	14.700	1044.288	800.137
36.067	14.770	1043.424	799.738
37.082	14.815	1042.839	799.436
38.096	14.993	1041.617	799.276
39.111	14.825	1040.849	797.814
40.126	14.811	1039.595	796.718
41.140	14.471	1038.480	794.173
42.155	14.464	1037.612	793.407
43.169	14.492	1036.409	792.547
44.184	14.565	1035.181	791.887
45.199	14.417	1034.422	790.534
46.213	14.520	1033.192	790.009
47.228	14.606	1032.408	789.747
48.242	14.717	1031.107	789.207
49.257	14.680	1030.200	788.270
50.271	14.674	1029.504	787.641
51.286	14.743	1028.751	787.318
52.301	14.815	1027.214	786.414
53.315	14.648	1026.677	785.147
54.330	14.529	1025.606	783.699
55.344	14.567	1024.931	783.293
56.359	14.674	1023.830	782.882
57.374	14.578	1022.919	781.666
58.388	14.409	1022.265	780.306
59.403	14.551	1021.273	780.143
60.417	14.556	1020.270	779.334
61.432	14.453	1019.719	778.360
62.447	14.341	1019.013	777.231
63.461	14.334	1018.074	776.411
64.476	14.273	1017.210	775.402
65.490	14.331	1016.702	775.218
66.505	14.386	1015.624	774.583
67.520	14.385	1015.160	774.156
68.534	14.451	1014.348	773.772
69.549	14.402	1013.827	773.081
70.563	14.374	1012.899	772.176
71.578	14.239	1012.264	770.997
72.593	14.306	1011.023	770.294
73.607	14.165	1010.955	769.520
74.622	14.346	1010.109	769.646
75.636	14.354	1009.143	768.876
76.651	14.305	1008.689	768.237
77.666	14.373	1007.981	767.946
78.680	14.398	1007.088	767.309
79.695	14.439	1006.531	767.008
80.709	14.498	1005.975	766.785
81.724	14.513	1005.723	766.597
82.739	14.538	1004.572	765.764
83.753	14.714	1004.006	766.073
84.768	14.703	1003.462	765.542
85.782	14.858	1002.781	765.662
86.797	14.833	1001.350	764.390
87.812	14.688	1000.591	763.078
88.826	14.787	999.835	762.887
89.841	14.800	998.317	761.718
90.855	14.865	997.798	761.553
91.870	14.867	997.081	760.945
92.884	14.837	996.357	760.192
93.899	14.873	995.326	759.503
94.914	14.974	994.653	759.380
95.928	14.750	994.195	757.944
96.943	14.934	992.794	757.645
97.957	14.895	991.675	756.548
98.972	14.855	991.393	756.084
99.987	14.833	990.624	755.329
101.001	14.831	989.773	754.605
102.016	14.852	988.663	753.787
103.030	14.848	988.037	753.224
104.045	14.828	987.417	752.596
105.060	14.622	986.487	750.894
106.074	14.557	985.419	749.724
107.089	14.584	984.364	748.975
108.103	14.453	983.816	747.906
109.118	14.405	982.823	746.869
110.133	14.446	981.681	746.115
111.147	14.411	980.908	745.309
112.162	14.430	980.275	744.845
113.176	14.612	979.302	744.855
114.191	14.704	978.684	744.727
115.206	14.619	978.134	743.863
116.220	14.451	977.414	742.501
117.235	14.596	976.362	742.284
118.249	14.525	975.545	741.278
119.264	14.627	974.633	740.976
120.279	14.455	974.057	739.709
121.293	14.483	972.960	738.934
122.308	14.496	972.036	738.223
123.322	14.433	971.033	737.120
124.337	14.553	969.651	736.532
125.352	14.491	968.955	735.667
126.366	14.513	967.996	734.969
127.381	14.396	967.389	733.927
128.395	14.467	966.471	733.478
129.410	14.469	965.248	732.496
130.424	14.568	965.069	732.730
131.439	14.624	964.181	732.235
132.454	14.581	963.359	731.361
133.468	14.726	962.138	731.004
134.483	14.783	961.680	730.837
135.497	14.807	960.555	730.023
136.512	14.627	960.267	728.956
137.527	14.733	958.925	728.332
138.541	14.707	958.042	727.484
139.556	14.822	957.542	727.544
140.570	14.791	957.270	727.136
141.585	14.893	956.260	726.747
142.600	14.926	955.625	726.344
143.614	14.894	954.852	725.555
144.629	14.933	954.076	725.070
145.643	14.931	952.695	723.947
146.658	14.849	951.935	722.951
147.673	14.923	950.502	722.118
148.687	14.638	950.301	720.669
149.702	14.629	949.435	719.910
150.716	14.684	948.549	719.413
151.731	14.819	947.600	719.211
152.746	14.638	947.371	718.193
153.760	14.603	946.668	717.447
154.775	14.957	945.842	718.276
155.789	14.797	945.536	717.297
156.804	14.780	944.904	716.681
157.819	14.913	944.221	716.668
158.833	14.993	943.545	716.432
159.848	15.017	942.601	715.755
160.862	14.992	941.880	715.039
161.877	14.967	940.371	713.723
162.892	14.758	939.634	712.210
163.906	14.682	939.059	711.387
164.921	14.766	938.243	711.062
165.935	14.986	936.849	710.879
166.950	14.916	936.255	710.068
167.964	14.764	935.482	708.776
168.979	14.882	934.332	708.338
169.994	14.987	933.180	707.850
171.008	15.029	932.521	707.465
172.023	15.049	932.133	707.193
173.037	15.055	931.724	706.845
174.052	15.013	930.831	705.924
175.067	14.906	930.057	704.825
176.081	14.886	929.166	704.003
177.096	14.838	928.697	703.386
178.110	14.939	928.412	703.531
179.125	14.916	927.614	702.766
180.140	14.903	927.444	702.520
181.154	15.025	926.803	702.486
182.169	15.143	926.021	702.325
183.183	15.215	925.543	702.202
184.198	15.108	924.970	701.258
185.213	15.148	924.152	700.743
186.227	15.195	923.657	700.504
187.242	15.269	922.920	700.192
188.256	15.363	922.531	700.228
189.271	15.327	921.413	699.164
190.286	14.983	920.803	697.207
191.300	14.844	920.132	696.058
192.315	14.788	919.694	695.431
193.329	14.858	918.812	694.995
194.344	14.950	918.139	694.807
195.359	15.041	917.638	694.746
196.373	15.271	916.926	695.098
197.388	15.169	916.975	694.649
198.402	15.410	916.101	694.927
199.417	15.420	915.505	694.451
200.432	15.509	915.192	694.522
201.446	15.717	914.112	694.499
202.461	15.448	913.755	693.058
203.475	15.432	913.457	692.704
204.490	15.372	912.640	691.777
205.504	15.332	911.563	690.731
206.519	15.313	910.881	690.078
207.534	15.390	910.223	689.833
208.548	15.369	909.582	689.202
209.563	15.439	909.075	689.044
210.577	15.465	908.320	688.518
211.592	15.539	907.852	688.405
212.607	15.494	907.059	687.556
213.621	15.551	906.241	687.112
214.636	15.564	905.146	686.271
215.650	15.623	904.515	685.975
216.665	15.573	904.418	685.635
217.680	15.639	903.312	685.007
218.694	15.649	903.572	685.182
219.709	15.620	902.632	684.290
220.723	15.670	901.997	683.953
221.738	15.633	901.244	683.172
222.753	15.653	900.398	682.549
223.767	15.751	899.905	682.513
224.782	15.798	899.630	682.435
225.796	15.730	898.840	681.498
226.811	15.847	898.071	681.330
227.826	15.810	897.204	680.462
228.840	15.691	896.558	679.434
229.855	15.709	895.811	678.879
230.869	15.747	894.746	678.166
231.884	15.692	894.583	677.758
232.899	15.680	893.749	677.017
233.913	15.694	892.520	676.083
234.928	15.638	892.336	675.662
235.942	15.664	891.734	675.249
236.957	15.763	891.160	675.153
237.972	15.716	890.097	674.098
238.986	15.616	890.443	673.902
240.001	15.701	889.196	673.238
241.015	15.497	888.870	672.114
242.030	15.707	888.380	672.525
243.045	15.776	887.925	672.394
244.059	15.832	887.103	671.939
245.074	15.744	886.541	671.103
246.088	15.977	885.357	671.074
247.103	15.921	884.824	670.389
248.117	16.006	884.552	670.461
249.132	16.186	884.386	670.992
250.147	16.143	884.141	670.574
251.161	16.256	882.983	670.084
252.176	16.378	882.375	670.049
253.190	16.315	881.544	669.111
254.205	16.341	881.192	668.887
255.220	16.284	880.781	668.291
256.234	16.237	880.114	667.539
257.249	16.449	879.024	667.488
258.263	16.408	877.998	666.489
259.278	16.404	877.881	666.328
260.293	16.369	877.060	665.505
261.307	16.491	876.610	665.587
262.322	16.480	876.248	665.208
263.336	16.507	875.630	664.788
264.351	16.398	874.828	663.692
265.366	16.644	874.182	664.107
266.380	16.478	873.687	663.020
267.395	16.461	873.108	662.455
268.409	16.500	872.170	661.841
269.424	16.567	871.218	661.321
270.439	16.524	870.409	660.480
271.453	16.380	870.123	659.641
272.468	16.273	869.557	658.737
273.482	16.309	869.691	658.923
274.497	16.414	868.751	658.560
275.512	16.448	867.706	657.843
276.526	16.412	867.418	657.427
277.541	16.604	867.078	657.857
278.555	16.625	866.383	657.354
279.570	16.678	865.484	656.819
280.585	16.646	865.114	656.355
281.599	16.572	864.465	655.517
282.614	16.646	863.369	654.914
283.628	16.571	862.954	654.250
284.643	16.617	862.363	653.923
285.657	16.702	861.671	653.669
286.672	16.742	860.863	653.151
287.687	16.692	860.540	652.658
288.701	16.720	860.047	652.334
289.716	16.740	859.285	651.776
290.730	16.710	859.077	651.445
291.745	16.611	858.839	650.825
292.760	16.852	857.543	650.711
293.774	16.847	856.868	650.122
294.789	16.933	856.415	650.049
295.803	16.863	855.685	649.170
296.818	16.685	855.249	648.101
297.833	16.733	854.667	647.788
298.847	16.789	854.110	647.519
299.862	16.846	853.622	647.310
300.876	16.793	853.051	646.619
301.891	16.881	852.327	646.348
302.906	17.092	851.830	646.719
303.920	17.034	851.395	646.109
304.935	17.155	850.819	646.077
305.949	16.988	850.275	644.969
306.964	17.181	849.491	645.050
307.979	17.099	848.983	644.297
308.993	17.131	848.330	643.864
310.008	17.050	847.927	643.199
311.022	17.021	847.602	642.783
312.037	17.073	846.871	642.369
313.052	17.143	845.386	641.452
314.066	17.029	845.521	641.065
315.081	16.839	845.321	640.140
316.095	16.977	844.075	639.660
317.110	16.955	843.458	639.053
318.125	17.018	843.032	638.910
319.139	16.911	843.001	638.429
320.154	17.011	842.351	638.254
321.168	17.036	841.706	637.802
322.183	17.042	841.499	637.611
323.197	17.171	840.847	637.546
324.212	17.067	840.390	636.752
325.227	17.318	839.703	637.116
326.241	17.071	839.171	635.731
327.256	17.081	838.532	635.228
328.270	17.008	838.044	634.529
329.285	17.053	837.437	634.182
330.300	17.080	836.631	633.616
331.314	17.111	836.546	633.613
332.329	17.203	835.851	633.373
333.343	17.244	835.519	633.219
334.358	17.366	835.116	633.311
335.373	17.342	834.615	632.784
336.387	17.293	834.655	632.577
337.402	17.250	834.241	632.047
338.416	17.373	833.975	632.246
339.431	17.461	833.659	632.277
340.446	17.528	832.751	631.784
341.460	17.566	832.597	631.751
342.475	17.645	832.361	631.808
343.489	17.633	831.673	631.185
344.504	17.859	830.935	631.409
345.519	17.600	830.962	630.415
346.533	17.734	830.144	630.232
347.548	17.495	829.788	629.023
348.562	17.571	829.372	628.933
349.577	17.420	828.764	627.860
350.592	17.475	828.032	627.451
351.606	17.585	826.888	626.932
352.621	17.560	826.478	626.476
353.635	17.478	825.915	625.692
354.650	17.563	825.613	625.720
355.665	17.643	825.110	625.576
356.679	17.651	824.413	625.024
357.694	17.722	823.573	624.590
358.708	17.527	823.037	623.415
359.723	17.654	822.436	623.368
360.738	17.574	822.050	622.730
361.752	17.670	821.408	622.539
362.767	17.721	821.020	622.375
363.781	17.946	820.057	622.412
364.796	17.895	820.039	622.157
365.810	18.075	819.291	622.191
366.825	17.952	819.004	621.468
367.840	18.041	818.660	621.476
368.854	17.879	818.375	620.614
369.869	17.904	817.807	620.221
370.883	17.944	817.649	620.192
371.898	18.160	817.032	620.454
372.913	18.184	816.479	620.065
373.927	18.129	816.158	619.568
374.942	18.033	815.519	618.681
375.956	18.072	815.341	618.632
376.971	18.429	814.449	619.188
377.986	18.370	813.761	618.398
379.000	18.209	813.682	617.703
380.015	18.241	813.296	617.472
381.029	18.265	812.480	616.882
382.044	18.273	812.433	616.820
383.059	18.326	811.491	616.241
384.073	18.196	811.164	615.470
385.088	18.045	810.539	614.400
386.102	18.114	809.721	613.972
387.117	18.209	808.960	613.682
388.132	18.062	808.940	613.086
389.146	18.235	808.129	613.035
390.161	18.292	807.800	612.937
391.175	18.297	807.141	612.401
392.190	18.148	807.183	611.844
393.205	18.018	806.771	611.013
394.219	18.350	805.771	611.388
395.234	18.125	805.556	610.366
396.248	18.160	804.814	609.875
397.263	18.097	804.592	609.431
398.278	18.062	804.263	609.004
399.292	18.152	803.704	608.846
400.307	18.096	803.742	608.621
401.321	18.295	802.570	608.387
402.336	18.408	802.164	608.427
403.350	18.188	802.180	607.604
404.365	18.353	801.564	607.669
405.380	18.499	801.031	607.728
406.394	18.389	800.619	606.974
407.409	18.522	800.178	607.054
408.423	18.476	800.157	606.821
409.438	18.626	799.616	606.889
410.453	18.606	799.073	606.352
411.467	18.660	798.676	606.188
412.482	18.675	798.359	605.949
413.496	18.782	798.124	606.094
414.511	18.750	797.607	605.535
415.526	18.891	796.720	605.302
416.540	18.671	796.538	604.337
417.555	18.740	795.924	604.060
418.569	18.722	795.907	603.930
419.584	18.842	795.371	603.893
420.599	18.710	794.883	603.006
421.613	156.427	1370.657	1793.186
422.628	135.466	1454.541	1793.289
