DTS Sentinel unit serial number:	SN413079Multiplexer serial number:	ORYXHardware model number:	OX4-SRSoftware version number:	ORYX F/W v4.00 Oryx Data Collector v3.7.2.0data status	okinstallation	princeton_trtdifferential loss correction	single-endedforward channel	channel 1reverse channel	N/Adate	2019/09/16time	08:34:36forward acquisition time	60.00reverse acquisition time	0.00gamma	496.2192k internal	0.2325k external	0.2325temperature offset calibration	0.9980default loss term (dB/km)	0.3790temperature slope calibration	1.0000multiplexer offset coefficient	1.0000multiplexer slope coefficient	1.0000fibre end	0.00T internal ref (°C)	29.44T ext. ref 1 (°C)	11.92T ext. ref 2 (°C)	26.09length (m)	temperature (°C)	Stokes	anti-Stokes-747.200	246.724	-0.057	0.098
-746.185	36.420	0.075	0.067
-745.171	-200.000	0.006	-0.318
-744.156	800.000	0.124	0.347
-743.142	-200.000	0.483	0.002
-742.127	-200.000	-0.065	0.399
-741.112	-200.000	-0.006	0.091
-740.098	457.597	-0.047	0.106
-739.083	-161.960	0.192	-0.010
-738.069	800.000	0.154	-0.435
-737.054	-35.042	-0.360	-0.198
-736.039	-175.308	0.083	0.002
-735.025	-121.071	0.223	-0.038
-734.010	-65.861	-0.425	-0.172
-732.996	115.054	-0.045	-0.056
-731.981	-182.324	0.234	0.004
-730.966	-112.962	-0.342	-0.068
-729.952	60.318	-0.168	0.168
-728.937	-137.183	0.128	-0.015
-727.923	-200.000	0.033	-0.203
-726.908	-150.526	-0.282	-0.022
-725.894	-48.101	-0.098	-0.048
-724.879	188.991	-0.269	-0.406
-723.864	613.522	0.081	-0.204
-722.850	-200.000	0.006	0.110
-721.835	-11.397	-0.281	-0.186
-720.821	158.805	-0.137	-0.192
-719.806	-200.000	0.043	0.195
-718.791	158.348	-0.277	-0.388
-717.777	800.000	0.095	-0.307
-716.762	-2.580	0.086	0.061
-715.748	-70.273	-0.394	-0.151
-714.733	588.859	0.033	0.082
-713.718	-43.620	0.192	-0.098
-712.704	-143.021	-0.257	0.025
-711.689	169.316	-0.315	0.453
-710.675	800.000	0.064	-0.258
-709.660	245.949	0.025	-0.042
-708.645	800.000	-0.022	0.068
-707.631	-96.588	0.082	-0.022
-706.616	-149.348	0.281	-0.023
-705.602	438.161	-0.076	-0.168
-704.587	339.927	-0.065	-0.127
-703.572	-116.432	0.062	-0.011
-702.558	-50.769	-0.115	0.055
-701.543	53.851	-0.131	-0.127
-700.529	-74.133	-0.173	-0.063
-699.514	-11.897	0.229	0.151
-698.499	81.626	0.030	-0.033
-697.485	145.660	-0.118	-0.159
-696.470	-100.170	-0.245	0.061
-695.456	-27.030	0.248	-0.146
-694.441	364.571	-0.181	-0.367
-693.426	207.120	-0.154	-0.242
-692.412	-127.602	0.310	-0.045
-691.397	19.454	-0.195	0.158
-690.383	-13.060	0.085	-0.056
-689.368	-200.000	0.031	-0.317
-688.354	-87.376	-0.188	-0.057
-687.339	-135.843	-0.143	-0.017
-686.324	129.876	0.123	0.158
-685.310	800.000	-0.147	-0.423
-684.295	122.085	0.064	-0.080
-683.281	-200.000	0.000	0.050
-682.266	21.510	-0.267	-0.218
-681.251	-56.786	-0.582	0.259
-680.237	384.689	0.074	0.153
-679.222	88.287	-0.039	-0.043
-678.208	-200.000	-0.001	-0.153
-677.193	-102.306	0.178	-0.043
-676.178	96.731	0.177	0.204
-675.164	36.173	0.116	0.103
-674.149	26.357	0.274	0.231
-673.135	800.000	-0.041	-0.123
-672.120	135.633	-0.117	0.153
-671.105	173.490	0.087	0.126
-670.091	-106.952	-0.250	0.056
-669.076	-200.000	-0.064	-0.438
-668.062	86.238	-0.302	-0.335
-667.047	800.000	0.099	-0.374
-666.032	800.000	-0.045	-0.184
-665.018	-63.700	-0.107	0.044
-664.003	-63.813	-0.220	-0.091
-662.989	277.703	-0.131	-0.234
-661.974	354.900	-0.050	0.100
-660.959	800.000	-0.054	-0.197
-659.945	397.229	-0.068	-0.143
-658.930	800.000	0.121	0.393
-657.916	-200.000	0.086	0.408
-656.901	36.956	-0.214	0.191
-655.886	-68.206	-0.260	-0.102
-654.872	800.000	-0.135	0.390
-653.857	-200.000	-0.026	-0.632
-652.843	-2.877	0.190	-0.134
-651.828	-200.000	-0.009	-0.050
-650.814	82.719	0.076	0.083
-649.799	161.234	0.130	0.183
-648.784	-129.287	0.153	-0.021
-647.770	130.147	0.056	-0.072
-646.755	800.000	-0.061	-0.226
-645.741	158.108	0.083	-0.116
-644.726	97.945	-0.138	-0.160
-643.711	57.375	-0.182	-0.179
-642.697	-95.860	0.333	-0.089
-641.682	196.838	0.055	0.084
-640.668	424.755	-0.025	-0.055
-639.653	-97.956	0.268	-0.070
-638.638	77.448	-0.072	0.077
-637.624	-147.489	0.192	-0.016
-636.609	-110.417	0.135	0.028
-635.595	-200.000	-0.025	-0.263
-634.580	-116.489	0.134	-0.025
-633.565	-89.254	0.310	-0.092
-632.551	-73.232	0.145	0.053
-631.536	21.509	-0.208	-0.170
-630.522	348.391	0.063	-0.125
-629.507	-116.152	0.300	0.056
-628.492	136.804	-0.060	-0.079
-627.478	175.159	0.174	-0.253
-626.463	11.789	-0.248	-0.192
-625.449	14.449	-0.132	-0.104
-624.434	18.185	0.224	0.180
-623.419	263.860	0.215	0.375
-622.405	13.802	-0.227	-0.177
-621.390	357.814	-0.037	0.074
-620.376	19.047	-0.112	-0.090
-619.361	-200.000	-0.036	0.209
-618.346	-200.000	0.013	-0.197
-617.332	-102.277	0.100	-0.024
-616.317	-137.087	-0.215	0.025
-615.303	473.580	0.221	-0.500
-614.288	-200.000	0.005	0.136
-613.273	487.735	-0.051	0.118
-612.259	-64.129	-0.172	-0.071
-611.244	41.218	0.179	-0.163
-610.230	4.537	0.074	0.054
-609.215	67.211	-0.153	-0.156
-608.201	-107.935	-0.374	-0.082
-607.186	469.804	0.096	-0.217
-606.171	13.921	0.238	0.185
-605.157	-200.000	-0.014	-0.173
-604.142	438.828	-0.055	-0.121
-603.128	438.961	0.071	-0.155
-602.113	-200.000	-0.008	0.177
-601.098	800.000	-0.103	-0.357
-600.084	-200.000	0.047	-0.254
-599.069	748.521	0.140	-0.380
-598.055	30.555	0.195	-0.168
-597.040	20.103	-0.191	0.155
-596.025	261.487	-0.131	-0.227
-595.011	-46.076	0.220	-0.109
-593.996	-200.000	-0.021	0.186
-592.982	800.000	0.026	-0.083
-591.967	-10.983	-0.347	0.230
-590.952	-66.671	0.218	-0.087
-589.938	223.862	-0.011	0.018
-588.923	-200.000	0.006	-0.098
-587.909	-114.041	0.182	-0.035
-586.894	30.718	0.330	-0.283
-585.879	177.685	-0.055	-0.081
-584.865	-147.812	0.211	0.018
-583.850	-143.358	-0.622	0.060
-582.836	-4.442	-0.074	-0.051
-581.821	-200.000	-0.069	-0.345
-580.806	-102.241	0.241	-0.058
-579.792	605.132	-0.136	-0.341
-578.777	-163.771	-0.533	-0.025
-577.763	281.506	-0.068	0.121
-576.748	800.000	0.138	-0.401
-575.733	275.187	0.162	0.288
-574.719	-77.362	-0.267	-0.093
-573.704	-131.032	-0.377	-0.050
-572.690	-83.915	-0.288	0.092
-571.675	-83.170	0.351	-0.113
-570.661	50.355	0.072	-0.068
-569.646	751.817	-0.089	-0.242
-568.631	246.576	-0.082	-0.138
-567.617	-200.000	0.029	-0.143
-566.602	-200.000	-0.025	-0.235
-565.588	800.000	0.030	-0.127
-564.573	686.541	-0.048	-0.127
-563.558	-103.376	-0.437	-0.103
-562.544	-66.020	-0.315	-0.126
-561.529	800.000	-0.086	0.252
-560.515	-86.405	0.065	0.020
-559.500	-31.322	0.258	-0.146
-558.485	321.736	-0.071	0.136
-557.471	-122.137	0.211	0.035
-556.456	-200.000	-0.014	0.358
-555.442	11.160	-0.206	0.158
-554.427	-200.000	-0.008	0.229
-553.412	-101.292	0.023	-0.006
-552.398	800.000	-0.069	-0.260
-551.383	-200.000	-0.057	-0.341
-550.369	116.166	-0.152	-0.187
-549.354	-60.285	0.125	-0.054
-548.339	58.093	0.162	-0.159
-547.325	593.683	0.115	0.284
-546.310	-136.650	-0.365	-0.042
-545.296	-21.538	0.197	0.120
-544.281	-42.582	-0.303	0.154
-543.266	800.000	-0.076	0.311
-542.252	36.479	0.060	0.053
-541.237	-200.000	-0.002	-0.377
-540.223	-200.000	-0.030	0.252
-539.208	479.034	-0.128	0.290
-538.193	800.000	0.146	-0.549
-537.179	673.681	0.103	0.268
-536.164	800.000	0.080	0.251
-535.150	-200.000	-0.060	-0.381
-534.135	605.059	0.138	-0.345
-533.121	56.827	-0.084	0.082
-532.106	-118.616	-0.122	-0.022
-531.091	-54.411	-0.242	-0.110
-530.077	101.253	0.144	0.168
-529.062	-200.000	0.001	0.281
-528.048	-49.139	-0.115	0.055
-527.033	800.000	-0.036	-0.100
-526.018	131.675	0.106	0.137
-525.004	7.631	-0.229	0.171
-523.989	-200.000	0.012	-0.222
-522.975	-175.959	0.142	-0.004
-521.960	551.808	-0.033	0.079
-520.945	-111.334	-0.216	-0.044
-519.931	-47.407	0.051	0.025
-518.916	161.731	0.155	-0.218
-517.902	-1.078	0.163	0.115
-516.887	-35.218	-0.315	-0.172
-515.872	204.556	0.069	-0.107
-514.858	206.582	0.126	0.197
-513.843	95.966	-0.212	0.242
-512.829	800.000	-0.036	0.138
-511.814	800.000	0.100	0.356
-510.799	-137.112	-0.354	-0.040
-509.785	58.947	-0.148	-0.146
-508.770	145.805	0.039	-0.053
-507.756	-70.690	0.147	-0.056
-506.741	134.815	0.134	0.174
-505.726	29.080	0.093	0.079
-504.712	62.541	-0.195	0.194
-503.697	103.609	0.244	-0.286
-502.683	-200.000	-0.053	0.329
-501.668	-97.302	-0.157	0.041
-500.653	-200.000	0.039	-0.186
-499.639	100.941	0.262	-0.304
-498.624	800.000	0.046	-0.189
-497.610	42.667	0.147	0.134
-496.595	41.696	0.077	-0.069
-495.581	-200.000	0.012	0.151
-494.566	-148.581	-0.043	-0.003
-493.551	45.562	-0.068	0.063
-492.537	47.788	-0.191	0.178
-491.522	-87.673	-0.098	0.030
-490.508	276.025	0.092	0.163
-489.493	800.000	0.023	0.068
-488.478	-38.494	0.220	0.116
-487.464	44.147	-0.050	0.046
-486.449	-200.000	-0.039	-0.238
-485.435	346.472	0.059	0.117
-484.420	126.314	-0.178	-0.225
-483.405	-12.144	-0.286	0.187
-482.391	12.314	0.238	0.183
-481.376	-200.000	0.019	-0.249
-480.362	-150.176	-0.392	0.030
-479.347	-200.000	-0.036	-0.306
-478.332	63.224	0.338	-0.339
-477.318	286.494	0.117	0.212
-476.303	148.709	0.281	-0.379
-475.289	-126.550	0.248	0.037
-474.274	-157.730	0.294	0.017
-473.259	800.000	0.052	0.157
-472.245	38.777	-0.009	0.008
-471.230	-200.000	0.017	-0.130
-470.216	800.000	0.052	0.196
-469.201	-89.005	0.270	-0.080
-468.186	85.540	-0.079	-0.087
-467.172	88.950	0.119	-0.133
-466.157	-200.000	-0.031	-0.205
-465.143	-128.237	0.184	-0.026
-464.128	21.104	0.293	0.238
-463.113	32.759	0.178	-0.154
-462.099	-125.812	0.042	0.006
-461.084	-200.000	0.001	0.201
-460.070	258.231	-0.084	0.144
-459.055	-167.383	0.314	-0.013
-458.040	-92.999	0.105	0.029
-457.026	800.000	-0.017	-0.057
-456.011	224.641	0.091	-0.147
-454.997	-1.519	-0.216	0.152
-453.982	32.849	-0.089	0.077
-452.968	-22.889	0.122	-0.073
-451.953	-119.111	0.148	-0.026
-450.938	18.155	-0.176	0.140
-449.924	-136.044	0.245	-0.029
-448.909	-7.735	0.120	-0.081
-447.895	-200.000	0.060	-0.279
-446.880	-91.503	-0.188	0.053
-445.865	-29.758	0.163	-0.093
-444.851	-149.448	0.185	-0.015
-443.836	-120.134	-0.427	-0.073
-442.822	-78.567	-0.195	0.066
-441.807	-56.529	-0.499	0.221
-440.792	93.917	0.196	-0.221
-439.778	-19.850	0.276	-0.170
-438.763	64.243	-0.175	0.175
-437.749	-200.000	-0.012	0.071
-436.734	-1.820	0.197	-0.138
-435.719	253.710	0.065	-0.111
-434.705	-200.000	0.053	0.243
-433.690	186.906	-0.012	0.018
-432.676	800.000	0.057	0.180
-431.661	722.217	-0.082	-0.218
-430.646	-115.497	0.046	-0.009
-429.632	-15.111	0.199	0.127
-428.617	320.718	0.109	0.206
-427.603	324.039	0.058	0.110
-426.588	-0.602	-0.320	-0.226
-425.573	-200.000	0.042	-0.269
-424.559	205.114	0.038	-0.059
-423.544	-70.592	0.079	-0.030
-422.530	-183.747	-0.218	-0.004
-421.515	-35.998	-0.255	0.137
-420.500	554.636	-0.146	-0.351
-419.486	420.815	-0.141	-0.301
-418.471	-200.000	0.030	0.167
-417.457	800.000	0.097	-0.294
-416.442	-46.583	0.140	-0.069
-415.428	-93.197	0.059	-0.016
-414.413	-200.000	-0.036	0.369
-413.398	-200.000	-0.044	0.333
-412.384	14.954	-0.284	0.221
-411.369	-146.671	0.092	0.008
-410.355	135.423	0.115	-0.149
-409.340	-18.331	-0.134	-0.083
-408.325	-170.585	-0.267	0.009
-407.311	228.377	-0.131	0.212
-406.296	-200.000	0.033	0.204
-405.282	-200.000	0.021	-0.096
-404.267	-78.844	0.405	0.137
-403.252	-183.579	-0.022	0.000
-402.238	800.000	0.057	0.206
-401.223	57.996	-0.139	-0.135
-400.209	301.293	0.046	-0.085
-399.194	193.368	0.116	-0.175
-398.179	356.500	-0.118	0.233
-397.165	-115.179	0.085	0.016
-396.150	-173.641	0.229	-0.007
-395.136	6.131	-0.304	-0.225
-394.121	-32.925	-0.154	-0.085
-393.106	-43.463	0.072	-0.036
-392.092	-200.000	0.019	0.086
-391.077	378.566	-0.113	0.229
-390.063	-94.159	-0.311	-0.085
-389.048	-50.625	-0.291	-0.137
-388.033	222.745	-0.151	-0.242
-387.019	-116.596	0.243	0.045
-386.004	419.661	-0.120	0.255
-384.990	394.863	0.128	-0.265
-383.975	-62.842	0.428	0.176
-382.960	-146.725	-0.247	-0.021
-381.946	109.563	0.224	0.267
-380.931	73.906	0.206	-0.215
-379.917	442.992	0.048	0.104
-378.902	-134.295	0.253	0.031
-377.888	-69.750	-0.177	0.067
-376.873	-159.577	0.287	0.016
-375.858	-124.693	0.226	0.035
-374.844	-34.096	-0.059	0.032
-373.829	-77.176	-0.332	-0.115
-372.815	-44.286	-0.037	0.018
-371.800	800.000	0.042	0.153
-370.785	-105.040	0.125	0.028
-369.771	-9.239	-0.096	0.064
-368.756	-90.453	0.128	-0.037
-367.742	572.539	-0.067	0.162
-366.727	-145.436	0.137	0.012
-365.712	-120.021	-0.024	-0.004
-364.698	-106.053	0.345	-0.077
-363.683	-89.794	-0.167	-0.049
-362.669	-178.112	0.085	0.002
-361.654	-134.353	0.010	0.001
-360.639	98.757	0.098	0.113
-359.625	85.940	0.248	0.271
-358.610	8.873	-0.088	-0.066
-357.596	96.250	-0.356	-0.405
-356.581	-21.151	-0.252	0.153
-355.566	-113.365	-0.285	0.056
-354.552	-156.001	0.241	-0.015
-353.537	464.340	0.141	0.314
-352.523	-200.000	-0.055	0.365
-351.508	-43.536	-0.193	-0.097
-350.493	-107.256	-0.213	-0.047
-349.479	-55.953	0.305	-0.135
-348.464	268.335	0.106	-0.185
-347.450	-200.000	-0.003	0.142
-346.435	800.000	-0.065	-0.238
-345.420	-133.272	-0.233	-0.029
-344.406	-200.000	0.012	0.214
-343.391	327.730	0.095	-0.181
-342.377	5.261	-0.395	0.289
-341.362	800.000	0.088	-0.321
-340.348	-17.503	0.223	0.140
-339.333	-115.985	-0.094	0.017
-338.318	-83.413	0.267	-0.085
-337.304	7.542	0.078	-0.058
-336.289	48.210	0.146	-0.136
-335.275	-134.916	0.143	0.017
-334.260	-135.226	-0.158	0.019
-333.245	325.026	0.066	-0.125
-332.231	-137.172	-0.159	0.018
-331.216	-139.245	-0.125	0.013
-330.202	191.913	-0.081	0.121
-329.187	-29.815	0.194	0.110
-328.172	800.000	0.036	0.121
-327.158	800.000	0.083	-0.236
-326.143	-161.987	-0.132	0.007
-325.129	371.887	0.056	-0.113
-324.114	800.000	0.048	-0.173
-323.099	-100.586	-0.063	0.015
-322.085	-200.000	0.035	-0.158
-321.070	97.299	-0.107	0.122
-320.056	617.788	0.109	0.272
-319.041	14.249	-0.158	-0.123
-318.026	108.209	0.126	-0.149
-317.012	-200.000	0.048	-0.216
-315.997	250.469	0.132	0.222
-314.983	-87.782	0.068	0.020
-313.968	-200.000	-0.014	0.125
-312.953	-200.000	-0.003	0.155
-311.939	800.000	0.094	0.377
-310.924	485.082	-0.030	0.069
-309.910	341.077	0.064	0.125
-308.895	68.429	-0.206	0.210
-307.880	800.000	-0.054	-0.167
-306.866	-13.108	0.266	-0.172
-305.851	-58.955	-0.215	0.092
-304.837	-16.193	-0.366	0.231
-303.822	800.000	-0.058	-0.168
-302.807	-38.134	0.250	-0.132
-301.793	-58.432	0.228	-0.098
-300.778	-200.000	0.012	0.229
-299.764	-74.028	0.651	0.234
-298.749	360.973	-0.113	0.225
-297.735	110.494	-0.124	0.148
-296.720	-84.597	-0.153	-0.048
-295.705	-182.261	0.133	0.002
-294.691	-59.515	-0.211	-0.090
-293.676	82.412	0.272	-0.292
-292.662	6.019	0.261	-0.192
-291.647	-119.145	0.335	-0.058
-290.632	-200.000	-0.003	-0.061
-289.618	164.490	-0.186	-0.261
-288.603	-200.000	-0.065	-0.358
-287.589	800.000	-0.095	0.390
-286.574	-200.000	-0.056	0.377
-285.559	800.000	0.068	0.231
-284.545	-124.322	-0.112	0.017
-283.530	120.796	-0.168	0.208
-282.516	800.000	0.051	-0.188
-281.501	-29.994	0.062	0.035
-280.486	-162.503	0.342	-0.017
-279.472	142.681	-0.133	-0.175
-278.457	69.672	-0.276	-0.282
-277.443	-96.493	0.266	-0.070
-276.428	-142.948	-0.411	0.039
-275.413	-35.927	-0.235	0.126
-274.399	49.733	-0.075	0.070
-273.384	800.000	-0.034	-0.145
-272.370	-85.489	0.167	-0.051
-271.355	420.837	-0.092	0.196
-270.340	800.000	0.060	0.187
-269.326	-78.543	-0.156	0.053
-268.311	32.968	-0.193	0.166
-267.297	-177.726	0.201	-0.005
-266.282	145.168	0.134	0.178
-265.267	536.298	-0.107	0.250
-264.253	166.444	0.126	0.177
-263.238	-200.000	0.011	-0.288
-262.224	800.000	0.099	0.389
-261.209	-200.000	0.034	0.328
-260.195	139.101	-0.131	0.171
-259.180	-1.951	0.226	-0.157
-258.165	-24.429	-0.090	-0.053
-257.151	211.592	-0.107	0.167
-256.136	-200.000	-0.033	-0.316
-255.122	516.246	0.063	-0.146
-254.107	209.164	0.163	-0.254
-253.092	-5.641	-0.201	-0.136
-252.078	248.643	0.117	0.196
-251.063	-200.000	-0.016	-0.083
-250.049	243.108	-0.150	-0.248
-249.034	-200.000	0.031	0.177
-248.019	-80.151	-0.305	-0.101
-247.005	-200.000	-0.031	0.162
-245.990	-200.000	-0.033	0.198
-244.976	352.443	0.062	0.121
-243.961	-41.514	0.183	-0.093
-242.946	-34.260	0.293	-0.159
-241.932	61.894	0.131	0.129
-240.917	475.738	-0.028	0.062
-239.903	549.764	-0.081	0.192
-238.888	502.683	-0.098	0.225
-237.873	-200.000	-0.002	-0.020
-236.859	-84.229	0.499	-0.157
-235.844	-40.240	0.044	0.022
-234.830	-200.000	0.006	-0.500
-233.815	-87.758	-0.078	0.023
-232.800	-200.000	0.007	0.190
-231.786	105.481	0.130	0.152
-230.771	620.016	0.044	0.109
-229.757	-37.791	0.049	-0.026
-228.742	-200.000	-0.010	0.187
-227.727	-70.110	-0.157	0.059
-226.713	36.876	0.278	0.244
-225.698	-186.179	-0.184	-0.003
-224.684	136.202	-0.218	0.282
-223.669	-200.000	0.046	0.392
-222.655	-200.000	-0.019	0.461
-221.640	-198.502	-0.214	0.001
-220.625	-89.659	0.106	-0.031
-219.611	-29.130	-0.080	-0.045
-218.596	3.218	-0.297	-0.214
-217.582	-63.498	-0.256	0.104
-216.567	-71.912	0.243	-0.090
-215.552	-104.262	0.370	0.085
-214.538	-169.019	-0.384	0.014
-213.523	-134.647	0.269	0.032
-212.509	800.000	0.070	0.258
-211.494	-45.800	0.416	-0.203
-210.479	-200.000	0.011	0.136
-209.465	-177.532	-0.319	-0.008
-208.450	590.747	0.084	-0.205
-207.436	195.228	-0.090	-0.134
-206.421	-133.612	-0.268	-0.033
-205.406	-118.399	-0.365	-0.064
-204.392	-200.000	0.010	0.313
-203.377	177.324	0.076	0.109
-202.363	356.417	-0.057	0.112
-201.348	-200.000	-0.022	0.141
-200.333	-200.000	-0.058	-0.512
-199.319	290.267	0.087	-0.155
-198.304	800.000	-0.055	0.210
-197.290	65.143	-0.238	-0.238
-196.275	-173.319	-0.037	0.001
-195.260	7.201	0.165	-0.122
-194.246	0.906	0.030	0.021
-193.231	800.000	0.072	0.240
-192.217	-44.362	0.031	-0.016
-191.202	181.452	-0.137	0.199
-190.187	-200.000	0.240	-0.001
-189.173	56.980	0.117	-0.113
-188.158	693.146	-0.177	0.457
-187.144	-200.000	-0.001	0.272
-186.129	-19.306	0.141	-0.086
-185.114	-56.291	0.062	0.027
-184.100	800.000	-0.034	0.101
-183.085	-149.258	0.024	-0.002
-182.071	-128.485	0.320	-0.045
-181.056	-17.941	-0.306	0.190
-180.042	197.886	-0.207	-0.313
-179.027	800.000	0.111	0.396
-178.012	-84.006	-0.105	-0.033
-176.998	51.224	0.241	-0.225
-175.983	800.000	-0.085	-0.316
-174.969	24.327	0.302	-0.247
-173.954	-52.067	-0.021	0.010
-172.939	-185.686	0.161	0.002
-171.925	22.587	-0.111	0.090
-170.910	200.646	-0.124	0.188
-169.896	766.391	0.024	-0.065
-168.881	-200.000	-0.012	0.212
-167.866	-47.192	0.254	0.122
-166.852	-26.981	-0.432	0.249
-165.837	108.257	0.108	0.127
-164.823	-9.261	-0.316	0.208
-163.808	118.147	-0.076	-0.092
-162.793	-113.947	0.362	-0.069
-161.779	111.875	-0.164	0.195
-160.764	-4.108	-0.175	0.120
-159.750	-200.000	0.015	0.075
-158.735	-72.434	-0.453	0.165
-157.720	400.809	-0.100	0.207
-156.706	-19.130	-0.434	-0.266
-155.691	-200.000	-0.019	-0.142
-154.677	137.763	-0.019	0.024
-153.662	77.306	-0.188	-0.197
-152.647	-153.362	0.072	0.005
-151.633	-19.515	-0.328	0.201
-150.618	31.672	0.059	-0.050
-149.604	-168.963	0.529	0.020
-148.589	20.958	0.213	0.170
-147.574	-131.098	0.101	-0.013
-146.560	8.982	-0.176	0.131
-145.545	-120.612	-0.192	0.032
-144.531	279.405	-0.093	-0.163
-143.516	-39.177	0.069	0.036
-142.502	21.304	0.245	-0.196
-141.487	-39.432	0.216	0.112
-140.472	-200.000	0.048	-0.259
-139.458	658.203	-0.113	-0.286
-138.443	-200.000	-0.032	0.275
-137.429	413.472	-0.149	0.313
-136.414	342.585	-0.027	-0.053
-135.399	-200.000	-0.050	0.312
-134.385	444.086	0.093	0.201
-133.370	-129.607	-0.168	-0.023
-132.356	-200.000	-0.024	0.261
-131.341	118.290	0.213	0.259
-130.326	393.557	-0.099	0.204
-129.312	-14.024	0.293	-0.186
-128.297	75.737	0.198	0.206
-127.283	88.679	0.167	0.183
-126.268	121.714	-0.349	-0.429
-125.253	-73.803	0.070	-0.025
-124.239	-87.491	-0.537	-0.160
-123.224	277.775	0.040	0.071
-122.210	81.438	-0.155	0.165
-121.195	-94.902	0.079	-0.021
-120.180	4.995	-0.250	0.182
-119.166	-200.000	-0.002	0.285
-118.151	-82.348	0.334	0.107
-117.137	-181.132	-0.125	-0.002
-116.122	-38.840	0.096	0.050
-115.107	-200.000	0.004	-0.016
-114.093	800.000	0.113	0.400
-113.078	-200.000	-0.013	0.152
-112.064	-82.414	-0.416	-0.133
-111.049	-179.669	0.267	-0.006
-110.034	-51.558	-0.213	0.098
-109.020	73.810	-0.077	-0.080
-108.005	-52.343	0.464	0.212
-106.991	-200.000	0.010	-0.238
-105.976	-200.000	0.052	-0.422
-104.962	-98.399	-0.130	0.033
-103.947	-103.009	-0.264	0.062
-102.932	57.445	-0.112	-0.108
-101.918	-173.395	0.303	-0.009
-100.903	800.000	0.032	0.133
-99.889	150.352	0.211	0.282
-98.874	800.000	0.087	0.264
-97.859	-93.436	0.365	0.099
-96.845	-110.113	0.141	-0.029
-95.830	-148.652	-0.194	-0.016
-94.816	-121.750	-0.171	-0.028
-93.801	-200.000	-0.045	0.223
-92.786	-200.000	-0.073	0.330
-91.772	355.088	-0.041	-0.081
-90.757	-139.889	-0.123	-0.013
-89.743	519.472	-0.151	0.347
-88.728	-0.052	0.033	0.023
-87.713	44.923	0.174	-0.157
-86.699	-72.296	0.276	-0.101
-85.684	-143.979	0.114	-0.011
-84.670	56.752	-0.120	0.115
-83.655	-151.470	0.404	-0.030
-82.640	-48.442	0.255	0.121
-81.626	125.383	-0.134	-0.166
-80.611	-80.263	0.264	0.087
-79.597	-12.559	0.211	0.136
-78.582	288.147	0.083	-0.147
-77.567	-0.765	-0.040	-0.028
-76.553	-25.218	0.192	-0.112
-75.538	63.667	-0.182	-0.180
-74.524	-38.956	0.155	0.080
-73.509	-37.266	0.175	-0.092
-72.494	-200.000	-0.016	0.135
-71.480	-119.818	0.207	0.035
-70.465	-13.544	-0.060	0.038
-69.451	-200.000	0.020	-0.183
-68.436	6.773	0.204	0.150
-67.422	-113.244	0.332	-0.064
-66.407	800.000	0.047	0.134
-65.392	800.000	0.161	-0.543
-64.378	-123.669	0.313	-0.049
-63.363	-54.289	-0.318	0.142
-62.349	-200.000	-0.039	0.529
-61.334	91.846	-1.038	-1.148
-60.319	50.834	0.338	0.314
-59.305	567.609	-0.369	-0.880
-58.290	652.850	0.464	1.169
-57.276	562.838	0.684	1.627
-56.261	-200.000	105.468	571.359
-55.246	448.297	1466.466	3173.015
-54.232	147.391	2659.794	3517.994
-53.217	106.811	2170.572	2530.896
-52.203	41.033	1613.042	1430.817
-51.188	32.889	1348.843	1147.171
-50.173	29.808	1306.800	1093.194
-49.159	53.673	1359.726	1281.936
-48.144	54.081	1375.387	1299.104
-47.130	33.094	1331.434	1133.416
-46.115	29.613	1313.689	1097.629
-45.100	29.444	1308.669	1092.388
-44.086	29.386	1306.577	1090.253
-43.071	29.316	1304.164	1087.787
-42.057	29.379	1301.567	1085.948
-41.042	29.319	1299.899	1084.163
-40.027	29.373	1298.595	1083.347
-39.013	29.322	1296.567	1081.315
-37.998	29.336	1294.635	1079.742
-36.984	29.365	1292.997	1078.502
-35.969	29.431	1291.245	1077.385
-34.954	29.509	1289.431	1076.280
-33.940	29.526	1288.571	1075.618
-32.925	29.495	1287.017	1074.102
-31.911	29.478	1285.754	1072.903
-30.896	29.690	1283.609	1072.304
-29.881	29.518	1282.741	1070.536
-28.867	29.485	1281.832	1069.543
-27.852	29.491	1280.304	1068.259
-26.838	29.600	1278.376	1067.240
-25.823	29.541	1277.448	1066.081
-24.809	29.534	1275.825	1064.649
-23.794	29.550	1275.114	1064.105
-22.779	29.581	1273.532	1062.916
-21.765	29.484	1272.056	1061.089
-20.750	29.451	1270.864	1059.860
-19.736	29.538	1269.235	1058.961
-18.721	29.418	1268.140	1057.317
-17.706	29.315	1267.457	1056.117
-16.692	29.391	1265.850	1055.170
-15.677	29.440	1265.033	1054.728
-14.663	29.375	1263.994	1053.448
-13.648	29.453	1262.414	1052.530
-12.633	29.304	1261.750	1051.087
-11.619	29.392	1260.954	1050.883
-10.604	29.425	1259.908	1050.159
-9.590	29.379	1259.074	1049.159
-8.575	29.271	1258.369	1047.915
-7.560	29.257	1257.209	1046.829
-6.546	29.397	1256.395	1046.903
-5.531	29.351	1255.348	1045.731
-4.517	29.354	1254.395	1044.912
-3.502	29.432	1253.568	1044.625
-2.487	29.399	1252.683	1043.658
-1.473	29.447	1248.530	1040.428
-0.458	28.380	1234.645	1022.863
0.556	24.040	1219.164	989.550
1.571	20.868	1225.634	976.955
2.586	20.056	1239.898	983.629
3.600	19.826	1229.650	974.116
4.615	17.909	1163.123	911.112
5.629	14.023	1095.447	838.457
6.644	12.135	1077.911	815.583
7.659	11.904	1075.618	812.629
8.673	11.741	1074.875	811.185
9.688	11.891	1073.357	810.711
10.702	12.195	1071.158	810.484
11.717	14.608	1073.739	824.295
12.731	17.659	1077.507	842.214
13.746	18.406	1078.023	846.237
14.761	17.705	1076.736	841.689
15.775	16.689	1074.881	835.157
16.790	15.616	1072.732	828.126
17.804	14.859	1071.556	823.417
18.819	14.391	1069.719	819.633
19.834	14.111	1068.501	817.250
20.848	14.038	1067.786	816.273
21.863	13.714	1066.738	813.814
22.877	13.568	1066.202	812.612
23.892	13.509	1065.333	811.591
24.907	13.474	1065.064	811.145
25.921	13.633	1063.308	810.510
26.936	13.616	1062.571	809.795
27.950	13.662	1061.015	808.760
28.965	13.671	1059.704	807.733
29.980	13.753	1057.826	806.631
30.994	13.889	1056.477	806.192
32.009	13.874	1055.881	805.593
33.023	13.842	1054.719	804.480
34.038	13.755	1053.567	803.106
35.053	13.726	1052.500	802.084
36.067	13.723	1051.557	801.280
37.082	13.704	1051.237	800.873
38.096	13.725	1050.367	800.241
39.111	13.754	1050.140	800.139
40.126	13.665	1048.110	798.090
41.140	13.566	1047.270	796.904
42.155	13.468	1046.189	795.539
43.169	13.547	1044.772	794.770
44.184	13.538	1043.823	793.939
45.199	13.459	1042.805	792.713
46.213	13.615	1041.625	792.494
47.228	13.730	1040.372	792.015
48.242	13.558	1039.842	790.724
49.257	13.647	1038.655	790.174
50.271	13.666	1037.842	789.576
51.286	13.772	1036.829	789.243
52.301	13.686	1036.070	788.185
53.315	13.624	1034.651	786.741
54.330	13.593	1033.956	785.994
55.344	13.579	1032.967	785.110
56.359	13.532	1032.227	784.253
57.374	13.564	1031.417	783.722
58.388	13.561	1030.242	782.744
59.403	13.487	1029.327	781.630
60.417	13.466	1028.879	781.121
61.432	13.486	1027.732	780.278
62.447	13.458	1026.816	779.382
63.461	13.519	1025.851	778.866
64.476	13.410	1025.314	777.876
65.490	13.419	1024.390	777.150
66.505	13.461	1023.927	776.928
67.520	13.512	1022.925	776.336
68.534	13.571	1022.042	775.876
69.549	13.451	1021.370	774.735
70.563	13.387	1020.671	773.837
71.578	13.319	1019.988	772.931
72.593	13.377	1018.800	772.235
73.607	13.241	1018.707	771.459
74.622	13.299	1017.940	771.083
75.636	13.380	1017.216	770.842
76.651	13.416	1015.901	769.943
77.666	13.343	1015.416	769.168
78.680	13.420	1015.157	769.265
79.695	13.529	1014.313	769.061
80.709	13.604	1013.624	768.821
81.724	13.520	1013.213	768.050
82.739	13.534	1012.620	767.599
83.753	13.697	1011.541	767.468
84.768	13.774	1010.475	766.946
85.782	13.753	1009.939	766.372
86.797	13.591	1009.197	764.994
87.812	13.669	1007.961	764.350
88.826	13.660	1007.218	763.678
89.841	13.624	1006.409	762.832
90.855	13.706	1005.216	762.238
91.870	13.732	1004.208	761.525
92.884	13.737	1004.005	761.326
93.899	13.921	1002.745	761.146
94.914	13.886	1001.470	759.950
95.928	13.811	1001.001	759.184
96.943	13.696	1000.117	757.921
97.957	13.740	999.937	757.919
98.972	13.722	998.642	756.790
99.987	13.760	998.204	756.563
101.001	13.701	996.612	755.020
102.016	13.738	995.794	754.503
103.030	13.732	995.273	754.015
104.045	13.836	994.304	753.683
105.060	13.784	993.700	752.925
106.074	13.725	992.560	751.724
107.089	13.472	991.814	749.947
108.103	13.564	990.725	749.474
109.118	13.570	989.620	748.600
110.133	13.497	988.831	747.610
111.147	13.604	988.048	747.430
112.162	13.640	987.070	746.789
113.176	13.681	986.512	746.485
114.191	13.746	985.833	746.197
115.206	13.743	985.244	745.673
116.220	13.669	984.213	744.493
117.235	13.585	983.271	743.340
118.249	13.595	982.585	742.797
119.264	13.584	981.650	741.976
120.279	13.637	981.333	741.911
121.293	13.642	979.922	740.799
122.308	13.560	979.328	739.917
123.322	13.500	978.381	738.867
124.337	13.604	977.060	738.270
125.352	13.572	975.598	736.956
126.366	13.687	974.862	736.848
127.381	13.571	973.975	735.599
128.395	13.615	973.345	735.250
129.410	13.539	972.518	734.225
130.424	13.692	971.410	734.002
131.439	13.651	970.759	733.262
132.454	13.686	970.183	732.918
133.468	13.681	969.521	732.332
134.483	13.699	968.538	731.605
135.497	13.685	967.907	731.000
136.512	13.691	966.785	730.115
137.527	13.735	965.744	729.456
138.541	13.686	965.321	728.855
139.556	13.751	964.472	728.435
140.570	13.831	963.884	728.280
141.585	13.804	963.339	727.686
142.600	13.732	962.103	726.371
143.614	13.903	961.379	726.509
144.629	13.877	960.659	725.787
145.643	13.923	959.702	725.200
146.658	13.787	958.412	723.569
147.673	13.738	957.671	722.730
148.687	13.867	956.945	722.680
149.702	13.778	955.796	721.361
150.716	13.770	955.188	720.806
151.731	13.853	954.453	720.545
152.746	13.863	953.893	720.103
153.760	13.903	953.207	719.697
154.775	13.982	952.577	719.499
155.789	13.912	952.135	718.798
156.804	14.033	951.296	718.622
157.819	13.912	950.548	717.472
158.833	13.920	950.086	717.096
159.848	14.021	949.226	716.818
160.862	13.998	947.915	715.664
161.877	14.022	947.196	715.164
162.892	13.885	945.928	713.554
163.906	13.968	944.859	713.041
164.921	13.864	944.339	712.137
165.935	14.005	943.644	712.155
166.950	14.001	942.756	711.406
167.964	14.019	941.830	710.721
168.979	13.895	941.069	709.555
169.994	13.843	940.535	708.867
171.008	14.032	939.702	708.984
172.023	14.112	938.663	708.476
173.037	14.013	938.002	707.495
174.052	14.157	936.600	706.986
175.067	13.985	936.569	706.169
176.081	13.917	936.278	705.598
177.096	14.089	935.085	705.367
178.110	13.947	934.999	704.636
179.125	13.996	934.528	704.427
180.140	14.051	934.012	704.210
181.154	14.202	933.408	704.328
182.169	14.127	933.086	703.706
183.183	14.345	932.150	703.859
184.198	14.262	931.275	702.785
185.213	14.280	930.636	702.318
186.227	14.262	930.106	701.780
187.242	14.337	929.365	701.475
188.256	14.289	929.222	701.101
189.271	14.248	928.287	700.164
190.286	14.158	926.835	698.629
191.300	14.019	926.700	697.879
192.315	13.929	926.322	697.158
193.329	14.035	925.467	696.896
194.344	14.127	924.705	696.647
195.359	14.148	924.239	696.321
196.373	14.222	923.502	696.013
197.388	14.351	923.195	696.261
198.402	14.356	922.769	695.898
199.417	14.410	922.013	695.490
200.432	14.454	921.416	695.163
201.446	14.462	921.370	695.101
202.461	14.618	920.687	695.172
203.475	14.562	919.809	694.216
204.490	14.521	918.998	693.374
205.504	14.211	918.958	691.992
206.519	14.307	917.671	691.361
207.534	14.407	916.918	691.145
208.548	14.433	916.142	690.607
209.563	14.659	915.115	690.710
210.577	14.546	914.823	689.958
211.592	14.486	914.136	689.133
212.607	14.690	913.207	689.213
213.621	14.736	912.144	688.541
214.636	14.700	911.855	688.110
215.650	14.701	910.974	687.392
216.665	14.687	910.644	687.023
217.680	14.794	910.066	686.967
218.694	14.638	909.542	685.870
219.709	14.587	909.328	685.437
220.723	14.624	908.419	684.843
221.738	14.697	907.309	684.243
222.753	14.739	906.768	683.949
223.767	14.759	905.987	683.382
224.782	14.718	905.897	683.083
225.796	14.835	905.122	682.919
226.811	14.855	904.326	682.337
227.826	14.842	903.859	681.871
228.840	14.678	903.038	680.526
229.855	14.871	901.964	680.442
230.869	14.682	901.475	679.242
231.884	14.698	900.960	678.858
232.899	14.698	900.409	678.384
233.913	14.780	899.335	677.850
234.928	14.615	899.277	677.075
235.942	14.768	898.332	676.924
236.957	14.716	898.059	676.446
237.972	14.936	896.916	676.414
238.986	14.700	896.718	675.254
240.001	14.735	896.135	674.897
241.015	14.817	895.237	674.489
242.030	14.899	894.443	674.164
243.045	14.995	893.741	673.960
244.059	14.889	893.690	673.435
245.074	14.885	893.063	672.887
246.088	14.995	892.278	672.680
247.103	15.013	891.612	672.187
248.117	14.972	891.220	671.670
249.132	15.143	890.323	671.618
250.147	15.258	889.790	671.619
251.161	15.206	889.295	670.978
252.176	15.380	888.164	670.762
253.190	15.313	887.771	670.138
254.205	15.371	887.060	669.774
255.220	15.402	886.495	669.409
256.234	15.378	886.010	668.887
257.249	15.461	885.106	668.480
258.263	15.343	884.549	667.530
259.278	15.359	883.839	666.997
260.293	15.398	883.333	666.713
261.307	15.455	882.711	666.408
262.322	15.464	881.891	665.768
263.336	15.474	881.205	665.232
264.351	15.509	880.869	665.056
265.366	15.586	880.108	664.729
266.380	15.463	879.467	663.698
267.395	15.537	878.618	663.292
268.409	15.524	877.673	662.469
269.424	15.583	877.123	662.225
270.439	15.531	876.670	661.623
271.453	15.501	875.477	660.544
272.468	15.317	875.217	659.565
273.482	15.615	874.587	660.204
274.497	15.577	874.066	659.601
275.512	15.545	873.685	659.133
276.526	15.482	873.372	658.590
277.541	15.495	872.520	657.939
278.555	15.615	872.153	658.075
279.570	15.767	871.110	657.824
280.585	15.723	870.970	657.487
281.599	15.724	869.655	656.440
282.614	15.716	869.089	655.925
283.628	15.791	868.430	655.662
284.643	15.606	868.071	654.613
285.657	15.696	867.264	654.295
286.672	15.876	866.477	654.345
287.687	15.789	865.694	653.359
288.701	15.776	865.600	653.179
289.716	15.844	864.917	652.870
290.730	15.551	864.685	651.500
291.745	15.820	863.512	651.599
292.760	15.949	863.186	651.796
293.774	16.026	862.513	651.528
294.789	15.972	861.828	650.743
295.803	15.938	861.289	650.150
296.818	15.773	860.718	649.021
297.833	15.930	859.965	649.001
298.847	15.968	859.299	648.589
299.862	16.166	858.305	648.542
300.876	15.977	858.337	647.783
301.891	15.975	857.754	647.276
302.906	15.929	857.323	646.720
303.920	16.152	856.462	646.868
304.935	16.156	856.038	646.505
305.949	16.120	855.514	645.914
306.964	16.145	854.748	645.374
307.979	16.110	854.231	644.791
308.993	16.295	853.266	644.713
310.008	16.268	853.030	644.374
311.022	16.257	852.140	643.603
312.037	16.208	851.694	643.024
313.052	16.018	851.420	642.036
314.066	16.103	850.658	641.728
315.081	16.098	850.119	641.247
316.095	16.109	849.279	640.598
317.110	16.127	848.914	640.332
318.125	16.125	848.340	639.837
319.139	16.007	847.954	639.043
320.154	15.994	848.066	639.018
321.168	16.365	846.676	639.320
322.183	16.243	846.622	638.761
323.197	16.248	846.006	638.257
324.212	16.299	845.255	637.829
325.227	16.140	845.040	637.010
326.241	16.310	844.224	636.977
327.256	16.177	843.875	636.158
328.270	16.155	843.337	635.611
329.285	16.154	842.789	635.140
330.300	16.314	841.909	635.023
331.314	16.139	841.957	634.343
332.329	16.294	841.120	634.241
333.343	16.338	840.999	634.258
334.358	16.296	840.528	633.690
335.373	16.485	839.931	633.892
336.387	16.479	839.710	633.646
337.402	16.531	839.258	633.442
338.416	16.449	839.263	633.085
339.431	16.607	838.304	632.896
340.446	16.535	838.001	632.342
341.460	16.769	837.432	632.729
342.475	16.599	837.346	631.974
343.489	16.416	837.174	631.107
344.504	16.604	836.432	631.190
345.519	16.586	836.033	630.768
346.533	16.819	835.037	630.830
347.548	16.748	834.584	630.165
348.562	16.658	834.014	629.345
349.577	16.653	833.443	628.839
350.592	16.638	833.036	628.423
351.606	16.698	832.209	627.963
352.621	16.441	831.613	626.507
353.635	16.594	831.104	626.634
354.650	16.841	830.350	626.926
355.665	16.791	829.616	626.131
356.679	16.862	829.207	626.029
357.694	16.848	828.547	625.425
358.708	16.638	827.984	624.168
359.723	16.733	827.570	624.150
360.738	16.749	826.789	623.564
361.752	16.727	826.326	623.079
362.767	16.819	825.682	622.877
363.781	16.918	825.203	622.826
364.796	16.885	824.696	622.266
365.810	17.064	824.425	622.664
366.825	17.103	824.114	622.517
367.840	17.039	823.679	621.896
368.854	17.062	823.124	621.508
369.869	16.996	822.795	620.964
370.883	16.995	822.319	620.546
371.898	17.105	821.974	620.632
372.913	17.099	821.542	620.228
373.927	17.071	820.933	619.613
374.942	17.079	820.544	619.291
375.956	17.156	820.278	619.319
376.971	17.102	819.956	618.824
377.986	17.236	819.358	618.807
379.000	17.368	818.743	618.767
380.015	17.232	818.178	617.791
381.029	17.256	817.611	617.396
382.044	17.333	816.824	617.026
383.059	17.337	816.590	616.808
384.073	17.383	815.650	616.209
385.088	17.237	815.010	615.145
386.102	17.383	814.740	615.416
387.117	17.425	813.967	614.927
388.132	17.261	813.451	613.891
389.146	17.340	813.165	613.906
390.161	17.351	812.738	613.571
391.175	17.510	811.950	613.494
392.190	17.294	811.741	612.504
393.205	17.432	811.154	612.502
394.219	17.426	810.470	611.909
395.234	17.377	810.445	611.661
396.248	17.271	810.068	610.943
397.263	17.177	809.418	610.058
398.278	17.288	809.301	610.315
399.292	17.433	808.573	610.233
400.307	17.289	808.495	609.604
401.321	17.309	808.090	609.315
402.336	17.318	807.453	608.813
403.350	17.459	806.956	608.890
404.365	17.661	806.194	608.982
405.380	17.588	805.681	608.279
406.394	17.721	805.160	608.309
407.409	17.520	805.376	607.700
408.423	17.597	804.958	607.605
409.438	17.680	804.439	607.455
410.453	17.762	803.984	607.350
411.467	17.814	803.364	607.015
412.482	17.785	803.058	606.626
413.496	17.799	802.811	606.434
414.511	17.808	802.570	606.232
415.526	17.838	801.972	605.832
416.540	17.885	801.327	605.459
417.555	17.931	801.021	605.336
418.569	17.752	800.584	604.317
419.584	17.835	799.861	604.013
420.599	18.031	799.633	604.481
421.613	110.166	1291.200	1470.080
422.628	94.866	1362.817	1470.188
