DTS Sentinel unit serial number:	SN413079Multiplexer serial number:	ORYXHardware model number:	OX4-SRSoftware version number:	ORYX F/W v4.00 Oryx Data Collector v3.7.2.0data status	okinstallation	princeton_trtdifferential loss correction	single-endedforward channel	channel 1reverse channel	N/Adate	2019/09/14time	23:02:35forward acquisition time	60.00reverse acquisition time	0.00gamma	496.2192k internal	0.2319k external	0.2319temperature offset calibration	1.0004default loss term (dB/km)	0.3790temperature slope calibration	1.0000multiplexer offset coefficient	1.0000multiplexer slope coefficient	1.0000fibre end	0.00T internal ref (°C)	32.44T ext. ref 1 (°C)	4.68T ext. ref 2 (°C)	27.46length (m)	temperature (°C)	Stokes	anti-Stokes-747.200	23.242	-0.061	0.051
-746.185	800.000	0.126	0.434
-745.171	-52.775	0.115	0.054
-744.156	-200.000	0.029	0.187
-743.142	310.795	0.122	0.232
-742.127	14.981	-0.111	0.088
-741.112	479.094	-0.019	0.045
-740.098	381.774	-0.046	0.096
-739.083	-108.374	-0.332	0.072
-738.069	-182.553	-0.179	-0.003
-737.054	275.476	-0.061	0.109
-736.039	369.132	-0.055	0.113
-735.025	-18.013	0.413	0.261
-734.010	-200.000	0.004	-0.107
-732.996	136.867	-0.074	0.097
-731.981	76.255	-0.170	0.182
-730.966	-168.969	-0.297	0.011
-729.952	-200.000	-0.028	0.409
-728.937	-18.878	-0.249	0.157
-727.923	46.894	0.255	0.239
-726.908	215.840	-0.080	-0.129
-725.894	-25.974	-0.211	-0.126
-724.879	-1.828	-0.077	0.055
-723.864	-154.335	-0.114	-0.008
-722.850	-61.928	0.076	0.032
-721.835	-125.628	0.148	0.023
-720.821	82.409	-0.192	-0.211
-719.806	800.000	-0.082	-0.249
-718.791	-105.834	-0.235	0.054
-717.777	-104.968	-0.150	-0.035
-716.762	206.586	-0.222	0.350
-715.748	800.000	0.003	-0.007
-714.733	349.977	-0.114	0.228
-713.718	800.000	-0.028	0.089
-712.704	364.623	-0.145	0.294
-711.689	-115.655	-0.251	0.048
-710.675	-46.492	-0.288	-0.143
-709.660	800.000	0.017	0.062
-708.645	633.854	0.057	-0.146
-707.631	137.704	-0.102	-0.135
-706.616	223.261	-0.109	0.178
-705.602	-200.000	-0.003	0.171
-704.587	-105.141	-0.097	-0.022
-703.572	663.325	0.082	0.214
-702.558	-68.243	0.058	0.023
-701.543	-8.250	0.245	-0.166
-700.529	536.491	0.046	0.109
-699.514	-179.542	-0.368	0.008
-698.499	-35.427	-0.176	0.096
-697.485	-42.191	0.315	0.162
-696.470	800.000	-0.049	-0.182
-695.456	-42.622	-0.116	-0.060
-694.441	-108.683	0.198	-0.043
-693.426	-36.606	-0.280	0.152
-692.412	-102.864	-0.200	-0.048
-691.397	352.399	0.181	-0.362
-690.383	-161.352	0.272	0.014
-689.368	-200.000	0.064	0.410
-688.354	33.744	0.125	0.110
-687.339	-132.506	-0.633	0.082
-686.324	-75.337	-0.195	0.070
-685.310	-48.171	0.162	0.079
-684.295	-200.000	-0.017	-0.118
-683.281	800.000	0.034	-0.108
-682.266	-78.696	-0.232	-0.080
-681.251	60.372	0.160	0.160
-680.237	-200.000	0.049	0.232
-679.222	-128.507	0.328	0.047
-678.208	52.508	-0.155	0.150
-677.193	283.364	0.074	-0.135
-676.178	390.514	-0.035	-0.073
-675.164	-17.357	0.139	-0.088
-674.149	-116.374	-0.447	-0.083
-673.135	152.702	-0.219	-0.302
-672.120	6.455	0.215	0.161
-671.105	-92.077	0.221	-0.063
-670.091	-129.943	0.263	0.036
-669.076	150.434	-0.218	0.298
-668.062	85.604	-0.178	0.197
-667.047	26.589	0.154	-0.130
-666.032	286.884	-0.124	-0.226
-665.018	-200.000	0.066	-0.315
-664.003	-200.000	0.001	0.325
-662.989	85.431	0.265	-0.293
-661.974	150.338	-0.287	-0.392
-660.959	-200.000	-0.024	0.200
-659.945	40.118	-0.210	0.190
-658.930	9.209	0.232	-0.177
-657.916	41.985	-0.325	-0.297
-656.901	100.196	-0.214	-0.250
-655.886	-133.563	-0.363	0.046
-654.872	-92.292	0.055	-0.015
-653.857	205.625	-0.145	-0.227
-652.843	40.337	0.131	-0.118
-651.828	25.722	0.184	-0.155
-650.814	-132.688	0.239	0.031
-649.799	800.000	0.094	0.275
-648.784	77.752	0.154	0.166
-647.770	-103.231	0.070	-0.017
-646.755	89.258	0.177	-0.198
-645.741	-91.490	0.199	-0.057
-644.726	-84.786	-0.068	0.022
-643.711	61.092	-0.030	-0.030
-642.697	126.429	0.153	-0.195
-641.682	-138.125	-0.178	-0.020
-640.668	-94.594	0.135	0.037
-639.653	202.640	-0.203	-0.316
-638.638	800.000	-0.099	-0.416
-637.624	782.691	-0.044	0.122
-636.609	202.562	0.039	-0.061
-635.595	-178.943	-0.315	-0.007
-634.580	-36.716	0.232	-0.126
-633.565	800.000	-0.034	-0.144
-632.551	-106.746	-0.198	0.044
-631.536	800.000	0.091	0.253
-630.522	-71.307	-0.102	0.039
-629.507	13.674	-0.187	0.146
-628.492	-200.000	0.053	-0.405
-627.478	78.927	-0.078	-0.084
-626.463	-148.084	-0.232	-0.019
-625.449	-153.762	-0.237	-0.016
-624.434	81.781	-0.221	0.241
-623.419	-200.000	0.008	0.147
-622.405	235.698	0.216	0.359
-621.390	-23.545	0.240	-0.145
-620.376	-161.862	0.138	-0.007
-619.361	133.772	-0.149	-0.194
-618.346	16.513	-0.230	-0.183
-617.332	800.000	-0.052	-0.191
-616.317	800.000	0.015	-0.048
-615.303	389.989	0.017	0.036
-614.288	614.276	-0.060	-0.151
-613.273	-131.755	0.344	-0.045
-612.259	-90.073	0.068	0.020
-611.244	-128.508	0.214	-0.030
-610.230	252.790	-0.061	0.105
-609.215	-51.744	0.247	-0.116
-608.201	-20.111	-0.089	0.055
-607.186	12.344	0.319	0.247
-606.171	-130.982	0.134	0.018
-605.157	723.286	-0.061	0.165
-604.142	93.447	0.091	-0.104
-603.128	-106.033	-0.324	0.073
-602.113	59.722	-0.069	-0.068
-601.098	514.410	-0.116	-0.273
-600.084	367.747	0.076	0.154
-599.069	-33.054	0.067	0.038
-598.055	-33.923	0.134	0.074
-597.040	67.956	-0.018	0.018
-596.025	39.496	-0.090	0.081
-595.011	-41.850	0.374	-0.193
-593.996	-92.480	-0.206	0.058
-592.982	128.690	0.166	0.213
-591.967	-82.013	-0.426	0.140
-590.952	219.497	0.108	0.173
-589.938	800.000	-0.018	0.055
-588.923	34.266	0.121	-0.106
-587.909	237.313	-0.115	-0.191
-586.894	17.226	0.309	0.246
-585.879	60.771	0.301	-0.300
-584.865	800.000	-0.007	0.027
-583.850	-50.983	0.200	-0.094
-582.836	-81.869	-0.198	-0.065
-581.821	-200.000	-0.013	-0.281
-580.806	-200.000	0.003	0.177
-579.792	6.438	0.359	-0.268
-578.777	-76.321	-0.141	-0.050
-577.763	-64.798	0.092	-0.037
-576.748	149.466	0.124	0.169
-575.733	800.000	0.064	0.201
-574.719	-88.130	-0.156	-0.047
-573.704	-27.431	0.131	-0.076
-572.690	-72.734	0.264	-0.098
-571.675	6.579	-0.233	0.174
-570.661	31.952	0.255	0.221
-569.646	-101.071	-0.364	-0.090
-568.631	-27.414	-0.152	0.089
-567.617	477.865	0.056	-0.128
-566.602	126.357	-0.327	-0.416
-565.588	83.153	0.090	0.098
-564.573	-200.000	-0.113	-0.733
-563.558	137.798	0.072	0.095
-562.544	57.813	0.179	0.176
-561.529	-200.000	-0.038	-0.331
-560.515	33.186	0.263	-0.229
-559.500	-64.315	-0.149	-0.061
-558.485	-200.000	-0.065	0.294
-557.471	-200.000	-0.035	-0.322
-556.456	707.284	-0.078	0.206
-555.442	-81.676	0.223	-0.074
-554.427	417.876	-0.233	-0.499
-553.412	42.848	-0.037	-0.034
-552.398	-76.751	-0.243	-0.085
-551.383	-70.209	-0.227	-0.086
-550.369	-43.175	-0.171	-0.087
-549.354	90.004	0.211	-0.237
-548.339	30.305	-0.204	-0.175
-547.325	-120.871	0.059	0.010
-546.310	-185.657	0.115	0.002
-545.296	27.678	0.106	-0.090
-544.281	161.210	0.082	-0.116
-543.266	-200.000	0.002	0.480
-542.252	-75.288	-0.101	-0.036
-541.237	-200.000	0.022	0.194
-540.223	-200.000	0.036	-0.220
-539.208	-200.000	-0.046	-0.247
-538.193	-200.000	-0.024	-0.222
-537.179	800.000	-0.059	0.221
-536.164	45.764	0.272	0.253
-535.150	-67.278	-0.367	-0.145
-534.135	-129.940	0.074	0.010
-533.121	288.404	0.051	0.092
-532.106	-44.293	-0.223	0.112
-531.091	-167.770	-0.162	-0.006
-530.077	45.351	-0.237	-0.219
-529.062	4.675	0.101	-0.074
-528.048	70.684	-0.239	-0.248
-527.033	26.524	-0.040	-0.034
-526.018	74.996	-0.104	0.109
-525.004	-200.000	-0.027	-0.242
-523.989	-52.779	0.185	-0.086
-522.975	-71.911	0.097	0.036
-521.960	-124.508	0.253	0.039
-520.945	16.199	0.228	0.180
-519.931	-63.892	-0.202	0.083
-518.916	-16.093	-0.215	-0.137
-517.902	-200.000	0.004	0.103
-516.887	800.000	0.064	-0.197
-515.872	-98.615	0.460	-0.118
-514.858	800.000	0.042	-0.148
-513.843	20.959	0.090	-0.073
-512.829	-96.850	0.262	-0.069
-511.814	-200.000	0.011	0.191
-510.799	55.548	-0.116	0.113
-509.785	-138.888	0.221	-0.024
-508.770	-78.076	0.050	0.017
-507.756	-15.620	0.100	0.064
-506.741	-200.000	0.033	-0.276
-505.726	-116.491	0.488	-0.090
-504.712	-200.000	-0.005	0.126
-503.697	-200.000	-0.054	0.278
-502.683	133.480	-0.101	0.131
-501.668	21.419	-0.159	-0.130
-500.653	800.000	-0.066	-0.268
-499.639	48.737	-0.118	-0.111
-498.624	763.855	0.021	-0.058
-497.610	-200.000	0.002	0.333
-496.595	270.471	0.164	0.288
-495.581	-200.000	0.007	-0.052
-494.566	538.293	-0.055	0.130
-493.551	101.397	-0.159	-0.185
-492.537	131.606	0.120	-0.154
-491.522	-200.000	0.036	-0.159
-490.508	-72.644	0.008	0.003
-489.493	-200.000	0.007	-0.376
-488.478	233.182	0.072	-0.119
-487.464	-200.000	-0.148	0.001
-486.449	-5.434	-0.278	-0.191
-485.435	85.014	-0.050	-0.055
-484.420	-12.577	0.243	-0.159
-483.405	79.489	0.134	0.144
-482.391	303.099	0.041	-0.076
-481.376	-200.000	-0.023	-0.117
-480.362	227.100	-0.030	-0.048
-479.347	119.500	-0.262	0.325
-478.332	-88.843	-0.073	0.022
-477.318	32.851	0.180	-0.156
-476.303	-47.579	-0.124	0.061
-475.289	-26.086	0.147	-0.086
-474.274	509.464	-0.092	0.214
-473.259	-45.122	-0.207	-0.103
-472.245	-200.000	0.010	-0.257
-471.230	-51.533	0.163	-0.076
-470.216	-200.000	-0.026	0.194
-469.201	-101.706	0.241	0.058
-468.186	85.943	0.065	0.072
-467.172	800.000	0.065	0.281
-466.157	-45.920	-0.029	0.014
-465.143	-200.000	0.005	-0.060
-464.128	-200.000	0.034	-0.226
-463.113	800.000	0.095	0.311
-462.099	-200.000	0.019	0.281
-461.084	-165.067	-0.024	-0.001
-460.070	58.918	0.386	-0.380
-459.055	-33.269	0.165	0.091
-458.040	-35.208	-0.115	-0.063
-457.026	-109.094	0.175	0.037
-456.011	-68.032	0.139	-0.054
-454.997	-109.946	0.118	-0.025
-453.982	361.712	-0.086	0.172
-452.968	800.000	-0.057	-0.238
-451.953	800.000	-0.031	-0.094
-450.938	49.843	-0.196	0.185
-449.924	-200.000	-0.020	0.176
-448.909	74.678	-0.156	0.164
-447.895	-0.428	0.116	0.082
-446.880	-149.141	-0.210	-0.017
-445.865	82.512	-0.114	-0.124
-444.851	-183.691	0.067	0.001
-443.836	-115.179	0.094	-0.018
-442.822	-90.337	-0.055	-0.016
-441.807	-200.000	-0.013	0.161
-440.792	591.441	-0.040	0.099
-439.778	-200.000	0.001	-0.028
-438.763	-53.242	0.284	0.130
-437.749	90.511	0.337	-0.377
-436.734	50.607	-0.300	-0.284
-435.719	116.026	0.202	0.247
-434.705	-200.000	-0.017	-0.203
-433.690	-97.916	-0.059	-0.015
-432.676	43.610	0.315	-0.288
-431.661	-188.013	-0.200	-0.003
-430.646	145.361	-0.187	0.250
-429.632	-200.000	-0.009	-0.263
-428.617	-40.459	0.168	-0.087
-427.603	14.353	-0.114	0.089
-426.588	-25.883	-0.174	0.102
-425.573	-37.717	-0.199	0.106
-424.559	64.965	-0.086	-0.087
-423.544	132.107	0.181	0.233
-422.530	-28.266	0.174	0.101
-421.515	83.838	0.319	0.348
-420.500	-145.424	0.069	0.006
-419.486	-200.000	-0.049	0.355
-418.471	-97.193	-0.206	-0.054
-417.457	-200.000	-0.002	0.167
-416.442	-72.024	-0.375	-0.139
-415.428	-200.000	0.001	-0.074
-414.413	-143.806	0.023	0.002
-413.398	800.000	-0.055	-0.235
-412.384	-200.000	0.047	0.270
-411.369	-69.041	-0.290	-0.112
-410.355	-116.788	-0.231	-0.042
-409.340	-200.000	-0.051	0.410
-408.325	-19.256	-0.203	0.126
-407.311	304.737	0.063	0.116
-406.296	111.979	-0.046	-0.056
-405.282	800.000	-0.085	0.257
-404.267	-16.816	0.155	0.098
-403.252	698.414	-0.112	-0.293
-402.238	-200.000	-0.027	0.120
-401.223	393.165	0.075	-0.157
-400.209	27.895	-0.322	0.271
-399.194	-71.409	-0.070	0.026
-398.179	92.282	-0.198	-0.223
-397.165	-135.595	-0.279	0.033
-396.150	23.907	-0.216	-0.178
-395.136	-200.000	0.006	-0.061
-394.121	-4.622	0.227	0.156
-393.106	-67.036	-0.370	-0.146
-392.092	-200.000	-0.003	-0.153
-391.077	-200.000	-0.021	0.101
-390.063	20.640	0.010	0.008
-389.048	56.707	0.051	-0.049
-388.033	-112.623	-0.103	0.020
-387.019	56.372	0.100	0.097
-386.004	-38.553	0.221	0.116
-384.990	-108.096	-0.179	0.039
-383.975	-200.000	-0.031	-0.228
-382.960	-27.916	-0.304	-0.175
-381.946	-200.000	-0.002	-0.221
-380.931	-69.334	0.129	0.049
-379.917	-61.407	0.153	-0.064
-378.902	-25.088	-0.307	-0.182
-377.888	8.310	0.086	0.064
-376.873	160.553	0.251	-0.350
-375.858	-7.611	0.062	-0.042
-374.844	175.512	0.140	0.203
-373.829	134.816	0.097	-0.125
-372.815	-136.988	-0.033	0.004
-371.800	-54.308	-0.137	-0.062
-370.785	104.326	-0.191	0.224
-369.771	-12.208	0.138	-0.090
-368.756	-136.967	-0.145	-0.017
-367.742	272.932	-0.148	-0.261
-366.727	-43.634	0.156	-0.078
-365.712	-200.000	0.018	0.175
-364.698	30.664	0.043	-0.037
-363.683	74.772	-0.117	0.123
-362.669	284.413	-0.139	0.249
-361.654	513.393	0.100	-0.232
-360.639	-119.441	0.300	0.052
-359.625	-99.330	-0.251	-0.063
-358.610	-37.084	0.186	0.099
-357.596	-116.792	0.181	-0.033
-356.581	-195.911	0.489	-0.003
-355.566	-200.000	-0.014	0.176
-354.552	81.537	0.297	-0.320
-353.537	691.998	-0.065	0.171
-352.523	800.000	0.036	0.134
-351.508	29.027	0.109	0.092
-350.493	-200.000	0.016	-0.254
-349.479	-144.915	0.264	0.024
-348.464	-172.966	-0.267	-0.008
-347.450	-128.075	-0.164	0.023
-346.435	54.076	-0.172	0.165
-345.420	73.304	0.222	-0.231
-344.406	800.000	-0.046	0.171
-343.391	552.983	0.119	-0.284
-342.377	-135.453	0.381	0.045
-341.362	43.034	-0.025	0.023
-340.348	-104.332	0.165	0.038
-339.333	236.073	-0.141	-0.233
-338.318	404.477	0.133	0.279
-337.304	204.596	-0.103	-0.159
-336.289	-24.835	0.086	0.051
-335.275	-28.833	-0.432	-0.247
-334.260	800.000	0.039	-0.149
-333.245	-60.129	0.175	-0.074
-332.231	169.488	-0.167	-0.237
-331.216	749.941	-0.095	-0.255
-330.202	-83.592	0.050	0.016
-329.187	453.539	0.108	0.237
-328.172	374.851	0.070	-0.141
-327.158	310.209	-0.124	-0.231
-326.143	-200.000	-0.022	0.215
-325.129	-57.284	-0.239	-0.105
-324.114	-49.796	-0.250	-0.118
-323.099	-200.000	0.003	0.184
-322.085	-106.741	-0.262	0.058
-321.070	-137.662	-0.157	-0.018
-320.056	-200.000	0.003	-0.203
-319.041	-125.785	-0.227	0.034
-318.026	78.063	-0.435	0.461
-317.012	-40.405	0.140	-0.072
-315.997	590.354	0.195	0.478
-314.983	800.000	0.045	-0.167
-313.968	450.412	-0.165	-0.362
-312.953	800.000	0.082	0.326
-311.939	-64.874	0.185	-0.074
-310.924	-97.216	0.251	0.065
-309.910	271.727	-0.182	-0.319
-308.895	-200.000	0.021	-0.142
-307.880	-200.000	-0.065	-0.356
-306.866	-108.548	0.515	-0.110
-305.851	-40.429	-0.309	-0.160
-304.837	193.131	0.160	-0.241
-303.822	10.334	0.039	0.029
-302.807	-197.292	-0.158	0.001
-301.793	-200.000	0.063	-0.306
-300.778	-200.000	0.030	-0.278
-299.764	800.000	0.099	0.306
-298.749	169.254	-0.136	-0.193
-297.735	382.940	-0.044	0.090
-296.720	-26.498	-0.271	0.158
-295.705	-2.144	-0.232	0.162
-294.691	-154.246	0.289	0.019
-293.676	193.734	-0.143	-0.215
-292.662	453.743	0.070	-0.155
-291.647	-62.282	0.284	0.117
-290.632	524.587	-0.139	0.324
-289.618	15.477	-0.093	0.072
-288.603	800.000	-0.080	0.278
-287.589	-134.389	0.298	0.036
-286.574	-200.000	0.009	-0.175
-285.559	70.049	-0.126	-0.130
-284.545	122.146	0.070	0.087
-283.530	24.198	-0.223	-0.183
-282.516	74.559	-0.361	0.377
-281.501	-200.000	0.011	0.341
-280.486	395.392	-0.082	-0.170
-279.472	-105.800	-0.320	0.072
-278.457	-200.000	-0.001	0.079
-277.443	-124.376	-0.118	0.018
-276.428	196.388	-0.160	0.242
-275.413	322.203	0.114	-0.216
-274.399	-93.719	-0.246	0.067
-273.384	-200.000	-0.020	0.120
-272.370	553.622	-0.125	0.298
-271.355	-200.000	0.038	0.172
-270.340	-200.000	0.008	-0.428
-269.326	344.630	0.152	0.296
-268.311	-134.989	0.253	0.030
-267.297	90.806	-0.195	0.217
-266.282	-200.000	-0.018	-0.100
-265.267	-135.279	0.153	0.018
-264.253	800.000	0.083	0.269
-263.238	55.236	-0.094	-0.090
-262.224	-40.682	-0.160	0.082
-261.209	-20.316	-0.139	-0.085
-260.195	254.844	-0.079	0.135
-259.180	-44.678	0.093	-0.046
-258.165	-200.000	0.041	-0.195
-257.151	-156.503	0.059	0.004
-256.136	81.412	-0.207	0.222
-255.122	507.691	-0.131	0.301
-254.107	706.665	-0.048	-0.125
-253.092	135.302	-0.158	0.204
-252.078	-200.000	0.014	0.231
-251.063	508.632	0.035	0.081
-250.049	-13.238	0.100	0.065
-249.034	-112.304	-0.228	0.045
-248.019	319.915	-0.133	0.250
-247.005	631.894	-0.096	0.240
-245.990	3.675	0.349	0.253
-244.976	-200.000	0.031	-0.243
-243.961	800.000	0.067	-0.224
-242.946	177.661	-0.045	0.065
-241.932	-30.374	0.067	0.038
-240.917	20.115	-0.104	-0.083
-239.903	33.437	0.291	-0.251
-238.888	515.123	0.029	-0.067
-237.873	16.073	0.192	0.150
-236.859	110.547	0.089	-0.106
-235.844	-69.500	0.158	0.060
-234.830	-200.000	0.004	0.033
-233.815	-89.903	-0.153	0.044
-232.800	-148.131	0.197	0.016
-231.786	-200.000	0.024	0.150
-230.771	-200.000	-0.008	-0.127
-229.757	309.593	-0.075	0.139
-228.742	139.492	0.071	-0.093
-227.727	104.552	-0.141	0.165
-226.713	-84.892	0.314	0.098
-225.698	-200.000	-0.004	0.258
-224.684	217.885	0.188	0.297
-223.669	118.655	-0.080	0.098
-222.655	800.000	0.099	0.365
-221.640	-200.000	-0.004	0.028
-220.625	-146.934	-0.224	0.019
-219.611	-120.120	-0.312	0.053
-218.596	-64.641	0.114	-0.046
-217.582	398.929	-0.047	-0.098
-216.567	414.725	-0.123	0.259
-215.552	-79.832	-0.193	0.064
-214.538	145.483	0.075	0.100
-213.523	-200.000	-0.035	0.318
-212.509	-87.228	0.191	-0.057
-211.494	-73.675	0.138	-0.050
-210.479	110.704	0.182	0.217
-209.465	800.000	-0.033	0.121
-208.450	-8.609	-0.198	0.132
-207.436	-17.709	-0.184	0.115
-206.421	30.778	0.056	-0.047
-205.406	-142.513	0.036	0.004
-204.392	-78.955	0.037	0.012
-203.377	-200.000	-0.006	-0.170
-202.363	583.557	0.075	-0.182
-201.348	13.578	0.036	-0.027
-200.333	53.739	-0.290	0.276
-199.319	800.000	0.088	0.362
-198.304	-99.870	0.344	-0.085
-197.290	360.406	0.148	0.294
-196.275	173.403	0.113	-0.162
-195.260	25.548	-0.130	-0.107
-194.246	71.206	0.086	0.088
-193.231	800.000	-0.028	-0.094
-192.217	173.473	-0.119	0.170
-191.202	-200.000	0.084	0.390
-190.187	-21.850	-0.235	0.142
-189.173	202.846	-0.073	0.112
-188.158	0.165	0.289	0.204
-187.144	-143.426	0.343	-0.032
-186.129	-106.989	0.125	0.027
-185.114	350.471	-0.097	-0.189
-184.100	556.182	-0.085	-0.204
-183.085	-23.672	0.232	-0.137
-182.071	-64.479	0.220	-0.089
-181.056	-200.000	-0.000	-0.131
-180.042	-55.082	-0.067	0.030
-179.027	305.454	-0.046	-0.085
-178.012	-38.523	0.253	0.132
-176.998	213.217	-0.081	0.127
-175.983	-25.398	-0.162	-0.095
-174.969	800.000	0.072	0.253
-173.954	111.511	0.136	0.163
-172.939	76.003	0.112	0.117
-171.925	31.531	-0.307	0.261
-170.910	-64.159	0.098	-0.039
-169.896	-12.469	-0.213	-0.137
-168.881	-70.146	-0.209	-0.079
-167.866	-187.061	0.135	-0.002
-166.852	391.561	0.083	0.171
-165.837	800.000	-0.059	-0.209
-164.823	190.598	0.063	0.094
-163.808	0.890	0.145	-0.103
-162.793	53.848	0.244	-0.232
-161.779	35.552	0.284	-0.246
-160.764	218.787	0.076	-0.120
-159.750	-200.000	-0.016	-0.278
-158.735	149.838	0.226	0.302
-157.720	504.756	-0.102	0.234
-156.706	-72.978	0.187	-0.068
-155.691	-75.722	-0.086	0.030
-154.677	-121.209	-0.357	0.059
-153.662	-165.348	-0.080	-0.003
-152.647	122.869	-0.174	-0.215
-151.633	305.885	-0.110	0.202
-150.618	-133.769	-0.125	0.015
-149.604	800.000	-0.095	0.294
-148.589	-129.679	0.061	0.008
-147.574	111.165	-0.210	-0.250
-146.560	-153.655	0.322	0.022
-145.545	800.000	-0.015	-0.059
-144.531	74.577	0.064	0.067
-143.516	800.000	-0.021	0.064
-142.502	734.498	0.089	-0.235
-141.487	53.802	-0.253	0.240
-140.472	56.142	-0.192	-0.184
-139.458	-39.234	-0.153	-0.080
-138.443	-74.428	0.097	-0.035
-137.429	-130.542	0.288	0.038
-136.414	160.941	-0.198	0.274
-135.399	71.619	-0.113	0.116
-134.385	-60.229	0.088	0.037
-133.370	10.116	0.238	0.179
-132.356	800.000	-0.027	-0.088
-131.341	-129.548	-0.150	0.020
-130.326	800.000	0.059	0.171
-129.312	81.018	0.179	0.191
-128.297	218.131	-0.107	0.168
-127.283	119.115	-0.195	0.238
-126.268	237.322	0.070	-0.115
-125.253	128.794	0.156	0.197
-124.239	-95.197	-0.437	0.116
-123.224	-200.000	-0.048	0.344
-122.210	-59.601	0.215	0.091
-121.195	-105.480	0.143	0.032
-120.180	133.315	0.175	0.224
-119.166	-177.983	0.263	0.006
-118.151	8.304	-0.142	-0.105
-117.137	800.000	0.005	0.019
-116.122	173.882	0.063	-0.090
-115.107	182.405	-0.243	-0.353
-114.093	-37.995	-0.111	0.058
-113.078	96.536	0.116	-0.131
-112.064	198.470	-0.104	0.158
-111.049	800.000	0.045	0.170
-110.034	-45.705	0.204	0.100
-109.020	-4.457	0.067	0.045
-108.005	-93.768	-0.098	0.027
-106.991	-200.000	0.009	-0.260
-105.976	-71.894	0.164	0.060
-104.962	67.379	-0.087	0.088
-103.947	61.630	-0.113	-0.111
-102.932	-49.784	-0.195	-0.091
-101.918	-70.125	0.170	0.064
-100.903	67.984	-0.075	-0.075
-99.889	-11.126	-0.208	0.135
-98.874	52.498	-0.069	0.065
-97.859	800.000	-0.076	0.247
-96.845	365.549	0.148	-0.295
-95.830	33.884	-0.181	0.155
-94.816	-99.385	0.263	0.065
-93.801	-75.875	-0.114	-0.040
-92.786	81.649	-0.126	0.135
-91.772	800.000	0.018	-0.054
-90.757	-98.360	-0.026	0.007
-89.743	573.997	0.102	-0.246
-88.728	-60.839	0.124	-0.052
-87.713	-47.928	0.201	-0.096
-86.699	-200.000	0.026	-0.211
-85.684	-60.515	-0.253	-0.106
-84.670	229.082	0.121	0.194
-83.655	-34.779	0.255	-0.137
-82.640	-200.000	0.005	-0.059
-81.626	800.000	-0.073	0.253
-80.611	800.000	-0.074	-0.304
-79.597	251.666	-0.108	-0.182
-78.582	-99.204	0.390	0.097
-77.567	219.005	0.048	-0.075
-76.553	47.121	0.102	-0.093
-75.538	197.259	-0.121	0.181
-74.524	-39.298	0.156	0.081
-73.509	36.796	0.147	-0.128
-72.494	-42.108	-0.017	-0.009
-71.480	-17.754	0.198	0.122
-70.465	161.497	0.185	-0.255
-69.451	448.784	0.030	-0.066
-68.436	-105.012	-0.182	-0.041
-67.422	-200.000	0.043	-0.299
-66.407	152.092	-0.211	0.283
-65.392	0.915	0.088	0.062
-64.378	-89.270	0.064	0.019
-63.363	-200.000	0.001	-0.275
-62.349	333.821	0.088	-0.167
-61.334	127.920	-1.073	-1.344
-60.319	85.703	0.353	0.383
-59.305	-200.000	-0.107	-1.087
-58.290	187.408	0.646	0.949
-57.276	417.043	0.760	1.597
-56.261	-200.000	94.789	589.000
-55.246	668.734	1370.397	3490.766
-54.232	199.945	2542.032	3841.654
-53.217	121.324	2139.356	2623.099
-52.203	44.355	1604.477	1450.145
-51.188	35.910	1343.047	1163.073
-50.173	32.861	1300.576	1108.371
-49.159	54.932	1347.590	1280.756
-48.144	57.122	1363.821	1309.194
-47.130	36.156	1323.447	1147.382
-46.115	32.760	1305.750	1112.007
-45.100	32.460	1300.746	1105.943
-44.086	32.348	1298.821	1103.603
-43.071	32.253	1296.997	1101.456
-42.057	32.343	1294.115	1099.487
-41.042	32.286	1292.610	1097.834
-40.027	32.374	1291.168	1097.079
-39.013	32.327	1289.138	1095.034
-37.998	32.420	1287.266	1093.944
-36.984	32.395	1285.730	1092.450
-35.969	32.531	1283.219	1091.063
-34.954	32.477	1282.471	1090.069
-33.940	32.419	1281.164	1088.579
-32.925	32.452	1279.508	1087.320
-31.911	32.564	1277.856	1086.517
-30.896	32.436	1276.453	1084.545
-29.881	32.465	1275.404	1083.781
-28.867	32.547	1273.839	1082.875
-27.852	32.564	1272.294	1081.620
-26.838	32.583	1271.006	1080.589
-25.823	32.438	1270.262	1079.086
-24.809	32.549	1268.106	1077.844
-23.794	32.508	1267.319	1076.897
-22.779	32.561	1265.757	1075.829
-21.765	32.599	1264.150	1074.639
-20.750	32.477	1263.090	1072.998
-19.736	32.514	1261.466	1071.787
-18.721	32.463	1260.790	1070.878
-17.706	32.317	1259.674	1069.062
-16.692	32.398	1258.430	1068.420
-15.677	32.443	1257.451	1067.807
-14.663	32.369	1256.011	1066.121
-13.648	32.487	1255.070	1065.946
-12.633	32.386	1254.030	1064.450
-11.619	32.369	1253.113	1063.532
-10.604	32.480	1252.358	1063.480
-9.590	32.392	1251.137	1061.902
-8.575	32.315	1250.562	1060.938
-7.560	32.254	1249.798	1059.905
-6.546	32.266	1248.786	1059.072
-5.531	32.332	1248.212	1058.915
-4.517	32.355	1247.268	1058.198
-3.502	32.370	1246.445	1057.541
-2.487	32.403	1245.224	1056.651
-1.473	32.245	1241.582	1052.635
-0.458	30.946	1226.219	1032.379
0.556	26.619	1209.096	995.364
1.571	22.853	1214.485	978.877
2.586	21.941	1228.708	985.133
3.600	21.304	1217.517	972.531
4.615	16.253	1146.313	889.037
5.629	8.320	1072.883	792.760
6.644	4.881	1053.646	761.686
7.659	4.636	1051.153	758.624
8.673	4.609	1050.264	757.784
9.688	4.604	1048.970	756.757
10.702	4.703	1047.050	755.784
11.717	9.232	1053.412	782.404
12.731	16.463	1062.861	824.757
13.746	19.095	1065.929	839.923
14.761	18.358	1063.975	834.720
15.775	17.312	1062.073	828.062
16.790	16.315	1059.957	821.490
17.804	15.487	1058.669	816.395
18.819	15.079	1057.741	813.625
19.834	14.837	1056.565	811.476
20.848	14.709	1055.750	810.157
21.863	14.539	1054.873	808.585
22.877	14.307	1054.314	806.961
23.892	14.286	1053.748	806.355
24.907	14.303	1053.113	805.879
25.921	14.411	1051.580	805.157
26.936	14.388	1050.265	803.968
27.950	14.597	1048.639	803.662
28.965	14.467	1047.773	802.299
29.980	14.590	1046.240	801.647
30.994	14.704	1045.011	801.179
32.009	14.662	1043.972	800.113
33.023	14.647	1043.194	799.375
34.038	14.600	1042.061	798.212
35.053	14.600	1040.886	797.238
36.067	14.571	1040.223	796.524
37.082	14.686	1039.276	796.275
38.096	14.567	1038.865	795.322
39.111	14.539	1038.014	794.469
40.126	14.441	1036.855	793.041
41.140	14.349	1035.819	791.743
42.155	14.235	1034.093	789.812
43.169	14.158	1033.407	788.853
44.184	14.172	1032.343	788.037
45.199	14.249	1031.519	787.706
46.213	14.375	1030.255	787.267
47.228	14.507	1028.961	786.830
48.242	14.479	1028.164	786.019
49.257	14.380	1027.294	784.816
50.271	14.503	1026.454	784.683
51.286	14.497	1025.199	783.630
52.301	14.516	1024.447	783.071
53.315	14.501	1023.383	782.122
54.330	14.477	1022.357	781.154
55.344	14.401	1021.375	779.978
56.359	14.415	1020.477	779.292
57.374	14.339	1019.902	778.428
58.388	14.242	1019.128	777.316
59.403	14.238	1017.902	776.292
60.417	14.347	1017.236	776.225
61.432	14.198	1017.312	775.519
62.447	14.163	1015.861	774.181
63.461	14.245	1014.993	773.834
64.476	14.262	1013.869	772.984
65.490	14.147	1013.126	771.815
66.505	14.209	1012.791	771.781
67.520	14.219	1012.348	771.422
68.534	14.138	1011.388	770.246
69.549	14.201	1010.566	769.843
70.563	14.201	1009.816	769.202
71.578	14.137	1008.864	768.117
72.593	13.956	1008.370	766.838
73.607	14.024	1007.479	766.402
74.622	14.092	1006.847	766.171
75.636	14.032	1006.222	765.351
76.651	14.173	1005.487	765.372
77.666	14.134	1005.269	764.960
78.680	14.141	1004.294	764.179
79.695	14.212	1003.592	763.904
80.709	14.162	1003.353	763.428
81.724	14.271	1002.868	763.489
82.739	14.447	1001.803	763.418
83.753	14.541	1001.149	763.281
84.768	14.522	1000.436	762.585
85.782	14.598	999.608	762.233
86.797	14.607	998.619	761.452
87.812	14.504	997.387	759.975
88.826	14.463	996.797	759.272
89.841	14.604	995.798	759.086
90.855	14.558	995.136	758.303
91.870	14.703	993.953	757.992
92.884	14.681	993.370	757.381
93.899	14.711	992.389	756.705
94.914	14.785	991.661	756.418
95.928	14.714	991.100	755.599
96.943	14.578	990.555	754.503
97.957	14.678	989.215	753.867
98.972	14.665	988.630	753.295
99.987	14.709	987.768	752.771
101.001	14.706	986.149	751.456
102.016	14.611	985.863	750.745
103.030	14.637	984.964	750.110
104.045	14.662	984.471	749.782
105.060	14.532	983.446	748.353
106.074	14.285	982.720	746.626
107.089	14.281	981.299	745.463
108.103	14.321	980.096	744.662
109.118	14.357	979.273	744.129
110.133	14.262	978.798	743.279
111.147	14.222	977.949	742.392
112.162	14.291	977.265	742.112
113.176	14.389	976.591	741.974
114.191	14.472	975.764	741.649
115.206	14.395	974.683	740.420
116.220	14.408	974.114	739.977
117.235	14.369	972.896	738.816
118.249	14.371	971.733	737.876
119.264	14.401	971.433	737.715
120.279	14.240	970.455	736.192
121.293	14.331	969.464	735.779
122.308	14.206	968.948	734.770
123.322	14.295	967.822	734.244
124.337	14.186	966.932	733.024
125.352	14.256	965.764	732.384
126.366	14.141	964.371	730.757
127.381	14.239	963.688	730.604
128.395	14.237	962.916	729.944
129.410	14.456	961.800	729.995
130.424	14.444	961.318	729.509
131.439	14.520	960.464	729.130
132.454	14.507	959.916	728.592
133.468	14.510	958.821	727.711
134.483	14.417	958.061	726.664
135.497	14.421	957.828	726.442
136.512	14.453	956.541	725.538
137.527	14.375	955.634	724.449
138.541	14.497	955.128	724.529
139.556	14.487	954.285	723.784
140.570	14.542	953.854	723.631
141.585	14.685	952.829	723.410
142.600	14.641	952.128	722.624
143.614	14.773	951.259	722.470
144.629	14.806	950.371	721.872
145.643	14.666	949.867	720.821
146.658	14.565	948.475	719.269
147.673	14.600	947.578	718.674
148.687	14.518	946.779	717.652
149.702	14.331	946.431	716.522
150.716	14.439	945.335	716.091
151.731	14.374	945.025	715.512
152.746	14.513	944.112	715.354
153.760	14.660	943.448	715.420
154.775	14.634	942.921	714.847
155.789	14.711	942.370	714.695
156.804	14.796	941.310	714.191
157.819	14.702	941.246	713.678
158.833	14.788	939.848	712.922
159.848	14.907	939.087	712.787
160.862	14.756	938.308	711.491
161.877	14.549	937.414	709.868
162.892	14.587	936.262	709.095
163.906	14.667	935.278	708.624
164.921	14.518	934.517	707.356
165.935	14.639	933.582	707.098
166.950	14.699	932.779	706.678
167.964	14.641	931.974	705.764
168.979	14.667	931.088	705.138
169.994	14.551	930.676	704.276
171.008	14.672	929.841	704.093
172.023	14.759	929.212	703.919
173.037	14.809	928.688	703.669
174.052	14.826	927.690	702.922
175.067	14.758	926.977	702.037
176.081	14.643	926.548	701.164
177.096	14.742	925.626	700.819
178.110	14.730	925.407	700.543
179.125	14.684	925.233	700.155
180.140	14.740	924.160	699.516
181.154	14.691	924.161	699.249
182.169	14.838	923.408	699.233
183.183	14.895	922.767	698.925
184.198	14.949	921.715	698.290
185.213	14.966	921.183	697.898
186.227	14.907	920.895	697.370
187.242	14.870	920.318	696.720
188.256	15.127	919.509	697.112
189.271	15.042	919.020	696.327
190.286	14.780	918.094	694.475
191.300	14.733	917.212	693.554
192.315	14.617	916.112	692.177
193.329	14.811	916.090	692.903
194.344	14.772	915.241	692.042
195.359	14.938	914.363	692.001
196.373	15.082	913.762	692.079
197.388	15.096	913.700	692.032
198.402	15.133	913.318	691.834
199.417	15.205	912.611	691.533
200.432	15.286	911.984	691.331
201.446	15.180	911.427	690.412
202.461	15.254	910.887	690.244
203.475	15.288	910.771	690.237
204.490	15.200	909.637	688.953
205.504	15.207	908.588	688.128
206.519	15.222	907.952	687.645
207.534	15.090	907.508	686.708
208.548	15.127	906.858	686.307
209.563	15.236	905.885	685.957
210.577	15.232	905.304	685.437
211.592	15.306	904.864	685.348
212.607	15.385	904.052	684.993
213.621	15.300	903.591	684.235
214.636	15.324	903.118	683.916
215.650	15.185	902.476	682.803
216.665	15.432	901.309	682.864
217.680	15.478	900.803	682.608
218.694	15.414	900.233	681.856
219.709	15.531	899.485	681.703
220.723	15.461	898.811	680.851
221.738	15.507	897.925	680.306
222.753	15.411	897.639	679.640
223.767	15.505	897.167	679.602
224.782	15.551	896.779	679.434
225.796	15.656	895.697	678.979
226.811	15.567	895.119	678.119
227.826	15.344	894.813	676.931
228.840	15.465	893.912	676.673
229.855	15.511	892.926	676.053
230.869	15.396	892.375	675.112
231.884	15.528	891.537	674.953
232.899	15.395	891.031	673.974
233.913	15.416	890.207	673.375
234.928	15.296	889.751	672.492
235.942	15.319	889.085	672.018
236.957	15.318	888.521	671.530
237.972	15.439	888.053	671.601
238.986	15.449	887.396	671.085
240.001	15.416	886.681	670.352
241.015	15.482	885.902	669.969
242.030	15.499	885.434	669.623
243.045	15.482	884.842	669.046
244.059	15.711	884.071	669.316
245.074	15.751	883.401	668.910
246.088	15.644	883.266	668.321
247.103	15.710	882.116	667.654
248.117	15.800	882.158	667.987
249.132	15.817	881.622	667.589
250.147	15.986	881.181	667.864
251.161	16.222	880.078	667.906
252.176	16.147	879.566	667.159
253.190	16.156	879.077	666.763
254.205	16.200	878.390	666.359
255.220	16.100	877.784	665.444
256.234	16.067	877.206	664.819
257.249	16.042	876.575	664.183
258.263	16.116	875.602	663.677
259.278	16.142	875.079	663.324
260.293	16.083	874.681	662.734
261.307	16.199	874.160	662.734
262.322	16.370	873.163	662.593
263.336	16.177	872.973	661.634
264.351	16.235	871.952	661.025
265.366	16.360	871.292	660.959
266.380	16.337	870.509	660.214
267.395	16.258	870.081	659.524
268.409	16.228	869.459	658.874
269.424	16.306	868.236	658.196
270.439	16.306	867.928	657.902
271.453	16.179	867.135	656.749
272.468	16.212	866.750	656.530
273.482	16.345	865.993	656.413
274.497	16.204	865.472	655.414
275.512	16.327	864.785	655.312
276.526	16.360	864.398	655.088
277.541	16.458	864.089	655.178
278.555	16.485	863.328	654.644
279.570	16.508	862.853	654.319
280.585	16.586	862.179	654.051
281.599	16.441	861.073	652.592
282.614	16.339	860.683	651.847
283.628	16.364	860.165	651.491
284.643	16.515	859.598	651.586
285.657	16.579	858.737	651.124
286.672	16.612	857.990	650.625
287.687	16.469	857.616	649.733
288.701	16.500	857.378	649.616
289.716	16.534	856.620	649.117
290.730	16.526	856.087	648.622
291.745	16.479	855.722	648.110
292.760	16.571	855.099	647.932
293.774	16.661	854.451	647.730
294.789	16.582	853.837	646.904
295.803	16.663	852.703	646.297
296.818	16.590	852.173	645.560
297.833	16.479	851.904	644.876
298.847	16.549	851.206	644.556
299.862	16.570	850.625	644.139
300.876	16.813	849.914	644.468
301.891	16.885	849.650	644.486
302.906	16.799	849.033	643.634
303.920	16.933	848.489	643.671
304.935	16.805	848.530	643.160
305.949	16.922	847.561	642.814
306.964	16.755	846.677	641.455
307.979	16.876	846.180	641.478
308.993	16.915	845.914	641.366
310.008	16.887	845.478	640.872
311.022	16.780	844.892	639.970
312.037	16.773	843.807	639.065
313.052	16.742	843.006	638.284
314.066	16.730	842.216	637.582
315.081	16.841	841.786	637.620
316.095	16.805	841.487	637.200
317.110	16.741	841.087	636.603
318.125	16.793	840.441	636.250
319.139	16.673	839.997	635.407
320.154	16.750	839.632	635.366
321.168	16.844	838.931	635.131
322.183	16.963	838.156	634.934
323.197	16.885	838.124	634.560
324.212	16.793	837.654	633.803
325.227	16.839	837.042	633.456
326.241	16.926	835.940	632.893
327.256	16.992	835.799	632.977
328.270	16.921	835.329	632.300
329.285	16.889	834.521	631.514
330.300	16.856	834.091	631.007
331.314	16.940	833.179	630.573
332.329	17.035	832.827	630.606
333.343	17.067	832.880	630.709
334.358	17.024	832.359	630.097
335.373	17.145	831.998	630.218
336.387	17.096	831.818	629.845
337.402	17.241	831.335	629.961
338.416	17.211	830.758	629.358
339.431	17.320	830.770	629.713
340.446	17.295	830.158	629.103
341.460	17.448	829.760	629.310
342.475	17.406	829.780	629.113
343.489	17.516	828.889	628.788
344.504	17.342	828.651	627.909
345.519	17.489	828.160	628.025
346.533	17.366	827.716	627.180
347.548	17.257	827.380	626.468
348.562	17.245	826.557	625.745
349.577	17.153	826.053	624.972
350.592	17.333	825.020	624.795
351.606	17.144	824.897	623.952
352.621	17.293	823.859	623.657
353.635	17.289	823.314	623.174
354.650	17.354	823.007	623.127
355.665	17.362	822.099	622.413
356.679	17.409	821.334	621.952
357.694	17.437	821.311	621.979
358.708	17.392	820.049	620.806
359.723	17.421	819.708	620.600
360.738	17.480	819.010	620.228
361.752	17.534	818.424	619.927
362.767	17.612	817.810	619.691
363.781	17.729	817.567	619.877
364.796	17.783	817.366	619.867
365.810	17.778	816.720	619.305
366.825	17.796	816.583	619.210
367.840	17.765	816.109	618.685
368.854	17.715	815.683	618.124
369.869	17.734	815.050	617.661
370.883	17.735	814.434	617.143
371.898	17.960	814.272	617.778
372.913	17.841	813.853	616.975
373.927	17.818	813.128	616.288
374.942	17.964	812.848	616.549
375.956	17.919	812.466	616.041
376.971	18.066	812.002	616.167
377.986	17.987	811.744	615.631
379.000	18.011	811.074	615.155
380.015	17.940	810.919	614.725
381.029	18.121	810.059	614.672
382.044	18.274	809.474	614.724
383.059	18.125	808.786	613.611
384.073	17.992	808.301	612.710
385.088	17.884	807.570	611.716
386.102	17.923	807.230	611.543
387.117	17.913	806.572	610.957
388.132	18.107	805.878	611.070
389.146	17.967	805.625	610.324
390.161	18.049	805.121	610.180
391.175	18.103	804.502	609.849
392.190	18.030	804.330	609.407
393.205	18.140	803.360	609.010
394.219	18.023	803.474	608.625
395.234	17.983	802.969	608.046
396.248	17.744	802.957	607.132
397.263	17.868	801.733	606.593
398.278	17.884	801.489	606.412
399.292	17.862	801.044	605.943
400.307	17.938	800.788	605.965
401.321	18.024	800.080	605.681
402.336	18.017	799.619	605.252
403.350	18.032	799.404	605.090
404.365	18.259	798.867	605.433
405.380	18.336	798.407	605.302
406.394	18.356	797.731	604.809
407.409	18.240	797.476	604.150
408.423	18.388	797.271	604.464
409.438	18.482	797.058	604.582
410.453	18.414	796.890	604.163
411.467	18.447	796.408	603.859
412.482	18.615	795.621	603.801
413.496	18.544	795.171	603.154
414.511	18.615	795.081	603.283
415.526	18.502	794.660	602.512
416.540	18.579	794.123	602.323
417.555	18.403	793.666	601.305
418.569	18.538	793.202	601.373
419.584	18.419	793.184	600.891
420.599	18.464	792.335	600.351
421.613	156.613	1370.636	1794.474
422.628	135.544	1454.916	1794.588
