DTS Sentinel unit serial number:	SN413079Multiplexer serial number:	ORYXHardware model number:	OX4-SRSoftware version number:	ORYX F/W v4.00 Oryx Data Collector v3.7.2.0data status	okinstallation	princeton_trtdifferential loss correction	single-endedforward channel	channel 1reverse channel	N/Adate	2019/09/12time	09:28:11forward acquisition time	60.00reverse acquisition time	0.00gamma	496.2192k internal	0.2302k external	0.2302temperature offset calibration	1.0040default loss term (dB/km)	0.3790temperature slope calibration	1.0000multiplexer offset coefficient	1.0000multiplexer slope coefficient	1.0000fibre end	0.00T internal ref (°C)	35.42T ext. ref 1 (°C)	1.78T ext. ref 2 (°C)	33.12length (m)	temperature (°C)	Stokes	anti-Stokes-747.200	-200.000	-0.037	-0.207
-746.185	-14.506	0.275	-0.180
-745.171	-55.109	0.261	0.120
-744.156	-104.147	-0.263	0.062
-743.142	800.000	0.054	0.157
-742.127	-200.000	-0.024	0.290
-741.112	-102.298	0.207	-0.051
-740.098	-141.427	-0.279	0.029
-739.083	800.000	-0.027	0.095
-738.069	800.000	-0.103	0.345
-737.054	178.498	-0.141	-0.209
-736.039	282.171	0.150	-0.273
-735.025	-34.301	0.151	-0.084
-734.010	251.961	-0.135	-0.234
-732.996	-200.000	0.061	-0.558
-731.981	56.790	0.254	-0.252
-730.966	-200.000	-0.021	0.186
-729.952	-95.681	-0.249	0.068
-728.937	116.676	0.018	-0.022
-727.923	-147.449	-0.514	0.044
-726.908	45.051	-0.215	-0.202
-725.894	800.000	0.004	-0.011
-724.879	158.244	-0.213	-0.300
-723.864	-200.000	-0.038	0.222
-722.850	722.199	-0.010	0.028
-721.835	20.911	0.061	-0.050
-720.821	66.899	-0.092	0.095
-719.806	600.930	-0.035	-0.088
-718.791	-76.476	-0.462	-0.165
-717.777	94.660	-0.106	-0.123
-716.762	18.081	-0.280	-0.227
-715.748	58.304	-0.202	-0.202
-714.733	-156.729	0.157	-0.010
-713.718	800.000	0.068	-0.264
-712.704	202.921	-0.205	-0.322
-711.689	103.176	0.149	-0.177
-710.675	-189.353	0.116	-0.001
-709.660	800.000	-0.055	0.204
-708.645	800.000	0.038	-0.119
-707.631	800.000	0.007	-0.031
-706.616	166.083	-0.081	-0.117
-705.602	-4.244	0.222	-0.156
-704.587	-163.274	0.381	-0.019
-703.572	-23.705	-0.191	-0.117
-702.558	-151.084	0.265	0.020
-701.543	299.336	0.072	0.134
-700.529	-184.935	0.265	0.004
-699.514	40.672	-0.126	0.116
-698.499	-132.652	-0.305	0.040
-697.485	-101.784	-0.170	-0.042
-696.470	-34.889	0.270	0.150
-695.456	19.817	0.212	0.174
-694.441	800.000	0.062	-0.211
-693.426	-36.646	0.212	0.116
-692.412	-19.959	-0.174	-0.109
-691.397	-133.598	-0.333	0.042
-690.383	800.000	0.053	0.170
-689.368	-92.243	-0.248	-0.071
-688.354	-5.133	0.167	-0.117
-687.339	-74.826	-0.221	0.081
-686.324	800.000	-0.043	-0.171
-685.310	-200.000	-0.013	-0.205
-684.295	-75.345	0.405	-0.147
-683.281	304.203	-0.026	-0.050
-682.266	-14.847	0.030	-0.019
-681.251	-200.000	0.542	0.002
-680.237	-133.877	0.114	0.014
-679.222	52.826	-0.199	0.193
-678.208	-37.137	0.264	0.144
-677.193	-200.000	-0.053	0.548
-676.178	-34.733	-0.134	-0.075
-675.164	105.524	-0.143	0.172
-674.149	-52.041	-0.145	0.068
-673.135	55.146	-0.205	0.202
-672.120	-91.941	-0.302	-0.087
-671.105	-111.439	0.023	-0.005
-670.091	-200.000	0.027	-0.358
-669.076	450.174	-0.125	-0.280
-668.062	17.953	0.319	0.259
-667.047	-200.000	0.068	-0.452
-666.032	-109.868	-0.132	0.028
-665.018	-69.943	0.189	0.073
-664.003	205.502	0.169	0.267
-662.989	-200.000	0.032	0.179
-661.974	-103.659	0.338	-0.080
-660.959	21.464	0.265	0.219
-659.945	-153.591	0.030	-0.002
-658.930	128.318	0.047	-0.060
-657.916	800.000	-0.048	-0.202
-656.901	-80.104	-0.315	0.107
-655.886	-56.321	0.245	0.111
-654.872	71.927	-0.159	-0.168
-653.857	-171.298	0.495	0.017
-652.843	-200.000	0.030	0.150
-651.828	141.344	-0.139	0.187
-650.814	-36.107	0.240	0.132
-649.799	-200.000	-0.001	-0.185
-648.784	-21.072	0.144	0.090
-647.770	-53.230	0.071	-0.033
-646.755	299.027	0.139	-0.260
-645.741	60.706	0.126	0.127
-644.726	-41.155	-0.517	-0.271
-643.711	118.992	-0.153	-0.192
-642.697	-189.543	-0.284	-0.003
-641.682	-71.853	-0.243	-0.092
-640.668	-15.623	0.236	0.153
-639.653	0.419	-0.193	0.140
-638.638	-135.080	-0.129	0.016
-637.624	172.613	-0.083	0.122
-636.609	224.452	-0.265	-0.435
-635.595	-200.000	0.045	0.200
-634.580	-117.031	0.254	0.047
-633.565	22.375	0.202	0.167
-632.551	-31.104	0.222	0.127
-631.536	800.000	-0.081	-0.289
-630.522	-42.914	0.302	0.156
-629.507	-13.094	0.095	-0.063
-628.492	219.033	0.156	0.253
-627.478	-61.025	0.122	0.052
-626.463	48.904	-0.023	-0.022
-625.449	93.047	0.202	0.231
-624.434	85.815	0.151	-0.168
-623.419	365.380	0.129	-0.264
-622.405	-200.000	-0.019	-0.122
-621.390	-59.249	-0.416	0.182
-620.376	-113.607	-0.199	-0.039
-619.361	-64.533	-0.100	0.041
-618.346	-41.863	0.118	0.061
-617.332	424.124	-0.054	-0.118
-616.317	222.911	0.145	0.237
-615.303	-80.627	-0.319	0.108
-614.288	22.310	-0.182	-0.151
-613.273	41.509	0.235	-0.216
-612.259	303.302	-0.133	0.251
-611.244	800.000	0.070	0.245
-610.230	800.000	-0.124	0.346
-609.215	-0.780	-0.156	-0.112
-608.201	-200.000	-0.002	0.303
-607.186	-200.000	0.018	-0.100
-606.171	484.981	-0.059	-0.135
-605.157	-140.795	0.249	0.026
-604.142	-200.000	-0.044	-0.528
-603.128	-58.874	-0.209	-0.092
-602.113	98.572	-0.069	-0.081
-601.098	12.762	-0.032	-0.025
-600.084	478.459	0.093	-0.213
-599.069	95.955	-0.149	0.172
-598.055	697.086	-0.116	-0.309
-597.040	-200.000	-0.005	-0.254
-596.025	-200.000	-0.004	0.237
-595.011	-200.000	-0.014	-0.460
-593.996	726.010	0.091	-0.245
-592.982	-80.365	0.142	0.048
-591.967	-200.000	-0.001	-0.385
-590.952	53.003	-0.275	-0.266
-589.938	-34.745	-0.123	0.068
-588.923	800.000	-0.026	0.111
-587.909	-99.642	0.174	0.044
-586.894	-200.000	-0.034	-0.179
-585.879	442.317	0.156	0.346
-584.865	800.000	0.084	0.326
-583.850	-73.561	0.135	-0.050
-582.836	-82.340	0.358	-0.118
-581.821	418.390	-0.078	-0.169
-580.806	226.705	0.048	0.078
-579.792	-110.106	-0.488	-0.103
-578.777	-53.659	0.240	-0.111
-577.763	429.599	-0.026	-0.058
-576.748	31.852	-0.143	-0.125
-575.733	164.182	0.141	-0.201
-574.719	-46.851	-0.189	0.094
-573.704	427.885	0.135	-0.295
-572.690	80.074	-0.055	0.060
-571.675	-176.538	0.338	0.009
-570.661	-200.000	0.040	0.240
-569.646	-182.692	-0.028	-0.001
-568.631	137.583	0.067	0.089
-567.617	-10.477	0.114	0.077
-566.602	22.583	0.193	0.160
-565.588	-13.345	-0.310	0.204
-564.573	800.000	-0.162	-0.467
-563.558	800.000	-0.027	-0.111
-562.544	-40.774	-0.277	-0.145
-561.529	-23.177	0.177	-0.108
-560.515	800.000	0.080	-0.231
-559.500	154.939	0.145	0.202
-558.485	-200.000	-0.018	0.318
-557.471	-200.000	0.008	-0.284
-556.456	-29.024	-0.095	-0.055
-555.442	-99.198	-0.626	-0.160
-554.427	110.682	0.135	0.164
-553.412	241.645	-0.083	0.140
-552.398	-200.000	-0.019	0.095
-551.383	396.930	-0.142	0.300
-550.369	440.543	-0.098	0.216
-549.354	-200.000	-0.002	0.045
-548.339	-129.337	0.390	-0.055
-547.325	-122.833	0.213	0.035
-546.310	66.909	0.155	0.160
-545.296	-0.032	-0.291	0.210
-544.281	110.161	0.239	0.290
-543.266	69.277	-0.083	0.087
-542.252	95.501	0.241	0.277
-541.237	-19.730	-0.121	-0.076
-540.223	-143.787	-0.159	0.015
-539.208	-76.431	0.170	0.060
-538.193	800.000	-0.121	-0.361
-537.179	459.357	-0.012	0.026
-536.164	135.723	0.340	-0.448
-535.150	-106.381	-0.059	0.013
-534.135	-27.246	0.272	0.160
-533.121	-18.696	-0.169	0.107
-532.106	-200.000	-0.031	-0.220
-531.091	-200.000	-0.039	-0.392
-530.077	-3.340	-0.273	0.192
-529.062	-94.433	-0.181	0.050
-528.048	131.291	0.118	0.153
-527.033	-109.846	-0.386	-0.082
-526.018	13.416	-0.083	-0.065
-525.004	-87.872	-0.197	-0.060
-523.989	0.548	0.219	-0.158
-522.975	800.000	-0.082	-0.235
-521.960	-28.061	-0.229	0.134
-520.945	-44.210	-0.134	-0.068
-519.931	-103.429	-0.148	-0.035
-518.916	-142.153	0.474	-0.048
-517.902	-200.000	0.009	0.068
-516.887	-50.162	-0.149	-0.071
-515.872	318.301	-0.075	-0.144
-514.858	17.227	-0.227	0.182
-513.843	88.764	0.073	0.082
-512.829	-96.583	-0.207	-0.055
-511.814	-62.532	0.205	-0.086
-510.799	-128.144	0.279	0.040
-509.785	260.634	-0.052	-0.090
-508.770	612.660	0.048	-0.120
-507.756	22.064	-0.236	0.194
-506.741	-191.087	-0.389	0.004
-505.726	50.059	0.084	0.080
-504.712	-200.000	0.008	0.095
-503.697	-93.980	-0.068	0.019
-502.683	-74.204	0.095	-0.035
-501.668	209.631	0.240	-0.380
-500.653	-168.327	0.364	-0.014
-499.639	-27.025	0.319	0.188
-498.624	800.000	0.015	0.046
-497.610	-200.000	-0.073	0.328
-496.595	77.095	0.007	0.007
-495.581	175.052	-0.040	-0.058
-494.566	-200.000	-0.038	-0.313
-493.551	189.398	-0.136	0.205
-492.537	-30.219	0.059	0.034
-491.522	667.176	0.098	-0.255
-490.508	-99.679	0.251	-0.064
-489.493	176.522	-0.112	-0.165
-488.478	49.897	0.388	-0.369
-487.464	800.000	-0.078	-0.218
-486.449	58.602	0.042	0.042
-485.435	-70.964	0.021	0.008
-484.420	-24.160	-0.219	0.132
-483.405	-107.721	0.287	0.063
-482.391	-200.000	0.061	0.611
-481.376	-200.000	0.066	0.370
-480.362	-199.495	0.411	-0.002
-479.347	-200.000	0.017	-0.158
-478.332	-140.824	-0.093	0.010
-477.318	23.011	-0.186	0.154
-476.303	-91.768	-0.211	0.060
-475.289	-13.174	0.154	-0.101
-474.274	71.807	-0.170	-0.178
-473.259	38.257	0.206	0.185
-472.245	-46.590	-0.158	0.078
-471.230	60.201	0.301	0.300
-470.216	42.165	-0.198	0.181
-469.201	82.378	-0.170	-0.185
-468.186	9.916	0.090	0.069
-467.172	19.902	0.060	0.049
-466.157	-90.994	0.184	-0.053
-465.143	51.861	-0.126	-0.121
-464.128	196.715	0.246	-0.378
-463.113	572.825	-0.045	0.111
-462.099	660.564	-0.121	0.314
-461.084	-200.000	-0.038	0.187
-460.070	134.293	-0.211	-0.276
-459.055	-16.956	0.119	0.076
-458.040	-101.384	0.183	0.045
-457.026	-200.000	-0.060	-0.404
-456.011	417.003	-0.079	-0.170
-454.997	124.911	0.141	-0.179
-453.982	-147.298	-0.198	0.017
-452.968	-20.058	-0.236	-0.147
-451.953	278.167	0.217	0.389
-450.938	-200.000	-0.026	0.115
-449.924	800.000	-0.041	-0.137
-448.909	-200.000	-0.009	0.050
-447.895	-19.513	0.095	0.059
-446.880	800.000	0.130	0.369
-445.865	37.901	-0.084	0.075
-444.851	64.175	0.033	-0.033
-443.836	-30.125	0.234	0.134
-442.822	749.180	-0.071	0.193
-441.807	-90.308	-0.548	0.160
-440.792	237.616	-0.058	0.097
-439.778	35.301	-0.108	-0.096
-438.763	-200.000	-0.107	-0.532
-437.749	-173.419	-0.046	0.001
-436.734	301.581	0.152	0.284
-435.719	168.468	0.114	-0.163
-434.705	718.246	-0.087	-0.234
-433.690	390.179	-0.178	0.372
-432.676	100.661	-0.221	-0.258
-431.661	243.990	-0.041	-0.069
-430.646	-153.323	0.089	-0.006
-429.632	-121.339	0.177	0.030
-428.617	762.439	-0.074	0.202
-427.603	90.179	0.285	0.321
-426.588	-200.000	0.049	0.312
-425.573	-87.268	-0.198	-0.061
-424.559	800.000	-0.084	-0.261
-423.544	254.696	-0.068	0.117
-422.530	64.689	-0.377	-0.382
-421.515	143.710	-0.133	0.179
-420.500	-16.070	-0.101	-0.064
-419.486	24.926	0.114	0.095
-418.471	92.676	-0.069	0.078
-417.457	-39.721	-0.181	0.095
-416.442	163.334	-0.077	-0.109
-415.428	-80.941	0.121	-0.040
-414.413	235.461	0.087	-0.145
-413.398	-46.313	-0.052	-0.026
-412.384	268.994	0.089	-0.157
-411.369	42.284	0.203	-0.186
-410.355	-112.584	0.328	-0.066
-409.340	27.467	0.130	0.110
-408.325	-200.000	-0.021	-0.192
-407.311	200.491	0.185	-0.286
-406.296	605.476	0.012	0.031
-405.282	40.541	-0.253	-0.229
-404.267	-102.677	0.321	0.077
-403.252	-161.661	-0.051	-0.003
-402.238	-85.339	-0.270	-0.085
-401.223	-200.000	-0.046	0.242
-400.209	-200.000	-0.063	0.286
-399.194	-200.000	-0.006	0.111
-398.179	12.150	0.241	0.186
-397.165	6.271	0.229	0.171
-396.150	-200.000	-0.013	0.311
-395.136	-200.000	0.019	-0.157
-394.121	-24.071	0.230	0.138
-393.106	43.804	-0.109	-0.100
-392.092	576.141	-0.082	-0.201
-391.077	-200.000	0.019	-0.398
-390.063	603.113	0.154	-0.384
-389.048	286.733	0.112	0.204
-388.033	-200.000	-0.022	0.190
-387.019	-90.819	-0.126	0.037
-386.004	304.150	0.085	0.159
-384.990	-88.210	0.089	-0.027
-383.975	120.876	-0.333	-0.416
-382.960	455.007	0.138	-0.308
-381.946	72.858	-0.123	0.129
-380.931	-200.000	0.002	0.445
-379.917	188.605	-0.051	0.077
-378.902	-200.000	0.309	-0.001
-377.888	135.082	0.070	0.091
-376.873	-4.899	-0.073	-0.051
-375.858	81.679	-0.047	-0.051
-374.844	660.684	0.068	-0.177
-373.829	800.000	0.020	0.076
-372.815	574.961	0.134	0.328
-371.800	-117.469	-0.180	-0.033
-370.785	-200.000	-0.014	-0.087
-369.771	-154.984	-0.215	0.014
-368.756	-103.790	0.282	-0.066
-367.742	117.391	0.160	-0.197
-366.727	66.475	0.109	0.111
-365.712	688.991	0.128	0.337
-364.698	24.935	0.235	0.195
-363.683	-29.336	0.261	-0.150
-362.669	-12.284	-0.217	-0.143
-361.654	-200.000	-0.013	0.094
-360.639	208.495	0.135	-0.212
-359.625	-114.057	0.180	-0.035
-358.610	-134.151	0.096	-0.012
-357.596	109.514	0.061	0.073
-356.581	800.000	-0.094	-0.283
-355.566	450.039	0.070	-0.154
-354.552	800.000	0.050	-0.159
-353.537	53.370	-0.149	0.144
-352.523	-76.443	-0.300	-0.106
-351.508	-50.060	0.142	-0.067
-350.493	157.593	0.245	-0.340
-349.479	-67.483	0.210	0.083
-348.464	-200.000	-0.018	0.195
-347.450	494.143	0.160	0.369
-346.435	11.863	0.116	-0.090
-345.420	-61.397	0.044	-0.019
-344.406	-48.925	0.186	-0.090
-343.391	-200.000	0.024	0.135
-342.377	92.992	-0.111	0.125
-341.362	-16.061	0.386	-0.246
-340.348	-8.765	0.027	-0.018
-339.333	-98.618	-0.117	0.030
-338.318	-200.000	-0.009	-0.104
-337.304	800.000	0.052	0.192
-336.289	792.183	0.158	-0.435
-335.275	55.203	-0.296	-0.287
-334.260	451.948	0.069	0.152
-333.245	-127.828	-0.184	-0.027
-332.231	193.490	0.216	0.328
-331.216	-200.000	0.011	-0.157
-330.202	-116.271	0.259	-0.048
-329.187	15.448	0.198	0.156
-328.172	-200.000	-0.015	0.188
-327.158	339.675	-0.049	0.095
-326.143	-49.873	0.124	-0.059
-325.129	-40.410	-0.292	0.152
-324.114	-113.935	0.346	-0.067
-323.099	-91.344	-0.269	0.077
-322.085	-8.878	0.280	-0.188
-321.070	-200.000	0.052	-0.250
-320.056	-56.028	0.246	0.110
-319.041	-38.223	-0.211	-0.112
-318.026	336.863	-0.105	0.204
-317.012	-38.364	0.343	-0.182
-315.997	22.807	0.060	-0.049
-314.983	171.451	-0.078	0.112
-313.968	310.429	-0.136	-0.255
-312.953	800.000	-0.066	0.220
-311.939	-89.063	-0.128	0.038
-310.924	-102.863	-0.168	-0.040
-309.910	309.374	0.058	-0.109
-308.895	-200.000	0.020	-0.288
-307.880	-25.966	-0.240	-0.141
-306.866	16.890	0.042	-0.034
-305.851	144.812	0.142	0.190
-304.837	-183.252	-0.298	-0.005
-303.822	-52.505	0.121	-0.056
-302.807	66.685	0.193	-0.197
-301.793	265.206	-0.088	-0.153
-300.778	398.930	0.153	-0.321
-299.764	-170.657	0.096	-0.003
-298.749	30.792	0.318	-0.273
-297.735	82.266	-0.233	0.253
-296.720	-200.000	-0.035	0.379
-295.705	215.819	-0.068	0.109
-294.691	-200.000	-0.047	-0.343
-293.676	-200.000	0.002	0.205
-292.662	640.258	0.130	0.330
-291.647	53.287	0.167	-0.160
-290.632	-29.106	-0.256	0.147
-289.618	-31.116	-0.101	0.057
-288.603	415.951	0.047	-0.100
-287.589	-164.867	-0.256	-0.012
-286.574	-152.089	-0.162	0.012
-285.559	-133.593	0.299	0.037
-284.545	800.000	0.060	-0.235
-283.530	451.912	0.070	-0.155
-282.516	11.968	-0.044	-0.034
-281.501	-180.669	-0.228	-0.005
-280.486	-200.000	-0.009	0.062
-279.472	-200.000	-0.032	0.211
-278.457	-123.858	0.072	-0.011
-277.443	-200.000	-0.011	-0.056
-276.428	-200.000	-0.047	-0.235
-275.413	-57.075	0.139	-0.061
-274.399	800.000	0.016	0.067
-273.384	-200.000	-0.019	-0.172
-272.370	-103.096	0.439	0.104
-271.355	640.994	-0.133	-0.340
-270.340	-171.523	-0.158	-0.005
-269.326	150.947	0.178	0.243
-268.311	-75.793	0.286	-0.102
-267.297	190.323	-0.100	-0.150
-266.282	-109.836	-0.053	-0.011
-265.267	18.741	-0.037	0.029
-264.253	-6.343	0.099	0.067
-263.238	-200.000	-0.023	0.182
-262.224	14.751	-0.370	-0.290
-261.209	-8.086	-0.105	0.071
-260.195	-200.000	0.035	-0.242
-259.180	17.190	0.393	0.312
-258.165	407.438	-0.098	-0.207
-257.151	-99.770	0.702	-0.176
-256.136	31.966	-0.185	-0.159
-255.122	6.026	-0.324	0.240
-254.107	24.278	-0.026	-0.021
-253.092	39.328	0.234	0.210
-252.078	-99.412	-0.260	0.065
-251.063	-117.111	0.265	-0.048
-250.049	-16.490	-0.288	0.183
-249.034	-99.802	-0.181	0.045
-248.019	-98.365	-0.120	0.031
-247.005	332.896	-0.150	0.289
-245.990	-200.000	0.011	0.192
-244.976	9.352	-0.209	-0.158
-243.961	235.717	0.133	-0.220
-242.946	334.739	-0.084	0.163
-241.932	113.894	-0.208	0.252
-240.917	-37.205	-0.236	0.126
-239.903	453.386	0.100	0.220
-238.888	-12.437	-0.036	-0.024
-237.873	800.000	0.103	-0.406
-236.859	46.044	-0.159	0.147
-235.844	258.593	-0.068	0.116
-234.830	-19.316	0.023	-0.014
-233.815	-200.000	-0.022	-0.141
-232.800	294.050	-0.142	-0.259
-231.786	124.318	-0.078	-0.098
-230.771	-128.136	0.060	0.009
-229.757	471.549	-0.068	0.152
-228.742	-37.445	-0.441	0.235
-227.727	-200.000	-0.029	0.162
-226.713	-200.000	0.003	-0.146
-225.698	-6.774	-0.139	-0.094
-224.684	800.000	0.097	0.300
-223.669	800.000	-0.102	0.389
-222.655	285.938	-0.085	-0.152
-221.640	-75.274	0.254	-0.091
-220.625	67.230	-0.191	0.195
-219.611	218.943	-0.033	0.053
-218.596	293.623	-0.077	0.141
-217.582	123.743	0.303	0.379
-216.567	-67.456	0.173	0.068
-215.552	800.000	-0.067	-0.268
-214.538	173.520	0.163	0.235
-213.523	-200.000	-0.022	0.162
-212.509	-75.303	0.265	0.094
-211.494	132.437	0.098	0.126
-210.479	-16.666	0.159	-0.100
-209.465	105.100	-0.175	-0.206
-208.450	-59.777	0.197	0.084
-207.436	-130.345	-0.348	0.047
-206.421	177.082	-0.127	-0.185
-205.406	-22.355	-0.029	-0.018
-204.392	-60.102	-0.148	0.063
-203.377	-61.433	0.201	0.084
-202.363	-93.595	-0.382	-0.105
-201.348	91.832	0.077	-0.087
-200.333	-200.000	-0.007	0.213
-199.319	-79.008	-0.068	0.023
-198.304	-8.477	0.223	-0.150
-197.290	30.330	0.145	-0.124
-196.275	255.269	-0.093	-0.160
-195.260	264.355	-0.260	0.451
-194.246	-55.369	-0.272	-0.122
-193.231	-6.418	-0.145	0.099
-192.217	-72.775	-0.119	-0.044
-191.202	187.579	0.211	0.314
-190.187	554.291	0.029	-0.070
-189.173	-94.636	0.081	-0.022
-188.158	-117.475	-0.212	-0.038
-187.144	644.960	0.080	0.204
-186.129	800.000	-0.066	0.199
-185.114	-88.396	-0.263	0.078
-184.100	-200.000	0.044	-0.286
-183.085	-74.888	-0.206	-0.074
-182.071	216.094	-0.068	0.108
-181.056	617.199	0.008	-0.021
-180.042	-140.056	0.064	0.007
-179.027	800.000	0.091	-0.308
-178.012	-72.046	0.220	0.082
-176.998	-200.000	-0.001	0.170
-175.983	164.351	0.147	-0.207
-174.969	364.280	0.165	-0.330
-173.954	800.000	0.108	0.338
-172.939	651.195	-0.082	0.210
-171.925	-200.000	-0.022	0.258
-170.910	-200.000	-0.019	0.280
-169.896	-92.898	0.115	0.032
-168.881	-74.999	0.081	-0.029
-167.866	-155.747	-0.190	0.012
-166.852	-68.406	0.246	0.095
-165.837	800.000	0.023	0.069
-164.823	-71.726	-0.249	0.093
-163.808	-141.323	0.244	-0.025
-162.793	-128.393	0.100	0.014
-161.779	-45.680	-0.448	-0.221
-160.764	226.800	0.100	0.161
-159.750	-53.503	-0.453	-0.207
-158.735	-37.519	-0.068	-0.036
-157.720	-200.000	0.051	0.455
-156.706	-130.488	-0.362	-0.049
-155.691	-200.000	0.010	-0.061
-154.677	-200.000	0.050	-0.232
-153.662	800.000	0.078	-0.241
-152.647	40.587	0.173	0.155
-151.633	81.551	-0.147	0.159
-150.618	-95.652	0.312	-0.083
-149.604	1.523	0.134	-0.096
-148.589	6.899	0.362	-0.269
-147.574	306.103	0.040	-0.074
-146.560	166.472	0.234	0.330
-145.545	7.928	-0.111	-0.083
-144.531	458.309	0.068	0.151
-143.516	-166.976	-0.209	0.009
-142.502	32.227	0.110	-0.095
-141.487	-104.857	-0.259	0.059
-140.472	-69.672	0.133	-0.051
-139.458	-200.000	0.004	-0.273
-138.443	-2.590	0.237	0.165
-137.429	276.364	0.100	0.177
-136.414	-200.000	-0.009	-0.067
-135.399	-71.623	0.193	-0.072
-134.385	-9.789	-0.176	0.117
-133.370	-11.185	0.124	0.081
-132.356	-200.000	-0.028	0.237
-131.341	-179.308	-0.381	-0.008
-130.326	-97.628	-0.100	-0.026
-129.312	-200.000	0.004	-0.082
-128.297	1.786	0.246	0.177
-127.283	-200.000	0.002	-0.148
-126.268	800.000	0.057	-0.245
-125.253	-200.000	0.016	-0.115
-124.239	-34.402	0.119	0.065
-123.224	180.738	0.157	-0.230
-122.210	456.013	0.036	-0.080
-121.195	73.752	0.092	0.096
-120.180	-144.403	-0.327	-0.030
-119.166	-88.565	-0.420	0.125
-118.151	47.555	0.116	-0.108
-117.137	296.004	-0.064	-0.116
-116.122	800.000	-0.046	0.130
-115.107	-180.948	0.241	-0.005
-114.093	-200.000	0.044	0.258
-113.078	-119.521	0.346	0.060
-112.064	-124.286	-0.296	-0.046
-111.049	-165.577	-0.098	-0.004
-110.034	-152.071	0.168	0.012
-109.020	-178.373	0.285	-0.007
-108.005	-4.538	0.188	-0.129
-106.991	-42.811	-0.031	-0.016
-105.976	-157.833	-0.263	-0.015
-104.962	236.394	0.079	-0.130
-103.947	183.141	-0.162	0.238
-102.932	-46.667	-0.204	0.099
-101.918	800.000	0.091	-0.324
-100.903	-89.860	-0.226	0.066
-99.889	106.530	-0.226	0.266
-98.874	445.439	0.120	0.262
-97.859	165.920	0.216	-0.304
-96.845	-200.000	-0.003	-0.214
-95.830	273.837	-0.072	0.127
-94.816	-117.242	0.262	-0.047
-93.801	10.657	-0.054	-0.041
-92.786	800.000	-0.085	0.248
-91.772	120.853	0.182	0.224
-90.757	-151.945	-0.099	0.007
-89.743	-92.182	0.237	-0.067
-88.728	44.850	-0.340	-0.311
-87.713	-98.388	-0.246	-0.063
-86.699	-200.000	-0.007	0.296
-85.684	-139.572	-0.430	-0.046
-84.670	-200.000	-0.017	0.129
-83.655	130.562	0.077	0.098
-82.640	-82.423	-0.363	-0.117
-81.626	-122.377	-0.228	0.037
-80.611	648.099	-0.071	-0.181
-79.597	290.174	0.053	0.095
-78.582	84.006	0.145	0.157
-77.567	-126.803	0.160	-0.023
-76.553	-112.576	0.206	-0.041
-75.538	768.455	-0.069	0.187
-74.524	234.073	0.105	-0.172
-73.509	-200.000	-0.020	-0.201
-72.494	-134.418	0.143	-0.017
-71.480	-54.705	0.085	0.038
-70.465	228.950	0.088	-0.143
-69.451	93.484	0.199	-0.224
-68.436	79.574	0.126	0.134
-67.422	-41.570	0.125	-0.064
-66.407	410.432	0.114	0.240
-65.392	26.948	0.103	-0.085
-64.378	498.901	0.073	-0.166
-63.363	800.000	0.035	0.148
-62.349	461.081	-0.136	0.301
-61.334	67.890	-0.745	-0.756
-60.319	84.667	0.328	0.357
-59.305	-200.000	-0.151	-1.397
-58.290	384.409	0.471	0.962
-57.276	800.000	0.463	1.698
-56.261	-200.000	91.723	537.102
-55.246	505.884	1383.247	3180.335
-54.232	149.177	2595.682	3484.645
-53.217	112.720	2196.112	2638.355
-52.203	46.720	1645.916	1516.464
-51.188	38.831	1379.086	1221.694
-50.173	35.551	1335.974	1163.624
-49.159	55.487	1382.909	1327.823
-48.144	59.936	1400.947	1372.494
-47.130	39.261	1356.924	1204.508
-46.115	35.587	1339.117	1166.394
-45.100	35.325	1334.108	1160.401
-44.086	35.324	1331.892	1158.423
-43.071	35.341	1329.482	1156.384
-42.057	35.194	1327.586	1153.800
-41.042	35.309	1325.309	1152.467
-40.027	35.319	1324.098	1151.429
-39.013	35.383	1322.193	1150.110
-37.998	35.296	1320.335	1147.931
-36.984	35.409	1318.193	1146.695
-35.969	35.494	1316.407	1145.607
-34.954	35.448	1314.663	1143.770
-33.940	35.442	1313.576	1142.737
-32.925	35.574	1312.118	1142.210
-31.911	35.561	1310.313	1140.517
-30.896	35.587	1309.314	1139.759
-29.881	35.574	1307.784	1138.305
-28.867	35.691	1306.356	1137.708
-27.852	35.564	1304.738	1135.503
-26.838	35.553	1303.273	1134.114
-25.823	35.604	1301.756	1133.053
-24.809	35.576	1300.030	1131.343
-23.794	35.485	1299.373	1130.189
-22.779	35.572	1297.504	1129.032
-21.765	35.526	1296.384	1127.738
-20.750	35.409	1295.552	1126.283
-19.736	35.403	1293.856	1124.728
-18.721	35.307	1292.598	1123.032
-17.706	35.358	1291.266	1122.127
-16.692	35.365	1290.267	1121.252
-15.677	35.355	1289.311	1120.318
-14.663	35.340	1288.024	1119.071
-13.648	35.252	1286.802	1117.451
-12.633	35.249	1286.199	1116.866
-11.619	35.289	1284.940	1115.964
-10.604	35.350	1284.280	1115.699
-9.590	35.299	1283.412	1114.602
-8.575	35.279	1282.568	1113.708
-7.560	35.314	1281.756	1113.164
-6.546	35.363	1280.748	1112.530
-5.531	35.297	1279.528	1111.045
-4.517	35.339	1278.916	1110.710
-3.502	35.374	1277.894	1109.979
-2.487	35.419	1276.443	1108.938
-1.473	35.419	1272.921	1105.832
-0.458	34.477	1258.664	1088.032
0.556	31.160	1240.490	1051.048
1.571	27.606	1245.350	1034.939
2.586	26.898	1260.146	1043.075
3.600	25.651	1248.493	1026.230
4.615	18.267	1171.718	923.352
5.629	7.082	1090.954	803.147
6.644	2.207	1068.936	762.584
7.659	1.819	1066.372	758.755
8.673	1.611	1065.302	756.892
9.688	1.495	1063.819	755.198
10.702	1.795	1062.679	755.806
11.717	8.299	1072.336	795.088
12.731	19.145	1087.960	861.133
13.746	24.390	1094.132	892.249
14.761	25.043	1094.770	895.958
15.775	24.997	1094.334	895.291
16.790	24.821	1093.275	893.465
17.804	24.852	1092.588	892.980
18.819	24.856	1092.598	892.931
19.834	25.004	1091.638	892.805
20.848	24.962	1091.459	892.368
21.863	24.999	1091.015	892.111
22.877	25.004	1090.180	891.374
23.892	24.954	1089.782	890.720
24.907	25.042	1088.910	890.368
25.921	25.064	1087.581	889.313
26.936	25.008	1086.431	888.016
27.950	24.977	1084.787	886.439
28.965	24.793	1082.975	883.968
29.980	24.775	1081.619	882.694
30.994	25.065	1080.916	883.475
32.009	25.045	1079.684	882.293
33.023	24.927	1078.168	880.393
34.038	24.910	1077.722	879.867
35.053	24.964	1077.172	879.608
36.067	24.939	1076.374	878.754
37.082	25.083	1075.545	878.708
38.096	25.286	1074.643	878.887
39.111	25.370	1073.889	878.601
40.126	25.128	1072.694	876.363
41.140	24.805	1070.835	873.193
42.155	24.576	1069.498	870.908
43.169	24.752	1067.882	870.372
44.184	24.601	1067.705	869.417
45.199	24.546	1066.842	868.370
46.213	24.668	1065.549	867.829
47.228	24.780	1065.057	867.898
48.242	24.845	1064.464	867.655
49.257	24.922	1063.548	867.204
50.271	25.021	1062.665	866.883
51.286	25.156	1061.713	866.685
52.301	25.081	1060.786	865.486
53.315	24.955	1059.963	864.133
54.330	24.946	1058.939	863.178
55.344	25.109	1058.199	863.282
56.359	24.949	1057.329	861.725
57.374	24.756	1056.459	860.012
58.388	24.748	1056.062	859.575
59.403	24.667	1054.716	858.018
60.417	24.588	1054.335	857.249
61.432	24.642	1053.520	856.772
62.447	24.729	1052.913	856.619
63.461	24.684	1052.331	855.853
64.476	24.687	1051.223	854.890
65.490	24.653	1049.661	853.383
66.505	24.673	1049.429	853.214
67.520	24.711	1048.777	852.790
68.534	24.455	1047.712	850.630
69.549	24.225	1046.245	848.267
70.563	24.276	1045.443	847.787
71.578	24.214	1044.903	846.977
72.593	24.012	1043.824	845.069
73.607	24.226	1043.400	845.666
74.622	24.452	1043.541	846.780
75.636	24.577	1042.286	846.279
76.651	24.475	1041.197	844.835
77.666	24.289	1040.581	843.380
78.680	24.425	1039.784	843.301
79.695	24.439	1039.650	843.186
80.709	24.546	1038.875	842.989
81.724	24.573	1037.790	842.163
82.739	24.629	1037.224	841.892
83.753	24.909	1036.527	842.569
84.768	25.358	1035.665	843.906
85.782	25.508	1034.811	843.838
86.797	25.288	1033.962	842.039
87.812	25.092	1032.967	840.234
88.826	25.095	1032.250	839.593
89.841	25.094	1031.685	839.054
90.855	25.226	1030.353	838.514
91.870	25.153	1029.435	837.349
92.884	25.076	1028.404	836.079
93.899	25.075	1027.292	835.096
94.914	25.292	1026.405	835.310
95.928	25.131	1025.449	833.711
96.943	24.826	1024.234	831.232
97.957	24.625	1023.199	829.385
98.972	24.425	1022.111	827.502
99.987	24.620	1021.848	828.120
101.001	24.952	1020.818	828.750
102.016	24.993	1019.711	827.969
103.030	24.884	1018.766	826.625
104.045	24.760	1017.661	825.081
105.060	24.676	1016.517	823.693
106.074	24.702	1016.380	823.628
107.089	25.112	1015.306	824.574
108.103	24.980	1014.547	823.278
109.118	24.772	1013.407	821.324
110.133	24.776	1012.286	820.360
111.147	24.563	1010.956	818.235
112.162	24.421	1010.125	816.838
113.176	24.716	1009.453	817.573
114.191	24.465	1009.291	816.222
115.206	24.191	1007.999	813.856
116.220	24.162	1007.398	813.166
117.235	24.358	1006.508	813.270
118.249	24.372	1005.342	812.319
119.264	24.239	1004.646	811.078
120.279	24.431	1004.092	811.430
121.293	24.430	1002.847	810.350
122.308	24.436	1002.473	810.003
123.322	24.300	1001.019	808.142
124.337	24.054	1000.075	806.191
125.352	23.708	997.989	802.877
126.366	23.630	997.392	801.970
127.381	24.369	997.599	805.406
128.395	24.933	997.035	807.422
129.410	24.971	995.931	806.628
130.424	24.958	994.979	805.726
131.439	24.813	994.463	804.587
132.454	24.872	993.605	804.088
133.468	24.727	992.718	802.646
134.483	25.117	991.566	803.392
135.497	25.089	991.448	803.099
136.512	25.267	990.282	802.883
137.527	25.127	989.812	801.801
138.541	25.208	989.147	801.554
139.556	25.161	987.746	800.141
140.570	25.382	987.438	800.803
141.585	25.290	986.423	799.502
142.600	25.184	985.562	798.259
143.614	25.454	984.382	798.432
144.629	25.539	983.367	797.919
145.643	25.367	982.240	796.169
146.658	25.148	981.294	794.361
147.673	25.084	980.127	793.063
148.687	25.050	979.116	792.026
149.702	24.968	978.029	790.714
150.716	25.016	976.960	789.994
151.731	24.906	976.643	789.179
152.746	25.278	976.214	790.405
153.760	25.310	975.558	789.943
154.775	25.329	975.096	789.582
155.789	25.439	973.807	788.952
156.804	25.394	972.680	787.770
157.819	25.439	972.263	787.563
158.833	25.458	971.718	787.133
159.848	25.532	970.631	786.506
160.862	25.358	969.319	784.615
161.877	25.421	967.828	783.614
162.892	25.303	967.216	782.535
163.906	25.167	966.166	781.023
164.921	25.216	965.467	780.603
165.935	25.307	964.659	780.274
166.950	25.359	963.723	779.674
167.964	25.223	963.170	778.568
168.979	25.117	961.703	776.855
169.994	25.134	960.546	775.924
171.008	25.337	960.707	776.863
172.023	25.342	959.715	776.014
173.037	25.276	958.021	774.289
174.052	25.041	957.545	772.824
175.067	25.030	956.848	772.147
176.081	25.171	956.359	772.290
177.096	25.135	955.871	771.674
178.110	24.815	954.673	769.264
179.125	24.698	953.518	767.760
180.140	24.792	953.497	768.079
181.154	24.843	953.593	768.307
182.169	25.272	953.177	769.747
183.183	25.398	952.398	769.590
184.198	25.300	951.736	768.566
185.213	25.203	950.881	767.393
186.227	25.269	950.303	767.140
187.242	25.394	949.536	766.988
188.256	25.396	948.836	766.362
189.271	25.398	947.999	765.628
190.286	25.103	946.884	763.404
191.300	24.449	945.653	759.560
192.315	23.638	943.782	754.543
193.329	23.584	943.523	754.040
194.344	24.640	943.845	758.720
195.359	25.205	943.637	760.882
196.373	25.187	943.665	760.760
197.388	25.107	942.781	759.639
198.402	25.192	942.128	759.406
199.417	25.274	941.212	758.949
200.432	25.033	940.553	757.332
201.446	24.758	939.756	755.463
202.461	24.945	938.921	755.514
203.475	24.035	937.443	750.421
204.490	23.234	935.773	745.646
205.504	24.213	936.144	749.996
206.519	24.827	936.149	752.517
207.534	24.740	936.193	752.123
208.548	25.230	935.728	753.741
209.563	24.966	934.785	751.809
210.577	24.835	934.283	750.786
211.592	25.462	933.855	753.005
212.607	25.450	932.693	751.952
213.621	25.368	932.494	751.379
214.636	25.421	931.287	750.564
215.650	25.338	930.615	749.607
216.665	25.434	930.178	749.593
217.680	25.366	929.525	748.716
218.694	25.078	928.152	746.342
219.709	24.834	927.371	744.635
220.723	25.208	927.233	746.014
221.738	25.220	926.363	745.299
222.753	25.161	925.956	744.658
223.767	25.367	925.422	745.018
224.782	25.592	925.134	745.655
225.796	25.586	924.487	745.040
226.811	24.758	923.177	740.491
227.826	24.235	921.653	737.042
228.840	24.341	921.491	737.289
229.855	24.442	920.609	736.931
230.869	24.151	919.388	734.691
231.884	24.566	919.574	736.485
232.899	25.205	919.609	739.082
233.913	25.055	919.110	737.998
234.928	25.034	918.896	737.673
235.942	24.995	918.068	736.784
236.957	24.807	917.055	735.133
237.972	24.817	916.171	734.399
238.986	25.015	915.672	734.746
240.001	25.009	915.194	734.274
241.015	25.025	915.027	734.141
242.030	25.179	914.618	734.378
243.045	25.236	914.012	734.059
244.059	25.314	913.584	733.970
245.074	25.160	912.522	732.424
246.088	24.938	911.609	730.719
247.103	25.267	911.295	731.745
248.117	25.601	911.492	733.201
249.132	25.893	911.018	733.943
250.147	25.999	910.605	733.978
251.161	26.204	909.606	733.942
252.176	26.131	909.137	733.200
253.190	26.044	909.276	732.892
254.205	26.148	908.541	732.657
255.220	26.151	907.702	731.929
256.234	25.985	906.981	730.610
257.249	26.143	905.771	730.210
258.263	25.999	905.249	729.144
259.278	26.129	905.002	729.406
260.293	26.112	904.321	728.724
261.307	25.978	903.874	727.756
262.322	25.798	902.905	726.189
263.336	25.156	900.865	721.899
264.351	24.231	898.667	716.358
265.366	24.251	898.827	716.503
266.380	25.441	899.411	721.688
267.395	25.892	898.795	722.939
268.409	25.642	898.309	721.482
269.424	25.842	897.891	721.884
270.439	25.789	897.533	721.321
271.453	25.856	897.058	721.143
272.468	26.170	896.477	721.867
273.482	26.230	895.931	721.605
274.497	25.811	894.621	718.811
275.512	25.401	893.781	716.438
276.526	25.774	894.242	718.234
277.541	26.042	893.576	718.702
278.555	25.872	892.129	716.798
279.570	25.715	891.752	715.807
280.585	25.787	891.495	715.826
281.599	25.807	890.341	714.914
282.614	25.238	889.065	711.570
283.628	25.124	888.869	710.898
284.643	25.472	888.540	711.950
285.657	25.076	887.156	709.214
286.672	24.842	886.328	707.562
287.687	25.394	886.910	710.147
288.701	25.517	885.958	709.810
289.716	25.118	885.217	707.579
290.730	25.077	884.338	706.654
291.745	25.074	883.104	705.590
292.760	25.170	883.354	706.108
293.774	26.114	883.807	710.122
294.789	26.464	883.612	711.278
295.803	26.479	882.739	710.573
296.818	26.543	882.053	710.210
297.833	26.012	881.152	707.340
298.847	25.904	880.374	706.228
299.862	26.223	880.462	707.488
300.876	26.469	879.929	707.957
301.891	26.415	879.130	707.042
302.906	25.930	878.355	704.462
303.920	26.071	878.007	704.669
304.935	26.430	877.777	705.824
305.949	26.446	877.122	705.298
306.964	26.186	876.160	703.449
307.979	26.221	875.894	703.311
308.993	26.616	875.677	704.610
310.008	26.523	874.944	703.595
311.022	26.219	874.247	701.792
312.037	26.177	873.359	700.855
313.052	25.949	872.446	699.174
314.066	24.993	870.956	694.215
315.081	24.596	870.500	692.253
316.095	25.414	870.852	695.641
317.110	26.123	870.345	697.917
318.125	25.101	868.982	692.817
319.139	24.164	867.157	687.684
320.154	24.195	866.694	687.378
321.168	25.078	867.588	691.432
322.183	25.852	867.784	694.510
323.197	25.814	867.456	694.043
324.212	26.079	866.864	694.527
325.227	26.119	866.401	694.247
326.241	26.092	865.893	693.677
327.256	26.089	864.861	692.777
328.270	25.904	864.322	691.573
329.285	25.737	863.126	689.916
330.300	25.603	862.667	688.975
331.314	25.706	862.555	689.218
332.329	26.066	862.378	690.395
333.343	26.276	861.999	690.834
334.358	26.212	861.496	690.122
335.373	26.484	861.250	690.903
336.387	26.591	861.184	691.196
337.402	26.735	860.999	691.540
338.416	26.615	860.483	690.606
339.431	26.702	860.414	690.822
340.446	27.067	859.343	691.290
341.460	26.726	859.647	690.172
342.475	26.546	858.872	688.804
343.489	26.731	858.568	689.204
344.504	27.083	857.957	689.990
345.519	27.231	857.715	690.296
346.533	27.128	857.271	689.488
347.548	27.095	856.881	688.989
348.562	27.090	856.252	688.400
349.577	27.012	855.294	687.274
350.592	27.050	854.988	687.112
351.606	27.025	854.007	686.169
352.621	26.892	853.296	685.035
353.635	26.745	852.602	683.862
354.650	26.173	850.815	680.213
355.665	25.230	849.267	675.369
356.679	25.742	849.401	677.341
357.694	26.159	848.897	678.448
358.708	26.010	848.169	677.247
359.723	26.327	848.388	678.553
360.738	26.721	847.526	679.279
361.752	26.826	847.134	679.301
362.767	27.122	847.334	680.509
363.781	27.460	846.816	681.296
364.796	27.391	846.262	680.532
365.810	27.469	846.072	680.611
366.825	27.550	845.490	680.385
367.840	27.137	844.918	678.323
368.854	26.677	844.022	675.828
369.869	26.744	843.541	675.633
370.883	26.875	843.000	675.629
371.898	26.676	842.654	674.550
372.913	26.790	842.495	674.786
373.927	26.970	841.675	674.741
374.942	27.289	841.203	675.485
375.956	27.159	841.128	674.885
376.971	27.324	840.406	674.858
377.986	27.316	840.444	674.797
379.000	27.587	839.597	675.061
380.015	27.246	838.974	673.241
381.029	27.375	838.357	673.163
382.044	27.398	838.163	673.033
383.059	27.474	837.185	672.466
384.073	27.491	836.746	672.116
385.088	27.384	836.234	671.253
386.102	27.083	835.503	669.496
387.117	27.166	834.747	669.139
388.132	26.792	833.453	666.667
389.146	26.325	832.740	664.323
390.161	26.703	832.664	665.592
391.175	27.201	832.647	667.346
392.190	26.892	831.203	664.996
393.205	25.381	829.530	658.069
394.219	23.920	827.618	651.148
395.234	23.874	827.225	650.615
396.248	25.532	828.709	657.798
397.263	26.969	829.703	663.787
398.278	26.896	828.932	662.843
399.292	26.851	828.138	661.985
400.307	26.727	827.901	661.285
401.321	26.809	827.628	661.307
402.336	27.158	827.573	662.477
403.350	27.547	827.581	663.843
404.365	27.971	827.522	665.279
405.380	27.981	827.413	665.172
406.394	28.167	826.307	664.899
407.409	28.156	825.835	664.422
408.423	27.997	825.652	663.638
409.438	28.098	825.318	663.675
410.453	28.167	824.707	663.378
411.467	28.081	823.794	662.272
412.482	28.254	823.407	662.529
413.496	28.251	823.805	662.779
414.511	28.156	823.157	661.855
415.526	27.989	822.595	660.739
416.540	28.081	821.642	660.249
417.555	27.770	820.922	658.492
418.569	27.935	820.535	658.717
419.584	27.805	820.232	657.945
420.599	27.557	819.404	656.331
421.613	104.425	1281.906	1436.626
422.628	90.303	1349.298	1436.741
