DTS Sentinel unit serial number:	SN413079Multiplexer serial number:	ORYXHardware model number:	OX4-SRSoftware version number:	ORYX F/W v4.00 Oryx Data Collector v3.7.2.0data status	okinstallation	princeton_trtdifferential loss correction	single-endedforward channel	channel 1reverse channel	N/Adate	2019/09/18time	06:46:35forward acquisition time	60.00reverse acquisition time	0.00gamma	496.2192k internal	0.2339k external	0.2339temperature offset calibration	0.9981default loss term (dB/km)	0.3790temperature slope calibration	1.0000multiplexer offset coefficient	1.0000multiplexer slope coefficient	1.0000fibre end	0.00T internal ref (°C)	23.25T ext. ref 1 (°C)	0.19T ext. ref 2 (°C)	16.98length (m)	temperature (°C)	Stokes	anti-Stokes-747.200	800.000	0.056	0.208
-746.185	-200.000	0.034	0.407
-745.171	217.386	-0.218	0.348
-744.156	-62.644	-0.373	0.155
-743.142	-24.405	-0.188	-0.112
-742.127	232.444	-0.239	0.393
-741.112	-200.000	0.026	-0.190
-740.098	-100.189	-0.265	-0.066
-739.083	-102.130	-0.272	0.066
-738.069	-200.000	0.009	0.167
-737.054	102.310	0.126	-0.148
-736.039	-128.181	-0.298	-0.043
-735.025	-140.849	-0.052	0.005
-734.010	-38.688	-0.076	-0.040
-732.996	-66.646	0.221	0.088
-731.981	16.202	-0.253	-0.200
-730.966	83.992	0.089	-0.097
-729.952	-2.987	-0.100	-0.070
-728.937	-200.000	-0.084	-0.392
-727.923	620.422	-0.045	0.113
-726.908	-92.795	-0.240	0.067
-725.894	-81.448	-0.091	0.030
-724.879	-80.230	-0.090	0.030
-723.864	-200.000	-0.016	-0.559
-722.850	-200.000	-0.002	0.037
-721.835	14.356	-0.322	-0.251
-720.821	-92.339	-0.232	-0.065
-719.806	20.699	-0.079	0.064
-718.791	94.174	-0.109	-0.124
-717.777	-68.522	0.050	0.019
-716.762	-48.202	-0.026	-0.013
-715.748	-200.000	0.119	-0.633
-714.733	20.802	0.084	0.068
-713.718	800.000	0.076	-0.308
-712.704	-93.848	-0.141	0.039
-711.689	282.752	-0.109	-0.196
-710.675	800.000	0.056	-0.182
-709.660	-132.826	0.268	-0.034
-708.645	-84.457	-0.125	-0.040
-707.631	0.167	-0.118	0.084
-706.616	-34.846	0.150	0.082
-705.602	-200.000	0.073	-0.352
-704.587	800.000	0.038	0.147
-703.572	-73.546	-0.214	0.078
-702.558	800.000	0.034	-0.097
-701.543	800.000	-0.021	-0.075
-700.529	800.000	-0.153	-0.487
-699.514	-95.986	0.183	0.049
-698.499	275.810	0.095	-0.168
-697.485	36.392	-0.175	-0.154
-696.470	800.000	-0.084	-0.330
-695.456	242.304	0.077	0.129
-694.441	-13.305	0.230	-0.149
-693.426	-192.079	0.111	0.001
-692.412	-150.064	0.320	-0.025
-691.397	-18.533	0.241	0.150
-690.383	-121.478	-0.194	-0.032
-689.368	140.945	-0.136	0.180
-688.354	60.116	-0.148	-0.146
-687.339	-200.000	0.063	0.483
-686.324	385.761	0.070	-0.144
-685.310	147.255	-0.127	0.171
-684.295	135.634	-0.070	-0.091
-683.281	800.000	-0.044	0.139
-682.266	-129.229	0.166	0.023
-681.251	-45.496	-0.264	0.131
-680.237	-100.750	-0.297	0.073
-679.222	63.361	-0.141	-0.142
-678.208	233.793	0.187	-0.308
-677.193	-111.294	0.647	0.132
-676.178	-96.617	-0.269	0.071
-675.164	136.790	0.133	0.174
-674.149	245.196	0.019	-0.032
-673.135	-111.691	0.214	0.043
-672.120	-20.113	0.098	-0.060
-671.105	100.596	0.342	0.397
-670.091	800.000	-0.019	0.078
-669.076	-59.005	0.280	-0.121
-668.062	420.213	0.070	-0.151
-667.047	-200.000	0.028	0.238
-666.032	-122.181	-0.243	0.040
-665.018	31.498	-0.171	0.147
-664.003	91.861	0.188	0.211
-662.989	-16.159	0.074	0.047
-661.974	80.044	-0.046	-0.050
-660.959	-200.000	-0.013	0.153
-659.945	-199.143	-0.247	-0.001
-658.930	-200.000	0.056	0.307
-657.916	-11.200	0.352	0.232
-656.901	800.000	-0.071	-0.243
-655.886	800.000	-0.020	0.067
-654.872	20.603	-0.140	0.113
-653.857	-29.742	-0.164	0.093
-652.843	57.543	0.147	-0.144
-651.828	-200.000	0.008	-0.131
-650.814	-106.525	0.119	0.027
-649.799	-125.376	-0.184	-0.028
-648.784	-169.865	-0.378	0.014
-647.770	800.000	-0.051	-0.143
-646.755	336.121	-0.086	0.167
-645.741	-112.548	-0.084	0.017
-644.726	-200.000	-0.010	0.105
-643.711	-57.223	0.091	-0.040
-642.697	64.330	-0.283	0.285
-641.682	-105.183	-0.398	-0.091
-640.668	-99.170	-0.112	0.028
-639.653	33.856	0.078	-0.068
-638.638	192.784	0.140	-0.211
-637.624	-122.374	-0.182	0.030
-636.609	-84.481	0.063	-0.020
-635.595	51.054	0.169	-0.160
-634.580	-45.198	0.300	-0.149
-633.565	698.260	0.046	-0.122
-632.551	217.483	0.019	0.030
-631.536	-200.000	0.021	-0.193
-630.522	800.000	-0.044	0.154
-629.507	-31.866	-0.295	-0.165
-628.492	485.220	0.102	0.232
-627.478	800.000	0.029	-0.102
-626.463	159.720	-0.145	-0.202
-625.449	-120.471	-0.372	-0.063
-624.434	95.195	0.234	0.266
-623.419	-36.922	-0.239	0.128
-622.405	-200.000	0.016	-0.164
-621.390	-84.919	0.197	0.062
-620.376	-35.430	-0.161	-0.087
-619.361	-12.274	-0.302	-0.197
-618.346	609.443	-0.155	-0.387
-617.332	21.724	-0.223	-0.181
-616.317	-200.000	0.011	0.200
-615.303	-200.000	-0.025	0.244
-614.288	800.000	-0.086	0.324
-613.273	-200.000	0.016	0.092
-612.259	-134.881	0.210	-0.025
-611.244	-77.858	0.298	0.103
-610.230	223.405	0.132	-0.213
-609.215	103.999	0.071	0.083
-608.201	-200.000	0.022	0.297
-607.186	-200.000	-0.026	0.171
-606.171	-103.461	-0.243	0.057
-605.157	-29.591	-0.357	0.204
-604.142	423.277	0.086	-0.183
-603.128	-80.940	0.245	-0.081
-602.113	-93.818	0.302	-0.083
-601.098	-151.159	-0.346	0.026
-600.084	-109.195	0.213	0.045
-599.069	-200.000	-0.043	0.223
-598.055	800.000	-0.029	0.102
-597.040	124.837	0.384	-0.482
-596.025	118.397	-0.106	-0.131
-595.011	-152.925	0.168	-0.012
-593.996	430.340	-0.088	-0.189
-592.982	178.075	-0.155	-0.226
-591.967	-78.439	0.278	0.095
-590.952	14.452	0.052	0.041
-589.938	-53.794	0.121	-0.055
-588.923	-10.864	-0.120	-0.079
-587.909	-21.802	0.081	-0.049
-586.894	-173.110	-0.072	-0.002
-585.879	-200.000	-0.001	-0.018
-584.865	-0.943	-0.243	-0.171
-583.850	-75.709	0.392	-0.139
-582.836	-127.163	0.318	-0.046
-581.821	-200.000	0.040	-0.317
-580.806	103.158	-0.053	-0.062
-579.792	-31.924	-0.365	-0.204
-578.777	47.532	-0.123	0.114
-577.763	275.892	0.116	-0.206
-576.748	-28.235	0.027	0.016
-575.733	52.872	-0.198	-0.189
-574.719	-8.317	0.412	-0.276
-573.704	241.900	-0.166	-0.277
-572.690	-103.820	-0.232	0.054
-571.675	-158.710	0.345	-0.020
-570.661	-200.000	0.016	0.283
-569.646	-67.215	0.043	0.017
-568.631	-200.000	0.062	-0.281
-567.617	-200.000	-0.028	-0.147
-566.602	-200.000	-0.013	0.069
-565.588	764.968	0.045	-0.121
-564.573	-8.905	0.144	0.096
-563.558	151.519	0.069	-0.093
-562.544	800.000	-0.099	0.343
-561.529	401.617	-0.091	-0.191
-560.515	-106.861	0.181	0.040
-559.500	113.582	-0.107	-0.130
-558.485	566.785	-0.105	0.253
-557.471	-200.000	-0.015	0.260
-556.456	-95.788	-0.302	-0.080
-555.442	273.568	0.129	0.228
-554.427	-200.000	0.087	0.415
-553.412	-200.000	-0.044	-0.406
-552.398	800.000	-0.066	0.253
-551.383	-200.000	-0.054	-0.259
-550.369	-129.008	0.126	-0.018
-549.354	484.705	-0.153	-0.347
-548.339	29.486	0.162	-0.137
-547.325	39.007	-0.202	-0.179
-546.310	-83.393	-0.169	-0.054
-545.296	-119.590	-0.081	0.014
-544.281	72.239	0.223	0.232
-543.266	-50.060	-0.347	-0.164
-542.252	38.847	0.108	0.096
-541.237	93.959	0.120	0.136
-540.223	800.000	-0.098	-0.296
-539.208	-16.670	0.222	0.140
-538.193	83.965	-0.078	-0.085
-537.179	-200.000	0.037	-0.307
-536.164	800.000	-0.085	-0.237
-535.150	-38.472	0.180	0.095
-534.135	-200.000	-0.001	0.111
-533.121	-200.000	0.015	0.492
-532.106	72.003	-0.095	0.099
-531.091	-131.191	-0.172	0.023
-530.077	118.604	0.111	-0.136
-529.062	-200.000	0.007	-0.160
-528.048	800.000	0.089	-0.252
-527.033	-131.153	0.431	0.057
-526.018	45.327	0.198	0.182
-525.004	-200.000	0.022	0.453
-523.989	-200.000	0.055	0.403
-522.975	189.969	0.195	-0.291
-521.960	129.521	0.177	-0.225
-520.945	-73.527	0.222	0.080
-519.931	87.927	-0.110	0.121
-518.916	-200.000	-0.031	0.339
-517.902	-80.073	0.269	0.090
-516.887	-200.000	0.038	-0.264
-515.872	3.120	-0.119	-0.086
-514.858	-83.996	0.142	-0.045
-513.843	113.856	-0.119	0.143
-512.829	800.000	0.056	-0.189
-511.814	38.857	0.187	-0.166
-510.799	-75.279	0.298	0.106
-509.785	50.705	-0.169	0.159
-508.770	131.660	-0.081	-0.104
-507.756	-200.000	-0.047	-0.217
-506.741	-200.000	0.043	0.348
-505.726	-73.865	-0.244	-0.088
-504.712	228.343	0.069	-0.112
-503.697	-200.000	-0.065	-0.439
-502.683	86.018	-0.161	-0.176
-501.668	112.613	0.122	-0.147
-500.653	25.969	-0.107	0.089
-499.639	142.518	-0.080	-0.105
-498.624	217.367	-0.090	0.142
-497.610	-200.000	-0.006	-0.044
-496.595	-104.500	0.335	0.077
-495.581	51.480	-0.276	-0.261
-494.566	114.535	-0.135	-0.164
-493.551	104.792	-0.006	0.007
-492.537	192.527	-0.147	-0.221
-491.522	421.352	-0.106	-0.226
-490.508	-200.000	-0.076	-0.399
-489.493	800.000	-0.088	-0.348
-488.478	410.826	0.151	-0.317
-487.464	-13.269	-0.140	-0.090
-486.449	110.849	0.143	0.170
-485.435	87.921	0.035	-0.038
-484.420	599.663	0.127	0.313
-483.405	-63.582	0.428	0.174
-482.391	-8.466	0.222	0.148
-481.376	-200.000	0.004	0.077
-480.362	-200.000	0.001	0.080
-479.347	-43.883	0.173	-0.087
-478.332	363.186	0.037	-0.073
-477.318	-58.171	0.129	-0.056
-476.303	-175.423	0.202	-0.005
-475.289	17.900	0.148	-0.117
-474.274	39.577	-0.147	0.131
-473.259	-32.770	0.124	-0.068
-472.245	110.158	-0.134	0.159
-471.230	-200.000	-0.021	0.100
-470.216	57.047	-0.191	-0.185
-469.201	-94.640	-0.163	-0.044
-468.186	-200.000	-0.033	0.253
-467.172	195.105	-0.288	-0.434
-466.157	800.000	-0.011	-0.045
-465.143	-138.129	-0.101	0.011
-464.128	-25.393	-0.160	0.094
-463.113	71.351	-0.124	0.127
-462.099	-116.744	-0.238	0.043
-461.084	747.461	0.031	0.083
-460.070	-200.000	-0.006	0.047
-459.055	11.369	-0.110	-0.084
-458.040	160.378	0.142	-0.197
-457.026	149.903	-0.051	0.069
-456.011	-200.000	0.038	0.209
-454.997	360.672	0.027	0.053
-453.982	10.672	-0.109	0.082
-452.968	162.807	0.138	-0.192
-451.953	-200.000	0.038	0.194
-450.938	115.072	-0.230	0.279
-449.924	800.000	-0.037	0.141
-448.909	-193.850	-0.109	0.001
-447.895	656.684	0.106	0.270
-446.880	603.390	0.116	0.287
-445.865	800.000	-0.061	0.198
-444.851	-149.214	0.276	0.022
-443.836	800.000	0.058	0.243
-442.822	-136.311	0.014	-0.002
-441.807	-200.000	-0.007	0.036
-440.792	-200.000	0.096	0.594
-439.778	-146.508	-0.114	0.010
-438.763	34.171	-0.217	0.187
-437.749	-164.364	0.150	-0.007
-436.734	-200.000	0.017	-0.192
-435.719	13.099	0.158	0.121
-434.705	-149.246	-0.428	0.034
-433.690	85.902	0.150	-0.163
-432.676	-60.581	-0.189	-0.079
-431.661	79.742	0.153	-0.162
-430.646	-200.000	0.029	-0.308
-429.632	57.992	0.069	0.067
-428.617	61.807	0.082	-0.081
-427.603	57.919	-0.120	0.116
-426.588	-200.000	0.009	0.057
-425.573	26.163	-0.182	0.150
-424.559	-146.002	-0.248	0.022
-423.544	-166.769	0.195	-0.008
-422.530	-8.302	0.061	0.041
-421.515	-40.880	-0.257	-0.132
-420.500	800.000	-0.030	-0.095
-419.486	23.792	0.102	0.083
-418.471	-127.355	-0.090	0.013
-417.457	-41.093	-0.379	0.194
-416.442	71.954	0.152	0.157
-415.428	-26.369	0.299	-0.174
-414.413	-200.000	0.041	0.235
-413.398	-200.000	0.008	-0.038
-412.384	-125.890	0.095	0.014
-411.369	15.057	0.225	0.174
-410.355	-45.333	0.229	0.112
-409.340	-81.978	-0.022	0.007
-408.325	-115.906	-0.158	0.029
-407.311	273.453	-0.094	-0.164
-406.296	-117.886	-0.153	0.027
-405.282	-43.152	0.233	0.117
-404.267	297.565	-0.101	-0.183
-403.252	-200.000	-0.095	-0.433
-402.238	388.411	-0.077	0.157
-401.223	356.586	-0.092	0.181
-400.209	551.893	0.041	-0.098
-399.194	-116.898	0.112	0.020
-398.179	800.000	0.073	0.306
-397.165	-131.825	0.311	-0.040
-396.150	-30.171	0.109	0.062
-395.136	-200.000	-0.008	0.050
-394.121	159.425	-0.073	0.101
-393.106	-63.768	0.152	0.062
-392.092	115.285	0.157	-0.189
-391.077	-200.000	-0.026	-0.172
-390.063	-151.531	-0.503	-0.037
-389.048	-32.481	0.157	0.086
-388.033	-121.923	-0.338	0.055
-387.019	-200.000	-0.009	0.216
-386.004	800.000	0.075	0.217
-384.990	-10.453	-0.139	0.091
-383.975	-113.504	0.300	0.058
-382.960	-83.598	-0.368	0.116
-381.946	329.045	0.160	0.305
-380.931	99.759	0.109	0.124
-379.917	26.463	0.058	-0.048
-378.902	-44.284	-0.367	-0.182
-377.888	65.430	-0.179	0.179
-376.873	800.000	0.109	0.336
-375.858	-200.000	0.000	-0.300
-374.844	11.354	-0.268	-0.203
-373.829	431.583	0.047	0.100
-372.815	-123.798	0.142	0.022
-371.800	203.685	-0.132	-0.202
-370.785	-200.000	0.003	0.118
-369.771	-4.792	-0.290	0.198
-368.756	-35.591	-0.028	0.015
-367.742	81.332	0.194	-0.207
-366.727	305.632	-0.106	-0.194
-365.712	-51.906	-0.084	-0.039
-364.698	-150.758	0.267	-0.020
-363.683	81.172	-0.144	-0.154
-362.669	62.013	0.217	0.213
-361.654	-22.371	0.087	0.052
-360.639	-200.000	-0.026	0.354
-359.625	-9.444	0.097	0.064
-358.610	224.455	0.096	0.153
-357.596	-200.000	0.012	0.118
-356.581	-133.636	0.217	0.027
-355.566	331.756	0.007	-0.014
-354.552	414.685	-0.133	0.279
-353.537	-200.000	-0.023	0.325
-352.523	-148.441	-0.081	0.007
-351.508	800.000	-0.095	0.296
-350.493	-100.511	0.077	-0.019
-349.479	800.000	0.046	0.132
-348.464	800.000	-0.095	0.322
-347.450	0.771	0.175	-0.123
-346.435	-200.000	-0.004	-0.133
-345.420	-127.217	0.230	-0.033
-344.406	410.995	-0.172	0.361
-343.391	800.000	0.036	-0.135
-342.377	-200.000	-0.001	-0.150
-341.362	-200.000	-0.023	-0.255
-340.348	709.237	-0.036	0.094
-339.333	-200.000	-0.018	-0.093
-338.318	437.215	-0.098	0.211
-337.304	-200.000	0.046	0.201
-336.289	62.366	0.034	-0.034
-335.275	122.857	0.120	-0.149
-334.260	-200.000	0.010	0.154
-333.245	-130.607	-0.206	-0.027
-332.231	332.310	0.255	-0.485
-331.216	-200.000	-0.013	0.326
-330.202	-2.796	-0.282	0.195
-329.187	-164.568	-0.209	-0.009
-328.172	-91.358	0.219	-0.062
-327.158	-49.385	0.234	-0.110
-326.143	-116.313	-0.177	0.032
-325.129	77.387	-0.070	-0.073
-324.114	-79.536	-0.112	-0.037
-323.099	21.177	-0.141	0.113
-322.085	107.184	-0.105	0.123
-321.070	-200.000	-0.030	0.231
-320.056	70.587	0.246	-0.251
-319.041	800.000	0.111	0.358
-318.026	-116.188	-0.014	0.003
-317.012	800.000	-0.053	-0.179
-315.997	-173.306	0.197	-0.006
-314.983	-128.918	-0.123	-0.017
-313.968	-54.698	0.286	0.127
-312.953	800.000	-0.037	-0.155
-311.939	58.014	-0.240	0.232
-310.924	-200.000	0.006	-0.072
-309.910	-12.655	0.079	0.051
-308.895	-34.369	-0.131	0.071
-307.880	23.760	-0.180	0.146
-306.866	800.000	-0.091	-0.377
-305.851	-146.027	0.168	-0.015
-304.837	115.416	0.144	-0.173
-303.822	-183.526	-0.138	-0.002
-302.807	-200.000	0.025	-0.303
-301.793	6.808	0.136	-0.100
-300.778	-130.074	0.399	-0.054
-299.764	-200.000	-0.001	-0.050
-298.749	224.339	-0.181	0.289
-297.735	-94.347	-0.101	0.027
-296.720	19.348	0.141	0.111
-295.705	-145.118	-0.246	0.022
-294.691	75.906	0.055	-0.057
-293.676	379.750	0.085	0.171
-292.662	-110.185	-0.102	-0.021
-291.647	-100.031	-0.129	0.032
-290.632	361.744	-0.119	-0.235
-289.618	-117.768	-0.285	-0.050
-288.603	-110.883	-0.201	-0.041
-287.589	-53.861	0.172	-0.077
-286.574	624.310	0.086	-0.215
-285.559	-148.299	0.039	0.003
-284.545	348.635	-0.150	-0.291
-283.530	800.000	0.101	0.339
-282.516	348.845	-0.090	0.175
-281.501	800.000	-0.031	-0.101
-280.486	-60.630	0.202	-0.084
-279.472	39.159	-0.027	-0.024
-278.457	-200.000	-0.075	0.362
-277.443	-200.000	-0.051	-0.355
-276.428	-200.000	-0.030	0.426
-275.413	-4.254	0.010	-0.007
-274.399	-32.772	-0.154	0.084
-273.384	105.697	-0.027	0.032
-272.370	800.000	-0.102	-0.323
-271.355	-44.592	-0.180	0.089
-270.340	507.702	-0.044	0.101
-269.326	-200.000	0.028	-0.345
-268.311	-10.354	0.506	0.330
-267.297	222.654	0.085	-0.135
-266.282	-200.000	0.041	0.285
-265.267	-182.966	-0.280	0.005
-264.253	414.231	0.021	0.044
-263.238	-200.000	-0.007	-0.336
-262.224	157.234	0.070	-0.095
-261.209	-200.000	0.008	-0.046
-260.195	-103.865	-0.093	0.021
-259.180	-97.866	0.196	-0.050
-258.165	333.144	0.219	-0.416
-257.151	-42.377	-0.127	0.064
-256.136	28.032	0.111	-0.092
-255.122	16.629	0.093	-0.072
-254.107	-200.000	0.011	-0.269
-253.092	-129.721	-0.075	-0.010
-252.078	94.714	0.120	0.134
-251.063	107.456	-0.251	0.293
-250.049	-95.930	0.280	-0.074
-249.034	129.815	-0.155	-0.195
-248.019	507.760	-0.180	-0.412
-247.005	139.671	-0.130	-0.169
-245.990	800.000	0.020	-0.076
-244.976	-74.539	-0.205	0.073
-243.961	-12.896	0.097	-0.062
-242.946	-66.354	-0.165	0.065
-241.932	778.254	0.088	-0.235
-240.917	46.486	-0.516	-0.471
-239.903	312.233	0.142	0.262
-238.888	-64.347	-0.305	0.122
-237.873	237.183	-0.070	0.114
-236.859	111.671	-0.068	0.081
-235.844	-33.339	0.065	-0.035
-234.830	-200.000	-0.008	-0.383
-233.815	254.371	0.086	0.145
-232.800	-200.000	-0.046	-0.359
-231.786	-200.000	0.009	-0.148
-230.771	-104.577	0.029	-0.007
-229.757	49.287	0.287	0.265
-228.742	125.104	-0.112	-0.139
-227.727	27.160	0.114	0.094
-226.713	-200.000	0.059	0.387
-225.698	-161.524	0.394	0.020
-224.684	26.995	-0.234	0.193
-223.669	36.872	-0.146	0.126
-222.655	-200.000	-0.006	0.054
-221.640	-8.106	-0.233	-0.154
-220.625	-200.000	-0.009	-0.183
-219.611	265.883	0.165	-0.284
-218.596	-66.350	-0.079	0.031
-217.582	-87.396	-0.219	0.065
-216.567	-3.057	0.134	-0.092
-215.552	396.347	0.144	0.294
-214.538	236.930	0.173	-0.281
-213.523	-53.524	0.049	0.022
-212.509	-134.754	-0.086	0.010
-211.494	63.761	-0.120	-0.118
-210.479	665.069	0.094	0.240
-209.465	200.352	-0.040	-0.060
-208.450	-42.582	0.094	0.047
-207.436	-200.000	0.009	0.043
-206.421	-21.881	0.118	-0.071
-205.406	-40.150	-0.157	-0.080
-204.392	-78.186	-0.266	0.090
-203.377	13.727	0.076	0.058
-202.363	-41.798	0.124	0.063
-201.348	-120.894	0.408	0.067
-200.333	123.211	0.271	-0.333
-199.319	800.000	0.064	0.188
-198.304	102.475	0.019	-0.022
-197.290	800.000	0.095	0.356
-196.275	11.138	-0.155	0.116
-195.260	800.000	-0.077	-0.216
-194.246	-114.876	-0.174	0.033
-193.231	800.000	-0.086	-0.238
-192.217	-163.559	-0.061	0.003
-191.202	-45.913	-0.136	-0.066
-190.187	109.004	0.261	-0.307
-189.173	-200.000	-0.013	0.167
-188.158	800.000	-0.019	0.058
-187.144	-146.013	0.031	-0.003
-186.129	155.999	0.242	0.327
-185.114	800.000	0.030	-0.100
-184.100	-30.655	0.221	0.123
-183.085	135.666	0.159	0.203
-182.071	-200.000	-0.007	0.142
-181.056	-28.652	0.315	0.178
-180.042	-200.000	-0.004	-0.180
-179.027	-81.658	0.171	0.055
-178.012	-200.000	0.041	-0.178
-176.998	-200.000	-0.025	-0.208
-175.983	800.000	0.028	0.120
-174.969	508.256	0.011	0.026
-173.954	168.461	0.128	-0.179
-172.939	-88.836	-0.156	-0.045
-171.925	-44.766	-0.211	0.103
-170.910	-85.400	0.247	0.076
-169.896	68.824	-0.131	-0.132
-168.881	-95.887	0.289	0.076
-167.866	-200.000	-0.030	0.182
-166.852	130.083	-0.113	0.142
-165.837	-57.980	0.191	-0.082
-164.823	-29.932	0.175	-0.098
-163.808	-200.000	-0.007	-0.341
-162.793	-86.837	0.346	0.104
-161.779	-114.103	0.271	0.051
-160.764	-200.000	0.014	0.202
-159.750	-82.811	-0.084	0.027
-158.735	222.990	-0.067	-0.106
-157.720	-150.730	-0.253	-0.019
-156.706	-2.172	-0.304	0.209
-155.691	104.909	0.147	0.170
-154.677	29.978	-0.048	-0.040
-153.662	-131.708	-0.117	0.015
-152.647	-43.922	-0.112	-0.055
-151.633	285.177	-0.060	0.107
-150.618	22.654	0.156	0.125
-149.604	-125.082	0.264	0.040
-148.589	-52.334	-0.205	0.093
-147.574	42.419	0.076	0.068
-146.560	-46.300	-0.200	0.096
-145.545	-200.000	-0.056	0.391
-144.531	-134.535	-0.026	-0.003
-143.516	-200.000	0.064	0.362
-142.502	-55.123	0.191	0.084
-141.487	-6.213	0.120	0.080
-140.472	-200.000	-0.095	0.557
-139.458	25.554	-0.165	-0.134
-138.443	233.162	-0.148	-0.239
-137.429	132.635	-0.058	0.073
-136.414	-91.396	-0.365	0.102
-135.399	-133.221	-0.222	0.028
-134.385	66.599	-0.064	-0.063
-133.370	-80.904	-0.157	-0.051
-132.356	-93.649	-0.108	-0.029
-131.341	-200.000	0.063	0.282
-130.326	-200.000	0.005	0.171
-129.312	194.122	0.053	-0.078
-128.297	14.738	-0.242	-0.185
-127.283	192.144	-0.212	0.313
-126.268	239.738	-0.139	-0.226
-125.253	83.372	0.293	0.313
-124.239	-125.863	0.326	0.048
-123.224	-127.810	-0.135	-0.019
-122.210	-38.661	0.150	0.078
-121.195	800.000	-0.003	-0.008
-120.180	800.000	-0.043	0.146
-119.166	800.000	0.120	-0.326
-118.151	-200.000	-0.013	-0.307
-117.137	-200.000	-0.019	-0.212
-116.122	242.680	-0.100	0.164
-115.107	-99.658	-0.248	0.061
-114.093	-200.000	0.005	0.235
-113.078	-200.000	0.060	0.277
-112.064	800.000	-0.079	0.233
-111.049	82.533	0.146	0.155
-110.034	54.934	-0.243	-0.230
-109.020	3.055	-0.207	-0.147
-108.005	800.000	-0.023	-0.096
-106.991	37.695	-0.257	0.223
-105.976	800.000	-0.031	-0.116
-104.962	800.000	0.069	-0.260
-103.947	193.224	-0.115	0.170
-102.932	800.000	0.100	-0.276
-101.918	23.769	-0.230	0.185
-100.903	-129.208	-0.133	0.018
-99.889	-110.607	0.116	0.023
-98.874	114.009	0.125	0.148
-97.859	-123.759	-0.149	-0.023
-96.845	145.612	0.157	-0.206
-95.830	622.008	0.017	-0.041
-94.816	-47.763	0.189	-0.090
-93.801	595.657	0.177	-0.427
-92.786	-176.993	-0.355	-0.009
-91.772	-9.082	-0.125	-0.082
-90.757	-41.061	0.275	0.139
-89.743	356.962	0.135	0.263
-88.728	-200.000	0.013	-0.251
-87.713	485.514	0.034	0.077
-86.699	-93.948	-0.260	-0.070
-85.684	-28.960	0.181	0.101
-84.670	128.424	0.192	0.239
-83.655	800.000	0.110	-0.429
-82.640	-200.000	-0.025	-0.361
-81.626	122.151	-0.205	0.250
-80.611	-38.064	0.315	0.163
-79.597	-200.000	-0.021	0.091
-78.582	-85.535	0.160	0.049
-77.567	131.931	0.150	0.189
-76.553	418.212	0.092	-0.191
-75.538	-35.131	0.082	-0.044
-74.524	-168.387	0.262	0.010
-73.509	99.161	0.287	0.324
-72.494	-36.032	0.136	0.072
-71.480	-22.523	0.077	0.046
-70.465	328.826	0.101	-0.189
-69.451	99.039	-0.193	-0.217
-68.436	113.790	-0.105	0.125
-67.422	83.858	-0.219	0.234
-66.407	-9.779	-0.290	0.189
-65.392	-127.438	-0.127	0.018
-64.378	-200.000	0.061	0.347
-63.363	-49.232	-0.153	-0.071
-62.349	222.222	0.212	0.334
-61.334	23.516	-1.410	-1.133
-60.319	-53.565	0.711	0.317
-59.305	606.602	-0.480	-1.169
-58.290	378.947	0.790	1.578
-57.276	800.000	0.550	1.749
-56.261	-200.000	124.871	649.228
-55.246	402.428	1577.773	3237.551
-54.232	140.999	2739.520	3535.626
-53.217	94.717	2168.817	2407.300
-52.203	34.813	1597.613	1363.981
-51.188	26.414	1340.793	1094.116
-50.173	23.949	1303.337	1048.991
-49.159	52.494	1372.416	1278.692
-48.144	49.287	1383.755	1269.814
-47.130	26.701	1331.779	1088.308
-46.115	23.423	1312.827	1053.332
-45.100	23.286	1307.550	1048.248
-44.086	23.160	1305.313	1045.671
-43.071	23.056	1303.001	1043.161
-42.057	23.136	1300.654	1041.714
-41.042	23.039	1299.581	1040.242
-40.027	23.183	1297.314	1039.233
-39.013	23.135	1295.764	1037.665
-37.998	23.147	1293.842	1036.157
-36.984	23.160	1292.439	1035.068
-35.969	23.247	1290.894	1034.299
-34.954	23.297	1289.091	1033.107
-33.940	23.251	1287.878	1031.823
-32.925	23.264	1286.391	1030.663
-31.911	23.223	1284.736	1029.058
-30.896	23.273	1283.499	1028.317
-29.881	23.411	1282.053	1027.922
-28.867	23.346	1281.188	1026.811
-27.852	23.376	1279.072	1025.248
-26.838	23.349	1278.429	1024.534
-25.823	23.380	1276.851	1023.410
-24.809	23.439	1275.074	1022.282
-23.794	23.373	1274.014	1021.014
-22.779	23.292	1273.027	1019.713
-21.765	23.407	1271.137	1018.822
-20.750	23.276	1270.016	1017.133
-19.736	23.292	1268.823	1016.225
-18.721	23.251	1267.768	1015.105
-17.706	23.116	1266.827	1013.540
-16.692	23.102	1265.666	1012.490
-15.677	23.260	1264.221	1012.196
-14.663	23.135	1263.056	1010.510
-13.648	23.273	1261.476	1009.992
-12.633	23.214	1260.961	1009.202
-11.619	23.231	1260.346	1008.767
-10.604	23.226	1259.864	1008.316
-9.590	23.193	1258.923	1007.335
-8.575	23.094	1257.814	1005.840
-7.560	23.222	1256.489	1005.468
-6.546	23.324	1255.960	1005.588
-5.531	23.151	1255.617	1004.292
-4.517	23.286	1254.409	1004.051
-3.502	23.063	1254.225	1002.599
-2.487	23.198	1252.622	1002.043
-1.473	23.168	1248.281	998.361
-0.458	21.439	1233.583	976.918
0.556	16.607	1217.620	940.714
1.571	13.038	1225.708	926.868
2.586	12.334	1241.159	934.466
3.600	12.353	1228.845	925.222
4.615	9.061	1157.135	853.666
5.629	3.066	1087.030	771.850
6.644	0.328	1070.054	746.187
7.659	0.132	1068.109	743.795
8.673	0.162	1066.840	742.998
9.688	0.158	1065.734	742.141
10.702	0.323	1063.525	741.350
11.717	3.962	1067.571	762.044
12.731	10.894	1076.591	802.743
13.746	15.484	1082.484	829.801
14.761	16.716	1083.919	836.918
15.775	15.971	1082.485	832.059
16.790	15.110	1080.112	825.917
17.804	14.389	1078.735	821.240
18.819	14.060	1077.730	818.779
19.834	13.848	1076.553	816.769
20.848	13.439	1076.437	814.597
21.863	13.408	1075.004	813.290
22.877	13.241	1074.082	811.701
23.892	13.200	1073.254	810.800
24.907	13.248	1072.652	810.507
25.921	13.183	1072.049	809.662
26.936	13.326	1070.964	809.471
27.950	13.233	1070.300	808.442
28.965	13.285	1069.506	808.028
29.980	13.356	1067.592	806.855
30.994	13.444	1066.672	806.518
32.009	13.455	1065.711	805.774
33.023	13.337	1065.042	804.624
34.038	13.301	1064.130	803.686
35.053	13.315	1062.907	802.761
36.067	13.371	1062.376	802.561
37.082	13.329	1060.835	801.120
38.096	13.394	1060.559	801.158
39.111	13.447	1059.868	800.822
40.126	13.318	1058.610	799.177
41.140	13.147	1057.523	797.458
42.155	13.050	1056.537	796.176
43.169	13.167	1055.069	795.565
44.184	13.038	1054.194	794.212
45.199	13.136	1052.908	793.647
46.213	13.190	1052.331	793.399
47.228	13.312	1051.016	792.924
48.242	13.286	1049.872	791.865
49.257	13.296	1049.142	791.293
50.271	13.338	1047.726	790.356
51.286	13.300	1047.489	789.923
52.301	13.188	1046.338	788.451
53.315	13.237	1045.355	787.875
54.330	13.270	1044.015	786.952
55.344	13.296	1043.240	786.422
56.359	13.146	1042.729	785.255
57.374	13.168	1041.779	784.574
58.388	13.185	1040.625	783.717
59.403	13.122	1040.400	783.182
60.417	13.182	1039.431	782.664
61.432	13.060	1038.861	781.586
62.447	13.075	1037.518	780.581
63.461	12.945	1037.295	779.728
64.476	13.217	1035.762	779.792
65.490	13.105	1035.183	778.758
66.505	13.059	1034.799	778.183
67.520	13.167	1033.885	777.936
68.534	13.139	1033.553	777.487
69.549	13.138	1032.661	776.742
70.563	13.166	1031.355	775.823
71.578	13.057	1030.878	774.884
72.593	13.087	1029.931	774.240
73.607	12.926	1029.658	773.213
74.622	13.123	1028.383	773.112
75.636	13.002	1027.636	771.916
76.651	12.999	1026.898	771.279
77.666	13.048	1026.785	771.352
78.680	13.027	1026.207	770.752
79.695	13.026	1025.207	769.931
80.709	13.088	1025.152	770.108
81.724	13.263	1024.084	770.053
82.739	13.250	1023.194	769.257
83.753	13.242	1022.707	768.784
84.768	13.271	1021.578	768.001
85.782	13.408	1020.546	767.795
86.797	13.368	1019.693	766.898
87.812	13.146	1019.331	765.532
88.826	13.285	1018.142	765.212
89.841	13.320	1016.713	764.233
90.855	13.418	1016.312	764.319
91.870	13.284	1016.090	763.463
92.884	13.407	1014.792	762.990
93.899	13.406	1013.817	762.183
94.914	13.517	1012.699	761.785
95.928	13.277	1012.403	760.390
96.943	13.367	1011.385	759.971
97.957	13.315	1010.510	759.009
98.972	13.364	1009.718	758.571
99.987	13.420	1008.801	758.073
101.001	13.269	1008.009	756.720
102.016	13.332	1007.201	756.334
103.030	13.398	1006.034	755.693
104.045	13.436	1005.424	755.341
105.060	13.426	1004.524	754.553
106.074	13.234	1003.914	753.152
107.089	13.247	1002.685	752.225
108.103	13.289	1001.302	751.312
109.118	13.087	1001.255	750.289
110.133	13.227	999.924	749.863
111.147	13.141	998.835	748.589
112.162	13.264	998.083	748.514
113.176	13.238	997.621	747.987
114.191	13.321	996.786	747.668
115.206	13.296	996.113	746.984
116.220	13.411	995.017	746.614
117.235	13.317	994.123	745.457
118.249	13.364	992.860	744.655
119.264	13.212	993.077	744.067
120.279	13.326	992.166	743.831
121.293	13.284	990.905	742.629
122.308	13.252	990.082	741.803
123.322	13.300	989.170	741.271
124.337	13.398	987.551	740.429
125.352	13.273	986.954	739.357
126.366	13.341	985.942	738.838
127.381	13.227	984.899	737.483
128.395	13.352	983.652	737.043
129.410	13.367	983.092	736.623
130.424	13.324	982.063	735.596
131.439	13.368	981.491	735.298
132.454	13.399	980.662	734.748
133.468	13.407	979.801	734.076
134.483	13.256	979.061	732.786
135.497	13.354	977.905	732.291
136.512	13.389	977.092	731.771
137.527	13.366	976.323	731.027
138.541	13.370	975.649	730.478
139.556	13.397	975.038	730.075
140.570	13.414	974.207	729.462
141.585	13.569	973.182	729.314
142.600	13.558	972.383	728.602
143.614	13.477	971.856	727.786
144.629	13.515	970.636	726.973
145.643	13.468	969.639	725.958
146.658	13.433	968.461	724.856
147.673	13.596	967.465	724.763
148.687	13.492	967.258	724.086
149.702	13.494	966.199	723.241
150.716	13.412	965.572	722.350
151.731	13.467	965.046	722.132
152.746	13.524	964.463	721.877
153.760	13.506	963.554	721.057
154.775	13.584	963.168	721.041
155.789	13.514	962.485	720.165
156.804	13.477	961.340	719.081
157.819	13.634	960.749	719.259
158.833	13.716	960.497	719.362
159.848	13.593	959.458	717.986
160.862	13.654	958.479	717.453
161.877	13.535	957.586	716.208
162.892	13.516	956.725	715.419
163.906	13.576	955.878	714.979
164.921	13.525	955.045	714.073
165.935	13.665	953.893	713.755
166.950	13.566	953.490	712.964
167.964	13.616	952.119	712.090
168.979	13.702	951.138	711.662
169.994	13.640	950.629	710.953
171.008	13.739	949.787	710.684
172.023	13.701	949.382	710.157
173.037	13.696	948.437	709.365
174.052	13.732	947.767	708.952
175.067	13.671	947.048	708.093
176.081	13.763	946.335	707.889
177.096	13.746	945.829	707.374
178.110	13.723	945.462	706.941
179.125	13.651	944.768	706.053
180.140	13.853	944.347	706.536
181.154	13.780	943.827	705.771
182.169	13.876	943.263	705.698
183.183	13.793	942.813	704.946
184.198	13.891	941.767	704.515
185.213	13.940	940.820	703.953
186.227	13.931	940.209	703.396
187.242	13.940	939.844	703.099
188.256	13.944	939.121	702.511
189.271	13.932	938.279	701.768
190.286	13.831	937.558	700.742
191.300	13.774	937.029	700.045
192.315	13.851	936.056	699.580
193.329	13.881	935.666	699.354
194.344	13.769	935.156	698.439
195.359	13.893	934.854	698.671
196.373	13.951	933.816	698.080
197.388	14.186	932.895	698.314
198.402	14.016	933.148	697.729
199.417	14.136	932.035	697.338
200.432	14.014	931.772	696.569
201.446	14.150	930.864	696.397
202.461	14.145	930.621	696.133
203.475	14.156	930.014	695.665
204.490	14.070	929.513	694.866
205.504	14.115	928.256	694.056
206.519	14.132	927.821	693.740
207.534	14.078	927.240	693.017
208.548	14.102	926.472	692.483
209.563	14.153	925.421	691.848
210.577	14.264	924.468	691.537
211.592	14.208	924.085	690.954
212.607	14.331	923.435	690.919
213.621	14.218	922.515	689.700
214.636	14.248	921.915	689.316
215.650	14.266	921.192	688.786
216.665	14.306	920.581	688.436
217.680	14.488	919.828	688.562
218.694	14.333	919.309	687.472
219.709	14.371	918.754	687.153
220.723	14.402	917.889	686.574
221.738	14.344	917.578	686.045
222.753	14.356	916.449	685.187
223.767	14.552	915.909	685.528
224.782	14.529	915.752	685.256
225.796	14.563	914.646	684.507
226.811	14.553	913.942	683.876
227.826	14.639	913.089	683.533
228.840	14.619	912.550	682.984
229.855	14.559	911.871	682.170
230.869	14.408	911.219	681.006
231.884	14.527	910.531	680.918
232.899	14.601	909.597	680.462
233.913	14.632	908.904	680.009
234.928	14.443	908.539	678.908
235.942	14.514	907.648	678.468
236.957	14.621	907.003	678.363
237.972	14.480	906.597	677.426
238.986	14.554	905.737	677.024
240.001	14.560	905.193	676.580
241.015	14.577	904.858	676.339
242.030	14.785	904.030	676.504
243.045	14.680	903.395	675.544
244.059	14.715	902.763	675.151
245.074	14.662	902.226	674.476
246.088	14.825	901.074	674.214
247.103	14.750	900.839	673.675
248.117	14.788	900.544	673.547
249.132	14.885	899.981	673.458
250.147	14.919	899.151	672.915
251.161	14.901	898.571	672.349
252.176	14.901	898.007	671.866
253.190	14.963	897.048	671.341
254.205	14.899	896.646	670.721
255.220	15.023	895.846	670.560
256.234	15.011	894.960	669.790
257.249	15.084	894.161	669.427
258.263	15.016	893.590	668.665
259.278	15.084	892.785	668.276
260.293	15.110	892.300	667.958
261.307	15.098	891.712	667.410
262.322	15.159	891.228	667.234
263.336	15.152	890.490	666.593
264.351	15.158	889.418	665.755
265.366	15.178	889.072	665.518
266.380	15.192	888.653	665.203
267.395	15.269	887.685	664.723
268.409	15.208	886.740	663.716
269.424	15.248	886.127	663.357
270.439	15.249	885.059	662.501
271.453	15.173	885.257	662.291
272.468	15.136	884.693	661.663
273.482	15.210	883.992	661.375
274.497	15.218	882.876	660.511
275.512	15.113	883.188	660.274
276.526	15.408	882.005	660.490
277.541	15.411	881.098	659.765
278.555	15.399	881.156	659.704
279.570	15.363	880.453	658.977
280.585	15.313	879.491	658.004
281.599	15.500	878.412	657.869
282.614	15.529	878.105	657.693
283.628	15.576	877.643	657.473
284.643	15.494	877.041	656.643
285.657	15.399	876.209	655.592
286.672	15.535	875.600	655.609
287.687	15.486	875.332	655.158
288.701	15.486	874.323	654.346
289.716	15.577	873.879	654.310
290.730	15.444	873.452	653.413
291.745	15.547	872.912	653.355
292.760	15.556	872.244	652.833
293.774	15.697	871.352	652.654
294.789	15.656	870.545	651.834
295.803	15.559	870.566	651.414
296.818	15.660	869.628	651.048
297.833	15.590	868.919	650.186
298.847	15.511	868.548	649.545
299.862	15.645	867.610	649.306
300.876	15.769	866.882	649.179
301.891	15.609	866.833	648.471
302.906	15.714	866.443	648.526
303.920	15.701	865.655	647.827
304.935	15.787	864.866	647.511
305.949	15.817	864.209	647.077
306.964	15.701	863.889	646.336
307.979	15.762	863.165	645.969
308.993	15.931	862.573	646.118
310.008	15.932	861.820	645.500
311.022	15.912	861.609	645.209
312.037	15.949	860.855	644.729
313.052	15.862	860.304	643.926
314.066	15.811	859.667	643.196
315.081	15.986	858.367	642.836
316.095	15.921	858.094	642.327
317.110	15.890	857.726	641.877
318.125	15.756	857.583	641.204
319.139	15.799	856.832	640.749
320.154	15.780	856.425	640.314
321.168	15.948	855.673	640.333
322.183	16.019	855.301	640.268
323.197	15.953	854.859	639.629
324.212	15.975	853.890	638.933
325.227	15.943	853.821	638.703
326.241	16.043	853.042	638.443
327.256	16.109	852.364	638.129
328.270	16.097	851.665	637.503
329.285	15.957	851.328	636.667
330.300	15.968	850.866	636.304
331.314	16.005	850.125	635.833
332.329	15.981	849.906	635.523
333.343	16.000	849.490	635.227
334.358	16.177	848.829	635.344
335.373	16.216	848.416	635.125
336.387	16.120	848.113	634.480
337.402	16.209	847.921	634.615
338.416	16.420	847.361	634.934
339.431	16.361	847.109	634.469
340.446	16.315	846.854	634.047
341.460	16.434	846.112	633.881
342.475	16.432	845.583	633.422
343.489	16.373	845.220	632.872
344.504	16.532	844.839	633.125
345.519	16.517	844.219	632.551
346.533	16.434	843.950	631.984
347.548	16.499	843.204	631.610
348.562	16.271	843.139	630.652
349.577	16.437	842.338	630.618
350.592	16.285	841.683	629.508
351.606	16.271	841.343	629.145
352.621	16.396	840.039	628.578
353.635	16.486	839.255	628.271
354.650	16.358	838.990	627.543
355.665	16.459	838.277	627.327
356.679	16.478	837.633	626.860
357.694	16.449	836.951	626.188
358.708	16.433	836.535	625.761
359.723	16.569	835.978	625.794
360.738	16.588	835.311	625.306
361.752	16.631	834.831	625.052
362.767	16.544	834.251	624.240
363.781	16.738	833.299	624.187
364.796	16.693	833.268	623.943
365.810	16.729	832.887	623.736
366.825	16.763	832.509	623.522
367.840	16.661	831.941	622.669
368.854	16.611	831.347	621.983
369.869	16.880	830.990	622.649
370.883	16.688	830.664	621.648
371.898	16.868	830.300	621.979
372.913	16.951	829.681	621.765
373.927	16.892	829.049	621.018
374.942	16.979	828.454	620.836
375.956	16.868	828.599	620.486
376.971	17.019	827.892	620.451
377.986	17.045	827.283	620.035
379.000	17.136	826.977	620.086
380.015	17.174	826.097	619.508
381.029	17.160	825.921	619.270
382.044	17.045	825.497	618.479
383.059	17.105	824.891	618.190
384.073	17.070	824.041	617.370
385.088	17.126	823.668	617.240
386.102	17.084	823.077	616.589
387.117	16.963	822.312	615.522
388.132	16.913	822.117	615.139
389.146	17.132	821.209	615.201
390.161	16.965	821.404	614.685
391.175	17.230	820.676	615.045
392.190	17.207	819.890	614.321
393.205	17.234	819.408	614.003
394.219	17.175	819.120	613.519
395.234	17.031	818.911	612.789
396.248	17.101	818.137	612.406
397.263	17.061	818.154	612.223
398.278	17.105	817.699	611.985
399.292	17.295	816.940	612.046
400.307	17.125	816.634	611.151
401.321	17.073	816.057	610.478
402.336	17.181	815.584	610.459
403.350	17.148	815.189	609.992
404.365	17.130	815.094	609.801
405.380	17.448	814.312	610.303
406.394	17.549	813.434	609.951
407.409	17.373	813.121	609.034
408.423	17.335	812.833	608.630
409.438	17.371	812.692	608.599
410.453	17.467	812.359	608.638
411.467	17.463	811.796	608.149
412.482	17.456	811.164	607.596
413.496	17.552	811.104	607.841
414.511	17.580	810.574	607.488
415.526	17.595	809.952	607.024
416.540	17.556	809.659	606.610
417.555	17.719	808.684	606.405
418.569	17.589	808.588	605.819
419.584	17.690	808.141	605.787
420.599	17.696	807.992	605.644
421.613	114.117	1298.787	1488.650
422.628	98.619	1370.249	1488.738
