DTS Sentinel unit serial number:	SN413079Multiplexer serial number:	ORYXHardware model number:	OX4-SRSoftware version number:	ORYX F/W v4.00 Oryx Data Collector v3.7.2.0data status	okinstallation	princeton_trtdifferential loss correction	single-endedforward channel	channel 1reverse channel	N/Adate	2019/09/13time	02:14:35forward acquisition time	60.00reverse acquisition time	0.00gamma	496.2192k internal	0.2331k external	0.2331temperature offset calibration	1.0153default loss term (dB/km)	0.3790temperature slope calibration	1.0000multiplexer offset coefficient	1.0000multiplexer slope coefficient	1.0000fibre end	0.00T internal ref (°C)	27.56T ext. ref 1 (°C)	3.91T ext. ref 2 (°C)	22.34length (m)	temperature (°C)	Stokes	anti-Stokes-747.200	764.265	0.025	-0.069
-746.185	-133.228	-0.373	0.047
-745.171	78.972	0.067	-0.073
-744.156	-47.904	0.347	0.169
-743.142	173.652	0.152	-0.221
-742.127	-4.949	0.084	0.058
-741.112	-67.908	-0.313	-0.123
-740.098	162.729	-0.269	0.379
-739.083	136.494	-0.152	-0.199
-738.069	117.233	-0.093	0.115
-737.054	-24.982	-0.152	0.091
-736.039	-200.000	0.017	0.088
-735.025	9.981	0.232	0.178
-734.010	-200.000	0.009	-0.148
-732.996	773.173	-0.126	-0.345
-731.981	-25.789	0.216	-0.128
-730.966	-200.000	0.017	-0.232
-729.952	122.735	-0.124	0.156
-728.937	800.000	-0.036	-0.130
-727.923	121.786	-0.110	-0.138
-726.908	394.889	0.157	-0.329
-725.894	-22.309	-0.296	-0.180
-724.879	-200.000	0.026	-0.162
-723.864	447.271	0.166	0.366
-722.850	-102.209	-0.147	-0.036
-721.835	-124.040	0.122	0.019
-720.821	-200.000	0.019	-0.117
-719.806	126.581	-0.143	0.182
-718.791	1.974	-0.318	0.231
-717.777	-118.445	-0.197	0.035
-716.762	-46.226	0.241	-0.119
-715.748	-200.000	-0.043	-0.197
-714.733	304.958	-0.086	-0.161
-713.718	7.307	0.196	-0.147
-712.704	-200.000	0.007	-0.223
-711.689	-135.866	0.092	-0.011
-710.675	800.000	0.064	0.184
-709.660	-73.357	0.030	-0.011
-708.645	-156.073	-0.175	0.011
-707.631	-124.155	0.219	-0.035
-706.616	168.180	0.177	-0.253
-705.602	-106.083	-0.188	-0.043
-704.587	800.000	0.009	0.028
-703.572	-93.219	-0.248	0.069
-702.558	123.200	-0.171	0.215
-701.543	82.975	-0.015	0.017
-700.529	-103.383	-0.346	-0.082
-699.514	117.850	0.274	0.339
-698.499	800.000	0.081	0.273
-697.485	-200.000	-0.311	0.001
-696.470	-74.763	0.123	0.044
-695.456	800.000	-0.071	0.275
-694.441	293.610	0.096	0.176
-693.426	-7.689	0.184	0.125
-692.412	6.663	-0.106	-0.079
-691.397	-19.848	0.092	-0.057
-690.383	376.856	0.158	-0.324
-689.368	-49.311	-0.359	-0.172
-688.354	-45.540	-0.311	-0.155
-687.339	538.791	-0.088	-0.210
-686.324	641.131	-0.085	-0.218
-685.310	-14.276	0.275	0.178
-684.295	-132.778	-0.096	0.012
-683.281	-129.159	-0.174	-0.024
-682.266	-160.140	0.227	-0.012
-681.251	-200.000	-0.004	-0.039
-680.237	-200.000	0.065	0.446
-679.222	372.963	-0.168	-0.343
-678.208	-200.000	0.008	0.087
-677.193	91.090	0.176	-0.198
-676.178	-200.000	0.172	-0.000
-675.164	124.865	-0.192	0.243
-674.149	123.202	-0.084	-0.105
-673.135	-141.431	0.328	-0.033
-672.120	-96.121	-0.078	0.021
-671.105	-106.822	-0.152	-0.034
-670.091	-113.226	-0.122	0.024
-669.076	300.752	0.034	-0.063
-668.062	-200.000	0.063	-0.335
-667.047	-200.000	0.028	-0.377
-666.032	188.447	0.016	0.024
-665.018	117.393	0.149	0.184
-664.003	-102.996	0.324	0.077
-662.989	-200.000	-0.019	0.307
-661.974	54.225	-0.074	0.071
-660.959	756.492	0.095	-0.257
-659.945	800.000	-0.079	-0.299
-658.930	-200.000	-0.025	-0.122
-657.916	4.036	-0.248	0.182
-656.901	800.000	0.025	0.093
-655.886	-84.152	0.161	-0.051
-654.872	800.000	0.037	-0.122
-653.857	438.677	0.063	0.137
-652.843	-200.000	0.001	0.031
-651.828	-9.269	-0.174	-0.117
-650.814	-72.137	-0.117	-0.044
-649.799	143.553	-0.199	-0.265
-648.784	322.465	-0.096	0.183
-647.770	-24.820	-0.149	-0.089
-646.755	-200.000	-0.005	-0.099
-645.741	-133.202	-0.253	-0.032
-644.726	348.204	-0.019	-0.038
-643.711	583.542	0.153	-0.376
-642.697	74.101	-0.222	-0.233
-641.682	387.749	0.207	0.429
-640.668	84.229	-0.259	0.284
-639.653	-200.000	0.037	-0.165
-638.638	-200.000	0.002	-0.142
-637.624	51.823	0.098	0.093
-636.609	-35.145	-0.293	-0.160
-635.595	92.841	-0.241	-0.272
-634.580	536.908	0.071	0.169
-633.565	166.214	-0.176	0.250
-632.551	-159.411	-0.134	0.007
-631.536	740.655	0.063	-0.169
-630.522	800.000	-0.012	-0.053
-629.507	-138.390	-0.295	0.033
-628.492	667.867	0.108	0.280
-627.478	-180.474	0.138	-0.003
-626.463	92.998	-0.140	0.159
-625.449	58.482	-0.180	-0.176
-624.434	459.357	0.046	0.103
-623.419	-200.000	0.004	0.096
-622.405	-200.000	0.033	0.149
-621.390	-200.000	0.003	0.038
-620.376	446.682	-0.009	-0.019
-619.361	288.996	-0.028	-0.052
-618.346	42.573	0.117	-0.106
-617.332	-200.000	-0.014	0.305
-616.317	-78.625	0.045	0.016
-615.303	356.938	-0.168	-0.336
-614.288	310.955	0.108	-0.202
-613.273	80.655	0.105	-0.114
-612.259	-53.418	0.331	-0.152
-611.244	-171.623	0.185	-0.006
-610.230	179.472	0.102	0.150
-609.215	-183.950	-0.200	0.003
-608.201	365.150	0.057	0.115
-607.186	-152.502	-0.138	0.010
-606.171	-2.803	-0.241	0.169
-605.157	-200.000	-0.007	0.347
-604.142	117.902	-0.178	0.220
-603.128	-35.630	0.463	-0.252
-602.113	17.775	0.129	-0.103
-601.098	-37.251	-0.190	-0.102
-600.084	-200.000	0.028	-0.143
-599.069	132.507	-0.141	-0.182
-598.055	179.696	0.213	0.312
-597.040	-108.588	0.303	0.065
-596.025	75.793	-0.369	-0.390
-595.011	5.913	-0.166	0.123
-593.996	800.000	0.083	-0.357
-592.982	271.908	-0.156	0.275
-591.967	-200.000	-0.020	-0.167
-590.952	443.745	-0.109	-0.240
-589.938	-110.902	-0.216	0.044
-588.923	-63.183	0.127	-0.052
-587.909	231.023	-0.072	0.118
-586.894	544.355	-0.013	0.030
-585.879	-200.000	0.042	-0.348
-584.865	-41.840	0.124	-0.063
-583.850	634.008	-0.104	-0.264
-582.836	-200.000	-0.021	0.116
-581.821	-48.870	-0.094	0.045
-580.806	52.558	0.176	0.168
-579.792	-24.337	-0.246	-0.147
-578.777	4.256	0.152	-0.111
-577.763	-132.143	0.250	0.032
-576.748	-70.513	-0.169	-0.064
-575.733	247.273	-0.118	0.199
-574.719	-36.467	-0.471	0.253
-573.704	67.629	0.024	-0.024
-572.690	800.000	-0.064	-0.190
-571.675	-80.240	-0.215	-0.072
-570.661	284.017	-0.073	0.130
-569.646	-25.660	0.399	-0.235
-568.631	-92.693	0.411	-0.115
-567.617	-200.000	0.011	-0.051
-566.602	393.613	0.088	0.182
-565.588	602.512	0.153	-0.379
-564.573	109.126	0.143	0.171
-563.558	-156.450	-0.266	-0.017
-562.544	-28.343	-0.201	-0.116
-561.529	-200.000	0.007	-0.279
-560.515	-200.000	0.029	-0.192
-559.500	28.980	0.342	0.289
-558.485	800.000	-0.077	-0.217
-557.471	800.000	-0.084	0.287
-556.456	-200.000	0.014	0.079
-555.442	126.803	0.177	-0.224
-554.427	165.688	0.185	-0.261
-553.412	396.921	0.070	0.146
-552.398	800.000	-0.084	-0.318
-551.383	800.000	0.109	-0.357
-550.369	-200.000	-0.006	-0.068
-549.354	50.682	0.154	-0.145
-548.339	800.000	-0.102	0.335
-547.325	61.752	-0.010	0.010
-546.310	87.365	0.157	0.173
-545.296	8.137	0.475	-0.356
-544.281	-200.000	0.184	-0.000
-543.266	-118.790	-0.179	-0.031
-542.252	52.456	0.107	-0.102
-541.237	504.706	-0.059	-0.137
-540.223	167.713	0.153	-0.217
-539.208	66.058	0.188	-0.190
-538.193	72.968	0.085	0.089
-537.179	800.000	0.108	0.370
-536.164	-91.128	-0.308	0.088
-535.150	-52.198	-0.252	0.117
-534.135	264.029	0.043	-0.074
-533.121	194.868	0.169	-0.256
-532.106	-166.084	-0.085	-0.004
-531.091	-96.932	0.197	-0.051
-530.077	-119.306	-0.040	0.007
-529.062	-98.685	-0.333	-0.085
-528.048	-200.000	0.047	0.253
-527.033	358.559	0.020	0.039
-526.018	-21.940	-0.156	0.095
-525.004	318.951	-0.101	-0.191
-523.989	-122.742	-0.403	-0.065
-522.975	192.640	-0.131	0.198
-521.960	8.593	-0.041	0.031
-520.945	-200.000	0.010	0.513
-519.931	-31.577	0.239	0.134
-518.916	-105.010	0.273	0.062
-517.902	2.522	-0.220	0.159
-516.887	800.000	-0.042	-0.120
-515.872	29.547	0.122	0.103
-514.858	-124.642	-0.277	-0.043
-513.843	-200.000	-0.013	-0.088
-512.829	-200.000	-0.024	0.209
-511.814	317.983	0.132	-0.249
-510.799	-89.585	-0.152	-0.045
-509.785	-200.000	-0.001	0.029
-508.770	-200.000	-0.025	0.174
-507.756	800.000	-0.009	0.037
-506.741	591.063	-0.122	0.300
-505.726	-57.452	-0.197	0.086
-504.712	413.625	0.067	-0.141
-503.697	-13.862	-0.378	-0.243
-502.683	-154.299	-0.132	-0.009
-501.668	178.488	0.131	-0.190
-500.653	800.000	0.031	0.119
-499.639	361.974	-0.011	0.021
-498.624	-125.793	0.071	0.011
-497.610	203.857	0.018	-0.027
-496.595	-152.876	-0.243	0.017
-495.581	143.080	0.053	0.070
-494.566	800.000	-0.031	-0.128
-493.551	-200.000	0.014	-0.285
-492.537	-75.733	0.118	0.042
-491.522	-88.172	0.403	-0.120
-490.508	-66.988	0.187	0.074
-489.493	685.661	0.046	0.121
-488.478	-93.940	0.174	-0.048
-487.464	-137.725	0.379	0.042
-486.449	727.344	0.017	-0.044
-485.435	-200.000	-0.026	0.478
-484.420	800.000	-0.087	-0.254
-483.405	193.870	-0.016	0.024
-482.391	-145.151	-0.080	0.007
-481.376	128.893	0.059	0.075
-480.362	800.000	0.045	-0.135
-479.347	-89.449	-0.298	-0.087
-478.332	191.092	-0.078	0.116
-477.318	800.000	0.033	-0.134
-476.303	-121.735	-0.338	-0.056
-475.289	19.070	-0.067	-0.053
-474.274	-200.000	-0.005	0.130
-473.259	-11.759	-0.144	-0.094
-472.245	800.000	-0.065	0.244
-471.230	173.331	0.201	-0.288
-470.216	198.525	-0.230	-0.350
-469.201	280.235	0.115	0.204
-468.186	-157.196	0.149	-0.009
-467.172	250.373	-0.090	-0.152
-466.157	126.717	0.112	-0.142
-465.143	-4.158	0.146	0.100
-464.128	229.974	0.241	0.391
-463.113	-91.775	-0.250	0.071
-462.099	92.968	0.322	-0.363
-461.084	298.024	-0.060	-0.111
-460.070	156.103	-0.131	-0.179
-459.055	-102.561	0.323	-0.077
-458.040	-200.000	0.030	0.164
-457.026	-200.000	0.009	0.208
-456.011	-75.770	0.104	0.037
-454.997	-145.970	-0.230	-0.020
-453.982	-200.000	0.000	0.108
-452.968	-200.000	-0.031	0.261
-451.953	167.285	0.131	0.185
-450.938	94.747	-0.213	0.241
-449.924	163.930	0.207	-0.290
-448.909	61.902	0.082	-0.081
-447.895	-88.944	-0.333	0.098
-446.880	-102.809	-0.042	0.010
-445.865	-74.906	-0.082	0.029
-444.851	-26.609	0.119	-0.070
-443.836	-142.701	0.194	-0.019
-442.822	-41.435	-0.171	0.088
-441.807	-57.575	0.236	0.103
-440.792	800.000	-0.077	0.245
-439.778	-99.633	-0.329	-0.082
-438.763	-200.000	-0.011	0.156
-437.749	-80.994	-0.118	0.039
-436.734	-137.117	0.225	0.025
-435.719	132.425	0.157	-0.202
-434.705	296.576	-0.020	-0.036
-433.690	161.846	0.155	0.216
-432.676	-30.951	0.207	0.116
-431.661	55.192	0.178	-0.171
-430.646	49.400	-0.118	-0.111
-429.632	276.673	-0.177	0.312
-428.617	36.720	0.059	0.052
-427.603	-0.834	-0.381	0.268
-426.588	-200.000	0.230	-0.000
-425.573	34.190	0.231	0.200
-424.559	-31.135	-0.041	-0.023
-423.544	522.344	0.070	-0.162
-422.530	-100.356	0.285	0.070
-421.515	491.339	0.076	0.172
-420.500	-200.000	0.003	-0.026
-419.486	-151.665	-0.396	-0.029
-418.471	-200.000	0.027	0.377
-417.457	256.196	0.043	0.074
-416.442	-25.976	0.355	-0.208
-415.428	-171.698	0.170	0.006
-414.413	410.789	-0.100	0.210
-413.398	-159.628	0.215	-0.012
-412.384	-45.345	-0.201	-0.099
-411.369	-112.355	-0.205	-0.041
-410.355	171.075	0.011	0.015
-409.340	498.685	-0.155	-0.354
-408.325	-41.615	0.252	0.129
-407.311	122.701	-0.437	-0.543
-406.296	-21.073	0.234	-0.142
-405.282	800.000	-0.040	-0.118
-404.267	-16.166	-0.276	-0.174
-403.252	-200.000	0.000	0.031
-402.238	-79.122	0.193	0.065
-401.223	94.910	-0.167	-0.188
-400.209	800.000	-0.050	-0.206
-399.194	251.635	0.229	-0.387
-398.179	134.784	-0.094	0.121
-397.165	-156.645	0.054	0.003
-396.150	-16.521	-0.129	0.081
-395.136	172.254	0.191	0.273
-394.121	-200.000	0.008	0.076
-393.106	-200.000	-0.009	-0.126
-392.092	-172.528	-0.181	-0.006
-391.077	-112.445	0.337	0.067
-390.063	-200.000	0.042	-0.241
-389.048	800.000	0.026	0.104
-388.033	128.779	-0.160	0.203
-387.019	-200.000	-0.014	0.070
-386.004	139.779	-0.160	-0.209
-384.990	-82.122	0.142	-0.046
-383.975	703.472	0.103	-0.270
-382.960	82.327	-0.118	0.127
-381.946	10.832	0.263	-0.199
-380.931	-147.494	0.203	-0.017
-379.917	800.000	0.100	-0.399
-378.902	-116.468	-0.324	-0.059
-377.888	461.296	-0.076	0.167
-376.873	333.959	0.051	-0.098
-375.858	-12.688	-0.355	-0.230
-374.844	-128.399	-0.089	0.013
-373.829	557.245	0.039	0.093
-372.815	-124.015	-0.259	0.040
-371.800	133.984	-0.190	0.244
-370.785	-114.640	-0.503	0.096
-369.771	-200.000	0.001	0.176
-368.756	445.723	-0.129	-0.282
-367.742	590.069	-0.061	-0.149
-366.727	240.481	0.068	-0.113
-365.712	-200.000	-0.011	0.221
-364.698	-47.072	0.259	0.125
-363.683	457.471	-0.216	-0.477
-362.669	1.415	-0.078	-0.056
-361.654	-71.105	-0.354	-0.132
-360.639	174.647	0.062	0.088
-359.625	67.706	0.075	0.076
-358.610	16.966	-0.168	-0.132
-357.596	-152.194	-0.400	-0.029
-356.581	422.487	-0.039	0.083
-355.566	580.700	-0.113	0.273
-354.552	49.524	-0.023	0.021
-353.537	-200.000	-0.043	0.322
-352.523	395.094	0.159	0.328
-351.508	800.000	0.044	-0.167
-350.493	-11.780	-0.408	0.266
-349.479	800.000	0.057	-0.171
-348.464	-142.687	-0.200	0.019
-347.450	269.390	0.010	-0.017
-346.435	800.000	-0.062	0.234
-345.420	388.503	0.154	0.315
-344.406	800.000	-0.113	0.372
-343.391	-37.478	-0.168	-0.089
-342.377	-107.082	-0.139	0.030
-341.362	195.334	0.075	0.114
-340.348	-50.201	0.032	0.015
-339.333	13.740	0.074	0.057
-338.318	-141.577	0.253	0.025
-337.304	-35.362	-0.179	-0.096
-336.289	-4.720	-0.375	-0.256
-335.275	-200.000	-0.024	-0.115
-334.260	166.454	-0.156	-0.218
-333.245	669.952	0.146	-0.375
-332.231	-200.000	0.005	-0.084
-331.216	172.002	0.095	0.135
-330.202	800.000	-0.112	0.437
-329.187	371.851	0.104	-0.208
-328.172	-40.199	-0.184	-0.095
-327.158	800.000	-0.044	-0.174
-326.143	-200.000	0.007	0.196
-325.129	-64.732	-0.394	-0.158
-324.114	9.625	-0.095	0.071
-323.099	45.104	0.061	-0.055
-322.085	-155.271	-0.577	0.037
-321.070	276.924	0.100	0.177
-320.056	-94.709	-0.257	-0.069
-319.041	103.953	-0.171	-0.199
-318.026	-67.482	0.097	-0.038
-317.012	241.301	-0.256	-0.422
-315.997	-91.535	-0.112	-0.032
-314.983	-200.000	-0.019	0.201
-313.968	-73.522	0.273	-0.098
-312.953	92.369	0.088	-0.098
-311.939	-70.111	0.414	0.156
-310.924	800.000	-0.037	0.138
-309.910	800.000	0.126	0.500
-308.895	-200.000	0.052	-0.391
-307.880	26.741	0.211	0.175
-306.866	705.764	0.054	0.141
-305.851	-78.714	-0.290	-0.098
-304.837	63.964	0.176	0.175
-303.822	-200.000	-0.003	0.121
-302.807	-124.518	0.155	-0.024
-301.793	42.451	0.103	-0.093
-300.778	524.561	-0.115	0.268
-299.764	72.305	-0.101	0.104
-298.749	-124.763	-0.114	-0.017
-297.735	-49.446	0.289	-0.136
-296.720	-89.551	-0.173	-0.050
-295.705	44.870	-0.048	-0.044
-294.691	-200.000	-0.021	-0.229
-293.676	-73.926	0.145	0.052
-292.662	3.983	0.028	0.020
-291.647	186.709	0.164	0.241
-290.632	-129.592	-0.139	0.019
-289.618	43.960	-0.324	-0.293
-288.603	99.474	0.026	-0.030
-287.589	-80.952	0.143	-0.047
-286.574	310.187	-0.221	-0.409
-285.559	31.626	-0.049	-0.042
-284.545	-129.343	0.210	0.029
-283.530	-83.282	0.123	0.039
-282.516	56.747	0.090	-0.086
-281.501	800.000	0.040	-0.139
-280.486	434.933	0.167	-0.359
-279.472	654.394	0.037	0.094
-278.457	776.936	-0.018	-0.048
-277.443	34.450	0.039	0.033
-276.428	112.504	0.063	0.076
-275.413	-200.000	-0.016	-0.499
-274.399	-108.183	-0.130	-0.028
-273.384	259.545	-0.131	0.223
-272.370	228.430	-0.073	0.118
-271.355	-43.342	-0.155	0.077
-270.340	48.369	-0.267	0.247
-269.326	-73.327	0.278	0.101
-268.311	201.806	0.178	0.272
-267.297	-132.891	0.499	0.063
-266.282	-200.000	0.024	0.159
-265.267	-200.000	0.055	0.449
-264.253	-69.018	-0.275	-0.105
-263.238	198.208	-0.100	-0.151
-262.224	800.000	-0.111	0.323
-261.209	304.922	0.101	-0.185
-260.195	-200.000	-0.008	0.357
-259.180	482.179	0.140	-0.314
-258.165	507.956	-0.053	-0.122
-257.151	-200.000	-0.004	0.199
-256.136	-200.000	0.069	0.546
-255.122	166.067	0.246	0.344
-254.107	-48.636	-0.205	0.097
-253.092	-200.000	-0.034	-0.294
-252.078	118.980	-0.093	-0.113
-251.063	22.671	0.254	-0.206
-250.049	322.453	0.198	-0.372
-249.034	632.213	-0.050	-0.125
-248.019	-177.725	0.207	-0.005
-247.005	-109.068	-0.224	0.047
-245.990	422.531	-0.041	0.087
-244.976	-93.818	0.077	-0.021
-243.961	-200.000	0.470	0.000
-242.946	-144.318	-0.230	0.021
-241.932	-200.000	0.018	-0.160
-240.917	739.702	-0.076	0.201
-239.903	355.819	-0.216	0.424
-238.888	-200.000	-0.025	0.174
-237.873	268.868	0.196	0.340
-236.859	-200.000	0.046	-0.276
-235.844	507.919	-0.059	0.136
-234.830	-57.795	0.183	0.079
-233.815	34.164	-0.029	0.025
-232.800	12.546	0.273	-0.207
-231.786	155.095	0.141	-0.192
-230.771	-164.064	0.278	-0.013
-229.757	800.000	-0.054	-0.193
-228.742	183.321	-0.148	-0.216
-227.727	128.784	0.069	-0.086
-226.713	78.656	0.181	-0.191
-225.698	6.581	0.296	0.217
-224.684	58.554	-0.150	0.145
-223.669	-200.000	0.031	-0.290
-222.655	-22.968	-0.167	0.100
-221.640	-200.000	0.010	-0.065
-220.625	131.852	-0.100	0.127
-219.611	-99.360	0.291	0.072
-218.596	76.019	-0.179	-0.187
-217.582	130.025	0.100	0.126
-216.567	2.398	0.345	0.246
-215.552	179.863	0.036	0.052
-214.538	-78.990	-0.164	0.055
-213.523	31.715	-0.095	0.081
-212.509	-65.076	0.055	0.022
-211.494	40.205	-0.062	0.055
-210.479	68.607	0.234	0.237
-209.465	58.745	-0.092	-0.089
-208.450	87.797	0.406	-0.443
-207.436	-116.134	-0.106	-0.019
-206.421	508.734	-0.067	0.154
-205.406	-104.078	0.081	-0.019
-204.392	-143.542	-0.093	-0.009
-203.377	437.760	0.175	0.376
-202.363	94.674	-0.257	0.287
-201.348	-3.971	0.190	-0.130
-200.333	-173.428	0.152	0.005
-199.319	679.910	0.081	-0.206
-198.304	134.142	-0.127	-0.162
-197.290	200.255	-0.101	0.153
-196.275	95.791	-0.028	0.032
-195.260	-42.811	-0.207	0.104
-194.246	196.983	0.091	0.137
-193.231	25.039	-0.291	0.238
-192.217	99.092	-0.195	0.221
-191.202	800.000	0.107	0.365
-190.187	58.555	0.230	-0.222
-189.173	800.000	0.089	-0.365
-188.158	-200.000	-0.025	-0.250
-187.144	-118.305	-0.046	0.008
-186.129	-200.000	0.025	-0.255
-185.114	226.892	-0.016	0.026
-184.100	-87.370	0.258	0.077
-183.085	-63.501	0.319	0.129
-182.071	479.716	-0.103	0.230
-181.056	72.599	-0.121	0.124
-180.042	262.513	0.165	0.281
-179.027	40.991	0.044	-0.039
-178.012	539.444	0.111	0.261
-176.998	-180.734	0.493	0.010
-175.983	-68.846	0.175	0.066
-174.969	-110.612	0.127	0.026
-173.954	-200.000	-0.040	0.198
-172.939	141.919	0.267	0.349
-171.925	-37.742	-0.262	0.137
-170.910	77.592	0.053	-0.056
-169.896	-80.732	0.107	-0.035
-168.881	-200.000	0.043	-0.388
-167.866	-46.400	0.404	-0.195
-166.852	-23.574	0.055	0.032
-165.837	-4.529	0.093	-0.063
-164.823	9.317	0.171	0.128
-163.808	87.647	-0.064	-0.070
-162.793	245.601	-0.082	-0.135
-161.779	-148.633	-0.414	0.033
-160.764	-67.324	0.096	-0.037
-159.750	216.136	0.047	-0.073
-158.735	99.330	0.205	0.233
-157.720	162.047	0.156	0.215
-156.706	-44.649	-0.139	0.068
-155.691	-200.000	0.026	-0.221
-154.677	-161.964	-0.238	0.012
-153.662	800.000	-0.057	-0.157
-152.647	-200.000	0.049	-0.326
-151.633	102.193	0.047	0.054
-150.618	-24.035	-0.134	-0.079
-149.604	-200.000	-0.009	0.185
-148.589	-200.000	-0.002	0.182
-147.574	1.204	0.086	-0.061
-146.560	-200.000	-0.094	-0.405
-145.545	374.124	-0.110	0.220
-144.531	800.000	-0.011	0.046
-143.516	289.785	-0.052	0.092
-142.502	-147.837	0.221	-0.018
-141.487	-42.848	-0.325	0.162
-140.472	670.933	0.090	0.230
-139.458	-59.935	0.207	0.087
-138.443	237.341	-0.079	0.129
-137.429	-133.167	-0.336	0.042
-136.414	-56.839	0.088	0.038
-135.399	-200.000	-0.008	0.154
-134.385	713.429	0.041	0.106
-133.370	-190.273	-0.214	-0.002
-132.356	-200.000	-0.027	0.234
-131.341	156.649	0.159	0.215
-130.326	87.886	0.147	-0.160
-129.312	-57.086	0.063	-0.027
-128.297	-55.139	0.154	0.068
-127.283	800.000	0.077	0.221
-126.268	-200.000	-0.029	0.206
-125.253	-112.629	-0.236	-0.046
-124.239	800.000	-0.137	0.374
-123.224	-108.728	0.130	-0.027
-122.210	377.168	-0.127	-0.255
-121.195	467.945	0.094	0.206
-120.180	365.574	0.021	-0.041
-119.166	9.505	-0.114	0.085
-118.151	155.325	-0.110	-0.149
-117.137	-44.231	0.294	-0.145
-116.122	800.000	-0.037	0.155
-115.107	472.148	0.142	0.313
-114.093	-105.699	0.270	-0.060
-113.078	-169.519	0.325	0.012
-112.064	7.170	0.218	0.160
-111.049	-75.928	-0.199	-0.069
-110.034	41.013	0.284	0.252
-109.020	348.434	0.248	0.480
-108.005	14.823	-0.134	0.103
-106.991	-200.000	-0.062	0.328
-105.976	151.336	-0.129	-0.173
-104.962	-164.733	0.217	-0.010
-103.947	-200.000	0.056	0.372
-102.932	800.000	-0.041	0.164
-101.918	-44.792	-0.115	-0.056
-100.903	290.937	0.071	0.127
-99.889	139.759	-0.154	0.199
-98.874	-44.197	0.298	0.147
-97.859	-200.000	-0.063	-0.277
-96.845	45.826	-0.170	-0.155
-95.830	-144.473	0.169	-0.015
-94.816	-97.540	-0.158	-0.040
-93.801	272.400	0.017	-0.030
-92.786	17.236	-0.119	-0.092
-91.772	51.554	0.226	-0.211
-90.757	-108.962	-0.155	0.032
-89.743	-13.835	0.349	-0.222
-88.728	243.234	-0.207	-0.340
-87.713	242.440	0.159	-0.261
-86.699	800.000	0.080	0.306
-85.684	246.435	-0.101	-0.166
-84.670	289.263	0.037	-0.065
-83.655	-87.447	0.156	0.046
-82.640	-64.395	-0.396	0.158
-81.626	-43.416	-0.171	-0.085
-80.611	92.056	-0.175	0.193
-79.597	-29.146	0.109	0.061
-78.582	-149.079	-0.046	-0.004
-77.567	-110.099	0.286	-0.059
-76.553	-200.000	0.032	0.205
-75.538	-75.953	-0.085	0.030
-74.524	800.000	0.082	0.231
-73.509	800.000	0.007	0.030
-72.494	800.000	0.045	0.146
-71.480	-200.000	0.018	-0.361
-70.465	-24.137	0.048	0.028
-69.451	-72.930	-0.446	0.161
-68.436	800.000	-0.033	-0.141
-67.422	-97.081	-0.152	-0.039
-66.407	-12.939	-0.336	-0.214
-65.392	99.176	-0.061	0.070
-64.378	-67.523	0.315	-0.121
-63.363	-200.000	-0.009	-0.325
-62.349	6.446	0.038	0.028
-61.334	-1.979	-1.229	-0.846
-60.319	33.645	0.663	0.565
-59.305	-200.000	-0.145	-1.044
-58.290	696.263	0.433	1.114
-57.276	281.327	0.676	1.186
-56.261	-200.000	114.786	652.959
-55.246	534.869	1524.913	3541.705
-54.232	178.804	2685.941	3845.249
-53.217	109.076	2147.386	2516.142
-52.203	39.099	1594.748	1396.834
-51.188	30.902	1343.350	1127.246
-50.173	27.971	1305.971	1078.565
-49.159	55.334	1363.025	1291.266
-48.144	53.942	1376.677	1295.789
-47.130	31.162	1331.296	1118.508
-46.115	27.628	1314.209	1083.157
-45.100	27.523	1308.971	1078.175
-44.086	27.447	1306.907	1075.986
-43.071	27.374	1304.507	1073.534
-42.057	27.299	1303.001	1071.812
-41.042	27.418	1301.360	1071.121
-40.027	27.457	1299.234	1069.554
-39.013	27.469	1297.579	1068.221
-37.998	27.400	1295.847	1066.351
-36.984	27.531	1294.090	1065.629
-35.969	27.499	1292.245	1063.881
-34.954	27.549	1290.472	1062.670
-33.940	27.679	1288.644	1061.880
-32.925	27.634	1287.591	1060.708
-31.911	27.608	1286.480	1059.598
-30.896	27.711	1284.776	1058.750
-29.881	27.745	1283.622	1057.955
-28.867	27.652	1282.075	1056.097
-27.852	27.675	1281.034	1055.331
-26.838	27.646	1279.796	1054.104
-25.823	27.645	1278.242	1052.774
-24.809	27.544	1277.169	1051.266
-23.794	27.704	1275.533	1050.803
-22.779	27.626	1274.099	1049.129
-21.765	27.753	1272.802	1048.747
-20.750	27.681	1271.706	1047.393
-19.736	27.593	1270.612	1045.945
-18.721	27.437	1269.433	1044.037
-17.706	27.480	1268.303	1043.316
-16.692	27.593	1267.157	1042.973
-15.677	27.443	1266.343	1041.405
-14.663	27.658	1264.712	1041.250
-13.648	27.459	1264.194	1039.648
-12.633	27.516	1263.200	1039.113
-11.619	27.489	1262.213	1038.110
-10.604	27.529	1261.335	1037.570
-9.590	27.520	1260.070	1036.441
-8.575	27.441	1259.170	1035.206
-7.560	27.448	1258.401	1034.576
-6.546	27.476	1257.429	1033.895
-5.531	27.510	1256.204	1033.035
-4.517	27.502	1255.935	1032.733
-3.502	27.580	1255.143	1032.480
-2.487	27.558	1253.866	1031.263
-1.473	27.480	1249.596	1027.271
-0.458	25.941	1234.583	1006.307
0.556	24.088	1217.763	969.055
1.571	20.233	1223.668	952.543
2.586	19.351	1238.743	959.288
3.600	19.249	1226.261	948.974
4.615	14.621	1155.373	869.965
5.629	7.263	1082.596	779.035
6.644	4.266	1064.890	751.719
7.659	3.919	1062.492	748.280
8.673	3.733	1061.438	746.572
9.688	3.743	1060.056	745.583
10.702	4.036	1057.788	745.332
11.717	8.743	1064.797	772.969
12.731	17.023	1075.535	820.911
13.746	21.732	1082.178	848.771
14.761	22.584	1083.052	853.509
15.775	21.956	1081.114	848.870
16.790	21.072	1079.384	843.165
17.804	20.486	1077.887	839.095
18.819	20.275	1076.925	837.254
19.834	20.250	1076.429	836.671
20.848	20.300	1075.813	836.361
21.863	20.135	1075.085	834.928
22.877	19.959	1074.541	833.584
23.892	19.995	1073.526	832.894
24.907	19.838	1073.181	831.797
25.921	19.793	1071.716	830.374
26.936	19.661	1070.512	828.735
27.950	19.724	1069.173	827.927
28.965	19.801	1067.551	826.966
29.980	20.148	1065.959	827.316
30.994	20.261	1065.086	827.101
32.009	20.334	1064.324	826.787
33.023	20.162	1063.519	825.269
34.038	20.117	1062.549	824.227
35.053	19.896	1061.607	822.377
36.067	19.904	1060.634	821.588
37.082	19.827	1060.448	821.005
38.096	19.962	1059.354	820.724
39.111	20.188	1058.786	821.282
40.126	19.881	1057.394	818.681
41.140	19.557	1055.557	815.656
42.155	19.405	1053.974	813.643
43.169	19.388	1052.846	812.616
44.184	19.353	1051.936	811.677
45.199	19.503	1051.391	811.893
46.213	19.686	1050.881	812.287
47.228	19.896	1049.978	812.505
48.242	20.021	1049.078	812.320
49.257	19.967	1048.224	811.337
50.271	20.053	1047.595	811.179
51.286	20.121	1046.635	810.680
52.301	20.009	1046.001	809.595
53.315	19.907	1044.550	807.924
54.330	19.689	1042.989	805.632
55.344	19.607	1042.702	804.955
56.359	19.661	1041.328	804.075
57.374	19.519	1040.749	802.894
58.388	19.489	1039.803	801.958
59.403	19.438	1038.746	800.833
60.417	19.436	1038.125	800.272
61.432	19.322	1037.632	799.293
62.447	19.140	1036.932	797.842
63.461	19.104	1036.032	796.913
64.476	19.245	1034.610	796.396
65.490	19.063	1034.292	795.244
66.505	19.131	1033.642	794.987
67.520	19.215	1032.659	794.546
68.534	19.187	1032.208	793.999
69.549	19.147	1031.133	792.919
70.563	19.038	1030.455	791.828
71.578	18.947	1029.118	790.309
72.593	18.749	1028.517	788.868
73.607	18.804	1027.914	788.591
74.622	18.862	1027.277	788.296
75.636	18.877	1027.052	788.123
76.651	18.977	1026.294	787.933
77.666	19.131	1025.616	788.046
78.680	19.043	1024.842	786.981
79.695	19.006	1023.964	786.065
80.709	19.273	1023.656	786.980
81.724	19.374	1023.425	787.193
82.739	19.621	1022.287	787.374
83.753	19.791	1022.219	788.027
84.768	20.237	1021.968	789.797
85.782	20.529	1020.758	790.115
86.797	20.419	1019.989	788.951
87.812	20.043	1018.868	786.311
88.826	19.986	1018.213	785.477
89.841	20.304	1016.663	785.649
90.855	20.359	1016.305	785.552
91.870	20.357	1015.622	784.944
92.884	20.418	1014.317	784.145
93.899	20.383	1013.401	783.209
94.914	20.330	1013.078	782.651
95.928	20.279	1012.178	781.657
96.943	20.078	1011.140	779.883
97.957	20.047	1009.928	778.737
98.972	20.048	1009.201	778.111
99.987	20.127	1008.456	777.824
101.001	20.073	1007.335	776.649
102.016	20.034	1006.195	775.526
103.030	20.172	1006.033	775.952
104.045	20.297	1005.056	775.689
105.060	19.897	1004.184	773.157
106.074	19.675	1002.238	770.604
107.089	19.511	1000.907	768.783
108.103	19.274	1000.306	767.197
109.118	19.191	999.409	766.072
110.133	19.196	998.092	765.016
111.147	19.164	997.403	764.279
112.162	19.287	996.424	764.005
113.176	19.351	996.217	764.062
114.191	19.432	995.936	764.141
115.206	19.383	994.917	763.071
116.220	19.303	994.131	762.047
117.235	19.285	993.112	761.121
118.249	19.160	992.383	759.944
119.264	19.118	991.240	758.814
120.279	19.066	990.255	757.765
121.293	18.919	989.410	756.406
122.308	18.833	988.761	755.464
123.322	18.871	987.188	754.363
124.337	18.898	986.145	753.615
125.352	18.989	985.024	753.092
126.366	18.794	984.159	751.512
127.381	18.918	983.692	751.631
128.395	18.889	982.980	750.890
129.410	18.973	981.731	750.237
130.424	19.157	981.468	750.772
131.439	19.403	980.776	751.251
132.454	19.349	980.036	750.380
133.468	19.407	979.359	750.050
134.483	19.401	978.270	749.122
135.497	19.423	977.777	748.773
136.512	19.387	977.098	748.030
137.527	19.295	976.126	746.822
138.541	19.618	975.086	747.358
139.556	19.593	974.469	746.713
140.570	19.804	974.429	747.526
141.585	19.894	973.434	747.086
142.600	20.076	972.517	747.099
143.614	20.313	971.434	747.224
144.629	20.264	971.444	746.955
145.643	20.281	969.682	745.604
146.658	19.885	968.661	743.053
147.673	19.802	967.707	741.901
148.687	19.538	966.920	740.100
149.702	19.404	965.675	738.506
150.716	19.375	964.853	737.691
151.731	19.579	964.016	737.858
152.746	19.491	963.888	737.316
153.760	19.653	963.100	737.342
154.775	19.825	962.508	737.556
155.789	19.813	962.253	737.246
156.804	19.866	961.117	736.533
157.819	19.984	960.257	736.311
158.833	20.121	960.066	736.683
159.848	20.224	959.586	736.685
160.862	20.082	957.923	734.741
161.877	19.596	956.609	731.610
162.892	19.374	955.506	729.765
163.906	19.617	954.188	729.718
164.921	19.473	953.643	728.630
165.935	19.416	953.068	727.884
166.950	19.645	951.980	727.956
167.964	19.737	950.721	727.314
168.979	19.544	949.828	725.757
169.994	19.462	949.271	724.922
171.008	19.781	948.416	725.545
172.023	19.929	948.184	725.922
173.037	20.089	947.258	725.819
174.052	19.791	946.877	724.217
175.067	19.517	945.664	722.077
176.081	19.279	944.848	720.398
177.096	19.242	944.346	719.794
178.110	19.355	943.819	719.802
179.125	19.415	943.463	719.719
180.140	19.625	943.021	720.191
181.154	19.865	942.212	720.511
182.169	20.051	942.316	721.298
183.183	20.054	941.478	720.609
184.198	19.899	940.997	719.532
185.213	20.023	939.905	719.149
186.227	19.995	939.609	718.741
187.242	20.153	939.036	718.894
188.256	20.437	938.213	719.376
189.271	20.318	937.437	718.224
190.286	19.846	936.813	715.732
191.300	19.276	935.188	712.073
192.315	19.127	934.543	710.905
193.329	19.347	934.135	711.436
194.344	19.507	933.598	711.625
195.359	19.614	932.974	711.529
196.373	19.792	932.480	711.823
197.388	19.955	932.744	712.630
198.402	20.357	931.703	713.423
199.417	20.428	931.663	713.624
200.432	20.552	931.050	713.599
201.446	20.669	930.580	713.655
202.461	20.647	930.538	713.472
203.475	20.541	929.519	712.191
204.490	20.247	928.317	710.006
205.504	20.132	927.299	708.693
206.519	19.980	926.603	707.478
207.534	20.051	925.555	706.905
208.548	20.053	925.145	706.535
209.563	19.974	924.824	705.908
210.577	20.260	924.059	706.423
211.592	20.421	923.714	706.755
212.607	20.488	922.997	706.416
213.621	20.359	922.292	705.291
214.636	20.233	921.650	704.226
215.650	20.330	920.693	703.822
216.665	20.620	920.041	704.438
217.680	20.650	919.609	704.165
218.694	20.633	918.850	703.452
219.709	20.592	918.355	702.846
220.723	20.441	917.343	701.400
221.738	20.439	916.606	700.768
222.753	20.495	916.158	700.589
223.767	20.593	915.868	700.699
224.782	20.616	915.649	700.562
225.796	20.751	914.965	700.520
226.811	20.690	914.058	699.520
227.826	20.400	913.049	697.522
228.840	20.421	912.611	697.206
229.855	20.335	911.766	696.155
230.869	20.368	910.749	695.450
231.884	20.237	909.935	694.242
232.899	20.116	909.619	693.458
233.913	20.025	908.846	692.441
234.928	19.952	908.295	691.669
235.942	19.902	907.445	690.760
236.957	19.961	906.807	690.450
237.972	19.898	906.422	689.843
238.986	19.940	906.173	689.761
240.001	19.956	905.227	689.043
241.015	20.100	904.693	689.151
242.030	20.189	904.490	689.287
243.045	20.309	903.733	689.125
244.059	20.259	903.190	688.452
245.074	20.423	902.612	688.599
246.088	20.492	902.117	688.435
247.103	20.685	901.848	688.934
248.117	20.822	901.669	689.277
249.132	21.225	901.417	690.620
250.147	21.510	900.796	691.208
251.161	21.407	900.755	690.710
252.176	21.460	900.189	690.425
253.190	21.320	899.369	689.181
254.205	21.441	898.965	689.289
255.220	21.594	897.537	688.733
256.234	21.459	896.808	687.583
257.249	21.420	896.392	687.050
258.263	21.205	895.804	685.693
259.278	21.500	895.219	686.341
260.293	21.463	894.849	685.853
261.307	21.388	894.395	685.152
262.322	21.579	893.472	685.132
263.336	21.631	892.534	684.553
264.351	21.602	891.881	683.879
265.366	21.587	891.605	683.550
266.380	21.485	890.779	682.458
267.395	21.595	889.235	681.640
268.409	21.320	889.122	680.424
269.424	21.354	887.755	679.449
270.439	21.454	887.137	679.307
271.453	21.198	886.872	678.049
272.468	21.081	886.457	677.216
273.482	21.011	885.885	676.449
274.497	21.268	885.044	676.742
275.512	21.087	884.319	675.429
276.526	21.123	883.964	675.237
277.541	21.260	883.751	675.543
278.555	21.414	883.754	676.082
279.570	21.745	882.714	676.505
280.585	21.693	881.868	675.593
281.599	21.331	881.035	673.502
282.614	21.306	880.469	672.912
283.628	21.358	879.550	672.350
284.643	21.370	878.886	671.829
285.657	21.331	878.629	671.425
286.672	21.247	877.995	670.558
287.687	21.319	877.486	670.386
288.701	21.455	876.384	670.004
289.716	21.455	876.051	669.692
290.730	21.358	875.680	668.978
291.745	21.413	875.185	668.751
292.760	21.568	874.657	668.880
293.774	21.731	874.154	669.059
294.789	21.626	873.509	668.106
295.803	21.290	872.408	665.924
296.818	21.307	871.665	665.363
297.833	21.307	871.161	664.922
298.847	21.271	870.401	664.144
299.862	21.519	870.217	664.887
300.876	21.649	869.715	664.938
301.891	21.749	869.499	665.094
302.906	21.932	868.977	665.329
303.920	22.045	868.745	665.520
304.935	22.211	868.153	665.639
305.949	22.159	866.746	664.305
306.964	21.717	866.396	662.308
307.979	21.673	866.111	661.865
308.993	21.955	865.346	662.286
310.008	21.968	864.761	661.828
311.022	21.767	864.316	660.670
312.037	21.611	863.480	659.388
313.052	21.325	862.855	657.776
314.066	21.205	861.895	656.533
315.081	21.185	861.468	656.075
316.095	21.390	860.500	656.049
317.110	21.214	860.391	655.246
318.125	21.292	860.025	655.201
319.139	21.262	859.068	654.304
320.154	21.268	858.779	654.049
321.168	21.425	858.236	654.165
322.183	21.452	857.561	653.692
323.197	21.514	857.317	653.681
324.212	21.412	857.173	653.130
325.227	21.539	856.281	652.867
326.241	21.425	855.349	651.675
327.256	21.380	855.130	651.283
328.270	21.220	854.698	650.301
329.285	21.243	853.824	649.664
330.300	21.147	853.381	648.912
331.314	21.439	852.802	649.497
332.329	21.576	852.887	650.016
333.343	21.884	851.991	650.414
334.358	21.799	851.463	649.641
335.373	21.794	851.492	649.587
336.387	21.879	851.337	649.727
337.402	22.015	851.133	650.017
338.416	22.061	850.828	649.896
339.431	22.300	850.183	650.228
340.446	22.380	849.956	650.294
341.460	22.487	849.581	650.343
342.475	22.457	849.449	650.076
343.489	22.529	849.043	649.971
344.504	22.575	848.681	649.808
345.519	22.725	848.027	649.801
346.533	22.459	847.543	648.394
347.548	22.366	846.110	646.899
348.562	22.056	845.934	645.567
349.577	21.984	844.947	644.494
350.592	21.747	844.082	642.907
351.606	21.720	843.280	642.141
352.621	21.775	843.049	642.111
353.635	21.765	842.839	641.856
354.650	22.013	841.797	641.912
355.665	22.089	841.453	641.872
356.679	22.214	840.717	641.710
357.694	22.199	839.908	640.979
358.708	22.159	839.493	640.460
359.723	21.996	839.014	639.445
360.738	22.112	838.343	639.298
361.752	22.241	838.119	639.540
362.767	22.506	837.264	639.795
363.781	22.659	837.215	640.256
364.796	22.853	836.908	640.666
365.810	22.849	836.440	640.237
366.825	22.874	835.931	639.883
367.840	22.882	835.532	639.551
368.854	22.578	834.896	637.906
369.869	22.532	834.344	637.261
370.883	22.553	833.920	636.959
371.898	22.621	833.859	637.102
372.913	22.853	833.165	637.351
373.927	22.612	832.445	635.877
374.942	22.568	832.404	635.628
375.956	22.890	831.813	636.280
376.971	22.939	831.602	636.241
377.986	23.008	831.069	636.025
379.000	23.004	830.626	635.613
380.015	22.968	830.062	634.996
381.029	22.870	829.502	634.161
382.044	22.974	828.718	633.877
383.059	23.296	827.876	634.331
384.073	22.845	827.299	632.219
385.088	22.527	826.715	630.579
386.102	22.573	825.570	629.815
387.117	22.371	825.468	628.958
388.132	22.453	824.761	628.657
389.146	22.471	824.441	628.421
390.161	22.825	824.069	629.347
391.175	22.846	823.568	628.981
392.190	22.549	823.089	627.504
393.205	22.442	822.350	626.504
394.219	22.517	821.567	626.119
395.234	22.323	821.305	625.173
396.248	22.222	820.887	624.441
397.263	22.242	820.261	623.979
398.278	22.241	819.850	623.611
399.292	22.177	819.242	622.864
400.307	22.080	818.800	622.130
401.321	22.181	818.747	622.393
402.336	22.500	818.311	623.134
403.350	22.650	817.720	623.159
404.365	22.845	817.543	623.659
405.380	23.045	817.335	624.151
406.394	23.080	816.803	623.811
407.409	23.134	816.845	623.980
408.423	23.195	816.152	623.612
409.438	23.273	816.049	623.751
410.453	23.250	815.375	623.101
411.467	23.478	814.833	623.431
412.482	23.446	814.814	623.250
413.496	23.685	814.237	623.595
414.511	23.589	813.615	622.723
415.526	23.373	813.465	621.795
416.540	23.211	812.483	620.424
417.555	23.316	812.249	620.559
418.569	23.392	811.680	620.335
419.584	23.356	811.425	619.958
420.599	23.293	810.981	619.342
421.613	164.580	1372.657	1799.244
422.628	143.357	1454.485	1799.337
