DTS Sentinel unit serial number:	SN413079Multiplexer serial number:	ORYXHardware model number:	OX4-SRSoftware version number:	ORYX F/W v4.00 Oryx Data Collector v3.7.2.0data status	okinstallation	princeton_trtdifferential loss correction	single-endedforward channel	channel 1reverse channel	N/Adate	2019/09/12time	22:46:35forward acquisition time	60.00reverse acquisition time	0.00gamma	496.2192k internal	0.2327k external	0.2327temperature offset calibration	1.0146default loss term (dB/km)	0.3790temperature slope calibration	1.0000multiplexer offset coefficient	1.0000multiplexer slope coefficient	1.0000fibre end	0.00T internal ref (°C)	29.50T ext. ref 1 (°C)	3.73T ext. ref 2 (°C)	24.06length (m)	temperature (°C)	Stokes	anti-Stokes-747.200	8.121	-0.272	-0.206
-746.185	776.508	-0.093	0.255
-745.171	-51.328	-0.099	0.047
-744.156	-200.000	-0.007	0.211
-743.142	-200.000	-0.058	0.311
-742.127	291.348	0.068	0.125
-741.112	-170.026	0.203	-0.007
-740.098	762.953	-0.069	0.189
-739.083	-14.416	0.225	0.146
-738.069	606.350	0.116	-0.292
-737.054	42.731	-0.108	0.099
-736.039	-40.800	-0.149	-0.078
-735.025	-68.890	0.136	-0.053
-734.010	-200.000	0.013	-0.120
-732.996	-88.945	-0.226	0.068
-731.981	-55.024	-0.161	-0.073
-730.966	60.690	-0.169	-0.169
-729.952	-139.494	-0.347	0.037
-728.937	-76.619	0.252	0.089
-727.923	565.778	-0.075	-0.183
-726.908	-111.296	0.053	0.011
-725.894	62.814	-0.088	-0.089
-724.879	800.000	-0.112	0.359
-723.864	-54.342	0.145	-0.066
-722.850	800.000	-0.059	-0.237
-721.835	3.936	-0.316	-0.232
-720.821	-60.676	-0.062	-0.026
-719.806	-80.791	-0.124	0.042
-718.791	-200.000	0.029	-0.230
-717.777	43.569	-0.123	-0.113
-716.762	-178.751	0.285	-0.007
-715.748	-66.380	0.182	0.073
-714.733	-90.829	-0.448	0.130
-713.718	-63.043	-0.133	0.055
-712.704	-159.641	-0.088	-0.005
-711.689	172.831	0.152	0.220
-710.675	-171.229	-0.114	0.004
-709.660	181.932	-0.116	-0.172
-708.645	-59.040	0.165	-0.072
-707.631	-21.148	-0.118	-0.073
-706.616	1.465	-0.311	-0.225
-705.602	-94.653	0.214	-0.059
-704.587	-200.000	-0.022	0.260
-703.572	-200.000	0.003	-0.022
-702.558	-200.000	-0.036	0.241
-701.543	642.484	0.037	0.094
-700.529	-30.550	0.171	0.097
-699.514	800.000	0.152	0.550
-698.499	82.021	0.113	-0.123
-697.485	692.953	0.145	0.383
-696.470	-48.351	0.338	0.164
-695.456	-171.824	-0.527	0.017
-694.441	-92.771	0.191	0.054
-693.426	800.000	0.068	0.252
-692.412	800.000	-0.061	0.186
-691.397	712.115	-0.123	0.327
-690.383	72.019	-0.141	-0.147
-689.368	-40.326	-0.023	0.012
-688.354	-19.161	-0.403	-0.252
-687.339	-134.685	0.114	0.014
-686.324	133.175	-0.053	-0.069
-685.310	-145.576	-0.150	-0.014
-684.295	31.457	0.271	0.234
-683.281	-86.287	0.163	0.050
-682.266	-156.071	-0.582	-0.037
-681.251	313.035	-0.106	0.199
-680.237	420.998	0.085	-0.184
-679.222	6.848	0.200	0.150
-678.208	578.028	0.039	0.095
-677.193	288.475	-0.081	-0.148
-676.178	-200.000	0.010	0.319
-675.164	524.509	-0.042	0.100
-674.149	87.067	-0.153	0.170
-673.135	-166.539	0.194	0.008
-672.120	-200.000	-0.004	-0.022
-671.105	11.298	-0.250	-0.192
-670.091	-200.000	-0.029	0.210
-669.076	-110.837	-0.254	0.053
-668.062	-200.000	-0.014	0.273
-667.047	-35.040	0.179	-0.098
-666.032	236.687	-0.026	0.044
-665.018	-76.722	-0.150	-0.053
-664.003	-165.278	0.295	0.013
-662.989	-36.140	-0.048	-0.026
-661.974	24.027	-0.283	0.235
-660.959	-200.000	-0.028	-0.234
-659.945	-120.016	-0.247	0.043
-658.930	-200.000	0.024	-0.179
-657.916	550.334	-0.045	0.108
-656.901	-200.000	0.039	0.256
-655.886	15.940	-0.232	0.184
-654.872	-200.000	-0.004	-0.059
-653.857	144.423	-0.264	-0.354
-652.843	121.079	-0.195	0.244
-651.828	84.928	-0.061	-0.067
-650.814	-78.121	0.504	0.174
-649.799	46.153	-0.355	-0.330
-648.784	800.000	-0.005	-0.023
-647.770	416.614	0.135	-0.290
-646.755	-200.000	0.046	-0.209
-645.741	-99.359	0.162	-0.041
-644.726	54.903	-0.305	0.296
-643.711	-88.838	-0.332	0.099
-642.697	346.579	0.133	-0.262
-641.682	-176.710	-0.238	-0.006
-640.668	193.820	-0.088	-0.133
-639.653	800.000	0.113	-0.430
-638.638	71.458	0.164	-0.171
-637.624	-27.237	0.232	-0.136
-636.609	341.277	-0.032	0.062
-635.595	103.901	0.049	-0.058
-634.580	-2.742	0.239	-0.168
-633.565	-48.128	-0.364	-0.177
-632.551	-146.563	-0.083	0.007
-631.536	-25.156	-0.164	-0.097
-630.522	-44.689	-0.322	-0.161
-629.507	-163.245	0.368	-0.018
-628.492	75.835	0.130	0.138
-627.478	-200.000	-0.004	-0.189
-626.463	676.451	0.053	-0.138
-625.449	406.479	0.066	-0.139
-624.434	74.005	0.013	-0.014
-623.419	-138.281	0.257	0.029
-622.405	480.310	0.110	0.251
-621.390	247.898	-0.026	0.044
-620.376	-21.150	0.014	0.009
-619.361	102.066	-0.074	0.087
-618.346	758.959	0.031	0.085
-617.332	-200.000	-0.028	0.155
-616.317	-75.703	0.168	0.060
-615.303	320.770	-0.102	0.194
-614.288	255.239	-0.085	-0.147
-613.273	-133.869	0.157	0.020
-612.259	-79.732	-0.197	-0.067
-611.244	88.662	0.204	-0.227
-610.230	235.780	0.204	0.339
-609.215	800.000	-0.057	-0.211
-608.201	-49.045	0.126	0.060
-607.186	800.000	-0.075	0.312
-606.171	-200.000	0.004	-0.182
-605.157	20.916	0.187	0.152
-604.142	-200.000	-0.014	-0.302
-603.128	-200.000	0.005	-0.046
-602.113	-200.000	-0.035	-0.240
-601.098	590.958	0.101	0.251
-600.084	459.695	0.094	0.210
-599.069	-69.917	-0.135	0.052
-598.055	-89.442	-0.306	0.090
-597.040	-57.047	0.062	0.027
-596.025	800.000	-0.024	-0.089
-595.011	-82.282	-0.230	0.075
-593.996	215.900	-0.165	-0.262
-592.982	-82.420	-0.188	-0.061
-591.967	86.984	0.243	0.269
-590.952	-43.656	0.049	0.025
-589.938	157.289	-0.099	-0.138
-588.923	-73.590	-0.184	-0.067
-587.909	80.104	-0.109	-0.117
-586.894	-200.000	0.009	0.120
-585.879	-200.000	0.008	0.134
-584.865	-125.900	-0.253	0.038
-583.850	-75.880	-0.210	-0.074
-582.836	22.941	0.061	0.050
-581.821	-157.750	0.197	0.012
-580.806	-34.312	-0.281	-0.154
-579.792	-200.000	-0.036	0.299
-578.777	114.272	0.227	0.277
-577.763	113.319	0.186	0.226
-576.748	-122.145	0.106	0.017
-575.733	-24.129	-0.267	-0.160
-574.719	-36.978	0.072	0.038
-573.704	-117.282	0.125	0.023
-572.690	193.953	0.106	0.161
-571.675	-200.000	0.016	0.275
-570.661	800.000	-0.051	0.179
-569.646	205.466	-0.145	0.226
-568.631	-200.000	0.047	0.249
-567.617	-35.486	0.302	-0.164
-566.602	-200.000	-0.054	-0.336
-565.588	800.000	0.103	-0.368
-564.573	463.359	-0.109	-0.243
-563.558	-200.000	-0.022	-0.142
-562.544	-138.103	-0.247	-0.027
-561.529	169.300	-0.017	-0.024
-560.515	-148.806	0.222	-0.018
-559.500	-200.000	-0.018	-0.126
-558.485	76.104	0.232	0.246
-557.471	232.088	-0.148	0.244
-556.456	-200.000	0.010	0.054
-555.442	-45.873	-0.176	-0.087
-554.427	-200.000	0.031	0.168
-553.412	-46.892	-0.287	0.140
-552.398	-92.313	0.228	0.064
-551.383	-200.000	-0.015	-0.152
-550.369	193.499	-0.136	-0.206
-549.354	71.519	-0.215	0.223
-548.339	-200.000	-0.007	-0.117
-547.325	-23.549	0.268	-0.161
-546.310	-200.000	-0.003	-0.052
-545.296	496.981	-0.022	0.050
-544.281	-37.987	-0.236	-0.125
-543.266	37.954	-0.272	0.242
-542.252	224.836	0.146	-0.236
-541.237	-54.417	-0.403	0.183
-540.223	23.387	0.061	0.050
-539.208	383.426	-0.140	0.289
-538.193	-105.263	0.047	0.011
-537.179	-52.539	0.246	-0.114
-536.164	592.748	0.165	0.407
-535.150	-200.000	-0.033	-0.350
-534.135	-200.000	0.003	-0.166
-533.121	800.000	0.074	-0.235
-532.106	-125.961	-0.109	-0.016
-531.091	105.377	-0.157	-0.186
-530.077	800.000	-0.089	-0.271
-529.062	-110.249	0.359	0.075
-528.048	-200.000	-0.029	0.159
-527.033	-36.241	0.274	-0.148
-526.018	-59.634	0.090	-0.038
-525.004	-95.009	0.093	0.025
-523.989	-200.000	0.076	-0.368
-522.975	800.000	0.047	0.197
-521.960	-70.411	0.187	0.071
-520.945	-138.325	-0.045	-0.005
-519.931	-20.712	-0.120	0.074
-518.916	21.865	0.239	-0.194
-517.902	-200.000	0.005	0.401
-516.887	0.537	-0.251	0.179
-515.872	-101.223	0.181	-0.044
-514.858	242.205	0.093	-0.156
-513.843	316.814	0.171	0.322
-512.829	-115.485	0.254	-0.048
-511.814	-185.221	0.058	-0.001
-510.799	56.427	-0.138	0.134
-509.785	-38.138	0.131	-0.070
-508.770	-17.591	0.084	0.053
-507.756	-159.275	0.442	0.025
-506.741	-62.015	-0.451	0.188
-505.726	-129.199	-0.271	-0.038
-504.712	97.238	-0.113	0.130
-503.697	392.036	-0.121	0.252
-502.683	800.000	0.041	-0.142
-501.668	-121.942	0.041	0.007
-500.653	-200.000	-0.044	-0.256
-499.639	193.186	0.154	-0.233
-498.624	-200.000	-0.031	-0.137
-497.610	42.856	0.105	0.095
-496.595	123.438	0.215	0.269
-495.581	800.000	-0.085	0.242
-494.566	-200.000	0.009	0.042
-493.551	-116.589	0.292	0.054
-492.537	-74.373	-0.169	0.061
-491.522	-14.041	0.080	0.052
-490.508	-131.927	-0.221	-0.029
-489.493	-15.767	0.148	-0.094
-488.478	-32.892	-0.510	-0.283
-487.464	-178.635	0.187	0.004
-486.449	113.454	-0.157	0.190
-485.435	190.489	0.039	0.058
-484.420	-129.835	-0.436	-0.060
-483.405	171.887	-0.094	-0.135
-482.391	-23.298	0.427	0.256
-481.376	81.628	0.304	-0.328
-480.362	136.365	-0.124	-0.161
-479.347	800.000	0.076	-0.225
-478.332	-95.603	-0.444	0.119
-477.318	84.527	-0.218	-0.238
-476.303	-200.000	-0.035	0.236
-475.289	-96.630	-0.262	-0.069
-474.274	363.483	-0.191	-0.384
-473.259	58.190	-0.064	0.063
-472.245	-13.384	0.226	-0.146
-471.230	800.000	0.057	-0.189
-470.216	-79.783	-0.368	0.123
-469.201	234.089	0.138	0.227
-468.186	-200.000	-0.003	-0.282
-467.172	-83.493	-0.239	0.076
-466.157	800.000	0.055	0.177
-465.143	338.716	-0.098	-0.189
-464.128	800.000	0.072	-0.230
-463.113	208.136	0.199	-0.310
-462.099	-178.354	0.135	-0.003
-461.084	478.726	-0.021	-0.048
-460.070	-82.145	-0.121	-0.039
-459.055	-33.181	-0.328	-0.181
-458.040	800.000	-0.061	-0.180
-457.026	-95.958	0.196	-0.052
-456.011	-172.415	0.170	-0.005
-454.997	179.444	0.104	0.152
-453.982	-16.742	0.163	0.103
-452.968	-92.051	-0.250	0.070
-451.953	-65.508	0.255	0.102
-450.938	19.869	-0.238	0.191
-449.924	-118.597	-0.305	-0.054
-448.909	21.390	-0.196	-0.159
-447.895	-68.150	-0.114	0.044
-446.880	-63.430	-0.178	0.073
-445.865	-79.973	-0.198	-0.066
-444.851	82.550	0.297	-0.321
-443.836	-49.384	0.174	0.083
-442.822	745.886	0.040	0.107
-441.807	-60.591	-0.252	-0.107
-440.792	-67.215	-0.087	0.034
-439.778	32.842	-0.225	0.194
-438.763	132.057	-0.215	0.276
-437.749	59.382	0.372	-0.365
-436.734	-35.421	-0.229	-0.124
-435.719	580.387	-0.093	0.227
-434.705	-200.000	0.080	0.496
-433.690	-89.745	-0.133	-0.039
-432.676	-65.378	0.255	-0.102
-431.661	-200.000	0.009	0.050
-430.646	-200.000	0.055	0.385
-429.632	-200.000	-0.011	-0.118
-428.617	-171.791	-0.255	-0.008
-427.603	-200.000	-0.051	-0.293
-426.588	463.365	0.094	0.210
-425.573	612.851	0.080	0.200
-424.559	-200.000	-0.025	0.183
-423.544	98.136	0.223	0.255
-422.530	740.270	-0.128	-0.343
-421.515	323.581	-0.153	-0.290
-420.500	1.539	0.173	-0.124
-419.486	-109.846	-0.119	0.025
-418.471	68.837	-0.076	0.078
-417.457	-87.155	0.483	-0.146
-416.442	-200.000	0.000	0.398
-415.428	-200.000	0.016	-0.152
-414.413	112.333	-0.144	0.173
-413.398	87.806	-0.242	0.267
-412.384	556.157	0.088	-0.210
-411.369	452.383	0.040	-0.088
-410.355	800.000	-0.091	-0.314
-409.340	4.095	0.137	-0.100
-408.325	-87.546	0.240	-0.072
-407.311	370.541	-0.126	-0.254
-406.296	-94.097	0.160	-0.044
-405.282	-200.000	0.022	0.318
-404.267	-200.000	0.130	-0.000
-403.252	800.000	0.087	0.311
-402.238	102.560	0.148	-0.172
-401.223	-65.179	0.303	-0.122
-400.209	-200.000	-0.011	-0.134
-399.194	39.257	0.082	0.073
-398.179	80.162	-0.043	-0.047
-397.165	226.708	-0.038	0.062
-396.150	-200.000	-0.030	0.151
-395.136	-117.162	-0.148	0.027
-394.121	170.472	-0.083	-0.118
-393.106	8.708	-0.105	0.078
-392.092	173.064	-0.147	0.211
-391.077	-21.634	0.094	-0.057
-390.063	-123.340	0.336	0.053
-389.048	527.065	0.055	-0.129
-388.033	30.139	-0.128	-0.108
-387.019	696.178	0.040	0.105
-386.004	-97.720	0.180	-0.046
-384.990	4.916	0.089	0.065
-383.975	-134.163	0.114	-0.014
-382.960	741.093	0.147	-0.392
-381.946	219.001	-0.142	0.225
-380.931	240.804	0.179	0.297
-379.917	231.958	0.179	-0.291
-378.902	392.802	-0.107	-0.221
-377.888	-200.000	-0.009	0.390
-376.873	-200.000	0.016	-0.198
-375.858	15.130	-0.164	0.128
-374.844	800.000	-0.089	0.259
-373.829	-55.059	-0.078	-0.035
-372.815	-13.630	0.150	0.096
-371.800	800.000	0.029	-0.120
-370.785	-127.265	-0.380	-0.055
-369.771	224.542	-0.185	0.298
-368.756	-76.459	-0.296	-0.103
-367.742	-200.000	0.032	-0.173
-366.727	-200.000	-0.006	-0.141
-365.712	598.310	-0.092	-0.227
-364.698	360.050	0.193	-0.383
-363.683	60.798	0.122	0.120
-362.669	800.000	0.026	0.097
-361.654	56.075	-0.093	-0.090
-360.639	-105.780	0.471	-0.106
-359.625	533.127	-0.042	0.098
-358.610	122.287	0.058	-0.073
-357.596	800.000	0.162	0.445
-356.581	177.634	0.080	-0.116
-355.566	-98.658	0.034	-0.009
-354.552	-60.577	-0.460	-0.194
-353.537	800.000	0.033	0.126
-352.523	-33.477	-0.058	-0.032
-351.508	800.000	-0.012	0.039
-350.493	16.703	-0.080	0.063
-349.479	-200.000	0.019	-0.215
-348.464	-27.732	-0.271	0.156
-347.450	37.036	0.118	-0.103
-346.435	-18.433	-0.238	0.147
-345.420	29.778	0.174	-0.147
-344.406	182.495	0.068	-0.099
-343.391	140.768	0.116	0.152
-342.377	435.872	-0.048	-0.103
-341.362	116.698	-0.104	0.127
-340.348	112.148	0.046	0.056
-339.333	37.627	-0.097	0.085
-338.318	-200.000	0.085	0.527
-337.304	330.968	-0.043	0.082
-336.289	259.177	0.127	0.217
-335.275	800.000	0.085	0.286
-334.260	800.000	-0.046	0.140
-333.245	132.564	-0.249	-0.319
-332.231	800.000	0.110	-0.329
-331.216	-200.000	0.013	-0.217
-330.202	-39.979	0.379	0.196
-329.187	157.195	-0.241	0.331
-328.172	241.575	-0.170	-0.282
-327.158	-58.853	-0.086	-0.037
-326.143	-200.000	0.041	-0.187
-325.129	-200.000	-0.033	-0.306
-324.114	-200.000	0.013	0.166
-323.099	-159.950	-0.175	0.009
-322.085	29.558	-0.114	0.096
-321.070	-52.568	0.212	0.097
-320.056	229.928	-0.098	-0.159
-319.041	-200.000	0.046	-0.217
-318.026	800.000	-0.085	0.253
-317.012	-143.257	0.136	-0.013
-315.997	-71.440	0.624	0.232
-314.983	-200.000	-0.033	0.263
-313.968	-74.208	0.227	-0.082
-312.953	-200.000	-0.035	0.208
-311.939	800.000	0.044	-0.154
-310.924	-150.194	-0.107	-0.008
-309.910	240.952	0.076	-0.125
-308.895	24.512	-0.321	0.263
-307.880	108.650	0.228	0.270
-306.866	-200.000	0.044	-0.266
-305.851	475.100	-0.079	0.176
-304.837	-171.250	-0.080	0.003
-303.822	-81.148	-0.428	0.140
-302.807	17.587	0.188	-0.148
-301.793	151.147	-0.155	0.210
-300.778	-88.415	0.136	0.040
-299.764	37.261	-0.095	-0.084
-298.749	155.732	-0.222	-0.303
-297.735	800.000	0.066	-0.239
-296.720	378.269	0.186	0.378
-295.705	-44.575	0.048	-0.024
-294.691	30.553	-0.098	-0.083
-293.676	-34.594	0.102	0.056
-292.662	-200.000	0.019	-0.247
-291.647	177.711	0.117	0.169
-290.632	-200.000	0.013	0.142
-289.618	-68.471	0.353	-0.136
-288.603	800.000	-0.082	-0.329
-287.589	-125.571	-0.145	0.022
-286.574	-123.891	0.263	0.041
-285.559	800.000	0.028	-0.081
-284.545	387.929	-0.091	0.187
-283.530	284.185	-0.218	-0.389
-282.516	-121.674	-0.280	0.046
-281.501	-200.000	-0.059	0.267
-280.486	135.135	0.097	0.125
-279.472	65.183	-0.069	0.069
-278.457	-94.437	-0.173	0.047
-277.443	-69.521	0.372	-0.141
-276.428	-154.681	-0.178	0.012
-275.413	-82.078	-0.203	0.066
-274.399	115.909	-0.085	-0.103
-273.384	-52.959	0.215	-0.098
-272.370	800.000	0.082	0.276
-271.355	-136.025	-0.565	-0.066
-270.340	196.138	0.072	-0.109
-269.326	-136.185	0.070	0.008
-268.311	800.000	-0.046	-0.169
-267.297	136.689	0.114	0.147
-266.282	-95.658	-0.166	0.044
-265.267	11.425	-0.296	0.225
-264.253	-143.704	0.265	-0.025
-263.238	-1.528	0.050	0.035
-262.224	226.851	0.134	0.215
-261.209	262.174	-0.156	0.268
-260.195	-112.393	-0.335	0.066
-259.180	-73.789	-0.216	0.078
-258.165	188.432	0.082	-0.121
-257.151	-155.876	0.108	0.007
-256.136	16.201	0.021	0.016
-255.122	-40.998	-0.225	-0.115
-254.107	190.284	-0.201	-0.298
-253.092	-124.084	0.234	-0.036
-252.078	-4.519	-0.070	0.048
-251.063	-27.202	0.407	-0.235
-250.049	-21.490	0.210	-0.127
-249.034	139.222	0.139	0.180
-248.019	-200.000	-0.021	-0.188
-247.005	-200.000	-0.020	-0.164
-245.990	800.000	0.059	-0.239
-244.976	383.120	0.061	0.124
-243.961	-200.000	-0.001	0.128
-242.946	-92.708	0.069	-0.019
-241.932	-200.000	-0.032	0.251
-240.917	-200.000	0.047	0.343
-239.903	-7.910	-0.162	-0.108
-238.888	-200.000	-0.013	-0.122
-237.873	23.479	0.216	-0.176
-236.859	800.000	0.016	-0.058
-235.844	-200.000	0.081	0.000
-234.830	158.351	0.043	0.058
-233.815	-200.000	-0.028	0.381
-232.800	-200.000	-0.066	0.374
-231.786	35.228	-0.257	-0.223
-230.771	-16.358	0.134	-0.084
-229.757	212.583	-0.159	-0.247
-228.742	74.261	-0.172	-0.178
-227.727	5.987	0.216	0.158
-226.713	-200.000	0.046	-0.265
-225.698	-189.264	0.164	0.002
-224.684	27.190	-0.221	0.183
-223.669	800.000	0.019	-0.073
-222.655	-106.736	0.270	0.059
-221.640	-200.000	-0.017	-0.458
-220.625	750.433	-0.050	0.134
-219.611	-200.000	0.011	-0.057
-218.596	-72.874	0.369	0.134
-217.582	-200.000	0.004	-0.145
-216.567	419.824	-0.209	-0.442
-215.552	-200.000	-0.008	0.199
-214.538	187.158	0.081	-0.119
-213.523	-113.065	-0.107	-0.021
-212.509	367.528	-0.157	0.312
-211.494	-200.000	0.052	0.426
-210.479	133.871	0.156	0.199
-209.465	53.203	-0.278	0.263
-208.450	-43.472	-0.260	0.130
-207.436	-200.000	0.034	-0.195
-206.421	-111.909	0.193	-0.038
-205.406	-97.869	-0.094	-0.024
-204.392	-57.906	0.154	-0.066
-203.377	-5.182	0.106	0.072
-202.363	-200.000	0.014	0.067
-201.348	123.245	0.073	0.090
-200.333	-200.000	0.010	0.182
-199.319	48.476	0.040	0.037
-198.304	23.715	0.348	0.283
-197.290	-200.000	-0.033	0.160
-196.275	172.522	0.101	-0.144
-195.260	-1.054	-0.283	0.197
-194.246	475.350	0.045	-0.100
-193.231	216.620	0.018	0.028
-192.217	-200.000	0.070	0.392
-191.202	73.407	0.185	0.191
-190.187	50.029	-0.279	0.260
-189.173	-200.000	-0.015	0.262
-188.158	-86.661	0.155	0.047
-187.144	756.476	-0.070	0.186
-186.129	-200.000	0.011	-0.160
-185.114	800.000	0.017	0.058
-184.100	-146.699	0.275	-0.023
-183.085	-200.000	0.020	-0.152
-182.071	348.372	0.105	0.205
-181.056	-145.148	0.339	-0.030
-180.042	800.000	-0.053	-0.197
-179.027	-145.483	0.133	-0.012
-178.012	406.972	0.013	-0.027
-176.998	229.082	-0.096	0.154
-175.983	-200.000	-0.016	0.192
-174.969	-200.000	0.012	-0.159
-173.954	-200.000	-0.029	-0.158
-172.939	18.927	-0.199	0.157
-171.925	246.375	0.158	-0.263
-170.910	-18.250	-0.333	-0.205
-169.896	-141.069	0.250	0.025
-168.881	137.224	0.145	0.187
-167.866	800.000	0.027	-0.100
-166.852	-9.321	-0.319	-0.210
-165.837	43.267	-0.146	-0.131
-164.823	-100.428	0.304	-0.074
-163.808	359.009	0.069	0.137
-162.793	-200.000	-0.025	0.154
-161.779	-93.297	0.237	-0.065
-160.764	16.943	-0.105	-0.082
-159.750	-108.383	-0.187	-0.040
-158.735	-112.007	0.101	-0.020
-157.720	128.979	-0.075	0.094
-156.706	-23.147	-0.059	-0.035
-155.691	-58.159	-0.107	-0.046
-154.677	351.473	0.242	-0.471
-153.662	-153.687	0.184	0.012
-152.647	-132.291	0.103	-0.013
-151.633	182.308	-0.142	-0.206
-150.618	84.282	-0.113	-0.122
-149.604	498.977	0.149	0.339
-148.589	-167.672	-0.107	-0.004
-147.574	-127.752	-0.400	0.057
-146.560	-70.246	0.314	-0.117
-145.545	374.105	-0.166	-0.332
-144.531	-17.246	0.222	-0.138
-143.516	472.725	0.142	0.315
-142.502	18.661	0.327	0.257
-141.487	-48.206	-0.081	-0.039
-140.472	99.195	0.339	-0.386
-139.458	44.311	0.098	0.089
-138.443	-73.713	0.098	0.035
-137.429	-200.000	0.023	0.137
-136.414	-87.598	-0.248	0.074
-135.399	738.153	0.079	-0.209
-134.385	800.000	-0.129	-0.440
-133.370	-200.000	0.025	-0.130
-132.356	57.196	-0.156	0.150
-131.341	800.000	-0.044	-0.122
-130.326	-42.263	0.076	-0.038
-129.312	800.000	0.025	0.072
-128.297	30.157	-0.223	0.187
-127.283	62.981	0.148	0.146
-126.268	204.465	-0.114	-0.174
-125.253	-127.577	-0.072	0.010
-124.239	-112.183	0.136	-0.027
-123.224	-7.457	-0.121	0.081
-122.210	63.545	0.288	-0.285
-121.195	200.767	0.125	-0.189
-120.180	-107.000	0.016	0.003
-119.166	-200.000	-0.010	0.112
-118.151	800.000	0.013	-0.044
-117.137	-88.192	-0.242	-0.071
-116.122	361.771	0.123	-0.243
-115.107	-3.075	-0.175	0.120
-114.093	-12.778	-0.448	0.287
-113.078	-3.141	0.332	0.228
-112.064	-1.578	0.048	-0.033
-111.049	75.488	0.135	-0.140
-110.034	-105.462	-0.520	-0.116
-109.020	-34.290	0.408	-0.220
-108.005	28.691	0.274	0.228
-106.991	-72.171	0.198	0.072
-105.976	62.812	-0.107	0.105
-104.962	-8.418	0.058	0.038
-103.947	-17.181	-0.400	-0.248
-102.932	126.314	-0.053	-0.066
-101.918	-43.957	-0.335	0.165
-100.903	-200.000	0.040	-0.222
-99.889	-200.000	-0.121	-0.593
-98.874	-88.908	-0.263	0.077
-97.859	15.981	-0.087	0.068
-96.845	-83.010	-0.156	0.049
-95.830	131.518	0.054	0.069
-94.816	-75.323	0.451	-0.158
-93.801	-200.000	0.027	0.147
-92.786	400.017	0.091	0.187
-91.772	346.444	0.148	-0.286
-90.757	12.685	0.173	0.131
-89.743	4.658	0.138	0.100
-88.728	-172.176	-0.067	-0.002
-87.713	800.000	0.029	0.120
-86.699	-166.134	0.253	-0.011
-85.684	93.884	-0.248	0.277
-84.670	580.231	-0.142	0.343
-83.655	800.000	0.047	-0.156
-82.640	-200.000	-0.024	0.353
-81.626	-200.000	0.008	0.041
-80.611	69.175	0.128	-0.129
-79.597	60.439	-0.262	0.255
-78.582	-45.180	0.205	0.100
-77.567	779.251	-0.063	-0.169
-76.553	-94.417	-0.447	-0.120
-75.538	-184.461	-0.326	-0.005
-74.524	-119.424	0.282	0.048
-73.509	-127.061	-0.274	0.040
-72.494	-30.190	-0.299	0.167
-71.480	-35.385	0.145	-0.077
-70.465	52.293	0.156	0.146
-69.451	-114.499	-0.215	-0.041
-68.436	-200.000	-0.023	-0.265
-67.422	210.626	0.141	0.218
-66.407	-13.340	0.230	0.146
-65.392	-59.204	-0.009	0.004
-64.378	-69.299	-0.277	0.105
-63.363	-3.305	-0.085	0.058
-62.349	-167.808	0.299	0.012
-61.334	168.386	-0.892	-1.246
-60.319	16.157	0.617	0.478
-59.305	-200.000	-0.056	-0.789
-58.290	755.288	0.436	1.159
-57.276	216.869	0.858	1.340
-56.261	-200.000	108.966	604.800
-55.246	509.699	1494.308	3408.871
-54.232	179.214	2676.330	3842.186
-53.217	110.393	2148.983	2533.794
-52.203	40.687	1598.547	1413.998
-51.188	32.923	1339.389	1138.135
-50.173	29.986	1298.260	1085.951
-49.159	53.466	1353.573	1273.558
-48.144	53.707	1369.514	1289.953
-47.130	33.006	1323.539	1124.983
-46.115	29.699	1305.307	1089.980
-45.100	29.421	1300.484	1084.275
-44.086	29.336	1298.123	1081.765
-43.071	29.370	1295.895	1080.065
-42.057	29.262	1293.898	1077.722
-41.042	29.418	1291.863	1076.901
-40.027	29.386	1290.468	1075.504
-39.013	29.359	1288.935	1074.025
-37.998	29.273	1287.229	1072.061
-36.984	29.415	1284.966	1070.960
-35.969	29.489	1283.170	1069.851
-34.954	29.468	1281.796	1068.540
-33.940	29.549	1280.308	1067.726
-32.925	29.556	1279.079	1066.702
-31.911	29.601	1277.772	1065.825
-30.896	29.572	1276.363	1064.440
-29.881	29.693	1274.697	1063.707
-28.867	29.669	1273.580	1062.593
-27.852	29.575	1272.080	1060.762
-26.838	29.651	1270.403	1059.755
-25.823	29.574	1269.619	1058.619
-24.809	29.715	1267.849	1057.907
-23.794	29.512	1266.831	1055.857
-22.779	29.492	1265.723	1054.780
-21.765	29.593	1263.582	1053.526
-20.750	29.586	1263.096	1053.039
-19.736	29.587	1261.437	1051.623
-18.721	29.452	1260.674	1050.174
-17.706	29.506	1259.334	1049.326
-16.692	29.427	1258.487	1048.130
-15.677	29.404	1257.460	1047.101
-14.663	29.443	1256.212	1046.242
-13.648	29.521	1254.960	1045.598
-12.633	29.444	1254.157	1044.453
-11.619	29.430	1253.433	1043.728
-10.604	29.398	1252.348	1042.604
-9.590	29.437	1251.703	1042.244
-8.575	29.482	1250.469	1041.427
-7.560	29.517	1249.472	1040.754
-6.546	29.431	1248.964	1039.805
-5.531	29.421	1248.066	1038.961
-4.517	29.323	1247.533	1037.923
-3.502	29.409	1246.371	1037.400
-2.487	29.485	1244.681	1036.379
-1.473	29.479	1240.856	1033.121
-0.458	27.883	1225.864	1011.764
0.556	25.745	1208.610	973.089
1.571	21.785	1213.420	955.337
2.586	20.820	1227.590	961.086
3.600	20.422	1215.932	949.700
4.615	15.630	1144.937	869.438
5.629	7.648	1071.777	775.012
6.644	4.103	1052.644	744.104
7.659	3.730	1050.600	740.809
8.673	3.630	1049.139	739.233
9.688	3.459	1047.857	737.446
10.702	3.984	1045.981	738.568
11.717	9.116	1052.925	768.002
12.731	17.527	1064.873	817.181
13.746	22.443	1070.991	845.466
14.761	23.421	1071.512	850.498
15.775	22.789	1070.173	846.334
16.790	21.982	1068.344	840.949
17.804	21.436	1067.647	837.710
18.819	21.397	1066.543	836.580
19.834	21.440	1066.034	836.316
20.848	21.559	1065.434	836.339
21.863	21.398	1064.510	834.772
22.877	21.237	1063.788	833.360
23.892	21.209	1062.941	832.490
24.907	21.001	1062.496	831.077
25.921	20.987	1061.170	829.901
26.936	20.873	1060.265	828.577
27.950	20.962	1058.679	827.689
28.965	20.980	1057.431	826.722
29.980	21.218	1056.138	826.768
30.994	21.228	1055.356	826.127
32.009	21.422	1054.016	825.924
33.023	21.383	1053.072	824.927
34.038	21.205	1052.315	823.420
35.053	21.058	1051.333	821.886
36.067	21.020	1050.473	820.961
37.082	21.129	1049.503	820.647
38.096	21.225	1049.209	820.793
39.111	21.258	1048.528	820.342
40.126	21.047	1046.819	817.943
41.140	20.622	1045.687	814.995
42.155	20.451	1044.083	812.875
43.169	20.416	1042.903	811.720
44.184	20.393	1042.354	811.112
45.199	20.383	1041.542	810.364
46.213	20.699	1040.587	811.021
47.228	21.063	1040.182	812.330
48.242	21.093	1039.508	811.870
49.257	21.016	1038.711	810.820
50.271	21.228	1037.497	810.781
51.286	21.255	1037.483	810.825
52.301	21.282	1036.374	810.014
53.315	21.076	1035.089	807.984
54.330	20.980	1033.926	806.561
55.344	20.751	1033.143	804.817
56.359	20.790	1032.524	804.444
57.374	20.703	1031.236	802.971
58.388	20.514	1030.570	801.506
59.403	20.320	1029.977	800.083
60.417	20.412	1029.063	799.722
61.432	20.322	1028.462	798.775
62.447	20.291	1027.629	797.911
63.461	20.215	1026.626	796.712
64.476	20.203	1025.872	796.005
65.490	20.148	1024.958	794.970
66.505	20.207	1024.170	794.561
67.520	20.293	1023.678	794.503
68.534	20.171	1023.009	793.357
69.549	19.986	1022.818	792.290
70.563	20.006	1021.119	790.997
71.578	19.709	1020.348	788.970
72.593	19.711	1019.089	787.936
73.607	19.832	1018.797	788.193
74.622	19.881	1018.423	788.059
75.636	19.976	1017.458	787.673
76.651	19.981	1016.926	787.216
77.666	20.068	1016.389	787.126
78.680	20.097	1015.527	786.518
79.695	20.032	1015.060	785.794
80.709	20.235	1014.840	786.474
81.724	20.388	1014.017	786.460
82.739	20.690	1013.041	787.001
83.753	21.080	1013.148	788.777
84.768	21.420	1012.829	789.995
85.782	21.664	1011.764	790.194
86.797	21.526	1011.103	788.985
87.812	21.239	1010.163	786.889
88.826	21.358	1008.803	786.296
89.841	21.355	1008.261	785.791
90.855	21.553	1007.065	785.677
91.870	21.588	1006.192	785.083
92.884	21.395	1005.839	783.875
93.899	21.423	1004.547	782.926
94.914	21.513	1003.707	782.601
95.928	21.480	1002.809	781.687
96.943	21.169	1001.712	779.371
97.957	21.183	1001.223	778.987
98.972	21.211	1000.044	778.124
99.987	21.295	999.493	777.999
101.001	21.262	998.362	776.906
102.016	21.187	997.448	775.792
103.030	21.357	997.141	776.239
104.045	21.397	996.177	775.599
105.060	21.178	995.305	773.881
106.074	20.756	993.940	770.879
107.089	20.582	993.028	769.337
108.103	20.459	991.558	767.586
109.118	20.286	990.483	765.924
110.133	20.188	989.640	764.771
111.147	20.138	989.036	764.016
112.162	20.213	987.601	763.172
113.176	20.479	987.397	764.115
114.191	20.559	986.800	763.937
115.206	20.456	985.639	762.519
116.220	20.318	985.263	761.552
117.235	20.273	984.547	760.737
118.249	20.175	983.565	759.483
119.264	20.162	982.569	758.586
120.279	20.040	981.926	757.492
121.293	19.945	980.886	756.208
122.308	19.848	979.701	754.803
123.322	19.775	978.851	753.761
124.337	19.791	977.846	752.993
125.352	19.915	976.437	752.377
126.366	19.760	976.048	751.341
127.381	19.936	974.988	751.222
128.395	20.040	974.300	751.075
129.410	19.981	973.634	750.241
130.424	20.250	972.719	750.634
131.439	20.412	972.299	750.943
132.454	20.539	971.191	750.567
133.468	20.524	970.436	749.854
134.483	20.571	969.558	749.314
135.497	20.382	969.114	748.090
136.512	20.568	968.295	748.193
137.527	20.516	967.190	747.046
138.541	20.560	966.827	746.889
139.556	20.699	965.960	746.752
140.570	20.865	965.464	747.011
141.585	21.278	965.059	748.402
142.600	21.090	964.226	746.886
143.614	21.260	963.842	747.248
144.629	21.511	962.867	747.501
145.643	21.374	961.426	745.730
146.658	20.939	960.515	743.104
147.673	20.788	958.661	740.961
148.687	20.563	958.538	739.845
149.702	20.567	956.881	738.514
150.716	20.573	956.249	737.989
151.731	20.589	955.598	737.488
152.746	20.803	954.660	737.607
153.760	20.910	953.793	737.322
154.775	20.867	953.830	737.104
155.789	20.938	952.816	736.555
156.804	20.855	952.345	735.777
157.819	21.065	951.781	736.163
158.833	21.292	951.115	736.541
159.848	21.449	950.507	736.666
160.862	21.229	949.185	734.649
161.877	20.808	947.396	731.433
162.892	20.548	946.127	729.298
163.906	20.415	945.658	728.312
164.921	20.535	944.424	727.802
165.935	20.548	943.784	727.296
166.950	20.693	943.266	727.439
167.964	20.762	942.150	726.803
168.979	20.421	941.315	724.671
169.994	20.644	940.299	724.756
171.008	20.752	940.104	724.991
172.023	21.175	939.321	726.083
173.037	21.301	938.807	726.145
174.052	20.954	937.781	723.844
175.067	20.590	936.627	721.383
176.081	20.341	935.717	719.586
177.096	20.351	935.239	719.193
178.110	20.446	934.571	719.012
179.125	20.396	934.456	718.652
180.140	20.711	934.096	719.615
181.154	20.918	933.869	720.232
182.169	21.121	933.652	720.837
183.183	21.134	932.975	720.305
184.198	21.145	931.921	719.474
185.213	21.118	931.009	718.596
186.227	21.140	930.726	718.403
187.242	21.302	930.273	718.655
188.256	21.429	929.772	718.729
189.271	21.368	929.312	718.056
190.286	21.006	927.819	715.356
191.300	20.344	926.596	711.637
192.315	20.160	925.846	710.242
193.329	20.295	925.548	710.504
194.344	20.551	925.396	711.374
195.359	20.697	924.506	711.224
196.373	20.796	923.645	710.902
197.388	20.944	924.093	711.788
198.402	21.301	924.032	713.137
199.417	21.631	923.036	713.649
200.432	21.807	922.694	714.040
201.446	21.756	922.333	713.490
202.461	21.769	922.087	713.287
203.475	21.505	921.223	711.484
204.490	21.246	919.900	709.348
205.504	21.041	919.203	707.914
206.519	21.040	918.056	706.966
207.534	20.989	917.340	706.145
208.548	21.074	916.720	705.950
209.563	21.153	916.197	705.803
210.577	21.126	915.711	705.257
211.592	21.499	915.431	706.483
212.607	21.628	914.828	706.477
213.621	21.435	914.127	705.094
214.636	21.474	913.294	704.548
215.650	21.396	912.850	703.828
216.665	21.535	911.993	703.663
217.680	21.630	911.158	703.338
218.694	21.730	911.058	703.600
219.709	21.627	910.032	702.333
220.723	21.523	909.358	701.337
221.738	21.317	908.818	700.032
222.753	21.434	907.872	699.707
223.767	21.483	907.835	699.814
224.782	21.713	907.277	700.242
225.796	21.703	906.712	699.705
226.811	21.554	905.813	698.352
227.826	21.312	904.619	696.407
228.840	21.221	903.907	695.434
229.855	21.330	903.123	695.205
230.869	21.209	902.421	694.121
231.884	20.981	902.257	693.028
232.899	21.123	900.916	692.500
233.913	20.934	899.968	690.961
234.928	20.850	899.483	690.195
235.942	20.768	898.680	689.194
236.957	20.748	898.854	689.184
237.972	20.740	898.029	688.459
238.986	20.776	897.549	688.175
240.001	20.949	896.622	688.087
241.015	20.820	896.982	687.791
242.030	21.073	895.936	687.925
243.045	21.174	895.255	687.741
244.059	21.209	894.802	687.471
245.074	21.473	894.179	687.966
246.088	21.371	894.145	687.480
247.103	21.692	893.557	688.228
248.117	21.943	893.408	689.036
249.132	22.264	893.186	690.065
250.147	22.498	892.920	690.718
251.161	22.723	892.194	690.977
252.176	22.687	891.702	690.392
253.190	22.566	891.642	689.810
254.205	22.639	890.752	689.346
255.220	22.458	889.948	687.956
256.234	22.495	889.033	687.333
257.249	22.391	888.701	686.608
258.263	22.386	887.666	685.732
259.278	22.365	887.027	685.094
260.293	22.472	886.391	684.956
261.307	22.550	885.890	684.815
262.322	22.685	885.563	685.024
263.336	22.580	884.768	683.942
264.351	22.533	883.878	683.013
265.366	22.452	883.418	682.281
266.380	22.701	882.785	682.697
267.395	22.451	882.284	681.279
268.409	22.485	880.895	680.278
269.424	22.385	880.377	679.433
270.439	22.313	879.680	678.558
271.453	22.132	878.930	677.221
272.468	22.124	878.472	676.777
273.482	22.183	877.920	676.519
274.497	22.144	877.476	675.966
275.512	22.090	876.895	675.253
276.526	22.198	876.453	675.268
277.541	22.295	875.999	675.232
278.555	22.572	875.563	675.896
279.570	22.756	875.010	676.116
280.585	22.635	874.423	675.138
281.599	22.390	873.200	673.197
282.614	22.073	872.616	671.477
283.628	22.082	871.868	670.877
284.643	22.125	871.441	670.650
285.657	22.188	870.823	670.358
286.672	22.222	870.496	670.175
287.687	22.228	869.532	669.398
288.701	22.282	869.185	669.275
289.716	22.327	868.461	668.831
290.730	22.418	867.770	668.586
291.745	22.321	867.233	667.744
292.760	22.487	867.020	668.149
293.774	22.758	866.983	669.091
294.789	22.609	865.798	667.554
295.803	22.511	864.574	666.178
296.818	22.301	864.139	664.990
297.833	22.216	863.564	664.167
298.847	22.211	862.737	663.455
299.862	22.513	862.241	664.153
300.876	22.704	862.353	664.902
301.891	22.756	861.948	664.727
302.906	22.951	861.278	664.886
303.920	23.044	861.129	665.059
304.935	23.168	860.845	665.251
305.949	22.834	859.793	663.124
306.964	22.718	858.946	661.976
307.979	22.685	858.448	661.411
308.993	22.808	857.990	661.460
310.008	22.925	857.420	661.400
311.022	22.715	856.777	660.058
312.037	22.449	856.307	658.645
313.052	22.306	854.905	656.973
314.066	22.188	854.411	656.094
315.081	22.095	854.153	655.492
316.095	22.246	853.118	655.203
317.110	21.977	852.358	653.559
318.125	22.129	852.077	653.852
319.139	21.984	851.434	652.761
320.154	22.071	850.868	652.593
321.168	22.212	850.734	652.954
322.183	22.231	850.490	652.779
323.197	22.285	849.370	652.065
324.212	22.375	848.744	651.860
325.227	22.205	848.200	650.754
326.241	22.086	847.869	650.001
327.256	22.147	846.817	649.364
328.270	22.218	846.396	649.245
329.285	21.971	845.997	647.971
330.300	22.052	845.459	647.800
331.314	22.238	844.678	647.831
332.329	22.533	844.992	649.099
333.343	22.673	844.559	649.225
334.358	22.470	844.353	648.262
335.373	22.744	843.428	648.501
336.387	22.706	843.687	648.505
337.402	22.757	843.596	648.564
338.416	23.123	842.975	649.374
339.431	23.189	843.009	649.585
340.446	23.185	842.832	649.374
341.460	23.329	842.662	649.715
342.475	23.431	842.054	649.562
343.489	23.495	841.728	649.488
344.504	23.678	841.231	649.715
345.519	23.752	840.614	649.453
346.533	23.639	839.701	648.279
347.548	23.152	838.973	645.882
348.562	22.850	838.448	644.317
349.577	22.683	837.797	643.151
350.592	22.543	836.827	641.842
351.606	22.617	835.991	641.413
352.621	22.499	835.777	640.761
353.635	22.785	834.980	641.134
354.650	22.864	834.195	640.761
355.665	22.856	833.916	640.460
356.679	22.920	833.341	640.192
357.694	22.991	832.504	639.753
358.708	22.944	831.806	638.989
359.723	22.754	831.344	637.889
360.738	22.846	831.112	637.987
361.752	22.908	830.458	637.652
362.767	23.408	829.745	638.851
363.781	23.488	829.776	639.108
364.796	23.739	828.735	639.152
365.810	23.866	828.876	639.663
366.825	23.935	828.755	639.761
367.840	23.723	828.153	638.479
368.854	23.448	827.387	636.842
369.869	23.413	827.173	636.495
370.883	23.461	826.002	635.710
371.898	23.648	826.045	636.356
372.913	23.881	825.422	636.655
373.927	23.478	825.104	634.912
374.942	23.493	824.542	634.476
375.956	23.773	824.411	635.320
376.971	23.788	824.219	635.172
377.986	23.948	823.477	635.114
379.000	24.008	822.882	634.811
380.015	23.877	822.517	634.009
381.029	23.871	821.994	633.526
382.044	23.995	821.418	633.469
383.059	23.905	820.820	632.631
384.073	23.726	819.966	631.283
385.088	23.470	818.797	629.418
386.102	23.276	818.437	628.395
387.117	23.258	817.541	627.589
388.132	23.085	817.195	626.655
389.146	23.242	816.647	626.734
390.161	23.565	816.537	627.735
391.175	23.664	816.162	627.745
392.190	23.716	815.423	627.305
393.205	23.355	814.563	625.313
394.219	23.216	814.075	624.393
395.234	23.083	813.476	623.407
396.248	22.948	813.517	622.909
397.263	22.956	812.873	622.391
398.278	22.974	812.107	621.811
399.292	22.820	811.744	620.936
400.307	22.882	811.153	620.648
401.321	22.915	810.716	620.373
402.336	23.114	810.713	621.016
403.350	23.555	810.118	622.051
404.365	23.665	810.172	622.425
405.380	23.945	809.797	623.061
406.394	24.013	809.739	623.200
407.409	24.185	809.025	623.196
408.423	24.119	809.013	622.902
409.438	24.296	808.669	623.199
410.453	24.232	808.121	622.500
411.467	24.233	807.262	621.787
412.482	24.260	807.326	621.874
413.496	24.349	807.476	622.244
414.511	24.377	806.570	621.589
415.526	24.177	806.142	620.507
416.540	24.231	805.112	619.848
417.555	24.116	805.198	619.459
418.569	24.270	804.603	619.481
419.584	24.118	804.072	618.492
420.599	24.192	803.466	618.227
421.613	163.233	1371.923	1796.385
422.628	141.888	1454.758	1796.484
