DTS Sentinel unit serial number:	SN413079Multiplexer serial number:	ORYXHardware model number:	OX4-SRSoftware version number:	ORYX F/W v4.00 Oryx Data Collector v3.7.2.0data status	okinstallation	princeton_trtdifferential loss correction	single-endedforward channel	channel 1reverse channel	N/Adate	2019/09/13time	15:02:35forward acquisition time	60.00reverse acquisition time	0.00gamma	496.2192k internal	0.2301k external	0.2301temperature offset calibration	1.0160default loss term (dB/km)	0.3790temperature slope calibration	1.0000multiplexer offset coefficient	1.0000multiplexer slope coefficient	1.0000fibre end	0.00T internal ref (°C)	35.62T ext. ref 1 (°C)	4.70T ext. ref 2 (°C)	30.92length (m)	temperature (°C)	Stokes	anti-Stokes-747.200	800.000	-0.076	0.293
-746.185	-123.294	0.132	0.022
-745.171	-200.000	-0.002	-0.092
-744.156	-84.696	-0.071	-0.023
-743.142	93.871	-0.250	0.288
-742.127	-200.000	0.022	0.153
-741.112	-124.002	0.104	0.017
-740.098	800.000	0.051	-0.146
-739.083	25.451	-0.158	-0.134
-738.069	512.478	0.017	-0.040
-737.054	-167.810	-0.221	-0.009
-736.039	211.069	-0.028	-0.044
-735.025	-95.141	-0.227	0.062
-734.010	800.000	0.108	-0.386
-732.996	800.000	-0.142	-0.431
-731.981	19.634	-0.225	-0.184
-730.966	-139.668	-0.253	-0.027
-729.952	182.415	-0.132	-0.198
-728.937	61.144	-0.168	-0.170
-727.923	119.849	-0.061	0.077
-726.908	-60.267	-0.383	0.166
-725.894	-200.000	0.025	-0.307
-724.879	-83.571	0.062	-0.020
-723.864	-8.511	-0.089	-0.061
-722.850	9.740	-0.144	-0.111
-721.835	-107.348	-0.385	0.086
-720.821	15.498	-0.317	-0.254
-719.806	-200.000	0.002	-0.170
-718.791	5.803	0.111	0.084
-717.777	-4.530	0.517	-0.364
-716.762	-200.000	-0.044	-0.268
-715.748	-200.000	-0.013	0.176
-714.733	74.576	0.206	0.220
-713.718	-119.173	0.167	-0.030
-712.704	-122.695	-0.054	0.009
-711.689	-143.043	-0.474	-0.047
-710.675	-200.000	-0.015	-0.232
-709.660	-200.000	0.019	0.163
-708.645	-200.000	0.042	-0.187
-707.631	99.668	-0.077	-0.090
-706.616	609.665	-0.075	-0.191
-705.602	-161.597	0.314	0.016
-704.587	-170.391	0.311	-0.011
-703.572	-137.156	-0.219	0.025
-702.558	23.116	-0.150	-0.126
-701.543	-112.171	0.249	0.051
-700.529	-200.000	-0.004	-0.105
-699.514	478.283	0.132	-0.305
-698.499	-200.000	0.030	-0.212
-697.485	3.643	-0.223	0.166
-696.470	10.838	0.178	-0.139
-695.456	-200.000	0.032	-0.330
-694.441	-91.907	0.496	0.143
-693.426	800.000	0.023	0.092
-692.412	41.148	0.313	-0.288
-691.397	-90.671	-0.213	-0.063
-690.383	-76.203	0.478	-0.171
-689.368	800.000	-0.032	0.130
-688.354	-200.000	0.046	0.439
-687.339	490.898	-0.072	-0.168
-686.324	-200.000	-0.036	0.426
-685.310	-200.000	-0.073	0.426
-684.295	-0.469	0.380	0.275
-683.281	139.177	-0.280	0.375
-682.266	13.523	-0.369	0.291
-681.251	56.720	-0.072	0.072
-680.237	94.374	-0.139	-0.161
-679.222	-44.655	0.236	-0.120
-678.208	-1.070	-0.121	0.087
-677.193	253.538	-0.092	-0.161
-676.178	96.721	0.079	-0.092
-675.164	800.000	-0.072	-0.223
-674.149	73.913	-0.059	-0.063
-673.135	36.329	-0.216	0.194
-672.120	366.825	-0.077	0.157
-671.105	800.000	0.072	-0.301
-670.091	308.883	0.069	-0.131
-669.076	163.097	-0.233	0.332
-668.062	800.000	-0.101	-0.317
-667.047	232.477	-0.169	-0.282
-666.032	-123.156	0.100	-0.016
-665.018	456.237	-0.045	-0.101
-664.003	800.000	0.056	0.207
-662.989	-200.000	0.049	-0.408
-661.974	320.161	-0.079	-0.153
-660.959	704.729	0.075	-0.200
-659.945	538.888	0.090	-0.219
-658.930	36.093	-0.110	-0.098
-657.916	104.552	0.100	0.119
-656.901	10.964	0.144	0.112
-655.886	-26.842	-0.037	-0.022
-654.872	800.000	0.098	-0.304
-653.857	-0.189	-0.120	-0.086
-652.843	206.114	0.027	0.043
-651.828	-11.408	-0.252	-0.169
-650.814	27.293	-0.182	0.155
-649.799	180.337	-0.193	0.287
-648.784	-78.561	0.306	-0.106
-647.770	33.375	0.124	-0.110
-646.755	422.475	-0.117	-0.254
-645.741	76.055	0.095	-0.103
-644.726	-200.000	0.064	0.300
-643.711	-94.541	-0.193	-0.053
-642.697	529.685	0.089	0.213
-641.682	186.861	0.131	0.198
-640.668	11.980	0.230	-0.180
-639.653	800.000	0.076	0.261
-638.638	800.000	0.005	0.018
-637.624	92.809	-0.198	-0.227
-636.609	-179.602	0.111	-0.002
-635.595	36.540	-0.185	-0.166
-634.580	800.000	-0.044	-0.124
-633.565	-139.821	-0.345	0.037
-632.551	62.569	0.018	-0.018
-631.536	13.893	0.092	-0.072
-630.522	154.398	0.282	0.393
-629.507	-82.059	-0.230	-0.076
-628.492	-200.000	-0.025	0.124
-627.478	448.910	-0.071	0.159
-626.463	36.081	-0.134	-0.119
-625.449	172.722	-0.014	-0.020
-624.434	204.480	-0.136	-0.213
-623.419	800.000	-0.033	0.133
-622.405	-69.189	0.307	0.120
-621.390	159.445	-0.048	0.068
-620.376	3.454	-0.063	0.046
-619.361	400.255	-0.151	-0.322
-618.346	-143.939	-0.260	0.025
-617.332	-45.442	-0.384	0.193
-616.317	468.234	0.047	0.106
-615.303	88.749	-0.032	0.037
-614.288	-200.000	0.019	-0.110
-613.273	-11.492	-0.210	0.140
-612.259	-153.000	-0.252	0.018
-611.244	50.410	0.197	0.189
-610.230	-30.339	-0.217	-0.125
-609.215	-138.556	0.089	-0.010
-608.201	48.911	-0.033	-0.032
-607.186	-57.914	0.075	0.033
-606.171	9.513	-0.040	0.030
-605.157	233.145	-0.183	-0.305
-604.142	377.476	-0.098	0.204
-603.128	-200.000	-0.042	-0.202
-602.113	-92.832	-0.126	0.036
-601.098	-200.000	0.007	-0.138
-600.084	-173.863	-0.012	0.000
-599.069	73.177	-0.064	0.068
-598.055	-100.659	0.245	0.061
-597.040	-25.552	-0.154	-0.092
-596.025	800.000	-0.005	-0.018
-595.011	-11.216	0.256	0.171
-593.996	407.137	0.149	-0.319
-592.982	-153.228	-0.078	0.006
-591.967	-60.267	0.051	-0.022
-590.952	156.359	-0.134	-0.188
-589.938	-22.820	-0.176	-0.108
-588.923	369.693	-0.086	-0.177
-587.909	338.916	0.091	-0.180
-586.894	5.304	0.139	-0.104
-585.879	-110.841	-0.217	0.045
-584.865	800.000	-0.020	0.075
-583.850	-68.944	-0.266	-0.104
-582.836	81.585	-0.193	0.212
-581.821	-200.000	0.061	0.282
-580.806	-32.111	0.294	-0.167
-579.792	-4.522	-0.396	0.277
-578.777	800.000	-0.058	0.174
-577.763	42.682	-0.135	-0.125
-576.748	-200.000	-0.123	0.566
-575.733	-23.237	0.278	0.170
-574.719	206.424	-0.155	-0.244
-573.704	-16.272	-0.122	0.078
-572.690	-29.959	-0.224	-0.129
-571.675	-140.753	-0.198	-0.021
-570.661	800.000	-0.120	-0.394
-569.646	74.782	-0.109	0.116
-568.631	58.774	-0.120	0.119
-567.617	45.597	-0.250	0.234
-566.602	334.467	-0.123	-0.242
-565.588	-42.074	-0.224	-0.116
-564.573	152.208	-0.073	0.102
-563.558	321.246	0.164	-0.316
-562.544	-15.415	-0.170	0.110
-561.529	9.593	-0.018	-0.014
-560.515	-200.000	0.014	0.234
-559.500	-173.155	0.480	0.015
-558.485	332.180	0.093	-0.181
-557.471	25.154	0.226	-0.190
-556.456	-44.294	0.253	-0.128
-555.442	-200.000	-0.045	0.362
-554.427	800.000	-0.025	0.084
-553.412	-152.302	-0.166	-0.012
-552.398	-77.477	0.302	-0.106
-551.383	-200.000	0.049	-0.374
-550.369	-86.054	0.208	-0.065
-549.354	-142.480	-0.226	0.022
-548.339	14.670	-0.191	0.151
-547.325	169.754	-0.059	-0.085
-546.310	-165.319	0.221	0.010
-545.296	800.000	0.039	0.139
-544.281	-200.000	0.012	0.090
-543.266	45.331	-0.077	-0.072
-542.252	-33.958	0.083	0.046
-541.237	-30.261	-0.277	-0.159
-540.223	-60.373	0.088	0.038
-539.208	53.680	0.119	-0.115
-538.193	-200.000	0.010	0.195
-537.179	800.000	0.053	-0.234
-536.164	-14.619	0.207	-0.134
-535.150	-76.628	0.228	-0.081
-534.135	-78.660	-0.189	0.065
-533.121	800.000	0.099	-0.293
-532.106	53.557	0.072	0.070
-531.091	800.000	0.029	-0.082
-530.077	-34.647	-0.342	-0.189
-529.062	584.472	-0.094	0.234
-528.048	-140.095	0.235	0.025
-527.033	-32.141	0.238	0.135
-526.018	-42.427	0.203	0.105
-525.004	-200.000	-0.005	-0.323
-523.989	-200.000	-0.001	-0.069
-522.975	-73.156	0.140	-0.052
-521.960	421.551	-0.168	0.365
-520.945	-12.277	0.095	-0.063
-519.931	77.829	0.258	-0.278
-518.916	177.289	-0.021	0.030
-517.902	84.738	-0.151	0.168
-516.887	49.289	-0.190	-0.181
-515.872	158.708	-0.109	0.152
-514.858	530.366	-0.052	-0.123
-513.843	110.726	-0.143	0.173
-512.829	179.213	-0.085	0.125
-511.814	-91.579	0.223	0.064
-510.799	-48.929	-0.306	0.148
-509.785	-200.000	0.026	0.289
-508.770	-120.284	-0.092	-0.016
-507.756	71.695	-0.183	-0.192
-506.741	-120.297	-0.180	0.031
-505.726	254.100	0.112	-0.193
-504.712	-86.347	0.340	0.106
-503.697	87.226	-0.361	0.403
-502.683	800.000	-0.032	-0.135
-501.668	-21.449	-0.068	-0.042
-500.653	-67.649	-0.170	0.067
-499.639	-47.990	0.335	-0.164
-498.624	328.491	-0.125	0.243
-497.610	-77.243	0.160	-0.056
-496.595	-93.113	-0.105	-0.029
-495.581	-154.132	-0.093	-0.006
-494.566	113.616	-0.174	0.213
-493.551	-200.000	-0.015	0.072
-492.537	302.362	-0.056	-0.105
-491.522	16.176	-0.143	-0.114
-490.508	637.318	-0.096	0.245
-489.493	-200.000	0.018	-0.362
-488.478	-175.150	0.321	0.009
-487.464	800.000	-0.047	-0.186
-486.449	27.951	0.260	0.222
-485.435	-80.623	0.252	-0.085
-484.420	782.326	-0.087	0.240
-483.405	-161.664	0.291	0.015
-482.391	-131.428	-0.199	0.026
-481.376	-80.022	0.238	-0.081
-480.362	9.180	-0.166	-0.127
-479.347	45.488	-0.203	-0.189
-478.332	384.175	0.095	-0.197
-477.318	295.484	0.097	-0.179
-476.303	-99.991	-0.562	0.141
-475.289	-42.895	0.191	-0.098
-474.274	-200.000	-0.017	-0.311
-473.259	410.461	0.137	-0.293
-472.245	110.674	-0.148	0.180
-471.230	145.071	0.017	0.023
-470.216	326.165	-0.203	0.392
-469.201	607.561	0.054	0.135
-468.186	472.686	0.022	-0.051
-467.172	-129.227	0.182	-0.026
-466.157	-119.724	-0.225	0.039
-465.143	-55.010	0.025	-0.011
-464.128	-138.013	0.204	0.023
-463.113	278.125	0.170	-0.306
-462.099	-43.896	0.307	0.156
-461.084	-20.431	-0.152	0.094
-460.070	146.971	0.049	-0.067
-459.055	800.000	0.027	-0.116
-458.040	-28.345	0.291	-0.169
-457.026	800.000	0.039	0.122
-456.011	239.879	0.097	0.162
-454.997	259.266	0.124	0.216
-453.982	800.000	-0.025	0.099
-452.968	-200.000	0.057	0.346
-451.953	304.249	0.079	0.148
-450.938	-57.987	0.305	-0.134
-449.924	-114.077	-0.067	0.013
-448.909	322.544	0.107	-0.206
-447.895	800.000	0.042	0.147
-446.880	-124.007	0.238	0.038
-445.865	-49.747	-0.195	-0.094
-444.851	-200.000	-0.069	-0.423
-443.836	291.284	0.123	0.225
-442.822	222.319	0.028	-0.046
-441.807	-200.000	0.014	-0.086
-440.792	178.041	-0.151	-0.222
-439.778	-39.397	-0.117	0.062
-438.763	-181.018	0.108	-0.002
-437.749	90.517	-0.063	-0.071
-436.734	19.271	0.109	-0.089
-435.719	-28.145	-0.171	-0.100
-434.705	32.711	0.063	-0.055
-433.690	-18.618	0.308	0.193
-432.676	149.847	0.283	0.387
-431.661	-52.797	0.303	0.141
-430.646	25.631	-0.181	-0.152
-429.632	353.908	0.036	-0.072
-428.617	800.000	-0.050	0.167
-427.603	26.929	-0.212	0.179
-426.588	-200.000	-0.002	-0.156
-425.573	560.923	0.042	0.103
-424.559	800.000	0.042	0.130
-423.544	-47.930	0.086	0.042
-422.530	-200.000	0.018	0.171
-421.515	-65.052	0.147	0.060
-420.500	16.817	-0.159	0.126
-419.486	-60.962	0.146	0.062
-418.471	-165.562	0.460	-0.020
-417.457	99.402	0.132	0.153
-416.442	-15.657	0.171	0.110
-415.428	-13.003	-0.058	-0.038
-414.413	50.331	-0.056	-0.053
-413.398	-41.230	0.397	0.206
-412.384	796.695	0.053	-0.148
-411.369	182.948	0.074	-0.109
-410.355	-66.292	-0.083	-0.033
-409.340	-64.374	0.305	0.125
-408.325	-200.000	0.003	0.032
-407.311	-55.432	-0.171	-0.077
-406.296	-63.152	0.282	-0.117
-405.282	-120.765	0.266	-0.045
-404.267	-200.000	0.017	-0.277
-403.252	-200.000	0.042	0.203
-402.238	-3.988	-0.165	0.115
-401.223	8.869	0.113	0.086
-400.209	266.744	-0.137	-0.241
-399.194	547.552	0.078	-0.188
-398.179	-120.337	-0.284	0.049
-397.165	767.992	-0.024	-0.065
-396.150	-92.765	-0.246	0.069
-395.136	282.851	-0.045	0.081
-394.121	-93.699	0.427	0.118
-393.106	176.678	0.116	-0.170
-392.092	-29.757	-0.109	0.063
-391.077	32.947	-0.289	-0.251
-390.063	-17.109	-0.168	0.107
-389.048	186.532	0.105	-0.157
-388.033	-119.171	0.419	-0.074
-387.019	-71.992	0.240	-0.090
-386.004	347.178	-0.097	0.191
-384.990	-14.813	-0.392	0.253
-383.975	-52.777	-0.113	0.053
-382.960	-147.222	-0.055	-0.005
-381.946	20.018	-0.148	0.120
-380.931	121.450	-0.098	0.123
-379.917	-163.299	0.410	-0.020
-378.902	-200.000	0.029	-0.143
-377.888	-80.957	-0.388	-0.129
-376.873	-4.331	-0.213	-0.148
-375.858	-200.000	0.023	-0.279
-374.844	-26.785	0.099	-0.058
-373.829	-150.690	-0.129	-0.010
-372.815	-152.546	-0.110	-0.008
-371.800	-52.979	-0.228	-0.105
-370.785	-4.695	0.139	-0.096
-369.771	145.535	-0.086	0.115
-368.756	-78.669	0.139	-0.048
-367.742	43.718	0.228	0.210
-366.727	-200.000	0.036	0.310
-365.712	-108.248	0.168	-0.036
-364.698	-80.079	0.220	0.074
-363.683	800.000	0.053	-0.221
-362.669	-79.258	0.226	-0.077
-361.654	-168.511	-0.430	0.017
-360.639	71.091	-0.221	-0.230
-359.625	-89.230	-0.374	-0.111
-358.610	256.750	-0.076	0.131
-357.596	-101.597	-0.192	0.047
-356.581	-36.935	0.355	-0.191
-355.566	88.425	0.054	-0.060
-354.552	-77.932	0.143	0.049
-353.537	-152.803	-0.135	-0.010
-352.523	-200.000	0.003	-0.167
-351.508	-135.540	-0.169	-0.020
-350.493	-33.774	0.036	0.020
-349.479	237.725	0.217	0.361
-348.464	13.781	0.241	-0.188
-347.450	535.807	0.122	0.291
-346.435	-200.000	0.002	0.142
-345.420	-146.511	-0.123	0.011
-344.406	-9.857	0.259	-0.173
-343.391	800.000	-0.074	-0.275
-342.377	-67.372	0.166	0.066
-341.362	-20.309	0.228	-0.141
-340.348	-200.000	-0.002	-0.027
-339.333	-200.000	-0.001	0.260
-338.318	-166.847	0.293	0.012
-337.304	-50.738	-0.198	0.093
-336.289	-200.000	0.031	0.200
-335.275	-200.000	0.018	0.301
-334.260	-55.366	0.284	0.128
-333.245	-50.173	0.471	-0.224
-332.231	-135.533	-0.057	-0.007
-331.216	-59.738	-0.256	-0.110
-330.202	218.387	0.070	0.113
-329.187	149.066	-0.120	0.163
-328.172	-65.484	0.199	0.080
-327.158	-155.046	0.290	-0.019
-326.143	-8.944	0.056	0.037
-325.129	-200.000	0.009	-0.108
-324.114	29.823	-0.220	-0.188
-323.099	-200.000	-0.028	-0.506
-322.085	116.154	0.130	0.160
-321.070	800.000	-0.110	0.344
-320.056	-169.682	-0.202	0.007
-319.041	251.637	0.082	0.140
-318.026	-200.000	-0.011	-0.080
-317.012	800.000	-0.115	-0.334
-315.997	55.933	-0.156	0.152
-314.983	-141.145	0.283	0.029
-313.968	-159.158	0.193	0.011
-312.953	56.949	-0.106	-0.104
-311.939	125.531	0.269	0.341
-310.924	-144.239	0.199	0.019
-309.910	-200.000	-0.004	-0.066
-308.895	-30.345	-0.136	-0.077
-307.880	-200.000	-0.009	-0.174
-306.866	-199.739	0.269	0.001
-305.851	-200.000	0.001	0.068
-304.837	-107.392	0.140	0.031
-303.822	-56.332	-0.341	-0.152
-302.807	-108.895	-0.181	0.039
-301.793	-73.921	0.486	0.177
-300.778	51.792	0.155	0.148
-299.764	103.012	-0.014	0.016
-298.749	-200.000	0.019	-0.190
-297.735	-174.957	-0.574	0.016
-296.720	-6.592	-0.108	0.074
-295.705	2.675	0.131	0.095
-294.691	-95.915	-0.279	0.074
-293.676	4.219	0.313	0.230
-292.662	163.924	0.179	0.252
-291.647	-200.000	0.018	-0.212
-290.632	-186.480	0.371	-0.005
-289.618	-17.141	0.081	-0.051
-288.603	97.750	-0.290	0.334
-287.589	-2.422	-0.144	0.101
-286.574	523.455	0.159	-0.374
-285.559	-200.000	0.012	0.328
-284.545	-74.601	0.233	-0.084
-283.530	-128.933	-0.257	-0.036
-282.516	543.757	0.164	-0.393
-281.501	26.219	0.146	-0.122
-280.486	68.174	0.182	-0.187
-279.472	800.000	0.121	0.350
-278.457	444.111	0.162	-0.356
-277.443	-132.397	-0.199	0.026
-276.428	43.199	0.229	0.209
-275.413	-200.000	0.012	0.116
-274.399	-161.251	-0.309	0.016
-273.384	-100.276	-0.221	0.055
-272.370	-200.000	-0.015	0.154
-271.355	-67.285	-0.322	-0.127
-270.340	-40.299	-0.206	0.107
-269.326	43.247	0.150	-0.137
-268.311	10.624	0.248	0.190
-267.297	-113.142	-0.073	-0.014
-266.282	-200.000	0.015	0.208
-265.267	-118.242	-0.399	-0.071
-264.253	-138.534	0.052	0.006
-263.238	60.056	0.230	-0.227
-262.224	800.000	0.054	0.208
-261.209	393.433	0.090	-0.188
-260.195	-45.715	-0.246	-0.122
-259.180	800.000	-0.071	-0.201
-258.165	-39.768	-0.124	0.065
-257.151	-86.522	-0.077	0.024
-256.136	-200.000	0.019	0.132
-255.122	-119.398	0.345	0.060
-254.107	792.246	-0.063	-0.172
-253.092	693.506	-0.093	-0.245
-252.078	165.987	0.126	-0.178
-251.063	-200.000	0.008	-0.249
-250.049	245.470	-0.100	0.168
-249.034	315.435	-0.187	-0.353
-248.019	72.685	-0.065	0.068
-247.005	-118.347	-0.395	-0.070
-245.990	800.000	-0.018	-0.060
-244.976	-2.789	-0.298	-0.208
-243.961	-44.298	0.253	0.127
-242.946	-18.865	-0.307	-0.191
-241.932	-51.866	0.094	-0.044
-240.917	168.796	0.250	-0.357
-239.903	519.702	0.053	-0.124
-238.888	16.868	-0.099	0.079
-237.873	800.000	-0.086	0.260
-236.859	21.689	0.207	0.168
-235.844	-200.000	-0.007	-0.292
-234.830	165.182	-0.140	0.197
-233.815	-200.000	-0.066	0.317
-232.800	-165.482	0.291	0.013
-231.786	-200.000	-0.049	0.246
-230.771	316.208	-0.048	-0.091
-229.757	-124.074	-0.249	0.039
-228.742	800.000	0.129	0.433
-227.727	-42.614	-0.121	0.061
-226.713	152.690	0.137	-0.187
-225.698	-74.432	-0.282	0.102
-224.684	529.124	-0.118	-0.277
-223.669	-71.231	-0.129	-0.048
-222.655	38.111	-0.143	0.127
-221.640	49.221	-0.123	-0.115
-220.625	800.000	-0.092	0.262
-219.611	-200.000	-0.052	0.342
-218.596	762.015	0.057	-0.154
-217.582	-3.598	-0.229	-0.159
-216.567	-146.837	0.134	0.011
-215.552	-17.412	0.012	-0.008
-214.538	-177.943	0.401	0.010
-213.523	395.308	-0.137	-0.284
-212.509	-99.335	-0.249	0.063
-211.494	-21.418	0.137	-0.083
-210.479	800.000	-0.054	0.214
-209.465	-95.087	0.409	0.110
-208.450	-187.550	-0.050	0.001
-207.436	207.437	0.135	-0.210
-206.421	89.461	0.094	0.105
-205.406	-200.000	-0.038	-0.297
-204.392	-200.000	0.017	-0.157
-203.377	-200.000	-0.039	-0.254
-202.363	113.185	0.202	-0.245
-201.348	-161.073	0.181	-0.009
-200.333	-117.095	-0.082	0.015
-199.319	-114.222	-0.139	-0.027
-198.304	-200.000	0.028	0.322
-197.290	383.597	0.133	0.274
-196.275	-26.907	-0.591	-0.344
-195.260	-40.050	-0.455	-0.237
-194.246	-89.915	-0.054	0.016
-193.231	83.859	-0.147	0.160
-192.217	-200.000	-0.001	-0.193
-191.202	89.173	0.152	0.169
-190.187	-200.000	-0.009	-0.081
-189.173	253.070	0.032	-0.055
-188.158	800.000	-0.132	-0.406
-187.144	-68.160	-0.029	0.011
-186.129	112.964	0.017	-0.020
-185.114	800.000	-0.033	-0.108
-184.100	-93.128	-0.153	0.042
-183.085	183.804	-0.025	0.037
-182.071	255.643	0.062	0.107
-181.056	138.911	-0.034	-0.045
-180.042	-200.000	0.011	-0.186
-179.027	-200.000	0.009	-0.154
-178.012	0.825	-0.071	0.050
-176.998	153.513	-0.270	0.369
-175.983	-40.486	-0.095	-0.049
-174.969	185.448	0.215	-0.319
-173.954	-50.161	0.148	-0.070
-172.939	389.414	0.128	0.264
-171.925	103.648	0.135	0.158
-170.910	-19.129	0.076	0.047
-169.896	-200.000	-0.042	0.575
-168.881	434.784	0.017	0.038
-167.866	170.901	-0.109	-0.156
-166.852	-43.027	0.248	0.125
-165.837	40.583	-0.144	-0.129
-164.823	-94.660	0.179	0.049
-163.808	-2.098	-0.098	-0.068
-162.793	184.292	-0.106	0.156
-161.779	53.317	-0.194	-0.186
-160.764	587.440	-0.085	0.209
-159.750	-200.000	-0.013	0.340
-158.735	800.000	-0.077	0.237
-157.720	-44.012	0.319	0.160
-156.706	-89.644	-0.362	0.106
-155.691	59.165	-0.122	-0.119
-154.677	349.398	0.104	-0.204
-153.662	800.000	0.012	0.040
-152.647	222.872	0.039	0.062
-151.633	215.198	0.139	-0.219
-150.618	-200.000	-0.013	-0.362
-149.604	0.954	-0.117	0.083
-148.589	-79.178	0.227	-0.077
-147.574	-95.518	0.169	0.045
-146.560	39.041	-0.115	0.103
-145.545	-90.693	0.483	0.139
-144.531	-200.000	-0.036	-0.226
-143.516	800.000	-0.043	-0.187
-142.502	-32.669	-0.232	-0.128
-141.487	-200.000	0.042	-0.192
-140.472	-107.257	0.277	-0.061
-139.458	-200.000	0.142	-0.000
-138.443	-108.671	0.318	0.068
-137.429	-200.000	-0.037	-0.273
-136.414	-200.000	-0.019	-0.300
-135.399	-200.000	-0.018	0.189
-134.385	216.890	0.082	0.129
-133.370	-115.290	-0.067	-0.013
-132.356	-0.819	0.217	0.153
-131.341	-123.013	-0.383	0.061
-130.326	22.849	-0.243	0.198
-129.312	422.402	-0.173	-0.370
-128.297	-2.820	0.108	0.075
-127.283	428.267	-0.022	-0.047
-126.268	34.709	-0.051	-0.044
-125.253	189.364	-0.138	0.206
-124.239	265.127	-0.100	0.174
-123.224	-33.461	-0.142	0.078
-122.210	93.674	0.167	-0.188
-121.195	-128.303	-0.080	0.011
-120.180	800.000	-0.062	-0.259
-119.166	58.800	0.289	0.283
-118.151	-180.714	0.247	-0.005
-117.137	63.301	0.071	-0.071
-116.122	-18.529	0.266	-0.165
-115.107	111.419	-0.138	0.165
-114.093	504.605	-0.099	0.229
-113.078	800.000	-0.056	0.231
-112.064	-61.981	0.086	-0.036
-111.049	73.253	-0.218	-0.227
-110.034	602.418	-0.062	0.153
-109.020	-6.688	-0.145	-0.098
-108.005	77.395	0.221	0.234
-106.991	261.331	-0.074	0.128
-105.976	-148.416	0.099	0.008
-104.962	-12.360	-0.201	0.131
-103.947	-108.644	0.588	0.125
-102.932	-36.367	-0.200	0.107
-101.918	-200.000	-0.005	-0.156
-100.903	73.547	-0.127	-0.132
-99.889	-168.620	-0.164	-0.006
-98.874	167.766	-0.210	0.296
-97.859	-200.000	-0.009	0.143
-96.845	-200.000	0.023	-0.294
-95.830	-127.628	0.371	0.053
-94.816	483.319	-0.060	0.135
-93.801	-29.096	0.177	0.101
-92.786	59.634	0.199	-0.195
-91.772	-200.000	-0.035	0.283
-90.757	-151.236	-0.161	0.012
-89.743	-200.000	0.047	0.779
-88.728	-200.000	0.048	0.339
-87.713	191.327	-0.156	0.233
-86.699	-200.000	0.004	0.253
-85.684	-161.458	0.351	0.018
-84.670	800.000	0.079	-0.231
-83.655	633.717	0.097	-0.244
-82.640	-34.337	0.223	-0.121
-81.626	566.203	0.040	0.096
-80.611	-200.000	-0.032	0.220
-79.597	42.331	0.204	0.185
-78.582	-74.114	-0.025	-0.009
-77.567	-42.677	-0.328	0.166
-76.553	-80.452	-0.198	-0.066
-75.538	800.000	0.064	0.220
-74.524	25.323	-0.195	0.161
-73.509	634.029	-0.045	0.114
-72.494	-200.000	-0.060	0.271
-71.480	-200.000	-0.035	0.172
-70.465	405.076	-0.214	-0.448
-69.451	81.037	0.098	0.105
-68.436	-200.000	0.038	0.313
-67.422	-33.275	0.125	0.069
-66.407	158.540	-0.159	-0.219
-65.392	217.119	-0.104	-0.165
-64.378	368.267	-0.084	0.169
-63.363	-152.515	0.132	0.009
-62.349	321.939	0.063	0.119
-61.334	99.212	-0.846	-0.971
-60.319	-31.039	0.480	0.269
-59.305	592.990	-0.316	-0.775
-58.290	738.219	0.356	0.948
-57.276	284.320	1.017	1.817
-56.261	-200.000	93.684	552.006
-55.246	607.472	1387.347	3434.319
-54.232	184.973	2604.277	3833.859
-53.217	122.045	2198.643	2723.835
-52.203	47.352	1647.661	1523.320
-51.188	39.083	1381.418	1225.812
-50.173	35.760	1338.439	1167.495
-49.159	56.915	1385.932	1339.975
-48.144	61.072	1404.338	1383.342
-47.130	39.491	1359.666	1208.825
-46.115	35.808	1341.331	1170.125
-45.100	35.605	1336.713	1164.819
-44.086	35.457	1334.129	1161.628
-43.071	35.504	1331.795	1159.834
-42.057	35.432	1330.333	1158.080
-41.042	35.492	1328.047	1156.408
-40.027	35.530	1326.442	1155.191
-39.013	35.552	1324.394	1153.495
-37.998	35.511	1322.650	1151.682
-36.984	35.658	1321.132	1151.195
-35.969	35.737	1319.009	1149.773
-34.954	35.659	1317.324	1147.794
-33.940	35.701	1316.025	1146.866
-32.925	35.834	1314.773	1146.520
-31.911	35.673	1313.612	1144.502
-30.896	35.811	1311.733	1143.641
-29.881	35.681	1310.390	1141.651
-28.867	35.784	1309.231	1141.209
-27.852	35.682	1307.733	1139.253
-26.838	35.732	1305.912	1137.918
-25.823	35.699	1304.605	1136.541
-24.809	35.711	1303.224	1135.361
-23.794	35.652	1301.853	1133.775
-22.779	35.701	1300.265	1132.637
-21.765	35.780	1298.877	1131.846
-20.750	35.707	1297.822	1130.453
-19.736	35.559	1296.472	1128.366
-18.721	35.560	1295.474	1127.455
-17.706	35.581	1293.979	1126.232
-16.692	35.587	1292.825	1125.222
-15.677	35.643	1291.350	1124.220
-14.663	35.565	1290.565	1123.035
-13.648	35.525	1289.359	1121.706
-12.633	35.505	1288.606	1120.893
-11.619	35.507	1287.668	1120.042
-10.604	35.606	1286.550	1119.603
-9.590	35.564	1285.591	1118.477
-8.575	35.491	1284.716	1117.248
-7.560	35.498	1284.152	1116.754
-6.546	35.556	1283.076	1116.110
-5.531	35.479	1282.212	1114.867
-4.517	35.465	1281.060	1113.740
-3.502	35.588	1280.200	1113.664
-2.487	35.599	1278.770	1112.440
-1.473	35.639	1274.672	1109.059
-0.458	34.123	1259.243	1086.941
0.556	31.857	1239.789	1042.329
1.571	27.475	1242.655	1020.164
2.586	25.800	1256.887	1022.257
3.600	24.020	1243.919	1001.616
4.615	18.042	1170.443	910.607
5.629	9.286	1093.860	807.164
6.644	5.077	1072.584	770.637
7.659	4.665	1069.860	766.581
8.673	4.547	1068.364	764.859
9.688	4.502	1067.367	763.859
10.702	5.093	1066.729	766.237
11.717	10.944	1074.571	800.677
12.731	19.268	1086.156	850.492
13.746	22.347	1089.829	868.510
14.761	21.892	1088.431	865.081
15.775	21.073	1086.299	859.273
16.790	19.911	1084.122	851.760
17.804	19.280	1082.502	847.313
18.819	18.927	1081.893	845.028
19.834	18.864	1080.468	843.531
20.848	18.682	1080.337	842.456
21.863	18.342	1079.915	840.386
22.877	18.314	1078.546	839.111
23.892	18.378	1077.707	838.695
24.907	18.224	1077.111	837.404
25.921	18.258	1075.990	836.623
26.936	18.321	1074.500	835.703
27.950	18.255	1073.262	834.341
28.965	18.337	1071.832	833.556
29.980	18.427	1070.651	833.002
30.994	18.517	1069.638	832.575
32.009	18.701	1068.515	832.519
33.023	18.635	1067.375	831.241
34.038	18.492	1066.631	829.893
35.053	18.397	1065.252	828.289
36.067	18.394	1064.526	827.638
37.082	18.329	1063.835	826.713
38.096	18.594	1062.644	826.989
39.111	18.586	1061.998	826.375
40.126	18.341	1061.045	824.383
41.140	18.005	1059.650	821.611
42.155	18.044	1058.158	820.568
43.169	17.845	1057.125	818.740
44.184	17.960	1056.414	818.668
45.199	18.076	1054.981	818.038
46.213	18.090	1054.631	817.763
47.228	18.370	1053.266	817.971
48.242	18.438	1052.637	817.733
49.257	18.262	1051.776	816.155
50.271	18.404	1050.823	816.019
51.286	18.462	1049.973	815.563
52.301	18.316	1049.168	814.170
53.315	18.095	1048.318	812.389
54.330	18.159	1046.966	811.574
55.344	18.246	1045.545	810.813
56.359	18.170	1045.184	810.102
57.374	18.093	1044.413	809.068
58.388	17.957	1043.388	807.559
59.403	17.937	1042.395	806.622
60.417	17.900	1042.065	806.121
61.432	17.885	1040.909	805.085
62.447	17.767	1040.168	803.883
63.461	17.742	1039.383	803.089
64.476	17.692	1038.473	802.078
65.490	17.614	1037.904	801.202
66.505	17.800	1036.713	801.086
67.520	17.904	1036.559	801.383
68.534	17.810	1035.303	799.900
69.549	17.833	1034.674	799.454
70.563	17.751	1034.032	798.503
71.578	17.683	1032.703	797.085
72.593	17.637	1031.888	796.171
73.607	17.507	1031.796	795.423
74.622	17.648	1030.567	795.063
75.636	17.768	1029.726	794.903
76.651	17.598	1029.386	793.779
77.666	17.724	1028.616	793.700
78.680	17.579	1028.415	792.799
79.695	17.700	1027.824	792.839
80.709	17.978	1026.896	793.345
81.724	17.942	1026.187	792.556
82.739	18.083	1025.328	792.481
83.753	18.249	1025.251	793.120
84.768	18.470	1024.116	793.195
85.782	18.627	1023.737	793.557
86.797	18.497	1022.826	792.179
87.812	18.491	1021.343	790.930
88.826	18.382	1020.510	789.715
89.841	18.380	1020.069	789.296
90.855	18.632	1018.591	789.242
91.870	18.583	1018.021	788.501
92.884	18.510	1017.531	787.718
93.899	18.582	1016.221	786.967
94.914	18.727	1015.328	786.870
95.928	18.679	1014.765	786.144
96.943	18.475	1013.706	784.320
97.957	18.473	1012.423	783.248
98.972	18.452	1012.289	782.981
99.987	18.546	1011.125	782.440
101.001	18.493	1010.142	781.369
102.016	18.384	1009.584	780.370
103.030	18.632	1008.668	780.721
104.045	18.522	1007.747	779.441
105.060	18.349	1007.012	778.017
106.074	18.122	1005.779	775.965
107.089	17.923	1004.571	774.063
108.103	17.879	1004.028	773.373
109.118	17.925	1002.566	772.389
110.133	17.826	1001.994	771.435
111.147	17.854	1000.594	770.411
112.162	17.889	1000.277	770.258
113.176	18.159	999.532	770.837
114.191	18.114	998.699	769.921
115.206	18.008	998.025	768.855
116.220	18.050	997.082	768.252
117.235	17.970	996.147	767.103
118.249	17.976	995.323	766.426
119.264	17.984	994.466	765.734
120.279	17.851	993.756	764.526
121.293	17.763	992.848	763.368
122.308	17.669	991.909	762.154
123.322	17.758	990.857	761.679
124.337	17.638	989.944	760.371
125.352	17.623	988.902	759.439
126.366	17.772	987.690	759.103
127.381	17.644	987.030	757.961
128.395	17.809	985.612	757.537
129.410	17.836	984.882	757.029
130.424	17.939	984.114	756.827
131.439	18.037	983.513	756.732
132.454	18.172	982.922	756.810
133.468	18.031	982.599	755.868
134.483	18.104	981.419	755.216
135.497	18.235	980.482	755.007
136.512	18.143	979.477	753.762
137.527	18.092	979.189	753.249
138.541	18.239	977.831	752.784
139.556	18.133	977.593	752.065
140.570	18.301	977.473	752.649
141.585	18.509	976.131	752.462
142.600	18.599	975.433	752.252
143.614	18.480	974.748	751.134
144.629	18.670	973.549	750.975
145.643	18.546	972.433	749.507
146.658	18.297	971.996	748.016
147.673	18.303	970.545	746.858
148.687	18.253	969.539	745.798
149.702	18.138	968.593	744.504
150.716	18.092	967.660	743.524
151.731	18.103	966.935	742.950
152.746	18.180	966.236	742.680
153.760	18.195	965.848	742.378
154.775	18.428	965.279	742.889
155.789	18.528	964.408	742.586
156.804	18.382	963.983	741.559
157.819	18.446	963.336	741.274
158.833	18.573	962.860	741.393
159.848	18.699	962.191	741.352
160.862	18.517	960.650	739.315
161.877	18.277	959.816	737.575
162.892	18.159	958.183	735.748
163.906	18.169	957.203	734.971
164.921	18.262	956.267	734.588
165.935	18.236	955.673	733.955
166.950	18.404	954.721	733.877
167.964	18.308	954.138	732.957
168.979	18.176	952.931	731.397
169.994	18.169	952.194	730.737
171.008	18.389	951.523	731.099
172.023	18.506	951.146	731.241
173.037	18.601	950.679	731.222
174.052	18.449	949.975	729.969
175.067	18.224	948.784	728.034
176.081	18.118	948.093	726.988
177.096	18.143	947.736	726.758
178.110	18.269	947.061	726.708
179.125	18.169	946.449	725.749
180.140	18.199	946.410	725.782
181.154	18.437	946.036	726.440
182.169	18.612	945.350	726.590
183.183	18.767	944.647	726.642
184.198	18.697	943.656	725.521
185.213	18.646	942.869	724.635
186.227	18.673	942.604	724.480
187.242	18.702	941.957	724.045
188.256	19.000	941.108	724.584
189.271	18.811	940.705	723.412
190.286	18.534	939.675	721.389
191.300	18.128	938.247	718.526
192.315	18.027	937.668	717.593
193.329	18.176	936.897	717.566
194.344	18.459	936.468	718.360
195.359	18.398	936.316	717.925
196.373	18.507	935.836	717.949
197.388	18.779	935.285	718.601
198.402	18.819	935.161	718.610
199.417	18.874	934.489	718.258
200.432	19.035	933.781	718.324
201.446	19.109	933.465	718.325
202.461	19.066	933.402	718.034
203.475	18.996	932.206	716.759
204.490	18.908	931.345	715.666
205.504	18.677	930.887	714.291
206.519	18.701	929.379	713.170
207.534	18.791	929.051	713.228
208.548	18.791	928.515	712.754
209.563	18.798	927.607	712.025
210.577	18.816	927.148	711.682
211.592	19.075	926.428	712.138
212.607	19.121	925.382	711.462
213.621	19.051	925.128	710.916
214.636	18.972	924.293	709.885
215.650	19.037	923.491	709.474
216.665	18.988	922.923	708.774
217.680	19.137	922.460	708.967
218.694	19.273	921.191	708.487
219.709	19.168	920.662	707.588
220.723	19.195	920.115	707.217
221.738	19.105	919.762	706.512
222.753	19.123	919.046	705.973
223.767	19.215	918.626	705.967
224.782	19.365	918.232	706.215
225.796	19.214	917.823	705.220
226.811	19.174	916.983	704.349
227.826	19.193	915.918	703.545
228.840	19.094	915.418	702.697
229.855	19.145	914.222	701.921
230.869	19.029	913.514	700.846
231.884	18.979	913.192	700.332
232.899	18.892	912.351	699.269
233.913	18.830	911.540	698.334
234.928	18.978	910.276	697.905
235.942	18.741	910.253	696.866
236.957	18.864	909.738	696.909
237.972	18.855	908.987	696.237
238.986	18.918	908.372	695.955
240.001	18.833	907.600	694.959
241.015	18.973	907.232	695.183
242.030	18.996	906.912	694.971
243.045	19.034	906.420	694.685
244.059	19.164	905.471	694.418
245.074	19.257	904.763	694.189
246.088	19.205	904.194	693.482
247.103	19.254	903.942	693.427
248.117	19.386	903.826	693.804
249.132	19.703	903.493	694.763
250.147	20.012	902.945	695.522
251.161	19.938	901.748	694.243
252.176	20.049	901.025	694.067
253.190	20.096	900.467	693.765
254.205	19.940	900.128	692.818
255.220	20.042	899.189	692.441
256.234	20.032	898.468	691.786
257.249	20.061	897.920	691.419
258.263	19.930	896.810	689.980
259.278	19.919	896.823	689.885
260.293	19.985	896.314	689.694
261.307	19.955	895.847	689.155
262.322	20.192	895.006	689.390
263.336	20.117	894.144	688.368
264.351	20.030	893.836	687.722
265.366	20.093	893.236	687.452
266.380	20.131	892.359	686.867
267.395	20.000	891.717	685.791
268.409	19.891	890.821	684.609
269.424	20.011	889.773	684.218
270.439	19.927	888.986	683.221
271.453	19.860	888.527	682.543
272.468	19.872	888.015	682.136
273.482	19.880	887.177	681.466
274.497	19.932	886.890	681.388
275.512	19.882	886.177	680.586
276.526	19.857	885.860	680.184
277.541	19.886	885.421	679.898
278.555	20.041	885.017	680.137
279.570	20.282	884.170	680.373
280.585	20.129	883.323	679.061
281.599	20.040	882.276	677.849
282.614	19.841	881.900	676.719
283.628	20.077	881.340	677.154
284.643	19.968	880.929	676.351
285.657	20.061	879.854	675.830
286.672	20.118	879.515	675.732
287.687	19.924	879.362	674.798
288.701	19.952	878.221	673.970
289.716	20.109	877.646	674.081
290.730	20.082	877.109	673.502
291.745	20.029	876.528	672.793
292.760	20.104	875.914	672.552
293.774	20.358	875.301	673.008
294.789	20.244	874.699	672.043
295.803	20.178	873.852	671.078
296.818	20.057	873.231	670.072
297.833	20.159	872.461	669.819
298.847	20.105	872.091	669.264
299.862	20.258	871.166	669.086
300.876	20.118	871.281	668.576
301.891	20.339	870.552	668.809
302.906	20.527	869.682	668.804
303.920	20.624	869.424	668.921
304.935	20.778	868.908	669.055
305.949	20.619	868.113	667.774
306.964	20.476	867.672	666.826
307.979	20.307	867.367	665.883
308.993	20.428	866.890	665.922
310.008	20.610	866.167	666.005
311.022	20.588	865.488	665.341
312.037	20.336	864.825	663.810
313.052	20.254	864.055	662.846
314.066	20.116	863.362	661.729
315.081	20.314	862.802	661.997
316.095	20.194	862.193	661.013
317.110	20.277	861.245	660.545
318.125	20.225	860.886	660.013
319.139	20.121	860.626	659.359
320.154	20.235	859.819	659.117
321.168	20.443	859.620	659.695
322.183	20.350	859.040	658.840
323.197	20.360	858.704	658.560
324.212	20.318	857.906	657.732
325.227	20.359	857.346	657.399
326.241	20.271	856.414	656.294
327.256	20.349	856.116	656.302
328.270	20.240	855.540	655.389
329.285	20.262	854.890	654.918
330.300	20.216	854.084	654.067
331.314	20.184	854.191	653.972
332.329	20.604	853.594	655.039
333.343	20.470	853.465	654.378
334.358	20.587	852.666	654.147
335.373	20.530	852.536	653.775
336.387	20.594	852.377	653.837
337.402	20.623	852.134	653.702
338.416	20.894	851.234	653.971
339.431	20.974	851.567	654.467
340.446	21.022	851.159	654.277
341.460	20.938	850.708	653.558
342.475	21.015	850.101	653.323
343.489	21.013	849.764	652.996
344.504	21.222	849.203	653.291
345.519	21.189	848.779	652.784
346.533	21.247	848.056	652.387
347.548	21.006	847.137	650.722
348.562	20.732	846.669	649.281
349.577	20.695	846.094	648.645
350.592	20.836	845.155	648.393
351.606	20.646	844.745	647.315
352.621	20.654	843.826	646.584
353.635	20.668	843.724	646.500
354.650	20.783	842.742	646.119
355.665	20.816	842.339	645.872
356.679	20.978	841.737	645.955
357.694	21.004	840.955	645.394
358.708	21.005	840.312	644.848
359.723	21.182	839.566	644.873
360.738	21.030	839.010	643.826
361.752	20.997	838.564	643.305
362.767	21.180	838.134	643.593
363.781	21.334	837.892	643.919
364.796	21.458	837.092	643.702
365.810	21.485	837.288	643.897
366.825	21.513	836.711	643.499
367.840	21.489	836.155	642.923
368.854	21.355	835.453	641.837
369.869	21.368	835.316	641.722
370.883	21.296	834.750	640.965
371.898	21.463	834.472	641.310
372.913	21.593	833.789	641.203
373.927	21.406	833.677	640.375
374.942	21.427	832.795	639.717
375.956	21.503	832.546	639.749
376.971	21.691	832.400	640.266
377.986	21.701	831.904	639.865
379.000	21.547	831.494	638.929
380.015	21.598	830.796	638.525
381.029	21.679	830.003	638.153
382.044	21.665	829.598	637.733
383.059	21.782	828.934	637.593
384.073	21.582	828.160	636.214
385.088	21.332	827.420	634.682
386.102	21.369	826.843	634.318
387.117	21.392	826.091	633.768
388.132	21.351	825.436	633.062
389.146	21.394	824.977	632.809
390.161	21.609	824.962	633.519
391.175	21.689	824.607	633.479
392.190	21.616	823.745	632.499
393.205	21.532	823.091	631.635
394.219	21.506	822.901	631.342
395.234	21.412	822.386	630.549
396.248	21.243	821.972	629.568
397.263	21.095	821.334	628.489
398.278	21.312	821.058	629.005
399.292	21.266	820.643	628.465
400.307	21.323	819.999	628.124
401.321	21.380	819.280	627.720
402.336	21.494	818.841	627.738
403.350	21.509	818.510	627.481
404.365	21.628	818.323	627.711
405.380	21.775	818.282	628.151
406.394	21.821	817.530	627.680
407.409	21.786	817.307	627.331
408.423	21.809	816.935	627.072
409.438	21.925	816.381	627.003
410.453	22.093	816.209	627.417
411.467	22.129	815.663	627.071
412.482	22.115	815.439	626.791
413.496	22.193	815.065	626.726
414.511	22.180	814.661	626.317
415.526	22.051	814.086	625.357
416.540	22.114	813.252	624.886
417.555	22.148	812.737	624.555
418.569	22.137	812.551	624.317
419.584	22.112	812.199	623.904
420.599	22.112	811.895	623.616
421.613	157.967	1369.490	1786.238
422.628	137.456	1450.751	1786.342
