DTS Sentinel unit serial number:	SN413079Multiplexer serial number:	ORYXHardware model number:	OX4-SRSoftware version number:	ORYX F/W v4.00 Oryx Data Collector v3.7.2.0data status	okinstallation	princeton_trtdifferential loss correction	single-endedforward channel	channel 1reverse channel	N/Adate	2019/09/16time	13:34:35forward acquisition time	60.00reverse acquisition time	0.00gamma	496.2192k internal	0.2294k external	0.2294temperature offset calibration	0.9944default loss term (dB/km)	0.3790temperature slope calibration	1.0000multiplexer offset coefficient	1.0000multiplexer slope coefficient	1.0000fibre end	0.00T internal ref (°C)	41.94T ext. ref 1 (°C)	13.85T ext. ref 2 (°C)	40.19length (m)	temperature (°C)	Stokes	anti-Stokes-747.200	271.495	0.071	0.127
-746.185	-117.760	0.147	-0.027
-745.171	28.274	0.058	-0.051
-744.156	-51.019	0.513	0.246
-743.142	-124.599	0.031	-0.005
-742.127	109.538	-0.144	0.177
-741.112	800.000	0.021	-0.092
-740.098	-200.000	0.004	0.288
-739.083	3.905	0.017	0.013
-738.069	-78.676	0.223	0.078
-737.054	-78.560	-0.039	-0.014
-736.039	-28.335	-0.171	0.101
-735.025	297.503	0.138	0.260
-734.010	-200.000	0.002	0.206
-732.996	-200.000	0.015	-0.249
-731.981	-28.290	-0.354	-0.209
-730.966	21.188	-0.242	-0.201
-729.952	-80.207	-0.087	0.030
-728.937	275.575	-0.024	0.044
-727.923	204.442	-0.067	0.106
-726.908	800.000	-0.066	-0.227
-725.894	-139.329	-0.284	0.031
-724.879	63.903	0.091	0.094
-723.864	-145.604	-0.168	0.015
-722.850	-200.000	0.007	0.301
-721.835	-117.765	-0.370	-0.068
-720.821	315.363	0.112	-0.216
-719.806	321.500	0.175	-0.341
-718.791	272.088	0.117	0.211
-717.777	133.181	0.093	0.123
-716.762	258.732	-0.130	0.229
-715.748	-132.747	0.150	0.020
-714.733	313.717	-0.005	-0.010
-713.718	-200.000	0.055	-0.289
-712.704	-36.671	-0.154	0.084
-711.689	-165.475	-0.169	-0.008
-710.675	-164.525	-0.126	-0.006
-709.660	372.592	-0.052	0.107
-708.645	-72.715	-0.315	0.119
-707.631	119.326	-0.193	0.245
-706.616	-200.000	0.009	0.056
-705.602	91.203	-0.115	0.131
-704.587	310.656	0.094	-0.180
-703.572	228.188	0.132	0.219
-702.558	800.000	-0.094	-0.383
-701.543	-200.000	-0.069	0.323
-700.529	-53.952	0.024	-0.011
-699.514	-200.000	0.015	0.278
-698.499	-98.604	-0.071	-0.019
-697.485	78.729	-0.055	0.060
-696.470	800.000	-0.034	0.146
-695.456	21.407	0.100	-0.083
-694.441	-200.000	-0.043	-0.198
-693.426	-200.000	0.025	0.136
-692.412	175.580	-0.039	0.058
-691.397	-200.000	-0.037	0.176
-690.383	511.926	-0.099	-0.235
-689.368	-200.000	-0.025	-0.117
-688.354	-60.777	-0.134	0.058
-687.339	-200.000	-0.011	-0.171
-686.324	800.000	0.068	-0.290
-685.310	-200.000	-0.047	-0.346
-684.295	-36.495	-0.294	-0.161
-683.281	175.928	0.083	-0.123
-682.266	800.000	0.075	-0.214
-681.251	800.000	-0.055	0.176
-680.237	-200.000	-0.013	-0.310
-679.222	-104.857	0.165	0.039
-678.208	28.800	-0.119	-0.102
-677.193	-200.000	0.036	0.296
-676.178	-200.000	-0.007	0.303
-675.164	181.534	0.116	0.174
-674.149	2.394	-0.115	0.085
-673.135	-156.312	-0.331	-0.021
-672.120	128.340	-0.082	-0.106
-671.105	-200.000	-0.051	-0.257
-670.091	-200.000	-0.006	-0.066
-669.076	-200.000	0.014	0.369
-668.062	-74.552	-0.156	0.057
-667.047	-200.000	-0.001	0.061
-666.032	-21.790	-0.270	-0.168
-665.018	800.000	-0.107	0.331
-664.003	-200.000	-0.029	0.252
-662.989	530.076	-0.047	-0.112
-661.974	39.817	-0.062	-0.057
-660.959	578.795	-0.038	-0.095
-659.945	619.015	-0.032	0.082
-658.930	1.202	0.156	-0.114
-657.916	341.336	-0.075	0.150
-656.901	216.842	0.046	-0.075
-655.886	52.963	0.040	-0.039
-654.872	228.493	-0.104	0.173
-653.857	800.000	-0.121	-0.444
-652.843	800.000	0.036	0.139
-651.828	49.119	-0.147	0.141
-650.814	615.606	0.074	-0.190
-649.799	-131.909	-0.099	-0.013
-648.784	-200.000	-0.014	-0.164
-647.770	213.783	0.121	0.195
-646.755	-94.289	-0.267	0.074
-645.741	800.000	0.012	-0.047
-644.726	-62.598	0.365	-0.154
-643.711	-42.910	-0.391	0.202
-642.697	223.590	-0.225	0.369
-641.682	7.975	-0.223	-0.170
-640.668	-38.508	0.069	-0.037
-639.653	-54.635	0.374	0.172
-638.638	-58.861	0.079	0.035
-637.624	23.876	0.170	0.143
-636.609	165.463	0.196	-0.282
-635.595	-20.076	0.376	0.236
-634.580	-108.841	-0.096	0.021
-633.565	-172.100	-0.084	0.003
-632.551	-200.000	-0.034	-0.230
-631.536	-103.412	-0.135	0.032
-630.522	-21.024	0.197	-0.123
-629.507	-101.197	-0.259	0.065
-628.492	-126.075	-0.247	-0.038
-627.478	-200.000	-0.015	-0.175
-626.463	-11.152	0.025	-0.017
-625.449	571.238	0.116	-0.287
-624.434	-80.993	-0.214	0.072
-623.419	225.594	0.159	0.262
-622.405	508.063	0.098	0.233
-621.390	-200.000	0.005	0.040
-620.376	73.103	0.091	0.097
-619.361	53.326	-0.166	-0.162
-618.346	800.000	0.115	-0.375
-617.332	-200.000	0.035	-0.296
-616.317	228.515	-0.075	0.124
-615.303	-129.698	-0.289	-0.041
-614.288	-135.006	-0.341	0.042
-613.273	-116.125	-0.190	0.036
-612.259	-200.000	-0.012	-0.399
-611.244	-142.899	0.099	0.010
-610.230	258.349	0.194	0.341
-609.215	-200.000	-0.012	0.120
-608.201	483.467	-0.013	-0.031
-607.186	-82.755	0.023	-0.007
-606.171	-94.525	0.238	0.066
-605.157	-146.934	-0.322	0.028
-604.142	-120.890	0.182	-0.031
-603.128	-9.029	0.431	-0.293
-602.113	0.582	-0.033	0.024
-601.098	29.895	-0.194	0.168
-600.084	-83.238	0.084	0.028
-599.069	-138.732	-0.018	-0.002
-598.055	253.687	-0.245	-0.426
-597.040	8.005	-0.291	-0.222
-596.025	83.410	0.188	-0.208
-595.011	800.000	-0.051	0.208
-593.996	-75.478	-0.028	0.010
-592.982	-200.000	-0.048	-0.422
-591.967	58.754	-0.034	0.034
-590.952	770.998	0.034	0.095
-589.938	-170.039	0.503	-0.018
-588.923	284.251	-0.192	-0.351
-587.909	800.000	0.031	0.131
-586.894	-200.000	-0.001	0.113
-585.879	-100.736	0.085	0.021
-584.865	-79.367	0.385	-0.133
-583.850	800.000	0.097	-0.324
-582.836	58.850	0.084	-0.084
-581.821	-200.000	0.001	-0.020
-580.806	51.968	-0.219	-0.212
-579.792	-200.000	0.005	-0.389
-578.777	-4.600	-0.084	0.059
-577.763	-105.814	-0.038	-0.009
-576.748	-200.000	0.016	0.096
-575.733	800.000	-0.057	0.249
-574.719	-143.082	-0.080	0.008
-573.704	170.384	0.172	0.250
-572.690	-84.182	0.278	-0.089
-571.675	-200.000	0.041	-0.218
-570.661	61.424	0.110	-0.111
-569.646	-200.000	0.489	0.002
-568.631	800.000	-0.075	-0.243
-567.617	136.733	-0.222	0.294
-566.602	0.398	-0.283	0.205
-565.588	585.097	0.027	-0.067
-564.573	-200.000	0.008	-0.197
-563.558	-130.059	0.148	-0.021
-562.544	-27.996	0.061	-0.036
-561.529	212.371	-0.101	-0.162
-560.515	233.542	0.232	0.388
-559.500	180.730	-0.061	-0.091
-558.485	-110.327	0.222	-0.047
-557.471	185.830	-0.029	-0.043
-556.456	262.401	-0.069	-0.121
-555.442	504.171	0.080	0.188
-554.427	533.200	0.094	0.227
-553.412	800.000	0.086	-0.244
-552.398	-200.000	-0.024	0.379
-551.383	431.147	-0.157	0.346
-550.369	800.000	-0.033	0.132
-549.354	-113.529	-0.154	-0.031
-548.339	383.753	-0.158	0.330
-547.325	158.913	-0.129	0.182
-546.310	51.524	-0.126	0.122
-545.296	-24.874	0.281	0.169
-544.281	125.819	0.178	-0.228
-543.266	174.016	0.162	0.238
-542.252	-200.000	-0.018	0.357
-541.237	428.232	0.211	0.463
-540.223	250.448	0.135	0.233
-539.208	331.095	-0.075	-0.147
-538.193	167.702	-0.107	-0.154
-537.179	-110.086	0.078	0.017
-536.164	-123.487	0.206	-0.033
-535.150	-121.530	-0.143	-0.024
-534.135	-188.460	0.086	-0.001
-533.121	192.514	0.065	-0.100
-532.106	85.890	-0.040	-0.045
-531.091	-49.218	0.053	-0.026
-530.077	-200.000	0.011	0.192
-529.062	-137.677	-0.269	-0.031
-528.048	-98.142	0.109	0.028
-527.033	800.000	-0.066	0.232
-526.018	-200.000	0.011	0.078
-525.004	-177.911	-0.198	0.005
-523.989	118.242	-0.053	-0.066
-522.975	97.118	-0.077	-0.089
-521.960	29.677	0.085	0.073
-520.945	-200.000	-0.008	0.196
-519.931	-44.647	0.161	-0.081
-518.916	693.061	0.070	-0.186
-517.902	-200.000	0.005	0.034
-516.887	-42.925	-0.184	0.095
-515.872	348.056	-0.045	-0.090
-514.858	-200.000	0.017	-0.082
-513.843	-99.689	0.249	0.063
-512.829	179.762	0.146	0.216
-511.814	-150.174	0.270	0.021
-510.799	-3.198	-0.136	-0.096
-509.785	-1.927	-0.068	-0.048
-508.770	-37.063	-0.058	0.031
-507.756	-120.278	-0.438	0.076
-506.741	-117.334	0.301	0.055
-505.726	800.000	0.035	-0.099
-504.712	800.000	-0.029	-0.107
-503.697	718.954	-0.116	-0.313
-502.683	-200.000	0.041	0.332
-501.668	-126.239	0.186	-0.028
-500.653	486.028	-0.101	-0.233
-499.639	-45.812	-0.083	0.042
-498.624	80.248	0.141	-0.154
-497.610	-200.000	-0.022	0.190
-496.595	32.979	-0.316	-0.277
-495.581	800.000	0.039	-0.111
-494.566	-1.551	-0.193	-0.138
-493.551	319.038	-0.144	0.277
-492.537	363.570	0.041	0.083
-491.522	242.921	-0.155	0.262
-490.508	-200.000	-0.014	0.275
-489.493	-200.000	-0.012	-0.213
-488.478	68.593	-0.065	0.067
-487.464	800.000	-0.041	-0.115
-486.449	-68.969	-0.111	-0.043
-485.435	-200.000	-0.014	-0.263
-484.420	-200.000	-0.010	0.195
-483.405	800.000	0.068	-0.205
-482.391	14.070	0.040	-0.032
-481.376	-200.000	-0.010	0.215
-480.362	-18.456	-0.305	-0.192
-479.347	800.000	-0.082	-0.272
-478.332	-65.177	0.219	-0.089
-477.318	800.000	0.025	0.088
-476.303	90.809	-0.089	0.101
-475.289	-200.000	0.015	0.337
-474.274	182.857	0.087	-0.130
-473.259	800.000	-0.050	-0.211
-472.245	-38.402	0.277	0.148
-471.230	-200.000	-0.037	0.289
-470.216	-33.191	0.233	0.131
-469.201	-186.567	0.348	0.005
-468.186	800.000	0.028	0.099
-467.172	73.221	0.209	0.221
-466.157	-132.174	-0.135	0.018
-465.143	-200.000	-0.026	-0.232
-464.128	-150.481	-0.152	-0.012
-463.113	800.000	0.126	0.486
-462.099	-139.783	-0.119	0.013
-461.084	171.700	-0.184	-0.268
-460.070	-3.817	-0.478	0.335
-459.055	166.126	-0.223	0.319
-458.040	-127.107	-0.214	-0.032
-457.026	676.328	0.065	-0.171
-456.011	-18.076	0.305	-0.193
-454.997	-20.169	0.045	0.028
-453.982	800.000	0.035	-0.146
-452.968	-88.413	0.349	-0.105
-451.953	143.442	0.064	-0.086
-450.938	17.414	0.168	-0.135
-449.924	173.393	-0.172	-0.251
-448.909	14.038	-0.191	-0.151
-447.895	-87.333	-0.132	0.041
-446.880	-163.520	-0.306	0.015
-445.865	-167.724	-0.098	0.004
-444.851	-25.153	0.058	-0.034
-443.836	61.499	-0.219	0.220
-442.822	-56.322	-0.324	-0.146
-441.807	274.507	-0.155	-0.277
-440.792	69.861	0.172	0.179
-439.778	-48.595	-0.146	0.071
-438.763	-23.567	0.171	0.104
-437.749	4.035	0.188	-0.139
-436.734	66.845	-0.028	-0.028
-435.719	-143.973	0.131	-0.012
-434.705	4.073	0.159	-0.118
-433.690	-127.533	-0.340	-0.050
-432.676	-57.407	0.192	0.085
-431.661	800.000	-0.108	0.399
-430.646	-200.000	0.320	-0.000
-429.632	8.863	-0.156	0.119
-428.617	314.663	0.064	-0.121
-427.603	191.729	-0.148	0.226
-426.588	-172.684	0.334	-0.011
-425.573	165.268	0.124	-0.176
-424.559	716.420	-0.100	0.269
-423.544	-63.176	0.305	0.127
-422.530	-54.405	-0.308	-0.141
-421.515	-38.419	0.098	0.052
-420.500	400.831	0.184	0.391
-419.486	66.543	-0.210	0.216
-418.471	44.646	-0.096	0.089
-417.457	74.637	-0.048	-0.051
-416.442	256.444	-0.065	0.112
-415.428	-184.033	0.029	0.000
-414.413	800.000	-0.034	-0.108
-413.398	-34.932	-0.259	-0.143
-412.384	314.951	-0.089	-0.169
-411.369	-90.773	0.173	-0.050
-410.355	-77.360	0.065	0.023
-409.340	-126.492	0.346	-0.052
-408.325	-200.000	-0.009	0.070
-407.311	343.181	-0.113	-0.223
-406.296	18.919	0.077	0.062
-405.282	235.247	0.071	-0.119
-404.267	-123.420	-0.050	0.008
-403.252	-34.971	0.168	0.093
-402.238	658.712	0.052	-0.134
-401.223	-200.000	0.010	-0.295
-400.209	351.631	0.047	-0.093
-399.194	194.741	-0.125	0.192
-398.179	-60.964	-0.169	0.072
-397.165	-200.000	0.026	-0.318
-396.150	116.595	0.075	-0.093
-395.136	-38.641	0.177	-0.094
-394.121	592.145	-0.067	-0.167
-393.106	27.371	-0.161	0.137
-392.092	-200.000	0.019	0.214
-391.077	-200.000	0.030	-0.197
-390.063	-200.000	-0.024	0.109
-389.048	623.009	0.101	-0.257
-388.033	44.043	0.213	-0.197
-387.019	461.568	0.053	-0.119
-386.004	800.000	-0.080	-0.289
-384.990	-134.688	-0.417	0.051
-383.975	-36.036	-0.308	0.168
-382.960	-167.238	0.152	-0.006
-381.946	800.000	0.127	0.386
-380.931	282.904	-0.132	0.238
-379.917	-63.568	-0.076	0.031
-378.902	214.067	-0.098	-0.156
-377.888	-200.000	0.001	0.110
-376.873	104.885	0.108	0.128
-375.858	-29.049	-0.288	0.167
-374.844	800.000	-0.058	0.219
-373.829	27.795	-0.151	0.128
-372.815	-34.123	0.399	-0.221
-371.800	-58.264	0.234	-0.103
-370.785	-65.694	0.365	0.147
-369.771	800.000	0.038	0.154
-368.756	525.415	0.040	-0.096
-367.742	-34.169	0.300	0.166
-366.727	39.139	0.122	0.110
-365.712	-44.321	-0.113	0.057
-364.698	800.000	-0.135	0.459
-363.683	256.384	0.091	-0.158
-362.669	481.824	0.080	-0.183
-361.654	479.293	0.080	-0.183
-360.639	-7.373	-0.236	-0.161
-359.625	292.027	-0.158	-0.291
-358.610	-39.952	0.278	-0.146
-357.596	133.754	-0.092	-0.119
-356.581	-39.057	-0.066	-0.035
-355.566	-200.000	0.018	-0.159
-354.552	463.110	0.125	0.281
-353.537	-57.882	-0.031	0.013
-352.523	-200.000	-0.003	-0.181
-351.508	-200.000	-0.032	-0.330
-350.493	-15.543	0.095	0.061
-349.479	-154.257	0.283	-0.019
-348.464	67.930	-0.168	0.173
-347.450	89.587	0.028	0.032
-346.435	41.021	-0.378	0.344
-345.420	-200.000	-0.031	0.311
-344.406	11.916	0.131	0.101
-343.391	-43.688	0.114	0.058
-342.377	287.776	0.099	-0.180
-341.362	-200.000	0.020	0.184
-340.348	-200.000	0.063	-0.337
-339.333	284.554	0.074	-0.134
-338.318	-200.000	-0.062	0.395
-337.304	618.395	0.122	0.308
-336.289	800.000	0.068	0.282
-335.275	-200.000	-0.001	-0.246
-334.260	-26.699	-0.128	-0.076
-333.245	588.701	0.059	0.147
-332.231	800.000	0.040	0.153
-331.216	-103.289	-0.214	0.051
-330.202	158.462	0.101	-0.141
-329.187	-35.513	0.071	0.039
-328.172	-49.007	0.171	-0.082
-327.158	-200.000	0.170	0.001
-326.143	-200.000	-0.001	0.310
-325.129	423.654	0.018	-0.038
-324.114	-129.276	-0.145	-0.020
-323.099	-130.698	0.369	0.050
-322.085	4.156	-0.109	0.080
-321.070	529.745	-0.073	-0.173
-320.056	-174.087	0.199	0.006
-319.041	800.000	-0.043	0.175
-318.026	800.000	0.040	0.113
-317.012	-188.087	-0.303	-0.004
-315.997	-76.320	-0.291	0.103
-314.983	-75.284	0.190	0.068
-313.968	168.978	0.128	-0.184
-312.953	-104.572	0.146	0.034
-311.939	75.151	-0.226	-0.239
-310.924	-76.938	0.149	-0.052
-309.910	-200.000	0.065	-0.335
-308.895	800.000	0.102	-0.337
-307.880	69.292	0.058	-0.060
-306.866	-119.658	0.312	0.054
-305.851	-46.319	0.097	0.048
-304.837	-101.749	-0.329	0.080
-303.822	-200.000	-0.084	-0.512
-302.807	-74.417	0.189	-0.069
-301.793	300.006	0.137	-0.254
-300.778	-172.118	-0.157	-0.005
-299.764	-43.061	0.166	0.085
-298.749	-39.490	-0.125	-0.066
-297.735	-200.000	-0.031	0.265
-296.720	468.191	-0.056	0.126
-295.705	3.933	0.190	0.140
-294.691	-22.260	-0.281	-0.171
-293.676	-200.000	-0.033	0.283
-292.662	-81.822	-0.058	-0.019
-291.647	67.654	0.264	0.271
-290.632	-125.627	-0.176	0.027
-289.618	-49.214	-0.260	0.125
-288.603	800.000	0.026	-0.093
-287.589	117.861	0.024	0.030
-286.574	-200.000	0.039	0.209
-285.559	-69.024	0.138	0.053
-284.545	-200.000	-0.027	-0.289
-283.530	157.664	0.316	-0.440
-282.516	-200.000	0.024	-0.156
-281.501	-200.000	0.016	0.168
-280.486	-88.024	0.204	-0.061
-279.472	-33.605	0.107	0.059
-278.457	355.100	0.068	0.136
-277.443	604.376	0.127	0.318
-276.428	-3.034	-0.231	0.162
-275.413	-200.000	-0.017	0.166
-274.399	71.930	0.290	0.303
-273.384	145.679	-0.069	0.092
-272.370	-159.488	0.272	-0.015
-271.355	140.670	0.063	0.084
-270.340	-51.441	0.203	0.095
-269.326	-151.763	-0.124	-0.009
-268.311	800.000	-0.098	0.283
-267.297	37.308	-0.105	0.093
-266.282	-33.975	0.249	-0.138
-265.267	3.443	-0.157	-0.115
-264.253	144.511	-0.142	0.190
-263.238	800.000	-0.069	-0.268
-262.224	185.911	-0.150	0.224
-261.209	144.654	0.186	0.249
-260.195	2.808	-0.190	0.138
-259.180	-200.000	0.011	0.264
-258.165	14.216	-0.301	-0.235
-257.151	234.087	-0.207	-0.342
-256.136	224.862	-0.061	0.099
-255.122	-101.707	0.109	0.027
-254.107	-200.000	0.015	-0.205
-253.092	-40.506	0.165	0.086
-252.078	800.000	0.092	-0.328
-251.063	-110.208	-0.330	0.069
-250.049	-200.000	-0.015	-0.388
-249.034	-144.275	0.170	0.016
-248.019	-103.066	-0.233	-0.055
-247.005	800.000	0.043	0.150
-245.990	-160.612	0.410	0.022
-244.976	15.723	-0.033	0.026
-243.961	36.471	-0.230	-0.204
-242.946	-99.792	0.111	0.028
-241.932	-109.908	0.080	0.017
-240.917	30.861	0.090	0.078
-239.903	800.000	-0.071	0.291
-238.888	-51.543	0.116	-0.054
-237.873	-200.000	-0.027	0.269
-236.859	-200.000	-0.088	0.420
-235.844	-200.000	-0.012	-0.216
-234.830	252.004	-0.064	-0.110
-233.815	433.986	-0.049	0.107
-232.800	800.000	0.133	-0.375
-231.786	-54.115	0.051	-0.023
-230.771	310.743	0.075	0.142
-229.757	-200.000	0.023	0.325
-228.742	194.608	0.234	-0.355
-227.727	-151.618	-0.293	-0.022
-226.713	-200.000	0.039	-0.292
-225.698	7.336	0.167	-0.125
-224.684	-13.748	-0.371	-0.241
-223.669	-200.000	-0.003	0.012
-222.655	-73.188	0.203	-0.075
-221.640	800.000	0.055	-0.204
-220.625	-25.169	-0.269	0.160
-219.611	800.000	0.115	0.429
-218.596	-13.212	0.314	-0.204
-217.582	53.755	0.034	-0.033
-216.567	-104.241	-0.319	0.074
-215.552	19.641	-0.091	0.074
-214.538	-105.136	0.287	0.066
-213.523	800.000	-0.037	-0.119
-212.509	-68.120	-0.059	0.023
-211.494	-200.000	0.009	-0.401
-210.479	-11.747	-0.162	-0.107
-209.465	800.000	-0.067	0.252
-208.450	3.052	-0.167	-0.122
-207.436	246.111	0.184	-0.311
-206.421	645.457	0.035	-0.089
-205.406	-26.240	0.233	-0.137
-204.392	-154.494	-0.130	-0.009
-203.377	-95.143	-0.131	0.035
-202.363	800.000	0.040	-0.129
-201.348	209.754	0.153	-0.240
-200.333	-59.691	-0.116	-0.050
-199.319	-110.657	-0.341	-0.071
-198.304	-14.590	0.166	-0.107
-197.290	-159.720	-0.174	0.010
-196.275	-142.783	-0.367	0.036
-195.260	-104.174	-0.201	0.047
-194.246	-136.408	-0.391	0.045
-193.231	709.043	-0.055	0.145
-192.217	-109.266	-0.192	-0.041
-191.202	-95.745	0.359	-0.096
-190.187	-200.000	-0.011	-0.356
-189.173	11.597	-0.436	0.335
-188.158	-200.000	-0.032	0.261
-187.144	180.046	-0.164	0.241
-186.129	138.650	0.085	0.111
-185.114	-116.478	0.252	-0.047
-184.100	31.013	-0.032	-0.028
-183.085	800.000	-0.044	-0.121
-182.071	800.000	0.034	0.145
-181.056	216.569	-0.092	-0.146
-180.042	-132.750	-0.220	0.028
-179.027	111.049	0.201	-0.242
-178.012	-16.990	0.266	-0.168
-176.998	-191.865	-0.308	-0.003
-175.983	-41.601	-0.316	-0.162
-174.969	167.522	0.167	-0.237
-173.954	-200.000	-0.000	0.063
-172.939	800.000	-0.105	-0.308
-171.925	68.307	-0.207	-0.212
-170.910	191.607	-0.031	-0.047
-169.896	-122.593	-0.182	0.030
-168.881	12.860	-0.173	-0.134
-167.866	-135.179	0.143	0.017
-166.852	-118.025	0.302	-0.054
-165.837	-173.626	-0.197	-0.006
-164.823	5.205	-0.088	-0.065
-163.808	-48.010	0.297	0.144
-162.793	800.000	0.064	-0.258
-161.779	-14.306	0.241	0.155
-160.764	800.000	-0.103	0.317
-159.750	140.587	-0.032	-0.042
-158.735	6.428	-0.157	-0.117
-157.720	-100.936	-0.174	0.043
-156.706	87.300	0.195	0.216
-155.691	29.724	0.175	0.149
-154.677	-170.070	-0.319	-0.011
-153.662	-145.630	0.154	-0.014
-152.647	-154.785	-0.295	-0.019
-151.633	-47.513	-0.073	-0.036
-150.618	73.325	-0.133	0.139
-149.604	381.796	0.064	0.132
-148.589	-116.576	0.144	0.027
-147.574	-188.878	-0.114	0.001
-146.560	-120.930	-0.198	0.033
-145.545	647.628	-0.095	0.243
-144.531	149.909	-0.204	0.277
-143.516	-200.000	-0.031	-0.328
-142.502	234.619	0.126	0.207
-141.487	43.832	0.055	-0.050
-140.472	345.088	-0.163	-0.319
-139.458	-200.000	0.016	0.240
-138.443	-200.000	0.004	0.054
-137.429	-12.507	0.070	-0.046
-136.414	674.214	-0.046	-0.119
-135.399	102.102	-0.242	-0.283
-134.385	559.970	-0.080	0.194
-133.370	-200.000	-0.036	0.274
-132.356	800.000	0.068	-0.249
-131.341	-73.589	-0.161	-0.058
-130.326	291.314	-0.129	0.233
-129.312	560.346	-0.129	0.311
-128.297	58.831	0.155	-0.152
-127.283	-200.000	-0.049	-0.281
-126.268	194.673	0.071	-0.108
-125.253	800.000	-0.074	-0.303
-124.239	-92.298	-0.259	-0.073
-123.224	114.065	0.402	-0.488
-122.210	-101.542	-0.160	-0.039
-121.195	-137.060	0.188	0.021
-120.180	82.169	0.010	-0.010
-119.166	800.000	0.092	-0.264
-118.151	-155.485	0.254	-0.016
-117.137	800.000	-0.081	-0.309
-116.122	-39.508	0.247	-0.129
-115.107	-71.814	0.157	0.058
-114.093	54.416	-0.159	-0.152
-113.078	381.159	-0.069	0.141
-112.064	-200.000	-0.053	-0.390
-111.049	-175.422	-0.096	-0.003
-110.034	-33.931	-0.319	0.175
-109.020	-113.155	0.246	-0.048
-108.005	800.000	-0.033	-0.127
-106.991	27.947	0.201	-0.169
-105.976	90.562	-0.058	0.065
-104.962	-200.000	0.045	-0.244
-103.947	39.450	0.421	0.376
-102.932	-200.000	0.009	0.065
-101.918	-200.000	0.038	0.170
-100.903	-200.000	0.009	-0.102
-99.889	-118.176	0.181	0.032
-98.874	800.000	0.111	-0.309
-97.859	124.061	0.176	-0.221
-96.845	-31.905	-0.340	0.190
-95.830	-35.680	-0.206	-0.112
-94.816	97.024	-0.028	-0.032
-93.801	800.000	0.061	0.252
-92.786	-133.886	0.356	0.044
-91.772	-88.429	0.228	0.068
-90.757	42.659	0.165	-0.150
-89.743	-200.000	0.005	0.173
-88.728	-52.574	-0.045	0.021
-87.713	-85.669	0.445	0.138
-86.699	-92.907	0.247	-0.069
-85.684	650.939	0.062	-0.158
-84.670	244.675	-0.108	-0.182
-83.655	-124.437	0.130	0.020
-82.640	800.000	-0.040	0.133
-81.626	-162.869	-0.189	0.009
-80.611	800.000	0.120	0.403
-79.597	164.559	-0.010	-0.014
-78.582	800.000	-0.060	-0.168
-77.567	-200.000	0.007	-0.091
-76.553	-87.161	0.038	0.011
-75.538	-85.136	-0.163	-0.051
-74.524	-200.000	0.011	-0.125
-73.509	-91.044	0.229	-0.066
-72.494	7.377	0.164	-0.122
-71.480	12.770	-0.299	0.230
-70.465	96.305	-0.284	0.324
-69.451	-21.285	0.156	0.095
-68.436	-76.037	-0.128	-0.045
-67.422	-22.121	0.130	0.078
-66.407	87.754	0.124	0.136
-65.392	-97.483	-0.169	-0.044
-64.378	279.320	0.161	0.287
-63.363	-197.721	0.106	-0.001
-62.349	-200.000	-0.066	0.339
-61.334	-54.191	-0.989	-0.447
-60.319	-14.206	0.349	0.224
-59.305	800.000	-0.298	-0.837
-58.290	-200.000	0.091	0.589
-57.276	800.000	0.389	1.617
-56.261	-200.000	75.759	534.812
-55.246	511.370	1355.833	3141.522
-54.232	137.700	2603.820	3393.829
-53.217	118.545	2258.594	2774.902
-52.203	54.394	1684.867	1615.109
-51.188	45.759	1400.579	1288.583
-50.173	42.172	1353.321	1223.209
-49.159	60.491	1388.560	1368.274
-48.144	68.304	1407.187	1434.574
-47.130	46.422	1368.918	1263.323
-46.115	42.174	1352.475	1222.261
-45.100	41.808	1347.962	1215.912
-44.086	41.796	1345.147	1213.249
-43.071	41.693	1343.261	1210.876
-42.057	41.686	1340.672	1208.450
-41.042	41.783	1338.991	1207.474
-40.027	41.840	1337.442	1206.374
-39.013	41.851	1334.803	1204.009
-37.998	41.878	1333.094	1202.586
-36.984	41.863	1331.482	1200.993
-35.969	42.034	1329.495	1200.180
-34.954	42.027	1327.628	1198.403
-33.940	42.047	1326.372	1197.342
-32.925	42.146	1324.794	1196.462
-31.911	41.893	1323.780	1193.988
-30.896	42.023	1321.764	1192.899
-29.881	41.966	1320.818	1191.658
-28.867	42.022	1318.781	1190.103
-27.852	42.088	1317.130	1188.957
-26.838	42.129	1315.543	1187.720
-25.823	42.136	1314.094	1186.406
-24.809	41.981	1312.957	1184.418
-23.794	41.975	1311.867	1183.355
-22.779	42.054	1310.135	1182.209
-21.765	41.948	1308.884	1180.406
-20.750	42.064	1307.276	1179.596
-19.736	41.912	1306.065	1177.557
-18.721	41.867	1305.028	1176.315
-17.706	41.894	1304.069	1175.559
-16.692	41.887	1302.542	1174.095
-15.677	41.924	1301.365	1173.204
-14.663	41.878	1300.234	1171.870
-13.648	41.892	1299.067	1170.855
-12.633	41.881	1297.837	1169.633
-11.619	41.945	1297.159	1169.350
-10.604	41.824	1296.097	1167.643
-9.590	41.773	1295.321	1166.599
-8.575	41.865	1294.316	1166.184
-7.560	41.826	1293.164	1164.870
-6.546	41.799	1292.525	1164.092
-5.531	41.818	1291.438	1163.178
-4.517	41.847	1290.415	1162.379
-3.502	41.824	1289.986	1161.814
-2.487	41.799	1289.039	1160.769
-1.473	42.029	1284.994	1158.412
-0.458	41.356	1271.226	1142.098
0.556	36.200	1252.633	1103.999
1.571	32.158	1256.144	1083.734
2.586	30.539	1270.232	1086.337
3.600	28.556	1258.636	1064.831
4.615	23.960	1187.369	979.213
5.629	17.558	1111.566	883.520
6.644	14.173	1089.655	848.786
7.659	13.766	1086.946	844.529
8.673	13.755	1085.658	843.397
9.688	13.686	1084.028	841.705
10.702	14.068	1082.971	842.747
11.717	17.943	1088.843	866.953
12.731	22.073	1093.388	891.502
13.746	20.602	1089.956	881.177
14.761	17.913	1085.250	863.711
15.775	16.637	1082.705	855.166
16.790	15.465	1080.713	847.601
17.804	14.541	1079.388	841.828
18.819	14.164	1078.014	838.777
19.834	13.822	1076.786	836.025
20.848	13.520	1075.904	833.746
21.863	13.294	1075.174	831.972
22.877	13.190	1074.449	830.812
23.892	13.174	1073.541	829.960
24.907	13.115	1072.957	829.137
25.921	13.280	1071.521	828.781
26.936	13.232	1070.299	827.524
27.950	13.283	1068.788	826.538
28.965	13.219	1067.948	825.494
29.980	13.480	1065.514	824.839
30.994	13.505	1064.976	824.473
32.009	13.487	1063.622	823.264
33.023	13.475	1062.380	822.169
34.038	13.467	1061.404	821.302
35.053	13.268	1060.782	819.762
36.067	13.397	1059.881	819.630
37.082	13.263	1058.873	818.118
38.096	13.352	1058.385	818.109
39.111	13.408	1057.798	817.857
40.126	13.298	1056.360	816.132
41.140	13.266	1054.950	814.814
42.155	13.171	1053.431	813.097
43.169	13.028	1052.476	811.588
44.184	13.146	1051.646	811.456
45.199	13.047	1051.233	810.576
46.213	13.074	1049.902	809.613
47.228	13.285	1048.411	809.424
48.242	13.259	1046.978	808.119
49.257	13.253	1046.413	807.583
50.271	13.290	1045.108	806.682
51.286	13.361	1044.498	806.489
52.301	13.259	1043.726	805.323
53.315	13.295	1042.664	804.610
54.330	13.287	1041.582	803.665
55.344	13.212	1040.933	802.725
56.359	13.236	1039.584	801.733
57.374	13.275	1038.863	801.293
58.388	13.182	1037.897	800.027
59.403	13.195	1036.929	799.275
60.417	13.023	1036.574	798.100
61.432	13.128	1035.744	797.894
62.447	12.930	1034.885	796.206
63.461	13.018	1033.701	795.649
64.476	13.139	1032.736	795.419
65.490	13.107	1031.716	794.408
66.505	13.182	1030.960	794.118
67.520	13.166	1030.867	793.897
68.534	13.151	1030.108	793.174
69.549	13.139	1029.281	792.406
70.563	13.142	1027.980	791.354
71.578	13.060	1027.357	790.409
72.593	13.135	1026.638	790.147
73.607	12.994	1026.628	789.395
74.622	12.910	1025.546	788.089
75.636	13.058	1024.775	788.135
76.651	13.074	1023.897	787.466
77.666	13.010	1023.553	786.826
78.680	13.026	1022.553	786.066
79.695	13.024	1022.255	785.756
80.709	13.311	1021.026	786.106
81.724	13.213	1020.986	785.539
82.739	13.255	1020.269	785.116
83.753	13.338	1018.833	784.336
84.768	13.395	1017.758	783.709
85.782	13.552	1016.995	783.795
86.797	13.350	1016.321	782.251
87.812	13.272	1015.482	781.167
88.826	13.301	1014.337	780.354
89.841	13.371	1013.314	779.830
90.855	13.310	1012.815	779.089
91.870	13.377	1011.826	778.574
92.884	13.390	1010.703	777.701
93.899	13.382	1010.061	777.101
94.914	13.495	1009.143	776.859
95.928	13.515	1008.117	776.092
96.943	13.380	1007.794	775.144
97.957	13.452	1006.535	774.441
98.972	13.446	1005.570	773.605
99.987	13.536	1004.439	773.084
101.001	13.467	1003.961	772.327
102.016	13.496	1003.031	771.677
103.030	13.485	1002.361	771.045
104.045	13.428	1001.667	770.175
105.060	13.431	1000.560	769.270
106.074	13.297	999.757	767.965
107.089	13.289	998.594	766.966
108.103	13.184	997.677	765.704
109.118	13.129	997.210	765.025
110.133	13.150	996.548	764.546
111.147	13.152	995.138	763.408
112.162	13.250	994.267	763.126
113.176	13.289	993.626	762.743
114.191	13.443	992.745	762.712
115.206	13.340	992.011	761.605
116.220	13.313	991.398	760.943
117.235	13.289	990.244	759.877
118.249	13.287	989.419	759.171
119.264	13.175	989.074	758.322
120.279	13.203	987.909	757.490
121.293	13.171	987.387	756.877
122.308	13.195	986.694	756.390
123.322	13.262	985.329	755.581
124.337	13.190	984.367	754.449
125.352	13.304	983.332	754.108
126.366	13.259	982.563	753.246
127.381	13.191	981.431	752.003
128.395	13.332	980.084	751.545
129.410	13.345	979.687	751.233
130.424	13.333	978.563	750.249
131.439	13.286	978.018	749.552
132.454	13.383	977.237	749.328
133.468	13.379	976.456	748.645
134.483	13.419	975.735	748.209
135.497	13.350	974.727	747.055
136.512	13.455	973.638	746.629
137.527	13.478	972.753	745.990
138.541	13.414	972.228	745.231
139.556	13.547	971.613	745.293
140.570	13.538	970.957	744.683
141.585	13.564	969.992	743.994
142.600	13.507	969.219	743.077
143.614	13.544	968.151	742.361
144.629	13.598	967.573	742.092
145.643	13.614	966.444	741.235
146.658	13.475	965.563	739.873
147.673	13.627	964.443	739.625
148.687	13.454	963.819	738.309
149.702	13.444	963.031	737.598
150.716	13.396	961.854	736.417
151.731	13.405	961.218	735.905
152.746	13.492	960.692	735.824
153.760	13.415	960.341	735.149
154.775	13.423	959.305	734.323
155.789	13.539	958.409	734.085
156.804	13.577	957.981	733.865
157.819	13.614	957.406	733.521
158.833	13.635	956.539	732.886
159.848	13.658	955.735	732.304
160.862	13.726	954.785	731.813
161.877	13.580	954.080	730.564
162.892	13.552	952.772	729.376
163.906	13.478	951.960	728.364
164.921	13.450	951.410	727.756
165.935	13.684	950.238	727.822
166.950	13.724	949.264	727.187
167.964	13.697	948.308	726.271
168.979	13.603	947.495	725.174
169.994	13.513	946.510	723.961
171.008	13.668	945.870	724.086
172.023	13.720	945.104	723.660
173.037	13.795	944.249	723.268
174.052	13.793	943.653	722.741
175.067	13.632	943.095	721.549
176.081	13.465	942.647	720.416
177.096	13.645	942.013	720.648
178.110	13.575	941.535	719.915
179.125	13.747	940.875	720.094
180.140	13.678	940.062	719.109
181.154	13.748	939.902	719.227
182.169	13.823	939.466	719.154
183.183	13.980	938.684	719.170
184.198	13.915	937.658	718.039
185.213	13.824	937.301	717.312
186.227	13.898	936.876	717.240
187.242	13.781	936.287	716.223
188.256	13.967	935.537	716.386
189.271	14.026	934.476	715.767
190.286	13.858	933.618	714.324
191.300	13.769	932.900	713.327
192.315	13.576	932.806	712.360
193.329	13.567	932.515	712.038
194.344	13.762	931.184	711.794
195.359	13.756	930.359	711.078
196.373	13.861	930.174	711.321
197.388	14.002	929.673	711.479
198.402	14.022	928.999	710.987
199.417	14.050	928.765	710.864
200.432	14.128	927.692	710.313
201.446	14.148	927.505	710.192
202.461	14.120	926.755	709.437
203.475	14.126	926.579	709.263
204.490	14.246	924.988	708.493
205.504	14.126	924.478	707.532
206.519	14.158	923.950	707.199
207.534	14.051	923.414	706.271
208.548	14.169	922.661	706.134
209.563	14.169	921.985	705.553
210.577	14.146	921.154	704.760
211.592	14.230	921.098	705.008
212.607	14.314	919.730	704.254
213.621	14.194	919.327	703.379
214.636	14.218	918.670	702.916
215.650	14.402	917.772	702.942
216.665	14.355	917.139	702.196
217.680	14.419	916.474	701.894
218.694	14.242	915.911	700.656
219.709	14.409	915.407	700.910
220.723	14.346	914.281	699.721
221.738	14.402	913.480	699.284
222.753	14.386	912.658	698.524
223.767	14.438	912.427	698.504
224.782	14.430	912.100	698.156
225.796	14.501	911.760	698.135
226.811	14.433	910.672	696.954
227.826	14.496	909.480	696.242
228.840	14.436	908.923	695.505
229.855	14.364	908.332	694.693
230.869	14.408	907.630	694.274
231.884	14.428	906.979	693.800
232.899	14.304	906.312	692.712
233.913	14.410	905.367	692.368
234.928	14.515	904.570	692.135
235.942	14.402	904.188	691.311
236.957	14.348	903.719	690.667
237.972	14.481	902.926	690.552
238.986	14.449	902.209	689.810
240.001	14.423	901.743	689.283
241.015	14.564	901.192	689.385
242.030	14.502	900.959	688.891
243.045	14.618	900.339	688.832
244.059	14.508	899.824	687.926
245.074	14.501	898.611	686.909
246.088	14.594	898.277	686.975
247.103	14.612	897.757	686.591
248.117	14.688	896.914	686.195
249.132	14.774	896.579	686.234
250.147	14.868	895.770	685.940
251.161	14.872	895.208	685.463
252.176	15.040	894.269	685.376
253.190	14.928	893.928	684.592
254.205	15.034	892.910	684.186
255.220	14.971	892.590	683.621
256.234	14.821	892.392	682.800
257.249	14.998	891.057	682.438
258.263	15.071	890.220	682.036
259.278	14.956	889.922	681.275
260.293	15.046	889.388	681.176
261.307	15.039	889.076	680.848
262.322	15.141	888.109	680.462
263.336	15.239	887.256	680.146
264.351	15.267	886.594	679.688
265.366	15.178	886.082	678.876
266.380	15.147	885.467	678.219
267.395	15.155	884.451	677.415
268.409	15.220	883.805	677.123
269.424	15.170	882.923	676.185
270.439	15.368	882.090	676.285
271.453	15.290	881.712	675.621
272.468	15.190	881.326	674.864
273.482	15.191	880.621	674.268
274.497	15.227	879.889	673.792
275.512	15.325	879.223	673.617
276.526	15.235	879.100	673.100
277.541	15.172	878.552	672.368
278.555	15.416	877.771	672.689
279.570	15.337	877.308	671.961
280.585	15.469	876.358	671.701
281.599	15.406	875.713	670.894
282.614	15.300	875.442	670.202
283.628	15.542	874.368	670.289
284.643	15.364	874.167	669.365
285.657	15.412	873.342	668.867
286.672	15.467	872.350	668.265
287.687	15.400	871.828	667.540
288.701	15.492	871.330	667.465
289.716	15.532	870.432	666.877
290.730	15.461	870.180	666.342
291.745	15.520	869.472	665.977
292.760	15.437	869.399	665.531
293.774	15.674	868.610	665.809
294.789	15.577	867.909	664.829
295.803	15.538	867.047	663.954
296.818	15.527	866.346	663.315
297.833	15.516	865.838	662.825
298.847	15.549	865.245	662.442
299.862	15.590	864.997	662.354
300.876	15.695	864.404	662.255
301.891	15.680	863.723	661.616
302.906	15.841	862.922	661.577
303.920	15.820	862.782	661.329
304.935	15.790	861.970	660.531
305.949	15.739	861.099	659.603
306.964	15.741	860.657	659.216
307.979	15.799	860.084	658.944
308.993	15.718	860.099	658.583
310.008	15.865	858.911	658.187
311.022	15.836	858.332	657.572
312.037	15.831	857.986	657.228
313.052	15.782	857.332	656.482
314.066	15.849	856.721	656.217
315.081	15.745	856.434	655.530
316.095	15.704	855.704	654.757
317.110	15.862	854.739	654.574
318.125	15.779	854.701	654.162
319.139	15.699	854.105	653.338
320.154	15.872	853.910	653.803
321.168	15.851	853.141	653.077
322.183	15.867	852.429	652.536
323.197	15.893	852.249	652.439
324.212	15.904	851.176	651.604
325.227	15.871	850.843	651.163
326.241	16.054	849.636	650.889
327.256	15.967	849.655	650.508
328.270	15.918	849.104	649.840
329.285	15.898	848.638	649.349
330.300	15.934	848.125	649.038
331.314	15.985	847.315	648.556
332.329	16.033	846.975	648.424
333.343	16.002	846.625	647.979
334.358	16.123	846.126	648.006
335.373	16.148	845.787	647.784
336.387	16.098	845.386	647.228
337.402	16.160	844.878	647.020
338.416	16.271	844.553	647.140
339.431	16.186	844.395	646.634
340.446	16.221	843.809	646.264
341.460	16.344	843.465	646.412
342.475	16.314	843.175	646.019
343.489	16.452	842.730	646.148
344.504	16.466	842.158	645.709
345.519	16.508	841.370	645.207
346.533	16.449	841.103	644.720
347.548	16.205	840.990	643.643
348.562	16.284	840.023	643.147
349.577	16.318	839.027	642.460
350.592	16.285	838.972	642.233
351.606	16.166	838.639	641.469
352.621	16.274	837.838	641.212
353.635	16.325	836.846	640.588
354.650	16.344	836.280	640.170
355.665	16.473	835.781	640.219
356.679	16.582	834.773	639.803
357.694	16.478	834.283	638.977
358.708	16.477	833.663	638.443
359.723	16.496	833.090	638.018
360.738	16.502	832.448	637.495
361.752	16.427	832.358	637.088
362.767	16.575	831.431	636.877
363.781	16.701	830.897	636.888
364.796	16.651	830.628	636.436
365.810	16.884	830.000	636.772
366.825	16.662	829.841	635.760
367.840	16.769	829.434	635.796
368.854	16.664	828.639	634.733
369.869	16.729	828.336	634.692
370.883	16.768	828.014	634.533
371.898	16.768	827.336	633.958
372.913	16.707	827.499	633.799
373.927	16.626	826.766	632.878
374.942	16.883	826.176	633.330
375.956	16.863	825.899	632.988
376.971	16.850	825.147	632.309
377.986	16.898	825.073	632.372
379.000	16.938	824.186	631.787
380.015	16.942	823.784	631.436
381.029	16.943	823.340	631.045
382.044	17.056	822.406	630.691
383.059	17.068	822.017	630.385
384.073	17.042	821.529	629.857
385.088	17.018	820.582	628.987
386.102	16.980	820.049	628.382
387.117	17.001	819.624	628.079
388.132	16.926	818.981	627.254
389.146	17.020	818.466	627.148
390.161	16.984	818.630	627.087
391.175	17.053	817.703	626.576
392.190	16.954	817.438	625.952
393.205	16.998	816.970	625.700
394.219	17.070	817.047	625.968
395.234	17.021	815.878	624.838
396.248	16.996	815.622	624.495
397.263	16.985	815.449	624.267
398.278	16.930	814.890	623.580
399.292	16.937	814.485	623.241
400.307	17.023	813.986	623.122
401.321	16.962	813.325	622.336
402.336	17.061	813.103	622.475
403.350	17.030	812.659	621.964
404.365	17.141	812.322	622.060
405.380	17.262	811.283	621.651
406.394	17.237	811.023	621.306
407.409	17.268	810.823	621.209
408.423	17.392	810.129	621.077
409.438	17.388	809.863	620.803
410.453	17.434	809.399	620.561
411.467	17.456	809.193	620.429
412.482	17.369	808.677	619.661
413.496	17.531	808.356	619.950
414.511	17.485	807.937	619.406
415.526	17.411	807.666	618.872
416.540	17.612	806.788	618.875
417.555	17.520	806.477	618.250
418.569	17.580	806.168	618.173
419.584	17.537	805.614	617.539
420.599	17.571	805.237	617.319
421.613	88.129	1257.873	1345.726
422.628	75.212	1323.860	1345.875
