DTS Sentinel unit serial number:	SN413079Multiplexer serial number:	ORYXHardware model number:	OX4-SRSoftware version number:	ORYX F/W v4.00 Oryx Data Collector v3.7.2.0data status	okinstallation	princeton_trtdifferential loss correction	single-endedforward channel	channel 1reverse channel	N/Adate	2019/09/17time	12:54:35forward acquisition time	60.00reverse acquisition time	0.00gamma	496.2192k internal	0.2314k external	0.2314temperature offset calibration	0.9965default loss term (dB/km)	0.3790temperature slope calibration	1.0000multiplexer offset coefficient	1.0000multiplexer slope coefficient	1.0000fibre end	0.00T internal ref (°C)	33.05T ext. ref 1 (°C)	0.42T ext. ref 2 (°C)	31.32length (m)	temperature (°C)	Stokes	anti-Stokes-747.200	-108.320	-0.082	0.018
-746.185	141.984	0.155	-0.209
-745.171	9.472	-0.160	-0.123
-744.156	-146.094	-0.245	-0.022
-743.142	-89.989	0.209	0.062
-742.127	-30.083	-0.041	-0.024
-741.112	-31.348	-0.194	-0.110
-740.098	-200.000	-0.029	0.393
-739.083	-200.000	-0.045	0.378
-738.069	800.000	0.048	-0.176
-737.054	-99.984	0.070	-0.018
-736.039	-200.000	-0.299	-0.000
-735.025	547.874	-0.113	0.275
-734.010	-19.907	-0.414	-0.259
-732.996	-200.000	0.037	0.216
-731.981	-200.000	0.026	0.337
-730.966	137.963	-0.170	0.226
-729.952	-200.000	0.012	0.094
-728.937	-68.406	-0.092	-0.036
-727.923	800.000	-0.079	0.245
-726.908	-58.614	-0.164	0.072
-725.894	188.948	-0.086	-0.130
-724.879	-163.468	0.045	0.002
-723.864	-62.616	-0.181	0.076
-722.850	159.040	0.135	0.190
-721.835	800.000	-0.044	-0.175
-720.821	800.000	-0.023	-0.103
-719.806	-28.003	-0.285	-0.167
-718.791	-98.216	-0.212	-0.055
-717.777	-21.626	-0.119	-0.073
-716.762	-100.107	0.234	0.059
-715.748	79.211	0.194	-0.211
-714.733	112.171	-0.192	-0.235
-713.718	124.956	-0.066	-0.084
-712.704	-19.135	-0.131	-0.082
-711.689	379.490	0.166	-0.344
-710.675	274.546	-0.084	-0.150
-709.660	-184.124	0.438	-0.007
-708.645	270.362	-0.116	-0.207
-707.631	800.000	-0.022	-0.081
-706.616	75.723	-0.211	0.226
-705.602	787.715	0.085	0.236
-704.587	-51.016	0.205	0.098
-703.572	171.304	-0.133	-0.193
-702.558	-200.000	0.057	-0.347
-701.543	26.575	0.030	-0.025
-700.529	-172.952	0.022	-0.001
-699.514	164.331	-0.180	0.257
-698.499	-125.834	-0.279	-0.043
-697.485	-93.913	0.148	-0.041
-696.470	76.223	-0.246	0.263
-695.456	-144.169	-0.379	-0.036
-694.441	40.138	-0.147	-0.134
-693.426	-31.488	-0.110	0.063
-692.412	55.373	-0.075	-0.073
-691.397	-200.000	0.016	-0.423
-690.383	149.066	0.056	0.077
-689.368	-46.792	-0.194	0.096
-688.354	-119.386	0.210	0.037
-687.339	-130.798	0.281	0.038
-686.324	800.000	0.045	0.131
-685.310	26.648	0.310	-0.262
-684.295	-26.263	0.195	0.116
-683.281	169.896	-0.174	-0.251
-682.266	-79.004	-0.239	-0.082
-681.251	353.232	-0.075	-0.151
-680.237	800.000	-0.077	-0.314
-679.222	-200.000	-0.016	-0.217
-678.208	-147.766	-0.315	0.027
-677.193	78.525	-0.173	-0.187
-676.178	-94.592	0.292	-0.080
-675.164	-35.918	0.231	0.126
-674.149	-72.946	-0.065	0.024
-673.135	-7.152	0.096	0.066
-672.120	-200.000	-0.013	-0.355
-671.105	800.000	0.136	-0.400
-670.091	86.268	0.098	-0.109
-669.076	-200.000	0.022	-0.305
-668.062	10.841	0.144	0.111
-667.047	-114.359	-0.144	0.028
-666.032	231.017	0.239	0.396
-665.018	-119.411	0.022	-0.004
-664.003	246.368	-0.090	-0.154
-662.989	-66.200	0.440	0.177
-661.974	800.000	0.058	0.213
-660.959	-109.801	0.189	0.040
-659.945	-180.655	0.090	-0.002
-658.930	161.277	-0.118	-0.167
-657.916	524.137	0.063	-0.149
-656.901	229.233	0.113	0.186
-655.886	-183.721	-0.048	-0.001
-654.872	321.614	0.212	0.408
-653.857	696.787	-0.077	-0.205
-652.843	555.245	-0.129	-0.314
-651.828	-111.765	-0.275	-0.056
-650.814	-147.869	0.230	-0.019
-649.799	-190.298	-0.260	0.003
-648.784	382.590	0.085	0.176
-647.770	-0.902	-0.173	-0.124
-646.755	355.435	0.071	0.142
-645.741	362.030	0.062	-0.127
-644.726	-20.639	-0.295	-0.183
-643.711	75.309	0.127	-0.135
-642.697	174.746	0.120	-0.176
-641.682	180.238	-0.092	-0.136
-640.668	800.000	-0.102	-0.342
-639.653	176.204	0.036	-0.053
-638.638	-38.895	-0.202	0.108
-637.624	-147.335	-0.084	0.007
-636.609	-200.000	0.010	-0.326
-635.595	800.000	-0.009	0.027
-634.580	206.719	0.048	-0.076
-633.565	118.640	-0.123	-0.153
-632.551	296.203	-0.071	-0.131
-631.536	-14.366	0.054	0.035
-630.522	413.614	-0.074	-0.159
-629.507	800.000	0.080	0.324
-628.492	341.591	0.084	0.166
-627.478	-112.626	-0.153	0.031
-626.463	5.728	0.198	-0.147
-625.449	86.770	0.253	-0.281
-624.434	175.113	0.061	0.089
-623.419	51.371	-0.244	-0.234
-622.405	-52.435	0.069	0.032
-621.390	15.172	0.127	-0.101
-620.376	800.000	0.081	0.228
-619.361	-118.133	0.174	-0.031
-618.346	376.534	0.082	-0.170
-617.332	-200.000	0.019	0.144
-616.317	794.055	-0.102	-0.283
-615.303	-159.742	-0.386	0.021
-614.288	122.353	0.105	0.132
-613.273	113.833	-0.113	-0.138
-612.259	-169.953	0.137	0.005
-611.244	-15.236	-0.224	-0.145
-610.230	-67.890	-0.483	-0.190
-609.215	11.082	-0.149	-0.115
-608.201	115.227	0.141	0.174
-607.186	265.690	-0.033	0.059
-606.171	250.419	0.118	-0.202
-605.157	-16.203	0.200	-0.128
-604.142	640.177	0.022	-0.057
-603.128	384.170	-0.074	-0.154
-602.113	146.753	0.044	0.060
-601.098	-200.000	-0.015	-0.221
-600.084	-177.365	0.058	-0.001
-599.069	-107.811	-0.157	0.035
-598.055	-23.460	-0.025	-0.015
-597.040	582.385	-0.016	-0.040
-596.025	-88.446	-0.339	-0.102
-595.011	57.198	0.218	0.214
-593.996	-92.004	-0.198	-0.056
-592.982	422.317	-0.032	0.069
-591.967	-9.247	-0.175	0.118
-590.952	-200.000	0.000	0.042
-589.938	44.725	0.113	-0.105
-588.923	-200.000	-0.037	0.289
-587.909	146.207	-0.160	0.217
-586.894	-142.023	-0.049	0.005
-585.879	800.000	0.040	0.166
-584.865	240.745	-0.058	-0.098
-583.850	-200.000	-0.015	0.489
-582.836	-7.510	0.154	0.105
-581.821	-107.165	-0.114	-0.025
-580.806	800.000	-0.059	-0.179
-579.792	800.000	0.073	-0.289
-578.777	800.000	-0.079	-0.232
-577.763	800.000	0.109	-0.316
-576.748	-24.601	0.269	-0.161
-575.733	-20.659	-0.080	0.050
-574.719	-16.306	0.301	-0.193
-573.704	-143.771	0.250	0.024
-572.690	800.000	0.081	-0.274
-571.675	-200.000	-0.036	-0.252
-570.661	-122.192	0.479	0.079
-569.646	-42.854	0.232	-0.119
-568.631	-123.052	0.294	-0.048
-567.617	-20.671	-0.122	-0.076
-566.602	-63.725	-0.131	0.054
-565.588	-200.000	0.002	0.200
-564.573	184.546	-0.133	0.199
-563.558	778.451	0.040	-0.109
-562.544	83.640	0.094	-0.103
-561.529	324.936	-0.055	0.105
-560.515	-22.105	0.091	0.056
-559.500	-200.000	-0.031	-0.340
-558.485	-74.006	-0.307	0.112
-557.471	-35.968	0.195	0.106
-556.456	123.637	0.049	0.062
-555.442	65.164	-0.282	0.287
-554.427	27.333	0.049	0.042
-553.412	-200.000	-0.006	-0.126
-552.398	-70.385	-0.256	0.098
-551.383	-61.655	0.417	-0.176
-550.369	-133.337	-0.174	-0.022
-549.354	29.966	-0.241	0.207
-548.339	-108.188	0.138	0.030
-547.325	3.539	0.367	-0.269
-546.310	-200.000	-0.037	0.522
-545.296	-200.000	-0.003	-0.013
-544.281	196.297	0.212	0.325
-543.266	477.421	0.012	0.026
-542.252	178.142	-0.103	0.151
-541.237	160.733	0.055	-0.077
-540.223	-27.244	-0.213	0.125
-539.208	-68.881	-0.219	-0.085
-538.193	376.493	0.137	-0.282
-537.179	511.674	0.057	0.133
-536.164	-33.980	-0.054	0.030
-535.150	98.769	-0.156	-0.181
-534.135	406.955	0.043	0.091
-533.121	310.209	0.070	-0.133
-532.106	167.135	0.053	0.075
-531.091	-200.000	0.013	0.062
-530.077	800.000	0.066	-0.186
-529.062	8.148	0.137	-0.103
-528.048	87.031	-0.038	-0.042
-527.033	5.661	0.269	0.200
-526.018	-121.659	-0.205	0.034
-525.004	800.000	-0.027	0.099
-523.989	142.360	-0.053	-0.071
-522.975	-37.669	-0.236	-0.127
-521.960	-117.818	0.166	-0.030
-520.945	461.820	0.061	-0.136
-519.931	800.000	0.070	-0.281
-518.916	366.903	-0.191	0.387
-517.902	-17.986	-0.189	-0.119
-516.887	28.089	-0.071	0.060
-515.872	-157.196	-0.294	-0.018
-514.858	-200.000	0.033	-0.208
-513.843	-200.000	0.023	-0.230
-512.829	600.913	-0.010	0.024
-511.814	-33.486	0.152	0.084
-510.799	25.480	-0.116	0.097
-509.785	-88.058	-0.334	-0.101
-508.770	-39.164	0.109	-0.058
-507.756	-27.916	-0.222	-0.129
-506.741	-132.851	0.174	0.022
-505.726	30.995	-0.021	0.018
-504.712	487.263	0.055	-0.126
-503.697	-78.534	0.157	-0.054
-502.683	-97.342	0.234	-0.061
-501.668	427.939	-0.078	-0.169
-500.653	-71.648	0.255	0.096
-499.639	-69.382	0.147	-0.057
-498.624	-80.936	0.236	-0.079
-497.610	82.549	-0.175	0.190
-496.595	-86.912	0.263	-0.081
-495.581	-43.060	-0.368	-0.187
-494.566	800.000	0.069	-0.229
-493.551	312.793	0.273	0.514
-492.537	-200.000	-0.004	-0.118
-491.522	-200.000	-0.001	-0.181
-490.508	197.981	0.085	-0.131
-489.493	-200.000	-0.012	-0.139
-488.478	293.662	-0.217	-0.397
-487.464	218.504	-0.124	-0.198
-486.449	199.868	0.041	-0.063
-485.435	-129.059	-0.296	-0.042
-484.420	-5.061	0.083	-0.057
-483.405	-170.588	-0.181	-0.006
-482.391	-200.000	0.112	0.000
-481.376	-200.000	0.050	0.269
-480.362	-200.000	0.008	0.281
-479.347	-47.749	-0.521	0.254
-478.332	124.545	0.115	0.145
-477.318	100.855	-0.088	0.102
-476.303	-200.000	0.009	0.461
-475.289	800.000	0.031	0.130
-474.274	257.091	0.159	-0.275
-473.259	-60.983	0.161	0.068
-472.245	-200.000	-0.014	0.328
-471.230	61.867	-0.167	0.167
-470.216	-200.000	0.051	0.289
-469.201	154.520	-0.180	0.247
-468.186	-130.716	0.025	0.003
-467.172	-200.000	0.015	0.072
-466.157	-74.927	-0.228	-0.082
-465.143	-38.954	0.236	0.125
-464.128	22.628	0.074	-0.061
-463.113	-200.000	-0.070	-0.414
-462.099	-105.930	-0.264	-0.060
-461.084	800.000	-0.065	-0.223
-460.070	376.715	0.170	-0.348
-459.055	154.407	0.162	0.224
-458.040	-41.124	-0.164	-0.085
-457.026	125.504	0.077	-0.097
-456.011	574.515	0.074	-0.180
-454.997	81.749	-0.051	-0.056
-453.982	-200.000	-0.083	0.450
-452.968	395.560	-0.036	-0.076
-451.953	530.890	-0.115	-0.273
-450.938	19.375	-0.178	0.144
-449.924	-11.106	0.304	0.201
-448.909	230.600	-0.054	-0.088
-447.895	644.090	-0.052	-0.132
-446.880	43.088	-0.143	-0.131
-445.865	185.660	-0.149	-0.222
-444.851	146.332	0.122	0.164
-443.836	30.594	-0.224	-0.192
-442.822	-200.000	-0.021	-0.723
-441.807	-121.563	-0.052	0.009
-440.792	-16.684	0.203	0.129
-439.778	-23.101	0.163	0.098
-438.763	-20.520	-0.320	-0.197
-437.749	13.021	-0.189	-0.147
-436.734	742.801	-0.117	0.316
-435.719	562.332	-0.049	-0.119
-434.705	-54.897	0.222	0.100
-433.690	-113.536	-0.222	0.043
-432.676	318.035	0.061	-0.116
-431.661	212.941	-0.158	-0.250
-430.646	-46.976	-0.261	-0.127
-429.632	-73.117	0.276	0.101
-428.617	-176.001	-0.316	-0.008
-427.603	289.261	0.059	0.107
-426.588	-141.551	0.207	-0.021
-425.573	19.355	-0.198	0.160
-424.559	-113.852	0.238	0.046
-423.544	63.925	0.204	0.205
-422.530	-27.009	0.150	-0.088
-421.515	134.376	-0.105	-0.136
-420.500	-135.858	0.071	-0.008
-419.486	10.982	-0.301	-0.230
-418.471	70.397	0.256	-0.265
-417.457	-53.612	0.300	0.137
-416.442	355.089	-0.013	-0.026
-415.428	162.769	0.121	-0.170
-414.413	340.958	0.049	-0.096
-413.398	553.034	0.122	-0.294
-412.384	-3.285	-0.167	-0.117
-411.369	767.785	0.049	0.134
-410.355	-116.968	-0.181	-0.033
-409.340	-200.000	0.030	-0.136
-408.325	534.214	0.162	0.383
-407.311	-200.000	-0.024	-0.229
-406.296	97.765	-0.161	0.185
-405.282	-200.000	-0.055	0.261
-404.267	-75.144	0.170	0.061
-403.252	800.000	0.103	-0.305
-402.238	-146.122	0.180	-0.016
-401.223	-29.970	0.121	0.069
-400.209	-39.323	0.336	0.177
-399.194	-200.000	-0.016	0.148
-398.179	-0.885	0.314	0.222
-397.165	51.045	0.328	0.311
-396.150	6.093	-0.101	0.075
-395.136	-20.831	0.236	-0.144
-394.121	46.200	0.255	-0.236
-393.106	-200.000	0.011	0.463
-392.092	241.393	-0.113	0.189
-391.077	-200.000	-0.016	0.377
-390.063	-21.935	-0.192	-0.117
-389.048	-200.000	0.041	-0.256
-388.033	-119.481	0.196	0.034
-387.019	408.768	0.139	0.294
-386.004	-90.800	0.037	-0.011
-384.990	-200.000	-0.079	-0.428
-383.975	-95.774	-0.455	0.122
-382.960	-77.972	0.134	0.046
-381.946	-200.000	-0.066	-0.385
-380.931	800.000	-0.053	0.223
-379.917	23.603	0.219	-0.180
-378.902	-200.000	0.010	0.106
-377.888	-100.072	0.096	-0.024
-376.873	17.181	-0.106	0.084
-375.858	-102.476	0.308	0.074
-374.844	-200.000	0.006	0.037
-373.829	227.097	-0.162	-0.263
-372.815	21.618	0.176	0.143
-371.800	248.980	-0.064	0.108
-370.785	260.745	-0.136	0.234
-369.771	753.348	0.074	-0.200
-368.756	800.000	0.092	-0.390
-367.742	215.019	-0.214	0.339
-366.727	-31.225	-0.053	0.030
-365.712	-76.034	0.233	-0.082
-364.698	23.298	-0.146	0.120
-363.683	411.313	-0.145	0.308
-362.669	141.084	-0.054	0.072
-361.654	180.532	0.172	-0.253
-360.639	-55.182	-0.232	0.104
-359.625	776.318	-0.112	0.305
-358.610	1.351	-0.238	0.171
-357.596	72.281	0.190	0.198
-356.581	219.025	0.028	0.045
-355.566	-200.000	-0.010	-0.111
-354.552	-9.044	-0.171	-0.114
-353.537	213.101	0.025	0.039
-352.523	800.000	-0.034	0.112
-351.508	-200.000	-0.015	0.141
-350.493	-7.652	0.043	0.029
-349.479	-200.000	0.043	0.362
-348.464	-100.498	0.384	0.095
-347.450	-123.947	0.121	-0.019
-346.435	184.880	-0.016	0.024
-345.420	539.240	-0.011	0.025
-344.406	-200.000	-0.023	-0.398
-343.391	800.000	-0.087	-0.264
-342.377	-6.782	-0.133	0.090
-341.362	-42.371	-0.592	-0.302
-340.348	-34.035	0.272	0.149
-339.333	-91.675	-0.135	0.038
-338.318	-116.710	-0.201	0.037
-337.304	800.000	0.028	0.094
-336.289	-200.000	0.020	0.332
-335.275	67.839	-0.186	0.190
-334.260	-200.000	0.004	-0.021
-333.245	-91.349	-0.294	0.084
-332.231	92.285	-0.169	0.190
-331.216	-28.904	-0.238	0.137
-330.202	-39.461	-0.233	-0.122
-329.187	243.582	-0.135	0.226
-328.172	87.545	0.060	0.066
-327.158	-138.884	-0.083	-0.009
-326.143	-200.000	0.021	0.105
-325.129	401.351	0.036	0.075
-324.114	438.637	0.079	-0.172
-323.099	511.375	-0.144	-0.335
-322.085	-103.103	-0.113	0.027
-321.070	-200.000	0.013	0.412
-320.056	385.843	-0.210	-0.431
-319.041	63.642	0.098	-0.098
-318.026	67.376	0.088	-0.090
-317.012	428.077	-0.097	-0.209
-315.997	-120.879	-0.243	0.041
-314.983	800.000	0.098	-0.269
-313.968	-200.000	-0.001	0.057
-312.953	67.300	-0.065	-0.066
-311.939	153.176	-0.232	0.317
-310.924	9.041	0.099	-0.074
-309.910	800.000	0.053	0.171
-308.895	800.000	0.016	-0.062
-307.880	-18.809	0.105	0.065
-306.866	-80.095	-0.198	0.066
-305.851	202.017	-0.019	-0.029
-304.837	800.000	-0.113	0.354
-303.822	-65.472	0.155	0.062
-302.807	183.942	-0.185	0.273
-301.793	479.708	-0.061	-0.137
-300.778	800.000	-0.061	0.245
-299.764	-200.000	-0.019	-0.124
-298.749	-162.363	-0.040	0.002
-297.735	-87.275	-0.099	-0.030
-296.720	-106.610	0.029	0.006
-295.705	-110.530	-0.106	-0.022
-294.691	-168.571	0.147	-0.006
-293.676	800.000	0.084	0.244
-292.662	793.511	0.035	-0.096
-291.647	-27.319	0.151	-0.087
-290.632	-200.000	0.025	-0.194
-289.618	-167.017	0.439	0.018
-288.603	-132.751	0.317	0.040
-287.589	800.000	-0.107	-0.323
-286.574	85.724	0.145	-0.159
-285.559	-95.601	-0.228	0.061
-284.545	-108.323	-0.198	-0.043
-283.530	-200.000	-0.010	-0.172
-282.516	413.271	-0.056	-0.118
-281.501	-116.402	-0.283	-0.052
-280.486	800.000	-0.118	0.414
-279.472	-97.350	0.286	0.074
-278.457	311.170	0.182	-0.339
-277.443	-83.642	0.205	-0.065
-276.428	-34.789	-0.270	0.147
-275.413	65.263	0.076	-0.076
-274.399	-200.000	0.021	0.195
-273.384	800.000	-0.132	0.387
-272.370	105.247	-0.236	0.277
-271.355	625.239	0.094	0.236
-270.340	-31.344	0.125	0.070
-269.326	212.829	0.116	-0.182
-268.311	-150.776	0.253	-0.019
-267.297	169.499	-0.213	0.303
-266.282	72.517	-0.065	-0.067
-265.267	800.000	-0.073	0.271
-264.253	100.678	-0.065	-0.075
-263.238	81.473	-0.072	0.077
-262.224	800.000	-0.011	0.034
-261.209	62.271	-0.187	-0.186
-260.195	-179.926	0.164	0.003
-259.180	-200.000	0.001	-0.209
-258.165	212.487	0.223	0.349
-257.151	-38.341	-0.072	0.038
-256.136	320.104	0.092	0.174
-255.122	228.093	-0.010	0.016
-254.107	-93.926	0.305	-0.083
-253.092	14.112	-0.134	-0.104
-252.078	-4.643	0.440	-0.302
-251.063	-200.000	-0.044	0.216
-250.049	577.882	-0.058	-0.141
-249.034	-41.389	-0.263	-0.135
-248.019	199.788	0.146	-0.223
-247.005	-200.000	0.021	-0.269
-245.990	-63.597	-0.167	-0.068
-244.976	21.983	0.176	0.143
-243.961	-200.000	-0.307	0.001
-242.946	800.000	-0.038	0.160
-241.932	-37.969	0.376	-0.198
-240.917	-170.868	0.060	-0.002
-239.903	-200.000	0.073	0.342
-238.888	303.149	-0.115	-0.213
-237.873	204.655	-0.060	-0.092
-236.859	-200.000	-0.003	-0.032
-235.844	800.000	-0.058	0.253
-234.830	60.115	0.107	-0.105
-233.815	1.405	0.290	0.208
-232.800	-113.229	0.208	-0.041
-231.786	-200.000	-0.020	-0.463
-230.771	-30.666	-0.175	-0.099
-229.757	130.320	-0.112	0.143
-228.742	-200.000	-0.018	0.136
-227.727	-112.941	0.200	0.039
-226.713	103.843	-0.096	0.112
-225.698	19.529	-0.156	-0.125
-224.684	-200.000	0.005	-0.297
-223.669	70.816	0.227	0.233
-222.655	375.691	0.187	0.379
-221.640	614.100	0.105	0.262
-220.625	194.628	0.118	0.177
-219.611	800.000	0.098	-0.273
-218.596	-46.171	0.140	-0.069
-217.582	-11.329	-0.213	-0.139
-216.567	465.106	-0.116	0.257
-215.552	424.184	-0.085	0.182
-214.538	-200.000	0.061	0.371
-213.523	800.000	0.039	-0.155
-212.509	-28.498	-0.137	-0.079
-211.494	156.747	0.198	-0.272
-210.479	282.610	0.102	-0.182
-209.465	622.328	-0.021	0.054
-208.450	445.214	0.129	-0.280
-207.436	8.372	0.178	-0.133
-206.421	51.781	-0.237	0.224
-205.406	-112.255	0.506	0.101
-204.392	-58.794	-0.184	-0.079
-203.377	584.129	-0.044	-0.108
-202.363	328.841	-0.139	-0.264
-201.348	258.738	-0.070	-0.120
-200.333	800.000	-0.036	0.102
-199.319	149.290	0.355	0.477
-198.304	38.639	-0.059	0.052
-197.290	-106.077	0.379	0.085
-196.275	248.648	-0.189	0.318
-195.260	395.249	-0.192	0.398
-194.246	800.000	0.099	-0.278
-193.231	-100.489	0.112	-0.028
-192.217	-200.000	-0.021	0.244
-191.202	234.474	0.106	-0.173
-190.187	-67.129	0.165	0.065
-189.173	-64.094	0.068	-0.028
-188.158	-200.000	0.025	-0.109
-187.144	-160.675	0.325	0.017
-186.129	0.174	-0.274	0.194
-185.114	-200.000	0.002	-0.256
-184.100	-105.235	0.146	0.033
-183.085	-200.000	0.017	-0.081
-182.071	38.704	0.121	-0.107
-181.056	292.823	-0.037	0.067
-180.042	291.983	-0.166	0.300
-179.027	-118.878	-0.306	-0.053
-178.012	-200.000	0.053	-0.247
-176.998	800.000	0.053	-0.211
-175.983	-113.808	-0.127	0.025
-174.969	383.432	-0.121	0.248
-173.954	-8.234	-0.100	0.067
-172.939	-200.000	-0.009	0.077
-171.925	-200.000	0.030	-0.144
-170.910	366.252	0.026	0.053
-169.896	-3.383	-0.224	0.155
-168.881	-51.576	-0.100	0.046
-167.866	585.468	0.077	-0.187
-166.852	-144.297	0.176	-0.016
-165.837	-44.171	0.103	0.051
-164.823	239.020	-0.178	0.293
-163.808	20.762	-0.249	0.199
-162.793	-150.226	0.226	0.017
-161.779	-200.000	-0.045	0.313
-160.764	-73.645	0.400	0.144
-159.750	-184.880	0.196	-0.003
-158.735	154.723	-0.174	-0.237
-157.720	212.677	-0.107	0.168
-156.706	-80.325	-0.124	-0.041
-155.691	448.222	0.070	-0.153
-154.677	-127.106	-0.116	0.017
-153.662	86.247	0.332	-0.363
-152.647	116.820	-0.072	-0.087
-151.633	-200.000	0.003	0.169
-150.618	-200.000	0.014	-0.149
-149.604	260.089	-0.317	-0.543
-148.589	409.445	-0.072	-0.150
-147.574	-137.503	0.192	-0.021
-146.560	234.974	-0.198	-0.323
-145.545	181.820	0.093	-0.136
-144.531	51.476	0.290	-0.273
-143.516	555.076	-0.083	-0.197
-142.502	18.069	-0.116	-0.092
-141.487	425.541	-0.059	0.127
-140.472	416.336	0.070	0.147
-139.458	-142.334	0.119	0.012
-138.443	-83.573	0.178	-0.056
-137.429	-117.549	0.098	-0.017
-136.414	-95.029	0.228	0.061
-135.399	-70.402	0.304	0.114
-134.385	-101.148	0.051	-0.012
-133.370	79.790	-0.132	-0.140
-132.356	-200.000	-0.003	-0.079
-131.341	-104.489	0.087	-0.020
-130.326	159.405	-0.127	0.175
-129.312	-200.000	-0.021	-0.146
-128.297	-48.926	0.210	-0.099
-127.283	-75.189	-0.136	-0.048
-126.268	-88.227	0.332	-0.098
-125.253	-18.386	0.119	-0.074
-124.239	-200.000	0.039	0.339
-123.224	149.527	0.260	0.349
-122.210	-38.661	-0.225	-0.118
-121.195	-151.761	-0.222	-0.016
-120.180	-33.393	-0.101	-0.055
-119.166	68.425	0.390	0.395
-118.151	7.605	0.194	-0.144
-117.137	-1.740	0.160	0.111
-116.122	-200.000	0.023	0.337
-115.107	-7.108	-0.289	0.194
-114.093	800.000	0.034	-0.092
-113.078	-29.963	0.220	-0.124
-112.064	13.147	0.119	-0.091
-111.049	800.000	0.097	-0.271
-110.034	-68.510	0.066	-0.025
-109.020	-200.000	-0.020	0.493
-108.005	377.526	0.076	0.154
-106.991	-76.673	0.039	0.014
-105.976	-61.812	-0.395	0.164
-104.962	487.702	-0.114	-0.258
-103.947	205.492	-0.126	-0.193
-102.932	800.000	0.145	0.398
-101.918	-9.043	-0.240	-0.159
-100.903	-29.828	0.218	0.123
-99.889	80.916	0.169	0.180
-98.874	595.423	0.106	-0.259
-97.859	26.620	-0.290	-0.240
-96.845	-200.000	-0.027	-0.330
-95.830	345.677	0.144	-0.281
-94.816	23.786	-0.281	-0.229
-93.801	-156.008	0.151	-0.009
-92.786	-139.146	0.283	-0.030
-91.772	-200.000	-0.012	-0.187
-90.757	-6.822	-0.120	-0.081
-89.743	377.296	0.301	0.609
-88.728	5.172	-0.234	-0.170
-87.713	-88.433	-0.203	-0.060
-86.699	-120.446	0.086	0.014
-85.684	-200.000	-0.024	0.312
-84.670	-200.000	-0.015	0.095
-83.655	204.490	0.144	-0.221
-82.640	-148.635	0.112	-0.009
-81.626	-121.047	0.204	-0.034
-80.611	800.000	0.011	-0.032
-79.597	-76.112	-0.187	-0.065
-78.582	800.000	0.055	-0.218
-77.567	117.350	0.107	0.130
-76.553	334.636	-0.049	0.094
-75.538	-18.081	0.205	0.127
-74.524	232.339	0.084	0.136
-73.509	800.000	0.097	0.321
-72.494	368.656	0.074	0.147
-71.480	-200.000	0.100	0.441
-70.465	-93.663	0.242	0.066
-69.451	800.000	0.019	0.065
-68.436	347.326	0.043	-0.083
-67.422	-200.000	-0.036	-0.250
-66.407	800.000	0.159	-0.485
-65.392	4.451	0.015	0.011
-64.378	8.161	0.090	-0.067
-63.363	-65.866	-0.093	0.037
-62.349	85.019	0.081	0.088
-61.334	96.585	-0.893	-1.009
-60.319	-43.952	0.933	0.463
-59.305	396.728	-0.409	-0.842
-58.290	483.657	0.551	1.237
-57.276	379.395	0.668	1.351
-56.261	-200.000	96.208	564.019
-55.246	507.544	1430.591	3276.191
-54.232	147.342	2634.006	3499.362
-53.217	110.421	2202.350	2611.618
-52.203	44.610	1643.611	1490.883
-51.188	36.480	1375.522	1197.530
-50.173	33.322	1332.060	1140.649
-49.159	54.121	1380.098	1309.820
-48.144	57.192	1397.771	1345.373
-47.130	36.749	1354.146	1180.371
-46.115	33.275	1335.971	1143.537
-45.100	33.104	1331.392	1138.540
-44.086	33.013	1329.125	1136.010
-43.071	32.970	1326.752	1133.677
-42.057	32.904	1324.691	1131.475
-41.042	32.924	1323.497	1130.530
-40.027	32.976	1322.000	1129.520
-39.013	32.975	1319.935	1127.702
-37.998	32.926	1318.011	1125.723
-36.984	33.071	1316.067	1124.883
-35.969	33.017	1314.712	1123.359
-34.954	33.225	1312.338	1122.517
-33.940	33.079	1311.425	1120.830
-32.925	33.144	1310.050	1119.992
-31.911	33.158	1308.627	1118.813
-30.896	33.189	1306.891	1117.473
-29.881	33.177	1305.610	1116.258
-28.867	33.164	1304.578	1115.258
-27.852	33.139	1302.704	1113.465
-26.838	33.114	1301.411	1112.164
-25.823	33.110	1300.400	1111.233
-24.809	33.134	1298.809	1109.972
-23.794	33.199	1297.060	1108.816
-22.779	33.221	1295.774	1107.803
-21.765	33.220	1294.700	1106.833
-20.750	33.148	1293.084	1104.985
-19.736	33.124	1292.143	1103.997
-18.721	32.946	1291.290	1102.187
-17.706	33.033	1289.571	1101.180
-16.692	32.984	1288.434	1099.882
-15.677	33.099	1287.500	1099.713
-14.663	33.022	1286.382	1098.264
-13.648	32.913	1285.840	1097.123
-12.633	32.855	1284.869	1095.919
-11.619	33.029	1283.719	1095.900
-10.604	32.890	1283.078	1094.503
-9.590	32.888	1281.656	1093.234
-8.575	32.880	1280.836	1092.449
-7.560	32.916	1279.800	1091.729
-6.546	32.886	1279.508	1091.265
-5.531	32.943	1277.901	1090.176
-4.517	33.087	1277.062	1090.250
-3.502	32.935	1276.943	1089.228
-2.487	33.047	1275.257	1088.389
-1.473	33.048	1271.815	1085.415
-0.458	32.337	1257.543	1069.155
0.556	27.691	1241.451	1034.474
1.571	24.142	1247.172	1018.889
2.586	22.621	1262.393	1022.420
3.600	21.825	1250.179	1007.867
4.615	15.903	1174.710	914.858
5.629	5.663	1094.342	800.119
6.644	0.879	1072.357	759.991
7.659	0.301	1069.972	755.339
8.673	0.145	1068.979	753.789
9.688	0.358	1067.176	753.516
10.702	0.429	1066.060	753.017
11.717	6.203	1073.592	787.237
12.731	15.040	1085.477	840.433
13.746	18.103	1088.199	857.863
14.761	17.221	1086.629	852.129
15.775	16.256	1084.735	845.734
16.790	15.230	1082.079	838.455
17.804	14.581	1080.930	834.250
18.819	14.235	1079.769	831.548
19.834	13.910	1078.662	829.004
20.848	13.676	1077.546	826.905
21.863	13.483	1076.389	824.983
22.877	13.241	1076.108	823.489
23.892	13.269	1075.383	822.999
24.907	13.176	1074.840	822.049
25.921	13.195	1074.133	821.528
26.936	13.319	1073.161	821.329
27.950	13.428	1072.102	820.986
28.965	13.380	1070.960	819.800
29.980	13.424	1070.019	819.229
30.994	13.475	1068.977	818.608
32.009	13.546	1067.782	817.971
33.023	13.390	1066.935	816.482
34.038	13.396	1066.116	815.812
35.053	13.369	1065.057	814.796
36.067	13.311	1064.068	813.684
37.082	13.514	1062.932	813.741
38.096	13.448	1062.431	812.960
39.111	13.394	1061.899	812.217
40.126	13.354	1060.576	810.936
41.140	13.195	1059.486	809.253
42.155	13.186	1058.521	808.399
43.169	13.256	1057.127	807.606
44.184	13.256	1056.257	806.867
45.199	13.129	1055.599	805.673
46.213	13.288	1054.379	805.447
47.228	13.373	1053.217	804.903
48.242	13.280	1052.318	803.694
49.257	13.243	1051.533	802.840
50.271	13.342	1050.293	802.301
51.286	13.394	1049.522	801.895
52.301	13.408	1048.347	800.994
53.315	13.352	1047.736	800.184
54.330	13.272	1046.576	798.844
55.344	13.318	1045.668	798.300
56.359	13.374	1044.802	797.838
57.374	13.193	1044.092	796.357
58.388	13.320	1043.011	796.073
59.403	13.194	1042.533	795.028
60.417	13.211	1041.424	794.193
61.432	13.306	1040.599	793.950
62.447	13.188	1039.571	792.532
63.461	13.108	1039.096	791.715
64.476	13.130	1037.748	790.722
65.490	13.186	1037.132	790.453
66.505	13.159	1036.770	789.978
67.520	13.034	1036.128	788.820
68.534	13.141	1035.339	788.663
69.549	13.229	1034.529	788.396
70.563	13.215	1033.507	787.482
71.578	13.129	1032.636	786.337
72.593	13.025	1031.947	785.249
73.607	13.146	1031.452	785.376
74.622	13.037	1030.982	784.431
75.636	13.143	1029.874	784.021
76.651	13.142	1029.259	783.481
77.666	13.029	1028.754	782.492
78.680	13.104	1028.439	782.536
79.695	13.040	1027.152	781.183
80.709	13.169	1026.640	781.336
81.724	13.223	1026.197	781.188
82.739	13.176	1025.261	780.184
83.753	13.381	1024.312	780.360
84.768	13.507	1022.757	779.699
85.782	13.491	1022.154	779.094
86.797	13.427	1021.573	778.280
87.812	13.328	1020.844	777.194
88.826	13.289	1019.729	776.091
89.841	13.397	1018.603	775.671
90.855	13.466	1017.910	775.401
91.870	13.501	1016.997	774.798
92.884	13.446	1016.115	773.800
93.899	13.480	1015.259	773.238
94.914	13.533	1014.335	772.715
95.928	13.570	1013.621	772.274
96.943	13.450	1013.089	771.244
97.957	13.490	1011.923	770.472
98.972	13.459	1011.184	769.696
99.987	13.471	1010.179	768.917
101.001	13.464	1008.915	767.859
102.016	13.449	1008.244	767.207
103.030	13.545	1007.698	767.170
104.045	13.446	1006.845	765.995
105.060	13.350	1006.181	764.978
106.074	13.342	1005.362	764.249
107.089	13.308	1004.533	763.394
108.103	13.266	1003.303	762.200
109.118	13.231	1002.140	761.090
110.133	13.309	1001.198	760.663
111.147	13.252	1000.716	759.968
112.162	13.421	999.480	759.738
113.176	13.316	998.813	758.682
114.191	13.425	997.928	758.442
115.206	13.306	997.271	757.330
116.220	13.336	996.551	756.856
117.235	13.362	995.531	756.131
118.249	13.334	994.479	755.139
119.264	13.182	994.172	754.143
120.279	13.267	993.609	754.037
121.293	13.334	992.361	753.330
122.308	13.272	991.188	752.093
123.322	13.349	989.993	751.467
124.337	13.378	989.189	750.922
125.352	13.441	988.174	750.373
126.366	13.322	986.926	748.819
127.381	13.376	986.160	748.414
128.395	13.359	985.025	747.410
129.410	13.233	984.282	746.212
130.424	13.434	983.375	746.363
131.439	13.447	982.657	745.813
132.454	13.505	981.742	745.312
133.468	13.399	981.377	744.495
134.483	13.529	980.201	744.118
135.497	13.461	979.369	743.117
136.512	13.378	978.543	742.053
137.527	13.416	977.649	741.479
138.541	13.456	976.904	741.025
139.556	13.489	976.194	740.571
140.570	13.459	975.538	739.871
141.585	13.573	974.682	739.667
142.600	13.562	973.860	738.928
143.614	13.661	972.937	738.607
144.629	13.567	971.983	737.398
145.643	13.650	971.188	737.096
146.658	13.500	970.226	735.636
147.673	13.457	969.215	734.612
148.687	13.375	968.377	733.549
149.702	13.468	967.077	732.911
150.716	13.428	966.852	732.499
151.731	13.421	966.040	731.787
152.746	13.499	965.284	731.496
153.760	13.541	964.271	730.847
154.775	13.613	964.147	731.006
155.789	13.620	963.523	730.498
156.804	13.583	962.852	729.765
157.819	13.588	961.722	728.866
158.833	13.683	961.501	729.051
159.848	13.798	960.139	728.458
160.862	13.747	959.623	727.781
161.877	13.658	958.662	726.596
162.892	13.691	957.079	725.475
163.906	13.596	956.433	724.506
164.921	13.684	955.531	724.142
165.935	13.757	955.022	724.011
166.950	13.776	954.111	723.341
167.964	13.810	952.860	722.475
168.979	13.722	952.164	721.504
169.994	13.647	951.678	720.741
171.008	13.722	950.810	720.347
172.023	13.830	949.885	720.051
173.037	13.823	949.397	719.587
174.052	13.712	948.881	718.654
175.067	13.725	947.787	717.818
176.081	13.712	947.313	717.340
177.096	13.660	946.927	716.759
178.110	13.666	946.133	716.119
179.125	13.776	945.375	715.959
180.140	13.910	944.788	716.025
181.154	13.719	944.679	715.058
182.169	13.890	944.002	715.218
183.183	13.883	943.398	714.666
184.198	13.884	942.793	714.148
185.213	14.081	941.637	714.058
186.227	14.114	940.541	713.303
187.242	14.116	940.092	712.908
188.256	14.120	939.607	712.497
189.271	13.978	939.107	711.446
190.286	13.848	938.233	710.163
191.300	13.775	937.553	709.273
192.315	13.680	937.506	708.770
193.329	13.794	936.243	708.238
194.344	13.819	935.472	707.699
195.359	13.921	935.178	707.848
196.373	13.921	934.467	707.250
197.388	14.052	933.964	707.364
198.402	14.070	933.510	707.032
199.417	14.154	933.036	706.970
200.432	14.107	932.581	706.360
201.446	14.127	931.936	705.898
202.461	14.293	931.316	706.069
203.475	14.267	930.730	705.449
204.490	14.245	929.728	704.537
205.504	14.246	928.936	703.878
206.519	14.144	928.251	702.867
207.534	14.276	927.626	702.886
208.548	14.189	926.909	701.916
209.563	14.188	926.218	701.326
210.577	14.286	925.526	701.154
211.592	14.371	924.996	701.045
212.607	14.334	923.949	700.035
213.621	14.292	923.394	699.377
214.636	14.351	922.513	698.892
215.650	14.254	922.048	698.072
216.665	14.422	921.182	698.059
217.680	14.417	920.506	697.463
218.694	14.479	920.186	697.421
219.709	14.542	918.914	696.659
220.723	14.399	918.354	695.575
221.738	14.421	917.907	695.264
222.753	14.479	916.790	694.601
223.767	14.523	916.198	694.275
224.782	14.541	915.767	693.959
225.796	14.441	915.619	693.372
226.811	14.558	914.723	693.115
227.826	14.465	914.082	692.182
228.840	14.466	913.346	691.570
229.855	14.530	912.148	690.865
230.869	14.445	911.757	690.155
231.884	14.458	911.135	689.680
232.899	14.585	909.903	689.211
233.913	14.566	909.281	688.599
234.928	14.594	908.811	688.299
235.942	14.581	908.485	687.935
236.957	14.454	908.304	687.214
237.972	14.625	907.337	687.124
238.986	14.468	906.712	685.947
240.001	14.552	905.802	685.545
241.015	14.604	905.176	685.221
242.030	14.673	904.489	684.922
243.045	14.668	903.948	684.434
244.059	14.767	903.433	684.389
245.074	14.598	902.698	683.080
246.088	14.681	901.946	682.790
247.103	14.774	901.441	682.725
248.117	14.712	900.943	682.037
249.132	14.802	900.345	681.891
250.147	14.922	899.512	681.689
251.161	14.836	899.283	681.103
252.176	14.948	898.447	680.867
253.190	15.000	897.772	680.507
254.205	15.009	897.189	680.041
255.220	15.044	896.129	679.318
256.234	14.864	896.133	678.532
257.249	15.108	894.909	678.532
258.263	15.048	894.779	678.133
259.278	15.049	893.639	677.210
260.293	15.065	893.215	676.896
261.307	15.232	892.712	677.127
262.322	15.177	891.849	676.191
263.336	15.134	891.129	675.414
264.351	15.254	890.115	675.069
265.366	15.281	889.700	674.803
266.380	15.301	889.096	674.364
267.395	15.182	888.741	673.560
268.409	15.158	887.714	672.626
269.424	15.204	887.304	672.437
270.439	15.357	886.144	672.113
271.453	15.419	885.284	671.648
272.468	15.282	885.110	670.911
273.482	15.129	884.815	670.014
274.497	15.275	884.072	669.976
275.512	15.279	883.370	669.400
276.526	15.292	882.927	669.059
277.541	15.328	882.446	668.777
278.555	15.366	881.560	668.196
279.570	15.456	880.883	667.984
280.585	15.389	880.368	667.267
281.599	15.370	879.519	666.489
282.614	15.453	878.618	666.078
283.628	15.507	878.046	665.799
284.643	15.367	877.672	664.903
285.657	15.595	876.706	665.014
286.672	15.463	876.485	664.263
287.687	15.473	875.708	663.656
288.701	15.453	875.162	663.106
289.716	15.462	875.039	662.987
290.730	15.447	874.312	662.321
291.745	15.498	873.559	661.893
292.760	15.591	872.906	661.703
293.774	15.574	872.324	661.138
294.789	15.618	871.654	660.747
295.803	15.566	871.047	660.023
296.818	15.613	869.623	659.070
297.833	15.697	869.370	659.150
298.847	15.603	868.938	658.394
299.862	15.695	868.124	658.081
300.876	15.643	867.855	657.615
301.891	15.742	867.428	657.619
302.906	15.781	866.712	657.172
303.920	15.871	866.014	656.934
304.935	15.977	865.777	657.109
305.949	15.814	865.374	656.110
306.964	15.842	864.442	655.456
307.979	15.916	864.096	655.423
308.993	15.906	863.194	654.643
310.008	16.008	862.612	654.537
311.022	15.874	862.158	653.616
312.037	15.798	861.736	652.944
313.052	15.878	861.260	652.835
314.066	15.849	860.488	652.081
315.081	15.930	859.767	651.788
316.095	15.870	859.619	651.386
317.110	16.027	858.722	651.256
318.125	15.941	858.256	650.512
319.139	15.949	857.534	649.939
320.154	15.982	856.951	649.568
321.168	15.984	856.586	649.241
322.183	15.939	856.281	648.777
323.197	15.919	855.739	648.233
324.212	15.856	855.013	647.384
325.227	15.954	854.613	647.400
326.241	15.942	854.067	646.884
327.256	15.936	853.537	646.402
328.270	15.904	852.935	645.766
329.285	16.013	851.907	645.347
330.300	16.004	851.288	644.789
331.314	16.054	851.292	644.927
332.329	16.009	850.469	644.071
333.343	16.136	850.309	644.380
334.358	16.168	849.871	644.111
335.373	16.160	849.570	643.796
336.387	16.135	849.302	643.443
337.402	16.386	848.693	643.882
338.416	16.156	848.543	642.831
339.431	16.112	848.101	642.274
340.446	16.296	847.734	642.640
341.460	16.338	847.126	642.280
342.475	16.315	846.605	641.744
343.489	16.396	845.993	641.528
344.504	16.300	845.747	640.921
345.519	16.521	845.049	641.172
346.533	16.504	844.498	640.636
347.548	16.341	844.189	639.727
348.562	16.324	843.349	638.968
349.577	16.440	843.087	639.152
350.592	16.406	842.216	638.305
351.606	16.377	841.538	637.626
352.621	16.323	840.938	636.914
353.635	16.421	840.042	636.547
354.650	16.486	839.924	636.646
355.665	16.511	839.095	636.055
356.679	16.548	838.151	635.424
357.694	16.494	837.919	634.989
358.708	16.583	836.934	634.519
359.723	16.579	836.555	634.159
360.738	16.601	836.019	633.779
361.752	16.734	835.186	633.588
362.767	16.708	834.974	633.278
363.781	16.713	834.479	632.863
364.796	16.738	834.171	632.667
365.810	16.729	833.767	632.272
366.825	16.773	833.089	631.865
367.840	16.706	832.755	631.305
368.854	16.644	832.359	630.720
369.869	16.811	831.566	630.684
370.883	16.729	831.236	630.071
371.898	16.893	830.685	630.210
372.913	16.785	830.255	629.426
373.927	16.758	830.446	629.413
374.942	16.934	829.468	629.271
375.956	16.946	828.869	628.805
376.971	17.052	828.625	628.959
377.986	16.960	828.183	628.225
379.000	16.966	828.131	628.151
380.015	17.169	826.994	627.984
381.029	16.913	826.781	626.821
382.044	17.222	825.705	627.091
383.059	17.083	825.371	626.269
384.073	17.073	825.213	626.057
385.088	17.051	824.102	625.078
386.102	16.984	823.568	624.370
387.117	17.016	823.178	624.135
388.132	16.986	822.630	623.557
389.146	17.044	822.115	623.323
390.161	17.068	821.501	622.889
391.175	17.146	821.389	623.037
392.190	17.218	820.412	622.505
393.205	16.976	820.437	621.583
394.219	16.969	820.314	621.410
395.234	17.089	819.591	621.246
396.248	17.088	818.849	620.625
397.263	17.056	818.931	620.513
398.278	17.151	818.410	620.411
399.292	17.209	817.690	620.022
400.307	17.056	817.322	619.129
401.321	17.075	816.910	618.832
402.336	17.207	816.499	618.948
403.350	17.094	815.727	617.897
404.365	17.389	815.038	618.393
405.380	17.227	814.822	617.584
406.394	17.416	814.132	617.693
407.409	17.285	814.133	617.163
408.423	17.454	813.687	617.386
409.438	17.479	813.045	616.934
410.453	17.365	812.873	616.334
411.467	17.540	811.972	616.231
412.482	17.428	811.805	615.643
413.496	17.500	811.778	615.831
414.511	17.382	811.451	615.101
415.526	17.534	810.599	614.949
416.540	17.423	810.278	614.251
417.555	17.648	809.725	614.588
418.569	17.477	809.404	613.675
419.584	17.640	808.628	613.619
420.599	17.645	808.465	613.457
421.613	105.668	1286.744	1451.375
422.628	91.053	1356.410	1451.475
