DTS Sentinel unit serial number:	SN413079Multiplexer serial number:	ORYXHardware model number:	OX4-SRSoftware version number:	ORYX F/W v4.00 Oryx Data Collector v3.7.2.0data status	okinstallation	princeton_trtdifferential loss correction	single-endedforward channel	channel 1reverse channel	N/Adate	2019/09/19time	14:50:36forward acquisition time	60.00reverse acquisition time	0.00gamma	496.2192k internal	0.2317k external	0.2317temperature offset calibration	1.0019default loss term (dB/km)	0.3790temperature slope calibration	1.0000multiplexer offset coefficient	1.0000multiplexer slope coefficient	1.0000fibre end	0.00T internal ref (°C)	32.81T ext. ref 1 (°C)	1.11T ext. ref 2 (°C)	29.79length (m)	temperature (°C)	Stokes	anti-Stokes-747.200	-43.679	0.223	0.114
-746.185	-80.515	-0.237	0.080
-745.171	14.995	-0.066	0.052
-744.156	420.901	0.193	0.419
-743.142	-58.015	0.241	0.106
-742.127	67.092	-0.157	0.162
-741.112	146.979	0.124	-0.168
-740.098	-86.874	-0.084	-0.026
-739.083	38.157	0.184	0.166
-738.069	-122.817	0.345	0.056
-737.054	-200.000	-0.003	-0.185
-736.039	-8.608	-0.205	0.139
-735.025	-31.058	0.180	0.103
-734.010	32.907	-0.153	0.134
-732.996	48.312	-0.321	-0.304
-731.981	-89.104	0.136	-0.041
-730.966	139.312	-0.087	0.116
-729.952	-4.627	-0.349	-0.244
-728.937	227.700	-0.202	0.332
-727.923	-97.959	-0.214	-0.056
-726.908	800.000	0.011	-0.043
-725.894	-82.007	-0.168	-0.056
-724.879	-6.324	-0.095	-0.066
-723.864	-200.000	0.097	0.000
-722.850	800.000	0.115	0.342
-721.835	-10.755	0.278	-0.186
-720.821	-34.479	-0.217	0.120
-719.806	-42.123	-0.299	0.155
-718.791	223.904	-0.193	0.315
-717.777	-86.419	0.091	0.028
-716.762	154.226	-0.181	-0.251
-715.748	24.482	-0.058	0.049
-714.733	-103.700	0.170	-0.040
-713.718	-42.649	0.293	-0.151
-712.704	-163.620	0.528	-0.025
-711.689	-137.500	-0.132	-0.015
-710.675	-164.516	0.107	0.005
-709.660	-177.516	-0.383	-0.009
-708.645	144.700	0.152	-0.205
-707.631	187.323	0.059	-0.088
-706.616	800.000	0.042	0.169
-705.602	82.394	-0.165	-0.181
-704.587	-116.217	0.258	0.048
-703.572	-147.892	-0.224	0.019
-702.558	-185.943	0.260	0.004
-701.543	263.216	-0.129	-0.226
-700.529	-89.217	0.266	-0.079
-699.514	800.000	0.007	-0.030
-698.499	101.736	0.061	-0.072
-697.485	396.124	0.096	-0.203
-696.470	632.317	0.083	0.213
-695.456	-71.034	0.137	0.052
-694.441	800.000	0.068	0.201
-693.426	-200.000	-0.007	0.235
-692.412	109.332	0.029	0.035
-691.397	-154.477	0.343	0.023
-690.383	16.395	0.106	0.085
-689.368	191.396	-0.104	-0.158
-688.354	-148.192	0.103	-0.009
-687.339	57.045	-0.383	-0.377
-686.324	99.381	-0.140	0.163
-685.310	159.665	-0.320	0.450
-684.295	484.382	0.017	0.039
-683.281	61.329	-0.101	0.101
-682.266	17.633	-0.222	-0.178
-681.251	-13.491	-0.269	0.176
-680.237	453.748	0.074	-0.166
-679.222	-51.537	0.224	-0.106
-678.208	800.000	-0.065	0.218
-677.193	-97.146	0.146	-0.038
-676.178	-200.000	-0.009	0.219
-675.164	-111.232	-0.214	0.044
-674.149	-96.592	-0.121	0.032
-673.135	145.252	0.109	-0.148
-672.120	17.678	-0.079	-0.063
-671.105	-200.000	-0.036	-0.387
-670.091	104.642	-0.151	0.180
-669.076	544.778	-0.091	0.219
-668.062	32.303	-0.059	0.051
-667.047	78.708	0.105	-0.114
-666.032	-106.848	0.342	0.077
-665.018	-166.732	-0.319	-0.013
-664.003	583.074	-0.069	-0.171
-662.989	800.000	-0.031	-0.119
-661.974	137.757	-0.221	-0.291
-660.959	800.000	0.028	0.097
-659.945	568.149	-0.136	0.332
-658.930	-130.565	0.014	0.002
-657.916	582.463	0.056	-0.140
-656.901	-92.639	0.060	0.017
-655.886	-92.876	-0.173	-0.049
-654.872	-32.175	0.094	-0.053
-653.857	800.000	0.079	-0.317
-652.843	-137.665	-0.146	0.017
-651.828	-176.314	-0.232	0.006
-650.814	88.051	-0.244	-0.273
-649.799	-37.415	0.418	0.225
-648.784	-112.372	-0.189	0.038
-647.770	-78.864	-0.356	0.122
-646.755	-29.305	-0.189	0.109
-645.741	-64.122	0.357	-0.147
-644.726	14.239	-0.118	0.092
-643.711	44.728	0.165	-0.153
-642.697	-9.623	0.039	-0.026
-641.682	222.923	-0.088	-0.144
-640.668	-105.250	-0.140	0.032
-639.653	-85.028	0.142	0.045
-638.638	-200.000	-0.018	-0.270
-637.624	-200.000	-0.025	-0.274
-636.609	-200.000	0.042	-0.224
-635.595	-47.511	-0.171	-0.084
-634.580	65.537	0.334	-0.340
-633.565	-200.000	-0.062	-0.339
-632.551	-24.601	-0.328	-0.197
-631.536	800.000	0.036	-0.130
-630.522	800.000	-0.051	0.221
-629.507	800.000	-0.045	0.187
-628.492	-69.902	0.071	0.027
-627.478	-28.370	-0.150	0.087
-626.463	-141.813	-0.366	-0.037
-625.449	-200.000	0.016	0.222
-624.434	-131.124	0.050	0.007
-623.419	156.582	-0.166	-0.232
-622.405	800.000	-0.103	-0.309
-621.390	54.584	-0.123	0.120
-620.376	-111.082	0.170	0.035
-619.361	-200.000	-0.058	-0.303
-618.346	117.874	0.082	-0.102
-617.332	-110.460	-0.116	-0.024
-616.317	-200.000	0.066	-0.314
-615.303	-200.000	-0.024	0.230
-614.288	-200.000	-0.036	0.172
-613.273	38.139	0.231	-0.207
-612.259	800.000	-0.110	0.411
-611.244	306.325	0.008	0.015
-610.230	76.054	-0.036	-0.039
-609.215	281.641	0.116	0.209
-608.201	-48.897	0.133	-0.064
-607.186	-138.550	-0.286	-0.032
-606.171	-200.000	0.021	-0.469
-605.157	89.657	0.209	0.235
-604.142	167.952	0.148	-0.212
-603.128	-200.000	0.056	-0.346
-602.113	-200.000	-0.007	-0.076
-601.098	-200.000	-0.052	0.262
-600.084	-95.647	0.318	-0.086
-599.069	-69.647	-0.211	-0.081
-598.055	77.005	0.094	0.101
-597.040	-200.000	-0.004	-0.107
-596.025	160.349	-0.157	-0.221
-595.011	137.512	0.049	-0.064
-593.996	-200.000	-0.033	0.153
-592.982	-200.000	0.026	-0.254
-591.967	-10.121	0.145	-0.097
-590.952	-43.916	-0.220	0.112
-589.938	-200.000	0.009	0.101
-588.923	221.100	-0.136	0.220
-587.909	-42.968	0.259	0.132
-586.894	-134.215	0.048	0.006
-585.879	637.939	0.084	0.214
-584.865	15.342	0.278	-0.219
-583.850	-13.429	0.120	-0.079
-582.836	-98.943	0.327	0.084
-581.821	102.560	-0.151	0.178
-580.806	-0.004	0.101	0.072
-579.792	-138.099	-0.440	0.049
-578.777	800.000	-0.010	0.029
-577.763	-29.731	-0.368	-0.211
-576.748	118.054	0.057	-0.071
-575.733	-200.000	-0.016	-0.171
-574.719	800.000	-0.078	0.231
-573.704	-155.660	0.156	-0.010
-572.690	122.068	-0.178	-0.223
-571.675	-7.140	-0.233	0.159
-570.661	-80.574	0.285	0.096
-569.646	-44.738	-0.077	0.039
-568.631	-56.974	-0.056	-0.025
-567.617	-4.005	0.262	-0.183
-566.602	-109.651	0.262	-0.056
-565.588	-25.204	0.205	-0.122
-564.573	-147.429	0.283	0.024
-563.558	-200.000	-0.006	0.217
-562.544	-200.000	-0.046	0.241
-561.529	69.643	-0.177	0.184
-560.515	2.480	0.199	0.145
-559.500	-18.205	0.172	0.108
-558.485	-10.095	0.153	-0.102
-557.471	-90.256	-0.355	-0.104
-556.456	69.438	0.091	0.094
-555.442	100.364	0.112	0.131
-554.427	-100.186	0.278	0.070
-553.412	-49.366	0.271	-0.130
-552.398	107.301	-0.255	0.304
-551.383	269.428	0.063	0.112
-550.369	-200.000	-0.015	-0.309
-549.354	-115.046	0.178	0.034
-548.339	471.956	0.066	-0.148
-547.325	800.000	-0.072	0.231
-546.310	-125.664	0.290	-0.044
-545.296	666.414	-0.090	0.234
-544.281	-200.000	0.007	-0.034
-543.266	800.000	0.068	0.265
-542.252	800.000	-0.059	-0.185
-541.237	-200.000	0.004	0.247
-540.223	-200.000	0.040	0.269
-539.208	-19.389	-0.091	-0.057
-538.193	262.188	0.163	0.284
-537.179	-42.609	0.223	0.114
-536.164	151.031	-0.195	-0.267
-535.150	95.957	-0.269	-0.308
-534.135	-200.000	-0.020	-0.132
-533.121	-135.748	0.143	0.017
-532.106	-93.797	-0.118	0.033
-531.091	303.413	-0.178	-0.332
-530.077	-80.680	0.270	-0.090
-529.062	-67.906	0.627	-0.246
-528.048	632.268	0.053	-0.134
-527.033	727.371	-0.083	-0.222
-526.018	-41.690	-0.123	-0.063
-525.004	43.398	0.091	-0.083
-523.989	-200.000	0.003	-0.116
-522.975	15.637	0.150	-0.118
-521.960	-6.310	0.229	-0.157
-520.945	-200.000	0.010	-0.303
-519.931	253.872	0.083	-0.142
-518.916	200.555	-0.203	0.314
-517.902	-51.920	-0.492	-0.229
-516.887	-103.992	-0.319	0.075
-515.872	475.556	0.114	-0.259
-514.858	155.422	0.215	0.297
-513.843	-80.708	-0.255	0.085
-512.829	-78.986	-0.375	-0.128
-511.814	-41.328	0.128	0.066
-510.799	68.762	0.076	-0.079
-509.785	389.704	0.108	-0.225
-508.770	88.283	-0.067	-0.074
-507.756	800.000	0.106	0.307
-506.741	-89.066	-0.294	-0.087
-505.726	-40.033	-0.154	-0.080
-504.712	-73.310	-0.064	0.023
-503.697	389.250	-0.172	-0.357
-502.683	444.218	0.134	0.294
-501.668	120.228	-0.186	-0.232
-500.653	-118.778	-0.288	0.051
-499.639	34.336	0.293	0.257
-498.624	-94.783	0.259	-0.070
-497.610	-79.157	-0.215	-0.073
-496.595	242.431	-0.197	0.331
-495.581	39.624	0.106	0.095
-494.566	-94.357	0.423	-0.116
-493.551	109.015	-0.201	0.241
-492.537	100.750	-0.108	0.126
-491.522	-95.332	0.290	0.078
-490.508	-85.204	-0.243	0.076
-489.493	-200.000	0.052	0.360
-488.478	800.000	0.072	0.254
-487.464	366.378	-0.077	0.156
-486.449	-105.725	-0.274	-0.062
-485.435	157.188	0.050	-0.069
-484.420	566.757	0.059	-0.143
-483.405	-200.000	0.001	0.173
-482.391	-72.069	-0.181	0.067
-481.376	-88.846	-0.108	0.032
-480.362	-68.075	-0.168	-0.066
-479.347	-200.000	0.243	0.000
-478.332	435.821	-0.055	0.120
-477.318	-52.975	-0.231	-0.106
-476.303	-23.097	0.131	0.079
-475.289	208.420	-0.076	0.120
-474.274	-3.807	0.258	-0.179
-473.259	291.920	0.057	0.105
-472.245	800.000	0.011	0.037
-471.230	-2.586	0.086	0.061
-470.216	180.703	-0.130	0.191
-469.201	13.133	0.187	0.145
-468.186	800.000	0.075	0.242
-467.172	15.853	-0.320	0.252
-466.157	-107.526	0.030	-0.006
-465.143	588.703	0.031	-0.076
-464.128	-100.364	-0.126	-0.031
-463.113	90.635	0.108	-0.122
-462.099	-76.620	-0.225	-0.079
-461.084	-61.896	-0.553	0.232
-460.070	-86.390	-0.210	-0.065
-459.055	-81.004	0.272	0.090
-458.040	59.499	0.156	-0.154
-457.026	77.626	-0.078	-0.084
-456.011	110.633	-0.174	-0.210
-454.997	306.210	-0.043	-0.081
-453.982	159.730	0.045	-0.062
-452.968	800.000	-0.028	0.104
-451.953	-159.497	0.047	-0.003
-450.938	-43.061	-0.192	0.097
-449.924	76.228	0.052	0.055
-448.909	800.000	-0.010	0.036
-447.895	311.630	0.141	0.264
-446.880	-200.000	0.046	-0.264
-445.865	123.531	-0.151	-0.190
-444.851	-0.552	0.085	-0.060
-443.836	800.000	0.086	-0.272
-442.822	800.000	-0.164	-0.463
-441.807	-96.360	0.288	0.076
-440.792	-100.342	0.234	0.058
-439.778	-200.000	-0.049	-0.243
-438.763	-200.000	-0.021	-0.143
-437.749	-63.730	0.162	0.067
-436.734	-2.983	-0.200	0.140
-435.719	-200.000	-0.015	0.137
-434.705	-44.839	-0.133	-0.066
-433.690	-95.678	-0.377	-0.101
-432.676	-83.683	0.222	0.071
-431.661	-99.827	0.089	-0.022
-430.646	-133.666	-0.186	0.023
-429.632	177.215	-0.168	-0.244
-428.617	173.761	-0.040	-0.057
-427.603	120.081	0.105	0.131
-426.588	4.908	-0.086	-0.063
-425.573	-89.910	-0.063	-0.018
-424.559	286.301	-0.136	0.245
-423.544	-162.671	-0.250	-0.012
-422.530	-200.000	-0.034	-0.193
-421.515	-200.000	-0.011	-0.108
-420.500	-26.172	0.256	0.150
-419.486	17.514	-0.114	0.090
-418.471	227.711	0.132	0.215
-417.457	-26.169	-0.321	0.189
-416.442	-34.433	0.092	0.050
-415.428	-200.000	0.075	0.386
-414.413	-200.000	0.002	0.097
-413.398	-168.031	0.199	0.008
-412.384	68.845	-0.180	-0.185
-411.369	-200.000	0.008	-0.122
-410.355	-200.000	-0.055	-0.248
-409.340	-200.000	0.026	0.170
-408.325	568.530	-0.078	-0.189
-407.311	-167.216	-0.170	0.007
-406.296	84.321	0.164	0.179
-405.282	25.529	0.054	-0.045
-404.267	-146.345	-0.097	-0.008
-403.252	-89.149	-0.211	0.062
-402.238	-15.394	-0.310	0.198
-401.223	55.818	-0.237	0.230
-400.209	-71.621	-0.227	-0.085
-399.194	800.000	-0.106	0.427
-398.179	-200.000	0.026	-0.192
-397.165	-200.000	0.010	0.082
-396.150	20.973	-0.134	-0.108
-395.136	-151.569	0.496	-0.037
-394.121	28.328	0.129	-0.109
-393.106	-200.000	0.041	-0.316
-392.092	49.371	0.117	0.110
-391.077	-176.858	-0.266	0.007
-390.063	-7.867	-0.457	-0.308
-389.048	723.698	0.023	0.061
-388.033	-127.597	-0.198	-0.029
-387.019	266.876	0.078	0.136
-386.004	800.000	0.056	-0.230
-384.990	671.458	-0.093	-0.242
-383.975	487.667	-0.063	-0.144
-382.960	-94.254	-0.094	-0.026
-381.946	99.313	0.215	-0.248
-380.931	424.198	-0.083	-0.179
-379.917	-200.000	-0.018	0.204
-378.902	-200.000	0.002	0.029
-377.888	-151.928	0.095	-0.007
-376.873	-74.797	-0.032	0.011
-375.858	-200.000	0.026	-0.119
-374.844	-200.000	0.017	-0.199
-373.829	-95.821	0.266	-0.071
-372.815	-55.811	-0.219	-0.098
-371.800	-94.691	0.131	-0.035
-370.785	800.000	0.047	-0.200
-369.771	489.893	-0.136	-0.310
-368.756	-59.153	0.218	-0.094
-367.742	-141.469	-0.074	0.007
-366.727	173.639	-0.179	0.258
-365.712	-10.217	-0.104	-0.069
-364.698	428.984	0.062	-0.133
-363.683	-44.976	0.061	0.030
-362.669	-160.844	0.101	-0.005
-361.654	-165.787	0.165	-0.007
-360.639	-200.000	0.008	-0.039
-359.625	-107.114	-0.255	-0.056
-358.610	-164.442	0.110	-0.005
-357.596	-200.000	-0.013	-0.367
-356.581	-200.000	-0.026	0.223
-355.566	-28.034	0.354	0.204
-354.552	650.080	0.059	0.150
-353.537	473.944	-0.066	-0.148
-352.523	186.073	0.137	-0.203
-351.508	-95.916	0.525	-0.140
-350.493	-200.000	-0.076	-0.547
-349.479	-53.659	-0.315	0.143
-348.464	-58.751	-0.234	0.101
-347.450	-38.398	-0.198	0.104
-346.435	206.919	-0.142	0.221
-345.420	147.397	-0.060	0.080
-344.406	800.000	0.054	0.168
-343.391	-113.551	0.146	-0.028
-342.377	-113.372	0.188	-0.037
-341.362	474.454	0.127	0.286
-340.348	7.406	0.094	-0.070
-339.333	605.670	0.081	0.201
-338.318	26.614	-0.208	-0.174
-337.304	564.905	-0.165	-0.398
-336.289	403.714	-0.110	-0.232
-335.275	800.000	-0.040	-0.116
-334.260	319.537	0.011	0.022
-333.245	18.406	0.249	-0.198
-332.231	181.463	-0.054	0.080
-331.216	210.199	0.099	0.155
-330.202	-200.000	0.027	-0.365
-329.187	800.000	-0.084	0.277
-328.172	-200.000	-0.027	0.129
-327.158	-104.023	-0.306	0.071
-326.143	-76.805	0.139	-0.048
-325.129	-97.153	-0.194	0.051
-324.114	800.000	0.131	-0.534
-323.099	-29.423	0.103	-0.059
-322.085	-162.572	-0.153	-0.008
-321.070	-126.983	-0.110	0.016
-320.056	320.989	-0.127	0.241
-319.041	-200.000	0.004	0.033
-318.026	800.000	-0.058	-0.171
-317.012	126.940	-0.114	-0.144
-315.997	180.515	0.108	0.158
-314.983	-106.362	-0.137	-0.030
-313.968	-50.165	0.227	0.107
-312.953	800.000	-0.059	0.163
-311.939	304.630	-0.132	0.244
-310.924	-54.193	0.038	0.017
-309.910	-200.000	0.016	-0.127
-308.895	-4.052	0.348	-0.240
-307.880	-200.000	0.037	0.170
-306.866	-200.000	0.025	-0.110
-305.851	-200.000	-0.041	0.242
-304.837	426.647	-0.136	-0.293
-303.822	-200.000	0.062	0.388
-302.807	234.832	-0.129	-0.212
-301.793	-130.911	0.172	0.023
-300.778	-200.000	0.031	-0.218
-299.764	-103.582	-0.010	0.002
-298.749	219.304	-0.102	0.163
-297.735	193.604	0.044	0.066
-296.720	225.043	0.025	0.040
-295.705	-200.000	-0.009	-0.381
-294.691	88.736	0.113	0.125
-293.676	80.025	0.199	-0.213
-292.662	-200.000	0.071	-0.323
-291.647	-111.712	0.112	0.023
-290.632	-35.743	0.195	0.105
-289.618	-89.771	0.322	-0.094
-288.603	113.224	0.110	-0.133
-287.589	216.576	-0.164	0.260
-286.574	264.252	0.155	0.269
-285.559	-144.451	-0.214	-0.020
-284.545	213.856	0.035	-0.055
-283.530	-10.165	0.225	0.149
-282.516	-193.864	0.341	0.003
-281.501	50.826	-0.157	0.148
-280.486	-132.757	-0.272	-0.035
-279.472	-169.943	0.214	0.008
-278.457	23.734	-0.041	0.033
-277.443	222.204	-0.222	-0.356
-276.428	102.416	-0.124	-0.145
-275.413	-200.000	0.238	-0.000
-274.399	-156.511	0.152	0.009
-273.384	-52.107	0.240	0.111
-272.370	-151.864	0.094	0.007
-271.355	-40.925	0.313	0.161
-270.340	-200.000	0.058	-0.315
-269.326	-200.000	-0.015	-0.306
-268.311	362.251	0.101	0.200
-267.297	21.323	0.157	-0.127
-266.282	-48.908	0.248	-0.118
-265.267	76.561	-0.085	0.090
-264.253	-103.107	0.148	-0.035
-263.238	-102.460	0.212	0.050
-262.224	66.641	0.266	0.269
-261.209	800.000	-0.038	0.129
-260.195	-15.019	-0.182	-0.116
-259.180	-81.192	0.198	0.065
-258.165	-45.069	-0.119	-0.059
-257.151	120.741	0.277	0.343
-256.136	-107.854	0.062	-0.013
-255.122	800.000	-0.014	0.053
-254.107	-200.000	0.049	0.259
-253.092	304.320	-0.080	0.148
-252.078	18.700	-0.069	0.055
-251.063	-200.000	0.068	-0.445
-250.049	-127.751	-0.254	0.036
-249.034	-44.548	-0.255	0.126
-248.019	176.436	-0.143	-0.207
-247.005	70.518	-0.114	0.117
-245.990	-26.072	0.168	-0.098
-244.976	-200.000	0.028	-0.282
-243.961	496.472	-0.057	0.131
-242.946	-76.874	-0.117	-0.041
-241.932	261.320	0.069	-0.119
-240.917	-29.887	-0.043	0.024
-239.903	-122.384	-0.296	-0.048
-238.888	800.000	-0.024	0.075
-237.873	800.000	-0.071	-0.289
-236.859	-200.000	-0.011	0.158
-235.844	189.339	0.087	0.129
-234.830	-103.045	-0.112	0.026
-233.815	-32.346	-0.150	-0.083
-232.800	760.164	-0.121	-0.325
-231.786	-200.000	0.005	-0.044
-230.771	41.819	0.088	0.079
-229.757	-32.063	0.375	0.208
-228.742	-156.994	0.143	0.009
-227.727	-200.000	0.034	0.169
-226.713	41.025	0.378	0.339
-225.698	-54.522	-0.095	0.042
-224.684	-200.000	0.043	0.245
-223.669	-200.000	0.007	0.108
-222.655	87.185	0.113	-0.124
-221.640	-200.000	-0.007	0.071
-220.625	58.906	0.250	-0.244
-219.611	254.524	0.098	-0.167
-218.596	-63.480	-0.278	-0.113
-217.582	150.756	-0.029	0.039
-216.567	-138.117	-0.089	-0.010
-215.552	-200.000	-0.041	0.278
-214.538	19.920	0.130	0.104
-213.523	121.252	0.123	0.152
-212.509	-200.000	0.015	-0.274
-211.494	29.865	-0.142	0.120
-210.479	-105.860	0.126	0.028
-209.465	-51.780	0.091	0.042
-208.450	198.161	0.137	0.208
-207.436	-200.000	0.007	0.083
-206.421	-170.634	0.265	0.009
-205.406	725.547	0.075	-0.197
-204.392	279.748	-0.148	-0.263
-203.377	696.592	0.100	-0.260
-202.363	-118.903	0.349	-0.061
-201.348	258.238	0.031	-0.053
-200.333	-136.274	-0.237	0.027
-199.319	-200.000	-0.003	0.277
-198.304	800.000	-0.112	0.386
-197.290	41.455	0.174	0.156
-196.275	33.112	0.235	-0.202
-195.260	-197.752	0.152	0.001
-194.246	-200.000	0.009	-0.175
-193.231	180.680	0.277	0.403
-192.217	693.214	-0.053	0.139
-191.202	28.635	-0.257	0.216
-190.187	40.403	-0.316	0.282
-189.173	800.000	0.096	0.267
-188.158	-200.000	0.021	-0.222
-187.144	-200.000	0.008	0.166
-186.129	229.866	-0.068	0.110
-185.114	16.780	0.322	0.252
-184.100	-200.000	-0.016	0.128
-183.085	-76.386	-0.106	-0.037
-182.071	-66.897	0.104	-0.041
-181.056	653.556	-0.084	0.212
-180.042	-147.146	0.281	0.024
-179.027	-146.645	-0.190	-0.016
-178.012	-99.269	-0.278	-0.069
-176.998	207.570	-0.048	0.074
-175.983	800.000	0.134	-0.547
-174.969	-74.473	-0.104	0.037
-173.954	301.227	0.137	0.250
-172.939	446.797	-0.191	0.416
-171.925	450.650	-0.034	0.074
-170.910	-79.732	-0.162	0.054
-169.896	411.974	0.007	-0.015
-168.881	800.000	-0.133	0.398
-167.866	67.856	-0.300	0.304
-166.852	-70.315	0.138	-0.052
-165.837	39.393	-0.237	0.210
-164.823	3.112	-0.129	0.093
-163.808	-121.903	-0.178	0.029
-162.793	-8.967	-0.186	0.123
-161.779	13.859	0.112	0.086
-160.764	800.000	-0.049	0.148
-159.750	-137.128	0.137	0.015
-158.735	259.924	-0.125	-0.214
-157.720	-200.000	-0.006	-0.217
-156.706	-55.916	-0.146	0.064
-155.691	-200.000	-0.093	0.424
-154.677	-128.102	-0.228	0.032
-153.662	222.130	0.075	0.119
-152.647	-111.647	-0.256	-0.051
-151.633	-200.000	0.033	-0.244
-150.618	423.319	-0.147	0.312
-149.604	171.213	0.020	0.028
-148.589	75.832	-0.134	0.140
-147.574	233.535	-0.113	0.184
-146.560	-106.996	0.279	0.061
-145.545	140.758	-0.287	-0.375
-144.531	-148.633	0.223	-0.018
-143.516	597.790	-0.115	0.282
-142.502	-200.000	-0.027	0.241
-141.487	-200.000	0.050	-0.648
-140.472	-200.000	0.042	-0.423
-139.458	197.955	-0.118	-0.178
-138.443	-200.000	-0.008	-0.197
-137.429	-47.537	-0.283	0.136
-136.414	-133.370	-0.252	0.031
-135.399	-100.077	0.075	-0.019
-134.385	-103.604	-0.189	0.044
-133.370	800.000	-0.054	0.177
-132.356	-162.117	-0.153	0.008
-131.341	800.000	-0.060	0.183
-130.326	-192.290	0.441	-0.004
-129.312	-200.000	0.021	0.163
-128.297	171.944	0.063	-0.089
-127.283	-200.000	-0.069	0.404
-126.268	-200.000	-0.021	0.510
-125.253	-122.692	-0.265	-0.042
-124.239	-47.838	-0.178	-0.085
-123.224	270.085	0.045	-0.077
-122.210	-108.186	-0.239	-0.051
-121.195	800.000	-0.065	0.221
-120.180	-200.000	-0.009	-0.083
-119.166	410.773	-0.232	0.485
-118.151	28.014	0.253	-0.211
-117.137	-200.000	-0.005	-0.070
-116.122	-70.138	0.170	0.064
-115.107	-117.460	0.177	0.032
-114.093	97.803	0.108	0.123
-113.078	-38.857	-0.270	-0.141
-112.064	800.000	0.108	0.300
-111.049	-106.340	-0.263	0.058
-110.034	-39.592	0.151	-0.078
-109.020	153.362	0.169	-0.229
-108.005	-39.221	0.113	-0.059
-106.991	288.880	-0.145	-0.260
-105.976	-200.000	0.001	0.205
-104.962	800.000	0.055	0.184
-103.947	9.650	0.392	0.294
-102.932	2.033	0.085	-0.061
-101.918	-77.087	-0.147	0.051
-100.903	167.928	0.077	0.109
-99.889	-9.523	0.194	0.127
-98.874	-59.316	0.263	-0.112
-97.859	202.971	0.231	0.352
-96.845	559.592	0.096	-0.229
-95.830	-43.485	-0.130	0.065
-94.816	-118.965	0.359	0.062
-93.801	-44.669	0.070	0.035
-92.786	-200.000	0.041	0.199
-91.772	266.921	0.056	-0.096
-90.757	-200.000	-0.047	-0.210
-89.743	-65.932	-0.136	-0.054
-88.728	125.959	0.078	-0.098
-87.713	203.727	0.071	0.108
-86.699	378.871	-0.142	0.287
-85.684	-150.784	0.091	0.007
-84.670	120.493	-0.131	-0.161
-83.655	604.594	0.022	0.054
-82.640	-97.204	-0.007	0.002
-81.626	-134.753	0.114	0.014
-80.611	-150.700	-0.109	0.008
-79.597	-94.590	0.053	-0.014
-78.582	-167.768	0.253	0.010
-77.567	467.558	-0.117	-0.259
-76.553	800.000	-0.032	0.098
-75.538	-186.518	0.336	-0.005
-74.524	-80.347	-0.096	-0.032
-73.509	-200.000	0.004	0.044
-72.494	184.272	-0.072	-0.105
-71.480	93.378	0.193	-0.216
-70.465	800.000	-0.047	-0.169
-69.451	-57.495	-0.032	0.014
-68.436	-36.308	0.113	0.060
-67.422	-200.000	-0.051	-0.244
-66.407	39.605	-0.140	0.124
-65.392	-32.737	0.237	0.130
-64.378	306.308	0.039	-0.071
-63.363	-200.000	0.014	-0.372
-62.349	455.811	-0.091	0.198
-61.334	158.184	-0.743	-1.016
-60.319	800.000	0.204	0.651
-59.305	-200.000	-0.071	-0.516
-58.290	172.939	0.717	1.019
-57.276	564.259	0.651	1.553
-56.261	-200.000	95.337	542.147
-55.246	475.527	1437.618	3199.716
-54.232	146.231	2649.035	3503.659
-53.217	109.638	2216.255	2617.656
-52.203	44.515	1654.985	1498.489
-51.188	36.199	1385.097	1202.502
-50.173	33.080	1341.156	1145.438
-49.159	55.306	1387.107	1321.923
-48.144	57.064	1404.457	1349.215
-47.130	36.571	1363.323	1185.696
-46.115	33.050	1345.863	1149.094
-45.100	32.830	1341.060	1143.619
-44.086	32.812	1338.510	1141.289
-43.071	32.696	1336.406	1138.749
-42.057	32.698	1334.024	1136.685
-41.042	32.664	1332.937	1135.506
-40.027	32.878	1330.672	1134.818
-39.013	32.800	1329.046	1132.923
-37.998	32.790	1327.631	1131.609
-36.984	32.829	1325.698	1130.151
-35.969	32.823	1323.972	1128.600
-34.954	32.863	1322.082	1127.181
-33.940	32.890	1320.274	1125.759
-32.925	32.962	1319.421	1125.414
-31.911	32.834	1318.006	1123.402
-30.896	32.833	1317.013	1122.502
-29.881	32.835	1315.443	1121.132
-28.867	32.856	1313.635	1119.673
-27.852	32.931	1311.779	1118.487
-26.838	32.941	1310.535	1117.443
-25.823	32.935	1309.054	1116.098
-24.809	32.897	1307.863	1114.819
-23.794	33.012	1306.382	1114.187
-22.779	32.870	1305.038	1112.161
-21.765	32.896	1303.799	1111.213
-20.750	32.977	1302.406	1110.457
-19.736	32.790	1301.448	1108.500
-18.721	32.869	1300.008	1107.691
-17.706	32.828	1299.136	1106.665
-16.692	32.771	1298.310	1105.585
-15.677	32.737	1296.879	1104.123
-14.663	32.743	1296.005	1103.372
-13.648	32.680	1295.062	1102.155
-12.633	32.796	1293.516	1101.473
-11.619	32.848	1292.660	1101.003
-10.604	32.732	1292.298	1099.972
-9.590	32.672	1290.901	1098.390
-8.575	32.526	1290.330	1097.015
-7.560	32.693	1289.411	1097.162
-6.546	32.686	1288.111	1095.971
-5.531	32.699	1287.606	1095.572
-4.517	32.670	1286.494	1094.415
-3.502	32.695	1286.042	1094.128
-2.487	32.693	1284.912	1093.114
-1.473	32.940	1280.590	1090.819
-0.458	31.901	1266.192	1072.575
0.556	27.743	1248.539	1033.685
1.571	23.471	1253.260	1013.151
2.586	21.740	1266.561	1013.810
3.600	20.151	1254.228	994.736
4.615	14.443	1178.950	904.076
5.629	5.706	1100.313	799.303
6.644	1.454	1079.157	762.560
7.659	0.947	1077.232	758.594
8.673	1.060	1076.575	758.628
9.688	0.960	1074.954	756.919
10.702	1.183	1073.256	756.772
11.717	6.076	1079.306	785.474
12.731	13.750	1089.342	831.299
13.746	17.237	1093.383	851.817
14.761	17.521	1093.343	853.136
15.775	16.890	1091.651	848.581
16.790	15.881	1089.504	841.797
17.804	15.094	1088.326	836.879
18.819	14.849	1086.686	834.319
19.834	14.443	1086.033	831.718
20.848	14.222	1085.191	829.898
21.863	13.930	1084.538	827.870
22.877	13.843	1083.312	826.427
23.892	13.812	1082.425	825.526
24.907	13.753	1081.989	824.824
25.921	13.832	1081.004	824.394
26.936	13.899	1080.248	824.079
27.950	13.921	1079.108	823.242
28.965	13.967	1078.236	822.735
29.980	13.906	1077.056	821.461
30.994	14.034	1075.760	821.028
32.009	14.113	1074.540	820.417
33.023	14.034	1073.708	819.321
34.038	14.102	1072.423	818.598
35.053	13.995	1071.768	817.502
36.067	13.894	1071.090	816.417
37.082	14.032	1069.961	816.161
38.096	14.002	1069.460	815.559
39.111	13.996	1068.518	814.737
40.126	14.048	1067.304	813.996
41.140	13.843	1066.771	812.516
42.155	13.798	1065.295	811.097
43.169	13.773	1064.088	809.987
44.184	13.745	1063.310	809.183
45.199	13.923	1061.839	808.860
46.213	13.846	1060.836	807.650
47.228	14.023	1059.512	807.434
48.242	13.884	1058.987	806.286
49.257	13.855	1057.986	805.309
50.271	13.818	1056.896	804.229
51.286	14.019	1056.021	804.468
52.301	13.811	1055.455	802.958
53.315	13.829	1054.168	801.992
54.330	13.927	1052.877	801.415
55.344	13.792	1052.442	800.364
56.359	13.849	1051.494	799.842
57.374	13.855	1050.685	799.189
58.388	13.818	1049.487	798.027
59.403	13.763	1048.844	797.202
60.417	13.757	1048.339	796.721
61.432	13.795	1047.461	796.166
62.447	13.798	1046.378	795.286
63.461	13.779	1045.635	794.558
64.476	13.857	1044.790	794.222
65.490	13.770	1043.860	793.026
66.505	13.738	1043.350	792.416
67.520	13.820	1042.562	792.142
68.534	13.807	1041.479	791.185
69.549	13.841	1040.957	790.879
70.563	13.741	1040.252	789.797
71.578	13.865	1039.068	789.419
72.593	13.687	1038.712	788.235
73.607	13.819	1037.782	788.087
74.622	13.800	1037.376	787.615
75.636	13.715	1036.443	786.437
76.651	13.717	1036.154	786.156
77.666	13.639	1035.480	785.205
78.680	13.704	1034.384	784.611
79.695	13.756	1033.611	784.202
80.709	13.868	1032.944	784.158
81.724	13.771	1032.546	783.326
82.739	13.722	1032.014	782.622
83.753	13.878	1031.003	782.522
84.768	13.891	1030.048	781.787
85.782	13.854	1029.240	780.931
86.797	13.983	1028.039	780.558
87.812	13.892	1027.116	779.362
88.826	13.892	1026.029	778.465
89.841	13.901	1025.279	777.871
90.855	13.938	1024.409	777.316
91.870	13.822	1024.071	776.448
92.884	13.867	1023.119	775.865
93.899	13.981	1021.881	775.390
94.914	14.021	1021.007	774.846
95.928	14.042	1020.069	774.164
96.943	14.010	1019.300	773.363
97.957	13.974	1018.724	772.690
98.972	14.001	1017.612	771.905
99.987	14.013	1016.744	771.231
101.001	13.969	1016.037	770.426
102.016	13.965	1015.116	769.640
103.030	14.021	1014.151	769.097
104.045	13.984	1013.432	768.316
105.060	13.972	1012.675	767.617
106.074	13.990	1011.603	766.818
107.089	14.037	1010.699	766.284
108.103	14.051	1009.345	765.256
109.118	13.904	1008.600	763.943
110.133	13.897	1007.924	763.332
111.147	13.916	1007.155	762.771
112.162	13.897	1006.533	762.142
113.176	13.979	1005.350	761.556
114.191	14.117	1004.545	761.514
115.206	13.944	1004.112	760.325
116.220	13.869	1003.367	759.350
117.235	13.985	1001.818	758.642
118.249	14.002	1000.970	758.006
119.264	13.930	1000.688	757.398
120.279	13.781	1000.296	756.356
121.293	13.890	999.415	756.119
122.308	13.968	998.156	755.454
123.322	13.926	997.207	754.481
124.337	13.857	996.493	753.561
125.352	13.996	995.045	753.027
126.366	13.926	994.043	751.887
127.381	13.982	992.924	751.228
128.395	13.976	992.612	750.895
129.410	13.935	991.254	749.619
130.424	13.989	989.984	748.835
131.439	14.074	989.752	748.975
132.454	14.125	988.594	748.262
133.468	14.033	987.872	747.238
134.483	14.108	986.958	746.814
135.497	14.112	986.036	746.070
136.512	13.994	985.372	744.971
137.527	14.062	984.414	744.485
138.541	14.046	983.591	743.728
139.556	13.999	983.285	743.218
140.570	14.088	982.094	742.652
141.585	14.195	981.036	742.261
142.600	14.225	979.962	741.520
143.614	14.245	979.486	741.180
144.629	14.232	978.739	740.493
145.643	14.217	977.493	739.419
146.658	14.168	975.989	737.999
147.673	14.079	975.999	737.545
148.687	14.009	974.696	736.187
149.702	14.132	973.608	735.842
150.716	14.197	972.880	735.517
151.731	14.285	972.276	735.380
152.746	14.270	971.748	734.853
153.760	14.087	971.206	733.567
154.775	14.224	970.692	733.718
155.789	14.191	970.103	733.063
156.804	14.139	969.127	732.031
157.819	14.183	968.651	731.802
158.833	14.255	968.087	731.628
159.848	14.362	966.881	731.121
160.862	14.373	965.679	730.194
161.877	14.234	964.788	728.850
162.892	14.074	964.319	727.731
163.906	14.174	963.454	727.452
164.921	14.207	962.586	726.875
165.935	14.271	961.585	726.334
166.950	14.387	960.258	725.770
167.964	14.328	960.108	725.338
168.979	14.121	959.076	723.592
169.994	14.240	958.030	723.255
171.008	14.284	957.826	723.230
172.023	14.297	956.873	722.504
173.037	14.425	956.060	722.378
174.052	14.430	955.292	721.758
175.067	14.321	954.606	720.705
176.081	14.329	954.261	720.415
177.096	14.292	954.013	720.002
178.110	14.336	952.899	719.290
179.125	14.273	952.822	718.894
180.140	14.442	951.744	718.749
181.154	14.410	951.396	718.284
182.169	14.435	950.726	717.820
183.183	14.452	950.229	717.454
184.198	14.450	949.711	716.992
185.213	14.457	948.740	716.228
186.227	14.611	947.963	716.238
187.242	14.563	947.538	715.644
188.256	14.547	946.757	714.926
189.271	14.622	945.843	714.491
190.286	14.525	944.992	713.370
191.300	14.495	944.648	712.918
192.315	14.562	943.568	712.329
193.329	14.435	943.269	711.495
194.344	14.491	942.767	711.295
195.359	14.592	942.149	711.193
196.373	14.604	941.365	710.591
197.388	14.600	940.775	710.068
198.402	14.702	939.965	709.829
199.417	14.609	939.636	709.120
200.432	14.693	938.885	708.848
201.446	14.746	938.357	708.609
202.461	14.801	938.214	708.671
203.475	14.740	937.750	708.001
204.490	14.799	936.853	707.510
205.504	14.726	936.023	706.515
206.519	14.794	935.088	706.033
207.534	14.787	934.672	705.627
208.548	14.832	933.429	704.815
209.563	14.887	932.943	704.618
210.577	14.964	932.306	704.399
211.592	14.822	931.669	703.257
212.607	14.957	930.879	703.167
213.621	14.991	930.071	702.635
214.636	14.935	929.744	702.091
215.650	15.135	928.421	701.869
216.665	14.998	927.658	700.657
217.680	15.093	927.296	700.718
218.694	15.106	926.678	700.243
219.709	15.063	925.876	699.399
220.723	14.995	925.204	698.543
221.738	15.086	924.532	698.351
222.753	15.100	924.143	698.058
223.767	15.052	923.962	697.659
224.782	15.030	923.413	697.088
225.796	15.140	922.316	696.657
226.811	15.275	921.349	696.428
227.826	15.222	920.779	695.715
228.840	15.179	919.854	694.776
229.855	15.164	919.396	694.305
230.869	15.088	918.927	693.575
231.884	15.083	917.808	692.647
232.899	15.197	916.973	692.428
233.913	15.050	916.350	691.288
234.928	15.076	915.967	691.045
235.942	15.172	915.158	690.773
236.957	15.228	914.586	690.507
237.972	15.178	913.694	689.567
238.986	15.130	913.526	689.185
240.001	15.265	912.710	689.060
241.015	15.116	912.287	688.070
242.030	15.388	911.163	688.278
243.045	15.318	911.166	687.932
244.059	15.330	910.536	687.444
245.074	15.280	909.875	686.678
246.088	15.418	909.070	686.574
247.103	15.296	908.420	685.525
248.117	15.409	907.686	685.372
249.132	15.384	907.389	684.984
250.147	15.400	906.639	684.421
251.161	15.420	906.185	684.102
252.176	15.478	905.241	683.563
253.190	15.619	904.311	683.377
254.205	15.560	903.653	682.577
255.220	15.579	903.085	682.165
256.234	15.564	902.754	681.794
257.249	15.463	902.305	680.986
258.263	15.548	901.426	680.607
259.278	15.682	900.396	680.308
260.293	15.572	899.972	679.486
261.307	15.799	899.052	679.647
262.322	15.667	898.758	678.830
263.336	15.909	897.830	679.047
264.351	15.871	896.815	678.066
265.366	15.778	896.495	677.390
266.380	15.837	895.905	677.122
267.395	15.794	895.292	676.425
268.409	15.875	894.630	676.191
269.424	15.880	893.703	675.450
270.439	15.826	893.362	674.917
271.453	15.766	892.859	674.236
272.468	15.872	891.820	673.816
273.482	15.831	891.598	673.422
274.497	15.863	890.838	672.918
275.512	15.834	890.287	672.328
276.526	15.763	890.085	671.832
277.541	15.949	889.159	671.815
278.555	15.875	889.076	671.398
279.570	16.105	887.635	671.167
280.585	16.067	886.905	670.403
281.599	15.992	886.010	669.369
282.614	16.198	885.260	669.563
283.628	15.967	885.193	668.535
284.643	16.180	884.190	668.561
285.657	16.224	883.709	668.314
286.672	16.086	883.046	667.208
287.687	16.165	882.593	667.120
288.701	16.146	881.958	666.503
289.716	16.222	881.368	666.300
290.730	16.291	880.668	665.981
291.745	16.160	880.296	665.127
292.760	16.195	879.717	664.767
293.774	16.251	878.693	664.156
294.789	16.268	878.498	664.017
295.803	16.192	877.819	663.145
296.818	16.230	876.888	662.532
297.833	16.198	876.126	661.776
298.847	16.272	875.559	661.578
299.862	16.305	874.907	661.154
300.876	16.349	874.425	660.905
301.891	16.369	873.506	660.229
302.906	16.425	873.299	660.235
303.920	16.457	872.858	659.965
304.935	16.330	872.301	658.991
305.949	16.491	871.460	658.927
306.964	16.507	870.654	658.319
307.979	16.458	870.555	657.997
308.993	16.511	869.587	657.411
310.008	16.472	869.133	656.860
311.022	16.409	868.698	656.230
312.037	16.334	868.175	655.485
313.052	16.534	867.449	655.652
314.066	16.514	867.109	655.260
315.081	16.459	866.517	654.541
316.095	16.420	865.709	653.721
317.110	16.343	865.407	653.137
318.125	16.466	865.114	653.334
319.139	16.589	863.966	652.883
320.154	16.491	863.852	652.363
321.168	16.567	863.124	652.050
322.183	16.550	862.945	651.789
323.197	16.665	862.241	651.643
324.212	16.607	861.724	650.973
325.227	16.746	860.748	650.712
326.241	16.599	860.231	649.697
327.256	16.753	859.618	649.768
328.270	16.653	859.223	649.028
329.285	16.661	858.680	648.594
330.300	16.552	858.423	647.922
331.314	16.577	857.882	647.552
332.329	16.812	856.996	647.728
333.343	16.843	856.580	647.472
334.358	16.796	856.083	646.861
335.373	16.701	855.929	646.324
336.387	16.913	855.393	646.669
337.402	16.958	854.879	646.398
338.416	16.937	854.577	646.032
339.431	16.988	854.475	646.093
340.446	16.867	854.116	645.301
341.460	16.871	853.631	644.891
342.475	16.915	853.272	644.732
343.489	16.939	852.592	644.251
344.504	17.064	851.915	644.160
345.519	17.058	851.709	643.922
346.533	16.965	851.516	643.369
347.548	17.051	850.776	643.078
348.562	17.112	850.016	642.675
349.577	17.072	849.118	641.789
350.592	17.178	849.100	642.119
351.606	17.024	848.263	640.851
352.621	16.947	847.920	640.242
353.635	17.101	847.111	640.156
354.650	17.141	845.934	639.362
355.665	17.064	845.922	639.005
356.679	17.054	845.186	638.353
357.694	17.106	844.368	637.876
358.708	17.107	843.817	637.404
359.723	17.235	842.982	637.198
360.738	17.128	842.252	636.190
361.752	17.116	842.051	635.938
362.767	17.366	841.176	636.157
363.781	17.303	840.451	635.316
364.796	17.294	840.332	635.136
365.810	17.350	839.948	634.998
366.825	17.442	839.727	635.116
367.840	17.491	839.252	634.887
368.854	17.459	838.803	634.371
369.869	17.468	837.949	633.700
370.883	17.245	837.848	632.739
371.898	17.427	837.419	633.038
372.913	17.438	836.599	632.401
373.927	17.537	836.479	632.621
374.942	17.419	836.036	631.794
375.956	17.546	835.700	631.956
376.971	17.495	835.299	631.407
377.986	17.592	834.245	630.913
379.000	17.617	834.072	630.820
380.015	17.607	833.814	630.532
381.029	17.741	832.896	630.278
382.044	17.695	832.794	629.973
383.059	17.654	832.061	629.211
384.073	17.677	831.409	628.749
385.088	17.780	830.986	628.752
386.102	17.787	829.989	627.969
387.117	17.610	829.587	626.957
388.132	17.931	828.939	627.591
389.146	17.885	827.999	626.657
390.161	17.707	828.004	625.950
391.175	17.864	827.578	626.151
392.190	17.959	826.757	625.821
393.205	17.773	826.657	625.008
394.219	17.635	826.688	624.471
395.234	17.743	826.186	624.432
396.248	17.758	825.118	623.624
397.263	17.680	825.061	623.240
398.278	17.737	824.798	623.196
399.292	17.870	824.200	623.172
400.307	17.709	823.556	622.045
401.321	17.660	823.479	621.752
402.336	17.762	822.990	621.698
403.350	17.870	822.272	621.498
404.365	17.947	821.622	621.228
405.380	17.887	821.373	620.770
406.394	17.957	820.952	620.650
407.409	18.087	820.715	620.887
408.423	18.061	820.188	620.338
409.438	18.026	819.770	619.842
410.453	17.960	819.277	619.175
411.467	18.080	818.590	619.036
412.482	18.206	818.004	618.995
413.496	18.305	817.835	619.169
414.511	18.309	817.522	618.890
415.526	18.166	817.046	617.960
416.540	18.380	816.316	618.127
417.555	18.382	816.237	618.019
418.569	18.255	815.802	617.176
419.584	18.311	814.998	616.715
420.599	18.179	814.783	616.023
421.613	107.910	1289.313	1455.675
422.628	93.262	1358.421	1455.773
