DTS Sentinel unit serial number:	SN413079Multiplexer serial number:	ORYXHardware model number:	OX4-SRSoftware version number:	ORYX F/W v4.00 Oryx Data Collector v3.7.2.0data status	okinstallation	princeton_trtdifferential loss correction	single-endedforward channel	channel 1reverse channel	N/Adate	2019/09/14time	04:10:35forward acquisition time	60.00reverse acquisition time	0.00gamma	496.2192k internal	0.2335k external	0.2335temperature offset calibration	1.0079default loss term (dB/km)	0.3790temperature slope calibration	1.0000multiplexer offset coefficient	1.0000multiplexer slope coefficient	1.0000fibre end	0.00T internal ref (°C)	26.69T ext. ref 1 (°C)	3.32T ext. ref 2 (°C)	21.85length (m)	temperature (°C)	Stokes	anti-Stokes-747.200	312.734	-0.154	-0.291
-746.185	19.065	0.146	0.118
-745.171	46.708	-0.298	-0.278
-744.156	800.000	0.044	0.134
-743.142	-200.000	-0.011	-0.123
-742.127	-200.000	-0.069	0.532
-741.112	-162.159	0.220	-0.011
-740.098	10.284	-0.235	0.179
-739.083	94.547	-0.087	0.099
-738.069	800.000	0.071	0.302
-737.054	377.182	0.122	-0.250
-736.039	-27.941	-0.188	-0.109
-735.025	-83.717	0.102	-0.033
-734.010	-90.647	-0.175	-0.051
-732.996	799.969	-0.075	0.208
-731.981	-131.182	0.209	-0.028
-730.966	104.845	-0.245	0.290
-729.952	-161.989	0.071	-0.004
-728.937	-105.396	0.205	-0.047
-727.923	766.678	0.065	0.177
-726.908	-33.352	-0.145	-0.081
-725.894	800.000	-0.168	-0.478
-724.879	-200.000	-0.046	-0.464
-723.864	235.467	0.190	-0.315
-722.850	774.441	-0.055	-0.152
-721.835	-129.200	-0.279	-0.039
-720.821	443.987	-0.099	0.217
-719.806	-102.070	-0.481	-0.116
-718.791	-135.952	-0.223	-0.026
-717.777	-26.328	0.141	-0.083
-716.762	-8.911	0.144	0.097
-715.748	-105.290	-0.196	-0.045
-714.733	-129.211	0.107	-0.015
-713.718	214.204	0.150	0.238
-712.704	-85.112	0.096	-0.030
-711.689	-24.479	-0.259	0.155
-710.675	65.334	-0.159	-0.161
-709.660	-200.000	-0.023	-0.276
-708.645	-28.588	0.348	0.201
-707.631	-200.000	-0.005	0.077
-706.616	287.715	0.027	-0.050
-705.602	-107.651	0.115	0.025
-704.587	-136.397	-0.137	-0.016
-703.572	-200.000	0.007	-0.119
-702.558	800.000	-0.060	0.200
-701.543	27.406	-0.079	0.066
-700.529	-102.400	0.299	-0.072
-699.514	-200.000	-0.009	0.128
-698.499	47.079	0.370	0.345
-697.485	800.000	-0.053	-0.169
-696.470	-200.000	-0.022	-0.200
-695.456	-200.000	0.029	-0.313
-694.441	-200.000	-0.034	-0.259
-693.426	16.092	-0.379	-0.299
-692.412	-41.845	-0.119	-0.061
-691.397	-200.000	0.002	0.052
-690.383	33.456	0.073	-0.064
-689.368	266.601	0.080	-0.139
-688.354	188.949	-0.303	0.454
-687.339	61.738	0.122	0.121
-686.324	-200.000	-0.050	-0.247
-685.310	800.000	-0.043	0.162
-684.295	-128.528	-0.160	-0.023
-683.281	800.000	-0.092	0.314
-682.266	13.517	0.051	-0.040
-681.251	-161.453	0.249	0.013
-680.237	502.098	-0.076	0.177
-679.222	658.827	0.140	-0.360
-678.208	-200.000	0.043	0.319
-677.193	-16.430	-0.251	-0.160
-676.178	-75.153	-0.174	-0.062
-675.164	800.000	0.079	-0.292
-674.149	20.112	-0.105	0.085
-673.135	-94.089	0.090	-0.025
-672.120	-82.011	-0.079	-0.026
-671.105	-27.247	0.119	-0.070
-670.091	-200.000	-0.054	0.452
-669.076	-200.000	-0.003	-0.136
-668.062	800.000	-0.098	0.340
-667.047	-200.000	0.007	0.387
-666.032	-109.261	-0.031	-0.006
-665.018	-200.000	0.024	-0.161
-664.003	57.186	0.089	-0.087
-662.989	-200.000	-0.038	-0.254
-661.974	63.984	-0.188	-0.189
-660.959	-80.063	-0.172	-0.058
-659.945	800.000	0.136	0.473
-658.930	800.000	-0.041	0.148
-657.916	-200.000	-0.007	0.103
-656.901	316.624	0.097	-0.184
-655.886	-64.092	0.139	0.057
-654.872	362.972	0.087	0.174
-653.857	-170.005	0.026	0.001
-652.843	-95.070	0.398	-0.108
-651.828	668.903	0.089	-0.230
-650.814	141.482	0.080	-0.107
-649.799	-12.104	-0.050	0.033
-648.784	-174.458	-0.373	-0.011
-647.770	43.563	0.226	-0.207
-646.755	-69.159	-0.227	0.087
-645.741	9.476	0.226	-0.171
-644.726	15.953	0.133	0.105
-643.711	-200.000	0.002	-0.107
-642.697	142.962	0.261	0.347
-641.682	173.549	-0.070	0.102
-640.668	151.187	0.086	-0.117
-639.653	509.284	-0.181	0.421
-638.638	-111.472	-0.237	0.048
-637.624	800.000	-0.015	-0.057
-636.609	-150.812	0.302	-0.023
-635.595	24.018	-0.202	0.167
-634.580	800.000	0.061	0.223
-633.565	217.588	-0.192	-0.305
-632.551	-165.809	0.278	0.012
-631.536	424.209	0.163	-0.351
-630.522	800.000	0.075	-0.293
-629.507	232.226	0.113	0.185
-628.492	3.342	0.187	-0.137
-627.478	-200.000	-0.008	-0.119
-626.463	53.781	-0.123	-0.118
-625.449	-156.191	-0.220	0.014
-624.434	-200.000	0.046	0.394
-623.419	-62.349	0.176	-0.073
-622.405	290.087	0.061	-0.111
-621.390	-200.000	0.036	0.187
-620.376	-97.275	0.110	-0.029
-619.361	165.957	0.093	0.131
-618.346	-157.764	0.134	0.008
-617.332	32.377	-0.133	-0.114
-616.317	800.000	0.066	0.208
-615.303	-133.263	-0.312	0.039
-614.288	122.441	-0.145	0.181
-613.273	217.013	-0.069	0.109
-612.259	-19.374	0.108	0.067
-611.244	481.109	-0.127	0.289
-610.230	-94.232	0.357	-0.098
-609.215	-104.816	0.169	0.039
-608.201	-70.703	0.203	0.077
-607.186	-134.231	-0.442	0.054
-606.171	403.633	-0.041	-0.086
-605.157	-200.000	0.033	0.158
-604.142	45.923	-0.319	0.295
-603.128	-190.412	-0.242	-0.003
-602.113	10.927	-0.143	0.109
-601.098	27.019	-0.370	-0.310
-600.084	108.656	-0.056	-0.066
-599.069	-125.376	0.155	0.024
-598.055	-40.460	0.147	-0.076
-597.040	-146.379	0.213	0.019
-596.025	2.842	0.166	0.120
-595.011	53.318	-0.123	0.118
-593.996	-200.000	-0.006	0.069
-592.982	-35.715	0.140	-0.076
-591.967	-173.510	-0.290	0.009
-590.952	800.000	0.058	0.196
-589.938	111.859	-0.142	-0.171
-588.923	321.768	-0.119	0.227
-587.909	-200.000	-0.007	0.116
-586.894	-58.575	0.312	0.135
-585.879	-93.902	-0.233	0.064
-584.865	-200.000	0.053	0.273
-583.850	800.000	0.083	0.241
-582.836	-33.691	0.213	-0.117
-581.821	-163.259	0.175	-0.008
-580.806	25.916	0.123	0.103
-579.792	166.476	-0.187	0.265
-578.777	-58.766	0.232	0.100
-577.763	-173.016	0.331	0.010
-576.748	-200.000	0.030	-0.137
-575.733	399.694	-0.026	0.054
-574.719	800.000	-0.051	0.173
-573.704	683.693	-0.145	0.378
-572.690	-15.547	-0.161	-0.103
-571.675	481.767	-0.070	0.158
-570.661	-98.575	0.239	-0.061
-569.646	-200.000	-0.025	0.199
-568.631	-107.892	-0.121	0.026
-567.617	7.681	-0.248	-0.185
-566.602	57.773	-0.372	-0.363
-565.588	-103.780	0.050	0.012
-564.573	50.404	0.164	-0.155
-563.558	800.000	0.092	-0.266
-562.544	-200.000	-0.019	0.108
-561.529	-128.627	0.217	0.031
-560.515	97.970	-0.200	0.230
-559.500	178.517	0.067	-0.098
-558.485	-94.374	0.327	0.089
-557.471	-123.317	-0.319	0.051
-556.456	18.057	-0.150	0.119
-555.442	-46.476	-0.259	-0.127
-554.427	97.617	0.173	-0.198
-553.412	-54.429	0.171	-0.077
-552.398	-200.000	-0.015	0.138
-551.383	57.772	-0.149	-0.146
-550.369	27.148	-0.180	0.151
-549.354	555.481	0.085	0.203
-548.339	111.264	-0.274	0.329
-547.325	-40.058	-0.178	0.093
-546.310	-200.000	-0.070	0.381
-545.296	46.795	-0.119	0.111
-544.281	-10.156	-0.315	-0.208
-543.266	65.096	-0.188	-0.190
-542.252	-200.000	0.006	-0.133
-541.237	800.000	-0.131	-0.420
-540.223	-102.132	-0.177	-0.042
-539.208	-138.923	0.318	0.034
-538.193	99.333	0.122	0.140
-537.179	-0.407	0.224	-0.159
-536.164	-200.000	0.017	-0.123
-535.150	8.279	-0.088	-0.066
-534.135	27.757	-0.263	0.221
-533.121	800.000	-0.032	-0.119
-532.106	192.355	0.023	-0.034
-531.091	337.927	-0.085	0.164
-530.077	-158.459	-0.391	-0.023
-529.062	-200.000	-0.067	-0.299
-528.048	-200.000	0.042	0.228
-527.033	800.000	-0.047	-0.173
-526.018	-16.624	-0.109	-0.069
-525.004	24.084	0.181	0.149
-523.989	385.121	-0.031	0.063
-522.975	-143.300	0.104	0.010
-521.960	-164.969	-0.181	0.008
-520.945	-107.076	-0.350	0.077
-519.931	-136.254	0.304	0.035
-518.916	800.000	-0.024	-0.094
-517.902	-200.000	-0.034	0.173
-516.887	-149.018	-0.566	-0.045
-515.872	-56.884	-0.163	0.072
-514.858	237.700	-0.143	-0.236
-513.843	64.784	0.161	-0.162
-512.829	-7.968	-0.219	-0.147
-511.814	-134.814	-0.339	0.041
-510.799	337.430	0.129	-0.250
-509.785	-200.000	-0.027	0.209
-508.770	76.431	0.150	0.158
-507.756	-200.000	0.042	0.285
-506.741	-78.536	0.220	-0.075
-505.726	-124.742	0.267	0.041
-504.712	162.343	0.186	-0.259
-503.697	-200.000	0.020	-0.254
-502.683	27.055	-0.218	-0.182
-501.668	800.000	-0.141	0.405
-500.653	-80.699	-0.395	0.131
-499.639	-133.738	-0.062	-0.008
-498.624	-200.000	0.055	-0.330
-497.610	466.722	0.099	-0.222
-496.595	196.012	0.136	0.206
-495.581	658.227	0.133	-0.340
-494.566	-52.401	-0.076	-0.035
-493.551	800.000	-0.084	-0.247
-492.537	-200.000	-0.023	0.202
-491.522	800.000	0.023	0.087
-490.508	72.503	-0.244	-0.253
-489.493	582.625	-0.103	-0.251
-488.478	-16.700	-0.256	0.161
-487.464	-115.188	0.215	-0.040
-486.449	78.285	0.090	0.096
-485.435	197.113	0.147	0.223
-484.420	-133.261	-0.305	0.038
-483.405	752.580	-0.050	0.134
-482.391	245.418	-0.051	-0.085
-481.376	202.068	0.165	0.253
-480.362	-200.000	0.056	-0.334
-479.347	-117.463	-0.123	-0.022
-478.332	20.049	-0.230	0.184
-477.318	-48.793	0.143	-0.068
-476.303	45.986	-0.144	0.132
-475.289	-26.031	0.167	-0.098
-474.274	-200.000	-0.027	-0.208
-473.259	-100.984	-0.327	-0.080
-472.245	-26.236	-0.360	-0.210
-471.230	-200.000	0.031	-0.138
-470.216	160.417	0.039	-0.054
-469.201	236.160	-0.055	0.090
-468.186	-134.482	0.177	0.021
-467.172	-3.932	0.113	-0.078
-466.157	507.028	-0.129	-0.299
-465.143	-88.401	-0.234	-0.069
-464.128	744.475	0.065	-0.173
-463.113	-200.000	-0.014	-0.076
-462.099	-61.032	0.116	-0.049
-461.084	190.789	0.204	-0.305
-460.070	71.037	-0.226	-0.232
-459.055	-76.068	0.445	0.156
-458.040	-115.469	0.380	0.071
-457.026	-115.223	-0.187	0.035
-456.011	-200.000	-0.033	0.220
-454.997	206.811	-0.206	-0.319
-453.982	7.091	-0.126	-0.093
-452.968	-78.469	0.196	0.067
-451.953	-200.000	0.001	-0.202
-450.938	661.996	-0.099	0.254
-449.924	22.135	0.247	-0.200
-448.909	-200.000	-0.130	-0.601
-447.895	325.350	-0.050	0.096
-446.880	67.746	0.254	0.258
-445.865	-122.971	0.386	-0.062
-444.851	328.568	0.109	0.207
-443.836	-200.000	-0.001	0.131
-442.822	-44.626	0.173	-0.086
-441.807	-101.231	0.264	-0.064
-440.792	-190.909	-0.224	-0.002
-439.778	-108.626	-0.139	-0.030
-438.763	-61.392	-0.165	0.069
-437.749	180.504	-0.182	0.265
-436.734	29.404	0.215	0.181
-435.719	13.001	-0.176	-0.135
-434.705	800.000	0.062	-0.182
-433.690	800.000	0.028	0.107
-432.676	800.000	-0.028	0.093
-431.661	378.786	0.113	-0.229
-430.646	800.000	-0.059	-0.251
-429.632	116.303	-0.182	-0.222
-428.617	693.058	0.029	0.077
-427.603	-96.321	-0.243	0.064
-426.588	-200.000	0.067	-0.306
-425.573	-12.442	-0.091	-0.059
-424.559	-112.507	0.121	0.024
-423.544	-200.000	0.009	-0.317
-422.530	307.461	-0.157	-0.290
-421.515	-200.000	0.008	-0.038
-420.500	127.406	-0.187	0.235
-419.486	800.000	0.149	-0.503
-418.471	143.630	-0.052	-0.069
-417.457	159.904	0.089	-0.123
-416.442	-44.776	0.131	-0.065
-415.428	-26.607	0.326	0.190
-414.413	-200.000	0.000	0.113
-413.398	321.564	0.078	0.147
-412.384	800.000	-0.041	0.122
-411.369	-200.000	-0.064	0.337
-410.355	-200.000	0.058	-0.474
-409.340	-127.804	0.123	-0.018
-408.325	-48.378	-0.181	-0.087
-407.311	-35.264	-0.196	0.106
-406.296	248.295	0.189	-0.316
-405.282	-61.314	-0.161	-0.067
-404.267	-146.196	-0.132	0.011
-403.252	-61.337	0.192	-0.080
-402.238	-26.612	-0.147	0.085
-401.223	800.000	-0.048	0.133
-400.209	4.070	-0.174	0.126
-399.194	-76.912	-0.061	0.021
-398.179	2.339	0.157	0.113
-397.165	53.794	0.141	0.134
-396.150	-24.801	-0.049	-0.029
-395.136	18.111	-0.191	0.151
-394.121	-200.000	0.049	0.320
-393.106	28.945	-0.125	0.105
-392.092	259.336	-0.010	0.017
-391.077	-200.000	0.011	-0.277
-390.063	215.113	-0.238	-0.374
-389.048	-25.850	0.222	-0.130
-388.033	-26.204	-0.178	0.104
-387.019	-196.300	0.268	-0.002
-386.004	-27.572	-0.401	-0.231
-384.990	371.120	-0.029	0.059
-383.975	800.000	0.044	0.185
-382.960	800.000	0.044	0.129
-381.946	-200.000	0.057	-0.336
-380.931	-200.000	-0.066	0.393
-379.917	606.222	0.094	-0.233
-378.902	501.889	-0.023	-0.054
-377.888	800.000	-0.117	-0.345
-376.873	-111.926	0.155	0.031
-375.858	461.561	0.111	-0.245
-374.844	243.476	-0.003	0.004
-373.829	284.745	-0.056	-0.099
-372.815	800.000	0.012	-0.043
-371.800	-123.350	0.256	-0.040
-370.785	579.107	-0.043	-0.104
-369.771	86.926	-0.099	0.109
-368.756	380.517	0.101	-0.206
-367.742	800.000	0.075	-0.302
-366.727	126.060	0.079	-0.098
-365.712	-59.213	0.088	-0.038
-364.698	-6.480	-0.222	0.150
-363.683	514.742	-0.064	0.148
-362.669	-200.000	0.024	0.128
-361.654	800.000	-0.081	-0.291
-360.639	38.262	-0.181	-0.160
-359.625	106.451	0.117	-0.137
-358.610	800.000	-0.060	-0.205
-357.596	50.817	0.221	0.207
-356.581	-200.000	0.002	0.088
-355.566	549.598	0.053	-0.127
-354.552	-200.000	-0.006	0.153
-353.537	-29.441	-0.099	0.056
-352.523	-8.025	-0.036	0.024
-351.508	800.000	-0.086	0.279
-350.493	-40.332	0.073	0.038
-349.479	-200.000	0.021	0.136
-348.464	267.887	0.081	0.140
-347.450	800.000	-0.023	-0.070
-346.435	-200.000	0.045	-0.000
-345.420	-200.000	-0.011	0.147
-344.406	19.804	-0.173	0.138
-343.391	287.653	0.135	0.241
-342.377	768.964	0.095	0.257
-341.362	-108.628	-0.152	-0.032
-340.348	-30.944	0.253	-0.141
-339.333	-200.000	0.028	0.153
-338.318	800.000	0.079	0.231
-337.304	-160.431	0.040	0.002
-336.289	-93.943	0.153	0.042
-335.275	792.791	-0.232	0.630
-334.260	-200.000	0.011	0.086
-333.245	752.007	-0.090	-0.239
-332.231	619.721	0.045	-0.113
-331.216	698.429	0.072	-0.187
-330.202	652.232	-0.131	-0.331
-329.187	-74.094	0.288	0.103
-328.172	234.020	0.049	-0.079
-327.158	-84.104	-0.223	0.070
-326.143	132.198	-0.211	0.269
-325.129	-200.000	-0.012	0.298
-324.114	-55.439	-0.031	-0.014
-323.099	-185.513	-0.171	0.003
-322.085	38.136	0.165	-0.145
-321.070	800.000	-0.057	0.159
-320.056	-113.951	0.296	-0.057
-319.041	82.695	0.215	0.231
-318.026	-77.036	-0.335	-0.116
-317.012	-54.597	0.136	0.061
-315.997	-148.768	-0.300	0.024
-314.983	230.665	-0.040	0.064
-313.968	64.420	0.210	0.209
-312.953	70.976	0.215	-0.220
-311.939	4.756	0.283	-0.206
-310.924	37.153	-0.195	0.170
-309.910	-113.588	0.166	-0.032
-308.895	-12.443	-0.162	-0.105
-307.880	253.581	0.106	-0.179
-306.866	-61.405	0.391	0.162
-305.851	800.000	0.011	-0.046
-304.837	376.061	-0.122	-0.246
-303.822	800.000	0.104	-0.406
-302.807	182.665	-0.183	0.267
-301.793	800.000	0.048	-0.174
-300.778	-200.000	0.008	-0.129
-299.764	800.000	-0.042	-0.119
-298.749	217.854	0.129	-0.203
-297.735	-153.490	-0.327	0.022
-296.720	271.776	-0.163	0.284
-295.705	-200.000	0.006	0.137
-294.691	-131.662	0.047	0.006
-293.676	63.699	-0.240	-0.237
-292.662	279.000	-0.101	0.178
-291.647	-140.580	-0.109	-0.011
-290.632	0.364	0.186	-0.131
-289.618	-200.000	0.050	0.237
-288.603	44.854	0.197	0.179
-287.589	215.158	0.133	0.208
-286.574	800.000	0.026	0.114
-285.559	-200.000	-0.002	-0.031
-284.545	13.982	-0.163	0.126
-283.530	33.576	-0.272	0.234
-282.516	38.605	0.048	-0.042
-281.501	45.112	-0.189	-0.172
-280.486	800.000	-0.051	0.197
-279.472	150.884	0.111	-0.148
-278.457	-86.137	0.379	-0.115
-277.443	-154.936	-0.200	0.013
-276.428	368.936	0.079	-0.157
-275.413	264.454	0.121	-0.208
-274.399	72.417	0.125	0.129
-273.384	-200.000	0.026	0.123
-272.370	800.000	0.070	-0.277
-271.355	251.145	-0.222	0.372
-270.340	800.000	-0.040	0.166
-269.326	444.716	0.186	0.402
-268.311	-200.000	-0.026	-0.219
-267.297	-200.000	0.021	0.150
-266.282	-127.402	0.235	0.034
-265.267	21.384	0.314	0.252
-264.253	310.435	-0.131	-0.242
-263.238	-200.000	0.011	0.051
-262.224	-200.000	0.015	0.204
-261.209	-132.609	0.229	0.029
-260.195	507.339	0.069	0.159
-259.180	90.768	0.208	-0.230
-258.165	-138.549	-0.138	0.015
-257.151	-200.000	-0.007	-0.055
-256.136	708.873	0.035	0.090
-255.122	20.832	0.109	0.087
-254.107	-82.356	-0.234	-0.075
-253.092	-31.403	0.067	0.037
-252.078	-109.256	0.354	0.074
-251.063	623.117	0.077	0.192
-250.049	-86.761	0.083	0.025
-249.034	161.803	0.106	-0.146
-248.019	280.055	-0.077	-0.135
-247.005	800.000	0.030	-0.094
-245.990	-200.000	-0.038	-0.220
-244.976	-61.902	0.171	0.071
-243.961	106.522	-0.210	0.246
-242.946	-200.000	-0.028	0.159
-241.932	-61.295	0.069	-0.029
-240.917	-20.986	0.258	-0.156
-239.903	-64.185	0.119	-0.048
-238.888	10.211	0.059	-0.044
-237.873	484.261	-0.084	-0.189
-236.859	23.289	-0.098	-0.079
-235.844	-84.080	0.375	0.117
-234.830	786.786	-0.022	-0.059
-233.815	-124.490	-0.215	-0.033
-232.800	-26.646	-0.098	-0.056
-231.786	17.293	0.182	-0.142
-230.771	87.840	-0.030	-0.033
-229.757	-200.000	0.006	-0.054
-228.742	800.000	0.086	0.301
-227.727	-200.000	0.015	-0.130
-226.713	692.773	-0.008	-0.021
-225.698	253.708	-0.070	-0.118
-224.684	-200.000	0.028	-0.180
-223.669	32.809	-0.054	-0.046
-222.655	-22.683	0.039	0.023
-221.640	-200.000	-0.038	0.195
-220.625	524.298	0.224	0.517
-219.611	-19.537	-0.193	-0.118
-218.596	-129.829	-0.131	-0.018
-217.582	209.937	-0.139	-0.215
-216.567	173.915	0.194	0.275
-215.552	-112.414	0.185	-0.036
-214.538	468.730	-0.091	-0.201
-213.523	-96.482	-0.165	-0.043
-212.509	-63.566	-0.267	-0.108
-211.494	-200.000	-0.014	-0.204
-210.479	76.835	-0.193	0.201
-209.465	-52.515	0.540	-0.246
-208.450	234.345	-0.118	-0.191
-207.436	-200.000	-0.016	0.265
-206.421	255.110	-0.143	0.242
-205.406	-200.000	-0.043	0.297
-204.392	-200.000	-0.020	0.299
-203.377	-200.000	-0.014	0.262
-202.363	37.886	-0.329	-0.288
-201.348	-200.000	0.009	-0.203
-200.333	-200.000	-0.009	-0.123
-199.319	306.403	0.206	-0.378
-198.304	-200.000	-0.011	-0.212
-197.290	-61.023	0.242	-0.100
-196.275	211.491	0.061	-0.094
-195.260	-200.000	0.031	-0.200
-194.246	295.461	0.027	-0.048
-193.231	-200.000	0.002	0.172
-192.217	800.000	0.098	0.279
-191.202	-200.000	0.043	-0.361
-190.187	-89.853	-0.434	-0.125
-189.173	-128.518	-0.201	-0.028
-188.158	-200.000	0.058	0.263
-187.144	273.169	-0.094	0.164
-186.129	-129.949	0.219	-0.029
-185.114	200.349	-0.068	-0.103
-184.100	800.000	0.070	-0.262
-183.085	800.000	-0.084	-0.272
-182.071	800.000	-0.099	-0.345
-181.056	621.585	0.069	0.169
-180.042	-200.000	-0.032	0.329
-179.027	-131.697	0.287	0.037
-178.012	-200.000	0.013	0.185
-176.998	20.849	0.268	0.213
-175.983	8.984	0.258	0.191
-174.969	18.235	-0.132	-0.104
-173.954	0.804	0.128	-0.090
-172.939	-61.170	-0.230	0.095
-171.925	-126.893	-0.024	0.004
-170.910	-200.000	0.008	0.117
-169.896	403.179	-0.117	0.242
-168.881	-9.881	0.217	-0.142
-167.866	-41.158	0.332	0.168
-166.852	-200.000	-0.005	-0.170
-165.837	-120.225	0.149	-0.025
-164.823	-200.000	0.000	0.044
-163.808	800.000	-0.110	-0.361
-162.793	-43.891	0.023	0.011
-161.779	-200.000	-0.075	0.393
-160.764	-96.101	0.243	0.063
-159.750	-16.131	-0.064	0.040
-158.735	138.121	-0.097	0.125
-157.720	-82.444	0.307	-0.098
-156.706	-34.666	0.150	0.081
-155.691	-200.000	0.005	-0.092
-154.677	310.293	-0.035	-0.065
-153.662	194.938	0.091	-0.136
-152.647	-200.000	-0.007	0.033
-151.633	783.709	0.073	0.195
-150.618	-200.000	-0.039	-0.269
-149.604	193.583	0.071	-0.105
-148.589	71.669	-0.190	0.194
-147.574	800.000	-0.057	0.164
-146.560	-35.981	0.167	0.089
-145.545	-200.000	0.004	0.124
-144.531	359.393	0.098	0.192
-143.516	215.720	0.156	0.244
-142.502	800.000	-0.084	0.327
-141.487	40.600	0.129	0.114
-140.472	46.629	0.211	0.192
-139.458	120.971	-0.088	-0.108
-138.443	-200.000	0.001	-0.180
-137.429	89.290	-0.140	-0.153
-136.414	800.000	0.055	0.164
-135.399	151.960	0.153	-0.205
-134.385	200.419	-0.220	0.332
-133.370	-77.433	-0.292	-0.100
-132.356	99.593	0.168	0.190
-131.341	-130.087	0.153	0.020
-130.326	633.361	0.063	0.156
-129.312	-60.570	0.245	0.102
-128.297	-74.437	0.117	0.041
-127.283	-108.629	-0.229	-0.048
-126.268	800.000	0.070	-0.245
-125.253	-7.884	-0.048	0.032
-124.239	-7.925	-0.202	0.134
-123.224	660.609	-0.023	-0.059
-122.210	-200.000	0.029	-0.334
-121.195	800.000	-0.078	0.229
-120.180	-130.645	-0.181	-0.024
-119.166	-200.000	-0.085	0.677
-118.151	625.423	0.068	0.168
-117.137	-200.000	0.010	0.063
-116.122	51.467	-0.124	0.116
-115.107	800.000	0.045	-0.183
-114.093	-100.410	0.305	0.074
-113.078	10.899	0.064	-0.048
-112.064	779.018	-0.023	0.060
-111.049	-64.787	-0.033	-0.013
-110.034	199.627	-0.075	-0.112
-109.020	251.962	0.079	-0.133
-108.005	119.130	0.139	0.169
-106.991	25.649	0.072	-0.059
-105.976	446.774	0.023	0.050
-104.962	800.000	0.030	0.125
-103.947	-24.283	-0.150	-0.088
-102.932	68.413	0.055	0.055
-101.918	-185.848	-0.084	0.001
-100.903	800.000	-0.004	-0.014
-99.889	-93.669	-0.192	0.052
-98.874	-200.000	0.040	0.179
-97.859	193.280	0.200	0.296
-96.845	308.897	-0.175	0.320
-95.830	-113.699	-0.137	-0.026
-94.816	-124.959	-0.259	0.039
-93.801	42.720	0.122	-0.109
-92.786	-94.020	-0.405	-0.109
-91.772	408.539	-0.095	-0.197
-90.757	-200.000	-0.033	0.162
-89.743	-81.919	0.108	-0.035
-88.728	-46.905	-0.256	0.123
-87.713	-80.975	-0.232	-0.075
-86.699	-119.706	-0.172	-0.029
-85.684	225.343	0.070	0.112
-84.670	74.874	-0.400	0.412
-83.655	158.722	-0.038	0.052
-82.640	129.713	-0.126	0.158
-81.626	3.395	0.231	0.165
-80.611	-28.891	0.310	-0.175
-79.597	-100.040	0.268	-0.065
-78.582	244.987	-0.026	-0.043
-77.567	-124.404	0.036	0.006
-76.553	-83.345	-0.193	-0.060
-75.538	-133.067	0.396	0.049
-74.524	725.934	-0.050	0.130
-73.509	-200.000	-0.059	-0.344
-72.494	-200.000	0.019	-0.151
-71.480	-58.206	-0.194	-0.083
-70.465	-87.868	0.014	0.004
-69.451	-82.411	-0.363	-0.115
-68.436	-150.920	-0.519	0.038
-67.422	48.428	-0.189	0.173
-66.407	28.419	0.061	0.051
-65.392	-71.649	-0.145	-0.053
-64.378	-200.000	0.329	-0.001
-63.363	-85.265	-0.189	0.058
-62.349	8.391	-0.171	0.126
-61.334	2.982	-1.253	-0.891
-60.319	17.108	0.557	0.432
-59.305	209.640	-0.710	-1.088
-58.290	800.000	0.424	1.603
-57.276	800.000	0.509	1.815
-56.261	-200.000	116.762	654.992
-55.246	517.461	1539.922	3523.314
-54.232	175.274	2711.639	3842.945
-53.217	107.602	2159.778	2514.250
-52.203	38.560	1594.574	1390.788
-51.188	29.957	1337.750	1115.197
-50.173	27.211	1298.397	1066.266
-49.159	54.402	1357.120	1278.265
-48.144	52.557	1370.275	1279.575
-47.130	30.265	1324.957	1106.193
-46.115	26.789	1306.999	1070.674
-45.100	26.636	1302.126	1065.736
-44.086	26.505	1299.356	1062.656
-43.071	26.498	1297.083	1060.718
-42.057	26.509	1294.923	1058.969
-41.042	26.633	1292.989	1058.072
-40.027	26.567	1291.825	1056.695
-39.013	26.568	1289.975	1055.146
-37.998	26.638	1288.246	1054.096
-36.984	26.673	1286.257	1052.627
-35.969	26.711	1284.408	1051.297
-34.954	26.688	1282.864	1049.857
-33.940	26.676	1281.602	1048.714
-32.925	26.801	1279.912	1048.012
-31.911	26.868	1278.247	1046.994
-30.896	26.761	1277.319	1045.571
-29.881	26.765	1275.903	1044.396
-28.867	26.829	1274.494	1043.567
-27.852	26.834	1272.862	1042.221
-26.838	26.790	1271.452	1040.774
-25.823	26.833	1270.249	1039.990
-24.809	26.831	1268.746	1038.707
-23.794	26.701	1267.746	1037.104
-22.779	26.798	1266.038	1036.221
-21.765	26.727	1265.644	1035.453
-20.750	26.721	1263.933	1033.979
-19.736	26.688	1262.751	1032.780
-18.721	26.717	1261.507	1031.889
-17.706	26.618	1260.822	1030.726
-16.692	26.657	1259.613	1029.916
-15.677	26.640	1257.920	1028.395
-14.663	26.566	1257.409	1027.518
-13.648	26.618	1255.441	1026.160
-12.633	26.661	1254.560	1025.642
-11.619	26.539	1254.756	1025.072
-10.604	26.711	1253.221	1024.751
-9.590	26.555	1252.661	1023.369
-8.575	26.680	1251.313	1022.934
-7.560	26.675	1250.436	1022.147
-6.546	26.530	1250.092	1021.006
-5.531	26.518	1249.304	1020.255
-4.517	26.709	1247.775	1020.044
-3.502	26.632	1246.714	1018.702
-2.487	26.615	1246.184	1018.132
-1.473	26.630	1241.595	1014.426
-0.458	25.223	1227.035	994.698
0.556	22.180	1210.349	958.402
1.571	18.580	1217.001	943.813
2.586	17.731	1232.456	950.980
3.600	17.381	1220.758	939.934
4.615	13.114	1148.729	862.169
5.629	6.218	1078.169	775.245
6.644	3.423	1060.248	748.729
7.659	3.287	1057.915	746.356
8.673	3.276	1057.108	745.669
9.688	3.305	1055.893	744.885
10.702	3.397	1053.807	743.791
11.717	7.360	1058.926	766.529
12.731	14.624	1069.069	809.136
13.746	18.820	1074.594	833.653
14.761	19.436	1074.606	836.577
15.775	18.751	1073.475	832.298
16.790	17.711	1071.046	825.315
17.804	16.908	1069.407	820.094
18.819	16.753	1068.296	818.418
19.834	16.561	1067.474	816.791
20.848	16.351	1067.345	815.604
21.863	16.185	1066.087	813.771
22.877	16.001	1065.606	812.444
23.892	16.043	1064.605	811.812
24.907	16.156	1063.647	811.554
25.921	16.250	1062.378	810.967
26.936	16.050	1061.461	809.233
27.950	16.210	1059.952	808.781
28.965	16.305	1058.537	808.084
29.980	16.458	1057.286	807.789
30.994	16.369	1056.041	806.340
32.009	16.362	1055.081	805.501
33.023	16.410	1054.072	804.892
34.038	16.396	1053.004	803.938
35.053	16.297	1051.831	802.497
36.067	16.104	1051.013	800.886
37.082	16.207	1050.277	800.743
38.096	16.306	1050.070	800.986
39.111	16.463	1048.758	800.657
40.126	16.210	1047.674	798.564
41.140	15.860	1046.240	795.744
42.155	15.875	1044.956	794.768
43.169	16.012	1043.560	794.279
44.184	15.963	1042.734	793.352
45.199	15.834	1042.103	792.194
46.213	15.992	1040.699	791.802
47.228	16.163	1040.290	792.221
48.242	16.270	1038.956	791.637
49.257	16.078	1038.271	790.145
50.271	16.151	1037.339	789.707
51.286	16.350	1036.259	789.746
52.301	16.338	1035.245	788.848
53.315	16.251	1033.850	787.310
54.330	15.927	1033.358	785.352
55.344	16.166	1032.103	785.446
56.359	16.049	1031.676	784.507
57.374	15.980	1030.508	783.228
58.388	15.930	1029.492	782.152
59.403	15.764	1028.837	780.814
60.417	15.919	1028.230	781.003
61.432	15.835	1027.379	779.900
62.447	15.823	1026.195	778.879
63.461	15.742	1025.429	777.852
64.476	15.778	1024.616	777.334
65.490	15.701	1023.418	775.998
66.505	15.745	1023.372	776.099
67.520	15.852	1022.286	775.700
68.534	15.763	1021.819	774.869
69.549	15.700	1021.120	773.976
70.563	15.760	1020.007	773.344
71.578	15.564	1018.982	771.598
72.593	15.661	1018.081	771.290
73.607	15.583	1017.408	770.354
74.622	15.710	1017.060	770.606
75.636	15.580	1016.624	769.611
76.651	15.689	1015.897	769.491
77.666	15.636	1014.964	768.476
78.680	15.646	1014.607	768.182
79.695	15.663	1013.891	767.648
80.709	15.869	1013.099	767.920
81.724	15.975	1012.565	767.933
82.739	16.031	1011.494	767.307
83.753	16.192	1010.917	767.536
84.768	16.313	1010.010	767.330
85.782	16.363	1009.490	767.091
86.797	16.270	1008.664	765.974
87.812	16.241	1007.566	764.941
88.826	16.117	1006.910	763.816
89.841	16.296	1005.312	763.343
90.855	16.443	1004.807	763.557
91.870	16.518	1004.217	763.380
92.884	16.367	1003.386	762.001
93.899	16.339	1002.129	760.853
94.914	16.548	1001.628	761.345
95.928	16.378	1000.806	759.889
96.943	16.305	1000.125	758.977
97.957	16.219	999.280	757.880
98.972	16.271	998.194	757.225
99.987	16.317	997.575	756.893
101.001	16.312	996.625	756.085
102.016	16.328	995.467	755.208
103.030	16.352	994.696	754.664
104.045	16.293	994.084	753.870
105.060	16.176	993.154	752.577
106.074	16.071	992.179	751.302
107.089	15.894	991.082	749.618
108.103	15.907	990.081	748.853
109.118	15.934	989.064	748.135
110.133	15.819	988.349	747.018
111.147	15.944	987.059	746.532
112.162	15.888	986.775	746.001
113.176	16.073	986.033	746.197
114.191	16.097	985.251	745.643
115.206	16.079	984.642	745.036
116.220	16.000	983.494	743.753
117.235	16.068	982.434	743.184
118.249	16.119	981.823	742.882
119.264	15.785	981.340	740.982
120.279	15.735	980.659	740.182
121.293	15.811	979.562	739.620
122.308	15.860	978.307	738.824
123.322	15.682	977.838	737.622
124.337	15.755	976.656	736.988
125.352	15.813	975.152	736.040
126.366	15.785	974.168	735.111
127.381	15.648	973.307	733.799
128.395	15.827	972.311	733.762
129.410	15.799	971.621	733.054
130.424	15.757	971.108	732.418
131.439	15.863	970.318	732.220
132.454	16.003	969.313	732.004
133.468	16.109	968.527	731.808
134.483	16.052	967.521	730.735
135.497	16.035	966.761	730.023
136.512	16.045	965.665	729.171
137.527	16.003	965.337	728.679
138.541	15.990	965.029	728.326
139.556	16.238	964.132	728.655
140.570	16.223	963.133	727.772
141.585	16.386	962.537	727.960
142.600	16.249	961.805	726.752
143.614	16.358	961.352	726.814
144.629	16.497	960.530	726.727
145.643	16.322	959.327	724.998
146.658	16.251	958.046	723.665
147.673	16.185	956.774	722.356
148.687	16.129	956.589	721.912
149.702	16.119	955.112	720.691
150.716	16.050	954.688	720.012
151.731	16.112	953.418	719.254
152.746	16.131	953.055	719.001
153.760	16.234	952.525	718.977
154.775	16.222	952.047	718.497
155.789	16.292	951.613	718.407
156.804	16.329	950.914	717.971
157.819	16.430	949.846	717.530
158.833	16.443	949.406	717.189
159.848	16.654	948.375	717.243
160.862	16.369	947.513	715.319
161.877	16.283	946.098	713.826
162.892	16.263	945.321	713.093
163.906	16.102	944.511	711.739
164.921	16.110	944.024	711.340
165.935	16.226	942.886	710.909
166.950	16.226	942.185	710.319
167.964	16.279	941.290	709.803
168.979	16.286	940.044	708.832
169.994	16.188	939.582	708.010
171.008	16.249	938.655	707.505
172.023	16.401	938.341	707.842
173.037	16.629	937.472	708.075
174.052	16.452	936.843	706.797
175.067	16.249	936.182	705.387
176.081	16.199	935.236	704.404
177.096	16.270	935.058	704.504
178.110	16.396	933.851	704.060
179.125	16.377	933.596	703.726
180.140	16.385	933.184	703.387
181.154	16.491	932.767	703.452
182.169	16.524	932.683	703.462
183.183	16.603	931.765	703.037
184.198	16.718	930.655	702.611
185.213	16.559	930.277	701.605
186.227	16.617	929.940	701.530
187.242	16.745	928.969	701.265
188.256	16.754	928.595	700.957
189.271	16.820	927.779	700.551
190.286	16.369	927.276	698.247
191.300	16.214	925.654	696.323
192.315	16.217	925.084	695.845
193.329	16.181	924.880	695.485
194.344	16.441	924.241	696.012
195.359	16.441	923.438	695.345
196.373	16.592	922.425	695.141
197.388	16.720	922.673	695.792
198.402	16.747	922.018	695.350
199.417	16.867	921.746	695.573
200.432	16.923	921.116	695.269
201.446	16.850	920.662	694.564
202.461	17.178	919.432	694.916
203.475	17.001	919.507	694.186
204.490	16.853	918.167	692.511
205.504	16.823	917.504	691.825
206.519	16.901	916.494	691.321
207.534	16.873	915.721	690.562
208.548	16.781	916.062	690.384
209.563	16.751	915.509	689.782
210.577	16.848	914.453	689.322
211.592	17.049	913.738	689.539
212.607	17.158	912.665	689.108
213.621	16.977	912.019	687.826
214.636	17.030	911.286	687.428
215.650	16.910	911.182	686.803
216.665	17.029	910.046	686.370
217.680	17.108	909.484	686.204
218.694	17.034	909.430	685.801
219.709	17.178	908.373	685.524
220.723	17.075	907.605	684.471
221.738	17.076	906.793	683.802
222.753	17.080	906.212	683.318
223.767	17.128	905.820	683.156
224.782	17.224	905.242	683.044
225.796	17.253	904.944	682.874
226.811	17.343	903.878	682.373
227.826	17.121	903.586	681.202
228.840	17.172	902.336	680.401
229.855	17.072	901.553	679.350
230.869	17.095	900.802	678.817
231.884	17.128	900.170	678.413
232.899	16.953	899.427	677.093
233.913	17.047	898.221	676.502
234.928	16.933	898.307	676.052
235.942	16.849	897.764	675.251
236.957	16.899	896.719	674.601
237.972	17.066	896.244	674.850
238.986	16.927	896.099	674.127
240.001	16.953	894.951	673.309
241.015	17.204	894.272	673.733
242.030	17.200	893.992	673.446
243.045	17.176	893.282	672.756
244.059	17.319	892.502	672.675
245.074	17.265	892.529	672.422
246.088	17.302	891.530	671.755
247.103	17.431	890.630	671.530
248.117	17.474	890.582	671.604
249.132	17.622	890.278	671.898
250.147	17.767	889.581	671.884
251.161	17.793	888.757	671.306
252.176	17.746	888.033	670.515
253.190	17.880	887.553	670.619
254.205	17.713	887.514	669.875
255.220	17.828	886.420	669.439
256.234	17.903	885.491	668.973
257.249	17.930	885.020	668.665
258.263	17.887	884.322	667.907
259.278	17.965	883.743	667.716
260.293	17.967	883.171	667.232
261.307	18.005	882.532	666.841
262.322	18.013	881.845	666.291
263.336	18.083	881.054	665.910
264.351	18.109	880.467	665.508
265.366	18.082	879.798	664.837
266.380	18.104	879.168	664.388
267.395	17.993	878.613	663.478
268.409	17.874	877.775	662.324
269.424	18.020	876.988	662.239
270.439	18.005	876.432	661.704
271.453	17.858	875.877	660.656
272.468	17.828	875.096	659.893
273.482	17.914	874.674	659.850
274.497	17.909	873.953	659.226
275.512	17.816	873.722	658.637
276.526	17.881	873.036	658.313
277.541	18.001	872.556	658.354
278.555	18.151	871.963	658.424
279.570	18.303	871.222	658.391
280.585	18.088	870.810	657.195
281.599	18.101	869.730	656.371
282.614	17.856	869.666	655.327
283.628	17.942	868.660	654.841
284.643	17.982	868.145	654.547
285.657	18.118	867.522	654.540
286.672	18.142	866.561	653.848
287.687	18.105	866.461	653.573
288.701	18.064	865.690	652.778
289.716	18.067	865.208	652.369
290.730	18.161	864.632	652.234
291.745	18.250	863.860	651.934
292.760	18.360	863.167	651.773
293.774	18.371	862.609	651.334
294.789	18.394	861.914	650.839
295.803	18.145	861.175	649.277
296.818	18.155	860.601	648.824
297.833	18.173	859.958	648.351
298.847	18.252	859.373	648.154
299.862	18.245	858.774	647.619
300.876	18.358	858.246	647.589
301.891	18.498	857.688	647.641
302.906	18.355	857.603	646.978
303.920	18.557	856.796	647.074
304.935	18.664	856.312	647.056
305.949	18.605	855.479	646.145
306.964	18.275	855.380	644.771
307.979	18.356	854.576	644.414
308.993	18.608	853.857	644.760
310.008	18.710	853.072	644.494
311.022	18.528	852.715	643.486
312.037	18.494	852.362	643.032
313.052	18.379	851.600	641.969
314.066	18.319	850.916	641.174
315.081	18.236	850.617	640.582
316.095	18.355	849.787	640.344
317.110	18.364	849.031	639.750
318.125	18.218	848.831	639.000
319.139	18.257	848.014	638.473
320.154	18.530	847.528	639.069
321.168	18.304	847.636	638.252
322.183	18.570	846.651	638.444
323.197	18.580	845.885	637.846
324.212	18.503	845.545	637.245
325.227	18.559	844.984	636.975
326.241	18.413	844.328	635.883
327.256	18.493	843.838	635.753
328.270	18.600	842.729	635.260
329.285	18.331	842.772	634.237
330.300	18.403	842.131	633.967
331.314	18.505	841.560	633.858
332.329	18.441	841.424	633.462
333.343	18.717	840.749	633.916
334.358	18.643	840.573	633.457
335.373	18.728	839.896	633.204
336.387	18.688	839.830	632.951
337.402	18.687	839.880	632.926
338.416	18.669	839.298	632.367
339.431	18.925	838.930	632.978
340.446	18.962	838.720	632.899
341.460	18.975	837.957	632.315
342.475	19.040	837.566	632.200
343.489	19.046	837.239	631.919
344.504	19.096	837.200	632.018
345.519	19.204	836.419	631.771
346.533	19.229	835.551	631.151
347.548	19.007	834.819	629.730
348.562	18.924	834.199	628.902
349.577	18.811	833.853	628.172
350.592	18.786	833.060	627.426
351.606	18.890	832.127	627.047
352.621	18.955	831.368	626.657
353.635	18.966	830.877	626.274
354.650	19.021	830.225	625.925
355.665	18.931	829.938	625.326
356.679	19.089	829.357	625.408
357.694	19.003	828.798	624.617
358.708	19.001	828.421	624.272
359.723	18.974	827.798	623.648
360.738	19.070	827.221	623.507
361.752	19.132	826.432	623.081
362.767	19.211	825.980	622.971
363.781	19.255	825.635	622.817
364.796	19.390	824.921	622.710
365.810	19.464	824.854	622.872
366.825	19.393	824.155	622.032
367.840	19.458	824.131	622.193
368.854	19.308	823.488	621.111
369.869	19.347	823.038	620.860
370.883	19.508	822.254	620.792
371.898	19.466	822.031	620.416
372.913	19.501	821.588	620.152
373.927	19.286	821.535	619.285
374.942	19.398	820.939	619.185
375.956	19.551	820.454	619.311
376.971	19.731	819.729	619.354
377.986	19.548	819.890	618.766
379.000	19.747	819.079	618.811
380.015	19.700	818.494	618.149
381.029	19.655	817.844	617.440
382.044	19.632	817.570	617.097
383.059	19.577	816.802	616.265
384.073	19.598	816.041	615.714
385.088	19.565	815.791	615.353
386.102	19.433	815.000	614.230
387.117	19.469	814.267	613.752
388.132	19.434	813.805	613.225
389.146	19.522	813.264	613.076
390.161	19.670	813.024	613.364
391.175	19.775	812.400	613.213
392.190	19.574	811.907	612.075
393.205	19.566	811.235	611.487
394.219	19.561	810.873	611.141
395.234	19.642	810.644	611.200
396.248	19.295	810.246	609.620
397.263	19.488	809.212	609.469
398.278	19.465	809.165	609.298
399.292	19.414	808.908	608.870
400.307	19.429	808.383	608.475
401.321	19.545	807.666	608.291
402.336	19.413	807.370	607.550
403.350	19.538	807.094	607.728
404.365	19.926	806.339	608.467
405.380	19.940	806.077	608.268
406.394	19.988	805.464	607.918
407.409	20.071	805.294	608.028
408.423	19.876	805.182	607.206
409.438	20.115	804.805	607.705
410.453	20.165	804.022	607.234
411.467	20.164	803.768	606.988
412.482	20.112	803.377	606.455
413.496	20.251	803.209	606.761
414.511	20.291	802.816	606.551
415.526	20.049	802.404	605.341
416.540	20.090	801.911	605.056
417.555	20.306	800.949	605.032
418.569	20.386	800.349	604.802
419.584	20.234	800.469	604.313
420.599	20.204	800.021	603.814
421.613	162.106	1371.977	1797.268
422.628	140.753	1455.284	1797.347
