DTS Sentinel unit serial number:	SN413079Multiplexer serial number:	ORYXHardware model number:	OX4-SRSoftware version number:	ORYX F/W v4.00 Oryx Data Collector v3.7.2.0data status	okinstallation	princeton_trtdifferential loss correction	single-endedforward channel	channel 1reverse channel	N/Adate	2019/09/16time	22:06:35forward acquisition time	60.00reverse acquisition time	0.00gamma	496.2192k internal	0.2324k external	0.2324temperature offset calibration	0.9956default loss term (dB/km)	0.3790temperature slope calibration	1.0000multiplexer offset coefficient	1.0000multiplexer slope coefficient	1.0000fibre end	0.00T internal ref (°C)	31.12T ext. ref 1 (°C)	0.06T ext. ref 2 (°C)	24.97length (m)	temperature (°C)	Stokes	anti-Stokes-747.200	-23.666	0.294	-0.178
-746.185	327.920	0.046	-0.089
-745.171	48.324	0.162	-0.153
-744.156	-59.964	-0.131	-0.057
-743.142	-200.000	0.017	0.299
-742.127	19.165	0.131	0.106
-741.112	153.943	0.011	0.016
-740.098	-200.000	0.018	0.392
-739.083	-200.000	0.064	0.347
-738.069	-200.000	-0.084	0.424
-737.054	800.000	0.025	-0.080
-736.039	-171.170	-0.086	-0.003
-735.025	-140.669	0.516	-0.054
-734.010	-107.897	-0.153	-0.034
-732.996	-57.306	-0.356	-0.158
-731.981	-4.872	-0.081	-0.057
-730.966	-29.224	-0.216	0.125
-729.952	94.490	0.152	-0.174
-728.937	800.000	-0.033	-0.093
-727.923	240.421	-0.067	0.113
-726.908	-200.000	0.003	-0.209
-725.894	281.943	-0.026	-0.048
-724.879	800.000	-0.118	-0.416
-723.864	35.452	-0.080	0.071
-722.850	-11.454	0.211	-0.140
-721.835	800.000	0.052	-0.190
-720.821	425.211	0.121	-0.262
-719.806	17.945	-0.285	-0.229
-718.791	-119.573	-0.089	-0.016
-717.777	195.815	-0.028	-0.043
-716.762	-52.789	-0.249	-0.116
-715.748	-35.611	-0.167	-0.091
-714.733	292.874	-0.192	0.352
-713.718	-44.791	0.289	0.145
-712.704	-24.426	0.236	-0.142
-711.689	800.000	0.038	0.167
-710.675	-200.000	0.031	0.238
-709.660	169.191	-0.039	-0.056
-708.645	6.890	0.022	-0.017
-707.631	504.783	0.225	-0.524
-706.616	105.738	0.191	-0.227
-705.602	-200.000	0.018	-0.295
-704.587	577.964	0.083	0.204
-703.572	-200.000	0.034	-0.155
-702.558	3.382	-0.327	0.240
-701.543	235.038	-0.030	0.050
-700.529	70.194	-0.041	0.043
-699.514	-69.932	0.340	-0.131
-698.499	-173.533	-0.146	0.004
-697.485	-74.113	0.203	0.074
-696.470	17.046	0.222	-0.177
-695.456	-114.429	-0.164	0.032
-694.441	-85.263	0.380	0.120
-693.426	-119.379	-0.045	0.008
-692.412	-26.455	-0.166	-0.098
-691.397	-149.270	0.256	-0.021
-690.383	189.864	-0.076	-0.115
-689.368	-28.431	0.087	0.051
-688.354	-200.000	-0.028	-0.381
-687.339	324.968	-0.064	-0.123
-686.324	128.836	-0.156	-0.200
-685.310	320.160	0.158	-0.301
-684.295	-101.614	-0.324	0.079
-683.281	113.851	-0.077	-0.095
-682.266	-2.548	-0.387	-0.273
-681.251	74.692	0.074	-0.078
-680.237	308.157	0.111	-0.209
-679.222	750.402	0.059	-0.160
-678.208	-130.770	0.041	0.006
-677.193	135.880	0.124	-0.162
-676.178	215.191	0.188	-0.301
-675.164	277.533	-0.093	0.167
-674.149	139.091	0.100	0.132
-673.135	-200.000	0.012	-0.070
-672.120	-142.613	0.250	0.025
-671.105	59.123	-0.139	0.137
-670.091	-2.345	-0.184	0.130
-669.076	-104.207	0.183	-0.043
-668.062	151.305	0.080	0.110
-667.047	194.004	0.095	0.145
-666.032	-65.868	-0.117	0.047
-665.018	296.338	0.100	0.185
-664.003	8.690	0.299	-0.227
-662.989	230.514	-0.105	-0.173
-661.974	-0.327	-0.175	-0.125
-660.959	365.132	0.057	0.116
-659.945	-66.439	0.201	-0.080
-658.930	395.523	0.046	-0.097
-657.916	205.092	-0.120	0.187
-656.901	-65.809	-0.112	-0.045
-655.886	-200.000	-0.046	0.252
-654.872	-200.000	0.023	-0.191
-653.857	43.290	0.094	0.087
-652.843	-62.082	0.067	0.028
-651.828	71.899	0.139	0.146
-650.814	-178.060	-0.126	0.003
-649.799	664.308	-0.211	0.547
-648.784	-52.502	-0.247	0.115
-647.770	116.172	0.081	-0.099
-646.755	-94.252	-0.182	0.050
-645.741	98.001	0.096	0.111
-644.726	800.000	0.025	0.094
-643.711	-136.586	-0.104	0.012
-642.697	442.979	-0.023	0.050
-641.682	190.690	0.098	-0.148
-640.668	800.000	0.053	-0.209
-639.653	6.284	0.172	-0.128
-638.638	300.456	-0.209	-0.388
-637.624	-200.000	0.052	-0.303
-636.609	9.807	0.156	-0.119
-635.595	-84.460	0.190	-0.060
-634.580	-200.000	-0.028	0.470
-633.565	-14.921	0.167	0.108
-632.551	-34.845	0.234	0.129
-631.536	-135.603	0.172	-0.021
-630.522	14.940	-0.153	-0.120
-629.507	-200.000	0.006	-0.127
-628.492	211.199	0.138	0.219
-627.478	-114.409	0.328	-0.063
-626.463	-139.096	-0.487	0.053
-625.449	-200.000	-0.001	-0.067
-624.434	707.208	-0.066	0.175
-623.419	-200.000	0.032	-0.188
-622.405	-83.438	-0.295	0.095
-621.390	88.632	-0.157	-0.175
-620.376	-200.000	0.057	-0.299
-619.361	-89.504	0.200	0.059
-618.346	-104.264	-0.191	0.045
-617.332	-103.772	-0.567	-0.133
-616.317	201.453	-0.051	-0.080
-615.303	-186.595	-0.252	-0.004
-614.288	77.842	-0.125	0.134
-613.273	361.859	0.076	-0.152
-612.259	25.112	0.207	-0.173
-611.244	50.406	-0.051	-0.048
-610.230	-20.297	-0.203	-0.126
-609.215	140.255	-0.189	-0.251
-608.201	59.033	-0.167	0.165
-607.186	-47.549	-0.042	0.021
-606.171	391.955	-0.120	-0.251
-605.157	800.000	-0.009	0.037
-604.142	-47.327	0.056	0.027
-603.128	-53.732	0.187	0.086
-602.113	-107.304	0.070	-0.015
-601.098	-74.063	0.236	-0.086
-600.084	-29.078	0.153	-0.088
-599.069	666.922	-0.055	0.142
-598.055	-102.593	0.116	-0.028
-597.040	800.000	0.046	0.159
-596.025	204.126	0.088	-0.138
-595.011	164.362	-0.079	0.112
-593.996	126.632	-0.016	-0.021
-592.982	-189.610	-0.164	0.002
-591.967	-200.000	0.042	0.384
-590.952	-200.000	-0.005	-0.512
-589.938	52.661	0.127	-0.122
-588.923	-162.378	0.276	0.014
-587.909	-200.000	-0.000	0.003
-586.894	21.422	-0.344	0.280
-585.879	-158.904	0.199	-0.011
-584.865	2.124	0.190	-0.138
-583.850	-54.660	0.209	0.095
-582.836	292.564	0.067	-0.123
-581.821	-167.558	-0.205	0.008
-580.806	-96.386	0.067	0.018
-579.792	319.402	0.126	-0.241
-578.777	172.467	0.113	0.164
-577.763	-200.000	-0.042	-0.352
-576.748	17.498	0.124	-0.099
-575.733	124.406	0.138	0.174
-574.719	134.540	0.084	-0.110
-573.704	216.659	0.164	-0.262
-572.690	228.274	0.125	0.205
-571.675	-38.203	-0.091	0.048
-570.661	307.819	0.146	-0.273
-569.646	-110.150	0.224	-0.047
-568.631	-93.488	-0.613	-0.170
-567.617	-132.218	0.007	0.001
-566.602	123.403	-0.212	-0.266
-565.588	-56.612	0.205	-0.091
-564.573	-200.000	0.013	0.345
-563.558	-200.000	0.001	0.255
-562.544	-200.000	0.042	-0.283
-561.529	-49.692	0.024	0.011
-560.515	-0.809	0.181	0.128
-559.500	-129.341	0.095	-0.013
-558.485	-137.439	-0.248	-0.028
-557.471	-173.178	0.093	0.003
-556.456	-200.000	-0.034	0.213
-555.442	-108.581	0.122	-0.026
-554.427	800.000	-0.060	-0.181
-553.412	-14.692	-0.062	-0.040
-552.398	800.000	-0.091	0.359
-551.383	-57.420	0.272	-0.120
-550.369	142.690	0.091	-0.121
-549.354	-37.270	-0.062	0.033
-548.339	392.401	0.133	-0.278
-547.325	-200.000	-0.032	-0.346
-546.310	-8.746	-0.096	0.065
-545.296	70.539	0.141	0.146
-544.281	20.696	-0.079	-0.064
-543.266	-148.498	-0.089	0.007
-542.252	24.765	0.102	-0.085
-541.237	-78.826	0.032	-0.011
-540.223	-91.118	0.414	-0.119
-539.208	-49.459	-0.218	0.104
-538.193	-200.000	0.057	-0.291
-537.179	587.860	-0.040	0.098
-536.164	-77.224	0.215	-0.075
-535.150	-31.798	0.124	0.069
-534.135	643.859	-0.174	0.444
-533.121	284.367	-0.116	0.210
-532.106	-79.899	-0.106	0.036
-531.091	530.504	-0.099	-0.233
-530.077	-68.491	0.106	-0.041
-529.062	-23.819	0.234	-0.140
-528.048	-30.756	-0.162	0.092
-527.033	-200.000	0.004	-0.027
-526.018	-200.000	-0.012	0.330
-525.004	106.457	-0.217	0.257
-523.989	-67.839	-0.427	0.167
-522.975	125.664	0.111	0.140
-521.960	800.000	-0.052	0.201
-520.945	-200.000	0.003	0.042
-519.931	94.003	0.243	0.276
-518.916	800.000	0.097	-0.286
-517.902	509.750	-0.077	-0.180
-516.887	70.512	-0.207	0.214
-515.872	3.446	0.258	0.188
-514.858	168.281	-0.160	0.227
-513.843	-65.503	0.118	0.047
-512.829	-20.635	0.130	-0.080
-511.814	-157.509	0.149	-0.009
-510.799	-92.957	0.275	0.077
-509.785	339.103	-0.140	0.273
-508.770	-161.657	-0.008	-0.000
-507.756	-101.044	-0.166	0.041
-506.741	-84.644	-0.192	-0.061
-505.726	800.000	0.009	0.032
-504.712	-91.411	0.253	0.072
-503.697	48.829	-0.175	0.164
-502.683	-83.336	0.054	-0.017
-501.668	-72.001	-0.148	-0.055
-500.653	-200.000	0.021	-0.215
-499.639	-86.932	-0.117	-0.036
-498.624	-200.000	0.004	0.065
-497.610	-200.000	-0.001	0.554
-496.595	-71.016	0.156	0.059
-495.581	-104.676	-0.181	-0.042
-494.566	41.994	-0.172	0.156
-493.551	-53.395	-0.399	0.183
-492.537	-200.000	-0.062	-0.511
-491.522	414.596	0.098	-0.210
-490.508	-200.000	0.014	-0.136
-489.493	-19.904	-0.228	0.141
-488.478	416.120	-0.098	-0.209
-487.464	-200.000	-0.039	-0.364
-486.449	-123.693	-0.353	0.056
-485.435	20.888	-0.245	0.198
-484.420	-123.204	0.165	0.026
-483.405	-13.703	0.268	-0.173
-482.391	-30.834	0.521	0.294
-481.376	-153.476	-0.174	-0.012
-480.362	-200.000	0.023	-0.391
-479.347	315.344	0.132	-0.250
-478.332	-200.000	0.023	-0.185
-477.318	-7.452	0.307	0.207
-476.303	-200.000	-0.034	0.217
-475.289	-46.708	0.075	0.036
-474.274	-200.000	0.027	0.236
-473.259	38.007	0.252	0.224
-472.245	800.000	0.087	0.294
-471.230	-37.573	0.178	-0.095
-470.216	800.000	0.062	-0.237
-469.201	71.191	0.214	0.221
-468.186	247.200	-0.119	0.201
-467.172	-30.535	-0.192	0.109
-466.157	-3.086	-0.069	0.048
-465.143	800.000	-0.065	0.228
-464.128	-52.077	0.195	-0.090
-463.113	-24.439	-0.133	-0.079
-462.099	80.097	-0.079	0.085
-461.084	-200.000	-0.012	-0.164
-460.070	506.813	-0.083	0.191
-459.055	556.096	0.051	0.123
-458.040	-43.632	0.271	-0.136
-457.026	-67.299	-0.198	0.078
-456.011	800.000	-0.103	0.328
-454.997	668.577	0.121	0.313
-453.982	-104.976	0.142	0.032
-452.968	292.270	-0.086	0.156
-451.953	72.630	-0.208	-0.217
-450.938	800.000	-0.081	-0.342
-449.924	128.995	-0.152	-0.193
-448.909	27.708	0.068	-0.057
-447.895	93.084	-0.035	-0.039
-446.880	-200.000	-0.035	-0.328
-445.865	-200.000	-0.032	-0.195
-444.851	-60.418	-0.035	0.015
-443.836	286.846	0.092	0.166
-442.822	-200.000	0.004	0.045
-441.807	-5.229	0.155	-0.106
-440.792	8.598	-0.040	-0.030
-439.778	36.207	0.207	0.182
-438.763	0.635	0.134	-0.095
-437.749	584.319	-0.093	-0.228
-436.734	-43.602	0.377	-0.190
-435.719	-81.467	-0.348	-0.114
-434.705	800.000	0.078	-0.272
-433.690	-200.000	0.080	0.379
-432.676	-200.000	-0.053	0.376
-431.661	-200.000	0.012	-0.379
-430.646	-63.845	0.162	-0.066
-429.632	-25.866	-0.047	-0.028
-428.617	800.000	-0.040	0.132
-427.603	59.595	-0.216	-0.212
-426.588	129.659	-0.126	-0.160
-425.573	326.368	-0.092	-0.175
-424.559	-184.911	-0.224	0.004
-423.544	800.000	-0.106	-0.296
-422.530	-48.322	-0.149	0.072
-421.515	-200.000	0.057	0.362
-420.500	-200.000	-0.021	0.146
-419.486	-36.584	-0.139	0.074
-418.471	371.781	0.168	-0.340
-417.457	114.288	0.045	0.054
-416.442	-200.000	0.033	-0.319
-415.428	683.727	0.098	-0.254
-414.413	297.491	0.066	-0.121
-413.398	-200.000	-0.009	-0.216
-412.384	576.435	0.118	0.287
-411.369	-200.000	-0.002	0.140
-410.355	346.669	0.127	-0.248
-409.340	-200.000	-0.006	-0.061
-408.325	800.000	-0.076	-0.215
-407.311	505.715	-0.032	0.074
-406.296	800.000	-0.130	-0.384
-405.282	454.652	0.162	-0.358
-404.267	-200.000	0.066	0.374
-403.252	-47.242	-0.436	0.212
-402.238	-200.000	-0.062	-0.400
-401.223	-106.138	-0.107	0.024
-400.209	86.267	0.213	-0.234
-399.194	57.870	0.321	0.313
-398.179	12.489	-0.222	-0.171
-397.165	-17.542	-0.139	-0.087
-396.150	85.917	-0.112	0.123
-395.136	800.000	-0.132	0.448
-394.121	164.099	0.104	-0.145
-393.106	-62.656	-0.175	-0.072
-392.092	151.322	0.116	0.157
-391.077	-55.058	-0.120	0.054
-390.063	-200.000	-0.019	-0.191
-389.048	-200.000	0.003	-0.093
-388.033	135.508	0.148	0.192
-387.019	21.572	0.206	0.167
-386.004	148.419	-0.116	-0.156
-384.990	-164.780	0.117	0.005
-383.975	-200.000	-0.033	0.327
-382.960	800.000	0.096	0.323
-381.946	-92.340	0.310	-0.087
-380.931	431.844	0.099	-0.213
-379.917	-200.000	0.072	-0.000
-378.902	-1.519	-0.276	-0.194
-377.888	-65.507	-0.175	0.070
-376.873	-62.471	0.239	-0.099
-375.858	278.549	-0.055	0.098
-374.844	-99.721	-0.055	-0.014
-373.829	800.000	0.089	-0.306
-372.815	54.418	0.054	-0.052
-371.800	-168.878	-0.243	-0.009
-370.785	26.109	0.356	0.296
-369.771	-53.510	-0.176	-0.080
-368.756	45.590	0.134	-0.123
-367.742	-200.000	0.031	0.138
-366.727	-22.291	-0.227	0.137
-365.712	138.102	0.086	-0.113
-364.698	-200.000	0.000	-0.036
-363.683	-200.000	-0.008	0.265
-362.669	392.944	-0.068	0.140
-361.654	-100.192	-0.217	-0.054
-360.639	-83.259	0.072	0.023
-359.625	192.505	-0.051	-0.076
-358.610	461.612	0.068	-0.151
-357.596	218.157	0.060	0.095
-356.581	800.000	-0.043	-0.174
-355.566	105.752	0.149	0.175
-354.552	-8.540	-0.056	-0.037
-353.537	-104.435	0.283	-0.065
-352.523	-152.484	0.208	-0.015
-351.508	-200.000	0.011	0.075
-350.493	-200.000	0.039	0.305
-349.479	-200.000	-0.007	0.035
-348.464	-85.131	-0.198	0.062
-347.450	-27.475	0.112	0.065
-346.435	-63.398	0.272	0.111
-345.420	-27.624	-0.151	-0.087
-344.406	-200.000	0.054	0.295
-343.391	800.000	0.087	-0.320
-342.377	-200.000	-0.009	-0.149
-341.362	-157.679	-0.066	-0.004
-340.348	-194.043	0.357	-0.003
-339.333	-200.000	-0.046	0.302
-338.318	108.040	0.304	0.361
-337.304	-68.019	0.100	0.039
-336.289	-200.000	0.024	-0.119
-335.275	83.451	0.055	0.059
-334.260	-25.964	-0.255	-0.149
-333.245	800.000	-0.048	0.187
-332.231	-200.000	0.040	0.442
-331.216	-8.088	0.189	0.127
-330.202	96.111	0.175	0.198
-329.187	186.321	-0.085	0.125
-328.172	382.761	-0.122	-0.250
-327.158	-200.000	0.003	0.020
-326.143	-18.369	0.030	0.019
-325.129	800.000	-0.035	-0.137
-324.114	-200.000	0.009	0.236
-323.099	800.000	0.193	0.665
-322.085	155.464	-0.136	0.186
-321.070	3.115	-0.246	0.178
-320.056	-70.320	0.254	0.096
-319.041	-0.451	-0.172	0.121
-318.026	92.479	-0.218	-0.244
-317.012	260.187	-0.077	0.133
-315.997	381.812	-0.096	0.196
-314.983	43.366	-0.197	-0.178
-313.968	-86.385	-0.154	-0.047
-312.953	164.736	-0.067	0.094
-311.939	-200.000	0.017	0.091
-310.924	95.625	0.124	0.140
-309.910	302.880	-0.052	0.095
-308.895	572.526	-0.145	-0.350
-307.880	-29.521	0.144	0.082
-306.866	-122.036	-0.198	-0.032
-305.851	291.220	0.134	0.241
-304.837	-67.402	0.224	0.087
-303.822	-200.000	0.038	-0.178
-302.807	9.537	-0.037	0.028
-301.793	785.197	-0.105	0.287
-300.778	96.032	0.179	0.203
-299.764	800.000	0.025	-0.070
-298.749	-181.718	-0.328	-0.006
-297.735	91.427	0.142	-0.159
-296.720	177.164	-0.052	-0.075
-295.705	148.196	-0.201	-0.269
-294.691	-200.000	-0.006	-0.152
-293.676	-138.292	0.113	0.012
-292.662	292.985	0.057	0.103
-291.647	457.091	0.118	-0.261
-290.632	256.121	0.154	-0.261
-289.618	-169.599	-0.219	0.008
-288.603	-159.015	0.134	0.008
-287.589	347.373	0.070	-0.137
-286.574	800.000	-0.094	-0.347
-285.559	-85.980	0.179	-0.055
-284.545	-91.164	-0.231	0.066
-283.530	-79.961	-0.092	-0.031
-282.516	-200.000	-0.047	-0.239
-281.501	280.942	0.094	-0.167
-280.486	800.000	0.048	0.207
-279.472	-80.387	0.274	-0.091
-278.457	-200.000	0.038	0.190
-277.443	132.927	-0.361	-0.462
-276.428	12.041	0.108	0.082
-275.413	219.279	0.086	-0.137
-274.399	-70.890	0.167	-0.062
-273.384	-186.241	0.389	-0.006
-272.370	36.507	-0.304	0.266
-271.355	41.408	-0.184	-0.165
-270.340	-74.011	0.371	0.133
-269.326	47.544	0.033	0.030
-268.311	-200.000	0.012	-0.107
-267.297	14.696	-0.189	-0.146
-266.282	5.235	0.202	0.147
-265.267	800.000	0.073	0.241
-264.253	315.321	-0.090	0.169
-263.238	9.486	-0.135	-0.101
-262.224	800.000	-0.020	0.067
-261.209	219.254	0.094	-0.150
-260.195	-92.790	-0.181	0.050
-259.180	-200.000	0.054	-0.419
-258.165	-153.283	-0.219	0.015
-257.151	202.031	-0.183	0.280
-256.136	-15.166	-0.359	0.228
-255.122	29.708	-0.180	-0.152
-254.107	-200.000	-0.003	0.093
-253.092	-149.755	-0.209	-0.016
-252.078	71.574	-0.144	-0.148
-251.063	-127.757	-0.193	0.028
-250.049	16.975	0.259	0.203
-249.034	48.053	0.048	-0.045
-248.019	-125.609	-0.225	0.034
-247.005	-100.630	-0.100	0.024
-245.990	-79.851	0.146	0.049
-244.976	-89.677	0.164	0.048
-243.961	-42.234	0.269	-0.136
-242.946	-50.709	0.132	0.062
-241.932	-121.502	0.115	-0.019
-240.917	152.527	0.133	0.179
-239.903	800.000	0.078	-0.249
-238.888	-150.941	0.468	-0.035
-237.873	193.881	-0.014	-0.021
-236.859	-200.000	0.006	0.152
-235.844	762.119	-0.087	-0.233
-234.830	82.444	-0.139	0.149
-233.815	-9.715	0.061	-0.040
-232.800	-85.403	-0.149	-0.046
-231.786	361.909	0.016	-0.032
-230.771	43.312	-0.247	-0.223
-229.757	-200.000	-0.006	-0.035
-228.742	-126.941	0.186	0.027
-227.727	-120.187	0.320	0.054
-226.713	-52.305	-0.191	0.088
-225.698	-200.000	0.053	-0.438
-224.684	294.657	-0.113	-0.204
-223.669	9.605	0.161	-0.120
-222.655	110.577	-0.217	0.258
-221.640	-147.530	-0.130	-0.011
-220.625	800.000	0.074	-0.205
-219.611	43.826	-0.105	0.095
-218.596	-5.692	-0.281	0.190
-217.582	-200.000	0.025	-0.216
-216.567	-43.230	0.320	-0.160
-215.552	80.919	0.198	0.212
-214.538	-196.148	0.134	0.001
-213.523	-156.663	0.156	-0.010
-212.509	-21.463	0.201	-0.121
-211.494	-200.000	-0.005	-0.300
-210.479	12.407	-0.164	-0.125
-209.465	-73.321	0.062	-0.022
-208.450	-75.082	0.475	-0.168
-207.436	-200.000	0.031	0.173
-206.421	464.226	0.132	-0.292
-205.406	-200.000	-0.074	-0.404
-204.392	-200.000	0.006	0.032
-203.377	140.556	0.068	-0.089
-202.363	-200.000	0.041	-0.463
-201.348	800.000	0.033	0.116
-200.333	800.000	-0.121	0.453
-199.319	-97.902	0.280	0.071
-198.304	-34.148	-0.229	0.124
-197.290	72.388	-0.162	-0.167
-196.275	85.951	0.072	0.078
-195.260	-200.000	0.022	0.321
-194.246	215.617	0.145	-0.227
-193.231	-33.435	0.257	-0.140
-192.217	104.247	-0.224	-0.260
-191.202	437.837	0.051	-0.111
-190.187	-125.028	-0.136	0.021
-189.173	-200.000	0.042	-0.388
-188.158	-200.000	-0.039	-0.184
-187.144	0.053	-0.070	0.049
-186.129	565.601	-0.101	-0.243
-185.114	639.368	-0.058	-0.146
-184.100	-200.000	-0.006	-0.028
-183.085	-200.000	0.012	0.228
-182.071	800.000	-0.016	-0.050
-181.056	-140.619	-0.250	-0.026
-180.042	-200.000	0.002	0.063
-179.027	800.000	-0.053	0.202
-178.012	-52.151	0.091	-0.042
-176.998	-108.155	-0.225	-0.048
-175.983	800.000	-0.025	0.106
-174.969	-110.967	-0.116	0.024
-173.954	-64.336	-0.203	0.082
-172.939	100.862	-0.144	0.165
-171.925	800.000	-0.144	0.401
-170.910	44.738	-0.172	-0.156
-169.896	-164.018	-0.274	-0.013
-168.881	-70.524	-0.132	-0.049
-167.866	-119.936	-0.208	0.035
-166.852	357.669	0.232	0.457
-165.837	800.000	0.064	0.234
-164.823	-200.000	0.009	0.068
-163.808	-117.066	-0.126	0.023
-162.793	66.087	-0.071	-0.071
-161.779	-141.891	-0.234	0.023
-160.764	38.657	-0.226	-0.199
-159.750	-69.072	0.033	0.012
-158.735	-104.133	0.252	-0.058
-157.720	-200.000	0.052	0.707
-156.706	241.837	-0.109	0.180
-155.691	797.083	0.042	0.115
-154.677	800.000	-0.120	-0.370
-153.662	-104.795	-0.129	-0.029
-152.647	-200.000	0.086	0.499
-151.633	800.000	0.119	0.464
-150.618	-200.000	0.017	-0.233
-149.604	-200.000	-0.054	-0.234
-148.589	-200.000	0.039	0.210
-147.574	128.116	0.172	0.216
-146.560	236.985	-0.084	0.138
-145.545	-200.000	0.060	0.320
-144.531	-144.780	0.213	-0.019
-143.516	-200.000	0.023	-0.171
-142.502	584.935	-0.023	0.057
-141.487	162.559	-0.035	0.048
-140.472	432.506	-0.056	0.121
-139.458	80.799	0.145	-0.154
-138.443	95.148	0.142	0.159
-137.429	451.016	-0.106	-0.232
-136.414	-200.000	-0.094	0.000
-135.399	800.000	0.079	-0.286
-134.385	736.634	0.097	-0.255
-133.370	287.119	-0.189	-0.337
-132.356	-94.993	0.156	-0.042
-131.341	-200.000	0.019	0.189
-130.326	610.051	-0.079	-0.195
-129.312	344.396	0.192	-0.372
-128.297	-160.423	-0.263	0.014
-127.283	692.132	0.081	-0.210
-126.268	800.000	-0.043	0.126
-125.253	800.000	0.078	-0.317
-124.239	-200.000	-0.012	-0.067
-123.224	293.344	-0.126	-0.227
-122.210	-39.452	0.159	0.082
-121.195	-146.886	0.464	0.039
-120.180	-128.006	0.185	-0.026
-119.166	202.560	-0.180	0.273
-118.151	-17.370	0.076	-0.047
-117.137	-200.000	0.028	0.178
-116.122	513.916	0.030	-0.068
-115.107	-25.630	-0.270	-0.157
-114.093	357.784	0.102	-0.200
-113.078	36.983	0.150	0.130
-112.064	-83.356	-0.139	-0.044
-111.049	47.637	-0.051	-0.047
-110.034	800.000	0.089	0.309
-109.020	-178.581	-0.234	-0.005
-108.005	75.728	-0.225	0.234
-106.991	456.115	0.072	0.158
-105.976	507.000	-0.094	0.216
-104.962	1.716	0.149	-0.105
-103.947	-176.320	-0.207	0.005
-102.932	-200.000	-0.023	-0.325
-101.918	11.054	-0.118	-0.089
-100.903	47.878	0.282	-0.260
-99.889	-34.804	0.161	-0.087
-98.874	-28.026	0.224	-0.128
-97.859	-200.000	0.024	-0.108
-96.845	-170.310	-0.280	0.010
-95.830	-64.531	0.169	-0.067
-94.816	-50.571	-0.287	-0.133
-93.801	-200.000	0.094	0.484
-92.786	10.521	0.035	0.027
-91.772	124.644	-0.164	0.203
-90.757	122.131	0.108	-0.133
-89.743	-112.743	0.062	-0.012
-88.728	-200.000	-0.058	-0.253
-87.713	-39.107	0.376	-0.195
-86.699	800.000	-0.025	0.083
-85.684	-112.180	0.179	0.035
-84.670	579.779	0.063	-0.151
-83.655	-131.384	-0.307	0.040
-82.640	452.093	-0.064	-0.138
-81.626	-105.368	-0.157	0.035
-80.611	-76.789	-0.363	0.125
-79.597	74.456	0.174	-0.180
-78.582	800.000	-0.015	-0.060
-77.567	120.351	-0.107	-0.130
-76.553	675.797	0.025	0.064
-75.538	-48.686	0.269	-0.127
-74.524	-85.754	-0.193	0.059
-73.509	-76.313	-0.132	0.046
-72.494	-33.003	-0.035	-0.019
-71.480	-64.624	0.127	-0.051
-70.465	-200.000	0.039	0.207
-69.451	-23.279	0.086	-0.051
-68.436	-33.116	0.544	-0.297
-67.422	-51.860	0.103	0.047
-66.407	-106.142	0.418	-0.092
-65.392	-101.560	0.273	-0.065
-64.378	327.457	-0.108	-0.203
-63.363	140.289	-0.146	-0.190
-62.349	518.028	-0.085	0.196
-61.334	364.101	-0.626	-1.237
-60.319	-61.336	0.624	0.258
-59.305	800.000	-0.331	-1.081
-58.290	310.480	0.598	1.101
-57.276	800.000	0.522	1.665
-56.261	-200.000	100.111	585.734
-55.246	510.070	1409.348	3220.318
-54.232	157.757	2579.600	3511.136
-53.217	111.343	2137.199	2531.351
-52.203	42.904	1591.775	1425.610
-51.188	34.690	1328.834	1141.245
-50.173	31.452	1287.460	1086.881
-49.159	54.369	1337.144	1265.069
-48.144	56.435	1354.031	1293.222
-47.130	34.784	1311.626	1126.840
-46.115	31.282	1293.482	1090.802
-45.100	31.001	1288.821	1085.189
-44.086	31.020	1286.639	1083.424
-43.071	31.057	1283.838	1081.234
-42.057	30.947	1282.253	1079.219
-41.042	30.917	1280.428	1077.466
-40.027	31.015	1278.963	1076.757
-39.013	30.998	1277.181	1075.116
-37.998	31.085	1275.226	1073.931
-36.984	31.147	1273.679	1072.939
-35.969	31.183	1271.943	1071.641
-34.954	31.179	1269.799	1069.770
-33.940	31.283	1268.502	1069.231
-32.925	31.154	1267.518	1067.623
-31.911	31.158	1266.033	1066.350
-30.896	31.202	1264.280	1065.082
-29.881	31.318	1262.950	1064.581
-28.867	31.278	1261.622	1063.191
-27.852	31.152	1260.428	1061.429
-26.838	31.291	1258.688	1060.710
-25.823	31.243	1257.389	1059.302
-24.809	31.154	1256.320	1057.851
-23.794	31.197	1254.650	1056.648
-22.779	31.216	1253.134	1055.436
-21.765	31.213	1252.199	1054.593
-20.750	31.206	1250.691	1053.239
-19.736	31.116	1249.508	1051.694
-18.721	31.099	1248.243	1050.491
-17.706	31.128	1247.380	1049.889
-16.692	31.006	1246.585	1048.491
-15.677	31.045	1245.057	1047.384
-14.663	31.018	1244.106	1046.389
-13.648	31.080	1242.723	1045.532
-12.633	31.053	1241.718	1044.496
-11.619	31.138	1240.876	1044.218
-10.604	30.997	1240.733	1043.272
-9.590	31.095	1239.259	1042.538
-8.575	31.091	1238.271	1041.640
-7.560	30.984	1237.483	1040.338
-6.546	30.980	1236.688	1039.610
-5.531	30.997	1236.173	1039.228
-4.517	31.140	1234.624	1038.682
-3.502	31.077	1233.886	1037.667
-2.487	31.059	1233.172	1036.929
-1.473	31.100	1228.540	1033.220
-0.458	29.463	1214.560	1012.449
0.556	24.106	1196.813	974.393
1.571	20.313	1201.784	957.469
2.586	19.213	1216.084	962.635
3.600	18.840	1205.035	951.735
4.615	13.777	1133.485	868.704
5.629	4.803	1058.202	766.897
6.644	0.425	1038.513	731.362
7.659	0.041	1036.092	727.739
8.673	-0.043	1034.920	726.446
9.688	-0.162	1033.789	725.010
10.702	0.095	1032.249	725.107
11.717	5.378	1038.516	755.008
12.731	14.085	1049.661	805.384
13.746	17.622	1053.375	825.324
14.761	17.117	1051.972	821.710
15.775	16.006	1050.215	814.892
16.790	14.910	1047.701	807.579
17.804	14.260	1046.465	803.417
18.819	13.809	1045.661	800.553
19.834	13.684	1044.621	799.089
20.848	13.428	1043.332	796.795
21.863	13.211	1042.529	795.070
22.877	12.985	1042.196	793.658
23.892	12.905	1041.377	792.578
24.907	12.991	1040.661	792.378
25.921	13.049	1039.749	791.892
26.936	13.123	1038.875	791.510
27.950	13.169	1037.689	790.757
28.965	13.222	1036.942	790.374
29.980	13.337	1035.852	790.020
30.994	13.405	1034.494	789.237
32.009	13.358	1033.841	788.446
33.023	13.214	1033.193	787.195
34.038	13.410	1032.194	787.297
35.053	13.243	1030.791	785.365
36.067	13.138	1030.365	784.472
37.082	13.143	1029.370	783.669
38.096	13.230	1028.671	783.482
39.111	13.236	1028.076	782.987
40.126	13.108	1027.151	781.609
41.140	13.018	1025.749	780.045
42.155	12.911	1025.311	779.138
43.169	13.090	1023.740	778.719
44.184	13.081	1022.521	777.681
45.199	13.031	1021.748	776.791
46.213	12.999	1020.820	775.866
47.228	13.120	1020.010	775.751
48.242	13.079	1018.886	774.631
49.257	13.172	1017.774	774.155
50.271	13.265	1016.332	773.426
51.286	13.207	1015.722	772.623
52.301	13.150	1015.247	771.926
53.315	13.164	1013.921	770.915
54.330	13.035	1013.294	769.769
55.344	13.116	1012.320	769.338
56.359	13.049	1011.317	768.194
57.374	13.031	1010.687	767.565
58.388	12.970	1009.585	766.376
59.403	12.920	1009.069	765.683
60.417	13.051	1007.720	765.199
61.432	12.956	1007.419	764.462
62.447	12.866	1006.906	763.590
63.461	12.910	1006.013	763.048
64.476	12.908	1004.885	762.117
65.490	12.887	1004.323	761.528
66.505	13.082	1003.569	761.789
67.520	12.982	1002.942	760.783
68.534	13.030	1002.225	760.393
69.549	13.053	1001.228	759.673
70.563	12.852	1000.839	758.386
71.578	12.894	999.858	757.770
72.593	12.911	999.128	757.226
73.607	12.878	998.301	756.383
74.622	12.941	998.196	756.525
75.636	12.894	997.200	755.489
76.651	12.938	996.329	754.961
77.666	12.852	996.245	754.436
78.680	12.961	995.655	754.423
79.695	12.917	994.523	753.297
80.709	12.926	994.429	753.200
81.724	13.051	993.515	753.013
82.739	13.163	992.528	752.707
83.753	13.082	992.020	751.888
84.768	13.292	990.872	751.907
85.782	13.284	990.164	751.265
86.797	13.189	989.558	750.308
87.812	13.074	988.315	748.776
88.826	13.184	987.144	748.321
89.841	13.128	986.636	747.617
90.855	13.361	985.138	747.471
91.870	13.234	985.154	746.844
92.884	13.363	983.694	746.252
93.899	13.320	983.224	745.632
94.914	13.209	982.542	744.552
95.928	13.357	981.231	744.157
96.943	13.224	980.402	742.866
97.957	13.357	979.500	742.711
98.972	13.228	978.948	741.648
99.987	13.190	978.555	741.117
101.001	13.188	977.480	740.227
102.016	13.185	976.553	739.447
103.030	13.220	975.887	739.032
104.045	13.417	974.553	738.836
105.060	13.298	974.120	737.911
106.074	13.203	973.295	736.797
107.089	12.928	972.375	734.813
108.103	13.178	971.221	734.986
109.118	13.012	970.594	733.711
110.133	12.949	969.728	732.711
111.147	13.069	968.438	732.205
112.162	13.150	967.848	732.050
113.176	13.179	967.271	731.681
114.191	13.232	966.402	731.193
115.206	13.076	965.856	730.022
116.220	13.102	965.054	729.466
117.235	13.138	963.781	728.599
118.249	12.954	963.544	727.544
119.264	13.152	962.375	727.468
120.279	13.173	961.285	726.675
121.293	13.120	960.689	725.925
122.308	13.144	960.046	725.481
123.322	13.064	959.044	724.309
124.337	13.011	958.129	723.322
125.352	13.085	957.127	722.823
126.366	12.969	956.572	721.835
127.381	13.144	955.019	721.362
128.395	13.050	954.508	720.501
129.410	13.168	953.314	720.053
130.424	13.251	952.531	719.757
131.439	13.092	951.993	718.596
132.454	13.248	951.467	718.815
133.468	13.288	949.931	717.762
134.483	13.241	949.323	717.035
135.497	13.204	948.727	716.364
136.512	13.213	948.184	715.928
137.527	13.353	947.007	715.582
138.541	13.237	946.550	714.672
139.556	13.238	945.701	713.973
140.570	13.304	945.094	713.737
141.585	13.418	943.976	713.319
142.600	13.292	943.644	712.465
143.614	13.366	942.461	711.824
144.629	13.406	941.531	711.231
145.643	13.480	941.127	711.182
146.658	13.358	940.134	709.844
147.673	13.228	939.061	708.413
148.687	13.231	938.276	707.775
149.702	13.329	937.229	707.338
150.716	13.305	936.678	706.756
151.731	13.257	936.177	706.113
152.746	13.265	935.479	705.560
153.760	13.245	935.127	705.144
154.775	13.335	934.291	704.835
155.789	13.359	933.915	704.593
156.804	13.340	933.077	703.817
157.819	13.517	931.857	703.585
158.833	13.623	931.501	703.703
159.848	13.509	930.668	702.528
160.862	13.505	929.616	701.656
161.877	13.470	928.687	700.744
162.892	13.397	927.916	699.795
163.906	13.393	927.056	699.066
164.921	13.252	926.678	698.124
165.935	13.538	925.521	698.397
166.950	13.453	924.587	697.270
167.964	13.562	923.695	696.993
168.979	13.405	922.936	695.699
169.994	13.502	921.502	694.968
171.008	13.466	921.494	694.747
172.023	13.515	921.087	694.586
173.037	13.586	920.051	694.040
174.052	13.656	919.147	693.586
175.067	13.578	918.739	692.892
176.081	13.537	918.097	692.176
177.096	13.605	917.287	691.789
178.110	13.667	916.900	691.692
179.125	13.463	916.319	690.343
180.140	13.610	915.816	690.514
181.154	13.550	915.585	690.030
182.169	13.737	914.827	690.178
183.183	13.686	914.266	689.482
184.198	13.825	912.893	688.963
185.213	13.697	912.676	688.205
186.227	13.902	911.804	688.338
187.242	13.821	911.611	687.795
188.256	13.798	910.876	687.083
189.271	13.786	910.041	686.344
190.286	13.765	909.100	685.485
191.300	13.603	908.569	684.357
192.315	13.617	907.743	683.732
193.329	13.653	907.463	683.607
194.344	13.571	906.895	682.784
195.359	13.707	906.379	682.895
196.373	13.747	905.846	682.596
197.388	13.863	905.338	682.631
198.402	13.893	904.889	682.355
199.417	13.917	904.033	681.746
200.432	14.092	903.080	681.686
201.446	14.041	903.235	681.531
202.461	14.109	902.570	681.248
203.475	14.003	901.895	680.245
204.490	13.896	901.676	679.581
205.504	14.035	900.733	679.380
206.519	13.984	899.427	678.125
207.534	13.916	899.411	677.777
208.548	13.907	898.440	676.947
209.563	14.116	897.579	677.091
210.577	14.089	896.826	676.352
211.592	14.128	896.313	676.066
212.607	14.253	895.502	675.901
213.621	14.118	894.816	674.777
214.636	14.044	894.346	674.063
215.650	14.206	893.209	673.800
216.665	14.313	892.620	673.728
217.680	14.245	892.122	673.020
218.694	14.182	891.530	672.258
219.709	14.173	891.242	671.947
220.723	14.286	890.155	671.521
221.738	14.278	889.416	670.872
222.753	14.206	889.354	670.475
223.767	14.214	888.895	670.102
224.782	14.344	887.826	669.762
225.796	14.322	887.464	669.340
226.811	14.295	886.947	668.782
227.826	14.352	886.081	668.299
228.840	14.273	885.508	667.491
229.855	14.330	884.572	666.954
230.869	14.341	883.767	666.332
231.884	14.292	883.134	665.600
232.899	14.428	882.212	665.390
233.913	14.295	881.638	664.368
234.928	14.224	881.082	663.608
235.942	14.238	881.078	663.602
236.957	14.363	879.987	663.218
237.972	14.358	879.322	662.639
238.986	14.412	878.747	662.362
240.001	14.415	878.045	661.787
241.015	14.436	877.492	661.394
242.030	14.487	876.876	661.072
243.045	14.486	876.404	660.654
244.059	14.513	875.871	660.302
245.074	14.495	875.425	659.834
246.088	14.541	874.373	659.166
247.103	14.568	873.917	658.870
248.117	14.615	873.160	658.426
249.132	14.583	872.832	657.994
250.147	14.565	873.108	658.076
251.161	14.658	872.036	657.573
252.176	14.764	871.042	657.182
253.190	14.823	870.094	656.644
254.205	14.846	869.520	656.241
255.220	14.979	869.070	656.364
256.234	14.866	868.287	655.273
257.249	14.805	867.739	654.564
258.263	14.909	867.047	654.389
259.278	14.870	866.400	653.690
260.293	14.866	865.808	653.171
261.307	15.023	865.162	653.238
262.322	14.883	864.821	652.377
263.336	14.991	863.622	651.836
264.351	14.999	863.213	651.501
265.366	15.119	862.620	651.462
266.380	14.947	862.220	650.432
267.395	14.980	861.601	650.037
268.409	15.015	860.994	649.658
269.424	14.924	859.693	648.266
270.439	15.098	859.050	648.396
271.453	15.033	858.618	647.764
272.468	14.948	858.171	647.038
273.482	15.182	857.172	647.135
274.497	15.124	856.855	646.614
275.512	15.096	856.348	646.066
276.526	15.218	855.753	646.026
277.541	15.137	855.646	645.578
278.555	15.180	855.132	645.300
279.570	15.310	853.714	644.673
280.585	15.265	853.474	644.259
281.599	15.249	852.755	643.600
282.614	15.156	852.454	642.957
283.628	15.168	851.756	642.419
284.643	15.265	851.165	642.290
285.657	15.150	850.530	641.314
286.672	15.296	850.096	641.490
287.687	15.196	849.161	640.342
288.701	15.353	848.340	640.267
289.716	15.349	848.038	639.967
290.730	15.243	847.712	639.261
291.745	15.364	846.990	639.120
292.760	15.440	846.421	638.925
293.774	15.480	846.016	638.712
294.789	15.500	845.113	638.050
295.803	15.402	844.180	636.918
296.818	15.454	843.589	636.614
297.833	15.269	843.694	635.935
298.847	15.488	842.413	635.742
299.862	15.462	842.026	635.297
300.876	15.334	841.598	634.431
301.891	15.535	841.015	634.698
302.906	15.563	840.587	634.421
303.920	15.627	840.112	634.251
304.935	15.684	839.618	634.037
305.949	15.648	838.659	633.121
306.964	15.625	838.124	632.573
307.979	15.730	837.494	632.437
308.993	15.799	836.691	632.033
310.008	15.770	836.093	631.416
311.022	15.650	836.255	631.035
312.037	15.836	835.297	630.951
313.052	15.686	834.471	629.709
314.066	15.723	834.030	629.462
315.081	15.589	833.992	628.876
316.095	15.651	833.217	628.465
317.110	15.623	832.457	627.734
318.125	15.655	832.308	627.683
319.139	15.599	831.939	627.142
320.154	15.758	831.152	627.086
321.168	15.697	830.684	626.452
322.183	15.791	830.012	626.239
323.197	15.767	829.860	625.977
324.212	15.874	829.095	625.743
325.227	15.798	828.532	624.981
326.241	15.798	828.199	624.676
327.256	15.655	827.639	623.668
328.270	15.748	826.987	623.465
329.285	15.802	826.523	623.260
330.300	15.992	825.216	622.922
331.314	15.882	825.275	622.503
332.329	16.022	824.722	622.551
333.343	15.853	824.336	621.580
334.358	16.002	823.725	621.611
335.373	16.038	823.179	621.281
336.387	16.093	822.971	621.269
337.402	16.010	822.957	620.897
338.416	16.057	822.686	620.811
339.431	16.110	822.106	620.512
340.446	16.158	821.887	620.469
341.460	16.014	821.501	619.594
342.475	16.132	821.004	619.598
343.489	16.110	820.548	619.119
344.504	16.234	820.120	619.195
345.519	16.232	819.645	618.775
346.533	16.282	819.217	618.579
347.548	16.270	818.527	617.960
348.562	16.312	818.076	617.721
349.577	16.238	817.409	616.891
350.592	16.280	816.741	616.484
351.606	16.094	816.477	615.551
352.621	16.265	815.689	615.527
353.635	16.207	815.102	614.818
354.650	16.261	814.247	614.314
355.665	16.343	813.867	614.271
356.679	16.310	812.778	613.278
357.694	16.334	812.495	613.095
358.708	16.281	811.959	612.446
359.723	16.369	811.084	612.049
360.738	16.362	810.807	611.761
361.752	16.390	810.183	611.338
362.767	16.426	809.539	610.927
363.781	16.314	809.655	610.558
364.796	16.487	808.922	610.576
365.810	16.514	808.419	610.237
366.825	16.471	808.179	609.847
367.840	16.526	807.723	609.650
368.854	16.583	807.207	609.411
369.869	16.499	806.623	608.613
370.883	16.613	806.342	608.756
371.898	16.671	806.048	608.688
372.913	16.632	805.655	608.200
373.927	16.545	805.134	607.440
374.942	16.708	804.235	607.293
375.956	16.780	803.855	607.211
376.971	16.779	803.499	606.884
377.986	16.869	802.827	606.644
379.000	16.929	802.416	606.494
380.015	16.730	802.396	605.713
381.029	16.965	801.278	605.655
382.044	16.822	801.215	605.046
383.059	16.755	800.739	604.391
384.073	16.899	799.627	604.013
385.088	16.855	798.941	603.283
386.102	16.858	798.632	603.008
387.117	16.745	798.188	602.218
388.132	16.730	797.640	601.698
389.146	16.886	797.405	602.021
390.161	17.019	796.590	601.824
391.175	16.938	796.319	601.281
392.190	17.023	795.683	601.046
393.205	16.852	795.334	600.124
394.219	16.777	795.246	599.739
395.234	16.712	794.729	599.068
396.248	16.790	794.149	598.853
397.263	16.772	794.175	598.757
398.278	16.774	793.450	598.162
399.292	16.854	792.915	597.987
400.307	16.819	792.676	597.633
401.321	16.935	791.952	597.441
402.336	16.991	791.461	597.216
403.350	17.115	790.833	597.125
404.365	17.135	790.383	596.803
405.380	17.082	790.253	596.466
406.394	17.025	789.671	595.772
407.409	17.196	789.066	595.863
408.423	17.183	788.970	595.695
409.438	17.158	789.035	595.603
410.453	17.341	788.329	595.658
411.467	17.251	787.849	594.927
412.482	17.227	787.712	594.686
413.496	17.293	787.324	594.573
414.511	17.348	787.018	594.479
415.526	17.496	786.070	594.230
416.540	17.264	785.667	593.061
417.555	17.253	785.316	592.705
418.569	17.400	785.015	592.941
419.584	17.481	784.291	592.621
420.599	17.444	784.227	592.393
421.613	108.474	1289.082	1463.211
422.628	92.891	1362.625	1463.268
