DTS Sentinel unit serial number:	SN413079Multiplexer serial number:	ORYXHardware model number:	OX4-SRSoftware version number:	ORYX F/W v4.00 Oryx Data Collector v3.7.2.0data status	okinstallation	princeton_trtdifferential loss correction	single-endedforward channel	channel 1reverse channel	N/Adate	2019/09/12time	08:12:11forward acquisition time	60.00reverse acquisition time	0.00gamma	496.2192k internal	0.2313k external	0.2313temperature offset calibration	1.0043default loss term (dB/km)	0.3790temperature slope calibration	1.0000multiplexer offset coefficient	1.0000multiplexer slope coefficient	1.0000fibre end	0.00T internal ref (°C)	33.28T ext. ref 1 (°C)	1.68T ext. ref 2 (°C)	29.98length (m)	temperature (°C)	Stokes	anti-Stokes-747.200	800.000	0.052	0.221
-746.185	800.000	-0.100	0.347
-745.171	-120.487	-0.144	0.025
-744.156	-150.213	-0.553	0.043
-743.142	-155.792	0.229	-0.015
-742.127	-156.980	-0.259	-0.016
-741.112	23.581	0.132	0.110
-740.098	-139.858	-0.455	0.049
-739.083	-67.197	0.137	0.055
-738.069	-200.000	-0.042	0.403
-737.054	800.000	0.024	-0.070
-736.039	-121.068	-0.144	-0.025
-735.025	107.512	0.130	0.157
-734.010	174.890	-0.193	0.283
-732.996	3.862	0.108	-0.080
-731.981	800.000	0.127	-0.481
-730.966	-200.000	-0.023	-0.182
-729.952	20.766	-0.240	-0.197
-728.937	800.000	-0.076	-0.297
-727.923	-200.000	0.030	0.136
-726.908	-108.341	-0.160	-0.035
-725.894	750.588	-0.064	-0.175
-724.879	-118.489	-0.309	-0.055
-723.864	-169.326	-0.363	-0.014
-722.850	-18.533	-0.176	0.111
-721.835	-200.000	-0.069	-0.524
-720.821	-200.000	0.045	-0.331
-719.806	800.000	-0.073	-0.300
-718.791	-122.168	-0.114	-0.019
-717.777	199.927	-0.095	-0.147
-716.762	-140.545	0.339	-0.036
-715.748	73.472	-0.133	-0.141
-714.733	-82.782	0.245	-0.080
-713.718	-200.000	-0.031	-0.152
-712.704	-57.006	-0.191	-0.085
-711.689	-200.000	0.008	-0.279
-710.675	-78.600	0.202	-0.070
-709.660	-200.000	-0.084	-0.438
-708.645	-23.249	0.097	0.059
-707.631	-138.218	-0.138	-0.015
-706.616	-200.000	0.060	-0.324
-705.602	-66.354	0.183	0.074
-704.587	-175.978	-0.388	0.010
-703.572	-143.686	-0.172	-0.017
-702.558	166.947	-0.158	0.228
-701.543	-142.990	0.185	-0.018
-700.529	-200.000	-0.011	0.123
-699.514	369.496	0.025	-0.051
-698.499	-67.621	0.257	-0.102
-697.485	800.000	-0.119	0.373
-696.470	-118.908	-0.553	-0.098
-695.456	-104.041	-0.237	-0.056
-694.441	-200.000	-0.014	0.210
-693.426	162.197	-0.131	-0.186
-692.412	-49.182	-0.170	0.082
-691.397	303.656	-0.097	0.183
-690.383	583.098	-0.068	-0.168
-689.368	-178.920	0.110	0.003
-688.354	-5.978	0.324	-0.224
-687.339	41.392	-0.012	-0.011
-686.324	800.000	0.072	0.203
-685.310	-200.000	-0.010	0.363
-684.295	-200.000	0.006	-0.206
-683.281	307.788	0.099	0.186
-682.266	800.000	0.091	-0.352
-681.251	318.277	0.065	0.125
-680.237	800.000	0.083	-0.298
-679.222	-200.000	0.042	-0.320
-678.208	186.714	0.155	0.233
-677.193	-200.000	-0.036	-0.324
-676.178	-200.000	-0.032	-0.187
-675.164	10.299	-0.112	0.086
-674.149	-119.802	-0.210	0.037
-673.135	-40.950	-0.056	-0.029
-672.120	-102.418	-0.129	0.031
-671.105	800.000	0.082	0.238
-670.091	-161.633	0.137	-0.007
-669.076	800.000	0.056	0.184
-668.062	-184.280	-0.126	0.002
-667.047	800.000	0.066	-0.288
-666.032	195.615	0.126	0.193
-665.018	-200.000	-0.001	0.150
-664.003	551.753	0.019	-0.047
-662.989	51.864	0.125	-0.121
-661.974	-21.942	-0.116	0.071
-660.959	422.085	0.014	-0.031
-659.945	-82.325	-0.230	-0.076
-658.930	-60.020	-0.061	0.026
-657.916	87.103	0.139	0.155
-656.901	-200.000	-0.000	0.235
-655.886	800.000	-0.153	-0.509
-654.872	9.075	-0.336	-0.257
-653.857	55.492	-0.141	-0.138
-652.843	-200.000	-0.003	-0.068
-651.828	9.299	0.118	0.090
-650.814	-75.606	-0.471	-0.169
-649.799	30.203	-0.314	-0.271
-648.784	496.655	-0.178	0.414
-647.770	-104.751	0.265	-0.062
-646.755	-145.313	-0.240	-0.022
-645.741	164.599	-0.054	0.078
-644.726	30.984	-0.288	0.250
-643.711	-138.978	-0.210	0.023
-642.697	-200.000	-0.021	-0.122
-641.682	13.554	-0.051	-0.040
-640.668	-58.394	-0.052	-0.023
-639.653	-200.000	-0.023	-0.522
-638.638	-62.009	0.044	0.019
-637.624	-195.003	0.189	-0.001
-636.609	-19.886	-0.342	-0.214
-635.595	235.680	0.145	0.242
-634.580	45.337	0.113	0.105
-633.565	638.795	-0.042	0.107
-632.551	584.261	-0.072	-0.178
-631.536	-77.914	0.093	-0.032
-630.522	-77.497	0.237	0.083
-629.507	-2.750	0.081	-0.057
-628.492	800.000	0.056	0.208
-627.478	-112.392	0.119	-0.024
-626.463	122.929	-0.174	-0.220
-625.449	139.571	0.101	-0.134
-624.434	-150.822	-0.045	-0.003
-623.419	114.629	-0.213	-0.262
-622.405	-200.000	-0.038	0.505
-621.390	224.365	0.119	0.194
-620.376	573.581	-0.103	-0.254
-619.361	-45.975	-0.155	-0.077
-618.346	125.225	-0.121	-0.154
-617.332	-72.421	-0.379	0.141
-616.317	-105.975	0.234	0.053
-615.303	-200.000	-0.019	0.424
-614.288	356.955	-0.052	-0.104
-613.273	-81.432	-0.131	-0.043
-612.259	-169.524	-0.266	0.010
-611.244	800.000	-0.104	0.316
-610.230	124.749	0.243	0.309
-609.215	-66.883	0.192	0.077
-608.201	-140.984	-0.385	-0.040
-607.186	800.000	0.078	0.234
-606.171	800.000	-0.027	0.087
-605.157	-200.000	0.027	0.129
-604.142	28.442	-0.336	0.287
-603.128	-200.000	-0.021	0.286
-602.113	-200.000	0.008	-0.111
-601.098	-140.230	-0.194	-0.020
-600.084	507.827	0.012	-0.029
-599.069	-118.862	-0.049	-0.009
-598.055	543.608	-0.085	-0.205
-597.040	-200.000	-0.037	0.227
-596.025	-73.918	0.145	0.053
-595.011	294.729	-0.040	0.073
-593.996	-200.000	0.009	-0.265
-592.982	-200.000	-0.311	-0.001
-591.967	-61.442	0.467	0.198
-590.952	-179.260	-0.125	-0.003
-589.938	62.045	-0.112	0.112
-588.923	76.098	-0.204	0.218
-587.909	-110.533	-0.233	0.049
-586.894	800.000	-0.062	-0.185
-585.879	-119.110	0.232	0.041
-584.865	145.264	-0.050	-0.067
-583.850	705.646	0.042	0.111
-582.836	4.649	0.306	-0.226
-581.821	-41.589	-0.209	0.108
-580.806	-200.000	-0.024	0.151
-579.792	-189.556	0.279	0.003
-578.777	-200.000	0.015	0.166
-577.763	-48.448	-0.341	0.165
-576.748	-83.901	-0.125	-0.040
-575.733	-154.487	0.227	0.015
-574.719	800.000	-0.066	-0.191
-573.704	255.804	0.198	-0.343
-572.690	122.290	-0.154	-0.193
-571.675	-151.236	-0.195	0.015
-570.661	556.037	-0.057	-0.138
-569.646	5.459	0.110	-0.082
-568.631	317.403	0.083	0.157
-567.617	-42.805	0.199	0.102
-566.602	47.056	0.211	-0.198
-565.588	361.933	-0.080	0.161
-564.573	148.754	0.222	0.302
-563.558	-97.753	0.215	0.056
-562.544	74.766	0.103	0.110
-561.529	285.585	-0.072	0.130
-560.515	-58.509	-0.061	-0.027
-559.500	399.092	0.088	-0.185
-558.485	-195.119	-0.309	-0.002
-557.471	-200.000	-0.313	-0.000
-556.456	200.256	-0.106	-0.164
-555.442	404.510	0.103	0.219
-554.427	-200.000	0.016	-0.216
-553.412	800.000	-0.042	0.166
-552.398	800.000	0.072	-0.241
-551.383	67.407	-0.159	-0.163
-550.369	615.729	0.073	-0.184
-549.354	-3.182	0.170	-0.119
-548.339	-23.561	-0.124	0.075
-547.325	389.913	-0.129	0.268
-546.310	72.883	-0.063	0.066
-545.296	-36.621	-0.110	0.059
-544.281	800.000	0.078	-0.325
-543.266	163.173	0.144	-0.203
-542.252	8.236	0.227	-0.172
-541.237	-3.933	0.194	-0.136
-540.223	589.368	-0.098	-0.243
-539.208	84.683	-0.096	0.106
-538.193	26.192	0.123	-0.104
-537.179	-189.453	0.230	-0.003
-536.164	-14.665	0.257	-0.166
-535.150	139.161	0.120	-0.158
-534.135	-136.505	-0.233	0.027
-533.121	-200.000	-0.008	0.270
-532.106	476.985	-0.120	-0.272
-531.091	585.204	0.105	-0.259
-530.077	800.000	-0.072	-0.244
-529.062	104.637	-0.175	-0.208
-528.048	800.000	-0.025	-0.098
-527.033	-130.194	0.236	0.032
-526.018	186.785	0.136	-0.204
-525.004	82.570	0.206	-0.225
-523.989	199.268	-0.161	0.248
-522.975	-200.000	0.012	-0.063
-521.960	-25.229	0.190	-0.113
-520.945	-146.846	-0.223	0.019
-519.931	-200.000	0.015	-0.260
-518.916	-38.173	0.229	0.122
-517.902	800.000	-0.077	0.216
-516.887	10.994	0.112	-0.086
-515.872	800.000	-0.011	0.040
-514.858	-153.420	-0.441	-0.031
-513.843	-200.000	0.008	-0.067
-512.829	800.000	0.124	0.373
-511.814	-74.349	0.224	0.081
-510.799	143.279	-0.196	-0.262
-509.785	57.998	-0.253	0.249
-508.770	287.280	0.060	0.109
-507.756	800.000	-0.076	0.269
-506.741	-120.768	-0.329	0.056
-505.726	95.842	0.057	-0.065
-504.712	73.908	0.094	0.099
-503.697	-29.082	0.185	-0.107
-502.683	109.908	0.022	0.026
-501.668	-200.000	-0.014	-0.231
-500.653	-48.526	-0.352	0.170
-499.639	-200.000	-0.022	0.276
-498.624	121.407	0.248	0.310
-497.610	-200.000	0.042	-0.207
-496.595	556.722	0.093	-0.226
-495.581	-200.000	-0.032	-0.257
-494.566	-155.064	-0.158	-0.010
-493.551	-25.442	0.314	0.187
-492.537	110.949	0.117	-0.141
-491.522	-58.303	0.439	0.192
-490.508	-137.268	-0.354	-0.040
-489.493	-26.677	0.154	-0.090
-488.478	-45.339	0.153	-0.076
-487.464	106.450	0.270	-0.321
-486.449	800.000	-0.105	-0.324
-485.435	29.796	0.182	-0.156
-484.420	-56.261	-0.244	0.109
-483.405	183.780	0.138	0.206
-482.391	-94.532	-0.420	0.115
-481.376	-160.795	0.352	-0.019
-480.362	-105.514	0.152	0.035
-479.347	-148.347	-0.130	0.011
-478.332	-176.533	0.223	0.006
-477.318	449.026	0.017	0.037
-476.303	-162.292	0.151	0.008
-475.289	-106.728	0.250	0.056
-474.274	-94.011	-0.500	-0.138
-473.259	63.764	-0.044	-0.044
-472.245	-173.692	0.085	-0.003
-471.230	35.429	-0.151	-0.133
-470.216	-78.117	-0.176	-0.061
-469.201	-200.000	0.014	-0.131
-468.186	-84.683	0.172	0.054
-467.172	-108.252	0.268	-0.058
-466.157	-200.000	0.006	0.106
-465.143	800.000	-0.041	-0.130
-464.128	-142.492	-0.348	0.034
-463.113	800.000	0.023	-0.099
-462.099	-139.364	-0.351	-0.038
-461.084	-200.000	-0.014	0.066
-460.070	26.330	0.119	-0.100
-459.055	-200.000	0.017	-0.176
-458.040	193.203	0.187	0.284
-457.026	800.000	0.034	0.134
-456.011	-43.718	-0.368	-0.186
-454.997	149.969	-0.141	0.192
-453.982	-37.507	0.036	0.019
-452.968	149.490	0.128	-0.173
-451.953	5.496	-0.151	-0.112
-450.938	-200.000	0.017	0.194
-449.924	-78.072	-0.031	-0.011
-448.909	-61.527	0.416	-0.175
-447.895	-54.069	0.265	-0.121
-446.880	-87.898	-0.058	0.017
-445.865	708.847	-0.068	-0.180
-444.851	55.994	-0.203	-0.198
-443.836	-200.000	0.034	-0.173
-442.822	105.056	0.167	0.198
-441.807	-5.882	0.213	0.146
-440.792	212.380	0.154	0.244
-439.778	14.377	0.203	-0.159
-438.763	-200.000	-0.001	-0.048
-437.749	-58.730	0.036	-0.015
-436.734	-12.187	-0.029	-0.019
-435.719	-35.532	0.448	0.244
-434.705	-108.709	-0.306	-0.066
-433.690	-97.785	0.266	0.069
-432.676	-200.000	-0.005	0.137
-431.661	-135.279	0.326	-0.039
-430.646	76.253	0.356	0.378
-429.632	14.720	0.096	-0.076
-428.617	800.000	-0.060	-0.195
-427.603	-200.000	-0.042	0.299
-426.588	-35.540	0.431	0.234
-425.573	-152.110	0.374	-0.027
-424.559	-200.000	0.028	-0.159
-423.544	-37.663	0.251	-0.134
-422.530	-123.067	-0.185	0.030
-421.515	-200.000	-0.005	0.199
-420.500	-7.110	-0.156	0.106
-419.486	7.749	-0.358	-0.268
-418.471	201.270	0.150	0.231
-417.457	-188.252	0.364	-0.005
-416.442	-200.000	0.028	-0.357
-415.428	800.000	0.078	-0.229
-414.413	19.642	0.129	-0.104
-413.398	334.869	0.029	-0.056
-412.384	-34.669	-0.114	0.062
-411.369	800.000	0.097	0.407
-410.355	-200.000	0.000	-0.109
-409.340	21.300	0.118	-0.096
-408.325	28.720	0.200	-0.170
-407.311	-73.609	-0.218	-0.080
-406.296	-143.601	0.412	-0.039
-405.282	-70.356	-0.304	0.115
-404.267	560.774	-0.033	-0.081
-403.252	334.852	-0.123	-0.239
-402.238	-200.000	0.025	-0.243
-401.223	650.261	-0.055	0.140
-400.209	136.677	0.126	0.165
-399.194	-4.719	-0.275	0.190
-398.179	-66.013	-0.463	-0.185
-397.165	71.747	-0.041	-0.043
-396.150	588.852	-0.172	0.424
-395.136	84.378	0.095	-0.104
-394.121	-200.000	0.005	-0.260
-393.106	800.000	-0.062	0.196
-392.092	-88.853	0.299	0.089
-391.077	44.927	-0.310	-0.285
-390.063	-34.646	0.063	-0.035
-389.048	-25.324	-0.289	-0.171
-388.033	30.444	0.303	0.259
-387.019	-9.587	0.247	0.165
-386.004	-9.558	-0.098	0.065
-384.990	-143.484	0.070	-0.007
-383.975	175.471	0.186	-0.269
-382.960	-72.430	-0.093	0.034
-381.946	412.658	0.082	-0.174
-380.931	31.060	0.136	-0.117
-379.917	-17.121	0.086	0.054
-378.902	651.326	0.047	-0.120
-377.888	212.553	0.093	-0.146
-376.873	800.000	-0.068	0.273
-375.858	-200.000	0.041	0.184
-374.844	167.323	-0.083	0.118
-373.829	27.217	-0.190	0.159
-372.815	-59.363	-0.140	0.060
-371.800	150.322	-0.082	-0.111
-370.785	21.645	-0.150	0.122
-369.771	748.808	-0.141	0.381
-368.756	800.000	0.079	0.247
-367.742	-200.000	-0.020	-0.125
-366.727	-81.639	-0.121	-0.040
-365.712	-200.000	-0.092	-0.456
-364.698	-134.848	0.255	-0.031
-363.683	-169.263	0.238	0.009
-362.669	-0.845	0.182	0.129
-361.654	2.000	-0.347	0.250
-360.639	-2.892	0.153	-0.107
-359.625	-108.454	0.080	-0.017
-358.610	654.424	-0.111	0.286
-357.596	65.265	-0.212	-0.214
-356.581	-200.000	0.021	-0.172
-355.566	309.198	-0.176	0.328
-354.552	-200.000	-0.017	-0.130
-353.537	-200.000	0.004	0.064
-352.523	-97.156	-0.310	-0.081
-351.508	800.000	-0.141	0.389
-350.493	67.492	-0.189	0.192
-349.479	296.860	0.119	-0.218
-348.464	-200.000	-0.026	0.315
-347.450	800.000	-0.077	0.265
-346.435	-200.000	-0.029	0.156
-345.420	-200.000	0.033	-0.154
-344.406	402.763	-0.112	-0.235
-343.391	-200.000	0.039	0.204
-342.377	-129.541	0.255	0.035
-341.362	-153.941	-0.408	0.028
-340.348	-200.000	-0.025	-0.201
-339.333	-164.983	-0.343	-0.015
-338.318	-200.000	-0.049	-0.282
-337.304	-170.742	-0.346	0.012
-336.289	-119.005	-0.166	0.029
-335.275	-200.000	0.051	-0.258
-334.260	800.000	-0.045	0.143
-333.245	800.000	0.071	-0.211
-332.231	-200.000	-0.001	-0.123
-331.216	199.030	0.170	0.260
-330.202	-200.000	-0.010	-0.081
-329.187	-200.000	0.002	-0.393
-328.172	800.000	0.040	-0.123
-327.158	123.605	0.020	0.026
-326.143	-49.884	0.211	0.100
-325.129	295.549	0.063	-0.115
-324.114	10.666	0.212	-0.161
-323.099	800.000	0.003	0.009
-322.085	-73.161	-0.107	0.039
-321.070	-95.070	-0.421	-0.114
-320.056	501.263	-0.034	0.078
-319.041	116.434	-0.098	0.120
-318.026	380.807	0.045	0.092
-317.012	315.959	0.086	0.161
-315.997	-77.870	0.197	-0.068
-314.983	338.748	-0.097	0.188
-313.968	-114.957	0.155	0.029
-312.953	-200.000	-0.021	0.221
-311.939	-85.658	0.404	-0.125
-310.924	48.232	-0.319	0.298
-309.910	-28.682	-0.102	0.059
-308.895	-200.000	0.028	0.268
-307.880	384.457	0.232	-0.476
-306.866	-200.000	0.005	-0.343
-305.851	-84.764	0.525	0.164
-304.837	-200.000	0.064	0.452
-303.822	313.637	0.012	0.022
-302.807	-200.000	-0.012	-0.082
-301.793	143.399	-0.262	0.347
-300.778	-151.076	0.323	-0.024
-299.764	140.299	-0.151	0.198
-298.749	-39.541	-0.156	-0.082
-297.735	-200.000	0.010	0.243
-296.720	800.000	-0.044	-0.161
-295.705	19.302	0.198	0.158
-294.691	-45.582	0.142	-0.070
-293.676	-200.000	0.000	-0.188
-292.662	163.368	0.037	0.052
-291.647	9.359	-0.063	-0.047
-290.632	-200.000	0.018	0.160
-289.618	380.900	0.215	0.440
-288.603	800.000	-0.058	0.253
-287.589	-121.090	-0.229	0.038
-286.574	-141.054	0.045	-0.005
-285.559	-200.000	0.046	-0.512
-284.545	-85.449	-0.127	0.039
-283.530	180.539	-0.239	-0.350
-282.516	-200.000	0.012	-0.220
-281.501	186.943	-0.138	0.205
-280.486	132.069	0.147	-0.189
-279.472	-200.000	-0.034	-0.545
-278.457	-29.195	0.096	0.055
-277.443	-188.220	-0.222	0.003
-276.428	-159.186	0.255	0.014
-275.413	70.933	0.047	0.048
-274.399	-180.931	0.287	-0.006
-273.384	-86.102	0.220	-0.068
-272.370	-200.000	0.001	0.260
-271.355	46.220	0.195	-0.180
-270.340	800.000	0.055	0.154
-269.326	800.000	0.092	-0.388
-268.311	-38.606	0.139	-0.073
-267.297	337.457	-0.092	-0.177
-266.282	211.249	-0.154	0.240
-265.267	-200.000	0.045	-0.254
-264.253	-200.000	-0.005	-0.166
-263.238	176.339	0.297	-0.429
-262.224	189.345	-0.173	0.258
-261.209	58.224	-0.164	0.160
-260.195	-105.790	-0.130	0.029
-259.180	-200.000	-0.020	-0.219
-258.165	457.202	0.236	0.521
-257.151	-103.701	0.127	0.030
-256.136	-200.000	-0.070	0.359
-255.122	800.000	-0.051	0.146
-254.107	-104.440	0.221	0.051
-253.092	-200.000	0.041	-0.262
-252.078	213.578	-0.147	0.232
-251.063	-44.197	-0.244	0.122
-250.049	-45.385	0.227	0.112
-249.034	15.398	0.214	0.167
-248.019	109.834	0.276	-0.329
-247.005	574.913	-0.047	-0.115
-245.990	-94.654	-0.135	0.037
-244.976	516.086	-0.077	0.179
-243.961	-116.571	-0.431	0.079
-242.946	-107.575	0.257	0.056
-241.932	-32.629	-0.119	0.066
-240.917	237.668	-0.082	0.135
-239.903	-139.249	-0.044	-0.005
-238.888	-112.721	-0.444	-0.088
-237.873	17.252	0.112	-0.089
-236.859	-200.000	0.032	-0.148
-235.844	128.639	-0.097	-0.123
-234.830	-200.000	-0.003	-0.271
-233.815	-48.078	-0.177	-0.085
-232.800	-169.204	0.356	-0.013
-231.786	181.799	0.148	-0.216
-230.771	-15.068	0.168	0.107
-229.757	800.000	0.063	-0.242
-228.742	5.805	-0.339	0.249
-227.727	-200.000	0.013	0.083
-226.713	-74.096	0.190	-0.069
-225.698	170.162	-0.224	-0.318
-224.684	-200.000	-0.025	0.190
-223.669	51.455	-0.174	-0.164
-222.655	58.662	0.233	-0.227
-221.640	-200.000	0.001	0.064
-220.625	127.889	-0.009	0.011
-219.611	55.477	-0.137	0.132
-218.596	27.624	0.287	-0.240
-217.582	-167.217	-0.060	0.002
-216.567	-200.000	0.033	-0.162
-215.552	2.644	-0.176	-0.127
-214.538	800.000	-0.163	0.461
-213.523	-200.000	0.027	0.192
-212.509	75.286	0.051	-0.053
-211.494	92.988	-0.280	-0.314
-210.479	800.000	-0.070	-0.292
-209.465	81.232	0.135	-0.145
-208.450	33.928	-0.211	-0.182
-207.436	-79.087	-0.061	0.021
-206.421	-71.662	0.116	-0.043
-205.406	-132.512	-0.310	-0.040
-204.392	-200.000	-0.044	-0.333
-203.377	-200.000	0.006	0.046
-202.363	-200.000	0.006	-0.048
-201.348	-125.664	-0.167	0.025
-200.333	-21.845	-0.126	-0.076
-199.319	-200.000	-0.003	0.052
-198.304	99.346	0.115	-0.132
-197.290	-149.480	0.134	-0.011
-196.275	-194.093	0.257	-0.002
-195.260	111.196	0.113	0.135
-194.246	-77.927	0.156	-0.053
-193.231	-150.968	0.196	-0.015
-192.217	-21.340	0.112	-0.068
-191.202	161.181	-0.158	0.219
-190.187	584.541	-0.064	0.157
-189.173	-200.000	-0.019	0.205
-188.158	-200.000	-0.050	0.356
-187.144	-121.608	-0.210	-0.035
-186.129	-95.029	0.110	0.029
-185.114	-49.584	0.338	-0.160
-184.100	-43.345	-0.401	-0.201
-183.085	-15.308	-0.322	0.204
-182.071	-107.790	0.228	-0.049
-181.056	-200.000	-0.037	-0.223
-180.042	236.363	0.090	0.148
-179.027	-58.661	-0.104	0.045
-178.012	129.230	0.045	0.057
-176.998	-200.000	-0.012	-0.102
-175.983	138.359	0.333	0.433
-174.969	209.334	0.133	-0.206
-173.954	-31.456	-0.204	0.114
-172.939	-95.441	-0.438	-0.117
-171.925	79.774	0.180	0.192
-170.910	432.964	0.093	-0.200
-169.896	800.000	0.079	0.280
-168.881	-200.000	-0.056	0.310
-167.866	800.000	0.111	0.328
-166.852	182.429	-0.092	0.134
-165.837	53.326	0.107	-0.102
-164.823	-200.000	-0.003	0.339
-163.808	-200.000	0.000	0.157
-162.793	243.519	-0.081	0.134
-161.779	107.028	-0.172	0.203
-160.764	11.905	0.326	0.248
-159.750	6.143	-0.225	-0.165
-158.735	99.241	-0.180	-0.206
-157.720	-142.602	-0.326	-0.032
-156.706	24.296	0.161	-0.131
-155.691	-200.000	-0.025	-0.240
-154.677	-200.000	-0.005	-0.143
-153.662	582.875	0.014	0.034
-152.647	-85.691	0.353	-0.109
-151.633	63.341	-0.237	0.235
-150.618	-85.976	-0.123	0.038
-149.604	-74.701	0.133	-0.047
-148.589	-146.772	-0.175	-0.015
-147.574	800.000	-0.074	-0.229
-146.560	27.761	0.225	0.188
-145.545	134.134	-0.290	-0.372
-144.531	346.125	-0.106	-0.206
-143.516	429.315	-0.105	-0.225
-142.502	426.944	0.066	-0.141
-141.487	141.963	-0.108	-0.142
-140.472	72.570	-0.298	-0.308
-139.458	-200.000	-0.009	0.093
-138.443	38.104	0.146	0.128
-137.429	53.815	0.125	-0.118
-136.414	27.234	0.135	0.112
-135.399	-62.911	-0.318	-0.130
-134.385	-200.000	0.008	-0.379
-133.370	17.033	0.366	0.287
-132.356	17.136	-0.224	0.176
-131.341	-115.748	0.107	-0.020
-130.326	147.192	-0.120	0.159
-129.312	-200.000	-0.012	-0.063
-128.297	231.791	0.015	-0.024
-127.283	800.000	-0.037	-0.115
-126.268	-32.268	0.230	-0.127
-125.253	-129.537	0.256	-0.035
-124.239	601.519	0.093	-0.229
-123.224	800.000	-0.082	0.346
-122.210	296.738	0.028	-0.050
-121.195	-135.417	0.304	0.036
-120.180	800.000	0.121	0.370
-119.166	103.135	-0.037	0.043
-118.151	-79.632	0.422	0.141
-117.137	282.457	-0.043	0.077
-116.122	-200.000	0.062	-0.283
-115.107	-200.000	0.078	0.457
-114.093	-48.496	-0.128	0.061
-113.078	341.939	0.084	-0.162
-112.064	155.338	0.038	-0.051
-111.049	800.000	-0.066	0.210
-110.034	800.000	-0.065	-0.216
-109.020	18.502	-0.127	-0.100
-108.005	63.451	-0.084	0.084
-106.991	-113.835	-0.269	0.052
-105.976	-102.660	-0.254	-0.060
-104.962	-6.476	-0.254	-0.171
-103.947	-37.497	-0.138	-0.073
-102.932	-200.000	-0.027	0.190
-101.918	206.339	0.162	-0.249
-100.903	-91.766	0.394	0.111
-99.889	-200.000	-0.012	0.100
-98.874	55.238	0.041	0.039
-97.859	-90.624	-0.244	-0.070
-96.845	-118.964	-0.330	-0.057
-95.830	123.106	-0.134	-0.166
-94.816	-27.063	0.229	-0.132
-93.801	-99.974	0.127	-0.031
-92.786	-200.000	0.025	-0.576
-91.772	800.000	0.051	-0.150
-90.757	-13.055	-0.208	0.134
-89.743	-200.000	0.028	-0.193
-88.728	-200.000	0.014	-0.309
-87.713	46.964	-0.080	0.073
-86.699	17.464	-0.242	0.190
-85.684	140.103	0.140	0.182
-84.670	-200.000	0.027	-0.125
-83.655	-63.827	-0.488	0.197
-82.640	-200.000	-0.076	-0.417
-81.626	15.667	0.058	0.045
-80.611	113.560	-0.191	0.229
-79.597	102.351	0.205	-0.236
-78.582	800.000	0.039	0.149
-77.567	-200.000	0.012	-0.139
-76.553	-39.315	0.212	0.110
-75.538	-93.320	-0.211	0.058
-74.524	-135.280	0.157	0.019
-73.509	-98.261	0.198	0.050
-72.494	697.803	-0.111	0.287
-71.480	800.000	-0.037	-0.131
-70.465	-153.026	0.252	0.018
-69.451	-119.591	-0.147	0.025
-68.436	-97.237	-0.021	0.005
-67.422	-95.144	0.079	0.021
-66.407	663.431	0.106	-0.269
-65.392	-93.727	-0.136	-0.037
-64.378	-56.147	-0.094	0.041
-63.363	-34.165	0.150	0.081
-62.349	224.768	-0.156	0.249
-61.334	58.772	-0.582	-0.564
-60.319	-36.335	0.569	0.303
-59.305	362.746	-0.491	-0.973
-58.290	312.796	0.446	0.827
-57.276	800.000	0.417	1.550
-56.261	-200.000	98.496	594.364
-55.246	531.243	1417.993	3309.713
-54.232	149.688	2615.130	3498.159
-53.217	112.001	2172.619	2590.846
-52.203	44.761	1622.165	1472.962
-51.188	36.850	1357.468	1184.427
-50.173	33.563	1315.017	1127.829
-49.159	55.974	1364.079	1306.106
-48.144	59.173	1381.362	1341.937
-47.130	37.099	1336.795	1167.705
-46.115	33.442	1318.926	1130.284
-45.100	33.357	1313.818	1125.353
-44.086	33.180	1312.068	1122.759
-43.071	33.059	1309.774	1120.037
-42.057	33.039	1307.704	1118.099
-41.042	33.265	1305.762	1117.730
-40.027	33.185	1304.518	1116.153
-39.013	33.201	1302.703	1114.647
-37.998	33.330	1300.896	1113.817
-36.984	33.252	1299.618	1112.217
-35.969	33.325	1297.357	1110.669
-34.954	33.260	1295.824	1108.930
-33.940	33.250	1295.049	1108.167
-32.925	33.316	1293.324	1107.029
-31.911	33.249	1291.798	1105.288
-30.896	33.310	1290.079	1104.133
-29.881	33.451	1288.729	1103.752
-28.867	33.489	1287.110	1102.545
-27.852	33.460	1285.885	1101.285
-26.838	33.364	1284.411	1099.421
-25.823	33.420	1283.083	1098.562
-24.809	33.304	1281.991	1096.914
-23.794	33.362	1280.490	1095.919
-22.779	33.343	1279.126	1094.598
-21.765	33.370	1277.744	1093.530
-20.750	33.336	1276.685	1092.384
-19.736	33.268	1275.191	1090.670
-18.721	33.230	1274.269	1089.621
-17.706	33.289	1273.142	1088.950
-16.692	33.195	1271.632	1087.076
-15.677	33.151	1271.124	1086.349
-14.663	33.189	1269.701	1085.309
-13.648	33.320	1268.110	1084.654
-12.633	33.325	1267.118	1083.791
-11.619	33.185	1267.192	1083.007
-10.604	33.317	1265.626	1082.382
-9.590	33.144	1264.806	1080.648
-8.575	33.176	1263.961	1080.065
-7.560	33.239	1262.820	1079.411
-6.546	33.244	1262.110	1078.786
-5.531	33.135	1261.745	1077.811
-4.517	33.162	1260.630	1076.969
-3.502	33.129	1259.971	1076.176
-2.487	33.262	1258.620	1075.738
-1.473	33.159	1255.341	1072.308
-0.458	32.091	1241.061	1054.077
0.556	28.912	1223.312	1018.523
1.571	25.422	1229.964	1004.496
2.586	24.479	1246.433	1012.509
3.600	23.632	1234.939	998.322
4.615	17.020	1159.232	902.007
5.629	6.464	1080.971	788.459
6.644	1.943	1060.345	751.116
7.659	1.729	1057.661	748.096
8.673	1.558	1056.160	746.130
9.688	1.490	1054.936	744.868
10.702	1.933	1052.986	745.590
11.717	8.119	1062.443	782.662
12.731	18.532	1077.373	845.179
13.746	23.939	1084.514	877.458
14.761	25.032	1084.993	883.157
15.775	25.006	1085.138	883.070
16.790	24.847	1084.094	881.361
17.804	24.781	1083.486	880.462
18.819	24.818	1083.185	880.322
19.834	25.072	1082.714	881.109
20.848	25.073	1082.776	881.087
21.863	24.998	1081.851	879.889
22.877	24.855	1081.415	878.754
23.892	24.926	1080.432	878.226
24.907	25.016	1079.671	877.970
25.921	24.900	1078.356	876.255
26.936	24.965	1077.272	875.616
27.950	24.889	1075.557	873.771
28.965	24.694	1074.373	871.784
29.980	24.781	1072.662	870.742
30.994	24.995	1071.785	870.990
32.009	25.039	1070.490	870.076
33.023	24.814	1069.170	867.838
34.038	24.981	1068.454	867.987
35.053	25.155	1067.576	868.040
36.067	24.982	1067.689	867.214
37.082	25.138	1066.708	867.098
38.096	25.294	1065.944	867.153
39.111	25.353	1065.080	866.659
40.126	25.079	1063.809	864.225
41.140	24.905	1061.937	861.792
42.155	24.635	1060.474	859.229
43.169	24.583	1059.959	858.489
44.184	24.529	1059.102	857.458
45.199	24.503	1057.893	856.276
46.213	24.640	1057.102	856.218
47.228	24.753	1056.301	856.035
48.242	24.915	1055.043	855.713
49.257	24.901	1054.840	855.406
50.271	25.061	1053.516	855.022
51.286	25.172	1052.764	854.867
52.301	25.108	1052.270	854.083
53.315	25.021	1051.257	852.770
54.330	24.992	1050.220	851.716
55.344	25.064	1049.755	851.606
56.359	24.977	1048.481	850.085
57.374	24.750	1047.734	848.328
58.388	24.710	1046.915	847.397
59.403	24.639	1045.933	846.194
60.417	24.436	1045.360	844.693
61.432	24.580	1044.506	844.609
62.447	24.755	1044.116	845.049
63.461	24.705	1043.614	844.329
64.476	24.608	1042.289	842.725
65.490	24.557	1041.459	841.738
66.505	24.760	1040.565	841.896
67.520	24.809	1039.570	841.250
68.534	24.505	1038.513	838.893
69.549	24.215	1037.529	836.663
70.563	24.045	1037.445	835.720
71.578	24.222	1035.912	835.244
72.593	23.995	1035.308	833.617
73.607	24.145	1034.748	833.797
74.622	24.477	1034.292	834.908
75.636	24.542	1033.932	834.849
76.651	24.391	1032.766	833.128
77.666	24.322	1031.809	831.960
78.680	24.401	1031.211	831.772
79.695	24.506	1030.469	831.587
80.709	24.536	1030.062	831.326
81.724	24.509	1029.383	830.581
82.739	24.630	1028.537	830.385
83.753	24.978	1028.319	831.752
84.768	25.398	1027.067	832.613
85.782	25.388	1026.471	832.008
86.797	25.388	1024.995	830.738
87.812	25.026	1024.349	828.469
88.826	25.150	1023.462	828.249
89.841	25.226	1022.840	828.027
90.855	25.342	1021.590	827.474
91.870	25.231	1020.537	826.037
92.884	25.177	1019.325	824.733
93.899	25.077	1018.357	823.422
94.914	25.095	1018.323	823.401
95.928	25.151	1016.660	822.240
96.943	24.875	1015.483	819.951
97.957	24.583	1014.837	818.024
98.972	24.424	1013.458	816.109
99.987	24.651	1012.666	816.437
101.001	24.908	1011.904	816.922
102.016	24.916	1011.054	816.202
103.030	24.996	1009.672	815.377
104.045	24.823	1009.125	814.076
105.060	24.657	1007.817	812.194
106.074	24.667	1007.586	811.985
107.089	25.131	1006.918	813.477
108.103	24.969	1005.754	811.733
109.118	24.696	1004.659	809.542
110.133	24.808	1003.176	808.781
111.147	24.369	1002.608	806.266
112.162	24.330	1001.718	805.304
113.176	24.692	1000.830	806.153
114.191	24.656	999.706	805.013
115.206	24.214	999.145	802.499
116.220	24.182	998.313	801.616
117.235	24.386	997.080	801.474
118.249	24.361	996.769	801.040
119.264	24.400	995.635	800.230
120.279	24.419	994.919	799.671
121.293	24.420	994.391	799.181
122.308	24.395	993.543	798.315
123.322	24.273	992.765	797.074
124.337	24.270	991.419	795.909
125.352	23.702	990.227	792.350
126.366	23.818	988.644	791.530
127.381	24.482	988.677	794.442
128.395	24.775	988.577	795.594
129.410	24.969	987.760	795.730
130.424	24.824	986.847	794.277
131.439	24.880	985.721	793.552
132.454	24.985	984.745	793.160
133.468	24.970	983.517	792.033
134.483	24.956	983.101	791.568
135.497	25.105	982.126	791.369
136.512	25.264	981.420	791.433
137.527	25.225	980.604	790.535
138.541	25.165	979.951	789.674
139.556	25.078	979.179	788.599
140.570	25.293	978.602	789.008
141.585	25.303	977.285	787.919
142.600	25.272	976.100	786.758
143.614	25.443	975.624	787.055
144.629	25.550	974.788	786.780
145.643	25.162	973.922	784.314
146.658	25.151	972.398	782.970
147.673	25.175	970.840	781.751
148.687	24.999	970.235	780.429
149.702	24.912	969.197	779.143
150.716	24.898	968.721	778.633
151.731	25.113	967.702	778.679
152.746	25.445	966.776	779.304
153.760	25.499	966.588	779.321
154.775	25.490	966.020	778.750
155.789	25.368	964.804	777.175
156.804	25.228	964.051	775.895
157.819	25.391	963.421	776.025
158.833	25.555	962.712	776.092
159.848	25.392	961.947	774.703
160.862	25.335	960.452	773.184
161.877	25.208	959.816	772.059
162.892	25.453	958.439	771.935
163.906	25.276	957.529	770.375
164.921	25.300	956.749	769.780
165.935	25.430	955.775	769.488
166.950	25.330	955.010	768.375
167.964	25.364	954.279	767.866
168.979	25.192	953.121	766.129
169.994	25.283	951.892	765.464
171.008	25.420	951.685	765.813
172.023	25.473	951.122	765.518
173.037	25.196	949.528	762.988
174.052	24.965	948.753	761.316
175.067	25.047	948.248	761.194
176.081	25.185	947.787	761.340
177.096	25.143	947.410	760.793
178.110	24.840	945.992	758.302
179.125	24.629	945.382	756.851
180.140	24.697	945.102	756.848
181.154	25.060	944.632	757.941
182.169	25.112	944.775	758.208
183.183	25.402	944.084	758.814
184.198	25.274	943.371	757.631
185.213	25.307	942.389	756.917
186.227	25.427	941.543	756.673
187.242	25.424	940.851	756.038
188.256	25.426	940.159	755.425
189.271	25.548	939.743	755.535
190.286	25.083	938.499	752.517
191.300	24.540	936.994	748.966
192.315	23.602	935.686	743.926
193.329	23.630	935.333	743.696
194.344	24.571	935.926	748.046
195.359	25.179	935.736	750.370
196.373	25.360	934.843	750.345
197.388	25.195	934.219	749.087
198.402	25.262	933.938	749.076
199.417	25.245	933.352	748.470
200.432	24.902	932.172	746.030
201.446	24.881	931.683	745.485
202.461	24.743	930.973	744.277
203.475	24.091	928.981	739.908
204.490	23.302	927.676	735.528
205.504	24.190	928.219	739.580
206.519	24.793	928.015	741.857
207.534	24.986	927.445	742.133
208.548	25.354	927.490	743.627
209.563	25.064	926.577	741.632
210.577	25.057	925.698	740.833
211.592	25.441	925.757	742.400
212.607	25.612	924.461	742.001
213.621	25.462	924.148	741.064
214.636	25.405	923.125	739.947
215.650	25.391	922.391	739.233
216.665	25.583	921.799	739.481
217.680	25.305	921.488	738.026
218.694	25.036	919.549	735.302
219.709	24.714	919.676	734.018
220.723	25.114	919.157	735.179
221.738	25.299	918.108	735.033
222.753	25.207	917.639	734.218
223.767	25.297	917.546	734.447
224.782	25.448	917.540	734.993
225.796	25.516	916.484	734.360
226.811	24.800	915.038	730.215
227.826	24.253	913.545	726.730
228.840	24.390	913.431	727.133
229.855	24.497	912.579	726.829
230.869	24.177	911.243	724.398
231.884	24.546	911.242	725.833
232.899	25.305	911.367	728.949
233.913	25.075	910.975	727.641
234.928	24.992	910.724	727.037
235.942	25.220	909.484	726.909
236.957	24.742	908.581	724.187
237.972	24.766	908.282	723.982
238.986	24.878	907.655	723.871
240.001	24.952	907.480	723.964
241.015	24.840	906.654	722.789
242.030	25.284	906.155	724.119
243.045	25.266	905.984	723.848
244.059	25.382	905.319	723.719
245.074	25.194	904.357	722.129
246.088	24.951	903.139	720.115
247.103	25.126	902.988	720.633
248.117	25.707	903.246	723.110
249.132	26.027	902.750	723.937
250.147	26.025	902.141	723.373
251.161	26.323	901.445	723.947
252.176	25.970	901.197	722.268
253.190	26.274	900.640	722.977
254.205	26.295	900.359	722.770
255.220	26.159	899.780	721.700
256.234	26.045	898.994	720.547
257.249	25.966	897.911	719.301
258.263	26.146	897.431	719.571
259.278	26.129	896.715	718.868
260.293	26.122	896.293	718.435
261.307	26.023	895.752	717.545
262.322	25.905	894.509	716.017
263.336	25.121	892.905	711.558
264.351	24.056	891.300	705.998
265.366	24.314	890.641	706.435
266.380	25.272	891.595	710.925
267.395	25.692	891.019	712.065
268.409	25.773	890.171	711.644
269.424	25.965	889.596	711.879
270.439	25.968	889.113	711.442
271.453	25.878	888.716	710.708
272.468	26.095	888.800	711.567
273.482	26.288	887.756	711.428
274.497	25.873	886.715	708.900
275.512	25.427	885.747	706.310
276.526	25.849	885.826	707.967
277.541	25.932	885.467	707.945
278.555	25.801	884.431	706.540
279.570	25.609	883.900	705.299
280.585	25.772	883.467	705.530
281.599	25.856	882.307	704.870
282.614	25.126	881.012	700.921
283.628	25.175	880.742	700.838
284.643	25.451	880.330	701.526
285.657	25.122	879.443	699.470
286.672	24.843	878.733	697.757
287.687	25.405	878.756	699.907
288.701	25.526	877.809	699.561
289.716	25.114	877.022	697.268
290.730	25.082	876.687	696.816
291.745	24.737	875.623	694.569
292.760	25.215	875.399	696.184
293.774	26.367	875.685	700.817
294.789	26.510	875.384	701.070
295.803	26.411	875.065	700.371
296.818	26.449	874.619	700.098
297.833	26.239	873.090	698.003
298.847	25.914	872.610	696.301
299.862	26.306	872.187	697.413
300.876	26.570	872.091	698.292
301.891	26.294	871.588	696.765
302.906	26.064	870.295	694.783
303.920	26.119	870.235	694.887
304.935	26.400	869.789	695.550
305.949	26.352	869.475	695.052
306.964	26.063	868.299	692.942
307.979	26.268	868.059	693.477
308.993	26.518	868.304	694.568
310.008	26.636	867.446	694.274
311.022	26.270	866.196	691.810
312.037	26.140	865.805	690.940
313.052	25.952	864.815	689.371
314.066	25.021	862.911	684.239
315.081	24.788	862.391	682.876
316.095	25.634	862.849	686.408
317.110	26.103	862.798	688.093
318.125	25.393	860.695	683.653
319.139	24.195	859.470	678.065
320.154	24.197	859.472	678.013
321.168	25.036	859.930	681.508
322.183	25.891	859.834	684.620
323.197	26.094	859.043	684.703
324.212	26.260	858.857	685.124
325.227	26.341	858.068	684.738
326.241	26.105	857.584	683.400
327.256	26.114	856.923	682.844
328.270	25.999	856.315	681.865
329.285	25.706	855.691	680.201
330.300	25.635	855.004	679.329
331.314	25.855	854.546	679.734
332.329	26.268	854.505	681.198
333.343	26.379	854.295	681.388
334.358	26.194	853.826	680.257
335.373	26.403	853.568	680.778
336.387	26.692	853.315	681.605
337.402	26.909	852.891	682.023
338.416	26.765	852.514	681.118
339.431	26.780	852.798	681.341
340.446	26.980	852.231	681.580
341.460	26.861	851.512	680.496
342.475	26.615	851.015	679.119
343.489	26.871	850.626	679.706
344.504	27.067	850.611	680.369
345.519	27.308	850.129	680.823
346.533	27.095	849.952	679.826
347.548	27.062	849.312	679.129
348.562	27.143	848.443	678.676
349.577	26.996	847.803	677.559
350.592	27.116	847.249	677.501
351.606	26.927	846.482	676.124
352.621	26.851	845.660	675.126
353.635	26.805	844.711	674.137
354.650	26.087	843.677	670.584
355.665	25.125	841.997	665.621
356.679	25.707	842.054	667.767
357.694	26.094	841.726	668.884
358.708	26.084	840.671	667.947
359.723	26.367	840.769	669.013
360.738	26.719	840.619	670.137
361.752	26.919	839.793	670.160
362.767	27.141	839.651	670.807
363.781	27.508	839.077	671.640
364.796	27.539	838.661	671.361
365.810	27.660	838.245	671.415
366.825	27.402	838.075	670.269
367.840	27.215	837.227	668.846
368.854	26.742	836.325	666.326
369.869	26.759	836.182	666.218
370.883	26.767	835.713	665.811
371.898	26.805	835.085	665.395
372.913	26.936	834.783	665.574
373.927	26.913	834.405	665.131
374.942	27.091	833.654	665.125
375.956	27.272	833.575	665.663
376.971	27.410	833.216	665.824
377.986	27.511	833.082	666.026
379.000	27.421	832.228	664.957
380.015	27.274	831.296	663.618
381.029	27.356	830.585	663.289
382.044	27.531	830.481	663.785
383.059	27.522	829.878	663.212
384.073	27.504	829.443	662.740
385.088	27.579	828.354	662.085
386.102	27.190	828.409	660.658
387.117	27.143	827.239	659.495
388.132	26.842	826.204	657.521
389.146	26.265	825.530	654.834
390.161	26.701	825.377	656.234
391.175	27.247	825.106	657.937
392.190	26.853	824.086	655.641
393.205	25.527	821.826	649.004
394.219	23.968	820.320	642.133
395.234	23.949	820.148	641.872
396.248	25.587	821.144	648.506
397.263	27.155	821.869	654.675
398.278	26.995	821.610	653.836
399.292	26.643	821.129	652.126
400.307	26.702	820.623	651.880
401.321	26.816	820.142	651.850
402.336	27.387	820.167	653.864
403.350	27.555	820.421	654.613
404.365	27.895	819.981	655.424
405.380	28.104	819.931	656.075
406.394	28.258	819.119	655.920
407.409	28.206	818.521	655.198
408.423	28.163	818.432	654.915
409.438	28.196	818.076	654.689
410.453	28.123	817.590	653.983
411.467	28.260	816.670	653.677
412.482	28.119	816.637	653.090
413.496	28.172	816.365	653.003
414.511	28.165	816.154	652.751
415.526	28.111	815.410	651.906
416.540	28.110	814.391	651.031
417.555	27.790	813.623	649.219
418.569	27.762	813.960	649.334
419.584	27.815	813.144	648.812
420.599	27.618	812.461	647.511
421.613	107.884	1285.513	1450.169
422.628	93.236	1354.448	1450.287
