DTS Sentinel unit serial number:	SN413079Multiplexer serial number:	ORYXHardware model number:	OX4-SRSoftware version number:	ORYX F/W v4.00 Oryx Data Collector v3.7.2.0data status	okinstallation	princeton_trtdifferential loss correction	single-endedforward channel	channel 1reverse channel	N/Adate	2019/09/14time	19:14:35forward acquisition time	60.00reverse acquisition time	0.00gamma	496.2192k internal	0.2310k external	0.2310temperature offset calibration	1.0026default loss term (dB/km)	0.3790temperature slope calibration	1.0000multiplexer offset coefficient	1.0000multiplexer slope coefficient	1.0000fibre end	0.00T internal ref (°C)	35.19T ext. ref 1 (°C)	4.84T ext. ref 2 (°C)	29.17length (m)	temperature (°C)	Stokes	anti-Stokes-747.200	170.741	-0.145	-0.211
-746.185	136.669	-0.417	0.552
-745.171	-21.997	-0.224	0.138
-744.156	192.937	0.050	-0.077
-743.142	4.655	0.214	-0.160
-742.127	0.980	0.102	0.074
-741.112	144.519	0.100	0.135
-740.098	681.943	-0.142	0.376
-739.083	219.207	-0.097	-0.157
-738.069	-42.484	-0.292	0.151
-737.054	338.045	0.150	0.297
-736.039	800.000	-0.033	0.119
-735.025	-85.670	0.143	-0.045
-734.010	112.618	-0.224	0.275
-732.996	800.000	-0.072	-0.308
-731.981	17.405	0.041	0.033
-730.966	142.482	-0.157	-0.211
-729.952	-81.055	-0.154	-0.052
-728.937	575.940	0.086	-0.214
-727.923	469.189	0.198	0.451
-726.908	81.739	0.269	0.295
-725.894	140.317	-0.118	0.158
-724.879	-54.141	-0.161	-0.074
-723.864	15.944	-0.165	-0.132
-722.850	800.000	0.043	0.133
-721.835	-4.964	-0.399	-0.279
-720.821	-1.694	-0.246	-0.176
-719.806	14.290	-0.063	0.050
-718.791	-200.000	-0.072	-0.371
-717.777	-200.000	0.015	0.326
-716.762	-16.184	0.046	0.030
-715.748	-46.586	-0.110	-0.055
-714.733	-200.000	-0.040	-0.193
-713.718	237.498	-0.162	0.273
-712.704	752.751	0.152	0.415
-711.689	4.599	0.039	-0.029
-710.675	-52.587	0.151	-0.071
-709.660	-107.266	-0.066	0.015
-708.645	-200.000	-0.031	-0.178
-707.631	-135.088	0.068	-0.008
-706.616	103.230	0.085	0.100
-705.602	-38.931	0.152	0.081
-704.587	-200.000	-0.026	-0.177
-703.572	-200.000	-0.078	-0.375
-702.558	800.000	0.041	-0.166
-701.543	159.729	0.109	-0.154
-700.529	37.376	0.093	-0.084
-699.514	-200.000	-0.018	-0.137
-698.499	-200.000	0.034	-0.331
-697.485	72.161	-0.158	0.167
-696.470	177.017	-0.046	-0.068
-695.456	-200.000	-0.005	-0.335
-694.441	-12.121	0.125	-0.083
-693.426	-67.180	0.356	-0.142
-692.412	410.377	0.084	0.180
-691.397	-97.175	0.253	-0.067
-690.383	-168.773	-0.178	-0.007
-689.368	-157.321	0.126	0.008
-688.354	159.697	0.108	-0.152
-687.339	800.000	0.054	0.152
-686.324	-200.000	0.004	-0.210
-685.310	-83.774	-0.124	0.040
-684.295	-200.000	0.024	-0.171
-683.281	800.000	-0.047	-0.148
-682.266	329.426	-0.098	-0.190
-681.251	-200.000	-0.341	0.001
-680.237	800.000	-0.075	-0.214
-679.222	36.604	-0.231	0.207
-678.208	-108.814	-0.339	-0.073
-677.193	-146.137	0.110	-0.010
-676.178	30.409	0.278	0.241
-675.164	245.294	0.297	-0.506
-674.149	127.828	-0.166	-0.214
-673.135	113.007	-0.114	0.140
-672.120	-200.000	0.010	0.177
-671.105	-28.144	-0.252	0.147
-670.091	-167.391	0.276	-0.011
-669.076	583.737	-0.033	0.081
-668.062	-200.000	-0.018	0.206
-667.047	-176.515	0.227	0.006
-666.032	17.309	0.159	-0.128
-665.018	-25.315	-0.175	-0.105
-664.003	-54.714	-0.468	-0.214
-662.989	299.996	0.131	-0.245
-661.974	-135.717	-0.036	0.004
-660.959	-139.296	-0.409	0.045
-659.945	305.496	-0.169	-0.318
-658.930	39.777	-0.213	-0.194
-657.916	39.080	-0.210	0.190
-656.901	-88.331	-0.283	-0.086
-655.886	800.000	-0.089	0.254
-654.872	260.522	0.042	0.073
-653.857	1.984	-0.387	-0.283
-652.843	640.422	0.054	0.139
-651.828	25.775	-0.219	0.185
-650.814	-134.024	0.013	0.002
-649.799	-106.600	-0.329	0.074
-648.784	351.442	0.081	0.163
-647.770	-121.652	0.280	-0.047
-646.755	-36.696	0.304	-0.165
-645.741	-54.732	-0.085	0.039
-644.726	105.028	0.115	-0.137
-643.711	-144.503	-0.270	0.025
-642.697	-26.577	-0.069	-0.041
-641.682	-101.229	0.159	0.039
-640.668	-153.697	-0.341	-0.024
-639.653	7.396	-0.320	-0.242
-638.638	566.442	0.138	0.340
-637.624	62.380	-0.283	0.286
-636.609	-121.677	-0.129	-0.022
-635.595	-133.257	-0.134	0.017
-634.580	40.702	-0.090	0.082
-633.565	-93.773	-0.211	0.059
-632.551	-200.000	-0.079	-0.422
-631.536	-54.928	-0.127	-0.058
-630.522	-127.021	-0.143	-0.021
-629.507	-186.893	0.336	-0.005
-628.492	-200.000	-0.068	0.379
-627.478	76.610	-0.126	-0.136
-626.463	-134.648	-0.300	-0.037
-625.449	164.924	-0.130	-0.186
-624.434	642.995	0.059	0.152
-623.419	800.000	0.107	-0.472
-622.405	-36.496	-0.158	-0.086
-621.390	174.580	0.165	0.241
-620.376	-25.982	0.265	-0.158
-619.361	256.847	-0.193	-0.335
-618.346	377.606	-0.019	-0.039
-617.332	-117.283	0.064	0.012
-616.317	-117.871	-0.174	-0.032
-615.303	-63.762	-0.224	-0.093
-614.288	618.994	-0.073	-0.185
-613.273	73.892	0.225	0.239
-612.259	418.787	-0.089	0.192
-611.244	-49.680	-0.236	-0.113
-610.230	-200.000	0.015	0.186
-609.215	96.144	0.289	0.334
-608.201	-108.175	-0.194	-0.042
-607.186	3.213	-0.040	0.030
-606.171	-200.000	-0.050	0.259
-605.157	-152.712	0.093	0.007
-604.142	-131.278	0.276	0.037
-603.128	362.914	-0.126	-0.255
-602.113	-55.696	-0.249	0.112
-601.098	-64.140	-0.194	-0.080
-600.084	-200.000	-0.009	0.052
-599.069	-31.239	-0.053	0.030
-598.055	-77.698	-0.213	-0.074
-597.040	75.535	-0.132	0.141
-596.025	143.656	-0.124	0.167
-595.011	72.926	0.126	0.133
-593.996	-200.000	0.055	-0.329
-592.982	-27.051	-0.073	0.043
-591.967	301.270	-0.051	-0.095
-590.952	221.015	0.047	0.075
-589.938	75.279	0.073	-0.078
-588.923	-156.246	-0.066	0.004
-587.909	748.637	0.030	0.080
-586.894	-36.822	-0.223	-0.121
-585.879	0.572	0.176	0.127
-584.865	66.433	0.344	0.353
-583.850	800.000	0.020	-0.062
-582.836	-123.936	-0.362	-0.058
-581.821	218.575	0.121	-0.195
-580.806	-23.623	-0.112	0.068
-579.792	-200.000	0.016	0.128
-578.777	35.295	-0.137	-0.121
-577.763	616.195	-0.141	-0.356
-576.748	-130.134	-0.080	-0.011
-575.733	41.067	0.248	-0.226
-574.719	41.240	-0.218	0.199
-573.704	23.520	-0.194	0.161
-572.690	-191.545	0.238	0.002
-571.675	-132.731	0.378	0.049
-570.661	-158.678	0.369	0.021
-569.646	-159.724	-0.128	-0.007
-568.631	-81.841	0.374	0.123
-567.617	-200.000	-0.004	-0.070
-566.602	-200.000	0.025	-0.250
-565.588	-90.330	0.273	0.080
-564.573	-200.000	0.012	0.108
-563.558	63.673	0.127	0.129
-562.544	-129.276	0.089	0.012
-561.529	800.000	-0.113	0.325
-560.515	-8.787	-0.275	-0.186
-559.500	-103.679	-0.139	-0.033
-558.485	-115.669	-0.170	0.032
-557.471	-200.000	-0.017	-0.161
-556.456	-105.024	0.470	-0.108
-555.442	-75.090	0.172	-0.062
-554.427	-93.805	0.154	-0.043
-553.412	-200.000	0.028	0.274
-552.398	16.127	-0.296	-0.235
-551.383	-200.000	0.012	0.111
-550.369	78.742	0.265	0.286
-549.354	-49.953	-0.179	-0.086
-548.339	261.023	-0.076	0.133
-547.325	266.800	0.032	0.056
-546.310	-82.846	-0.252	-0.082
-545.296	-75.004	-0.106	0.038
-544.281	172.276	0.044	0.064
-543.266	-200.000	0.031	0.140
-542.252	217.110	0.113	-0.182
-541.237	722.888	-0.039	-0.103
-540.223	-13.233	-0.157	-0.103
-539.208	1.297	0.066	-0.048
-538.193	-61.586	0.110	0.046
-537.179	6.639	0.305	-0.229
-536.164	-109.352	0.349	0.075
-535.150	-188.390	-0.222	-0.003
-534.135	800.000	0.036	0.107
-533.121	-200.000	-0.052	-0.605
-532.106	17.304	-0.187	-0.149
-531.091	-95.662	0.582	-0.157
-530.077	548.050	-0.065	0.157
-529.062	251.403	0.154	-0.265
-528.048	221.236	-0.161	0.261
-527.033	-200.000	-0.008	-0.134
-526.018	259.001	0.118	-0.205
-525.004	227.513	0.097	-0.158
-523.989	287.310	-0.085	-0.155
-522.975	196.517	-0.103	0.157
-521.960	-14.308	0.073	-0.048
-520.945	186.042	-0.211	0.316
-519.931	-198.729	0.428	0.002
-518.916	530.955	0.120	-0.286
-517.902	-26.211	-0.300	-0.177
-516.887	147.107	0.167	0.226
-515.872	136.221	-0.120	0.158
-514.858	800.000	-0.029	0.111
-513.843	-92.728	0.365	0.103
-512.829	-123.620	-0.090	0.014
-511.814	-94.771	-0.188	-0.051
-510.799	800.000	-0.115	0.331
-509.785	100.440	-0.038	0.044
-508.770	800.000	-0.082	-0.338
-507.756	-48.420	-0.081	-0.039
-506.741	185.140	-0.079	0.117
-505.726	756.660	-0.110	0.300
-504.712	-77.690	-0.144	-0.050
-503.697	-78.733	-0.187	-0.064
-502.683	24.675	-0.061	0.051
-501.668	-145.815	0.121	-0.011
-500.653	-51.497	0.188	-0.088
-499.639	221.919	0.064	0.104
-498.624	-38.995	0.143	-0.076
-497.610	261.880	0.138	-0.240
-496.595	168.471	0.121	0.173
-495.581	-95.663	-0.131	0.035
-494.566	-119.755	-0.333	0.058
-493.551	-145.143	-0.155	0.014
-492.537	29.917	-0.037	-0.032
-491.522	-93.518	0.092	-0.025
-490.508	-30.099	-0.081	0.046
-489.493	800.000	0.156	0.537
-488.478	-200.000	0.018	-0.190
-487.464	-105.830	0.312	-0.071
-486.449	113.583	-0.077	0.094
-485.435	800.000	0.048	-0.147
-484.420	-0.072	0.228	-0.163
-483.405	-200.000	-0.029	-0.362
-482.391	400.820	-0.121	0.256
-481.376	-135.425	-0.414	-0.050
-480.362	107.673	0.127	-0.152
-479.347	-129.472	-0.161	0.022
-478.332	-200.000	-0.020	-0.128
-477.318	-150.906	0.101	-0.008
-476.303	-15.341	0.095	0.061
-475.289	52.967	-0.271	0.260
-474.274	-62.781	0.306	-0.127
-473.259	800.000	-0.132	-0.430
-472.245	32.000	0.170	-0.147
-471.230	800.000	-0.021	0.076
-470.216	-162.416	0.229	-0.011
-469.201	-200.000	0.020	-0.233
-468.186	-55.523	0.228	0.103
-467.172	-200.000	0.037	-0.324
-466.157	-200.000	0.036	0.158
-465.143	636.741	-0.104	-0.264
-464.128	-84.929	0.195	-0.061
-463.113	639.731	-0.099	0.253
-462.099	800.000	-0.135	0.508
-461.084	-56.547	-0.280	-0.125
-460.070	-200.000	-0.015	0.174
-459.055	89.187	0.154	0.173
-458.040	126.391	0.051	-0.065
-457.026	257.660	-0.163	0.282
-456.011	-7.637	0.149	0.101
-454.997	-30.125	0.450	0.257
-453.982	-112.271	-0.270	-0.054
-452.968	-33.242	-0.176	-0.098
-451.953	15.730	-0.168	0.132
-450.938	-121.098	0.405	0.068
-449.924	-200.000	0.035	0.215
-448.909	-200.000	-0.009	0.067
-447.895	-55.616	-0.327	-0.147
-446.880	-200.000	0.020	-0.108
-445.865	-76.856	0.150	-0.053
-444.851	-104.382	-0.159	-0.037
-443.836	59.346	0.082	-0.081
-442.822	-75.695	-0.080	0.029
-441.807	58.899	0.125	-0.124
-440.792	0.480	-0.064	-0.046
-439.778	498.234	-0.059	0.136
-438.763	179.854	0.143	-0.211
-437.749	-200.000	-0.054	-0.318
-436.734	-82.437	-0.133	0.043
-435.719	82.291	-0.181	-0.197
-434.705	-163.122	0.407	-0.020
-433.690	-43.922	0.109	-0.055
-432.676	512.480	0.134	-0.314
-431.661	-200.000	-0.004	-0.098
-430.646	800.000	0.041	-0.124
-429.632	7.971	-0.038	-0.028
-428.617	164.171	0.119	-0.168
-427.603	107.352	-0.155	-0.185
-426.588	-34.825	0.383	-0.210
-425.573	-41.126	-0.168	0.087
-424.559	-196.208	0.402	-0.003
-423.544	800.000	-0.103	-0.381
-422.530	336.864	0.037	0.072
-421.515	-200.000	0.025	-0.148
-420.500	762.932	0.083	-0.226
-419.486	-154.005	0.302	-0.021
-418.471	113.798	-0.198	-0.242
-417.457	-15.771	-0.164	-0.105
-416.442	800.000	-0.110	0.334
-415.428	-200.000	0.014	0.085
-414.413	800.000	-0.107	0.334
-413.398	-43.241	0.079	0.040
-412.384	800.000	-0.117	0.378
-411.369	81.369	0.115	0.125
-410.355	-89.397	0.178	-0.053
-409.340	-75.767	0.126	-0.045
-408.325	-200.000	0.052	-0.447
-407.311	24.525	-0.227	0.188
-406.296	-104.693	0.117	-0.027
-405.282	-43.041	-0.138	0.070
-404.267	-114.711	-0.330	-0.063
-403.252	57.055	-0.335	-0.327
-402.238	-12.024	-0.294	-0.193
-401.223	-135.573	0.177	0.021
-400.209	144.746	-0.171	0.230
-399.194	559.686	0.093	0.225
-398.179	48.537	0.217	0.203
-397.165	67.038	-0.172	-0.175
-396.150	475.163	0.047	-0.106
-395.136	800.000	0.101	-0.283
-394.121	23.171	-0.246	0.202
-393.106	171.557	0.057	0.082
-392.092	800.000	0.081	-0.239
-391.077	-126.107	-0.275	0.041
-390.063	16.810	-0.084	0.066
-389.048	130.370	0.115	0.147
-388.033	258.612	-0.078	-0.135
-387.019	-106.232	-0.291	-0.065
-386.004	269.310	-0.108	0.190
-384.990	-53.878	0.144	-0.066
-383.975	-200.000	-0.064	0.281
-382.960	-200.000	0.018	-0.250
-381.946	-129.669	0.492	0.068
-380.931	369.393	-0.158	0.320
-379.917	-12.709	0.243	-0.159
-378.902	800.000	0.080	0.284
-377.888	98.867	0.122	-0.141
-376.873	-200.000	-0.013	0.124
-375.858	-200.000	0.007	0.211
-374.844	276.784	-0.019	-0.034
-373.829	190.385	0.140	-0.210
-372.815	-88.377	0.214	-0.064
-371.800	40.130	0.032	0.029
-370.785	223.990	0.178	0.288
-369.771	65.985	-0.282	0.286
-368.756	-67.896	-0.034	0.013
-367.742	52.561	-0.101	0.097
-366.727	-200.000	0.059	-0.276
-365.712	552.931	-0.060	-0.145
-364.698	80.346	-0.260	0.280
-363.683	-76.959	-0.285	-0.100
-362.669	-200.000	0.291	-0.001
-361.654	-80.562	0.085	0.028
-360.639	-112.726	-0.193	0.038
-359.625	-73.313	0.197	0.072
-358.610	-200.000	-0.022	-0.181
-357.596	-144.593	0.473	0.044
-356.581	314.596	-0.166	0.312
-355.566	-36.294	-0.058	0.031
-354.552	-101.927	0.208	0.050
-353.537	-187.762	-0.224	-0.003
-352.523	-200.000	-0.010	0.370
-351.508	283.590	0.068	0.122
-350.493	800.000	-0.022	0.069
-349.479	-112.445	-0.077	0.015
-348.464	-168.705	0.337	0.013
-347.450	-147.160	-0.129	0.011
-346.435	436.441	0.178	-0.388
-345.420	73.889	-0.085	0.089
-344.406	-200.000	-0.043	-0.209
-343.391	-137.105	-0.369	-0.042
-342.377	-200.000	0.019	-0.113
-341.362	-105.519	0.165	-0.037
-340.348	102.460	-0.204	0.239
-339.333	106.294	0.062	-0.074
-338.318	7.602	-0.165	0.123
-337.304	177.921	-0.122	-0.178
-336.289	-25.368	-0.389	0.230
-335.275	-197.811	0.471	0.003
-334.260	1.907	0.287	-0.207
-333.245	158.574	0.186	-0.258
-332.231	259.079	0.165	-0.284
-331.216	-134.685	0.224	-0.027
-330.202	-159.592	-0.201	-0.011
-329.187	800.000	-0.077	-0.277
-328.172	-69.026	0.013	-0.005
-327.158	-83.235	-0.261	-0.084
-326.143	800.000	0.184	0.575
-325.129	-24.034	0.106	0.063
-324.114	28.106	0.149	0.125
-323.099	800.000	-0.081	-0.252
-322.085	54.380	0.079	-0.076
-321.070	-200.000	0.078	0.355
-320.056	-170.105	0.188	0.007
-319.041	-6.589	-0.251	0.170
-318.026	24.716	-0.096	0.079
-317.012	-49.459	0.254	-0.121
-315.997	312.571	0.112	0.211
-314.983	-70.425	-0.082	-0.031
-313.968	-187.568	0.090	0.001
-312.953	-2.789	-0.372	-0.260
-311.939	-38.743	-0.147	-0.077
-310.924	95.312	0.056	-0.064
-309.910	101.018	-0.271	-0.315
-308.895	259.168	-0.034	-0.059
-307.880	297.087	0.019	0.035
-306.866	-42.220	-0.221	-0.113
-305.851	-142.914	-0.219	-0.021
-304.837	22.034	-0.245	0.199
-303.822	-18.546	0.261	-0.162
-302.807	-58.922	-0.165	0.071
-301.793	133.300	-0.157	-0.203
-300.778	-34.721	-0.247	-0.135
-299.764	64.182	-0.203	-0.204
-298.749	128.953	-0.113	-0.144
-297.735	229.541	-0.144	-0.235
-296.720	224.421	-0.084	-0.136
-295.705	-200.000	0.006	-0.171
-294.691	120.860	0.181	0.225
-293.676	800.000	0.131	0.364
-292.662	748.879	0.068	-0.183
-291.647	698.658	-0.118	0.309
-290.632	719.644	-0.066	0.175
-289.618	71.027	-0.124	0.128
-288.603	-200.000	-0.009	0.269
-287.589	-25.838	-0.254	-0.149
-286.574	314.880	0.085	0.160
-285.559	-45.568	0.159	0.078
-284.545	357.844	0.118	-0.234
-283.530	-133.093	-0.489	0.062
-282.516	-4.880	-0.231	-0.159
-281.501	-200.000	0.007	0.109
-280.486	-156.157	0.186	-0.012
-279.472	-200.000	0.081	0.360
-278.457	-200.000	-0.019	0.135
-277.443	116.986	-0.297	-0.363
-276.428	176.534	-0.191	0.277
-275.413	800.000	0.051	0.198
-274.399	800.000	0.051	0.174
-273.384	662.570	0.016	-0.040
-272.370	688.299	0.140	-0.365
-271.355	-184.464	-0.128	-0.002
-270.340	-121.413	0.195	0.032
-269.326	-44.977	0.083	0.041
-268.311	800.000	0.085	0.350
-267.297	48.406	0.045	0.042
-266.282	-4.378	0.269	-0.186
-265.267	-2.249	0.131	-0.092
-264.253	-98.519	0.457	-0.116
-263.238	-200.000	-0.029	-0.204
-262.224	-79.638	0.141	0.047
-261.209	-88.340	0.127	0.038
-260.195	-200.000	0.002	0.123
-259.180	61.015	0.083	0.082
-258.165	145.496	0.344	0.460
-257.151	-200.000	0.022	-0.114
-256.136	70.366	-0.142	-0.146
-255.122	67.098	-0.241	-0.245
-254.107	180.040	0.115	-0.168
-253.092	309.530	0.115	-0.214
-252.078	-200.000	-0.014	-0.185
-251.063	0.524	-0.083	0.059
-250.049	375.221	-0.153	0.312
-249.034	800.000	-0.081	0.250
-248.019	418.207	0.055	0.117
-247.005	-182.313	0.272	-0.005
-245.990	800.000	0.112	0.345
-244.976	-116.059	-0.213	-0.039
-243.961	800.000	0.036	-0.130
-242.946	100.083	-0.036	0.041
-241.932	-67.204	-0.472	-0.185
-240.917	-176.360	-0.258	-0.007
-239.903	800.000	0.045	-0.187
-238.888	800.000	0.035	-0.120
-237.873	259.622	0.107	0.183
-236.859	5.788	0.222	0.164
-235.844	211.895	0.055	0.086
-234.830	10.969	-0.158	-0.120
-233.815	-200.000	0.039	-0.250
-232.800	800.000	-0.034	-0.137
-231.786	-200.000	0.034	0.315
-230.771	530.302	-0.015	0.034
-229.757	-65.117	0.014	0.006
-228.742	-200.000	-0.002	-0.235
-227.727	105.981	0.134	-0.158
-226.713	337.916	0.100	-0.194
-225.698	180.240	-0.069	0.101
-224.684	27.193	0.268	0.224
-223.669	70.025	0.058	0.060
-222.655	800.000	-0.026	-0.092
-221.640	14.496	-0.110	0.086
-220.625	800.000	0.086	0.265
-219.611	800.000	0.011	0.035
-218.596	322.756	0.045	-0.085
-217.582	800.000	0.046	0.172
-216.567	800.000	0.056	-0.177
-215.552	-200.000	0.006	0.373
-214.538	138.826	0.037	0.048
-213.523	-103.112	0.240	0.056
-212.509	800.000	0.073	-0.226
-211.494	-200.000	0.037	0.277
-210.479	120.732	-0.017	-0.021
-209.465	-49.714	-0.177	-0.084
-208.450	-200.000	0.035	-0.185
-207.436	132.633	-0.092	-0.118
-206.421	468.437	0.106	0.235
-205.406	-163.263	0.340	0.016
-204.392	197.907	-0.074	-0.113
-203.377	800.000	0.028	-0.094
-202.363	64.696	0.091	-0.091
-201.348	-106.466	-0.142	-0.031
-200.333	-200.000	0.055	-0.480
-199.319	432.261	0.191	0.411
-198.304	-200.000	0.016	0.080
-197.290	-200.000	-0.008	-0.428
-196.275	-137.661	0.105	-0.012
-195.260	153.359	-0.261	-0.355
-194.246	-114.500	-0.320	-0.061
-193.231	800.000	-0.078	0.236
-192.217	-200.000	0.036	0.280
-191.202	-200.000	-0.007	0.054
-190.187	-170.932	0.210	-0.007
-189.173	779.158	-0.071	0.192
-188.158	-200.000	0.006	0.166
-187.144	800.000	0.087	-0.334
-186.129	-21.295	-0.063	0.038
-185.114	791.003	0.060	0.165
-184.100	-88.896	-0.233	0.069
-183.085	800.000	-0.041	-0.129
-182.071	800.000	0.059	-0.178
-181.056	167.018	0.264	0.372
-180.042	353.829	0.213	0.420
-179.027	-200.000	-0.031	0.135
-178.012	-200.000	-0.032	0.195
-176.998	-54.926	-0.257	-0.115
-175.983	-200.000	0.041	0.227
-174.969	-164.296	0.267	0.012
-173.954	800.000	-0.121	-0.387
-172.939	196.729	0.037	-0.056
-171.925	-141.113	-0.016	0.002
-170.910	-86.867	-0.031	0.009
-169.896	-12.514	-0.053	-0.034
-168.881	-14.641	-0.122	-0.078
-167.866	-142.409	0.264	-0.026
-166.852	575.675	0.030	-0.073
-165.837	143.127	0.125	-0.165
-164.823	-59.316	0.114	-0.049
-163.808	-200.000	0.040	0.376
-162.793	94.288	-0.132	-0.149
-161.779	-140.466	0.103	0.011
-160.764	-200.000	-0.005	-0.059
-159.750	223.683	-0.070	0.113
-158.735	720.193	-0.023	0.060
-157.720	166.595	-0.107	0.151
-156.706	800.000	-0.077	-0.225
-155.691	-200.000	-0.028	0.234
-154.677	229.689	0.164	0.265
-153.662	118.599	0.203	0.249
-152.647	-141.961	-0.155	0.015
-151.633	43.289	-0.079	-0.072
-150.618	742.652	0.095	-0.254
-149.604	-19.743	0.236	-0.145
-148.589	-200.000	-0.021	-0.133
-147.574	54.152	0.314	0.299
-146.560	741.282	-0.028	-0.074
-145.545	-37.667	-0.134	0.071
-144.531	637.444	-0.063	0.158
-143.516	161.148	-0.071	0.099
-142.502	13.697	-0.213	-0.164
-141.487	-200.000	0.042	-0.288
-140.472	-117.730	0.444	-0.079
-139.458	68.887	0.111	0.113
-138.443	-164.607	-0.304	0.014
-137.429	-45.629	-0.238	0.117
-136.414	-29.934	-0.177	-0.100
-135.399	-200.000	-0.013	-0.091
-134.385	-92.589	0.215	-0.060
-133.370	-71.679	0.215	-0.080
-132.356	800.000	0.089	0.365
-131.341	-200.000	-0.010	0.153
-130.326	3.286	-0.212	-0.153
-129.312	-200.000	0.018	-0.146
-128.297	363.053	0.092	-0.184
-127.283	171.987	-0.085	-0.121
-126.268	-200.000	-0.017	0.214
-125.253	800.000	0.035	0.111
-124.239	-32.329	-0.077	-0.043
-123.224	91.460	-0.186	0.207
-122.210	9.708	-0.170	0.127
-121.195	800.000	-0.048	0.179
-120.180	-47.474	-0.191	0.092
-119.166	64.745	0.143	0.143
-118.151	-11.087	-0.226	-0.148
-117.137	-41.546	0.348	0.177
-116.122	-137.906	-0.114	0.013
-115.107	-149.720	-0.371	-0.029
-114.093	708.627	-0.111	0.290
-113.078	-167.694	-0.268	-0.011
-112.064	-3.726	0.248	-0.171
-111.049	-14.618	0.126	0.080
-110.034	-87.466	-0.149	-0.045
-109.020	71.614	-0.174	0.179
-108.005	-200.000	0.025	0.110
-106.991	-139.576	0.151	-0.016
-105.976	224.494	-0.095	-0.152
-104.962	-200.000	0.004	0.267
-103.947	257.629	-0.171	0.291
-102.932	800.000	-0.041	0.124
-101.918	359.822	0.056	0.111
-100.903	-115.042	-0.081	0.015
-99.889	-0.405	0.168	0.118
-98.874	132.848	0.140	-0.178
-97.859	74.918	0.198	-0.207
-96.845	14.123	0.084	-0.065
-95.830	-13.414	-0.129	0.083
-94.816	77.158	-0.046	-0.048
-93.801	280.433	0.138	-0.245
-92.786	420.244	0.046	0.098
-91.772	-143.033	0.376	-0.036
-90.757	-111.906	-0.333	0.067
-89.743	-28.359	0.114	-0.065
-88.728	-30.341	0.152	0.085
-87.713	-60.413	0.224	-0.094
-86.699	-62.904	-0.204	0.083
-85.684	-89.919	-0.230	0.066
-84.670	800.000	0.021	0.065
-83.655	263.411	0.127	0.219
-82.640	-26.580	0.231	0.134
-81.626	800.000	-0.143	-0.404
-80.611	262.523	0.048	0.083
-79.597	-64.952	-0.262	0.105
-78.582	-29.807	0.167	-0.094
-77.567	226.598	-0.090	0.145
-76.553	800.000	0.071	-0.248
-75.538	-167.243	-0.238	0.010
-74.524	69.426	0.258	0.262
-73.509	-28.594	-0.210	-0.119
-72.494	217.763	-0.175	0.276
-71.480	-120.795	-0.194	0.032
-70.465	105.997	0.074	-0.086
-69.451	291.689	-0.133	0.239
-68.436	-200.000	0.014	0.175
-67.422	-96.634	0.044	-0.012
-66.407	-41.009	-0.330	0.169
-65.392	-200.000	0.001	0.045
-64.378	456.417	0.143	0.314
-63.363	133.138	-0.021	0.027
-62.349	570.016	-0.002	0.006
-61.334	24.762	-0.841	-0.689
-60.319	328.815	0.318	0.603
-59.305	-200.000	-0.205	-0.943
-58.290	285.106	0.514	0.915
-57.276	260.142	0.827	1.413
-56.261	-200.000	96.735	587.407
-55.246	666.757	1384.895	3538.108
-54.232	189.800	2587.852	3837.562
-53.217	125.385	2167.421	2702.728
-52.203	47.221	1623.260	1493.829
-51.188	38.671	1360.245	1199.688
-50.173	35.373	1317.763	1142.570
-49.159	57.557	1367.538	1320.758
-48.144	62.523	1385.145	1367.738
-47.130	39.090	1338.889	1183.189
-46.115	35.462	1320.928	1145.666
-45.100	35.220	1316.591	1140.417
-44.086	35.109	1314.113	1137.564
-43.071	35.086	1311.787	1135.370
-42.057	34.903	1309.643	1132.385
-41.042	35.071	1308.143	1132.035
-40.027	34.971	1306.989	1130.406
-39.013	35.011	1304.771	1128.675
-37.998	35.238	1302.289	1127.819
-36.984	35.181	1301.067	1126.381
-35.969	35.216	1299.741	1125.398
-34.954	35.140	1298.005	1123.401
-33.940	35.217	1296.565	1122.559
-32.925	35.205	1295.271	1121.327
-31.911	35.260	1293.586	1120.146
-30.896	35.352	1292.034	1119.291
-29.881	35.338	1290.543	1117.876
-28.867	35.295	1289.640	1116.799
-27.852	35.347	1287.751	1115.421
-26.838	35.356	1286.464	1114.314
-25.823	35.193	1285.940	1112.869
-24.809	35.359	1283.959	1112.074
-23.794	35.186	1282.956	1110.158
-22.779	35.311	1281.051	1109.191
-21.765	35.305	1279.970	1108.176
-20.750	35.123	1279.135	1106.359
-19.736	35.212	1277.500	1105.412
-18.721	35.078	1276.574	1103.793
-17.706	35.230	1275.009	1103.275
-16.692	35.200	1273.592	1101.833
-15.677	35.204	1272.630	1100.976
-14.663	35.207	1271.479	1099.956
-13.648	35.175	1270.431	1098.821
-12.633	35.068	1270.539	1098.255
-11.619	35.065	1269.159	1097.002
-10.604	35.057	1268.039	1095.945
-9.590	35.129	1267.201	1095.591
-8.575	35.160	1265.929	1094.625
-7.560	35.105	1265.262	1093.688
-6.546	35.093	1264.382	1092.815
-5.531	34.986	1263.525	1091.422
-4.517	35.169	1262.552	1091.582
-3.502	35.129	1261.541	1090.435
-2.487	35.123	1260.707	1089.641
-1.473	35.109	1256.716	1086.067
-0.458	33.437	1241.257	1063.291
0.556	28.844	1222.709	1020.791
1.571	24.706	1226.982	1001.153
2.586	23.536	1241.747	1006.475
3.600	22.728	1230.707	992.893
4.615	17.255	1158.889	905.784
5.629	8.690	1082.703	803.344
6.644	4.980	1062.468	769.963
7.659	4.785	1059.711	766.940
8.673	4.773	1058.675	766.062
9.688	4.802	1057.756	765.473
10.702	4.986	1055.774	764.875
11.717	9.565	1062.243	792.052
12.731	16.996	1072.596	836.468
13.746	19.797	1075.436	852.433
14.761	18.762	1073.969	846.098
15.775	17.727	1071.499	838.989
16.790	16.652	1069.324	831.931
17.804	15.992	1067.953	827.551
18.819	15.647	1066.916	824.980
19.834	15.354	1065.997	822.761
20.848	15.166	1065.186	821.139
21.863	14.977	1064.061	819.273
22.877	14.819	1063.391	817.912
23.892	14.810	1062.692	817.257
24.907	14.766	1062.120	816.531
25.921	14.900	1061.062	816.298
26.936	14.869	1059.657	814.993
27.950	14.988	1057.974	814.210
28.965	14.913	1056.857	812.912
29.980	15.075	1055.173	812.329
30.994	15.066	1054.745	811.886
32.009	15.188	1053.213	811.226
33.023	15.183	1052.134	810.297
34.038	15.120	1051.225	809.221
35.053	14.959	1050.105	807.512
36.067	14.956	1049.666	807.086
37.082	15.097	1048.070	806.467
38.096	15.083	1048.155	806.397
39.111	14.968	1047.467	805.238
40.126	14.953	1046.127	804.065
41.140	14.763	1044.913	802.153
42.155	14.692	1043.405	800.581
43.169	14.718	1041.919	799.497
44.184	14.713	1041.519	799.091
45.199	14.689	1040.363	798.024
46.213	14.802	1039.360	797.720
47.228	14.811	1038.460	797.000
48.242	15.014	1037.070	796.833
49.257	14.887	1036.128	795.434
50.271	14.967	1035.959	795.615
51.286	14.867	1034.786	794.168
52.301	14.838	1034.028	793.375
53.315	14.814	1032.957	792.370
54.330	14.888	1031.368	791.434
55.344	14.616	1031.587	790.246
56.359	14.823	1030.283	790.156
57.374	14.793	1028.584	788.639
58.388	14.761	1027.951	787.934
59.403	14.665	1027.481	787.050
60.417	14.799	1026.034	786.506
61.432	14.729	1025.262	785.512
62.447	14.572	1024.823	784.368
63.461	14.528	1024.452	783.809
64.476	14.570	1022.955	782.789
65.490	14.514	1022.431	782.059
66.505	14.621	1021.520	781.793
67.520	14.626	1021.418	781.671
68.534	14.697	1020.147	780.960
69.549	14.675	1019.415	780.229
70.563	14.542	1018.789	779.058
71.578	14.535	1017.993	778.347
72.593	14.493	1017.192	777.471
73.607	14.517	1016.197	776.753
74.622	14.512	1015.771	776.337
75.636	14.497	1014.967	775.584
76.651	14.513	1014.621	775.325
77.666	14.568	1013.930	774.982
78.680	14.514	1013.292	774.177
79.695	14.578	1012.404	773.727
80.709	14.688	1012.051	773.898
81.724	14.653	1011.029	772.886
82.739	14.831	1010.540	773.269
83.753	15.016	1009.850	773.527
84.768	14.956	1009.457	772.880
85.782	15.228	1008.342	773.210
86.797	15.159	1007.127	771.896
87.812	14.900	1006.752	770.344
88.826	15.001	1005.568	769.834
89.841	15.075	1004.686	769.434
90.855	15.102	1003.895	768.883
91.870	15.021	1003.105	767.839
92.884	15.233	1001.973	767.876
93.899	15.072	1001.666	766.837
94.914	15.145	1000.726	766.379
95.928	15.124	999.566	765.330
96.943	15.048	998.957	764.446
97.957	15.098	997.749	763.682
98.972	15.076	997.107	763.026
99.987	15.076	996.138	762.214
101.001	15.057	995.243	761.379
102.016	15.100	994.333	760.808
103.030	15.130	993.496	760.236
104.045	15.004	992.901	759.143
105.060	15.043	992.013	758.574
106.074	14.781	991.328	756.795
107.089	14.812	989.973	755.836
108.103	14.715	989.417	754.907
109.118	14.737	988.408	754.167
110.133	14.611	987.662	752.965
111.147	14.689	986.209	752.143
112.162	14.718	985.714	751.828
113.176	14.911	984.751	751.896
114.191	14.732	984.504	750.836
115.206	14.865	983.293	750.443
116.220	14.864	982.637	749.868
117.235	14.738	982.098	748.829
118.249	14.857	980.709	748.234
119.264	14.790	979.901	747.252
120.279	14.657	979.712	746.449
121.293	14.654	978.580	745.508
122.308	14.660	977.429	744.589
123.322	14.701	976.419	743.935
124.337	14.796	975.216	743.376
125.352	14.695	974.698	742.469
126.366	14.740	973.362	741.586
127.381	14.706	972.505	740.717
128.395	14.681	971.895	740.074
129.410	14.674	971.163	739.421
130.424	14.777	970.192	739.071
131.439	14.865	969.192	738.632
132.454	14.822	968.978	738.216
133.468	14.971	967.673	737.814
134.483	14.918	967.069	737.051
135.497	14.914	965.990	736.147
136.512	14.958	965.302	735.752
137.527	14.821	964.545	734.505
138.541	14.975	963.642	734.431
139.556	15.069	962.918	734.226
140.570	15.043	962.579	733.790
141.585	15.177	962.093	733.941
142.600	15.121	960.832	732.669
143.614	15.172	960.191	732.337
144.629	15.278	959.221	731.998
145.643	15.147	958.345	730.691
146.658	15.189	956.853	729.671
147.673	14.782	956.793	727.788
148.687	14.934	955.497	727.402
149.702	14.916	954.727	726.670
150.716	14.902	953.665	725.737
151.731	14.857	953.234	725.150
152.746	14.890	952.523	724.687
153.760	14.946	951.865	724.368
154.775	15.087	951.637	724.740
155.789	15.138	951.085	724.475
156.804	15.106	950.020	723.461
157.819	15.133	949.241	722.921
158.833	15.177	949.173	722.996
159.848	15.358	947.912	722.750
160.862	15.153	947.125	721.205
161.877	15.029	946.094	719.823
162.892	15.015	945.483	719.235
163.906	15.074	944.151	718.410
164.921	15.034	943.319	717.540
165.935	15.074	942.305	716.879
166.950	15.082	941.667	716.363
167.964	15.075	940.781	715.596
168.979	14.980	939.802	714.382
169.994	15.192	938.574	714.289
171.008	15.248	938.070	714.082
172.023	15.293	937.781	713.989
173.037	15.281	937.142	713.389
174.052	15.202	936.402	712.427
175.067	15.048	935.648	711.134
176.081	15.189	934.979	711.162
177.096	15.076	934.591	710.327
178.110	15.109	934.051	709.991
179.125	15.241	933.319	709.934
180.140	15.293	932.505	709.469
181.154	15.241	932.330	709.054
182.169	15.347	931.917	709.126
183.183	15.404	931.171	708.737
184.198	15.346	930.610	708.000
185.213	15.427	929.778	707.648
186.227	15.393	928.838	706.725
187.242	15.437	928.816	706.832
188.256	15.585	927.615	706.478
189.271	15.438	926.961	705.301
190.286	15.279	926.635	704.321
191.300	15.084	925.537	702.608
192.315	15.045	924.501	701.596
193.329	15.073	924.204	701.423
194.344	15.206	923.858	701.658
195.359	15.196	923.204	701.058
196.373	15.379	922.428	701.171
197.388	15.518	922.157	701.483
198.402	15.704	921.662	701.821
199.417	15.745	921.147	701.535
200.432	15.665	920.536	700.674
201.446	15.805	920.028	700.809
202.461	15.963	919.479	700.990
203.475	15.850	918.751	699.899
204.490	15.690	918.329	698.852
205.504	15.502	917.682	697.515
206.519	15.575	916.513	696.869
207.534	15.582	915.899	696.370
208.548	15.852	914.903	696.669
209.563	15.567	914.326	694.989
210.577	15.720	913.830	695.183
211.592	15.753	913.430	694.952
212.607	15.767	912.789	694.463
213.621	15.788	911.836	693.765
214.636	15.792	911.234	693.258
215.650	15.857	910.634	693.011
216.665	15.964	909.408	692.454
217.680	15.855	909.407	691.946
218.694	16.018	908.430	691.811
219.709	15.918	907.795	690.854
220.723	15.973	906.833	690.285
221.738	15.971	906.375	689.868
222.753	15.928	905.539	688.997
223.767	15.974	905.158	688.831
224.782	16.049	904.510	688.587
225.796	16.036	904.179	688.221
226.811	16.097	903.435	687.842
227.826	16.003	902.942	687.021
228.840	15.738	902.018	685.176
229.855	15.939	900.971	685.139
230.869	15.959	900.428	684.747
231.884	15.781	900.208	683.794
232.899	15.823	898.925	682.932
233.913	15.835	898.440	682.551
234.928	15.818	897.714	681.869
235.942	15.810	897.192	681.383
236.957	15.869	896.427	680.978
237.972	15.929	896.088	680.903
238.986	15.915	895.364	680.239
240.001	15.891	894.732	679.598
241.015	15.946	894.086	679.269
242.030	16.009	893.546	679.053
243.045	16.042	892.469	678.310
244.059	15.959	892.237	677.740
245.074	16.045	891.616	677.551
246.088	16.188	890.853	677.486
247.103	16.284	890.190	677.307
248.117	16.307	889.907	677.123
249.132	16.426	889.299	677.079
250.147	16.459	889.168	677.053
251.161	16.475	888.124	676.261
252.176	16.559	887.639	676.169
253.190	16.634	886.750	675.729
254.205	16.621	886.468	675.403
255.220	16.549	885.759	674.516
256.234	16.585	885.238	674.205
257.249	16.618	884.295	673.558
258.263	16.627	883.441	672.881
259.278	16.524	882.657	671.815
260.293	16.571	882.293	671.666
261.307	16.755	882.120	672.208
262.322	16.814	880.965	671.499
263.336	16.881	880.322	671.215
264.351	16.606	880.136	669.928
265.366	16.833	879.260	670.098
266.380	16.752	878.977	669.502
267.395	16.834	877.712	668.803
268.409	16.717	877.150	667.855
269.424	16.746	876.434	667.364
270.439	16.644	876.137	666.679
271.453	16.684	875.069	665.965
272.468	16.704	874.565	665.601
273.482	16.591	874.161	664.788
274.497	16.580	873.518	664.199
275.512	16.795	872.946	664.549
276.526	16.818	872.168	663.985
277.541	16.804	871.909	663.675
278.555	16.890	871.164	663.386
279.570	16.989	870.640	663.317
280.585	16.889	869.993	662.373
281.599	16.883	869.126	661.632
282.614	16.903	868.215	660.959
283.628	16.847	867.511	660.145
284.643	16.970	867.138	660.284
285.657	16.862	866.643	659.425
286.672	16.993	865.820	659.249
287.687	16.938	865.115	658.441
288.701	16.905	864.830	658.039
289.716	16.924	864.377	657.711
290.730	16.863	863.906	657.056
291.745	16.951	863.145	656.760
292.760	16.992	862.678	656.506
293.774	17.269	861.504	656.625
294.789	17.218	860.962	655.955
295.803	17.022	860.640	654.895
296.818	16.994	860.088	654.311
297.833	17.054	859.183	653.797
298.847	17.051	858.639	653.311
299.862	17.150	858.016	653.160
300.876	17.133	857.633	652.748
301.891	17.182	857.203	652.550
302.906	17.244	856.279	652.026
303.920	17.318	856.101	652.116
304.935	17.259	855.895	651.677
305.949	17.392	854.834	651.318
306.964	17.349	854.150	650.579
307.979	17.380	853.436	650.094
308.993	17.398	853.107	649.855
310.008	17.379	852.422	649.201
311.022	17.291	851.884	648.400
312.037	17.309	851.162	647.863
313.052	17.422	850.300	647.578
314.066	17.285	850.023	646.790
315.081	17.092	849.559	645.644
316.095	17.345	848.781	645.959
317.110	17.189	848.238	644.895
318.125	17.103	848.080	644.390
319.139	17.147	847.967	644.416
320.154	17.164	847.319	643.928
321.168	17.284	846.472	643.683
322.183	17.279	845.987	643.239
323.197	17.270	845.461	642.746
324.212	17.335	844.755	642.402
325.227	17.336	844.412	642.088
326.241	17.314	843.550	641.290
327.256	17.324	843.410	641.165
328.270	17.272	842.749	640.410
329.285	17.223	842.214	639.763
330.300	17.293	841.542	639.459
331.314	17.502	840.597	639.468
332.329	17.467	840.614	639.294
333.343	17.387	840.052	638.509
334.358	17.356	840.060	638.342
335.373	17.675	839.306	638.909
336.387	17.461	839.051	637.859
337.402	17.524	838.993	637.994
338.416	17.733	838.500	638.344
339.431	17.859	837.684	638.139
340.446	17.798	837.476	637.694
341.460	17.910	837.332	637.948
342.475	17.866	836.923	637.413
343.489	17.783	836.272	636.550
344.504	17.835	836.179	636.618
345.519	17.960	835.650	636.627
346.533	17.908	834.848	635.764
347.548	17.806	834.143	634.792
348.562	17.771	833.609	634.199
349.577	17.784	833.031	633.753
350.592	17.653	832.536	632.832
351.606	17.547	831.922	631.916
352.621	17.838	831.224	632.408
353.635	17.771	830.508	631.561
354.650	17.683	830.267	630.996
355.665	17.771	829.639	630.788
356.679	17.851	828.908	630.472
357.694	17.874	828.031	629.834
358.708	17.895	827.900	629.758
359.723	17.892	826.708	628.785
360.738	17.864	826.508	628.473
361.752	17.862	825.808	627.878
362.767	18.112	824.907	628.055
363.781	18.147	824.801	628.047
364.796	18.253	824.278	627.984
365.810	18.264	824.383	628.048
366.825	18.173	824.129	627.466
367.840	18.193	823.012	626.632
368.854	18.121	822.759	626.119
369.869	18.113	821.850	625.342
370.883	18.194	821.660	625.439
371.898	18.132	821.788	625.254
372.913	18.255	821.224	625.219
373.927	18.278	820.804	624.928
374.942	18.247	820.022	624.166
375.956	18.398	819.401	624.188
376.971	18.436	819.427	624.291
377.986	18.420	819.197	624.001
379.000	18.537	818.183	623.600
380.015	18.595	817.588	623.303
381.029	18.488	817.118	622.498
382.044	18.425	816.621	621.839
383.059	18.434	815.930	621.288
384.073	18.504	815.285	620.997
385.088	18.306	814.792	619.849
386.102	18.391	814.494	619.874
387.117	18.375	813.710	619.166
388.132	18.245	813.320	618.343
389.146	18.379	812.680	618.285
390.161	18.418	812.133	617.957
391.175	18.519	811.751	617.975
392.190	18.490	811.283	617.461
393.205	18.424	810.720	616.739
394.219	18.458	810.367	616.540
395.234	18.543	809.851	616.397
396.248	18.392	809.481	615.519
397.263	18.290	809.083	614.794
398.278	18.213	808.953	614.367
399.292	18.268	808.471	614.143
400.307	18.438	807.854	614.228
401.321	18.340	807.189	613.318
402.336	18.530	806.553	613.459
403.350	18.548	806.109	613.133
404.365	18.634	805.972	613.282
405.380	18.651	805.438	612.881
406.394	18.753	805.010	612.865
407.409	18.726	804.346	612.211
408.423	18.773	804.566	612.489
409.438	18.897	803.888	612.362
410.453	18.932	803.375	612.041
411.467	18.894	803.246	611.755
412.482	18.977	802.762	611.627
413.496	19.015	802.405	611.434
414.511	18.993	802.082	611.056
415.526	19.006	801.493	610.600
416.540	18.986	800.876	610.004
417.555	18.953	800.465	609.522
418.569	18.997	799.975	609.249
419.584	19.045	799.620	609.096
420.599	19.065	799.414	608.955
421.613	155.296	1369.458	1789.864
422.628	134.612	1452.535	1789.969
