DTS Sentinel unit serial number:	SN413079Multiplexer serial number:	ORYXHardware model number:	OX4-SRSoftware version number:	ORYX F/W v4.00 Oryx Data Collector v3.7.2.0data status	okinstallation	princeton_trtdifferential loss correction	single-endedforward channel	channel 1reverse channel	N/Adate	2019/09/15time	13:22:35forward acquisition time	60.00reverse acquisition time	0.00gamma	496.2192k internal	0.2294k external	0.2294temperature offset calibration	0.9977default loss term (dB/km)	0.3790temperature slope calibration	1.0000multiplexer offset coefficient	1.0000multiplexer slope coefficient	1.0000fibre end	0.00T internal ref (°C)	37.31T ext. ref 1 (°C)	4.93T ext. ref 2 (°C)	34.15length (m)	temperature (°C)	Stokes	anti-Stokes-747.200	-63.584	-0.170	-0.071
-746.185	-92.240	-0.115	0.033
-745.171	-68.435	-0.138	-0.055
-744.156	21.508	-0.259	0.215
-743.142	655.942	-0.040	0.105
-742.127	-123.787	-0.298	0.048
-741.112	-82.542	0.408	0.135
-740.098	-200.000	0.053	0.238
-739.083	-200.000	-0.019	0.204
-738.069	56.003	-0.203	-0.201
-737.054	800.000	0.072	0.277
-736.039	-200.000	0.004	-0.218
-735.025	411.286	0.047	0.103
-734.010	56.117	0.058	-0.057
-732.996	-200.000	-0.002	0.204
-731.981	115.951	-0.047	-0.059
-730.966	-77.067	0.253	-0.090
-729.952	28.235	-0.192	-0.166
-728.937	-92.603	0.077	0.022
-727.923	-11.882	-0.205	0.138
-726.908	-99.864	0.094	0.024
-725.894	33.308	0.083	0.074
-724.879	374.836	0.094	-0.197
-723.864	124.274	-0.071	-0.091
-722.850	-200.000	-0.095	-0.472
-721.835	187.319	0.077	0.117
-720.821	-32.845	0.169	0.096
-719.806	-83.723	0.331	-0.108
-718.791	-11.359	-0.097	-0.065
-717.777	-200.000	-0.022	-0.117
-716.762	-28.001	0.138	-0.082
-715.748	32.410	-0.149	0.132
-714.733	13.091	-0.084	-0.066
-713.718	3.063	-0.286	-0.213
-712.704	-200.000	-0.043	-0.261
-711.689	-79.660	0.254	0.088
-710.675	139.494	-0.100	-0.134
-709.660	446.401	0.152	-0.340
-708.645	-162.778	-0.219	-0.011
-707.631	-78.476	-0.219	-0.077
-706.616	-194.649	0.322	0.003
-705.602	-200.000	-0.038	-0.325
-704.587	-51.665	-0.098	0.047
-703.572	133.332	0.087	0.115
-702.558	16.402	-0.129	-0.104
-701.543	800.000	0.107	-0.308
-700.529	800.000	-0.049	0.163
-699.514	800.000	-0.016	-0.045
-698.499	-75.202	0.476	-0.174
-697.485	190.495	-0.209	-0.320
-696.470	-7.478	0.299	0.207
-695.456	192.006	0.130	0.201
-694.441	-181.471	0.517	0.010
-693.426	226.888	0.113	0.187
-692.412	176.477	0.058	0.086
-691.397	-12.603	0.206	0.137
-690.383	-200.000	-0.008	-0.243
-689.368	-200.000	-0.047	-0.269
-688.354	-81.729	0.169	0.056
-687.339	-88.087	0.252	-0.077
-686.324	-79.600	-0.188	0.065
-685.310	-29.326	-0.215	0.125
-684.295	-3.263	0.278	0.198
-683.281	661.665	-0.097	0.255
-682.266	91.974	-0.161	0.185
-681.251	-20.442	-0.081	-0.051
-680.237	-105.216	-0.148	-0.034
-679.222	216.700	-0.101	-0.164
-678.208	800.000	-0.049	-0.206
-677.193	151.790	-0.173	0.240
-676.178	-75.494	0.179	0.065
-675.164	-200.000	-0.019	-0.202
-674.149	-200.000	0.009	-0.053
-673.135	-129.415	-0.271	0.038
-672.120	-53.641	0.093	0.044
-671.105	-141.409	0.257	0.027
-670.091	-37.092	-0.035	-0.019
-669.076	-200.000	0.007	0.308
-668.062	81.146	-0.116	-0.128
-667.047	-137.713	0.373	0.043
-666.032	-89.608	0.232	0.070
-665.018	78.853	0.082	0.090
-664.003	33.214	0.231	-0.204
-662.989	-200.000	-0.034	-0.357
-661.974	-23.193	0.386	-0.237
-660.959	53.002	0.139	-0.136
-659.945	-114.024	-0.239	-0.047
-658.930	-88.051	-0.331	0.101
-657.916	-52.089	0.094	0.044
-656.901	-46.680	0.180	-0.090
-655.886	771.949	0.240	-0.667
-654.872	-43.966	-0.189	0.097
-653.857	283.341	-0.104	-0.190
-652.843	-200.000	0.008	-0.063
-651.828	-36.505	-0.163	0.089
-650.814	-77.867	-0.097	0.034
-649.799	46.743	-0.328	-0.310
-648.784	9.206	0.192	-0.148
-647.770	12.613	-0.232	-0.182
-646.755	-99.131	-0.071	0.018
-645.741	-65.407	-0.283	-0.116
-644.726	107.007	-0.081	-0.099
-643.711	144.219	0.204	-0.278
-642.697	800.000	-0.098	-0.292
-641.682	800.000	0.030	0.094
-640.668	-200.000	0.051	0.436
-639.653	-157.181	0.066	-0.004
-638.638	-85.459	0.208	-0.066
-637.624	-148.421	-0.207	-0.017
-636.609	130.249	-0.066	-0.086
-635.595	73.451	0.060	-0.064
-634.580	-92.667	0.204	-0.058
-633.565	-168.200	-0.092	-0.004
-632.551	-200.000	-0.062	0.330
-631.536	767.310	-0.035	-0.098
-630.522	800.000	-0.033	-0.102
-629.507	800.000	-0.025	0.102
-628.492	-70.651	0.203	-0.078
-627.478	-147.086	0.178	-0.016
-626.463	-17.597	-0.053	0.034
-625.449	-200.000	-0.050	0.288
-624.434	-166.873	-0.031	0.001
-623.419	51.796	-0.147	0.142
-622.405	211.483	0.140	-0.224
-621.390	-32.653	0.085	-0.048
-620.376	197.399	0.073	0.114
-619.361	-50.157	-0.279	-0.135
-618.346	-59.226	-0.226	-0.099
-617.332	-87.515	-0.177	0.055
-616.317	157.628	-0.208	-0.293
-615.303	-200.000	0.022	0.138
-614.288	800.000	0.068	0.220
-613.273	25.548	-0.111	-0.094
-612.259	59.810	-0.144	-0.144
-611.244	-48.450	0.231	-0.113
-610.230	455.761	-0.082	-0.185
-609.215	184.555	0.081	-0.122
-608.201	648.578	0.025	0.066
-607.186	-63.562	0.115	-0.048
-606.171	-200.000	0.008	0.356
-605.157	-45.755	0.222	0.112
-604.142	75.758	-0.134	0.144
-603.128	362.586	-0.013	0.026
-602.113	-200.000	0.027	-0.193
-601.098	110.684	-0.132	-0.162
-600.084	-38.059	-0.273	-0.147
-599.069	-148.356	0.159	-0.013
-598.055	-167.105	0.062	-0.003
-597.040	-200.000	-0.033	-0.303
-596.025	-200.000	0.023	-0.136
-595.011	-200.000	-0.004	0.081
-593.996	-119.024	0.022	0.004
-592.982	22.910	0.125	-0.104
-591.967	61.695	-0.236	-0.239
-590.952	-200.000	-0.022	0.397
-589.938	-168.815	-0.100	0.004
-588.923	273.794	0.111	-0.200
-587.909	193.389	-0.012	-0.018
-586.894	226.362	-0.060	0.099
-585.879	-136.492	-0.208	0.025
-584.865	-123.555	0.082	-0.013
-583.850	-200.000	-0.078	-0.459
-582.836	-114.779	-0.128	-0.025
-581.821	655.728	-0.080	0.208
-580.806	90.447	-0.242	-0.275
-579.792	-65.183	0.109	0.045
-578.777	-200.000	-0.033	0.196
-577.763	479.982	-0.166	0.384
-576.748	-200.000	-0.006	-0.085
-575.733	427.326	0.056	-0.123
-574.719	-12.364	0.047	-0.031
-573.704	-134.746	-0.119	0.015
-572.690	40.383	0.130	-0.119
-571.675	75.848	0.033	0.036
-570.661	350.136	-0.126	-0.253
-569.646	135.952	0.214	-0.284
-568.631	-96.624	-0.238	0.064
-567.617	-200.000	-0.028	0.178
-566.602	113.887	-0.157	-0.194
-565.588	20.731	-0.052	0.043
-564.573	224.110	0.058	0.095
-563.558	800.000	-0.083	0.307
-562.544	-166.781	-0.179	0.007
-561.529	121.581	0.197	0.249
-560.515	800.000	-0.082	0.335
-559.500	272.292	-0.120	-0.215
-558.485	40.732	-0.153	-0.140
-557.471	-57.396	-0.032	0.014
-556.456	-13.779	-0.187	0.123
-555.442	-106.958	-0.176	0.039
-554.427	800.000	-0.118	0.437
-553.412	13.107	-0.066	-0.052
-552.398	-79.146	-0.175	0.060
-551.383	-112.856	-0.091	0.018
-550.369	141.605	0.044	0.060
-549.354	96.072	0.091	-0.106
-548.339	16.651	-0.368	-0.296
-547.325	-62.320	-0.218	0.092
-546.310	-65.185	-0.287	-0.117
-545.296	-62.393	-0.148	0.063
-544.281	-200.000	-0.004	-0.188
-543.266	-19.667	0.333	-0.209
-542.252	141.946	0.029	0.039
-541.237	-75.523	-0.167	0.060
-540.223	-189.245	0.464	-0.006
-539.208	744.869	0.045	-0.124
-538.193	-109.168	-0.090	-0.019
-537.179	-200.000	0.011	0.091
-536.164	12.866	-0.054	0.042
-535.150	289.210	0.105	-0.194
-534.135	707.646	0.054	0.145
-533.121	-74.362	-0.194	-0.071
-532.106	800.000	0.025	-0.092
-531.091	800.000	-0.070	-0.269
-530.077	-11.920	0.117	0.078
-529.062	-200.000	-0.027	0.145
-528.048	227.772	0.079	-0.131
-527.033	-139.877	0.255	0.027
-526.018	-198.356	0.164	0.001
-525.004	-109.193	0.128	0.028
-523.989	800.000	-0.071	0.296
-522.975	155.781	-0.040	-0.056
-521.960	37.341	-0.116	0.104
-520.945	-200.000	0.043	0.269
-519.931	10.624	-0.189	0.146
-518.916	539.565	-0.044	0.106
-517.902	-120.058	-0.150	-0.026
-516.887	-38.615	-0.257	0.137
-515.872	80.385	-0.146	0.159
-514.858	-75.200	-0.194	-0.070
-513.843	-81.659	0.163	-0.054
-512.829	-86.747	-0.084	0.026
-511.814	-126.637	-0.410	-0.062
-510.799	-128.052	0.192	0.028
-509.785	405.086	0.124	0.265
-508.770	-200.000	-0.033	-0.232
-507.756	123.173	-0.216	-0.274
-506.741	-20.459	-0.240	-0.149
-505.726	-200.000	-0.041	-0.198
-504.712	648.234	-0.072	0.186
-503.697	-200.000	-0.006	-0.421
-502.683	165.140	0.106	-0.152
-501.668	800.000	0.032	-0.135
-500.653	-200.000	-0.016	-0.151
-499.639	-80.216	0.110	0.037
-498.624	-103.010	0.114	-0.027
-497.610	109.256	0.141	0.171
-496.595	101.030	-0.060	0.070
-495.581	-200.000	0.028	0.202
-494.566	-5.350	-0.055	0.038
-493.551	36.446	-0.212	0.189
-492.537	-52.749	-0.123	0.057
-491.522	11.921	0.277	-0.215
-490.508	800.000	0.111	0.372
-489.493	221.989	0.067	0.110
-488.478	800.000	-0.096	-0.352
-487.464	-200.000	0.015	0.082
-486.449	189.167	-0.145	0.220
-485.435	354.996	0.101	0.204
-484.420	2.193	0.476	-0.348
-483.405	-200.000	-0.015	0.089
-482.391	577.972	-0.065	0.161
-481.376	-200.000	-0.018	-0.184
-480.362	-133.999	-0.441	-0.055
-479.347	-200.000	0.031	-0.220
-478.332	-33.437	0.095	-0.053
-477.318	800.000	-0.049	0.176
-476.303	-35.399	-0.210	-0.115
-475.289	2.835	0.138	-0.101
-474.274	184.123	-0.171	-0.256
-473.259	-200.000	-0.026	0.182
-472.245	88.845	-0.269	0.302
-471.230	5.973	-0.165	0.123
-470.216	-56.991	0.105	0.047
-469.201	-90.164	-0.126	0.037
-468.186	-200.000	-0.120	-0.559
-467.172	-78.952	0.268	0.092
-466.157	158.153	-0.105	0.147
-465.143	-11.095	-0.109	0.073
-464.128	466.465	0.134	-0.303
-463.113	350.600	0.090	-0.180
-462.099	146.742	0.037	0.050
-461.084	-200.000	-0.029	-0.209
-460.070	-176.120	0.341	-0.009
-459.055	800.000	0.109	0.410
-458.040	439.702	0.146	0.322
-457.026	21.194	0.324	-0.266
-456.011	800.000	-0.005	0.020
-454.997	-103.014	-0.144	0.035
-453.982	489.170	0.104	0.241
-452.968	800.000	0.013	-0.049
-451.953	-104.402	-0.095	-0.022
-450.938	-91.949	0.126	-0.036
-449.924	277.947	-0.163	0.293
-448.909	-49.078	-0.262	-0.127
-447.895	-174.933	0.302	0.009
-446.880	17.505	-0.234	-0.188
-445.865	-49.144	-0.127	-0.061
-444.851	524.319	0.099	0.235
-443.836	-107.378	-0.434	0.096
-442.822	-121.142	-0.135	0.023
-441.807	198.927	-0.173	-0.267
-440.792	7.192	0.128	0.097
-439.778	-109.275	0.374	0.080
-438.763	-200.000	0.008	-0.161
-437.749	-200.000	0.026	-0.137
-436.734	-51.994	0.207	0.097
-435.719	-143.337	0.374	-0.036
-434.705	320.654	0.029	-0.055
-433.690	-151.587	0.152	0.011
-432.676	-200.000	-0.022	0.155
-431.661	-40.800	0.033	0.017
-430.646	-25.444	0.281	0.168
-429.632	-137.088	-0.052	-0.006
-428.617	800.000	0.018	0.053
-427.603	217.965	0.132	0.212
-426.588	800.000	0.098	0.344
-425.573	-200.000	-0.005	-0.219
-424.559	82.105	0.141	-0.154
-423.544	42.453	-0.082	0.076
-422.530	18.293	-0.221	0.178
-421.515	800.000	0.085	0.273
-420.500	-164.658	-0.297	0.014
-419.486	-77.238	-0.174	-0.061
-418.471	-52.854	0.360	0.167
-417.457	258.209	0.170	0.296
-416.442	800.000	-0.056	-0.158
-415.428	34.708	0.256	-0.226
-414.413	-33.609	-0.316	0.176
-413.398	33.865	0.068	0.060
-412.384	246.808	0.130	-0.221
-411.369	60.879	0.164	0.164
-410.355	692.402	-0.077	0.203
-409.340	800.000	0.026	0.101
-408.325	7.493	0.239	0.180
-407.311	94.960	-0.203	-0.233
-406.296	119.395	-0.057	-0.071
-405.282	800.000	0.044	0.163
-404.267	-100.191	-0.454	0.114
-403.252	800.000	-0.072	0.222
-402.238	-118.743	-0.269	0.048
-401.223	667.615	0.081	0.212
-400.209	70.922	0.278	0.290
-399.194	-110.300	0.101	-0.021
-398.179	-200.000	-0.041	0.242
-397.165	65.921	0.020	-0.020
-396.150	-200.000	-0.005	0.097
-395.136	410.419	0.130	-0.278
-394.121	285.290	0.268	-0.487
-393.106	-106.728	-0.247	0.055
-392.092	52.657	0.062	-0.059
-391.077	-200.000	0.032	-0.228
-390.063	-56.677	0.398	0.178
-389.048	-25.626	-0.078	-0.047
-388.033	-59.175	0.430	0.187
-387.019	-200.000	-0.026	-0.213
-386.004	-200.000	-0.003	0.039
-384.990	800.000	0.033	-0.129
-383.975	-155.146	0.163	-0.011
-382.960	-113.417	-0.334	0.066
-381.946	-92.387	-0.100	0.028
-380.931	-118.655	-0.104	0.019
-379.917	-200.000	0.000	0.213
-378.902	800.000	-0.092	0.341
-377.888	105.318	0.322	-0.384
-376.873	800.000	0.109	0.311
-375.858	73.218	0.049	-0.052
-374.844	-68.130	0.140	0.055
-373.829	800.000	0.070	-0.255
-372.815	-200.000	-0.060	0.304
-371.800	800.000	-0.102	0.414
-370.785	152.353	-0.047	-0.064
-369.771	-200.000	0.057	-0.445
-368.756	537.532	0.080	-0.191
-367.742	-200.000	-0.018	0.098
-366.727	800.000	0.020	-0.081
-365.712	573.685	-0.078	0.191
-364.698	103.441	-0.299	0.353
-363.683	-200.000	-0.017	0.131
-362.669	551.906	0.069	-0.166
-361.654	-200.000	-0.013	0.095
-360.639	267.930	0.140	0.246
-359.625	-200.000	-0.005	-0.212
-358.610	37.045	-0.034	-0.030
-357.596	-117.055	-0.210	-0.039
-356.581	315.308	0.065	-0.124
-355.566	100.517	-0.045	0.052
-354.552	52.222	-0.023	0.022
-353.537	125.788	-0.195	0.248
-352.523	162.875	0.271	0.383
-351.508	67.763	0.261	0.268
-350.493	26.877	0.126	0.107
-349.479	-131.786	0.379	0.050
-348.464	-11.251	-0.173	-0.115
-347.450	0.446	0.244	-0.175
-346.435	-200.000	-0.036	0.172
-345.420	-36.631	0.094	-0.051
-344.406	-145.199	-0.254	-0.023
-343.391	-72.211	-0.135	0.050
-342.377	8.244	-0.250	0.189
-341.362	-146.414	-0.094	0.008
-340.348	90.360	-0.029	-0.032
-339.333	800.000	0.068	-0.201
-338.318	-124.886	-0.144	-0.022
-337.304	156.186	-0.179	0.249
-336.289	494.350	0.052	0.120
-335.275	193.652	-0.303	-0.461
-334.260	800.000	0.163	-0.507
-333.245	-112.746	-0.187	0.037
-332.231	-200.000	0.031	0.192
-331.216	800.000	-0.076	0.263
-330.202	650.906	0.184	0.473
-329.187	377.724	-0.087	-0.180
-328.172	800.000	-0.058	-0.195
-327.158	800.000	-0.054	-0.177
-326.143	181.693	-0.078	-0.116
-325.129	142.126	-0.144	-0.192
-324.114	236.817	-0.112	0.187
-323.099	-200.000	-0.011	0.118
-322.085	656.066	-0.039	0.100
-321.070	-88.127	0.302	0.091
-320.056	-200.000	0.012	-0.062
-319.041	591.483	0.051	-0.128
-318.026	282.780	-0.022	0.040
-317.012	288.631	-0.110	0.201
-315.997	-200.000	-0.025	-0.317
-314.983	800.000	-0.087	0.304
-313.968	549.795	-0.042	-0.101
-312.953	159.743	-0.122	0.171
-311.939	800.000	0.032	0.108
-310.924	-20.111	0.368	0.228
-309.910	54.794	0.110	-0.106
-308.895	-105.773	0.075	0.017
-307.880	391.635	0.062	-0.129
-306.866	800.000	0.049	0.151
-305.851	94.656	0.183	0.209
-304.837	-91.249	0.377	0.109
-303.822	9.214	0.171	-0.130
-302.807	212.045	-0.074	-0.117
-301.793	110.001	-0.243	-0.294
-300.778	129.560	0.044	-0.057
-299.764	719.208	0.049	-0.130
-298.749	55.967	-0.108	0.105
-297.735	372.084	-0.099	-0.203
-296.720	-113.839	-0.186	0.036
-295.705	90.035	-0.131	0.147
-294.691	800.000	-0.028	-0.118
-293.676	19.649	0.117	0.094
-292.662	800.000	-0.081	-0.258
-291.647	-77.708	0.130	-0.045
-290.632	10.542	-0.099	-0.076
-289.618	-45.962	-0.616	0.305
-288.603	103.802	0.106	0.125
-287.589	55.393	0.186	-0.181
-286.574	-100.521	-0.065	0.016
-285.559	-112.875	0.179	0.036
-284.545	-106.349	0.118	-0.026
-283.530	137.263	0.030	-0.039
-282.516	-120.104	0.259	-0.045
-281.501	477.575	0.049	0.111
-280.486	131.437	0.128	-0.165
-279.472	-116.087	-0.076	-0.014
-278.457	149.874	-0.094	-0.128
-277.443	-6.413	0.287	-0.197
-276.428	323.582	-0.105	-0.200
-275.413	178.516	0.152	0.222
-274.399	-200.000	-0.044	-0.216
-273.384	175.378	0.078	0.114
-272.370	-200.000	0.037	-0.188
-271.355	-26.378	-0.170	0.100
-270.340	292.584	0.030	-0.055
-269.326	430.937	0.061	0.132
-268.311	-93.022	0.142	-0.040
-267.297	-17.935	0.274	0.172
-266.282	-73.587	0.074	-0.027
-265.267	-133.131	0.296	0.038
-264.253	31.956	-0.140	-0.121
-263.238	419.197	0.169	0.363
-262.224	224.686	-0.073	0.118
-261.209	-200.000	-0.004	-0.215
-260.195	-200.000	-0.005	-0.115
-259.180	-200.000	-0.018	0.231
-258.165	-200.000	-0.020	0.159
-257.151	13.103	0.232	0.180
-256.136	-39.219	0.168	0.088
-255.122	652.215	0.058	-0.148
-254.107	-200.000	-0.138	-0.000
-253.092	-96.347	-0.305	0.081
-252.078	118.819	0.122	0.151
-251.063	480.585	0.018	-0.042
-250.049	800.000	0.056	0.187
-249.034	172.412	0.151	0.217
-248.019	-200.000	-0.034	0.394
-247.005	-200.000	0.027	-0.403
-245.990	645.311	-0.046	0.118
-244.976	37.440	-0.210	0.186
-243.961	-111.026	0.239	0.049
-242.946	-152.428	0.232	0.017
-241.932	556.972	0.072	-0.175
-240.917	-200.000	0.024	-0.124
-239.903	-186.447	0.242	0.003
-238.888	16.113	-0.086	0.068
-237.873	-124.579	-0.182	0.028
-236.859	-100.810	0.177	0.044
-235.844	800.000	0.019	0.054
-234.830	7.495	0.198	0.148
-233.815	-126.384	-0.373	-0.056
-232.800	-200.000	0.009	-0.268
-231.786	-200.000	-0.045	-0.418
-230.771	-5.636	0.252	0.173
-229.757	-20.361	0.289	-0.178
-228.742	-125.549	0.405	0.062
-227.727	25.096	0.201	0.168
-226.713	58.397	0.128	0.125
-225.698	-136.968	0.240	-0.028
-224.684	-200.000	0.009	-0.086
-223.669	-200.000	0.012	0.122
-222.655	-200.000	-0.009	-0.095
-221.640	800.000	-0.077	-0.314
-220.625	659.990	-0.103	-0.266
-219.611	-200.000	-0.017	0.105
-218.596	-140.732	-0.250	0.026
-217.582	-11.602	0.216	0.143
-216.567	-41.561	-0.341	-0.176
-215.552	296.434	-0.060	0.111
-214.538	-200.000	0.037	-0.223
-213.523	-200.000	-0.017	-0.100
-212.509	225.965	-0.118	-0.192
-211.494	-53.498	-0.174	-0.080
-210.479	157.177	0.179	-0.248
-209.465	800.000	0.039	-0.126
-208.450	-200.000	-0.026	-0.212
-207.436	-200.000	0.012	0.094
-206.421	-200.000	0.009	0.156
-205.406	127.874	0.163	-0.208
-204.392	520.437	0.029	-0.069
-203.377	-48.547	0.116	0.056
-202.363	251.297	0.230	-0.392
-201.348	-110.210	-0.259	-0.054
-200.333	-100.323	0.343	0.085
-199.319	800.000	0.069	-0.243
-198.304	286.615	-0.022	0.040
-197.290	50.102	-0.238	-0.224
-196.275	59.482	0.078	-0.077
-195.260	161.560	-0.231	0.323
-194.246	83.618	-0.138	0.150
-193.231	-200.000	-0.001	0.417
-192.217	108.622	0.095	0.114
-191.202	-200.000	0.002	0.134
-190.187	-80.832	-0.304	0.101
-189.173	179.687	0.224	-0.328
-188.158	-183.462	-0.100	0.002
-187.144	58.791	0.163	0.160
-186.129	389.823	-0.082	0.170
-185.114	633.547	-0.069	-0.174
-184.100	118.321	0.286	-0.353
-183.085	-53.867	-0.214	-0.098
-182.071	1.586	-0.162	-0.116
-181.056	-86.078	-0.160	-0.049
-180.042	-200.000	-0.018	0.119
-179.027	-128.330	0.253	0.036
-178.012	-200.000	-0.039	-0.172
-176.998	-110.872	0.145	-0.030
-175.983	-103.295	0.123	-0.029
-174.969	800.000	-0.076	-0.231
-173.954	-175.931	0.063	-0.002
-172.939	-30.581	0.196	0.111
-171.925	-59.990	-0.377	-0.161
-170.910	800.000	-0.071	-0.288
-169.896	-146.138	0.259	0.023
-168.881	-154.221	0.155	-0.010
-167.866	617.091	-0.065	-0.162
-166.852	-200.000	-0.035	-0.242
-165.837	-200.000	-0.018	0.138
-164.823	-118.605	0.081	-0.014
-163.808	-13.878	0.245	0.158
-162.793	800.000	0.042	0.140
-161.779	-69.707	0.320	-0.122
-160.764	142.696	0.154	-0.205
-159.750	-61.081	-0.240	0.101
-158.735	-15.923	-0.177	0.113
-157.720	490.826	-0.047	0.109
-156.706	-200.000	0.022	-0.099
-155.691	-188.141	-0.090	0.001
-154.677	-200.000	0.006	0.152
-153.662	-200.000	0.016	0.120
-152.647	-0.191	-0.176	0.125
-151.633	-23.215	-0.234	-0.141
-150.618	312.398	0.051	-0.096
-149.604	-32.964	0.173	-0.096
-148.589	102.386	0.046	0.053
-147.574	-200.000	-0.020	-0.099
-146.560	-88.902	0.348	-0.103
-145.545	35.875	0.151	-0.132
-144.531	800.000	-0.116	0.324
-143.516	-200.000	0.001	-0.028
-142.502	-20.988	0.083	-0.051
-141.487	213.290	-0.043	0.067
-140.472	-100.675	0.383	0.094
-139.458	88.187	0.033	-0.037
-138.443	142.442	-0.044	0.059
-137.429	800.000	-0.065	0.265
-136.414	-152.447	0.512	0.037
-135.399	-92.011	-0.324	0.092
-134.385	45.869	0.279	0.257
-133.370	-58.550	0.211	0.092
-132.356	-91.651	0.189	0.054
-131.341	584.203	0.096	-0.236
-130.326	-196.507	0.318	0.002
-129.312	24.190	0.401	0.331
-128.297	185.733	0.063	0.094
-127.283	-169.097	-0.059	0.002
-126.268	15.013	0.201	-0.157
-125.253	-27.941	0.129	-0.075
-124.239	187.724	-0.088	0.132
-123.224	-200.000	-0.048	-0.231
-122.210	104.699	0.140	0.164
-121.195	250.048	0.250	-0.423
-120.180	-200.000	0.039	-0.212
-119.166	-105.460	0.344	-0.078
-118.151	-200.000	0.006	0.068
-117.137	122.989	0.264	-0.330
-116.122	-14.274	0.241	-0.155
-115.107	-54.132	0.258	0.117
-114.093	-84.661	-0.050	0.016
-113.078	-119.291	-0.203	0.035
-112.064	-134.598	0.186	0.023
-111.049	669.538	0.156	-0.403
-110.034	442.169	-0.161	-0.352
-109.020	-78.626	-0.182	0.062
-108.005	138.837	0.029	0.037
-106.991	440.721	-0.150	0.327
-105.976	184.116	0.089	0.131
-104.962	353.320	-0.116	0.231
-103.947	36.481	-0.174	-0.154
-102.932	-121.905	0.374	-0.061
-101.918	-200.000	-0.004	-0.170
-100.903	-142.387	-0.237	0.023
-99.889	800.000	0.052	-0.182
-98.874	-84.560	-0.562	0.177
-97.859	-200.000	-0.000	0.114
-96.845	56.088	-0.119	-0.115
-95.830	-81.706	-0.185	0.060
-94.816	-200.000	0.058	-0.339
-93.801	-80.701	0.431	0.143
-92.786	139.774	-0.082	-0.108
-91.772	154.836	-0.104	-0.143
-90.757	73.463	0.106	-0.110
-89.743	-200.000	-0.025	-0.196
-88.728	-113.115	-0.347	0.068
-87.713	-117.145	0.143	0.026
-86.699	51.147	-0.174	-0.164
-85.684	-79.012	-0.107	-0.036
-84.670	-72.050	0.340	-0.126
-83.655	800.000	-0.002	-0.006
-82.640	54.261	-0.187	0.179
-81.626	319.248	0.043	-0.080
-80.611	103.997	0.175	-0.205
-79.597	189.383	-0.097	0.145
-78.582	800.000	-0.106	-0.364
-77.567	-144.226	0.213	0.020
-76.553	258.748	0.065	0.112
-75.538	-82.549	-0.116	-0.037
-74.524	-200.000	0.011	0.134
-73.509	-96.055	0.264	0.070
-72.494	312.369	0.190	0.355
-71.480	114.906	-0.137	-0.166
-70.465	-81.968	0.170	-0.055
-69.451	284.975	0.086	0.155
-68.436	342.253	0.109	0.212
-67.422	-200.000	-0.022	-0.258
-66.407	-70.785	0.103	-0.039
-65.392	-200.000	-0.081	0.430
-64.378	12.765	0.125	-0.097
-63.363	-81.104	0.238	-0.078
-62.349	-106.774	-0.132	0.029
-61.334	-14.328	-0.750	-0.481
-60.319	-83.953	0.610	0.193
-59.305	-200.000	-0.052	-1.031
-58.290	372.506	0.440	0.890
-57.276	679.105	0.643	1.667
-56.261	-200.000	85.760	500.986
-55.246	511.140	1399.970	3244.014
-54.232	181.224	2614.018	3825.979
-53.217	117.686	2235.258	2739.298
-52.203	48.130	1675.950	1560.201
-51.188	40.485	1405.885	1260.378
-50.173	37.420	1361.274	1201.432
-49.159	56.488	1403.086	1358.185
-48.144	60.909	1422.532	1404.664
-47.130	41.163	1380.704	1241.836
-46.115	37.414	1363.103	1202.817
-45.100	37.224	1358.262	1197.326
-44.086	37.218	1355.432	1194.745
-43.071	37.097	1353.243	1192.024
-42.057	37.114	1351.391	1190.448
-41.042	37.084	1349.626	1188.664
-40.027	37.202	1348.040	1187.947
-39.013	37.278	1346.105	1186.655
-37.998	37.249	1344.517	1185.031
-36.984	37.293	1342.186	1183.197
-35.969	37.387	1340.221	1181.991
-34.954	37.301	1338.763	1180.135
-33.940	37.373	1337.122	1179.077
-32.925	37.480	1335.730	1178.452
-31.911	37.348	1334.563	1176.576
-30.896	37.419	1333.276	1175.826
-29.881	37.338	1332.188	1174.329
-28.867	37.492	1329.958	1173.250
-27.852	37.437	1328.763	1171.815
-26.838	37.355	1327.744	1170.376
-25.823	37.447	1325.924	1169.282
-24.809	37.372	1324.856	1167.841
-23.794	37.433	1322.900	1166.433
-22.779	37.480	1321.433	1165.377
-21.765	37.546	1320.100	1164.550
-20.750	37.397	1318.853	1162.514
-19.736	37.256	1317.715	1160.622
-18.721	37.188	1316.972	1159.516
-17.706	37.221	1315.396	1158.278
-16.692	37.291	1313.844	1157.282
-15.677	37.320	1312.914	1156.588
-14.663	37.269	1311.767	1155.231
-13.648	37.271	1310.358	1153.956
-12.633	37.137	1310.041	1152.835
-11.619	37.184	1308.719	1151.905
-10.604	37.320	1307.743	1151.806
-9.590	37.148	1307.075	1150.151
-8.575	37.260	1306.154	1149.957
-7.560	37.138	1305.274	1148.416
-6.546	37.190	1304.614	1148.100
-5.531	37.237	1303.189	1147.079
-4.517	37.298	1302.199	1146.521
-3.502	37.267	1301.357	1145.549
-2.487	37.246	1300.447	1144.581
-1.473	37.293	1297.078	1141.846
-0.458	36.415	1281.936	1123.370
0.556	31.814	1262.977	1084.399
1.571	27.860	1267.219	1064.938
2.586	26.630	1281.128	1069.274
3.600	25.381	1270.151	1052.706
4.615	19.485	1195.137	957.827
5.629	9.863	1114.711	843.249
6.644	5.261	1092.196	802.542
7.659	4.899	1089.327	798.507
8.673	4.783	1088.118	796.959
9.688	4.778	1086.350	795.566
10.702	5.231	1085.071	796.871
11.717	11.084	1093.966	833.366
12.731	18.838	1105.020	881.654
13.746	19.976	1105.522	887.816
14.761	17.955	1102.083	874.637
15.775	16.756	1099.916	866.706
16.790	15.722	1097.341	859.319
17.804	15.106	1095.698	854.812
18.819	14.544	1094.892	851.242
19.834	14.275	1093.754	848.913
20.848	14.126	1092.509	847.111
21.863	13.874	1091.827	845.226
22.877	13.661	1091.234	843.605
23.892	13.742	1090.050	843.028
24.907	13.751	1089.523	842.592
25.921	13.829	1088.411	842.052
26.936	13.817	1087.344	841.091
27.950	13.823	1085.812	839.862
28.965	13.834	1084.275	838.658
29.980	13.997	1082.518	838.046
30.994	13.921	1081.646	836.911
32.009	14.011	1080.819	836.652
33.023	13.872	1079.341	834.736
34.038	13.888	1078.721	834.264
35.053	13.852	1077.477	833.046
36.067	13.941	1076.526	832.684
37.082	13.894	1075.827	831.831
38.096	13.978	1074.915	831.477
39.111	13.981	1074.010	830.715
40.126	13.875	1073.138	829.439
41.140	13.573	1071.695	826.744
42.155	13.650	1070.280	825.961
43.169	13.637	1069.186	824.982
44.184	13.703	1068.015	824.331
45.199	13.549	1067.187	822.854
46.213	13.653	1065.847	822.264
47.228	13.817	1065.033	822.375
48.242	13.874	1063.822	821.651
49.257	13.738	1063.350	820.541
50.271	13.921	1061.872	820.233
51.286	13.785	1061.482	819.185
52.301	13.735	1060.843	818.376
53.315	13.746	1059.522	817.337
54.330	13.782	1057.915	816.200
55.344	13.613	1057.298	814.824
56.359	13.625	1056.173	813.942
57.374	13.760	1054.930	813.576
58.388	13.657	1054.180	812.420
59.403	13.534	1053.975	811.586
60.417	13.646	1053.021	811.331
61.432	13.589	1051.950	810.151
62.447	13.497	1051.527	809.308
63.461	13.458	1050.976	808.620
64.476	13.487	1049.431	807.499
65.490	13.470	1048.839	806.893
66.505	13.638	1048.118	807.082
67.520	13.587	1047.282	806.120
68.534	13.634	1046.595	805.749
69.549	13.453	1046.479	804.707
70.563	13.400	1045.458	803.593
71.578	13.626	1043.984	803.489
72.593	13.501	1043.151	802.170
73.607	13.613	1042.083	801.819
74.622	13.375	1042.178	800.671
75.636	13.415	1041.419	800.207
76.651	13.414	1040.920	799.752
77.666	13.549	1039.877	799.530
78.680	13.479	1039.543	798.865
79.695	13.493	1038.764	798.263
80.709	13.516	1038.020	797.729
81.724	13.652	1037.154	797.651
82.739	13.736	1036.518	797.493
83.753	13.857	1035.715	797.384
84.768	13.893	1034.819	796.799
85.782	13.899	1033.692	795.888
86.797	13.790	1032.997	794.761
87.812	13.677	1032.452	793.730
88.826	13.764	1030.826	792.824
89.841	13.694	1030.136	791.889
90.855	13.891	1028.981	791.873
91.870	13.927	1028.209	791.378
92.884	13.995	1027.205	790.861
93.899	13.947	1026.201	789.791
94.914	14.028	1025.124	789.274
95.928	13.945	1024.979	788.701
96.943	13.961	1023.893	787.868
97.957	13.891	1023.322	787.031
98.972	13.902	1022.305	786.232
99.987	13.784	1021.455	784.950
101.001	13.851	1020.690	784.610
102.016	13.947	1019.261	783.895
103.030	13.942	1018.623	783.308
104.045	13.817	1017.840	782.050
105.060	13.666	1017.255	780.817
106.074	13.724	1016.207	780.219
107.089	13.715	1014.739	778.977
108.103	13.657	1014.091	778.140
109.118	13.642	1012.830	777.035
110.133	13.570	1012.060	776.039
111.147	13.679	1011.210	775.828
112.162	13.622	1010.522	774.966
113.176	13.732	1009.751	774.821
114.191	13.702	1009.061	774.079
115.206	13.752	1007.852	773.320
116.220	13.647	1007.230	772.282
117.235	13.612	1006.220	771.278
118.249	13.699	1005.116	770.769
119.264	13.837	1004.139	770.592
120.279	13.643	1003.563	769.178
121.293	13.637	1003.079	768.715
122.308	13.731	1002.050	768.292
123.322	13.529	1001.160	766.606
124.337	13.655	1000.224	766.405
125.352	13.631	998.797	765.131
126.366	13.587	998.090	764.321
127.381	13.648	996.715	763.482
128.395	13.663	995.911	762.868
129.410	13.659	994.975	762.066
130.424	13.737	993.932	761.554
131.439	13.749	993.625	761.308
132.454	13.809	992.564	760.701
133.468	13.824	991.724	760.062
134.483	13.813	991.274	759.599
135.497	13.930	990.050	759.129
136.512	13.929	989.365	758.532
137.527	13.868	988.432	757.473
138.541	13.914	987.164	756.642
139.556	13.937	987.260	756.751
140.570	13.937	986.703	756.260
141.585	14.005	985.611	755.666
142.600	14.022	984.510	754.831
143.614	13.992	983.737	754.034
144.629	14.125	982.800	753.853
145.643	14.013	982.059	752.713
146.658	13.914	980.790	751.224
147.673	13.976	979.691	750.595
148.687	13.816	978.867	749.174
149.702	13.874	977.892	748.625
150.716	13.864	976.830	747.699
151.731	13.867	976.505	747.399
152.746	13.889	976.173	747.177
153.760	13.785	975.705	746.284
154.775	13.974	974.603	746.227
155.789	14.034	973.913	745.900
156.804	13.979	973.531	745.295
157.819	13.949	972.866	744.586
158.833	14.111	972.205	744.739
159.848	14.158	971.162	744.086
160.862	13.977	970.638	742.807
161.877	13.838	969.303	741.099
162.892	13.898	967.958	740.274
163.906	13.951	967.128	739.809
164.921	13.947	966.251	739.055
165.935	13.946	965.817	738.653
166.950	14.037	964.226	737.775
167.964	14.188	963.038	737.469
168.979	14.025	962.773	736.478
169.994	14.129	961.484	735.890
171.008	14.048	961.138	735.202
172.023	13.964	960.558	734.321
173.037	14.142	959.673	734.366
174.052	13.926	959.301	733.064
175.067	14.070	958.512	733.031
176.081	13.917	957.754	731.711
177.096	14.024	957.033	731.565
178.110	13.948	956.405	730.689
179.125	14.025	955.850	730.539
180.140	13.977	955.510	730.001
181.154	14.158	954.892	730.259
182.169	14.211	954.094	729.815
183.183	14.270	953.596	729.630
184.198	14.420	952.547	729.418
185.213	14.336	951.934	728.520
186.227	14.284	951.797	728.124
187.242	14.406	950.785	727.815
188.256	14.332	950.617	727.302
189.271	14.382	949.327	726.468
190.286	14.232	948.635	725.221
191.300	14.052	947.953	723.850
192.315	13.819	947.620	722.517
193.329	14.100	946.813	723.059
194.344	14.088	946.139	722.430
195.359	14.215	945.124	722.142
196.373	14.312	944.791	722.242
197.388	14.302	944.253	721.727
198.402	14.574	943.332	722.137
199.417	14.561	943.016	721.773
200.432	14.516	942.915	721.437
201.446	14.528	942.266	720.930
202.461	14.695	941.785	721.216
203.475	14.580	940.909	719.986
204.490	14.521	940.138	719.079
205.504	14.517	939.312	718.365
206.519	14.487	938.660	717.675
207.534	14.411	937.736	716.580
208.548	14.389	937.290	716.081
209.563	14.557	936.484	716.122
210.577	14.605	935.717	715.677
211.592	14.563	935.417	715.207
212.607	14.646	934.364	714.691
213.621	14.542	933.339	713.399
214.636	14.723	932.725	713.640
215.650	14.698	932.013	712.928
216.665	14.712	931.489	712.522
217.680	14.775	930.602	712.048
218.694	14.775	930.129	711.625
219.709	14.662	929.454	710.565
220.723	14.774	928.887	710.544
221.738	14.771	928.155	709.910
222.753	14.641	927.630	708.892
223.767	14.673	927.331	708.735
224.782	14.875	926.364	708.791
225.796	14.951	925.907	708.703
226.811	14.884	924.907	707.589
227.826	14.840	924.211	706.808
228.840	14.849	923.386	706.151
229.855	14.916	922.444	705.654
230.869	14.883	921.628	704.825
231.884	14.622	921.658	703.688
232.899	14.757	920.526	703.331
233.913	14.753	919.860	702.743
234.928	14.927	918.648	702.486
235.942	14.679	918.528	701.291
236.957	14.874	917.937	701.593
237.972	14.865	917.264	700.981
238.986	14.840	916.327	700.098
240.001	14.768	915.744	699.290
241.015	14.830	915.521	699.314
242.030	14.881	914.964	699.040
243.045	14.964	914.115	698.678
244.059	14.953	913.680	698.235
245.074	14.854	913.376	697.530
246.088	14.994	912.106	697.082
247.103	15.139	911.593	697.233
248.117	15.084	910.805	696.340
249.132	15.197	910.717	696.681
250.147	15.250	909.785	696.125
251.161	15.266	909.388	695.826
252.176	15.207	908.449	694.800
253.190	15.325	908.179	695.023
254.205	15.233	907.570	694.114
255.220	15.487	906.457	694.253
256.234	15.456	905.904	693.641
257.249	15.518	904.997	693.139
258.263	15.388	904.539	692.191
259.278	15.411	903.933	691.762
260.293	15.467	903.185	691.356
261.307	15.530	902.659	691.154
262.322	15.513	902.092	690.585
263.336	15.621	901.243	690.320
264.351	15.552	900.477	689.390
265.366	15.633	899.851	689.181
266.380	15.680	899.378	688.948
267.395	15.446	899.135	687.743
268.409	15.531	897.801	687.012
269.424	15.480	897.392	686.428
270.439	15.593	896.242	685.950
271.453	15.612	895.653	685.514
272.468	15.497	895.585	684.935
273.482	15.502	894.771	684.273
274.497	15.481	894.082	683.599
275.512	15.534	893.928	683.637
276.526	15.529	893.749	683.418
277.541	15.750	892.417	683.239
278.555	15.810	891.681	682.856
279.570	15.844	891.099	682.487
280.585	15.710	890.654	681.545
281.599	15.774	889.280	680.692
282.614	15.676	888.934	679.970
283.628	15.746	888.626	679.958
284.643	15.597	887.978	678.800
285.657	15.859	887.096	679.122
286.672	15.763	886.631	678.318
287.687	15.706	885.963	677.517
288.701	15.764	885.456	677.305
289.716	15.893	884.918	677.351
290.730	16.055	883.740	677.041
291.745	15.958	883.437	676.359
292.760	15.905	883.226	675.924
293.774	16.002	882.561	675.746
294.789	16.008	881.477	674.880
295.803	15.881	881.088	674.014
296.818	15.950	880.268	673.601
297.833	15.871	879.891	672.940
298.847	15.764	879.492	672.149
299.862	15.916	878.758	672.131
300.876	16.045	877.994	672.002
301.891	16.049	877.696	671.731
302.906	16.138	876.664	671.237
303.920	16.309	876.073	671.404
304.935	16.226	875.743	670.764
305.949	16.290	875.097	670.464
306.964	16.035	874.854	669.203
307.979	16.084	874.003	668.688
308.993	16.111	873.509	668.360
310.008	16.173	872.955	668.121
311.022	16.251	872.366	667.919
312.037	16.177	871.331	666.775
313.052	16.071	871.122	666.140
314.066	16.064	870.473	665.557
315.081	16.081	869.896	665.123
316.095	16.110	868.753	664.307
317.110	16.154	868.594	664.297
318.125	16.096	868.317	663.799
319.139	16.074	867.561	663.076
320.154	16.163	867.129	663.035
321.168	16.212	866.544	662.723
322.183	16.041	866.248	661.766
323.197	16.144	865.416	661.476
324.212	16.163	865.142	661.282
325.227	16.240	864.482	661.021
326.241	16.223	863.716	660.310
327.256	16.174	863.507	659.901
328.270	16.216	862.491	659.232
329.285	16.228	862.290	659.066
330.300	16.233	861.503	658.425
331.314	16.301	861.030	658.268
332.329	16.434	860.501	658.325
333.343	16.390	860.008	657.719
334.358	16.317	859.814	657.226
335.373	16.385	859.308	657.049
336.387	16.467	858.905	657.001
337.402	16.435	858.868	656.790
338.416	16.556	858.117	656.628
339.431	16.436	858.127	656.111
340.446	16.662	857.500	656.450
341.460	16.613	856.975	655.798
342.475	16.691	856.932	656.011
343.489	16.552	856.525	655.101
344.504	16.641	855.877	654.893
345.519	16.727	855.172	654.629
346.533	16.602	854.950	653.918
347.548	16.689	854.164	653.593
348.562	16.463	853.634	652.259
349.577	16.552	852.892	651.977
350.592	16.692	851.970	651.755
351.606	16.663	851.401	651.151
352.621	16.651	850.923	650.680
353.635	16.571	850.127	649.706
354.650	16.648	849.313	649.321
355.665	16.792	848.760	649.394
356.679	16.755	848.141	648.723
357.694	16.747	847.610	648.228
358.708	16.788	847.107	647.942
359.723	16.910	846.238	647.687
360.738	16.801	845.903	646.957
361.752	16.831	845.507	646.713
362.767	16.910	844.616	646.272
363.781	16.996	844.240	646.256
364.796	16.937	844.137	645.893
365.810	16.950	843.675	645.533
366.825	17.141	842.999	645.686
367.840	16.936	842.728	644.642
368.854	16.947	842.301	644.301
369.869	17.081	841.534	644.165
370.883	17.114	841.031	643.849
371.898	17.093	840.876	643.591
372.913	17.153	840.592	643.546
373.927	17.172	839.787	642.944
374.942	17.171	839.245	642.470
375.956	17.284	839.059	642.696
376.971	17.316	838.289	642.172
377.986	17.176	837.935	641.315
379.000	17.360	837.672	641.751
380.015	17.219	837.022	640.665
381.029	17.348	836.480	640.679
382.044	17.348	835.495	639.866
383.059	17.405	835.055	639.689
384.073	17.285	834.665	638.881
385.088	17.378	833.975	638.647
386.102	17.439	833.445	638.415
387.117	17.181	832.821	636.911
388.132	17.250	832.115	636.572
389.146	17.333	832.013	636.751
390.161	17.462	831.049	636.437
391.175	17.300	830.498	635.353
392.190	17.455	830.160	635.621
393.205	17.358	829.561	634.743
394.219	17.214	829.774	634.313
395.234	17.312	829.175	634.165
396.248	17.306	828.429	633.515
397.263	17.338	828.169	633.379
398.278	17.226	827.650	632.508
399.292	17.385	827.170	632.677
400.307	17.393	826.441	632.093
401.321	17.360	826.329	631.828
402.336	17.255	825.955	631.097
403.350	17.398	825.178	630.979
404.365	17.449	824.907	630.906
405.380	17.618	824.340	631.039
406.394	17.572	824.236	630.736
407.409	17.642	823.581	630.435
408.423	17.623	823.644	630.360
409.438	17.725	823.044	630.220
410.453	17.760	822.367	629.775
411.467	17.770	821.770	629.301
412.482	17.839	821.444	629.247
413.496	17.796	821.409	629.007
414.511	17.786	820.903	628.528
415.526	17.774	820.353	628.007
416.540	17.826	819.863	627.769
417.555	17.952	819.013	627.525
418.569	17.877	818.719	626.966
419.584	17.928	818.536	626.958
420.599	17.899	818.226	626.562
421.613	148.620	1369.540	1778.750
422.628	129.179	1449.874	1778.860
