DTS Sentinel unit serial number:	SN413079Multiplexer serial number:	ORYXHardware model number:	OX4-SRSoftware version number:	ORYX F/W v4.00 Oryx Data Collector v3.7.2.0data status	okinstallation	princeton_trtdifferential loss correction	single-endedforward channel	channel 1reverse channel	N/Adate	2019/09/14time	00:18:35forward acquisition time	60.00reverse acquisition time	0.00gamma	496.2192k internal	0.2337k external	0.2337temperature offset calibration	1.0082default loss term (dB/km)	0.3790temperature slope calibration	1.0000multiplexer offset coefficient	1.0000multiplexer slope coefficient	1.0000fibre end	0.00T internal ref (°C)	26.50T ext. ref 1 (°C)	3.16T ext. ref 2 (°C)	21.42length (m)	temperature (°C)	Stokes	anti-Stokes-747.200	-200.000	-0.024	-0.125
-746.185	38.682	-0.084	0.075
-745.171	-64.588	-0.134	0.054
-744.156	288.359	-0.047	-0.085
-743.142	75.593	0.309	-0.327
-742.127	-65.772	-0.119	0.048
-741.112	-200.000	-0.021	0.365
-740.098	444.502	-0.077	0.170
-739.083	224.648	-0.081	0.132
-738.069	-37.428	-0.054	0.029
-737.054	-118.332	0.124	-0.022
-736.039	97.154	-0.180	-0.207
-735.025	-14.530	-0.071	0.046
-734.010	4.965	-0.165	0.122
-732.996	65.603	0.220	-0.223
-731.981	361.492	-0.267	-0.538
-730.966	-200.000	-0.026	-0.187
-729.952	-154.881	-0.193	-0.013
-728.937	137.772	-0.047	-0.062
-727.923	486.928	-0.040	0.091
-726.908	221.024	0.160	0.257
-725.894	56.161	0.193	0.188
-724.879	39.412	0.094	0.085
-723.864	-93.322	-0.193	0.054
-722.850	800.000	-0.033	-0.121
-721.835	109.040	-0.173	-0.208
-720.821	136.811	0.272	0.356
-719.806	-13.016	-0.202	-0.132
-718.791	622.090	-0.153	0.386
-717.777	-200.000	-0.021	0.131
-716.762	-93.894	-0.110	0.030
-715.748	-200.000	-0.043	-0.218
-714.733	34.658	-0.050	0.044
-713.718	-40.234	0.268	-0.140
-712.704	180.635	-0.121	0.178
-711.689	26.991	-0.159	0.133
-710.675	-142.758	0.136	-0.013
-709.660	93.188	-0.287	0.325
-708.645	-96.441	0.252	0.067
-707.631	-200.000	-0.002	0.122
-706.616	634.689	-0.014	0.036
-705.602	11.432	0.214	0.164
-704.587	-105.081	0.267	-0.061
-703.572	-200.000	0.027	0.300
-702.558	-178.333	-0.160	0.004
-701.543	114.178	-0.237	-0.290
-700.529	-84.651	0.247	0.078
-699.514	-200.000	-0.009	-0.047
-698.499	800.000	-0.116	0.337
-697.485	800.000	-0.070	0.223
-696.470	-36.131	0.113	-0.061
-695.456	800.000	0.009	-0.026
-694.441	118.460	0.083	-0.103
-693.426	800.000	-0.122	-0.473
-692.412	286.035	-0.153	0.276
-691.397	-161.166	0.165	-0.009
-690.383	25.672	-0.053	-0.044
-689.368	-200.000	0.061	-0.295
-688.354	-200.000	-0.028	-0.412
-687.339	79.263	-0.133	0.143
-686.324	-69.160	0.177	0.068
-685.310	-130.853	-0.342	0.046
-684.295	-200.000	-0.051	-0.251
-683.281	-167.447	-0.230	0.009
-682.266	34.705	0.180	0.157
-681.251	188.413	-0.098	-0.147
-680.237	-15.887	0.430	-0.274
-679.222	-200.000	-0.059	-0.337
-678.208	-200.000	0.017	-0.221
-677.193	-28.751	-0.032	-0.018
-676.178	-124.208	0.158	0.025
-675.164	203.100	-0.056	-0.086
-674.149	-200.000	-0.020	0.234
-673.135	800.000	0.040	0.140
-672.120	-173.754	0.163	-0.005
-671.105	-78.327	0.072	-0.025
-670.091	-200.000	0.009	0.164
-669.076	-200.000	0.016	-0.244
-668.062	77.842	-0.160	-0.170
-667.047	49.009	-0.163	0.153
-666.032	-29.166	0.189	-0.108
-665.018	800.000	0.019	-0.064
-664.003	-141.611	-0.177	0.018
-662.989	-73.379	-0.157	-0.057
-661.974	8.180	-0.128	0.096
-660.959	7.314	-0.272	-0.203
-659.945	-20.618	-0.356	-0.219
-658.930	483.692	0.067	-0.152
-657.916	-193.750	-0.163	0.001
-656.901	800.000	-0.039	0.109
-655.886	294.242	-0.170	0.311
-654.872	87.036	0.091	0.100
-653.857	-119.758	-0.062	0.011
-652.843	-200.000	0.008	0.235
-651.828	602.142	0.134	-0.333
-650.814	-200.000	-0.082	-0.582
-649.799	356.729	-0.086	0.172
-648.784	261.443	-0.116	0.201
-647.770	-79.333	0.067	-0.023
-646.755	252.678	0.133	0.227
-645.741	-71.169	0.234	-0.088
-644.726	61.407	-0.158	-0.157
-643.711	7.790	0.055	0.042
-642.697	-122.767	-0.189	0.030
-641.682	-101.957	-0.174	-0.042
-640.668	-163.990	0.179	-0.008
-639.653	-71.516	-0.244	-0.091
-638.638	-93.674	-0.124	0.034
-637.624	363.782	0.045	-0.090
-636.609	5.994	0.132	-0.098
-635.595	800.000	0.063	-0.203
-634.580	205.827	0.108	0.167
-633.565	-41.343	-0.041	-0.021
-632.551	-200.000	0.017	0.188
-631.536	-200.000	0.014	0.194
-630.522	307.479	0.105	0.195
-629.507	800.000	0.064	-0.182
-628.492	-90.532	0.055	0.016
-627.478	8.199	0.540	-0.405
-626.463	800.000	-0.072	0.199
-625.449	-200.000	0.009	0.053
-624.434	-66.387	0.247	-0.098
-623.419	-200.000	-0.005	-0.202
-622.405	-200.000	0.025	-0.285
-621.390	-5.136	-0.132	-0.091
-620.376	337.301	-0.062	-0.120
-619.361	390.544	-0.190	-0.393
-618.346	-71.592	-0.295	0.110
-617.332	-160.113	-0.185	-0.010
-616.317	-95.938	-0.146	0.039
-615.303	-92.959	-0.297	0.083
-614.288	-105.454	-0.298	0.068
-613.273	-105.173	0.157	0.036
-612.259	-123.800	0.355	0.056
-611.244	-200.000	0.018	-0.105
-610.230	-200.000	0.053	0.268
-609.215	177.048	0.024	-0.035
-608.201	800.000	-0.034	-0.140
-607.186	-126.434	0.339	0.050
-606.171	-156.580	-0.393	-0.024
-605.157	12.613	0.290	-0.223
-604.142	-114.114	-0.132	0.025
-603.128	-114.008	0.309	-0.060
-602.113	-28.647	-0.271	0.156
-601.098	659.507	0.068	-0.174
-600.084	105.266	0.057	0.067
-599.069	-200.000	-0.012	-0.072
-598.055	-48.900	-0.170	-0.081
-597.040	-11.986	0.077	-0.051
-596.025	160.991	0.036	0.051
-595.011	-200.000	-0.001	-0.076
-593.996	120.214	-0.029	0.036
-592.982	-138.086	0.067	-0.007
-591.967	44.456	0.139	-0.127
-590.952	800.000	-0.063	-0.239
-589.938	-57.634	-0.131	0.057
-588.923	27.160	0.389	0.325
-587.909	800.000	0.075	0.255
-586.894	800.000	0.028	0.097
-585.879	800.000	0.066	0.245
-584.865	-2.655	-0.257	0.179
-583.850	-75.120	0.147	0.052
-582.836	-148.374	0.057	-0.005
-581.821	-200.000	0.003	0.027
-580.806	-200.000	0.001	-0.306
-579.792	-59.568	-0.087	-0.037
-578.777	-132.171	0.224	-0.029
-577.763	-112.370	0.177	-0.035
-576.748	-200.000	0.005	-0.089
-575.733	-165.196	-0.327	-0.014
-574.719	-200.000	-0.021	0.145
-573.704	800.000	-0.007	0.028
-572.690	179.245	0.145	-0.212
-571.675	-29.485	-0.290	0.165
-570.661	213.394	0.141	-0.223
-569.646	82.144	0.094	-0.101
-568.631	58.353	-0.072	0.071
-567.617	476.293	-0.036	-0.080
-566.602	-25.396	0.096	0.057
-565.588	-16.983	0.175	-0.110
-564.573	-73.246	-0.240	0.087
-563.558	-200.000	0.016	0.203
-562.544	-1.931	-0.088	-0.062
-561.529	-83.212	-0.414	0.133
-560.515	69.851	-0.287	-0.295
-559.500	-200.000	-0.010	-0.295
-558.485	800.000	-0.031	0.091
-557.471	14.898	-0.284	-0.221
-556.456	258.184	-0.195	0.335
-555.442	-41.267	0.202	0.104
-554.427	-23.553	0.117	0.070
-553.412	-15.806	0.234	0.148
-552.398	800.000	0.017	0.075
-551.383	608.915	0.092	-0.228
-550.369	-24.512	-0.190	-0.113
-549.354	-200.000	0.002	-0.116
-548.339	57.653	0.111	0.109
-547.325	-185.441	0.126	-0.002
-546.310	-30.272	0.415	-0.235
-545.296	-121.656	-0.208	0.034
-544.281	-147.981	-0.265	-0.022
-543.266	-145.817	-0.126	-0.011
-542.252	-5.101	-0.023	0.016
-541.237	2.546	-0.276	0.199
-540.223	-39.127	-0.052	0.027
-539.208	-200.000	-0.034	-0.177
-538.193	800.000	0.031	0.100
-537.179	-200.000	0.011	0.236
-536.164	-26.331	-0.191	0.111
-535.150	-200.000	-0.017	0.087
-534.135	51.529	-0.186	-0.176
-533.121	-66.906	-0.231	0.091
-532.106	-200.000	0.029	0.171
-531.091	-81.268	0.209	-0.069
-530.077	83.113	0.096	-0.104
-529.062	182.590	0.130	0.190
-528.048	-200.000	0.061	-0.481
-527.033	380.273	-0.134	-0.273
-526.018	358.309	-0.102	-0.202
-525.004	45.019	-0.116	0.106
-523.989	800.000	0.035	0.098
-522.975	23.329	0.250	-0.204
-521.960	800.000	0.049	0.180
-520.945	647.686	-0.099	-0.252
-519.931	-150.909	-0.138	-0.010
-518.916	-200.000	-0.004	0.023
-517.902	-0.243	-0.065	0.046
-516.887	76.538	-0.065	0.069
-515.872	-49.816	0.255	0.121
-514.858	297.010	0.094	-0.171
-513.843	-99.319	0.147	-0.037
-512.829	254.284	0.123	0.209
-511.814	635.460	0.159	0.400
-510.799	-174.079	-0.224	-0.007
-509.785	716.189	0.033	-0.086
-508.770	-64.975	-0.071	0.029
-507.756	-13.673	-0.349	-0.225
-506.741	-49.715	0.173	-0.082
-505.726	-52.993	-0.109	0.050
-504.712	219.207	0.040	0.063
-503.697	-60.799	0.053	-0.022
-502.683	-34.515	0.066	-0.036
-501.668	-132.059	-0.502	-0.065
-500.653	140.452	0.115	-0.150
-499.639	-122.155	0.189	-0.031
-498.624	800.000	-0.046	-0.190
-497.610	339.794	-0.086	-0.167
-496.595	-20.926	-0.217	0.132
-495.581	396.662	-0.032	-0.066
-494.566	-84.528	-0.418	-0.131
-493.551	152.188	-0.268	0.363
-492.537	-98.522	0.307	0.078
-491.522	60.053	-0.200	0.196
-490.508	-114.560	0.481	0.092
-489.493	-15.590	0.221	0.140
-488.478	-98.944	-0.365	0.092
-487.464	330.274	-0.193	-0.369
-486.449	800.000	-0.091	-0.289
-485.435	-200.000	-0.011	-0.391
-484.420	182.397	-0.077	-0.113
-483.405	-27.214	-0.172	-0.099
-482.391	-107.234	-0.206	-0.045
-481.376	-200.000	-0.005	0.112
-480.362	123.470	0.179	-0.224
-479.347	-57.051	0.146	-0.064
-478.332	-200.000	0.091	0.452
-477.318	-200.000	-0.008	-0.070
-476.303	-200.000	0.004	-0.208
-475.289	-17.494	0.123	0.077
-474.274	800.000	-0.080	0.258
-473.259	-115.008	-0.375	-0.071
-472.245	89.929	0.175	0.195
-471.230	-200.000	0.079	0.465
-470.216	78.341	-0.314	-0.333
-469.201	-200.000	-0.058	-0.471
-468.186	800.000	0.103	0.341
-467.172	-104.226	-0.083	-0.019
-466.157	-70.544	0.300	-0.113
-465.143	434.887	-0.160	0.346
-464.128	800.000	-0.059	-0.163
-463.113	353.699	-0.046	0.091
-462.099	-101.186	-0.215	0.052
-461.084	189.677	-0.078	0.117
-460.070	49.837	0.100	-0.093
-459.055	-58.112	0.207	-0.090
-458.040	-70.740	0.131	0.049
-457.026	51.625	-0.067	-0.063
-456.011	-151.365	0.323	-0.024
-454.997	50.933	0.314	0.296
-453.982	-200.000	0.015	0.581
-452.968	18.957	-0.194	0.154
-451.953	-154.910	0.096	0.006
-450.938	276.140	0.058	-0.102
-449.924	-96.257	-0.195	0.051
-448.909	-34.160	0.187	-0.102
-447.895	-20.574	-0.209	0.127
-446.880	-200.000	-0.015	0.247
-445.865	221.450	-0.041	-0.066
-444.851	-200.000	0.079	-0.409
-443.836	719.329	-0.050	0.132
-442.822	-200.000	-0.184	-0.000
-441.807	306.915	0.061	0.113
-440.792	259.080	-0.181	-0.309
-439.778	68.041	0.344	-0.350
-438.763	-129.781	0.171	0.023
-437.749	-129.692	-0.503	0.069
-436.734	-165.198	0.371	0.016
-435.719	-200.000	-0.023	0.123
-434.705	177.897	-0.128	0.185
-433.690	-200.000	-0.012	-0.172
-432.676	-149.155	-0.114	-0.009
-431.661	-44.455	-0.163	-0.081
-430.646	800.000	0.036	-0.153
-429.632	-47.699	0.226	-0.109
-428.617	-200.000	0.026	-0.211
-427.603	-200.000	0.000	0.083
-426.588	79.804	0.073	-0.078
-425.573	5.034	0.157	-0.114
-424.559	-43.973	0.156	-0.078
-423.544	57.337	0.152	-0.147
-422.530	219.070	-0.159	0.251
-421.515	176.883	0.085	0.123
-420.500	387.470	0.147	0.300
-419.486	-200.000	-0.008	-0.035
-418.471	-200.000	-0.004	0.051
-417.457	800.000	0.134	-0.562
-416.442	133.915	0.157	-0.201
-415.428	23.838	-0.077	0.063
-414.413	-106.745	-0.210	-0.046
-413.398	-110.273	0.110	-0.023
-412.384	-43.137	-0.265	-0.133
-411.369	-58.905	0.135	-0.058
-410.355	-75.662	-0.218	0.077
-409.340	425.870	0.067	0.142
-408.325	480.188	-0.118	0.265
-407.311	-200.000	0.023	-0.128
-406.296	200.546	-0.142	0.216
-405.282	-200.000	0.015	-0.121
-404.267	-200.000	0.072	0.324
-403.252	137.470	0.058	0.075
-402.238	146.425	-0.173	0.230
-401.223	-200.000	0.035	0.225
-400.209	81.483	-0.099	0.106
-399.194	108.721	-0.160	-0.190
-398.179	-200.000	-0.008	0.056
-397.165	500.599	0.047	-0.107
-396.150	-94.038	0.225	-0.061
-395.136	-174.587	0.264	0.007
-394.121	-73.908	0.193	-0.069
-393.106	6.639	-0.141	0.104
-392.092	65.415	-0.047	-0.047
-391.077	-51.318	0.208	0.096
-390.063	800.000	-0.047	-0.148
-389.048	-41.319	-0.302	0.154
-388.033	37.159	0.211	0.185
-387.019	480.344	0.081	-0.181
-386.004	800.000	0.046	0.151
-384.990	88.484	0.337	0.371
-383.975	-65.071	-0.096	0.039
-382.960	518.765	-0.050	-0.116
-381.946	203.114	-0.080	0.123
-380.931	-159.015	0.051	0.003
-379.917	-143.959	0.267	0.025
-378.902	-122.106	-0.112	-0.018
-377.888	105.722	0.112	-0.131
-376.873	-61.245	0.273	0.114
-375.858	193.702	0.105	-0.158
-374.844	-58.921	0.245	0.105
-373.829	-200.000	0.008	-0.042
-372.815	-126.559	-0.181	-0.027
-371.800	-24.304	0.124	-0.073
-370.785	800.000	-0.070	0.223
-369.771	-159.005	0.375	-0.021
-368.756	5.174	-0.061	-0.044
-367.742	12.195	-0.223	0.170
-366.727	-48.013	-0.338	0.162
-365.712	13.216	0.397	0.304
-364.698	-101.112	0.136	-0.033
-363.683	155.065	0.025	-0.034
-362.669	-133.677	-0.125	-0.015
-361.654	16.062	0.163	-0.127
-360.639	-200.000	0.010	0.176
-359.625	-84.780	-0.142	-0.044
-358.610	-1.208	0.047	0.033
-357.596	764.181	-0.131	0.351
-356.581	-122.385	0.366	0.059
-355.566	21.509	0.281	0.226
-354.552	171.344	-0.080	0.114
-353.537	-57.403	0.472	-0.205
-352.523	-108.539	0.331	0.070
-351.508	102.226	0.067	-0.077
-350.493	30.764	-0.077	0.065
-349.479	-160.851	0.065	-0.003
-348.464	-61.737	-0.196	0.081
-347.450	657.593	-0.067	-0.169
-346.435	-40.238	-0.053	0.027
-345.420	203.775	-0.170	0.260
-344.406	-200.000	-0.028	-0.256
-343.391	-72.134	-0.327	-0.120
-342.377	114.362	0.075	0.090
-341.362	800.000	0.033	0.135
-340.348	-134.514	-0.268	0.032
-339.333	-200.000	-0.011	0.103
-338.318	95.660	0.083	0.094
-337.304	29.917	-0.132	0.111
-336.289	205.871	0.203	-0.311
-335.275	-188.855	-0.103	0.001
-334.260	-200.000	0.004	-0.114
-333.245	-64.877	-0.255	0.102
-332.231	-200.000	0.058	-0.304
-331.216	-132.614	0.201	0.025
-330.202	-111.330	0.378	-0.076
-329.187	3.305	-0.295	-0.212
-328.172	-65.558	0.248	0.098
-327.158	-200.000	-0.028	0.233
-326.143	185.976	0.125	0.184
-325.129	-75.846	0.204	0.071
-324.114	27.572	0.114	-0.095
-323.099	26.447	0.114	-0.094
-322.085	86.942	-0.061	0.066
-321.070	800.000	-0.042	0.140
-320.056	-35.483	0.284	0.152
-319.041	124.876	0.081	0.100
-318.026	306.888	-0.087	0.159
-317.012	800.000	0.079	-0.260
-315.997	-88.573	-0.104	-0.031
-314.983	-200.000	-0.048	0.393
-313.968	-66.617	0.138	0.054
-312.953	292.703	-0.025	0.045
-311.939	-51.574	-0.186	0.086
-310.924	15.827	-0.159	-0.123
-309.910	-136.551	0.276	0.032
-308.895	-40.618	-0.198	0.101
-307.880	248.469	-0.131	0.218
-306.866	-47.390	-0.136	0.065
-305.851	-200.000	0.004	0.473
-304.837	85.316	0.132	-0.143
-303.822	258.625	0.037	-0.062
-302.807	-54.127	0.074	-0.033
-301.793	-153.054	0.113	-0.008
-300.778	-200.000	0.026	-0.154
-299.764	-5.433	0.326	-0.220
-298.749	-12.359	-0.429	-0.277
-297.735	-107.683	0.311	-0.067
-296.720	-74.312	0.413	0.147
-295.705	-140.610	-0.093	0.010
-294.691	194.068	-0.140	-0.210
-293.676	-137.900	0.186	-0.020
-292.662	800.000	0.067	0.195
-291.647	-200.000	-0.072	0.378
-290.632	-63.637	-0.106	-0.043
-289.618	-112.369	-0.164	-0.032
-288.603	0.521	-0.089	-0.063
-287.589	-160.603	-0.313	-0.016
-286.574	-178.846	-0.058	-0.001
-285.559	196.282	-0.097	-0.145
-284.545	114.492	0.212	0.254
-283.530	-58.289	-0.090	-0.039
-282.516	-160.892	0.107	0.006
-281.501	-8.733	-0.258	0.170
-280.486	-71.006	0.363	0.135
-279.472	14.767	0.186	0.143
-278.457	70.462	0.030	-0.030
-277.443	-32.509	-0.232	-0.127
-276.428	-148.176	0.312	0.025
-275.413	48.908	0.036	-0.033
-274.399	-151.378	-0.455	-0.033
-273.384	147.646	0.092	-0.122
-272.370	-200.000	-0.019	-0.433
-271.355	-85.342	-0.144	-0.044
-270.340	139.546	-0.160	-0.208
-269.326	18.931	-0.216	0.171
-268.311	-61.156	0.137	-0.057
-267.297	-200.000	0.040	-0.301
-266.282	-148.434	-0.190	0.015
-265.267	-67.834	0.536	0.206
-264.253	223.859	-0.048	-0.077
-263.238	-106.549	-0.362	0.080
-262.224	159.208	0.166	0.228
-261.209	-200.000	0.056	0.315
-260.195	-72.231	0.206	-0.075
-259.180	363.397	-0.195	-0.387
-258.165	43.691	-0.114	0.103
-257.151	17.686	0.126	0.099
-256.136	-43.385	-0.119	0.059
-255.122	800.000	-0.078	0.236
-254.107	292.725	0.123	-0.220
-253.092	-121.855	0.177	-0.029
-252.078	800.000	0.044	-0.173
-251.063	-200.000	0.051	-0.434
-250.049	-200.000	0.013	0.100
-249.034	-200.000	0.007	-0.169
-248.019	-200.000	-0.011	-0.055
-247.005	-27.416	0.097	-0.056
-245.990	-200.000	-0.058	0.344
-244.976	-8.048	-0.330	-0.219
-243.961	185.450	0.014	-0.021
-242.946	-200.000	-0.013	-0.139
-241.932	-144.882	0.151	-0.014
-240.917	52.394	-0.125	0.117
-239.903	-67.290	-0.101	0.039
-238.888	-200.000	0.004	0.070
-237.873	800.000	0.026	0.086
-236.859	21.401	-0.204	0.163
-235.844	583.547	0.018	0.044
-234.830	226.968	0.021	-0.034
-233.815	16.728	-0.136	0.106
-232.800	284.648	0.119	-0.212
-231.786	152.230	0.161	0.216
-230.771	-98.490	0.129	-0.033
-229.757	797.655	-0.039	0.106
-228.742	356.178	0.094	0.184
-227.727	715.789	-0.100	0.261
-226.713	-199.528	-0.208	0.001
-225.698	506.194	0.088	0.200
-224.684	212.239	0.175	-0.271
-223.669	635.129	-0.089	-0.222
-222.655	-200.000	-0.034	-0.166
-221.640	-200.000	0.014	0.351
-220.625	142.833	0.188	-0.245
-219.611	800.000	0.081	-0.230
-218.596	94.172	-0.256	-0.286
-217.582	-200.000	-0.011	0.065
-216.567	-200.000	0.003	0.049
-215.552	-6.571	-0.175	-0.117
-214.538	-200.000	0.036	-0.255
-213.523	-190.345	0.142	0.002
-212.509	-200.000	-0.021	0.332
-211.494	257.657	0.081	-0.138
-210.479	-7.310	-0.146	-0.097
-209.465	-100.567	0.225	0.055
-208.450	-122.731	-0.064	-0.010
-207.436	800.000	0.089	-0.267
-206.421	514.157	-0.065	-0.150
-205.406	-200.000	-0.014	0.183
-204.392	0.237	0.084	0.059
-203.377	-159.392	-0.175	-0.010
-202.363	-87.091	0.167	-0.050
-201.348	-3.044	-0.090	-0.062
-200.333	-200.000	-0.016	-0.111
-199.319	98.842	0.134	-0.152
-198.304	476.243	-0.023	0.051
-197.290	-127.797	-0.092	0.013
-196.275	-45.477	-0.231	0.113
-195.260	213.301	-0.108	0.168
-194.246	-48.025	-0.124	0.059
-193.231	-114.714	-0.133	0.025
-192.217	-123.170	0.323	-0.051
-191.202	-51.054	-0.182	-0.084
-190.187	800.000	-0.112	-0.324
-189.173	388.366	-0.009	0.019
-188.158	-1.040	-0.117	-0.081
-187.144	276.984	0.167	0.291
-186.129	180.857	-0.061	0.088
-185.114	-200.000	-0.027	0.128
-184.100	242.376	0.113	-0.186
-183.085	-174.525	0.157	-0.004
-182.071	512.848	0.174	-0.397
-181.056	87.824	0.092	0.100
-180.042	-44.644	-0.127	-0.062
-179.027	-21.269	-0.451	-0.270
-178.012	140.194	-0.269	0.349
-176.998	61.824	-0.032	0.032
-175.983	143.393	-0.065	-0.085
-174.969	11.069	0.075	-0.056
-173.954	-200.000	-0.038	-0.223
-172.939	-32.728	-0.244	0.133
-171.925	-1.256	0.144	0.100
-170.910	-87.530	0.225	0.067
-169.896	800.000	-0.012	0.047
-168.881	-48.687	0.254	-0.120
-167.866	800.000	0.058	-0.190
-166.852	-84.405	-0.316	0.098
-165.837	-156.049	-0.402	-0.025
-164.823	-132.739	0.287	-0.036
-163.808	-147.304	0.224	-0.019
-162.793	-57.096	-0.342	0.148
-161.779	-198.565	0.111	0.001
-160.764	-200.000	0.036	-0.355
-159.750	79.554	0.169	-0.178
-158.735	-200.000	0.014	0.285
-157.720	-200.000	0.025	0.280
-156.706	3.837	0.025	0.018
-155.691	474.401	-0.040	-0.088
-154.677	-200.000	0.007	-0.114
-153.662	2.899	0.105	-0.075
-152.647	-49.751	-0.312	-0.145
-151.633	0.982	-0.114	0.080
-150.618	-200.000	-0.012	-0.359
-149.604	-181.428	-0.478	-0.009
-148.589	108.415	0.141	-0.165
-147.574	294.261	0.082	-0.147
-146.560	65.852	-0.137	-0.136
-145.545	-6.107	0.212	0.142
-144.531	-91.547	0.425	-0.119
-143.516	-200.000	-0.003	-0.117
-142.502	297.908	0.077	-0.139
-141.487	285.739	0.091	0.162
-140.472	-200.000	-0.007	-0.105
-139.458	-118.035	-0.104	-0.018
-138.443	-200.000	0.014	0.076
-137.429	488.917	-0.163	-0.366
-136.414	-78.253	0.136	-0.046
-135.399	130.203	-0.096	0.121
-134.385	-200.000	-0.062	-0.301
-133.370	27.926	-0.240	-0.198
-132.356	45.700	-0.108	-0.098
-131.341	55.275	-0.237	-0.224
-130.326	-29.612	-0.254	0.142
-129.312	107.917	-0.042	-0.049
-128.297	179.656	-0.055	0.079
-127.283	-97.109	0.349	0.089
-126.268	-107.031	-0.234	-0.051
-125.253	800.000	0.123	-0.459
-124.239	800.000	-0.095	0.260
-123.224	800.000	-0.018	-0.057
-122.210	-200.000	0.001	0.018
-121.195	-62.828	-0.295	-0.119
-120.180	38.526	-0.113	-0.099
-119.166	-57.580	0.138	0.059
-118.151	126.867	-0.205	0.255
-117.137	-96.282	0.427	-0.111
-116.122	-200.000	0.002	-0.204
-115.107	-200.000	-0.032	-0.249
-114.093	424.064	0.085	-0.180
-113.078	72.018	-0.216	-0.220
-112.064	-8.372	0.282	-0.186
-111.049	50.821	0.096	0.089
-110.034	800.000	-0.094	-0.263
-109.020	-65.203	-0.450	-0.178
-108.005	-44.578	-0.305	0.149
-106.991	800.000	0.034	0.117
-105.976	-105.641	0.337	0.075
-104.962	-200.000	-0.015	-0.262
-103.947	-200.000	0.052	-0.263
-102.932	-200.000	-0.003	0.036
-101.918	-200.000	0.018	0.252
-100.903	-200.000	0.029	-0.184
-99.889	-68.824	0.089	-0.034
-98.874	-200.000	-0.007	-0.141
-97.859	454.908	0.089	0.193
-96.845	17.501	-0.233	0.181
-95.830	321.804	-0.146	0.271
-94.816	417.284	0.067	0.139
-93.801	-48.551	-0.108	0.051
-92.786	377.588	0.035	-0.070
-91.772	-200.000	-0.002	0.049
-90.757	-130.754	-0.190	-0.025
-89.743	-128.644	0.153	0.021
-88.728	43.274	0.128	0.114
-87.713	99.391	-0.141	-0.159
-86.699	49.265	0.091	-0.084
-85.684	131.630	0.036	0.045
-84.670	-57.328	-0.138	-0.060
-83.655	0.752	-0.163	-0.114
-82.640	-23.244	-0.085	-0.050
-81.626	-10.635	-0.136	0.088
-80.611	-199.368	-0.228	-0.001
-79.597	-129.806	-0.284	-0.038
-78.582	94.303	0.128	0.142
-77.567	137.037	-0.082	-0.105
-76.553	800.000	0.081	0.279
-75.538	-200.000	0.037	0.197
-74.524	-200.000	0.002	-0.051
-73.509	-93.502	0.273	0.074
-72.494	197.153	0.098	-0.146
-71.480	74.932	-0.111	0.114
-70.465	75.256	0.172	-0.177
-69.451	245.899	0.081	0.133
-68.436	-132.292	0.208	0.026
-67.422	-119.472	-0.174	0.029
-66.407	-88.710	-0.327	0.095
-65.392	361.051	-0.063	-0.123
-64.378	-87.804	0.185	-0.055
-63.363	-41.408	-0.189	-0.095
-62.349	-200.000	-0.299	0.001
-61.334	13.376	-1.072	-0.812
-60.319	146.040	0.577	0.757
-59.305	415.493	-0.639	-1.331
-58.290	167.202	0.835	1.158
-57.276	767.200	0.651	1.729
-56.261	-200.000	116.481	645.443
-55.246	504.093	1537.021	3475.359
-54.232	176.694	2704.346	3842.089
-53.217	105.573	2146.753	2479.161
-52.203	38.034	1583.058	1375.623
-51.188	29.882	1325.917	1103.756
-50.173	27.032	1287.395	1055.113
-49.159	52.851	1346.213	1257.600
-48.144	51.308	1359.469	1260.771
-47.130	29.971	1313.431	1093.711
-46.115	26.615	1295.306	1058.992
-45.100	26.452	1290.603	1054.153
-44.086	26.339	1288.063	1051.380
-43.071	26.316	1285.737	1049.304
-42.057	26.307	1283.406	1047.312
-41.042	26.254	1282.242	1046.011
-40.027	26.385	1280.596	1045.383
-39.013	26.344	1278.446	1043.352
-37.998	26.356	1276.960	1042.167
-36.984	26.533	1274.798	1041.380
-35.969	26.447	1273.568	1039.839
-34.954	26.464	1271.605	1038.294
-33.940	26.539	1270.593	1037.854
-32.925	26.531	1268.721	1036.241
-31.911	26.614	1266.988	1035.254
-30.896	26.631	1265.824	1034.359
-29.881	26.672	1264.210	1033.234
-28.867	26.622	1263.337	1032.193
-27.852	26.576	1261.746	1030.592
-26.838	26.568	1260.480	1029.472
-25.823	26.625	1259.050	1028.586
-24.809	26.560	1257.907	1027.243
-23.794	26.544	1256.694	1026.121
-22.779	26.635	1254.950	1025.173
-21.765	26.647	1253.959	1024.388
-20.750	26.690	1252.292	1023.229
-19.736	26.535	1251.476	1021.648
-18.721	26.498	1249.979	1020.175
-17.706	26.526	1248.740	1019.284
-16.692	26.434	1248.187	1018.273
-15.677	26.491	1246.858	1017.467
-14.663	26.439	1245.903	1016.358
-13.648	26.373	1244.783	1015.036
-12.633	26.441	1243.598	1014.406
-11.619	26.448	1243.520	1014.342
-10.604	26.455	1241.897	1013.017
-9.590	26.366	1241.419	1012.090
-8.575	26.436	1240.206	1011.454
-7.560	26.537	1239.148	1011.115
-6.546	26.329	1238.248	1009.179
-5.531	26.330	1237.628	1008.641
-4.517	26.396	1236.748	1008.250
-3.502	26.519	1235.621	1007.973
-2.487	26.509	1234.668	1007.104
-1.473	26.384	1230.446	1002.925
-0.458	24.899	1216.331	983.233
0.556	21.910	1199.963	947.442
1.571	18.273	1206.145	932.461
2.586	17.486	1220.703	939.289
3.600	17.061	1209.033	927.904
4.615	12.975	1138.171	852.376
5.629	6.100	1068.206	766.471
6.644	3.307	1050.756	740.469
7.659	3.167	1048.291	737.998
8.673	3.031	1047.624	736.810
9.688	3.155	1046.229	736.359
10.702	3.426	1043.576	735.717
11.717	7.311	1048.543	757.757
12.731	14.556	1058.840	799.990
13.746	19.124	1064.557	826.214
14.761	19.871	1065.262	830.271
15.775	19.016	1063.128	824.441
16.790	17.954	1061.064	817.681
17.804	17.202	1060.210	813.356
18.819	17.032	1058.988	811.534
19.834	16.897	1058.109	810.141
20.848	16.773	1057.263	808.828
21.863	16.541	1056.506	807.074
22.877	16.364	1056.063	805.818
23.892	16.345	1055.105	804.925
24.907	16.386	1054.390	804.504
25.921	16.236	1053.526	803.059
26.936	16.366	1052.218	802.611
27.950	16.459	1050.778	801.881
28.965	16.500	1049.223	800.818
29.980	16.702	1047.419	800.327
30.994	16.723	1046.972	800.011
32.009	16.689	1046.139	799.144
33.023	16.592	1044.948	797.707
34.038	16.560	1043.808	796.614
35.053	16.449	1042.934	795.356
36.067	16.420	1042.293	794.662
37.082	16.568	1041.172	794.428
38.096	16.623	1040.455	794.068
39.111	16.626	1039.987	793.656
40.126	16.468	1038.651	791.829
41.140	16.226	1037.046	789.399
42.155	16.212	1035.957	788.436
43.169	16.101	1035.121	787.211
44.184	16.164	1033.371	786.107
45.199	16.091	1033.040	785.445
46.213	16.267	1031.671	785.151
47.228	16.413	1031.064	785.299
48.242	16.449	1029.807	784.441
49.257	16.361	1029.373	783.631
50.271	16.422	1028.310	783.034
51.286	16.519	1027.170	782.548
52.301	16.543	1026.293	781.921
53.315	16.441	1025.325	780.642
54.330	16.358	1024.194	779.332
55.344	16.380	1023.130	778.554
56.359	16.336	1022.583	777.864
57.374	16.257	1021.748	776.798
58.388	16.138	1020.755	775.425
59.403	16.101	1019.815	774.477
60.417	16.184	1019.139	774.274
61.432	16.071	1018.073	772.877
62.447	16.101	1017.318	772.376
63.461	15.893	1017.072	771.164
64.476	15.986	1015.634	770.430
65.490	16.148	1014.517	770.258
66.505	16.079	1014.118	769.571
67.520	16.088	1013.705	769.230
68.534	16.107	1012.449	768.297
69.549	15.973	1012.025	767.294
70.563	15.928	1011.209	766.406
71.578	15.842	1010.267	765.233
72.593	15.869	1009.013	764.338
73.607	15.931	1008.635	764.266
74.622	15.942	1008.480	764.131
75.636	15.850	1007.845	763.165
76.651	15.876	1006.674	762.325
77.666	16.022	1005.862	762.304
78.680	15.927	1005.575	761.590
79.695	16.063	1004.833	761.577
80.709	16.079	1004.654	761.443
81.724	16.204	1003.695	761.215
82.739	16.327	1002.946	761.135
83.753	16.476	1002.232	761.193
84.768	16.652	1001.867	761.641
85.782	16.762	1000.785	761.245
86.797	16.610	1000.054	759.940
87.812	16.461	999.327	758.651
88.826	16.588	997.921	758.089
89.841	16.590	997.156	757.446
90.855	16.609	996.369	756.866
91.870	16.695	995.482	756.513
92.884	16.710	994.759	755.963
93.899	16.723	993.815	755.238
94.914	16.712	993.156	754.618
95.928	16.666	992.352	753.737
96.943	16.690	991.458	753.100
97.957	16.548	990.335	751.546
98.972	16.506	989.671	750.792
99.987	16.694	988.676	750.804
101.001	16.733	987.589	750.084
102.016	16.528	987.025	748.682
103.030	16.679	986.285	748.721
104.045	16.628	985.735	748.013
105.060	16.453	984.693	746.385
106.074	16.344	983.407	744.862
107.089	16.044	982.766	742.989
108.103	16.152	981.596	742.514
109.118	16.087	980.592	741.403
110.133	16.062	979.533	740.428
111.147	16.015	979.151	739.867
112.162	16.258	978.005	739.998
113.176	16.134	977.500	739.010
114.191	16.266	977.134	739.243
115.206	16.407	975.820	738.802
116.220	16.342	974.953	737.796
117.235	16.170	974.179	736.395
118.249	16.151	973.184	735.497
119.264	16.137	972.179	734.609
120.279	16.201	971.798	734.534
121.293	16.131	970.903	733.488
122.308	16.041	969.792	732.196
123.322	15.961	968.692	730.949
124.337	16.051	967.950	730.718
125.352	15.991	966.679	729.434
126.366	16.048	965.647	728.837
127.381	16.146	964.233	728.129
128.395	15.989	963.723	726.999
129.410	16.200	962.671	727.053
130.424	16.090	962.168	726.133
131.439	16.186	961.789	726.196
132.454	16.189	961.014	725.560
133.468	16.344	959.696	725.168
134.483	16.297	958.906	724.304
135.497	16.111	958.627	723.233
136.512	16.259	957.702	723.104
137.527	16.288	956.915	722.569
138.541	16.365	955.571	721.819
139.556	16.362	955.439	721.644
140.570	16.432	954.709	721.326
141.585	16.625	953.804	721.401
142.600	16.569	953.078	720.549
143.614	16.929	952.031	721.228
144.629	16.700	951.590	719.855
145.643	16.679	950.617	718.965
146.658	16.473	949.568	717.237
147.673	16.494	948.401	716.380
148.687	16.358	947.920	715.376
149.702	16.326	947.195	714.633
150.716	16.323	946.049	713.691
151.731	16.296	945.811	713.334
152.746	16.282	945.078	712.659
153.760	16.471	944.458	712.926
154.775	16.523	944.077	712.793
155.789	16.675	943.052	712.598
156.804	16.594	942.226	711.570
157.819	16.784	941.175	711.510
158.833	16.847	940.851	711.465
159.848	16.888	939.990	710.924
160.862	16.693	939.093	709.368
161.877	16.482	938.223	707.762
162.892	16.443	936.821	706.482
163.906	16.453	935.961	705.812
164.921	16.392	935.237	704.947
165.935	16.513	934.390	704.752
166.950	16.558	933.920	704.523
167.964	16.534	932.840	703.547
168.979	16.535	932.126	702.948
169.994	16.439	931.127	701.736
171.008	16.500	930.484	701.442
172.023	16.810	929.330	701.795
173.037	16.797	929.136	701.530
174.052	16.819	928.055	700.744
175.067	16.554	927.608	699.248
176.081	16.411	927.203	698.292
177.096	16.450	926.184	697.623
178.110	16.494	925.936	697.554
179.125	16.456	925.644	697.118
180.140	16.558	925.041	697.022
181.154	16.773	924.002	697.062
182.169	16.805	924.003	697.132
183.183	16.886	923.431	696.974
184.198	16.762	922.782	695.912
185.213	16.990	921.488	695.809
186.227	16.861	921.238	695.029
187.242	17.007	920.564	695.059
188.256	16.937	920.146	694.393
189.271	16.934	919.456	693.799
190.286	16.641	918.321	691.686
191.300	16.444	917.367	690.102
192.315	16.418	916.814	689.517
193.329	16.362	916.222	688.784
194.344	16.602	915.907	689.463
195.359	16.789	914.824	689.347
196.373	16.772	914.843	689.233
197.388	16.928	914.378	689.455
198.402	17.059	913.629	689.362
199.417	17.204	913.253	689.606
200.432	17.408	912.410	689.735
201.446	17.189	912.365	688.752
202.461	17.281	911.965	688.762
203.475	17.445	910.645	688.367
204.490	17.147	909.942	686.569
205.504	16.951	909.321	685.249
206.519	17.088	908.138	684.849
207.534	16.959	907.873	684.068
208.548	16.979	907.137	683.534
209.563	17.102	906.772	683.693
210.577	17.232	906.217	683.740
211.592	17.161	905.722	683.018
212.607	17.389	904.600	683.028
213.621	17.408	903.791	682.432
214.636	17.208	903.242	681.156
215.650	17.316	902.635	681.072
216.665	17.361	902.495	681.084
217.680	17.414	901.484	680.475
218.694	17.516	900.910	680.390
219.709	17.334	900.178	679.050
220.723	17.397	899.503	678.732
221.738	17.338	898.696	677.828
222.753	17.293	898.252	677.255
223.767	17.389	897.888	677.299
224.782	17.637	897.243	677.742
225.796	17.619	896.496	677.046
226.811	17.538	895.728	676.082
227.826	17.365	894.988	674.781
228.840	17.417	894.453	674.523
229.855	17.247	893.706	673.227
230.869	17.319	892.867	672.817
231.884	17.204	892.313	671.887
232.899	17.415	891.404	671.976
233.913	17.368	890.161	670.794
234.928	17.227	890.014	670.069
235.942	17.174	889.686	669.554
236.957	17.199	889.048	669.113
237.972	17.262	888.176	668.644
238.986	17.264	887.726	668.257
240.001	17.275	887.070	667.746
241.015	17.392	886.366	667.614
242.030	17.382	886.146	667.351
243.045	17.573	885.452	667.520
244.059	17.564	884.894	667.002
245.074	17.447	884.819	666.428
246.088	17.608	883.397	665.929
247.103	17.655	882.990	665.745
248.117	17.633	883.000	665.609
249.132	18.007	882.438	666.589
250.147	18.028	882.032	666.301
251.161	17.992	880.956	665.292
252.176	18.058	880.357	665.035
253.190	18.082	879.878	664.711
254.205	18.193	879.281	664.633
255.220	18.132	878.893	664.042
256.234	18.136	877.883	663.237
257.249	18.090	877.353	662.598
258.263	18.051	876.395	661.666
259.278	18.092	876.183	661.605
260.293	18.305	874.917	661.416
261.307	18.329	874.913	661.445
262.322	18.374	873.913	660.804
263.336	18.355	873.241	660.164
264.351	18.209	872.894	659.282
265.366	18.385	872.210	659.383
266.380	18.385	871.792	659.009
267.395	18.421	870.909	658.421
268.409	18.096	870.316	656.665
269.424	18.393	869.359	657.027
270.439	18.305	868.245	655.790
271.453	18.140	868.323	655.159
272.468	18.182	867.257	654.457
273.482	18.214	866.838	654.205
274.497	18.254	865.904	653.593
275.512	18.195	865.794	653.227
276.526	18.125	865.439	652.637
277.541	18.272	864.628	652.527
278.555	18.451	864.348	652.941
279.570	18.526	863.663	652.648
280.585	18.375	863.089	651.585
281.599	18.407	861.949	650.788
282.614	18.436	860.718	649.911
283.628	18.289	860.850	649.394
284.643	18.197	860.523	648.741
285.657	18.240	859.663	648.197
286.672	18.320	859.011	647.955
287.687	18.323	858.499	647.522
288.701	18.355	857.873	647.111
289.716	18.431	857.125	646.778
290.730	18.452	856.745	646.511
291.745	18.434	855.682	645.587
292.760	18.422	855.631	645.444
293.774	18.737	854.893	646.016
294.789	18.521	854.409	644.780
295.803	18.439	853.574	643.785
296.818	18.365	852.776	642.848
297.833	18.484	852.153	642.769
298.847	18.425	851.641	642.104
299.862	18.538	851.027	642.009
300.876	18.626	850.645	641.992
301.891	18.677	850.150	641.752
302.906	18.861	849.222	641.682
303.920	18.954	849.143	641.915
304.935	19.014	848.524	641.612
305.949	18.887	847.749	640.497
306.964	18.776	847.188	639.601
307.979	18.767	846.703	639.148
308.993	18.915	846.149	639.221
310.008	18.733	845.848	638.261
311.022	18.901	844.975	638.169
312.037	18.770	844.099	636.967
313.052	18.548	843.831	635.886
314.066	18.502	843.103	635.108
315.081	18.633	842.664	635.206
316.095	18.573	842.378	634.713
317.110	18.560	841.521	633.962
318.125	18.563	841.065	633.575
319.139	18.559	840.673	633.209
320.154	18.730	839.853	633.166
321.168	18.824	839.404	633.117
322.183	18.745	838.914	632.402
323.197	18.677	838.723	631.952
324.212	18.668	838.419	631.634
325.227	18.713	837.468	631.027
326.241	18.760	836.809	630.646
327.256	18.688	836.013	629.725
328.270	18.734	835.662	629.576
329.285	18.659	835.057	628.788
330.300	18.690	834.629	628.524
331.314	18.608	834.128	627.791
332.329	18.957	833.704	628.694
333.343	18.837	833.333	627.917
334.358	19.002	832.912	628.149
335.373	18.962	832.467	627.613
336.387	18.987	832.584	627.735
337.402	19.045	832.251	627.640
338.416	19.097	832.005	627.588
339.431	19.078	831.800	627.310
340.446	19.240	831.020	627.254
341.460	19.376	830.613	627.389
342.475	19.331	830.198	626.857
343.489	19.369	830.066	626.840
344.504	19.362	829.318	626.192
345.519	19.440	828.722	625.970
346.533	19.334	828.212	625.144
347.548	19.288	827.716	624.551
348.562	19.260	826.523	623.492
349.577	19.140	826.168	622.736
350.592	19.097	825.684	622.159
351.606	18.992	825.281	621.423
352.621	18.952	824.512	620.645
353.635	19.250	823.642	621.006
354.650	19.111	822.956	619.934
355.665	19.240	822.368	619.902
356.679	19.266	822.138	619.766
357.694	19.233	821.486	619.103
358.708	19.362	820.470	618.744
359.723	19.312	820.218	618.322
360.738	19.233	819.632	617.540
361.752	19.301	819.350	617.518
362.767	19.499	818.642	617.636
363.781	19.540	818.178	617.378
364.796	19.679	817.810	617.544
365.810	19.639	817.842	617.371
366.825	19.846	817.354	617.685
367.840	19.851	816.562	617.051
368.854	19.672	815.565	615.606
369.869	19.536	815.673	615.147
370.883	19.604	815.190	614.971
371.898	19.697	814.973	615.085
372.913	19.918	814.103	615.157
373.927	19.727	813.939	614.300
374.942	19.801	813.289	614.020
375.956	19.840	813.246	614.071
376.971	19.821	812.719	613.552
377.986	20.121	812.004	614.021
379.000	20.057	811.458	613.327
380.015	19.966	811.037	612.631
381.029	20.021	810.543	612.399
382.044	19.918	810.004	611.572
383.059	20.053	809.328	611.485
384.073	19.889	808.786	610.445
385.088	19.782	808.389	609.713
386.102	19.739	807.452	608.801
387.117	19.734	806.884	608.300
388.132	19.789	806.086	607.837
389.146	19.998	805.532	608.100
390.161	19.989	805.751	608.180
391.175	20.063	804.992	607.815
392.190	19.962	804.289	606.876
393.205	19.810	804.025	606.089
394.219	19.653	803.785	605.306
395.234	19.804	803.122	605.282
396.248	19.672	802.727	604.469
397.263	19.775	802.081	604.288
398.278	19.657	801.726	603.557
399.292	19.572	801.568	603.086
400.307	19.564	800.975	602.557
401.321	19.700	800.309	602.478
402.336	19.809	799.885	602.485
403.350	19.748	799.875	602.212
404.365	20.024	799.066	602.509
405.380	20.026	798.760	602.233
406.394	20.170	798.208	602.264
407.409	20.216	798.100	602.287
408.423	20.275	798.046	602.399
409.438	20.299	797.214	601.801
410.453	20.360	796.854	601.689
411.467	20.346	796.665	601.443
412.482	20.451	795.829	601.122
413.496	20.542	795.893	601.434
414.511	20.293	795.986	600.587
415.526	20.435	795.061	600.329
416.540	20.302	794.537	599.419
417.555	20.399	793.970	599.272
418.569	20.473	793.374	599.026
419.584	20.576	792.834	598.918
420.599	20.525	792.762	598.638
421.613	162.787	1371.502	1797.425
422.628	141.125	1455.803	1797.502
