DTS Sentinel unit serial number:	SN413079Multiplexer serial number:	ORYXHardware model number:	OX4-SRSoftware version number:	ORYX F/W v4.00 Oryx Data Collector v3.7.2.0data status	okinstallation	princeton_trtdifferential loss correction	single-endedforward channel	channel 1reverse channel	N/Adate	2019/09/19time	00:14:35forward acquisition time	60.00reverse acquisition time	0.00gamma	496.2192k internal	0.2342k external	0.2342temperature offset calibration	1.0018default loss term (dB/km)	0.3790temperature slope calibration	1.0000multiplexer offset coefficient	1.0000multiplexer slope coefficient	1.0000fibre end	0.00T internal ref (°C)	22.80T ext. ref 1 (°C)	0.75T ext. ref 2 (°C)	15.85length (m)	temperature (°C)	Stokes	anti-Stokes-747.200	-200.000	0.019	0.183
-746.185	34.227	0.124	0.108
-745.171	132.755	0.220	0.285
-744.156	800.000	0.021	0.084
-743.142	-200.000	-0.040	0.244
-742.127	-200.000	-0.099	0.446
-741.112	-200.000	0.017	-0.436
-740.098	-70.554	-0.258	-0.098
-739.083	-200.000	-0.032	0.257
-738.069	212.270	-0.168	0.266
-737.054	-139.052	-0.262	0.028
-736.039	-85.552	-0.174	0.054
-735.025	326.433	-0.080	0.154
-734.010	84.083	-0.017	0.019
-732.996	76.244	-0.161	-0.171
-731.981	-93.377	-0.181	0.050
-730.966	-184.554	-0.535	0.009
-729.952	-143.155	0.167	0.016
-728.937	-111.998	0.118	0.024
-727.923	-143.331	0.036	0.003
-726.908	-101.711	-0.173	0.042
-725.894	-70.021	-0.306	0.117
-724.879	-121.923	-0.269	-0.044
-723.864	-56.939	0.303	0.134
-722.850	255.611	-0.021	-0.037
-721.835	-22.312	-0.101	-0.061
-720.821	-77.173	-0.268	0.094
-719.806	34.606	-0.143	-0.125
-718.791	-200.000	0.009	-0.147
-717.777	123.550	-0.277	-0.348
-716.762	-105.099	-0.546	0.125
-715.748	-62.972	-0.082	0.034
-714.733	183.708	0.173	-0.255
-713.718	211.070	-0.126	0.199
-712.704	672.121	0.038	-0.098
-711.689	-49.039	-0.169	0.081
-710.675	-88.360	-0.238	-0.071
-709.660	187.885	0.173	-0.259
-708.645	-200.000	-0.047	0.224
-707.631	-46.971	0.318	-0.155
-706.616	166.255	-0.037	-0.053
-705.602	-68.804	0.060	-0.023
-704.587	385.440	0.048	-0.100
-703.572	324.272	0.054	0.104
-702.558	-93.801	-0.335	-0.092
-701.543	39.227	0.090	-0.081
-700.529	417.253	0.077	-0.165
-699.514	-200.000	0.009	0.117
-698.499	-200.000	-0.000	-0.173
-697.485	-86.856	-0.111	0.034
-696.470	-45.296	0.280	0.139
-695.456	-176.634	-0.370	-0.009
-694.441	240.845	-0.076	-0.126
-693.426	-200.000	-0.025	-0.202
-692.412	-200.000	-0.021	-0.136
-691.397	220.731	-0.034	-0.055
-690.383	567.738	-0.177	-0.429
-689.368	35.766	0.227	0.199
-688.354	-200.000	-0.030	0.204
-687.339	-116.460	-0.202	0.037
-686.324	-50.939	0.112	-0.053
-685.310	-61.824	0.261	0.109
-684.295	-112.217	-0.280	0.056
-683.281	523.222	-0.081	0.190
-682.266	800.000	-0.100	-0.308
-681.251	-75.648	-0.705	-0.250
-680.237	800.000	0.113	-0.353
-679.222	-89.337	-0.181	0.053
-678.208	247.142	0.042	0.070
-677.193	-200.000	-0.015	0.111
-676.178	72.358	-0.074	-0.077
-675.164	0.873	-0.287	-0.205
-674.149	608.555	-0.070	-0.174
-673.135	-10.986	-0.353	0.233
-672.120	122.114	-0.302	0.376
-671.105	30.720	-0.275	-0.235
-670.091	-7.467	-0.176	0.119
-669.076	48.041	-0.291	0.271
-668.062	800.000	0.051	0.205
-667.047	511.074	-0.069	0.160
-666.032	-47.452	0.232	-0.112
-665.018	-200.000	-0.008	-0.072
-664.003	-200.000	-0.033	0.662
-662.989	26.816	-0.219	-0.183
-661.974	-200.000	-0.012	-0.054
-660.959	397.818	-0.012	-0.025
-659.945	-200.000	-0.131	0.644
-658.930	99.814	0.185	0.214
-657.916	-125.801	0.436	0.066
-656.901	228.492	-0.107	-0.173
-655.886	-200.000	-0.002	-0.072
-654.872	7.763	-0.183	-0.137
-653.857	800.000	0.091	-0.272
-652.843	10.876	0.090	-0.068
-651.828	151.394	0.112	0.152
-650.814	-68.982	-0.242	-0.093
-649.799	-75.868	0.251	0.089
-648.784	800.000	-0.044	0.142
-647.770	-41.148	0.040	0.020
-646.755	106.511	0.095	-0.112
-645.741	-56.858	-0.172	-0.076
-644.726	186.489	-0.034	0.050
-643.711	-91.556	0.118	-0.034
-642.697	486.055	-0.045	-0.102
-641.682	2.452	0.169	0.122
-640.668	794.836	0.051	-0.140
-639.653	-149.475	0.246	-0.019
-638.638	800.000	-0.084	0.317
-637.624	-87.316	0.297	-0.090
-636.609	-67.181	0.308	-0.121
-635.595	42.183	-0.115	-0.104
-634.580	-50.825	0.108	0.051
-633.565	-18.562	0.256	-0.159
-632.551	800.000	0.137	-0.475
-631.536	188.122	0.040	0.059
-630.522	79.383	-0.091	-0.097
-629.507	-200.000	0.004	-0.115
-628.492	180.509	0.086	0.126
-627.478	-140.301	0.113	0.012
-626.463	59.380	-0.288	0.283
-625.449	-59.612	0.135	0.058
-624.434	-200.000	-0.022	0.105
-623.419	-200.000	0.027	0.213
-622.405	-200.000	-0.044	-0.338
-621.390	-200.000	0.010	0.340
-620.376	-200.000	0.053	0.286
-619.361	-200.000	0.011	0.167
-618.346	-154.154	0.130	-0.009
-617.332	-188.019	0.374	0.005
-616.317	800.000	-0.023	0.100
-615.303	-99.147	-0.475	-0.120
-614.288	-85.718	-0.179	0.055
-613.273	-21.330	0.099	0.060
-612.259	800.000	-0.041	-0.117
-611.244	-33.081	0.100	-0.055
-610.230	-156.647	0.147	0.009
-609.215	-122.563	0.079	-0.013
-608.201	12.876	-0.167	0.129
-607.186	-94.531	-0.365	-0.099
-606.171	-142.584	0.269	-0.026
-605.157	-135.650	-0.030	-0.004
-604.142	221.972	-0.195	-0.312
-603.128	688.473	-0.049	-0.128
-602.113	-200.000	-0.038	-0.238
-601.098	-45.309	0.106	0.052
-600.084	-63.351	-0.226	-0.093
-599.069	-200.000	0.004	-0.136
-598.055	-200.000	-0.011	0.200
-597.040	57.685	0.277	-0.270
-596.025	-57.359	0.136	0.060
-595.011	-54.723	0.091	0.041
-593.996	-129.573	-0.015	-0.002
-592.982	-17.335	-0.234	0.147
-591.967	-64.093	-0.058	-0.023
-590.952	-200.000	-0.011	-0.154
-589.938	-15.362	-0.354	-0.225
-588.923	123.959	-0.105	-0.131
-587.909	-169.987	0.197	0.007
-586.894	-26.271	-0.206	-0.120
-585.879	45.603	0.038	-0.035
-584.865	800.000	0.091	-0.349
-583.850	0.120	0.157	0.112
-582.836	-43.756	0.165	0.083
-581.821	-102.775	-0.263	-0.062
-580.806	630.415	-0.122	-0.306
-579.792	-200.000	0.061	0.284
-578.777	61.637	0.098	0.097
-577.763	-82.097	0.139	0.045
-576.748	-200.000	-0.011	0.057
-575.733	-200.000	0.042	0.260
-574.719	66.255	0.180	0.182
-573.704	-31.463	0.149	-0.083
-572.690	800.000	-0.041	-0.146
-571.675	-40.118	0.222	0.115
-570.661	17.153	-0.158	0.125
-569.646	-142.273	0.088	0.009
-568.631	-77.179	0.235	0.081
-567.617	39.356	0.313	0.279
-566.602	44.227	-0.340	0.311
-565.588	-79.830	-0.080	-0.027
-564.573	-200.000	0.017	-0.201
-563.558	-90.114	0.110	-0.032
-562.544	-4.400	0.122	-0.084
-561.529	58.992	0.139	0.136
-560.515	51.426	0.212	-0.200
-559.500	-200.000	0.011	-0.339
-558.485	-24.013	-0.047	0.028
-557.471	-200.000	0.062	-0.301
-556.456	-109.986	-0.077	0.016
-555.442	-200.000	0.078	0.000
-554.427	-200.000	0.051	-0.354
-553.412	702.008	-0.097	-0.253
-552.398	-149.159	-0.444	-0.035
-551.383	800.000	-0.036	0.121
-550.369	18.686	0.098	-0.078
-549.354	-32.202	-0.150	0.083
-548.339	-200.000	-0.028	0.219
-547.325	-200.000	0.022	0.468
-546.310	-89.595	-0.277	-0.081
-545.296	-6.424	0.046	-0.031
-544.281	-62.294	0.311	0.129
-543.266	110.312	0.099	-0.118
-542.252	714.421	0.097	-0.255
-541.237	13.824	-0.348	0.269
-540.223	48.098	0.095	0.088
-539.208	-88.538	0.394	0.117
-538.193	-62.431	-0.160	0.066
-537.179	95.456	-0.156	0.177
-536.164	800.000	-0.050	0.198
-535.150	73.306	0.263	0.273
-534.135	-62.041	-0.127	0.053
-533.121	800.000	0.038	0.110
-532.106	-200.000	0.003	0.232
-531.091	-200.000	-0.029	0.150
-530.077	-200.000	0.006	0.038
-529.062	-123.991	0.190	-0.030
-528.048	254.014	0.057	-0.097
-527.033	-100.179	-0.326	-0.081
-526.018	-30.353	-0.208	-0.117
-525.004	-165.922	-0.050	0.002
-523.989	-7.056	-0.149	-0.100
-522.975	637.353	0.027	0.067
-521.960	-23.711	-0.125	0.074
-520.945	-44.283	0.285	-0.142
-519.931	800.000	-0.069	-0.209
-518.916	480.189	-0.025	-0.057
-517.902	55.541	0.414	-0.398
-516.887	-24.650	-0.126	0.075
-515.872	16.710	-0.161	0.126
-514.858	-22.498	0.260	-0.156
-513.843	-123.114	-0.121	-0.019
-512.829	800.000	-0.086	0.365
-511.814	497.674	0.043	-0.098
-510.799	-146.999	-0.141	-0.012
-509.785	-58.156	0.169	0.073
-508.770	800.000	0.049	-0.162
-507.756	76.630	-0.205	-0.216
-506.741	-115.577	0.303	0.056
-505.726	109.647	0.280	0.333
-504.712	-178.266	-0.101	-0.002
-503.697	-200.000	0.026	0.215
-502.683	227.727	-0.169	-0.272
-501.668	173.202	-0.083	0.118
-500.653	-78.988	0.272	0.092
-499.639	94.670	-0.140	-0.158
-498.624	-70.874	-0.299	-0.112
-497.610	-200.000	-0.006	-0.254
-496.595	622.343	-0.098	0.244
-495.581	83.795	0.226	-0.244
-494.566	-94.846	0.162	0.044
-493.551	-136.370	-0.232	0.027
-492.537	70.056	-0.087	0.089
-491.522	487.260	-0.186	0.420
-490.508	233.448	-0.085	-0.139
-489.493	-132.362	0.202	-0.026
-488.478	-200.000	-0.020	-0.300
-487.464	572.550	0.157	0.379
-486.449	-200.000	0.005	-0.063
-485.435	27.003	-0.417	-0.347
-484.420	-112.600	0.295	-0.058
-483.405	44.203	0.370	-0.336
-482.391	56.691	-0.300	-0.289
-481.376	-170.635	-0.248	0.009
-480.362	800.000	0.046	-0.161
-479.347	149.983	0.127	0.171
-478.332	-200.000	0.008	0.079
-477.318	-108.506	-0.059	0.013
-476.303	639.221	0.071	0.180
-475.289	120.486	-0.168	0.207
-474.274	-122.184	0.528	-0.086
-473.259	-141.251	-0.324	-0.033
-472.245	72.052	0.067	-0.069
-471.230	-71.932	0.226	-0.083
-470.216	315.530	-0.133	-0.248
-469.201	800.000	-0.013	-0.052
-468.186	9.861	0.112	0.084
-467.172	10.857	0.039	-0.030
-466.157	-141.260	0.162	0.016
-465.143	134.276	0.168	0.216
-464.128	-37.067	0.175	-0.093
-463.113	-76.678	0.026	-0.009
-462.099	-77.650	0.195	0.067
-461.084	514.767	0.113	0.262
-460.070	800.000	-0.143	0.397
-459.055	452.507	-0.103	0.227
-458.040	800.000	0.126	-0.483
-457.026	-127.113	-0.162	-0.024
-456.011	-200.000	0.033	-0.183
-454.997	341.510	0.120	0.232
-453.982	770.926	-0.087	0.235
-452.968	96.049	-0.088	0.100
-451.953	232.718	-0.065	-0.106
-450.938	-67.557	0.327	-0.127
-449.924	-65.348	-0.178	0.071
-448.909	-200.000	-0.033	-0.268
-447.895	153.138	-0.228	0.308
-446.880	401.411	0.043	0.090
-445.865	-200.000	-0.008	-0.052
-444.851	-200.000	0.039	-0.282
-443.836	800.000	-0.016	0.046
-442.822	177.054	0.044	0.063
-441.807	35.183	0.109	-0.094
-440.792	39.328	-0.068	0.060
-439.778	-200.000	0.024	0.147
-438.763	81.222	-0.205	-0.219
-437.749	85.446	0.105	-0.114
-436.734	54.426	-0.219	-0.208
-435.719	77.862	0.174	-0.184
-434.705	9.513	-0.379	0.284
-433.690	478.777	-0.032	0.071
-432.676	114.448	0.206	0.248
-431.661	-126.359	-0.332	-0.049
-430.646	9.062	0.149	0.112
-429.632	-88.560	-0.523	0.154
-428.617	-58.125	-0.281	-0.121
-427.603	800.000	0.052	-0.161
-426.588	-137.076	-0.290	-0.033
-425.573	74.936	-0.223	0.232
-424.559	-51.212	0.440	-0.204
-423.544	297.186	-0.077	-0.140
-422.530	800.000	0.043	0.169
-421.515	-13.745	0.118	-0.075
-420.500	197.967	0.186	0.281
-419.486	-32.510	0.133	0.073
-418.471	93.235	-0.138	-0.155
-417.457	800.000	-0.059	0.226
-416.442	59.847	0.285	0.278
-415.428	-92.417	-0.172	-0.048
-414.413	231.828	-0.166	-0.269
-413.398	326.782	0.087	0.166
-412.384	-59.090	0.094	-0.040
-411.369	287.703	-0.120	0.215
-410.355	-86.189	0.065	-0.020
-409.340	99.312	-0.041	0.047
-408.325	-200.000	-0.039	-0.268
-407.311	43.992	0.147	-0.133
-406.296	-200.000	0.012	-0.257
-405.282	800.000	-0.051	0.174
-404.267	-140.304	-0.184	-0.019
-403.252	-65.098	0.440	-0.175
-402.238	-187.280	-0.307	-0.004
-401.223	582.520	0.115	-0.279
-400.209	82.046	-0.255	0.273
-399.194	59.986	-0.189	0.185
-398.179	178.303	0.185	0.267
-397.165	-156.049	0.420	-0.026
-396.150	210.472	-0.026	-0.041
-395.136	-23.532	-0.103	0.061
-394.121	-41.878	-0.347	0.176
-393.106	17.718	-0.238	-0.187
-392.092	35.443	0.037	-0.032
-391.077	-200.000	0.017	0.146
-390.063	-88.966	0.487	0.143
-389.048	-200.000	0.039	-0.285
-388.033	40.629	0.036	0.032
-387.019	121.725	0.101	-0.125
-386.004	-200.000	0.029	-0.130
-384.990	-51.017	0.114	-0.053
-383.975	800.000	0.063	-0.249
-382.960	-40.833	0.226	-0.116
-381.946	-64.574	-0.243	0.098
-380.931	-200.000	0.043	-0.402
-379.917	800.000	0.074	0.221
-378.902	-17.275	0.109	-0.068
-377.888	7.164	-0.094	-0.069
-376.873	163.339	0.110	0.152
-375.858	800.000	0.082	-0.280
-374.844	-3.086	0.354	-0.244
-373.829	10.104	0.178	0.133
-372.815	602.532	0.058	0.143
-371.800	-200.000	0.047	0.207
-370.785	-200.000	-0.001	-0.009
-369.771	-36.886	0.314	-0.167
-368.756	237.938	0.099	0.163
-367.742	-4.511	0.239	0.163
-366.727	204.864	-0.138	0.211
-365.712	68.736	-0.161	0.163
-364.698	-183.268	-0.230	-0.004
-363.683	47.384	0.323	-0.297
-362.669	172.352	0.076	-0.108
-361.654	68.587	0.119	0.120
-360.639	547.358	0.118	0.280
-359.625	-28.316	-0.446	-0.254
-358.610	-200.000	-0.025	-0.136
-357.596	-70.049	0.052	-0.020
-356.581	-200.000	-0.310	-0.001
-355.566	800.000	0.043	0.172
-354.552	-19.508	0.210	0.128
-353.537	-200.000	0.032	-0.262
-352.523	-34.688	-0.136	0.073
-351.508	-200.000	-0.036	0.308
-350.493	-18.081	0.301	0.186
-349.479	84.356	-0.134	0.145
-348.464	46.089	-0.117	0.107
-347.450	384.858	0.059	0.120
-346.435	-119.949	0.338	-0.057
-345.420	-100.855	-0.299	0.073
-344.406	-200.000	0.047	-0.291
-343.391	39.849	-0.122	-0.108
-342.377	-93.839	-0.429	0.116
-341.362	-130.002	0.221	-0.030
-340.348	38.912	0.105	0.093
-339.333	38.670	-0.090	0.079
-338.318	-200.000	-0.013	-0.638
-337.304	92.634	0.126	-0.140
-336.289	-200.000	0.018	0.127
-335.275	22.510	-0.188	-0.152
-334.260	800.000	0.115	0.441
-333.245	-200.000	0.041	-0.183
-332.231	800.000	-0.102	-0.343
-331.216	-13.485	0.121	-0.078
-330.202	-18.558	-0.215	-0.132
-329.187	-200.000	0.015	-0.076
-328.172	64.307	-0.004	0.004
-327.158	1.325	-0.134	-0.095
-326.143	800.000	-0.010	-0.031
-325.129	23.737	0.144	0.117
-324.114	-115.254	-0.099	0.018
-323.099	800.000	-0.014	-0.041
-322.085	-200.000	0.002	-0.210
-321.070	553.988	0.056	0.133
-320.056	-19.375	-0.263	-0.161
-319.041	189.507	0.168	-0.248
-318.026	800.000	-0.172	-0.525
-317.012	626.360	-0.097	0.241
-315.997	-103.099	-0.179	0.042
-314.983	-63.538	-0.163	-0.066
-313.968	-200.000	0.000	0.178
-312.953	-200.000	0.012	-0.309
-311.939	256.247	-0.156	0.263
-310.924	209.171	0.121	0.186
-309.910	136.640	0.130	0.168
-308.895	-136.474	0.124	0.014
-307.880	363.840	0.040	-0.079
-306.866	-65.010	-0.270	0.107
-305.851	-25.727	0.339	0.197
-304.837	800.000	-0.115	0.363
-303.822	87.510	-0.261	0.285
-302.807	120.761	-0.115	0.140
-301.793	-4.705	-0.141	0.096
-300.778	800.000	0.078	-0.237
-299.764	-139.572	-0.207	0.022
-298.749	28.063	0.215	-0.178
-297.735	-200.000	0.001	0.140
-296.720	244.745	-0.168	-0.277
-295.705	-134.939	-0.080	-0.009
-294.691	81.114	0.234	0.249
-293.676	-133.605	-0.385	-0.047
-292.662	-12.418	-0.126	-0.081
-291.647	-200.000	0.016	-0.195
-290.632	24.602	-0.274	-0.223
-289.618	781.361	0.093	0.250
-288.603	-51.563	-0.166	-0.076
-287.589	49.131	0.131	-0.122
-286.574	-196.445	-0.429	0.003
-285.559	716.276	0.061	-0.160
-284.545	609.475	0.137	0.336
-283.530	-200.000	0.070	-0.388
-282.516	477.225	0.027	0.060
-281.501	-200.000	0.020	0.136
-280.486	-113.860	0.491	0.094
-279.472	-25.368	0.078	0.045
-278.457	74.750	0.102	-0.105
-277.443	-200.000	0.018	-0.161
-276.428	800.000	0.038	-0.112
-275.413	-76.240	-0.101	0.035
-274.399	-24.176	0.198	-0.116
-273.384	502.440	0.067	0.151
-272.370	69.266	-0.168	0.169
-271.355	14.831	-0.178	0.137
-270.340	-133.069	0.438	0.055
-269.326	-200.000	0.007	0.270
-268.311	-84.859	0.046	0.014
-267.297	106.152	0.141	0.164
-266.282	-38.355	0.213	-0.111
-265.267	17.199	-0.130	-0.101
-264.253	-92.273	-0.111	0.031
-263.238	246.875	0.153	-0.253
-262.224	-89.558	0.146	0.042
-261.209	800.000	-0.056	0.237
-260.195	777.784	0.107	-0.287
-259.180	-8.622	-0.161	-0.106
-258.165	-200.000	-0.011	0.396
-257.151	584.579	-0.053	0.127
-256.136	-38.910	-0.186	0.096
-255.122	151.162	-0.188	-0.251
-254.107	80.512	-0.203	0.215
-253.092	735.539	0.160	0.420
-252.078	800.000	-0.051	0.197
-251.063	-84.984	-0.180	-0.056
-250.049	-200.000	0.008	-0.091
-249.034	43.155	-0.176	-0.158
-248.019	110.697	-0.084	-0.099
-247.005	371.913	-0.120	0.240
-245.990	-200.000	0.024	0.151
-244.976	22.663	-0.133	-0.107
-243.961	-200.000	0.024	0.114
-242.946	-96.670	-0.120	-0.031
-241.932	-200.000	-0.020	-0.131
-240.917	800.000	-0.149	-0.524
-239.903	800.000	0.132	0.422
-238.888	40.039	0.179	-0.158
-237.873	63.746	0.222	0.219
-236.859	-30.054	0.068	-0.038
-235.844	-137.411	-0.094	0.010
-234.830	130.566	-0.142	0.179
-233.815	800.000	0.055	-0.158
-232.800	800.000	0.013	0.049
-231.786	-200.000	0.014	0.303
-230.771	-37.827	0.472	-0.246
-229.757	67.189	0.113	0.113
-228.742	800.000	0.059	0.212
-227.727	283.640	0.083	-0.146
-226.713	132.644	0.259	0.328
-225.698	-105.202	0.107	-0.024
-224.684	-25.441	0.070	0.041
-223.669	-96.552	0.098	0.025
-222.655	-83.737	0.218	0.068
-221.640	-42.614	0.209	0.104
-220.625	-161.432	0.102	-0.005
-219.611	58.696	-0.066	0.064
-218.596	2.679	-0.213	-0.152
-217.582	800.000	-0.166	-0.498
-216.567	-192.953	-0.266	-0.002
-215.552	-200.000	-0.003	-0.305
-214.538	-25.305	0.122	-0.071
-213.523	-195.403	-0.088	0.001
-212.509	82.781	0.111	0.119
-211.494	-200.000	-0.000	0.156
-210.479	124.069	-0.142	-0.175
-209.465	-46.908	-0.342	0.164
-208.450	-120.590	-0.293	-0.049
-207.436	-119.049	-0.397	0.068
-206.421	125.436	-0.139	0.173
-205.406	-110.790	0.318	0.064
-204.392	-126.463	-0.350	0.051
-203.377	-200.000	0.013	-0.235
-202.363	34.152	0.112	0.096
-201.348	109.735	-0.070	-0.083
-200.333	-18.571	0.068	0.042
-199.319	23.951	0.121	-0.098
-198.304	-200.000	-0.001	0.008
-197.290	-128.265	-0.060	-0.008
-196.275	800.000	-0.059	-0.183
-195.260	103.188	0.105	0.121
-194.246	25.378	0.146	0.119
-193.231	800.000	-0.062	-0.211
-192.217	-8.781	-0.108	-0.071
-191.202	64.487	-0.305	0.301
-190.187	692.174	0.019	-0.049
-189.173	254.505	0.083	-0.138
-188.158	-200.000	0.088	-0.428
-187.144	-32.001	-0.237	-0.130
-186.129	-200.000	0.012	-0.202
-185.114	-146.641	0.304	-0.026
-184.100	335.618	-0.093	0.177
-183.085	-200.000	0.037	0.393
-182.071	181.369	-0.120	-0.173
-181.056	14.309	-0.206	-0.158
-180.042	1.830	-0.257	0.181
-179.027	-108.965	-0.300	-0.063
-178.012	-76.907	0.168	0.058
-176.998	-200.000	0.041	-0.188
-175.983	201.653	0.099	0.149
-174.969	-200.000	-0.034	0.161
-173.954	-20.077	-0.217	0.131
-172.939	377.535	-0.045	0.090
-171.925	-124.228	0.116	-0.018
-170.910	-77.996	0.122	0.041
-169.896	104.785	-0.197	0.228
-168.881	-200.000	0.043	0.286
-167.866	-200.000	-0.030	0.145
-166.852	-66.178	-0.368	0.144
-165.837	-123.799	0.144	0.022
-164.823	153.437	0.050	0.068
-163.808	2.214	-0.228	0.161
-162.793	-200.000	-0.009	-0.189
-161.779	159.854	-0.138	0.189
-160.764	-200.000	0.020	-0.243
-159.750	378.419	0.080	-0.160
-158.735	-200.000	-0.033	-0.183
-157.720	-200.000	-0.069	-0.355
-156.706	376.154	-0.136	0.273
-155.691	-200.000	0.046	-0.243
-154.677	196.425	-0.046	-0.068
-153.662	622.436	0.032	-0.079
-152.647	-200.000	-0.053	-0.320
-151.633	217.369	0.110	0.171
-150.618	-200.000	-0.014	-0.077
-149.604	-28.582	0.169	0.095
-148.589	-83.852	-0.299	0.093
-147.574	43.550	-0.236	0.211
-146.560	154.630	-0.150	0.202
-145.545	-200.000	0.013	-0.235
-144.531	-104.219	0.257	-0.058
-143.516	800.000	0.117	0.484
-142.502	11.528	-0.354	-0.265
-141.487	800.000	-0.102	0.292
-140.472	800.000	-0.077	-0.291
-139.458	-73.404	0.255	0.091
-138.443	28.462	0.106	-0.088
-137.429	-200.000	0.047	-0.220
-136.414	11.655	-0.403	0.303
-135.399	-116.058	0.362	0.066
-134.385	117.538	0.242	0.291
-133.370	-23.698	0.198	0.116
-132.356	-91.459	-0.306	0.085
-131.341	304.656	-0.054	-0.098
-130.326	18.068	0.140	-0.109
-129.312	-104.940	0.223	0.050
-128.297	-120.174	0.063	0.011
-127.283	-48.984	0.098	-0.046
-126.268	188.868	-0.209	0.305
-125.253	-55.662	-0.331	-0.145
-124.239	-98.076	0.102	0.026
-123.224	800.000	0.085	0.257
-122.210	157.336	0.310	0.419
-121.195	-70.739	0.207	0.076
-120.180	71.025	-0.183	0.185
-119.166	-94.393	0.299	0.080
-118.151	334.219	-0.176	0.334
-117.137	346.804	-0.077	0.148
-116.122	23.123	0.053	-0.043
-115.107	-200.000	-0.016	0.182
-114.093	206.067	0.167	-0.253
-113.078	-177.623	-0.237	-0.006
-112.064	93.863	-0.127	-0.141
-111.049	-32.063	-0.113	0.062
-110.034	800.000	-0.125	-0.497
-109.020	-107.750	0.057	0.012
-108.005	-92.580	-0.169	0.046
-106.991	52.486	0.513	0.478
-105.976	-200.000	-0.019	0.227
-104.962	161.686	0.049	-0.068
-103.947	-199.587	0.256	-0.001
-102.932	-52.507	-0.058	0.026
-101.918	-200.000	0.014	-0.098
-100.903	800.000	0.075	0.207
-99.889	-135.936	-0.259	0.030
-98.874	224.045	0.051	0.081
-97.859	216.462	-0.057	0.088
-96.845	-104.931	0.348	0.078
-95.830	110.955	-0.170	-0.200
-94.816	-42.004	-0.320	0.160
-93.801	-164.785	0.151	-0.007
-92.786	-173.468	-0.191	-0.006
-91.772	65.983	-0.155	0.154
-90.757	1.415	-0.094	-0.066
-89.743	129.764	-0.187	-0.234
-88.728	-200.000	0.055	-0.260
-87.713	76.975	0.057	-0.059
-86.699	-100.879	0.272	-0.065
-85.684	-45.504	-0.263	-0.127
-84.670	135.075	-0.083	0.105
-83.655	218.405	-0.213	0.332
-82.640	100.374	0.071	0.081
-81.626	56.122	0.086	0.081
-80.611	50.358	-0.112	-0.103
-79.597	167.604	-0.067	0.093
-78.582	110.478	-0.080	-0.094
-77.567	278.165	0.029	0.050
-76.553	2.477	-0.159	-0.112
-75.538	-29.936	-0.289	0.161
-74.524	562.385	-0.185	-0.436
-73.509	-138.128	-0.127	-0.014
-72.494	198.445	-0.085	-0.128
-71.480	-196.181	0.256	-0.002
-70.465	175.008	0.143	-0.202
-69.451	66.018	-0.187	0.185
-68.436	-200.000	0.019	-0.309
-67.422	113.379	-0.117	-0.139
-66.407	194.477	-0.091	0.135
-65.392	-165.765	0.137	-0.006
-64.378	163.852	-0.076	0.105
-63.363	110.272	-0.147	0.173
-62.349	-167.712	-0.172	-0.007
-61.334	56.699	-1.273	-1.209
-60.319	800.000	0.249	0.821
-59.305	784.847	-0.512	-1.368
-58.290	400.875	0.643	1.315
-57.276	576.807	0.645	1.538
-56.261	-200.000	131.088	701.812
-55.246	391.784	1640.486	3322.795
-54.232	135.858	2787.214	3539.047
-53.217	95.508	2161.523	2403.195
-52.203	34.454	1588.929	1352.355
-51.188	26.139	1333.407	1085.091
-50.173	23.651	1295.254	1039.455
-49.159	52.322	1367.015	1271.068
-48.144	48.371	1377.718	1257.195
-47.130	26.314	1324.445	1078.673
-46.115	23.076	1305.156	1043.841
-45.100	22.760	1300.119	1037.915
-44.086	22.706	1297.554	1035.510
-43.071	22.712	1295.186	1033.612
-42.057	22.781	1292.921	1032.169
-41.042	22.580	1291.793	1030.050
-40.027	22.639	1290.733	1029.511
-39.013	22.685	1288.267	1027.771
-37.998	22.738	1286.298	1026.471
-36.984	22.787	1284.686	1025.428
-35.969	22.774	1282.998	1023.962
-34.954	22.770	1281.280	1022.527
-33.940	22.799	1280.203	1021.797
-32.925	22.851	1278.927	1021.036
-31.911	22.795	1277.931	1019.881
-30.896	22.898	1275.592	1018.566
-29.881	22.891	1274.484	1017.600
-28.867	22.998	1273.082	1017.058
-27.852	22.951	1271.987	1015.870
-26.838	22.970	1269.933	1014.299
-25.823	22.876	1269.274	1013.191
-24.809	22.836	1267.440	1011.460
-23.794	22.871	1266.717	1011.041
-22.779	22.886	1265.408	1010.045
-21.765	22.922	1264.263	1009.296
-20.750	22.928	1262.457	1007.846
-19.736	22.826	1261.312	1006.314
-18.721	22.808	1260.421	1005.460
-17.706	22.820	1259.014	1004.368
-16.692	22.642	1258.270	1002.721
-15.677	22.718	1257.026	1002.118
-14.663	22.699	1256.200	1001.315
-13.648	22.751	1254.579	1000.274
-12.633	22.724	1253.937	999.573
-11.619	22.806	1252.984	999.235
-10.604	22.660	1252.116	997.677
-9.590	22.660	1251.775	997.366
-8.575	22.728	1250.297	996.534
-7.560	22.865	1249.384	996.538
-6.546	22.702	1249.016	995.288
-5.531	22.670	1248.413	994.590
-4.517	22.822	1247.000	994.276
-3.502	22.646	1246.655	992.975
-2.487	22.759	1245.127	992.350
-1.473	22.524	1241.346	987.980
-0.458	20.897	1225.572	966.375
0.556	16.234	1210.506	928.618
1.571	12.308	1218.565	912.930
2.586	11.708	1233.298	920.511
3.600	11.692	1221.092	911.231
4.615	8.657	1150.816	842.748
5.629	3.225	1082.031	765.356
6.644	0.979	1064.950	742.209
7.659	0.650	1063.474	739.503
8.673	0.682	1063.001	739.269
9.688	0.680	1061.266	737.985
10.702	0.772	1059.067	736.842
11.717	4.135	1062.438	755.539
12.731	10.705	1071.066	793.816
13.746	15.850	1077.506	823.758
14.761	17.196	1079.217	831.590
15.775	16.613	1077.162	827.079
16.790	15.575	1075.454	820.629
17.804	14.992	1074.064	816.651
18.819	14.550	1072.850	813.503
19.834	14.328	1072.089	811.770
20.848	14.244	1070.641	810.195
21.863	13.873	1070.255	808.022
22.877	13.738	1069.351	806.614
23.892	13.625	1069.064	805.777
24.907	13.594	1068.482	805.113
25.921	13.691	1067.030	804.422
26.936	13.778	1066.577	804.427
27.950	13.782	1065.236	803.366
28.965	13.956	1063.821	803.070
29.980	14.034	1062.142	802.109
30.994	13.952	1061.774	801.362
32.009	13.915	1061.024	800.550
33.023	13.852	1059.828	799.270
34.038	13.855	1059.125	798.686
35.053	13.888	1057.879	797.832
36.067	13.732	1057.485	796.715
37.082	13.917	1056.024	796.433
38.096	13.884	1055.429	795.753
39.111	13.887	1054.654	795.115
40.126	13.755	1053.379	793.452
41.140	13.766	1052.552	792.812
42.155	13.679	1051.125	791.249
43.169	13.571	1050.531	790.219
44.184	13.690	1049.475	789.922
45.199	13.668	1048.014	788.648
46.213	13.682	1046.869	787.782
47.228	13.815	1046.023	787.707
48.242	13.867	1044.367	786.640
49.257	13.772	1043.738	785.644
50.271	13.768	1042.905	784.927
51.286	13.859	1042.291	784.829
52.301	13.812	1041.064	783.612
53.315	13.745	1040.153	782.539
54.330	13.705	1039.172	781.544
55.344	13.760	1038.477	781.212
56.359	13.757	1037.607	780.477
57.374	13.671	1036.771	779.372
58.388	13.666	1035.658	778.445
59.403	13.649	1035.299	778.024
60.417	13.778	1033.810	777.440
61.432	13.614	1033.493	776.364
62.447	13.665	1032.436	775.745
63.461	13.690	1031.446	775.048
64.476	13.626	1031.017	774.358
65.490	13.660	1030.066	773.733
66.505	13.708	1029.410	773.398
67.520	13.634	1028.633	772.399
68.534	13.794	1027.662	772.347
69.549	13.597	1027.227	771.033
70.563	13.782	1026.542	771.310
71.578	13.617	1025.781	769.906
72.593	13.740	1024.338	769.323
73.607	13.581	1024.362	768.539
74.622	13.606	1023.960	768.281
75.636	13.613	1022.844	767.412
76.651	13.546	1022.253	766.588
77.666	13.686	1021.351	766.493
78.680	13.569	1021.022	765.636
79.695	13.625	1020.202	765.213
80.709	13.660	1019.704	764.934
81.724	13.692	1018.931	764.433
82.739	13.711	1018.372	764.031
83.753	13.845	1016.865	763.453
84.768	13.778	1016.543	762.832
85.782	13.919	1015.478	762.615
86.797	13.739	1014.563	761.035
87.812	13.719	1013.691	760.223
88.826	13.824	1012.538	759.771
89.841	13.795	1011.792	759.011
90.855	13.920	1010.967	758.897
91.870	13.915	1010.127	758.177
92.884	13.886	1009.240	757.310
93.899	13.978	1008.258	756.926
94.914	13.825	1007.925	755.911
95.928	13.949	1006.713	755.499
96.943	13.821	1006.481	754.677
97.957	13.878	1005.250	753.944
98.972	13.830	1004.272	752.929
99.987	13.831	1003.511	752.296
101.001	13.870	1002.203	751.427
102.016	13.886	1001.829	751.151
103.030	13.994	1000.763	750.774
104.045	13.958	1000.059	750.013
105.060	13.950	999.348	749.380
106.074	13.883	998.267	748.202
107.089	13.718	997.380	746.726
108.103	13.815	996.245	746.246
109.118	13.775	995.336	745.320
110.133	13.826	994.461	744.830
111.147	13.776	993.711	743.979
112.162	13.795	993.041	743.493
113.176	13.784	992.124	742.695
114.191	13.855	991.591	742.546
115.206	13.845	990.574	741.675
116.220	13.991	989.478	741.437
117.235	13.901	988.851	740.502
118.249	13.919	987.982	739.867
119.264	13.921	987.258	739.267
120.279	13.841	986.184	738.041
121.293	13.872	985.326	737.473
122.308	13.732	985.103	736.619
123.322	13.802	983.870	735.943
124.337	13.805	982.988	735.229
125.352	13.923	981.625	734.670
126.366	13.837	980.535	733.408
127.381	13.810	979.210	732.232
128.395	13.705	978.686	731.313
129.410	13.742	977.925	730.842
130.424	13.877	977.026	730.700
131.439	13.844	976.396	730.021
132.454	13.906	975.492	729.552
133.468	13.940	974.486	728.882
134.483	13.833	973.478	727.597
135.497	13.834	972.787	727.019
136.512	13.861	971.273	725.941
137.527	13.924	970.857	725.841
138.541	13.960	970.384	725.581
139.556	13.982	969.552	724.989
140.570	14.033	969.061	724.784
141.585	14.017	968.034	723.882
142.600	13.963	967.275	723.013
143.614	13.983	966.524	722.476
144.629	14.054	965.602	722.032
145.643	14.025	964.632	721.117
146.658	14.105	963.363	720.450
147.673	14.043	963.081	719.908
148.687	14.042	962.046	719.065
149.702	13.964	961.329	718.127
150.716	13.903	960.825	717.424
151.731	13.882	960.180	716.789
152.746	14.075	959.030	716.697
153.760	14.018	959.088	716.431
154.775	14.175	957.910	716.164
155.789	14.270	957.282	716.040
156.804	14.164	956.559	714.982
157.819	14.201	955.732	714.460
158.833	14.151	955.307	713.863
159.848	14.192	954.381	713.285
160.862	14.161	953.605	712.509
161.877	14.056	952.641	711.275
162.892	14.060	952.017	710.766
163.906	14.114	950.759	709.992
164.921	14.093	949.954	709.240
165.935	14.248	948.815	708.985
166.950	14.165	948.476	708.316
167.964	14.278	947.383	707.918
168.979	14.190	946.736	706.998
169.994	14.117	945.782	705.915
171.008	14.249	944.702	705.606
172.023	14.148	944.443	704.922
173.037	14.321	943.483	704.875
174.052	14.202	942.773	703.777
175.067	14.320	942.101	703.715
176.081	14.124	941.743	702.554
177.096	14.285	940.839	702.496
178.110	14.380	939.987	702.202
179.125	14.156	939.761	701.024
180.140	14.304	938.769	700.846
181.154	14.261	938.572	700.456
182.169	14.559	937.954	701.185
183.183	14.556	937.326	700.642
184.198	14.555	936.156	699.699
185.213	14.509	935.801	699.180
186.227	14.313	935.691	698.215
187.242	14.558	934.871	698.566
188.256	14.488	934.265	697.762
189.271	14.510	933.257	697.037
190.286	14.353	932.535	695.783
191.300	14.185	932.143	694.726
192.315	14.314	931.314	694.582
193.329	14.328	930.755	694.162
194.344	14.407	929.927	693.814
195.359	14.405	929.449	693.387
196.373	14.368	928.718	692.625
197.388	14.358	928.786	692.576
198.402	14.563	927.739	692.585
199.417	14.803	926.774	692.797
200.432	14.736	926.648	692.367
201.446	14.713	925.994	691.718
202.461	14.695	925.677	691.346
203.475	14.804	924.645	690.964
204.490	14.722	924.000	690.084
205.504	14.808	923.197	689.777
206.519	14.670	922.735	688.802
207.534	14.715	921.909	688.308
208.548	14.751	921.611	688.174
209.563	14.615	921.082	687.161
210.577	14.729	919.981	686.748
211.592	14.838	919.460	686.742
212.607	14.701	918.540	685.433
213.621	14.833	917.733	685.313
214.636	14.677	917.680	684.572
215.650	14.779	916.340	683.930
216.665	14.865	915.809	683.827
217.680	14.992	915.047	683.715
218.694	14.860	914.523	682.723
219.709	15.068	913.572	682.801
220.723	14.915	913.186	681.829
221.738	14.962	912.527	681.468
222.753	14.921	911.949	680.808
223.767	14.988	911.081	680.374
224.782	15.015	910.858	680.258
225.796	15.161	909.977	680.131
226.811	15.030	909.430	679.130
227.826	15.037	908.581	678.465
228.840	15.092	907.668	677.944
229.855	15.101	906.935	677.375
230.869	14.945	906.598	676.433
231.884	15.169	905.601	676.534
232.899	15.005	904.919	675.302
233.913	15.085	904.312	675.112
234.928	15.040	903.739	674.444
235.942	15.090	903.156	674.150
236.957	15.083	902.465	673.546
237.972	14.987	902.405	673.056
238.986	14.913	901.682	672.160
240.001	15.131	900.804	672.319
241.015	15.173	900.053	671.871
242.030	15.241	899.106	671.376
243.045	15.252	898.952	671.243
244.059	15.128	898.356	670.244
245.074	15.392	897.290	670.444
246.088	15.301	896.661	669.552
247.103	15.286	896.324	669.181
248.117	15.437	895.434	669.060
249.132	15.361	894.927	668.319
250.147	15.534	894.607	668.710
251.161	15.304	894.178	667.415
252.176	15.533	893.038	667.414
253.190	15.455	892.335	666.518
254.205	15.436	891.623	665.854
255.220	15.526	890.871	665.590
256.234	15.462	890.421	664.942
257.249	15.605	889.758	664.954
258.263	15.530	889.022	664.048
259.278	15.680	887.955	663.783
260.293	15.584	887.609	663.089
261.307	15.635	887.505	663.154
262.322	15.589	886.563	662.212
263.336	15.622	885.962	661.831
264.351	15.701	884.921	661.304
265.366	15.643	884.437	660.659
266.380	15.757	883.705	660.499
267.395	15.718	883.092	659.831
268.409	15.768	882.666	659.651
269.424	15.838	881.660	659.115
270.439	15.824	881.065	658.558
271.453	15.739	880.233	657.544
272.468	15.750	880.074	657.409
273.482	15.709	879.566	656.812
274.497	15.810	878.856	656.619
275.512	15.672	878.409	655.687
276.526	15.845	877.576	655.683
277.541	15.858	877.238	655.423
278.555	15.918	876.354	654.935
279.570	15.860	875.832	654.264
280.585	15.947	875.268	654.123
281.599	15.890	874.334	653.145
282.614	15.910	873.811	652.775
283.628	16.059	872.801	652.538
284.643	16.016	872.350	651.979
285.657	15.955	871.911	651.355
286.672	16.026	871.260	651.086
287.687	16.037	870.483	650.489
288.701	15.997	870.257	650.109
289.716	16.069	869.795	649.984
290.730	16.169	868.749	649.531
291.745	16.150	868.140	648.947
292.760	15.993	868.127	648.275
293.774	16.065	867.492	648.019
294.789	16.055	866.586	647.246
295.803	16.210	865.631	647.071
296.818	16.187	864.893	646.372
297.833	16.300	864.137	646.185
298.847	16.203	864.017	645.666
299.862	16.103	863.621	644.932
300.876	16.325	862.329	644.754
301.891	16.159	862.385	644.108
302.906	16.420	861.566	644.433
303.920	16.294	861.366	643.747
304.935	16.472	860.278	643.553
305.949	16.410	860.016	643.067
306.964	16.441	859.389	642.659
307.979	16.481	858.626	642.183
308.993	16.464	858.052	641.630
310.008	16.453	857.804	641.347
311.022	16.518	856.554	640.602
312.037	16.383	856.566	640.043
313.052	16.366	855.936	639.449
314.066	16.397	855.278	639.019
315.081	16.521	854.442	638.809
316.095	16.419	853.675	637.793
317.110	16.484	853.417	637.788
318.125	16.481	852.898	637.333
319.139	16.484	852.436	636.941
320.154	16.612	852.173	637.170
321.168	16.607	851.319	636.460
322.183	16.474	850.894	635.584
323.197	16.504	850.536	635.372
324.212	16.588	849.888	635.148
325.227	16.494	849.608	634.531
326.241	16.520	848.710	633.901
327.256	16.492	848.561	633.629
328.270	16.669	847.615	633.528
329.285	16.598	847.162	632.870
330.300	16.503	846.468	631.938
331.314	16.449	846.717	631.868
332.329	16.621	845.591	631.615
333.343	16.663	845.179	631.405
334.358	16.687	844.733	631.106
335.373	16.629	844.335	630.538
336.387	16.696	844.150	630.594
337.402	16.674	843.970	630.321
338.416	16.724	843.286	629.940
339.431	16.775	842.882	629.771
340.446	16.802	842.392	629.452
341.460	16.908	842.163	629.618
342.475	16.917	841.464	629.072
343.489	16.985	841.018	628.934
344.504	16.919	840.501	628.249
345.519	17.147	839.921	628.605
346.533	16.950	839.706	627.657
347.548	17.015	839.068	627.367
348.562	16.875	838.725	626.537
349.577	17.141	837.597	626.621
350.592	16.970	837.177	625.618
351.606	16.895	836.676	624.912
352.621	17.089	835.675	624.825
353.635	16.913	835.484	623.980
354.650	17.017	834.751	623.757
355.665	17.067	834.076	623.383
356.679	17.135	833.365	623.047
357.694	17.076	832.949	622.462
358.708	17.064	832.493	622.024
359.723	17.077	831.650	621.387
360.738	17.161	830.931	621.100
361.752	17.185	830.755	621.003
362.767	17.219	830.050	620.545
363.781	17.296	829.446	620.318
364.796	17.323	829.297	620.251
365.810	17.423	828.772	620.169
366.825	17.276	828.203	619.152
367.840	17.327	827.727	618.926
368.854	17.215	827.179	618.054
369.869	17.340	826.672	618.075
370.883	17.343	826.525	617.923
371.898	17.430	826.065	617.839
372.913	17.384	825.535	617.220
373.927	17.316	825.163	616.644
374.942	17.576	824.748	617.221
375.956	17.431	824.039	616.108
376.971	17.486	823.862	616.121
377.986	17.422	823.101	615.268
379.000	17.469	822.734	615.108
380.015	17.519	822.281	614.897
381.029	17.452	821.646	614.126
382.044	17.665	820.805	614.208
383.059	17.758	820.199	614.038
384.073	17.717	819.671	613.441
385.088	17.620	819.333	612.783
386.102	17.527	819.121	612.235
387.117	17.730	818.345	612.331
388.132	17.589	817.558	611.182
389.146	17.566	817.017	610.640
390.161	17.658	816.566	610.581
391.175	17.597	816.315	610.120
392.190	17.624	815.631	609.650
393.205	17.702	815.172	609.533
394.219	17.764	814.973	609.552
395.234	17.618	814.757	608.813
396.248	17.645	814.309	608.521
397.263	17.606	813.700	607.873
398.278	17.749	813.250	607.994
399.292	17.736	812.748	607.517
400.307	17.720	812.345	607.106
401.321	17.745	811.713	606.671
402.336	17.841	811.404	606.727
403.350	17.753	810.968	606.033
404.365	17.827	810.542	605.925
405.380	18.056	809.818	606.140
406.394	17.865	809.428	605.119
407.409	17.948	808.956	605.007
408.423	17.994	808.523	604.792
409.438	17.917	808.642	604.556
410.453	17.998	808.097	604.380
411.467	18.013	807.438	603.886
412.482	18.141	806.962	603.931
413.496	18.096	806.680	603.505
414.511	17.994	806.322	602.826
415.526	18.041	805.707	602.479
416.540	18.110	805.426	602.456
417.555	18.037	804.995	601.825
418.569	18.163	804.306	601.700
419.584	18.235	804.039	601.702
420.599	18.242	803.312	601.126
421.613	116.174	1298.986	1491.708
422.628	100.373	1371.156	1491.799
