DTS Sentinel unit serial number:	SN413079Multiplexer serial number:	ORYXHardware model number:	OX4-SRSoftware version number:	ORYX F/W v4.00 Oryx Data Collector v3.7.2.0data status	okinstallation	princeton_trtdifferential loss correction	single-endedforward channel	channel 1reverse channel	N/Adate	2019/09/14time	01:34:35forward acquisition time	60.00reverse acquisition time	0.00gamma	496.2192k internal	0.2337k external	0.2337temperature offset calibration	1.0076default loss term (dB/km)	0.3790temperature slope calibration	1.0000multiplexer offset coefficient	1.0000multiplexer slope coefficient	1.0000fibre end	0.00T internal ref (°C)	26.44T ext. ref 1 (°C)	3.19T ext. ref 2 (°C)	21.47length (m)	temperature (°C)	Stokes	anti-Stokes-747.200	800.000	0.047	-0.205
-746.185	-87.876	0.355	-0.107
-745.171	-172.370	-0.225	-0.007
-744.156	426.035	0.172	0.372
-743.142	591.257	-0.120	-0.297
-742.127	57.506	0.196	-0.193
-741.112	-98.912	0.163	0.042
-740.098	-100.122	-0.214	0.054
-739.083	-76.767	0.158	-0.056
-738.069	-156.288	-0.234	-0.015
-737.054	-63.993	0.359	-0.147
-736.039	469.798	-0.022	-0.049
-735.025	-142.323	0.108	0.011
-734.010	325.848	-0.090	-0.174
-732.996	-96.545	-0.101	-0.027
-731.981	-65.388	-0.359	0.145
-730.966	-79.925	-0.154	0.052
-729.952	17.289	-0.149	-0.118
-728.937	149.573	-0.072	-0.098
-727.923	-114.901	-0.204	-0.039
-726.908	-166.235	-0.387	-0.016
-725.894	-200.000	-0.037	-0.206
-724.879	-200.000	-0.054	-0.388
-723.864	79.297	0.149	-0.160
-722.850	-109.379	0.171	0.036
-721.835	800.000	-0.102	0.299
-720.821	-90.364	0.352	-0.102
-719.806	255.410	-0.065	0.112
-718.791	30.145	-0.110	0.094
-717.777	96.060	0.218	-0.250
-716.762	-11.441	-0.398	-0.262
-715.748	-189.339	-0.299	0.004
-714.733	-97.416	0.206	0.054
-713.718	-11.680	-0.332	-0.219
-712.704	743.577	0.045	-0.122
-711.689	-94.214	-0.204	0.056
-710.675	121.163	0.047	-0.059
-709.660	800.000	-0.042	0.177
-708.645	-31.473	-0.338	-0.190
-707.631	149.182	0.101	0.137
-706.616	-1.805	-0.281	-0.199
-705.602	53.155	0.141	0.135
-704.587	800.000	-0.019	-0.057
-703.572	-120.193	0.212	0.036
-702.558	-52.844	-0.156	0.072
-701.543	639.479	-0.143	-0.364
-700.529	-121.482	0.202	0.034
-699.514	800.000	-0.097	-0.375
-698.499	784.354	-0.060	-0.166
-697.485	-200.000	-0.001	0.097
-696.470	227.126	0.117	-0.190
-695.456	105.332	0.267	-0.315
-694.441	-90.877	0.055	0.016
-693.426	800.000	-0.090	-0.278
-692.412	-200.000	0.072	-0.345
-691.397	-200.000	-0.016	0.339
-690.383	41.211	0.166	0.150
-689.368	-200.000	-0.035	0.228
-688.354	158.060	0.134	0.186
-687.339	-113.473	-0.407	0.080
-686.324	-81.774	-0.252	-0.083
-685.310	-200.000	-0.024	-0.163
-684.295	-200.000	-0.044	0.233
-683.281	215.385	-0.218	-0.346
-682.266	-6.822	-0.170	-0.116
-681.251	-137.718	-0.220	0.025
-680.237	-200.000	-0.008	-0.154
-679.222	-200.000	0.002	0.169
-678.208	-5.310	-0.278	-0.191
-677.193	74.669	-0.055	-0.058
-676.178	360.457	0.154	-0.309
-675.164	-178.447	-0.282	-0.007
-674.149	800.000	0.092	-0.314
-673.135	-3.863	-0.182	0.126
-672.120	-17.804	0.056	-0.035
-671.105	157.016	-0.115	0.159
-670.091	104.186	0.096	-0.113
-669.076	-181.105	0.080	0.002
-668.062	800.000	0.054	-0.227
-667.047	-80.495	-0.540	0.180
-666.032	800.000	0.157	-0.520
-665.018	354.425	0.149	-0.296
-664.003	42.707	0.076	-0.069
-662.989	-131.773	0.314	-0.041
-661.974	-130.174	-0.302	0.041
-660.959	31.088	-0.153	0.132
-659.945	800.000	-0.122	-0.364
-658.930	-200.000	-0.015	-0.126
-657.916	74.808	-0.206	0.217
-656.901	101.672	0.253	0.295
-655.886	49.487	-0.289	-0.272
-654.872	5.117	0.105	0.077
-653.857	-109.197	-0.049	0.010
-652.843	-200.000	-0.050	-0.281
-651.828	314.250	-0.127	-0.239
-650.814	429.725	0.146	-0.316
-649.799	-12.868	-0.227	0.148
-648.784	634.410	0.123	-0.313
-647.770	800.000	0.087	-0.257
-646.755	800.000	-0.125	-0.483
-645.741	800.000	-0.054	0.165
-644.726	-36.829	-0.259	0.139
-643.711	99.509	-0.040	0.046
-642.697	-20.842	0.325	-0.199
-641.682	-119.775	-0.320	0.055
-640.668	212.464	0.241	-0.381
-639.653	-200.000	-0.018	-0.098
-638.638	-57.715	0.265	0.116
-637.624	555.759	-0.067	-0.160
-636.609	-119.224	0.106	-0.018
-635.595	800.000	-0.041	-0.165
-634.580	-39.600	0.324	0.169
-633.565	13.424	-0.158	-0.122
-632.551	344.324	-0.013	-0.025
-631.536	-146.615	-0.422	-0.037
-630.522	800.000	0.077	-0.274
-629.507	-51.790	0.206	0.096
-628.492	-52.161	-0.071	0.033
-627.478	-75.019	-0.274	0.098
-626.463	359.211	-0.101	-0.202
-625.449	-2.247	0.254	-0.178
-624.434	-9.956	0.097	0.064
-623.419	128.081	-0.140	-0.178
-622.405	-124.164	-0.251	0.039
-621.390	367.999	-0.063	-0.127
-620.376	-29.874	-0.160	0.091
-619.361	-92.807	0.087	0.024
-618.346	-200.000	0.046	-0.404
-617.332	-13.710	-0.178	-0.115
-616.317	41.130	0.225	0.203
-615.303	-16.003	0.077	0.049
-614.288	73.036	-0.055	0.058
-613.273	-102.421	-0.037	0.009
-612.259	28.780	-0.331	-0.280
-611.244	-20.565	-0.281	0.172
-610.230	-17.696	0.208	-0.130
-609.215	-200.000	-0.014	0.157
-608.201	-10.264	0.200	0.132
-607.186	-197.311	-0.108	-0.001
-606.171	-200.000	0.002	-0.108
-605.157	12.525	-0.316	0.244
-604.142	-200.000	0.024	-0.209
-603.128	410.494	-0.106	0.225
-602.113	253.712	-0.140	0.238
-601.098	-64.478	0.133	0.054
-600.084	40.574	0.196	0.177
-599.069	89.574	-0.120	0.134
-598.055	-75.516	-0.226	0.080
-597.040	-97.054	0.289	0.076
-596.025	-95.437	-0.524	-0.140
-595.011	328.046	0.124	0.237
-593.996	201.619	0.136	-0.210
-592.982	105.179	-0.151	-0.178
-591.967	19.702	0.319	0.256
-590.952	-152.928	0.153	-0.011
-589.938	653.163	-0.075	-0.192
-588.923	-200.000	-0.010	-0.047
-587.909	208.058	0.159	-0.248
-586.894	-39.902	0.124	0.065
-585.879	-168.677	0.115	-0.004
-584.865	-148.254	0.138	0.011
-583.850	501.351	0.042	0.097
-582.836	677.166	0.101	-0.263
-581.821	-93.834	-0.174	-0.048
-580.806	80.141	0.142	-0.152
-579.792	-200.000	-0.016	-0.179
-578.777	239.480	0.084	-0.140
-577.763	-115.572	-0.466	0.087
-576.748	-10.902	0.065	0.043
-575.733	-62.923	-0.391	-0.161
-574.719	16.364	-0.182	0.143
-573.704	-200.000	0.021	-0.171
-572.690	-112.277	0.285	0.057
-571.675	436.352	0.184	0.400
-570.661	40.473	0.243	0.219
-569.646	-99.534	0.131	-0.033
-568.631	431.398	-0.027	0.058
-567.617	76.069	-0.089	-0.094
-566.602	-169.411	0.579	-0.021
-565.588	-73.055	-0.245	-0.090
-564.573	184.095	0.181	-0.266
-563.558	-78.450	-0.415	0.142
-562.544	55.043	-0.047	-0.045
-561.529	800.000	0.045	-0.168
-560.515	-64.218	0.335	0.136
-559.500	800.000	-0.094	0.275
-558.485	139.634	-0.024	-0.032
-557.471	-47.541	-0.140	-0.068
-556.456	-130.044	-0.128	-0.017
-555.442	-110.820	-0.310	0.064
-554.427	628.723	0.081	-0.203
-553.412	-200.000	0.021	-0.189
-552.398	-87.161	0.213	0.064
-551.383	-86.964	0.189	-0.057
-550.369	-200.000	-0.443	-0.001
-549.354	121.489	0.196	0.243
-548.339	284.332	-0.045	-0.081
-547.325	-32.236	0.189	0.105
-546.310	13.611	0.210	0.162
-545.296	-136.727	-0.175	-0.020
-544.281	262.155	-0.063	0.108
-543.266	800.000	-0.066	-0.260
-542.252	-135.352	0.043	0.005
-541.237	-109.629	0.198	0.042
-540.223	-125.630	0.063	-0.010
-539.208	6.970	-0.110	-0.082
-538.193	44.360	0.216	0.197
-537.179	245.954	0.080	0.135
-536.164	-200.000	0.014	-0.090
-535.150	-75.995	-0.086	0.030
-534.135	2.274	-0.390	-0.281
-533.121	-200.000	0.074	-0.359
-532.106	-131.475	-0.194	0.025
-531.091	-200.000	0.022	0.116
-530.077	292.044	0.244	-0.442
-529.062	-186.868	-0.281	-0.004
-528.048	-200.000	0.020	-0.098
-527.033	-200.000	-0.014	-0.352
-526.018	677.968	0.041	-0.107
-525.004	-200.000	-0.018	0.172
-523.989	-78.310	0.209	-0.071
-522.975	43.434	0.189	0.172
-521.960	79.947	0.233	0.250
-520.945	-200.000	-0.013	-0.188
-519.931	35.669	0.198	0.173
-518.916	715.652	0.071	0.186
-517.902	-36.323	-0.194	0.104
-516.887	-53.451	0.248	0.113
-515.872	-200.000	0.013	0.133
-514.858	-130.617	0.232	0.031
-513.843	-1.212	-0.050	0.035
-512.829	-107.437	-0.101	-0.022
-511.814	49.693	-0.196	-0.183
-510.799	622.612	0.148	0.370
-509.785	553.522	-0.178	-0.426
-508.770	5.730	0.229	0.168
-507.756	-59.600	0.088	0.038
-506.741	104.326	0.129	0.151
-505.726	-57.194	0.518	-0.227
-504.712	-200.000	-0.211	-0.000
-503.697	169.481	-0.211	-0.300
-502.683	-137.871	0.248	-0.028
-501.668	-113.355	0.149	-0.029
-500.653	-46.864	-0.188	0.092
-499.639	-200.000	0.060	0.370
-498.624	175.843	-0.136	-0.196
-497.610	-48.051	0.373	-0.179
-496.595	-200.000	0.004	-0.444
-495.581	-200.000	-0.001	-0.268
-494.566	-200.000	0.020	-0.108
-493.551	12.570	-0.058	-0.044
-492.537	13.617	-0.105	-0.081
-491.522	68.955	0.102	0.104
-490.508	-200.000	0.005	-0.155
-489.493	474.213	0.083	-0.187
-488.478	-200.000	0.043	-0.334
-487.464	-200.000	0.046	-0.222
-486.449	-106.964	-0.321	-0.071
-485.435	20.902	-0.224	0.181
-484.420	-40.332	-0.164	-0.085
-483.405	-198.702	-0.198	0.001
-482.391	710.267	-0.138	0.364
-481.376	-106.049	-0.196	-0.044
-480.362	-93.228	0.087	-0.024
-479.347	-200.000	0.030	0.262
-478.332	197.513	0.076	0.116
-477.318	-200.000	0.117	-0.525
-476.303	6.791	-0.054	0.040
-475.289	800.000	0.060	-0.202
-474.274	800.000	0.044	-0.171
-473.259	20.286	-0.102	0.082
-472.245	-148.157	0.198	0.016
-471.230	185.060	-0.081	-0.119
-470.216	-156.290	0.215	-0.013
-469.201	352.039	0.176	0.346
-468.186	-59.401	-0.110	0.047
-467.172	678.739	-0.103	-0.267
-466.157	-200.000	0.027	-0.169
-465.143	162.668	0.295	0.411
-464.128	-104.311	-0.328	0.075
-463.113	800.000	-0.092	0.304
-462.099	49.584	-0.209	0.196
-461.084	-200.000	0.031	-0.282
-460.070	-67.302	0.306	-0.120
-459.055	-200.000	-0.036	-0.168
-458.040	253.705	-0.018	0.030
-457.026	800.000	0.057	0.188
-456.011	-116.048	0.111	0.021
-454.997	800.000	0.060	0.179
-453.982	-134.330	-0.211	-0.026
-452.968	15.979	-0.140	-0.109
-451.953	-41.499	-0.197	-0.100
-450.938	62.203	0.094	-0.093
-449.924	-66.507	0.375	-0.148
-448.909	68.919	-0.140	-0.143
-447.895	387.258	0.104	-0.214
-446.880	-98.232	-0.110	0.028
-445.865	-104.762	-0.200	-0.046
-444.851	-116.362	-0.403	-0.074
-443.836	284.338	0.064	-0.114
-442.822	-200.000	-0.016	0.126
-441.807	-97.205	0.141	-0.037
-440.792	-134.604	-0.097	0.012
-439.778	-140.362	-0.308	-0.032
-438.763	-200.000	-0.034	-0.311
-437.749	9.336	0.093	0.070
-436.734	-48.612	0.120	-0.057
-435.719	-200.000	0.033	0.272
-434.705	29.029	0.320	-0.269
-433.690	-56.242	0.100	0.044
-432.676	132.434	-0.161	-0.206
-431.661	20.201	-0.237	-0.190
-430.646	165.450	-0.181	0.254
-429.632	76.548	0.152	-0.160
-428.617	-40.979	0.177	0.091
-427.603	-59.220	0.384	0.164
-426.588	-69.173	0.183	0.070
-425.573	69.270	-0.040	0.041
-424.559	-82.855	0.053	-0.017
-423.544	-106.499	0.319	-0.071
-422.530	600.961	0.037	-0.090
-421.515	26.386	-0.130	-0.108
-420.500	-120.122	-0.042	0.007
-419.486	800.000	0.029	-0.115
-418.471	-49.912	0.110	0.052
-417.457	-200.000	-0.042	0.245
-416.442	227.241	0.061	-0.099
-415.428	-154.126	0.263	-0.018
-414.413	-136.562	-0.273	0.031
-413.398	800.000	-0.126	0.376
-412.384	141.312	0.256	0.335
-411.369	800.000	-0.057	0.163
-410.355	800.000	0.124	-0.377
-409.340	236.166	-0.100	-0.163
-408.325	67.307	-0.087	-0.088
-407.311	800.000	0.054	0.165
-406.296	-200.000	-0.024	-0.196
-405.282	221.954	-0.156	-0.249
-404.267	-50.252	-0.268	0.125
-403.252	260.612	0.103	0.176
-402.238	-16.454	-0.219	-0.137
-401.223	-200.000	-0.023	-0.196
-400.209	750.256	-0.129	-0.345
-399.194	229.774	0.225	0.364
-398.179	-53.039	0.044	-0.020
-397.165	-52.675	0.230	0.105
-396.150	-36.284	-0.163	-0.087
-395.136	89.442	0.163	-0.180
-394.121	-96.864	0.136	-0.035
-393.106	151.104	-0.201	-0.271
-392.092	95.103	0.045	0.051
-391.077	5.378	0.135	-0.099
-390.063	-111.444	0.234	0.047
-389.048	-15.260	-0.217	-0.137
-388.033	-131.574	0.171	0.022
-387.019	-200.000	-0.002	-0.022
-386.004	98.878	-0.274	0.313
-384.990	238.797	-0.107	0.176
-383.975	307.202	-0.109	-0.201
-382.960	277.535	-0.137	-0.242
-381.946	32.861	-0.243	0.208
-380.931	43.547	0.112	-0.101
-379.917	800.000	-0.038	0.104
-378.902	-51.923	0.260	0.120
-377.888	-151.592	0.372	0.027
-376.873	-65.770	-0.121	-0.048
-375.858	-54.770	-0.238	-0.106
-374.844	-115.503	0.270	-0.050
-373.829	-97.497	-0.225	0.058
-372.815	800.000	0.070	0.262
-371.800	87.475	-0.078	0.086
-370.785	108.079	-0.149	0.176
-369.771	-29.684	-0.171	-0.096
-368.756	-158.062	0.473	-0.027
-367.742	-200.000	-0.039	-0.233
-366.727	800.000	0.101	-0.335
-365.712	-1.854	0.163	-0.113
-364.698	-200.000	-0.012	0.227
-363.683	-132.112	-0.296	0.038
-362.669	-25.019	0.488	-0.286
-361.654	104.019	0.150	-0.175
-360.639	800.000	0.070	0.290
-359.625	-47.387	-0.041	0.020
-358.610	800.000	-0.052	0.211
-357.596	-145.273	0.178	0.016
-356.581	-80.058	0.163	0.054
-355.566	-200.000	-0.010	0.365
-354.552	160.244	0.183	0.253
-353.537	800.000	-0.099	0.354
-352.523	800.000	0.023	-0.066
-351.508	800.000	-0.077	0.217
-350.493	-119.787	0.243	0.041
-349.479	304.871	-0.078	-0.143
-348.464	232.682	0.095	0.155
-347.450	464.641	-0.153	0.338
-346.435	-9.418	-0.084	0.055
-345.420	-200.000	0.006	-0.264
-344.406	-121.129	0.209	0.035
-343.391	-181.386	0.141	0.003
-342.377	-96.996	0.126	0.033
-341.362	71.654	-0.106	0.109
-340.348	-73.326	0.409	0.148
-339.333	-85.978	-0.134	0.041
-338.318	393.978	-0.151	0.311
-337.304	-44.220	-0.235	-0.116
-336.289	-2.090	0.187	-0.130
-335.275	53.839	-0.054	-0.052
-334.260	-45.882	-0.144	-0.070
-333.245	228.104	0.086	-0.138
-332.231	-200.000	-0.032	0.165
-331.216	-12.913	0.150	-0.097
-330.202	314.556	-0.071	-0.131
-329.187	6.798	0.081	-0.059
-328.172	-200.000	-0.030	-0.252
-327.158	678.417	0.052	-0.133
-326.143	-200.000	-0.024	0.278
-325.129	800.000	0.050	0.203
-324.114	334.590	-0.053	0.101
-323.099	-200.000	0.012	0.144
-322.085	433.999	0.104	-0.224
-321.070	380.576	-0.075	0.152
-320.056	403.926	0.087	0.181
-319.041	699.867	0.109	0.283
-318.026	-90.342	-0.227	0.065
-317.012	-129.902	-0.140	-0.019
-315.997	-103.231	-0.127	-0.030
-314.983	226.130	0.222	-0.356
-313.968	-58.780	0.186	0.079
-312.953	136.720	-0.154	-0.199
-311.939	442.632	-0.087	-0.189
-310.924	800.000	-0.059	0.231
-309.910	-200.000	-0.045	0.245
-308.895	800.000	0.050	-0.189
-307.880	23.370	-0.106	0.086
-306.866	-37.055	0.128	-0.068
-305.851	-93.548	-0.072	-0.020
-304.837	-200.000	0.042	0.296
-303.822	257.453	-0.160	-0.272
-302.807	18.856	0.102	0.081
-301.793	-72.870	-0.026	0.010
-300.778	743.571	0.032	-0.084
-299.764	-137.059	-0.011	-0.001
-298.749	-36.405	-0.284	0.151
-297.735	-77.949	0.137	-0.047
-296.720	-137.125	-0.395	-0.044
-295.705	-52.868	-0.154	-0.070
-294.691	-75.274	0.206	-0.072
-293.676	2.751	0.079	-0.057
-292.662	298.977	0.018	-0.032
-291.647	800.000	-0.010	-0.040
-290.632	-200.000	0.108	-0.489
-289.618	-200.000	-0.022	0.193
-288.603	800.000	-0.092	0.316
-287.589	63.322	-0.221	0.218
-286.574	-125.810	0.229	-0.034
-285.559	-64.477	-0.193	-0.077
-284.545	41.453	-0.172	0.154
-283.530	-200.000	0.029	0.133
-282.516	-159.790	-0.381	0.021
-281.501	200.280	-0.231	-0.349
-280.486	-135.208	0.290	-0.034
-279.472	-151.580	0.108	-0.008
-278.457	245.987	-0.021	-0.035
-277.443	-69.304	-0.177	0.067
-276.428	-200.000	-0.016	0.259
-275.413	-200.000	-0.004	-0.302
-274.399	-18.486	-0.155	0.095
-273.384	539.675	-0.036	0.084
-272.370	-200.000	-0.010	0.054
-271.355	-58.550	0.073	-0.031
-270.340	-130.365	0.075	-0.010
-269.326	288.765	-0.065	-0.117
-268.311	800.000	-0.060	0.189
-267.297	74.203	0.179	0.186
-266.282	-126.115	-0.155	-0.023
-265.267	800.000	-0.044	0.153
-264.253	800.000	0.035	0.116
-263.238	-5.602	-0.177	-0.120
-262.224	258.714	-0.144	0.245
-261.209	-106.895	0.438	0.096
-260.195	21.517	-0.251	0.201
-259.180	-164.535	-0.142	0.006
-258.165	-59.469	0.091	-0.039
-257.151	-28.910	0.198	0.112
-256.136	389.996	0.109	0.222
-255.122	210.815	-0.012	-0.018
-254.107	-76.812	0.141	0.049
-253.092	53.734	-0.133	0.126
-252.078	215.736	-0.097	-0.152
-251.063	-113.070	-0.351	-0.068
-250.049	-138.193	0.044	0.005
-249.034	147.137	-0.154	0.205
-248.019	-111.173	0.321	0.065
-247.005	-200.000	0.007	-0.163
-245.990	-200.000	-0.029	-0.201
-244.976	-54.567	-0.170	0.076
-243.961	-200.000	-0.008	0.120
-242.946	66.826	0.204	0.204
-241.932	-200.000	0.001	0.083
-240.917	404.460	0.042	-0.087
-239.903	-56.405	0.215	-0.094
-238.888	-200.000	0.060	0.564
-237.873	78.543	0.110	0.116
-236.859	686.479	0.038	-0.097
-235.844	800.000	-0.084	-0.254
-234.830	-200.000	0.092	0.454
-233.815	-124.151	-0.120	0.018
-232.800	-111.766	-0.216	0.043
-231.786	-85.333	-0.114	-0.035
-230.771	56.686	-0.155	-0.148
-229.757	26.934	-0.280	-0.231
-228.742	64.037	-0.073	-0.072
-227.727	-200.000	-0.037	-0.183
-226.713	-111.592	-0.300	0.060
-225.698	-10.326	-0.187	0.122
-224.684	640.897	0.081	-0.203
-223.669	-79.535	-0.157	-0.052
-222.655	-178.314	-0.214	-0.005
-221.640	-200.000	0.012	0.341
-220.625	-144.960	-0.410	-0.037
-219.611	-96.853	-0.105	0.027
-218.596	-200.000	0.038	0.243
-217.582	-59.800	0.204	0.086
-216.567	172.186	-0.108	0.152
-215.552	69.080	-0.125	0.127
-214.538	-200.000	0.437	-0.001
-213.523	81.735	0.126	0.134
-212.509	-200.000	-0.067	0.291
-211.494	800.000	0.051	0.183
-210.479	-29.152	0.206	-0.116
-209.465	-200.000	0.031	0.196
-208.450	-200.000	-0.026	0.301
-207.436	-112.340	0.045	0.009
-206.421	102.791	-0.091	-0.105
-205.406	-97.965	-0.139	0.035
-204.392	119.985	0.155	0.189
-203.377	-7.442	0.151	-0.101
-202.363	98.179	0.165	-0.187
-201.348	-62.898	0.169	-0.069
-200.333	79.385	-0.154	-0.162
-199.319	-159.833	0.142	-0.008
-198.304	-200.000	-0.041	0.258
-197.290	-47.916	0.263	-0.125
-196.275	-135.104	-0.094	-0.011
-195.260	125.442	-0.179	-0.222
-194.246	-200.000	0.010	-0.451
-193.231	-126.675	0.167	-0.024
-192.217	-69.003	-0.035	-0.013
-191.202	-147.390	-0.065	0.005
-190.187	413.640	-0.134	-0.281
-189.173	-63.659	0.279	-0.112
-188.158	-59.729	-0.204	-0.086
-187.144	-3.396	0.171	0.117
-186.129	-43.404	0.276	0.137
-185.114	-200.000	0.007	0.140
-184.100	-35.892	0.096	0.051
-183.085	6.199	0.125	-0.091
-182.071	800.000	-0.086	-0.284
-181.056	-45.222	-0.229	0.112
-180.042	-39.492	-0.270	-0.139
-179.027	-200.000	0.081	0.503
-178.012	5.182	-0.072	0.052
-176.998	800.000	0.051	0.145
-175.983	8.344	0.088	0.065
-174.969	95.549	-0.115	-0.129
-173.954	-2.616	0.276	0.190
-172.939	26.573	-0.084	0.069
-171.925	-26.334	-0.325	0.187
-170.910	202.633	-0.112	0.170
-169.896	-86.697	-0.327	0.098
-168.881	-107.791	0.185	0.040
-167.866	566.336	-0.080	0.190
-166.852	86.705	-0.109	0.118
-165.837	384.543	-0.086	0.174
-164.823	143.998	-0.211	-0.276
-163.808	-21.457	0.338	-0.202
-162.793	255.681	-0.138	-0.233
-161.779	-17.454	-0.238	0.147
-160.764	-200.000	-0.010	0.217
-159.750	215.854	0.228	0.356
-158.735	-57.448	0.379	-0.163
-157.720	443.261	-0.056	-0.120
-156.706	-92.184	0.076	-0.021
-155.691	800.000	-0.051	-0.170
-154.677	-52.740	0.132	-0.060
-153.662	180.982	0.017	-0.025
-152.647	0.212	0.232	0.163
-151.633	16.617	-0.137	0.106
-150.618	-116.469	0.200	0.036
-149.604	606.647	0.084	-0.204
-148.589	-45.534	-0.444	-0.216
-147.574	85.758	0.056	-0.060
-146.560	-76.127	-0.260	0.090
-145.545	224.314	0.229	0.362
-144.531	49.375	0.265	0.245
-143.516	-200.000	0.032	0.317
-142.502	91.739	-0.083	-0.091
-141.487	58.280	-0.058	-0.056
-140.472	31.445	0.077	-0.065
-139.458	-162.711	0.066	-0.003
-138.443	-200.000	0.008	0.213
-137.429	-91.354	-0.073	0.020
-136.414	-200.000	-0.056	-0.358
-135.399	25.248	0.233	-0.190
-134.385	-44.650	0.164	0.080
-133.370	187.917	0.065	0.096
-132.356	-46.573	-0.081	-0.039
-131.341	-160.514	0.197	0.010
-130.326	-200.000	0.027	0.249
-129.312	800.000	0.044	-0.154
-128.297	800.000	-0.035	-0.103
-127.283	107.286	0.122	-0.142
-126.268	7.490	-0.170	0.125
-125.253	-178.345	-0.115	0.003
-124.239	800.000	0.040	0.144
-123.224	-55.294	0.320	-0.141
-122.210	-142.829	-0.270	0.026
-121.195	-145.461	0.336	0.030
-120.180	-89.666	-0.115	0.033
-119.166	-200.000	-0.068	0.321
-118.151	-85.826	-0.253	0.077
-117.137	125.881	-0.026	-0.032
-116.122	-200.000	0.273	0.001
-115.107	-200.000	-0.020	-0.258
-114.093	132.825	0.062	0.079
-113.078	281.044	0.277	-0.485
-112.064	-14.198	-0.163	-0.103
-111.049	-200.000	0.010	-0.270
-110.034	-80.516	-0.181	0.059
-109.020	350.560	0.113	-0.218
-108.005	80.874	-0.243	-0.257
-106.991	-200.000	0.012	-0.377
-105.976	168.082	0.106	0.148
-104.962	-42.731	0.339	-0.169
-103.947	82.778	-0.116	0.123
-102.932	-21.802	-0.241	0.144
-101.918	-200.000	0.001	-0.260
-100.903	-200.000	0.064	-0.289
-99.889	471.144	0.048	-0.107
-98.874	-130.141	-0.014	0.002
-97.859	394.615	-0.085	0.173
-96.845	-41.815	-0.074	0.037
-95.830	-200.000	0.038	-0.183
-94.816	-78.303	-0.383	-0.129
-93.801	-84.291	-0.185	-0.057
-92.786	-186.801	0.371	-0.005
-91.772	-23.155	-0.210	-0.124
-90.757	-200.000	0.012	-0.093
-89.743	-135.410	0.314	-0.037
-88.728	209.516	-0.107	0.163
-87.713	71.970	0.171	-0.174
-86.699	-200.000	-0.027	0.320
-85.684	-200.000	-0.008	0.079
-84.670	61.200	0.160	-0.156
-83.655	-200.000	-0.013	0.219
-82.640	-65.227	-0.163	0.064
-81.626	625.328	-0.080	-0.197
-80.611	48.213	0.070	0.064
-79.597	-16.909	-0.160	-0.099
-78.582	300.273	0.011	-0.019
-77.567	-16.598	-0.133	-0.082
-76.553	-88.727	0.489	0.142
-75.538	175.943	-0.037	0.052
-74.524	-200.000	-0.001	-0.015
-73.509	44.488	0.135	0.121
-72.494	-186.773	-0.149	0.002
-71.480	-34.802	0.238	0.127
-70.465	800.000	-0.050	-0.172
-69.451	-200.000	0.031	-0.271
-68.436	-41.232	-0.263	0.133
-67.422	-123.385	0.284	0.044
-66.407	-79.275	0.485	0.161
-65.392	520.115	0.022	-0.050
-64.378	163.299	-0.207	0.284
-63.363	-72.510	-0.343	0.124
-62.349	61.460	0.112	0.108
-61.334	102.007	-0.857	-0.978
-60.319	-15.912	0.636	0.396
-59.305	800.000	-0.456	-1.499
-58.290	800.000	0.378	1.094
-57.276	800.000	0.447	1.447
-56.261	-200.000	116.115	644.464
-55.246	502.112	1539.550	3476.000
-54.232	175.486	2710.651	3840.285
-53.217	105.283	2153.575	2484.976
-52.203	38.019	1587.419	1379.548
-51.188	29.730	1329.616	1106.117
-50.173	26.957	1290.497	1057.402
-49.159	52.831	1348.898	1260.206
-48.144	51.135	1362.788	1263.040
-47.130	29.878	1316.739	1096.104
-46.115	26.548	1298.742	1061.592
-45.100	26.294	1293.696	1055.937
-44.086	26.297	1290.851	1053.592
-43.071	26.368	1288.485	1052.033
-42.057	26.269	1286.569	1049.853
-41.042	26.226	1285.375	1048.585
-40.027	26.347	1283.291	1047.544
-39.013	26.255	1281.391	1045.420
-37.998	26.414	1279.214	1044.519
-36.984	26.386	1277.952	1043.289
-35.969	26.431	1275.937	1041.863
-34.954	26.381	1274.748	1040.562
-33.940	26.439	1273.193	1039.584
-32.925	26.491	1271.757	1038.669
-31.911	26.535	1270.213	1037.621
-30.896	26.472	1269.025	1036.247
-29.881	26.581	1267.418	1035.515
-28.867	26.542	1266.127	1034.194
-27.852	26.566	1264.494	1032.960
-26.838	26.552	1263.179	1031.761
-25.823	26.488	1262.519	1030.821
-24.809	26.512	1260.471	1029.243
-23.794	26.482	1259.453	1028.202
-22.779	26.450	1258.231	1026.979
-21.765	26.466	1256.826	1025.881
-20.750	26.607	1255.313	1025.404
-19.736	26.481	1254.135	1023.688
-18.721	26.424	1253.073	1022.459
-17.706	26.530	1251.655	1021.861
-16.692	26.429	1251.126	1020.817
-15.677	26.365	1249.707	1019.258
-14.663	26.409	1248.644	1018.600
-13.648	26.382	1247.532	1017.499
-12.633	26.365	1246.807	1016.775
-11.619	26.371	1245.913	1016.038
-10.604	26.355	1244.930	1015.104
-9.590	26.463	1243.703	1014.671
-8.575	26.344	1243.309	1013.643
-7.560	26.430	1242.100	1013.096
-6.546	26.391	1241.488	1012.343
-5.531	26.305	1240.794	1011.251
-4.517	26.407	1239.119	1010.416
-3.502	26.376	1238.967	1010.079
-2.487	26.421	1237.391	1009.008
-1.473	26.450	1233.369	1005.846
-0.458	24.910	1219.524	986.044
0.556	21.828	1202.462	949.707
1.571	18.248	1209.179	935.396
2.586	17.514	1223.526	942.349
3.600	17.075	1211.662	930.722
4.615	12.608	1140.968	853.229
5.629	6.146	1070.377	768.852
6.644	3.324	1052.979	742.694
7.659	3.109	1050.821	740.075
8.673	3.147	1049.550	739.295
9.688	3.180	1048.215	738.449
10.702	3.385	1046.465	738.133
11.717	7.236	1050.895	759.684
12.731	14.480	1061.565	802.306
13.746	19.044	1066.628	828.077
14.761	19.594	1067.463	831.299
15.775	18.826	1065.631	826.107
16.790	17.879	1063.445	819.795
17.804	17.122	1062.432	815.308
18.819	16.779	1061.281	812.709
19.834	16.825	1060.040	811.905
20.848	16.520	1059.935	810.292
21.863	16.374	1059.051	808.846
22.877	16.105	1058.303	806.914
23.892	16.288	1056.979	806.710
24.907	16.132	1056.458	805.494
25.921	16.351	1055.241	805.540
26.936	16.309	1054.107	804.401
27.950	16.212	1052.961	802.995
28.965	16.331	1051.509	802.384
29.980	16.465	1050.025	801.814
30.994	16.543	1049.112	801.415
32.009	16.599	1047.962	800.731
33.023	16.544	1047.162	799.790
34.038	16.559	1045.636	798.626
35.053	16.322	1045.024	796.967
36.067	16.289	1044.284	796.179
37.082	16.456	1042.864	795.810
38.096	16.438	1042.944	795.717
39.111	16.417	1042.245	795.013
40.126	16.412	1040.396	793.512
41.140	16.182	1038.741	791.100
42.155	16.064	1038.021	789.928
43.169	16.008	1036.666	788.564
44.184	15.927	1035.880	787.518
45.199	16.046	1035.190	787.480
46.213	16.151	1034.004	787.001
47.228	16.195	1033.424	786.691
48.242	16.303	1031.985	786.032
49.257	16.251	1030.909	784.900
50.271	16.356	1030.309	784.862
51.286	16.243	1029.641	783.759
52.301	16.342	1028.491	783.273
53.315	16.296	1027.182	781.993
54.330	16.143	1026.499	780.696
55.344	16.289	1025.200	780.316
56.359	16.219	1024.242	779.194
57.374	16.074	1023.861	778.164
58.388	15.972	1022.874	776.873
59.403	16.143	1021.480	776.535
60.417	16.103	1021.128	776.013
61.432	16.028	1020.570	775.178
62.447	15.855	1019.593	773.573
63.461	15.810	1018.757	772.662
64.476	15.970	1017.420	772.313
65.490	15.895	1017.000	771.583
66.505	15.950	1016.158	771.126
67.520	15.956	1015.600	770.664
68.534	15.907	1015.254	770.110
69.549	15.996	1014.263	769.694
70.563	15.797	1013.292	767.982
71.578	15.716	1012.564	766.992
72.593	15.743	1011.762	766.442
73.607	15.855	1010.536	765.955
74.622	15.665	1010.441	764.947
75.636	15.764	1010.188	765.142
76.651	15.723	1009.300	764.214
77.666	15.787	1008.216	763.614
78.680	15.903	1007.701	763.683
79.695	15.941	1007.130	763.356
80.709	16.044	1006.862	763.552
81.724	16.029	1006.059	762.807
82.739	16.179	1004.832	762.489
83.753	16.180	1004.950	762.515
84.768	16.491	1003.946	763.091
85.782	16.520	1003.271	762.638
86.797	16.395	1002.231	761.218
87.812	16.421	1000.944	760.292
88.826	16.355	999.926	759.152
89.841	16.456	999.133	758.938
90.855	16.470	998.735	758.629
91.870	16.483	997.764	757.883
92.884	16.487	996.441	756.832
93.899	16.661	995.791	757.047
94.914	16.539	995.338	756.091
95.928	16.711	994.368	756.055
96.943	16.462	993.440	754.174
97.957	16.376	992.639	753.114
98.972	16.492	991.353	752.590
99.987	16.497	990.877	752.182
101.001	16.367	989.890	750.789
102.016	16.494	988.943	750.567
103.030	16.427	988.412	749.803
104.045	16.374	987.915	749.124
105.060	16.257	986.813	747.702
106.074	16.191	985.440	746.305
107.089	16.029	984.123	744.525
108.103	15.966	983.565	743.758
109.118	16.035	982.771	743.399
110.133	16.010	981.486	742.251
111.147	16.046	980.517	741.609
112.162	16.007	980.153	741.098
113.176	16.174	979.235	741.071
114.191	16.174	979.067	740.878
115.206	16.042	978.329	739.677
116.220	16.169	977.197	739.310
117.235	16.171	975.920	738.287
118.249	16.104	975.165	737.359
119.264	16.030	974.320	736.333
120.279	15.988	973.876	735.748
121.293	15.873	973.093	734.589
122.308	15.847	971.795	733.429
123.322	15.798	970.746	732.362
124.337	15.805	969.718	731.549
125.352	15.884	968.591	730.981
126.366	15.976	967.244	730.298
127.381	15.917	966.635	729.518
128.395	15.884	966.173	728.959
129.410	15.933	964.817	728.083
130.424	15.899	964.443	727.589
131.439	16.165	963.764	728.161
132.454	16.193	962.832	727.515
133.468	16.055	962.098	726.302
134.483	16.180	961.110	726.028
135.497	16.177	960.034	725.141
136.512	16.048	959.822	724.360
137.527	16.022	958.895	723.487
138.541	16.217	957.906	723.511
139.556	16.231	957.429	723.148
140.570	16.376	956.939	723.334
141.585	16.430	956.140	722.898
142.600	16.424	955.343	722.205
143.614	16.680	954.211	722.379
144.629	16.512	954.206	721.593
145.643	16.596	952.589	720.664
146.658	16.323	951.783	718.829
147.673	16.345	950.447	717.851
148.687	16.345	949.619	717.159
149.702	16.268	948.593	715.998
150.716	16.292	947.892	715.507
151.731	16.310	947.273	715.050
152.746	16.181	946.571	713.911
153.760	16.257	946.307	713.971
154.775	16.425	946.011	714.393
155.789	16.508	945.014	713.930
156.804	16.401	944.318	712.891
157.819	16.669	943.521	713.352
158.833	16.592	943.175	712.703
159.848	16.711	942.281	712.466
160.862	16.593	941.256	711.134
161.877	16.392	939.930	709.222
162.892	16.226	939.153	707.879
163.906	16.317	937.778	707.163
164.921	16.214	937.475	706.440
165.935	16.341	936.783	706.388
166.950	16.511	935.683	706.205
167.964	16.454	934.968	705.365
168.979	16.371	933.786	704.064
169.994	16.426	932.899	703.565
171.008	16.432	932.353	703.115
172.023	16.504	932.101	703.161
173.037	16.584	931.277	702.809
174.052	16.642	930.514	702.412
175.067	16.486	929.800	701.163
176.081	16.328	929.093	699.912
177.096	16.141	928.907	698.938
178.110	16.442	927.596	699.132
179.125	16.400	927.425	698.769
180.140	16.407	927.014	698.427
181.154	16.555	926.229	698.385
182.169	16.834	925.949	699.263
183.183	16.795	925.414	698.638
184.198	16.734	924.496	697.629
185.213	16.638	923.994	696.795
186.227	16.761	923.102	696.566
187.242	16.788	922.779	696.373
188.256	16.949	922.333	696.633
189.271	16.781	922.061	695.678
190.286	16.785	920.087	694.144
191.300	16.432	919.116	691.906
192.315	16.369	918.683	691.262
193.329	16.486	918.360	691.435
194.344	16.517	918.056	691.270
195.359	16.458	917.246	690.358
196.373	16.610	917.164	690.857
197.388	16.840	916.514	691.243
198.402	17.072	916.184	691.880
199.417	17.037	915.266	690.981
200.432	17.221	915.041	691.499
201.446	17.246	914.355	691.024
202.461	17.176	914.162	690.531
203.475	17.154	913.382	689.791
204.490	16.908	912.416	688.001
205.504	16.892	911.577	687.246
206.519	16.858	910.378	686.141
207.534	16.830	910.147	685.795
208.548	16.833	909.717	685.420
209.563	16.817	909.282	684.967
210.577	16.993	908.134	684.753
211.592	17.095	907.791	684.846
212.607	17.288	906.657	684.708
213.621	17.146	906.201	683.729
214.636	17.186	905.332	683.176
215.650	17.140	904.949	682.638
216.665	17.288	904.237	682.636
217.680	17.362	903.500	682.319
218.694	17.190	903.245	681.376
219.709	17.310	902.304	681.084
220.723	17.135	901.883	680.008
221.738	17.274	900.983	679.825
222.753	17.160	900.726	679.113
223.767	17.254	899.958	678.850
224.782	17.451	899.266	679.056
225.796	17.383	899.073	678.579
226.811	17.453	897.656	677.728
227.826	17.360	897.075	676.857
228.840	17.207	896.500	675.757
229.855	17.162	895.809	674.995
230.869	17.208	895.230	674.685
231.884	17.107	894.666	673.796
232.899	17.022	893.578	672.580
233.913	17.101	892.753	672.215
234.928	17.092	892.176	671.682
235.942	17.048	892.255	671.510
236.957	17.059	891.307	670.783
237.972	17.134	890.403	670.336
238.986	17.077	890.291	669.970
240.001	17.235	889.299	669.785
241.015	17.279	888.820	669.540
242.030	17.269	888.147	668.935
243.045	17.386	887.516	668.860
244.059	17.198	887.563	668.096
245.074	17.380	886.455	667.917
246.088	17.429	886.203	667.859
247.103	17.350	886.041	667.372
248.117	17.660	884.816	667.605
249.132	17.853	884.578	668.120
250.147	17.915	883.927	667.809
251.161	17.874	883.620	667.359
252.176	17.879	882.966	666.827
253.190	17.964	882.350	666.635
254.205	17.910	881.648	665.836
255.220	17.953	881.424	665.774
256.234	17.871	880.410	664.628
257.249	17.958	879.391	664.142
258.263	18.007	878.882	663.889
259.278	18.090	878.000	663.482
260.293	18.197	877.635	663.565
261.307	18.223	876.962	663.097
262.322	18.145	876.764	662.586
263.336	18.153	875.750	661.794
264.351	18.036	875.464	661.066
265.366	18.243	874.524	661.099
266.380	18.153	874.026	660.315
267.395	18.097	872.937	659.218
268.409	18.052	872.439	658.610
269.424	18.032	871.830	658.016
270.439	17.964	870.948	657.029
271.453	18.079	869.966	656.671
272.468	17.920	869.989	656.021
273.482	17.958	869.274	655.569
274.497	17.963	868.225	654.742
275.512	17.867	868.336	654.396
276.526	17.893	867.902	654.114
277.541	18.209	867.052	654.623
278.555	18.157	866.804	654.179
279.570	18.250	866.131	653.970
280.585	18.204	865.400	653.183
281.599	18.175	864.375	652.241
282.614	18.035	863.667	651.117
283.628	18.083	863.574	651.170
284.643	18.209	862.693	650.929
285.657	18.219	862.043	650.418
286.672	18.148	861.429	649.627
287.687	18.121	861.149	649.257
288.701	18.235	859.966	648.741
289.716	18.207	859.496	648.222
290.730	18.278	859.077	648.115
291.745	18.285	858.549	647.686
292.760	18.290	858.084	647.299
293.774	18.431	857.044	646.990
294.789	18.444	856.647	646.683
295.803	18.350	855.656	645.522
296.818	18.390	854.755	644.934
297.833	18.259	854.424	644.137
298.847	18.376	853.794	644.042
299.862	18.411	853.250	643.710
300.876	18.313	853.051	643.132
301.891	18.416	852.708	643.204
302.906	18.588	851.751	643.072
303.920	18.666	851.332	642.990
304.935	18.825	850.777	643.107
305.949	18.784	849.926	642.255
306.964	18.644	849.276	641.184
307.979	18.490	849.140	640.448
308.993	18.665	848.361	640.459
310.008	18.746	847.706	640.211
311.022	18.637	846.988	639.203
312.037	18.607	846.510	638.676
313.052	18.384	846.038	637.432
314.066	18.377	844.991	636.561
315.081	18.265	845.239	636.277
316.095	18.461	844.100	636.089
317.110	18.355	843.823	635.429
318.125	18.298	843.308	634.775
319.139	18.400	842.680	634.623
320.154	18.517	841.934	634.441
321.168	18.465	841.643	633.971
322.183	18.584	840.938	633.825
323.197	18.588	840.581	633.513
324.212	18.513	840.016	632.757
325.227	18.562	839.500	632.493
326.241	18.659	838.807	632.271
327.256	18.448	838.221	630.997
328.270	18.505	837.728	630.779
329.285	18.492	837.243	630.312
330.300	18.509	836.493	629.750
331.314	18.560	835.607	629.218
332.329	18.717	835.285	629.494
333.343	18.707	835.233	629.362
334.358	18.764	834.765	629.163
335.373	18.793	833.776	628.469
336.387	18.777	834.474	628.881
337.402	18.866	834.399	629.095
338.416	19.037	833.730	629.159
339.431	19.102	833.186	628.931
340.446	19.136	833.121	628.949
341.460	19.084	832.780	628.446
342.475	19.168	832.050	628.148
343.489	19.087	831.621	627.474
344.504	19.260	831.459	627.924
345.519	19.365	830.574	627.584
346.533	19.299	830.040	626.885
347.548	19.282	829.243	626.166
348.562	18.994	828.774	624.709
349.577	18.882	827.969	623.642
350.592	18.822	827.285	622.853
351.606	18.805	826.871	622.425
352.621	18.742	826.583	621.924
353.635	18.927	825.657	621.843
354.650	19.101	824.867	621.822
355.665	19.098	824.403	621.405
356.679	19.006	824.317	620.955
357.694	19.237	822.923	620.681
358.708	19.255	822.423	620.314
359.723	19.144	822.200	619.691
360.738	19.122	821.638	619.135
361.752	19.177	820.967	618.769
362.767	19.374	820.217	618.858
363.781	19.358	820.047	618.615
364.796	19.520	819.891	619.027
365.810	19.575	819.400	618.798
366.825	19.611	819.261	618.767
367.840	19.528	818.509	617.847
368.854	19.421	817.830	616.897
369.869	19.473	817.263	616.602
370.883	19.502	817.199	616.600
371.898	19.515	817.054	616.485
372.913	19.679	816.000	616.219
373.927	19.608	815.476	615.515
374.942	19.665	815.285	615.519
375.956	19.757	814.709	615.359
376.971	19.660	814.675	614.932
377.986	19.744	814.024	614.684
379.000	19.846	813.599	614.674
380.015	19.838	812.869	614.040
381.029	19.698	812.598	613.281
382.044	19.751	811.657	612.706
383.059	19.746	811.390	612.432
384.073	19.739	810.765	611.882
385.088	19.637	810.105	610.968
386.102	19.561	809.307	610.045
387.117	19.710	808.752	610.099
388.132	19.707	807.900	609.389
389.146	19.687	807.507	608.970
390.161	19.827	807.317	609.264
391.175	19.867	806.817	608.974
392.190	19.765	806.598	608.398
393.205	19.674	806.164	607.695
394.219	19.637	805.540	607.041
395.234	19.672	805.228	606.877
396.248	19.493	804.476	605.629
397.263	19.586	803.911	605.475
398.278	19.445	803.713	604.778
399.292	19.492	803.182	604.490
400.307	19.393	803.275	604.161
401.321	19.625	802.787	604.550
402.336	19.550	802.130	603.739
403.350	19.715	801.675	603.921
404.365	19.806	801.288	603.893
405.380	20.022	800.862	604.271
406.394	19.922	800.324	603.465
407.409	20.085	800.143	603.845
408.423	20.235	799.565	603.875
409.438	20.194	799.603	603.709
410.453	20.057	799.109	602.806
411.467	20.134	798.773	602.767
412.482	20.376	797.983	602.957
413.496	20.501	797.460	602.943
414.511	20.202	797.739	602.062
415.526	20.209	796.864	601.372
416.540	20.272	796.637	601.365
417.555	20.377	795.905	601.125
418.569	20.273	795.758	600.598
419.584	20.265	795.159	600.068
420.599	20.261	794.709	599.659
421.613	162.056	1371.635	1795.560
422.628	140.532	1455.678	1795.658
