DTS Sentinel unit serial number:	SN413079Multiplexer serial number:	ORYXHardware model number:	OX4-SRSoftware version number:	ORYX F/W v4.00 Oryx Data Collector v3.7.2.0data status	okinstallation	princeton_trtdifferential loss correction	single-endedforward channel	channel 1reverse channel	N/Adate	2019/09/19time	01:50:35forward acquisition time	60.00reverse acquisition time	0.00gamma	496.2192k internal	0.2345k external	0.2345temperature offset calibration	1.0016default loss term (dB/km)	0.3790temperature slope calibration	1.0000multiplexer offset coefficient	1.0000multiplexer slope coefficient	1.0000fibre end	0.00T internal ref (°C)	21.37T ext. ref 1 (°C)	0.68T ext. ref 2 (°C)	14.80length (m)	temperature (°C)	Stokes	anti-Stokes-747.200	-68.395	-0.165	-0.064
-746.185	-200.000	0.030	-0.164
-745.171	-155.451	-0.216	-0.014
-744.156	-100.189	-0.251	0.063
-743.142	103.384	0.179	0.210
-742.127	316.895	0.287	0.542
-741.112	-3.343	-0.172	0.120
-740.098	-200.000	-0.050	0.500
-739.083	800.000	0.060	0.192
-738.069	613.282	-0.124	-0.311
-737.054	9.112	0.192	-0.145
-736.039	241.369	-0.195	-0.326
-735.025	-116.681	0.248	-0.046
-734.010	-60.957	-0.361	-0.153
-732.996	-113.920	-0.144	0.028
-731.981	800.000	-0.066	-0.250
-730.966	61.408	-0.458	-0.455
-729.952	-54.480	0.186	-0.084
-728.937	6.522	-0.250	0.186
-727.923	-77.151	-0.099	0.035
-726.908	-45.952	-0.224	-0.110
-725.894	-11.153	-0.060	-0.040
-724.879	800.000	-0.096	-0.378
-723.864	59.126	0.031	-0.031
-722.850	-200.000	-0.031	0.137
-721.835	-13.280	-0.235	-0.153
-720.821	697.859	-0.201	0.529
-719.806	-16.839	0.113	0.071
-718.791	-48.550	0.109	-0.053
-717.777	-71.227	-0.237	0.089
-716.762	-50.009	0.231	-0.109
-715.748	-200.000	0.013	-0.083
-714.733	-50.978	-0.185	0.087
-713.718	692.147	-0.111	-0.290
-712.704	800.000	0.095	-0.350
-711.689	-200.000	-0.031	0.317
-710.675	-111.586	0.029	0.006
-709.660	-75.071	-0.137	0.049
-708.645	91.120	0.067	-0.075
-707.631	-81.481	-0.146	-0.048
-706.616	800.000	0.059	0.166
-705.602	-110.268	-0.080	-0.017
-704.587	-200.000	0.011	-0.284
-703.572	-200.000	0.015	-0.116
-702.558	5.310	0.217	0.160
-701.543	-200.000	-0.003	-0.178
-700.529	-128.267	-0.346	0.049
-699.514	-90.840	-0.128	0.037
-698.499	-64.074	0.060	-0.024
-697.485	-15.086	-0.293	0.188
-696.470	-106.820	-0.316	0.070
-695.456	177.551	0.111	-0.162
-694.441	-55.912	0.499	0.222
-693.426	96.380	0.181	0.207
-692.412	-153.219	-0.208	0.015
-691.397	-51.273	0.065	0.030
-690.383	-73.197	-0.162	0.059
-689.368	-200.000	0.029	-0.498
-688.354	-39.490	0.460	-0.241
-687.339	2.088	-0.165	0.119
-686.324	-40.422	0.215	0.112
-685.310	145.267	0.210	0.281
-684.295	800.000	-0.012	0.043
-683.281	296.571	0.210	-0.385
-682.266	800.000	-0.073	0.203
-681.251	21.906	0.098	0.079
-680.237	461.344	0.077	0.171
-679.222	318.602	0.046	0.087
-678.208	-115.181	-0.220	0.042
-677.193	-110.460	0.331	-0.068
-676.178	130.419	0.080	-0.103
-675.164	-200.000	0.003	0.166
-674.149	-51.594	-0.164	0.076
-673.135	-158.288	0.171	0.010
-672.120	-34.341	-0.122	-0.067
-671.105	800.000	-0.100	0.298
-670.091	-57.573	-0.240	-0.105
-669.076	-147.208	-0.266	-0.023
-668.062	-7.857	-0.100	0.067
-667.047	126.441	0.103	-0.130
-666.032	224.597	0.075	-0.121
-665.018	-159.551	-0.244	-0.014
-664.003	312.280	0.057	-0.107
-662.989	6.232	-0.264	0.195
-661.974	-78.659	-0.294	0.100
-660.959	208.230	-0.166	-0.258
-659.945	131.507	-0.186	-0.239
-658.930	-200.000	0.012	-0.163
-657.916	-200.000	0.051	-0.402
-656.901	-59.114	-0.235	0.101
-655.886	-143.223	0.517	-0.050
-654.872	-200.000	0.013	-0.313
-653.857	800.000	-0.102	0.293
-652.843	-200.000	-0.024	0.430
-651.828	215.361	0.136	-0.215
-650.814	372.017	0.019	-0.039
-649.799	-103.887	0.201	0.047
-648.784	-46.015	0.290	-0.143
-647.770	246.447	-0.049	0.083
-646.755	-200.000	-0.011	0.142
-645.741	201.225	0.072	0.110
-644.726	650.430	0.021	0.054
-643.711	-200.000	0.048	0.277
-642.697	-200.000	0.027	0.130
-641.682	-25.203	-0.079	0.047
-640.668	-50.195	-0.255	-0.120
-639.653	282.654	-0.065	-0.116
-638.638	495.563	-0.168	-0.384
-637.624	-124.615	0.067	-0.010
-636.609	234.512	-0.037	-0.060
-635.595	-200.000	0.011	-0.212
-634.580	-11.342	-0.127	0.083
-633.565	800.000	0.017	-0.061
-632.551	12.385	-0.074	-0.057
-631.536	800.000	-0.064	-0.208
-630.522	800.000	-0.064	-0.245
-629.507	43.199	0.212	-0.193
-628.492	-200.000	0.025	-0.155
-627.478	800.000	-0.027	0.114
-626.463	-200.000	-0.040	-0.598
-625.449	134.864	0.112	-0.145
-624.434	-200.000	0.001	0.036
-623.419	-178.917	0.098	0.002
-622.405	-200.000	-0.047	0.372
-621.390	-121.700	-0.180	-0.030
-620.376	-133.447	-0.217	0.027
-619.361	-116.578	0.263	0.048
-618.346	-0.626	-0.164	-0.116
-617.332	107.667	-0.107	0.127
-616.317	614.057	-0.032	-0.079
-615.303	-200.000	0.052	-0.436
-614.288	135.127	-0.203	-0.263
-613.273	-200.000	0.030	-0.189
-612.259	-200.000	-0.047	0.267
-611.244	433.850	0.051	-0.109
-610.230	-152.243	-0.051	0.004
-609.215	-97.892	-0.164	-0.042
-608.201	-200.000	0.010	-0.277
-607.186	-128.614	0.264	-0.037
-606.171	668.012	-0.021	0.054
-605.157	15.918	-0.068	0.053
-604.142	-143.405	0.234	0.022
-603.128	800.000	0.091	0.354
-602.113	800.000	-0.051	0.196
-601.098	-156.842	-0.136	0.008
-600.084	-43.745	0.027	0.014
-599.069	358.226	-0.021	-0.042
-598.055	22.663	0.083	-0.067
-597.040	800.000	-0.067	-0.205
-596.025	119.326	0.086	-0.106
-595.011	-26.284	0.128	-0.075
-593.996	-80.262	0.299	0.099
-592.982	90.790	0.210	-0.235
-591.967	-200.000	0.031	-0.207
-590.952	-17.341	0.061	0.038
-589.938	45.551	-0.282	-0.259
-588.923	800.000	-0.089	-0.349
-587.909	-118.476	-0.116	-0.021
-586.894	108.883	0.151	-0.179
-585.879	159.466	0.102	-0.142
-584.865	-200.000	0.047	-0.345
-583.850	-200.000	-0.116	-0.519
-582.836	-100.337	-0.202	-0.050
-581.821	-200.000	0.047	-0.421
-580.806	-200.000	-0.008	0.200
-579.792	-125.141	-0.290	0.044
-578.777	-56.361	0.081	0.036
-577.763	-200.000	0.004	-0.017
-576.748	16.042	0.041	-0.032
-575.733	-200.000	0.173	-0.761
-574.719	-22.882	0.288	-0.173
-573.704	800.000	-0.034	-0.142
-572.690	-200.000	-0.004	0.123
-571.675	-55.375	0.272	0.121
-570.661	-13.410	-0.037	-0.024
-569.646	43.242	-0.181	0.164
-568.631	21.613	-0.104	-0.084
-567.617	70.277	0.070	-0.072
-566.602	203.502	0.178	-0.274
-565.588	-200.000	0.003	-0.025
-564.573	-133.427	-0.364	0.045
-563.558	88.789	0.011	0.012
-562.544	-200.000	-0.004	0.237
-561.529	113.923	-0.152	-0.184
-560.515	-200.000	0.096	-0.511
-559.500	-97.005	0.356	-0.093
-558.485	-80.216	-0.126	-0.042
-557.471	-56.770	-0.286	0.126
-556.456	-7.200	-0.159	-0.107
-555.442	24.672	-0.208	-0.171
-554.427	31.640	0.062	-0.053
-553.412	-200.000	0.036	0.229
-552.398	-4.308	0.327	-0.225
-551.383	-200.000	0.013	-0.143
-550.369	-53.303	-0.060	-0.027
-549.354	399.444	0.092	-0.192
-548.339	-79.730	0.007	0.002
-547.325	-56.499	-0.253	0.111
-546.310	131.964	0.161	0.206
-545.296	493.328	0.021	-0.048
-544.281	-97.792	-0.197	0.051
-543.266	335.052	0.218	0.420
-542.252	-136.154	0.207	-0.024
-541.237	31.832	0.312	0.267
-540.223	300.315	-0.033	0.060
-539.208	-200.000	0.020	0.155
-538.193	-200.000	-0.003	0.263
-537.179	39.933	-0.185	0.165
-536.164	-200.000	0.019	0.201
-535.150	-65.363	-0.282	0.113
-534.135	-76.337	-0.122	-0.043
-533.121	-159.321	-0.246	-0.014
-532.106	-21.697	-0.308	0.186
-531.091	-200.000	0.081	0.426
-530.077	528.200	-0.072	-0.169
-529.062	14.441	0.040	0.031
-528.048	447.893	-0.179	-0.390
-527.033	650.029	0.155	0.393
-526.018	-175.385	0.070	0.002
-525.004	-156.117	-0.164	-0.010
-523.989	26.441	0.125	0.104
-522.975	-200.000	-0.002	0.114
-521.960	-112.853	0.081	0.016
-520.945	-200.000	0.006	-0.220
-519.931	66.437	0.062	0.063
-518.916	223.172	-0.195	0.312
-517.902	263.699	-0.035	-0.060
-516.887	558.478	-0.108	0.259
-515.872	43.616	0.230	0.208
-514.858	-91.245	0.449	-0.127
-513.843	251.183	0.095	0.161
-512.829	-113.754	0.171	-0.033
-511.814	-146.052	-0.327	0.029
-510.799	-23.968	0.432	-0.256
-509.785	800.000	0.062	-0.233
-508.770	-200.000	-0.040	0.284
-507.756	102.000	-0.082	0.095
-506.741	210.193	0.159	0.247
-505.726	800.000	0.035	0.123
-504.712	800.000	0.082	0.281
-503.697	194.732	-0.137	0.206
-502.683	-200.000	0.028	0.280
-501.668	-26.762	0.186	-0.108
-500.653	-101.698	-0.022	0.005
-499.639	111.646	0.135	0.162
-498.624	800.000	0.067	-0.252
-497.610	32.938	-0.180	0.154
-496.595	800.000	-0.110	0.424
-495.581	800.000	0.120	0.356
-494.566	-152.203	0.075	-0.005
-493.551	-71.360	-0.490	-0.182
-492.537	-200.000	-0.027	-0.450
-491.522	-200.000	0.009	0.231
-490.508	-85.810	0.095	-0.029
-489.493	800.000	0.081	-0.263
-488.478	60.404	-0.211	0.207
-487.464	-200.000	0.045	0.281
-486.449	-29.955	0.129	-0.073
-485.435	-151.675	0.219	0.016
-484.420	-82.960	-0.205	-0.065
-483.405	-173.266	0.176	0.005
-482.391	714.434	0.062	0.164
-481.376	484.354	0.205	-0.461
-480.362	-78.966	-0.589	-0.198
-479.347	-121.489	0.262	-0.043
-478.332	-200.000	0.042	-0.254
-477.318	118.990	0.146	-0.179
-476.303	41.620	-0.050	-0.045
-475.289	-27.007	0.097	0.056
-474.274	800.000	-0.085	-0.318
-473.259	272.200	0.020	-0.036
-472.245	-124.701	-0.254	0.039
-471.230	-65.759	0.203	0.081
-470.216	39.182	-0.031	0.027
-469.201	170.735	-0.184	0.261
-468.186	-105.855	0.165	-0.037
-467.172	-200.000	-0.019	-0.236
-466.157	-132.118	-0.192	-0.025
-465.143	-144.723	-0.092	-0.008
-464.128	171.178	-0.083	-0.117
-463.113	80.255	0.065	-0.070
-462.099	32.835	0.091	0.078
-461.084	228.719	-0.134	-0.215
-460.070	-102.662	0.352	-0.083
-459.055	102.022	-0.187	-0.216
-458.040	113.009	-0.192	0.230
-457.026	-10.587	0.091	0.059
-456.011	-105.009	-0.155	-0.035
-454.997	157.779	0.103	-0.141
-453.982	800.000	0.028	0.100
-452.968	84.001	-0.191	-0.207
-451.953	-18.947	0.205	0.126
-450.938	-58.427	0.345	-0.148
-449.924	176.072	-0.104	0.150
-448.909	-93.219	0.318	0.087
-447.895	42.445	-0.116	-0.104
-446.880	800.000	-0.069	0.271
-445.865	-149.307	0.043	-0.003
-444.851	-131.955	-0.142	-0.018
-443.836	29.326	-0.184	-0.155
-442.822	513.098	-0.093	0.214
-441.807	-200.000	0.009	0.135
-440.792	800.000	0.052	0.153
-439.778	610.232	-0.082	-0.203
-438.763	100.976	-0.089	0.103
-437.749	-16.433	0.031	-0.019
-436.734	122.415	-0.088	-0.109
-435.719	100.530	0.103	0.118
-434.705	-96.167	0.186	0.049
-433.690	228.000	-0.246	0.395
-432.676	-87.058	0.393	0.118
-431.661	-110.596	-0.232	-0.047
-430.646	800.000	-0.115	0.407
-429.632	-200.000	0.044	0.225
-428.617	761.975	0.069	-0.184
-427.603	-144.198	0.230	-0.021
-426.588	160.942	-0.042	0.057
-425.573	-200.000	0.001	0.112
-424.559	103.207	-0.201	-0.233
-423.544	3.671	0.096	0.069
-422.530	800.000	-0.070	0.204
-421.515	-96.648	0.153	0.040
-420.500	800.000	-0.022	-0.061
-419.486	143.137	0.059	-0.077
-418.471	154.235	-0.181	-0.245
-417.457	537.713	-0.096	-0.225
-416.442	23.960	-0.060	-0.049
-415.428	-87.355	-0.157	-0.047
-414.413	-91.882	0.290	0.081
-413.398	-2.209	-0.063	0.044
-412.384	800.000	-0.025	0.105
-411.369	800.000	0.133	0.370
-410.355	32.455	-0.129	0.110
-409.340	-118.430	0.301	-0.053
-408.325	24.406	0.157	0.129
-407.311	-200.000	-0.022	-0.331
-406.296	-200.000	-0.017	0.273
-405.282	800.000	0.119	0.329
-404.267	800.000	0.023	-0.098
-403.252	-88.673	0.678	-0.199
-402.238	-110.973	-0.155	-0.031
-401.223	-200.000	0.032	0.293
-400.209	-143.398	-0.395	0.037
-399.194	-200.000	-0.002	-0.162
-398.179	800.000	-0.085	-0.240
-397.165	-79.060	-0.443	0.149
-396.150	-125.872	-0.353	0.053
-395.136	-156.275	0.130	-0.008
-394.121	136.861	0.146	0.189
-393.106	391.161	-0.039	0.080
-392.092	-200.000	-0.025	0.128
-391.077	43.636	0.334	0.302
-390.063	327.506	0.049	0.092
-389.048	582.337	0.039	-0.093
-388.033	135.122	-0.218	0.279
-387.019	-138.452	0.344	0.037
-386.004	209.160	-0.106	-0.164
-384.990	-200.000	-0.008	-0.086
-383.975	-200.000	-0.022	-0.257
-382.960	98.391	-0.126	-0.144
-381.946	-55.730	-0.224	0.099
-380.931	-132.095	-0.058	0.007
-379.917	-21.602	0.300	0.181
-378.902	44.466	-0.134	0.121
-377.888	-25.795	-0.089	-0.052
-376.873	266.659	-0.079	0.136
-375.858	-141.716	-0.189	0.019
-374.844	-200.000	0.024	-0.161
-373.829	149.163	-0.026	0.035
-372.815	-17.612	-0.302	-0.187
-371.800	-111.854	-0.468	0.093
-370.785	-95.654	-0.141	-0.037
-369.771	687.197	0.023	0.060
-368.756	26.255	0.235	-0.194
-367.742	681.755	0.043	-0.109
-366.727	306.695	0.074	-0.136
-365.712	-200.000	-0.016	0.149
-364.698	13.182	0.100	0.076
-363.683	-114.006	0.107	0.020
-362.669	-42.069	-0.122	0.061
-361.654	-19.872	-0.257	0.156
-360.639	800.000	0.086	0.305
-359.625	599.499	0.051	-0.125
-358.610	119.531	-0.017	-0.021
-357.596	800.000	0.030	0.119
-356.581	535.043	0.195	0.456
-355.566	551.980	-0.095	-0.224
-354.552	-200.000	-0.088	-0.391
-353.537	-61.864	-0.162	0.067
-352.523	351.174	-0.042	-0.082
-351.508	800.000	0.069	-0.238
-350.493	142.067	0.109	-0.143
-349.479	-136.114	0.366	0.042
-348.464	267.890	-0.036	-0.062
-347.450	233.036	-0.149	-0.241
-346.435	611.426	-0.077	0.189
-345.420	-33.314	-0.322	0.176
-344.406	-200.000	-0.015	-0.138
-343.391	-81.776	0.081	-0.026
-342.377	273.416	-0.091	0.159
-341.362	-200.000	0.007	-0.326
-340.348	191.122	0.159	0.236
-339.333	-134.366	-0.216	0.026
-338.318	-49.750	0.090	0.042
-337.304	110.966	0.028	-0.033
-336.289	-101.637	-0.262	-0.063
-335.275	129.823	-0.122	-0.153
-334.260	-67.242	0.167	0.065
-333.245	541.259	0.170	0.399
-332.231	-131.531	0.187	-0.024
-331.216	-184.797	0.294	-0.005
-330.202	-31.793	0.069	-0.038
-329.187	-93.780	0.234	-0.063
-328.172	70.872	-0.231	-0.236
-327.158	-57.356	0.097	0.042
-326.143	72.320	0.293	-0.300
-325.129	22.070	-0.408	-0.327
-324.114	-200.000	0.091	0.407
-323.099	5.118	-0.080	-0.058
-322.085	186.997	-0.121	0.177
-321.070	418.302	0.113	0.237
-320.056	-30.996	0.169	0.094
-319.041	217.071	-0.115	-0.180
-318.026	-58.182	0.191	0.082
-317.012	-135.287	0.257	0.030
-315.997	-200.000	-0.021	-0.100
-314.983	800.000	-0.056	0.156
-313.968	-185.014	0.164	-0.003
-312.953	-200.000	-0.003	0.098
-311.939	19.375	0.119	-0.094
-310.924	27.447	0.215	0.178
-309.910	-165.599	0.097	-0.004
-308.895	-137.241	0.447	-0.050
-307.880	185.924	-0.088	0.129
-306.866	89.213	0.138	0.152
-305.851	492.352	0.031	-0.070
-304.837	-139.951	-0.152	-0.016
-303.822	77.730	0.114	-0.119
-302.807	-84.072	-0.148	0.046
-301.793	7.112	0.173	0.127
-300.778	-74.734	-0.336	0.119
-299.764	-62.363	0.090	0.037
-298.749	94.474	0.103	0.115
-297.735	92.974	-0.165	-0.184
-296.720	-56.317	0.246	-0.108
-295.705	40.597	-0.214	-0.190
-294.691	4.674	-0.088	-0.063
-293.676	-66.508	0.132	0.051
-292.662	-109.260	-0.377	0.079
-291.647	-21.907	0.225	0.134
-290.632	447.904	-0.046	0.099
-289.618	105.571	0.076	-0.088
-288.603	-28.073	-0.173	0.099
-287.589	96.291	-0.145	-0.163
-286.574	-92.447	0.363	-0.100
-285.559	402.014	-0.077	-0.160
-284.545	800.000	-0.058	-0.220
-283.530	-200.000	-0.006	-0.118
-282.516	104.474	-0.115	0.133
-281.501	301.793	-0.200	0.363
-280.486	-200.000	-0.019	0.142
-279.472	135.442	-0.091	0.116
-278.457	-13.839	0.163	0.103
-277.443	10.453	-0.087	0.065
-276.428	616.578	-0.150	-0.369
-275.413	661.015	-0.068	-0.173
-274.399	-200.000	0.044	0.273
-273.384	-14.232	0.046	-0.029
-272.370	51.993	-0.149	0.139
-271.355	-200.000	0.022	0.273
-270.340	-108.473	0.075	0.016
-269.326	217.399	-0.156	-0.244
-268.311	-61.845	-0.205	-0.084
-267.297	-133.707	0.166	0.020
-266.282	-124.457	-0.142	-0.022
-265.267	29.638	0.012	-0.010
-264.253	800.000	0.034	0.095
-263.238	85.804	-0.153	0.165
-262.224	-26.434	0.257	0.148
-261.209	65.374	-0.168	-0.167
-260.195	125.024	0.125	0.154
-259.180	264.379	-0.199	0.339
-258.165	482.399	0.054	-0.119
-257.151	-72.412	-0.211	0.077
-256.136	-64.003	0.375	0.150
-255.122	-200.000	0.005	-0.113
-254.107	800.000	-0.034	-0.095
-253.092	-80.980	-0.284	0.092
-252.078	-13.758	0.383	-0.243
-251.063	77.824	0.180	-0.188
-250.049	-136.937	-0.096	0.011
-249.034	800.000	-0.123	-0.408
-248.019	-84.757	0.382	-0.118
-247.005	119.666	0.179	0.218
-245.990	343.039	-0.135	0.260
-244.976	-152.940	-0.131	0.009
-243.961	116.205	0.299	0.359
-242.946	-170.123	0.379	0.013
-241.932	29.972	0.055	0.046
-240.917	-119.026	0.217	0.037
-239.903	-0.374	0.186	-0.130
-238.888	-106.553	0.172	0.038
-237.873	-200.000	0.025	-0.132
-236.859	800.000	-0.014	0.048
-235.844	-83.117	0.263	0.083
-234.830	128.971	0.140	0.176
-233.815	-79.415	0.027	0.009
-232.800	216.823	0.114	-0.178
-231.786	45.443	-0.208	-0.188
-230.771	800.000	-0.065	0.183
-229.757	-13.947	-0.077	-0.049
-228.742	108.724	0.052	0.061
-227.727	-57.839	0.135	-0.058
-226.713	-151.658	0.086	-0.006
-225.698	282.639	-0.131	0.230
-224.684	642.204	-0.165	-0.412
-223.669	680.178	0.049	-0.125
-222.655	-0.008	-0.191	-0.133
-221.640	401.199	-0.100	-0.206
-220.625	131.306	-0.111	-0.140
-219.611	-200.000	-0.045	0.402
-218.596	-81.326	0.060	-0.019
-217.582	4.983	0.040	-0.029
-216.567	-125.242	0.156	-0.023
-215.552	321.851	-0.066	-0.123
-214.538	-161.104	-0.081	-0.004
-213.523	-65.251	-0.342	0.135
-212.509	9.863	0.308	-0.229
-211.494	800.000	-0.075	-0.258
-210.479	134.817	-0.153	0.195
-209.465	-68.472	-0.158	0.060
-208.450	721.388	-0.071	0.185
-207.436	-10.094	0.115	-0.075
-206.421	-200.000	0.029	-0.172
-205.406	776.326	-0.057	-0.154
-204.392	-18.891	0.358	0.218
-203.377	-200.000	0.255	0.001
-202.363	-200.000	-0.026	-0.270
-201.348	227.892	-0.087	0.138
-200.333	232.091	0.285	0.458
-199.319	45.578	0.280	-0.253
-198.304	800.000	-0.037	-0.135
-197.290	-14.117	-0.119	-0.075
-196.275	143.233	-0.101	-0.131
-195.260	-28.263	0.189	-0.107
-194.246	25.443	-0.382	-0.311
-193.231	-150.935	-0.211	-0.016
-192.217	100.920	-0.159	0.181
-191.202	7.433	0.074	-0.054
-190.187	-200.000	0.362	0.000
-189.173	-121.478	-0.231	0.038
-188.158	209.726	0.096	0.148
-187.144	-163.208	0.117	0.005
-186.129	484.245	0.116	0.259
-185.114	70.653	-0.478	-0.484
-184.100	-102.671	-0.263	0.061
-183.085	-80.366	0.196	-0.064
-182.071	-56.115	0.240	0.105
-181.056	91.038	0.329	0.362
-180.042	293.401	0.126	0.225
-179.027	-119.953	-0.072	-0.012
-178.012	-40.268	-0.399	-0.203
-176.998	654.554	-0.008	0.020
-175.983	128.031	0.113	-0.140
-174.969	-18.551	-0.187	-0.114
-173.954	-16.928	-0.406	-0.251
-172.939	-200.000	-0.016	0.234
-171.925	-6.479	-0.226	-0.151
-170.910	-88.457	-0.287	-0.084
-169.896	-186.659	-0.172	-0.002
-168.881	-200.000	0.049	0.313
-167.866	5.269	-0.240	0.173
-166.852	313.564	-0.185	-0.341
-165.837	-200.000	-0.047	-0.422
-164.823	-200.000	0.026	0.374
-163.808	300.347	0.177	0.320
-162.793	85.342	-0.255	0.273
-161.779	-200.000	0.036	0.328
-160.764	59.103	-0.046	0.044
-159.750	-200.000	0.011	0.210
-158.735	-42.805	0.218	0.109
-157.720	79.401	0.172	-0.181
-156.706	-60.980	-0.268	-0.111
-155.691	351.635	0.123	0.239
-154.677	35.500	-0.262	0.225
-153.662	31.357	-0.063	-0.053
-152.647	169.170	0.037	0.052
-151.633	-200.000	-0.028	0.127
-150.618	800.000	-0.087	-0.319
-149.604	800.000	0.061	-0.228
-148.589	-101.386	-0.197	-0.047
-147.574	-200.000	-0.016	-0.411
-146.560	165.011	-0.111	0.153
-145.545	332.334	-0.030	-0.057
-144.531	-9.838	0.194	0.127
-143.516	-65.520	-0.086	-0.034
-142.502	83.242	-0.170	-0.181
-141.487	-63.396	0.359	-0.144
-140.472	800.000	0.021	-0.057
-139.458	272.176	-0.102	0.175
-138.443	74.096	-0.189	-0.194
-137.429	-83.223	-0.312	0.098
-136.414	17.483	-0.018	-0.014
-135.399	34.299	-0.194	0.165
-134.385	78.658	0.304	0.317
-133.370	-200.000	0.011	-0.216
-132.356	-200.000	-0.096	0.614
-131.341	207.167	0.170	0.259
-130.326	80.117	0.209	0.220
-129.312	-111.941	0.093	-0.018
-128.297	379.795	0.080	0.160
-127.283	-156.072	-0.185	-0.011
-126.268	490.870	0.053	-0.119
-125.253	-22.887	-0.189	-0.111
-124.239	-93.420	0.195	0.053
-123.224	330.491	0.235	-0.443
-122.210	80.417	0.186	0.195
-121.195	316.643	0.038	-0.070
-120.180	-37.541	-0.128	-0.067
-119.166	-169.615	0.276	0.010
-118.151	527.539	0.056	-0.128
-117.137	-200.000	0.026	-0.162
-116.122	167.404	0.105	0.146
-115.107	663.786	0.027	-0.069
-114.093	538.424	0.116	-0.270
-113.078	-142.119	-0.165	0.016
-112.064	-148.092	0.158	-0.013
-111.049	58.004	0.069	-0.065
-110.034	-200.000	0.005	0.226
-109.020	-64.539	-0.157	0.062
-108.005	713.533	0.054	-0.140
-106.991	131.639	0.238	-0.299
-105.976	-161.599	-0.071	0.004
-104.962	-167.607	0.509	-0.020
-103.947	-200.000	0.007	0.136
-102.932	-71.293	0.386	0.141
-101.918	800.000	-0.068	0.239
-100.903	-0.829	-0.332	0.230
-99.889	-161.141	0.438	-0.022
-98.874	-25.082	0.161	0.093
-97.859	-147.562	-0.320	0.026
-96.845	794.884	0.075	-0.202
-95.830	-200.000	-0.044	-0.208
-94.816	119.154	0.314	0.379
-93.801	715.572	-0.192	0.496
-92.786	-128.023	-0.175	-0.025
-91.772	-18.624	-0.457	0.278
-90.757	70.363	0.142	-0.143
-89.743	-113.301	0.172	0.033
-88.728	-33.154	0.234	0.126
-87.713	-120.519	0.124	-0.021
-86.699	522.237	0.169	-0.387
-85.684	-108.823	-0.104	-0.022
-84.670	4.279	-0.190	-0.136
-83.655	-111.364	0.137	0.027
-82.640	-200.000	0.008	-0.090
-81.626	-141.874	0.176	0.017
-80.611	153.363	0.130	-0.174
-79.597	-200.000	0.010	-0.121
-78.582	-200.000	0.046	0.243
-77.567	497.507	0.138	0.310
-76.553	-68.453	0.201	-0.076
-75.538	-89.426	-0.399	0.114
-74.524	77.466	-0.045	0.047
-73.509	-32.713	-0.409	-0.222
-72.494	-134.727	-0.134	-0.016
-71.480	187.262	-0.125	-0.182
-70.465	-21.537	-0.214	-0.127
-69.451	131.391	0.142	-0.177
-68.436	196.280	0.069	-0.103
-67.422	-200.000	-0.029	-0.167
-66.407	31.363	0.483	-0.404
-65.392	56.110	0.142	0.134
-64.378	800.000	-0.047	-0.145
-63.363	103.565	-0.049	-0.056
-62.349	-200.000	-0.003	-0.288
-61.334	24.006	-1.436	-1.154
-60.319	173.739	0.409	0.575
-59.305	270.697	-0.764	-1.310
-58.290	193.127	1.040	1.532
-57.276	381.459	0.615	1.230
-56.261	-200.000	134.419	686.215
-55.246	341.776	1676.456	3192.550
-54.232	133.875	2804.850	3536.968
-53.217	89.370	2170.059	2355.997
-52.203	32.579	1599.628	1346.729
-51.188	24.568	1347.293	1085.774
-50.173	22.428	1310.242	1043.204
-49.159	50.532	1383.249	1274.109
-48.144	46.689	1393.090	1259.703
-47.130	24.816	1340.220	1081.398
-46.115	21.587	1321.099	1046.655
-45.100	21.308	1316.011	1040.923
-44.086	21.200	1313.561	1038.301
-43.071	21.245	1310.787	1036.336
-42.057	21.188	1308.981	1034.530
-41.042	21.319	1306.847	1033.575
-40.027	21.310	1305.682	1032.558
-39.013	21.238	1304.009	1030.772
-37.998	21.324	1302.312	1029.894
-36.984	21.415	1300.456	1028.921
-35.969	21.384	1298.928	1027.492
-34.954	21.282	1297.485	1025.711
-33.940	21.346	1296.322	1025.127
-32.925	21.449	1294.547	1024.286
-31.911	21.440	1293.021	1022.982
-30.896	21.537	1291.440	1022.260
-29.881	21.502	1290.420	1021.208
-28.867	21.457	1288.884	1019.689
-27.852	21.542	1287.142	1018.763
-26.838	21.484	1285.920	1017.420
-25.823	21.505	1284.551	1016.416
-24.809	21.415	1283.946	1015.376
-23.794	21.361	1282.647	1013.994
-22.779	21.397	1281.242	1013.054
-21.765	21.381	1279.806	1011.785
-20.750	21.529	1278.053	1011.216
-19.736	21.371	1276.985	1009.414
-18.721	21.370	1275.794	1008.430
-17.706	21.390	1274.758	1007.686
-16.692	21.352	1273.876	1006.729
-15.677	21.230	1272.892	1005.211
-14.663	21.329	1271.744	1004.834
-13.648	21.324	1270.444	1003.737
-12.633	21.364	1269.652	1003.301
-11.619	21.275	1269.063	1002.286
-10.604	21.425	1267.686	1002.018
-9.590	21.226	1267.563	1000.739
-8.575	21.335	1266.002	1000.089
-7.560	21.385	1265.042	999.580
-6.546	21.316	1264.402	998.641
-5.531	21.293	1263.619	997.850
-4.517	21.302	1262.504	996.980
-3.502	21.317	1261.840	996.503
-2.487	21.418	1261.049	996.416
-1.473	21.270	1256.422	991.881
-0.458	19.436	1241.852	970.034
0.556	15.155	1226.355	933.967
1.571	11.594	1234.858	920.336
2.586	11.029	1250.606	928.770
3.600	11.047	1238.457	919.763
4.615	8.341	1166.598	851.903
5.629	3.188	1097.081	775.160
6.644	0.870	1080.700	752.011
7.659	0.608	1078.949	749.427
8.673	0.678	1078.330	749.277
9.688	0.553	1077.410	747.953
10.702	0.814	1074.772	747.341
11.717	3.942	1077.816	764.873
12.731	10.401	1086.524	803.085
13.746	15.634	1093.171	833.957
14.761	17.199	1095.302	843.286
15.775	16.459	1093.414	838.091
16.790	15.519	1091.558	831.937
17.804	14.978	1089.625	827.716
18.819	14.623	1088.571	825.087
19.834	14.192	1088.072	822.503
20.848	14.078	1087.328	821.304
21.863	13.865	1086.071	819.231
22.877	13.643	1085.417	817.572
23.892	13.592	1084.531	816.581
24.907	13.662	1083.741	816.260
25.921	13.741	1083.019	816.032
26.936	13.721	1082.130	815.193
27.950	13.777	1081.531	814.942
28.965	13.803	1080.111	813.926
29.980	13.859	1078.659	813.034
30.994	13.840	1077.616	812.084
32.009	13.877	1076.674	811.484
33.023	13.916	1075.613	810.806
34.038	13.895	1074.650	809.902
35.053	13.770	1074.189	808.873
36.067	13.824	1073.160	808.292
37.082	13.771	1072.709	807.621
38.096	13.839	1071.270	806.800
39.111	13.853	1070.695	806.360
40.126	13.757	1070.148	805.413
41.140	13.780	1068.264	804.035
42.155	13.686	1067.288	802.775
43.169	13.615	1066.332	801.642
44.184	13.665	1065.690	801.326
45.199	13.717	1064.253	800.427
46.213	13.650	1063.706	799.620
47.228	13.807	1062.076	799.084
48.242	13.706	1060.906	797.645
49.257	13.751	1059.992	797.106
50.271	13.745	1059.141	796.363
51.286	13.791	1058.540	796.066
52.301	13.833	1057.717	795.576
53.315	13.808	1056.177	794.229
54.330	13.630	1055.676	792.929
55.344	13.805	1054.246	792.621
56.359	13.742	1053.862	791.959
57.374	13.727	1052.702	790.949
58.388	13.707	1051.881	790.164
59.403	13.630	1050.746	788.875
60.417	13.676	1050.216	788.628
61.432	13.688	1049.280	787.910
62.447	13.641	1048.259	786.854
63.461	13.541	1047.425	785.681
64.476	13.581	1046.891	785.404
65.490	13.538	1046.011	784.467
66.505	13.699	1044.913	784.336
67.520	13.732	1044.418	784.052
68.534	13.681	1043.521	783.071
69.549	13.669	1042.914	782.486
70.563	13.656	1041.942	781.628
71.578	13.731	1040.720	780.993
72.593	13.559	1040.373	779.855
73.607	13.481	1040.097	779.214
74.622	13.607	1039.611	779.374
75.636	13.567	1038.698	778.433
76.651	13.515	1037.931	777.543
77.666	13.550	1037.474	777.294
78.680	13.624	1036.786	777.061
79.695	13.474	1036.180	775.834
80.709	13.722	1035.371	776.318
81.724	13.711	1034.815	775.781
82.739	13.719	1033.934	775.092
83.753	13.737	1033.276	774.614
84.768	13.817	1032.388	774.254
85.782	13.815	1031.139	773.240
86.797	13.731	1030.320	772.163
87.812	13.722	1029.580	771.498
88.826	13.705	1027.941	770.124
89.841	13.784	1027.520	770.109
90.855	13.740	1026.915	769.383
91.870	13.870	1025.650	768.967
92.884	13.892	1025.077	768.574
93.899	13.983	1023.677	767.873
94.914	13.831	1023.207	766.752
95.928	13.923	1022.285	766.419
96.943	13.924	1021.376	765.672
97.957	13.893	1020.553	764.846
98.972	13.849	1019.888	764.076
99.987	13.851	1018.910	763.286
101.001	13.952	1017.877	762.911
102.016	13.827	1017.463	761.956
103.030	13.842	1016.942	761.569
104.045	13.907	1015.433	760.667
105.060	13.863	1014.694	759.847
106.074	13.842	1013.912	759.100
107.089	13.773	1013.240	758.215
108.103	13.783	1012.195	757.411
109.118	13.844	1010.910	756.660
110.133	13.775	1010.471	755.949
111.147	13.707	1009.601	754.919
112.162	13.789	1008.826	754.647
113.176	13.861	1007.626	754.011
114.191	13.798	1007.509	753.572
115.206	13.810	1006.477	752.785
116.220	13.734	1006.029	752.037
117.235	13.873	1004.089	751.154
118.249	13.813	1003.722	750.542
119.264	13.871	1003.186	750.335
120.279	13.833	1001.824	749.078
121.293	13.782	1001.103	748.242
122.308	13.805	1000.105	747.532
123.322	13.675	999.422	746.372
124.337	13.807	997.666	745.590
125.352	13.693	996.887	744.427
126.366	13.774	996.072	744.117
127.381	13.724	994.894	742.947
128.395	13.814	993.962	742.589
129.410	13.761	992.976	741.548
130.424	13.844	992.501	741.498
131.439	13.749	991.484	740.248
132.454	13.851	990.864	740.178
133.468	13.839	990.127	739.507
134.483	13.824	989.195	738.678
135.497	13.883	987.828	737.854
136.512	13.783	987.439	737.056
137.527	13.883	986.762	736.929
138.541	13.733	985.827	735.500
139.556	13.865	985.157	735.520
140.570	13.886	984.848	735.316
141.585	13.941	983.535	734.514
142.600	14.021	982.438	733.985
143.614	13.979	981.667	733.158
144.629	13.949	980.949	732.425
145.643	14.140	979.793	732.336
146.658	13.932	979.040	730.795
147.673	14.026	977.869	730.268
148.687	13.990	977.630	729.869
149.702	13.949	976.646	728.888
150.716	13.909	975.754	727.981
151.731	14.030	974.682	727.649
152.746	14.039	974.315	727.351
153.760	14.095	973.384	726.836
154.775	13.937	973.372	726.069
155.789	13.983	972.451	725.521
156.804	14.124	971.265	725.189
157.819	14.112	970.966	724.847
158.833	14.101	970.678	724.519
159.848	14.171	969.384	723.795
160.862	14.258	968.353	723.339
161.877	14.122	967.584	722.109
162.892	14.043	966.756	721.085
163.906	14.016	965.909	720.271
164.921	14.167	965.260	720.380
165.935	14.144	964.087	719.340
166.950	14.034	963.151	718.105
167.964	14.042	962.258	717.410
168.979	14.120	961.522	717.132
169.994	14.192	960.347	716.503
171.008	14.200	959.774	716.048
172.023	14.267	958.876	715.599
173.037	14.329	958.266	715.348
174.052	14.230	957.514	714.298
175.067	14.099	957.266	713.490
176.081	14.256	956.330	713.401
177.096	14.249	955.671	712.817
178.110	14.148	955.558	712.236
179.125	14.131	955.060	711.730
180.140	14.325	954.050	711.742
181.154	14.228	953.368	710.758
182.169	14.294	953.198	710.851
183.183	14.382	952.428	710.586
184.198	14.496	951.808	710.548
185.213	14.354	950.973	709.257
186.227	14.275	950.405	708.435
187.242	14.372	949.654	708.226
188.256	14.517	948.996	708.286
189.271	14.526	948.039	707.547
190.286	14.402	947.669	706.682
191.300	14.398	946.714	705.892
192.315	14.294	946.196	705.001
193.329	14.200	945.804	704.253
194.344	14.232	945.100	703.800
195.359	14.367	944.478	703.844
196.373	14.396	944.040	703.577
197.388	14.457	943.407	703.301
198.402	14.548	942.574	703.004
199.417	14.607	941.996	702.758
200.432	14.552	941.539	702.121
201.446	14.777	940.912	702.538
202.461	14.714	940.470	701.882
203.475	14.788	939.664	701.530
204.490	14.579	939.270	700.296
205.504	14.674	938.274	699.890
206.519	14.655	937.479	699.156
207.534	14.633	937.032	698.668
208.548	14.755	936.300	698.570
209.563	14.706	935.884	697.993
210.577	14.753	934.820	697.334
211.592	14.771	933.937	696.688
212.607	14.904	933.281	696.693
213.621	14.740	932.907	695.669
214.636	14.850	932.034	695.411
215.650	14.902	930.890	694.715
216.665	14.713	930.560	693.620
217.680	14.864	929.684	693.534
218.694	15.049	928.930	693.675
219.709	14.865	928.569	692.582
220.723	14.934	928.010	692.392
221.738	14.827	927.372	691.411
222.753	14.781	926.778	690.716
223.767	14.793	926.204	690.278
224.782	14.899	925.338	690.010
225.796	15.131	924.255	690.098
226.811	15.049	923.984	689.494
227.826	15.003	922.909	688.444
228.840	15.046	922.308	688.112
229.855	14.925	921.774	687.156
230.869	14.952	920.604	686.329
231.884	14.983	920.058	685.992
232.899	14.957	919.504	685.410
233.913	15.042	918.717	685.111
234.928	14.918	918.127	684.103
235.942	14.974	917.893	684.096
236.957	14.927	917.355	683.446
237.972	14.992	916.296	682.859
238.986	14.995	915.837	682.467
240.001	15.074	915.219	682.271
241.015	15.046	914.350	681.450
242.030	15.178	913.800	681.513
243.045	15.182	913.039	680.902
244.059	15.198	912.529	680.527
245.074	15.127	912.161	679.905
246.088	15.229	911.003	679.393
247.103	15.221	910.211	678.713
248.117	15.059	910.466	678.188
249.132	15.230	909.490	678.092
250.147	15.411	908.703	678.177
251.161	15.380	908.036	677.494
252.176	15.545	907.263	677.521
253.190	15.504	906.520	676.741
254.205	15.400	905.801	675.727
255.220	15.552	905.185	675.817
256.234	15.437	904.895	675.078
257.249	15.475	903.974	674.486
258.263	15.523	903.172	674.018
259.278	15.662	902.483	674.005
260.293	15.661	901.858	673.472
261.307	15.706	901.487	673.316
262.322	15.671	900.943	672.712
263.336	15.698	900.279	672.263
264.351	15.626	899.552	671.374
265.366	15.794	898.544	671.231
266.380	15.640	898.083	670.215
267.395	15.753	897.418	670.109
268.409	15.909	896.106	669.689
269.424	15.744	895.688	668.665
270.439	15.780	894.984	668.220
271.453	15.796	894.353	667.755
272.468	15.664	893.932	666.856
273.482	15.739	893.407	666.702
274.497	15.903	892.491	666.612
275.512	15.829	891.869	665.795
276.526	15.951	891.619	666.032
277.541	15.830	890.930	664.982
278.555	15.777	890.640	664.496
279.570	15.912	889.652	664.232
280.585	16.059	888.564	663.940
281.599	16.006	888.229	663.422
282.614	15.863	887.725	662.424
283.628	16.069	886.611	662.342
284.643	16.115	886.338	662.261
285.657	15.834	886.137	660.951
286.672	15.926	885.230	660.574
287.687	15.993	884.524	660.253
288.701	15.951	883.785	659.480
289.716	16.034	883.315	659.394
290.730	16.069	882.831	659.113
291.745	16.159	881.777	658.616
292.760	16.039	881.428	657.828
293.774	16.188	880.645	657.768
294.789	16.038	880.292	656.861
295.803	16.032	879.654	656.305
296.818	16.330	878.471	656.524
297.833	16.180	878.237	655.706
298.847	16.207	877.382	655.114
299.862	16.251	876.904	654.869
300.876	16.096	876.581	653.969
301.891	16.276	875.865	654.076
302.906	16.297	875.474	653.807
303.920	16.364	874.738	653.459
304.935	16.444	874.192	653.303
305.949	16.230	873.732	652.075
306.964	16.291	873.101	651.780
307.979	16.343	872.432	651.425
308.993	16.502	871.934	651.606
310.008	16.477	870.826	650.627
311.022	16.437	870.588	650.235
312.037	16.459	869.851	649.714
313.052	16.275	869.815	648.921
314.066	16.446	868.868	648.815
315.081	16.366	868.099	647.877
316.095	16.397	867.498	647.489
317.110	16.432	867.122	647.286
318.125	16.326	866.952	646.694
319.139	16.481	865.990	646.512
320.154	16.431	865.749	646.083
321.168	16.550	864.863	645.819
322.183	16.600	864.261	645.506
323.197	16.526	863.791	644.815
324.212	16.609	863.147	644.595
325.227	16.487	863.107	644.039
326.241	16.528	862.404	643.616
327.256	16.398	862.146	642.871
328.270	16.593	860.965	642.677
329.285	16.477	860.512	641.841
330.300	16.505	859.727	641.301
331.314	16.576	859.243	641.156
332.329	16.609	859.164	641.164
333.343	16.653	858.448	640.738
334.358	16.773	857.687	640.568
335.373	16.712	857.439	640.097
336.387	16.687	857.125	639.711
337.402	16.704	856.972	639.604
338.416	16.710	856.644	639.326
339.431	16.862	856.221	639.525
340.446	16.764	855.760	638.755
341.460	16.908	855.048	638.712
342.475	16.825	854.970	638.282
343.489	16.853	854.267	637.806
344.504	17.085	853.709	638.206
345.519	16.870	853.481	637.173
346.533	16.965	852.770	636.941
347.548	16.896	852.072	636.106
348.562	16.993	851.502	635.985
349.577	16.865	851.239	635.253
350.592	17.011	850.349	635.080
351.606	16.959	849.755	634.386
352.621	17.093	849.266	634.467
353.635	16.975	848.487	633.385
354.650	16.944	848.051	632.891
355.665	17.067	847.316	632.745
356.679	17.095	846.687	632.321
357.694	17.077	846.207	631.840
358.708	17.105	845.351	631.251
359.723	17.045	844.962	630.681
360.738	17.191	844.429	630.771
361.752	17.159	843.447	629.861
362.767	17.082	843.236	629.364
363.781	17.246	842.532	629.389
364.796	17.077	842.069	628.363
365.810	17.147	842.216	628.676
366.825	17.385	841.443	628.922
367.840	17.374	840.941	628.451
368.854	17.212	840.688	627.609
369.869	17.280	840.315	627.525
370.883	17.300	839.749	627.122
371.898	17.315	839.580	626.993
372.913	17.319	839.225	626.688
373.927	17.402	838.109	626.106
374.942	17.378	837.671	625.633
375.956	17.397	837.501	625.522
376.971	17.475	837.105	625.459
377.986	17.329	836.562	624.461
379.000	17.629	835.772	624.916
380.015	17.554	835.519	624.394
381.029	17.624	834.783	624.045
382.044	17.581	834.361	623.520
383.059	17.618	833.693	623.101
384.073	17.636	833.167	622.718
385.088	17.566	832.543	621.942
386.102	17.657	831.914	621.748
387.117	17.633	831.439	621.249
388.132	17.565	830.572	620.297
389.146	17.622	829.877	619.934
390.161	17.658	829.863	620.000
391.175	17.713	829.520	619.886
392.190	17.696	828.795	619.231
393.205	17.665	828.605	618.920
394.219	17.593	828.426	618.469
395.234	17.552	827.866	617.847
396.248	17.770	826.942	617.893
397.263	17.632	826.895	617.306
398.278	17.656	826.639	617.146
399.292	17.708	825.642	616.535
400.307	17.566	825.503	615.862
401.321	17.688	824.705	615.653
402.336	17.828	824.378	615.860
403.350	17.581	824.117	614.719
404.365	17.826	823.568	615.138
405.380	17.901	822.785	614.768
406.394	17.865	822.435	614.326
407.409	17.827	822.148	613.919
408.423	17.915	821.906	614.000
409.438	17.937	821.396	613.645
410.453	18.070	820.647	613.508
411.467	17.899	820.507	612.736
412.482	18.026	820.042	612.791
413.496	18.086	819.716	612.706
414.511	18.033	819.288	612.141
415.526	18.144	818.619	611.985
416.540	18.034	818.607	611.529
417.555	18.258	817.659	611.567
418.569	18.126	817.431	610.869
419.584	18.201	817.319	610.999
420.599	18.061	816.816	610.071
421.613	115.653	1301.391	1490.660
422.628	100.243	1371.955	1490.720
