DTS Sentinel unit serial number:	SN413079Multiplexer serial number:	ORYXHardware model number:	OX4-SRSoftware version number:	ORYX F/W v4.00 Oryx Data Collector v3.7.2.0data status	okinstallation	princeton_trtdifferential loss correction	single-endedforward channel	channel 1reverse channel	N/Adate	2019/09/16time	15:22:35forward acquisition time	60.00reverse acquisition time	0.00gamma	496.2192k internal	0.2292k external	0.2292temperature offset calibration	0.9951default loss term (dB/km)	0.3790temperature slope calibration	1.0000multiplexer offset coefficient	1.0000multiplexer slope coefficient	1.0000fibre end	0.00T internal ref (°C)	41.06T ext. ref 1 (°C)	14.62T ext. ref 2 (°C)	37.47length (m)	temperature (°C)	Stokes	anti-Stokes-747.200	30.676	-0.025	-0.022
-746.185	800.000	-0.022	0.089
-745.171	279.402	-0.055	0.101
-744.156	14.729	0.140	-0.112
-743.142	61.721	-0.259	-0.264
-742.127	-200.000	-0.006	0.392
-741.112	42.091	0.153	-0.142
-740.098	238.286	0.152	0.258
-739.083	-30.632	0.253	-0.146
-738.069	7.830	-0.049	0.038
-737.054	22.813	-0.136	-0.114
-736.039	-200.000	0.005	-0.086
-735.025	-168.876	0.100	-0.004
-734.010	-200.000	-0.014	-0.217
-732.996	-200.000	0.021	-0.414
-731.981	-33.201	-0.121	-0.069
-730.966	337.544	0.181	-0.360
-729.952	-200.000	0.010	-0.273
-728.937	-49.625	0.147	0.071
-727.923	116.116	-0.101	-0.127
-726.908	-2.816	-0.163	-0.117
-725.894	49.328	-0.017	-0.017
-724.879	-196.478	-0.170	-0.001
-723.864	201.673	0.148	-0.233
-722.850	-116.386	0.156	-0.030
-721.835	143.313	0.228	-0.311
-720.821	-134.471	0.014	0.002
-719.806	-142.392	-0.254	0.026
-718.791	-114.815	0.051	-0.010
-717.777	-112.942	-0.203	-0.041
-716.762	740.554	0.065	0.179
-715.748	-80.883	-0.084	-0.028
-714.733	-200.000	-0.082	-0.409
-713.718	583.116	0.182	-0.457
-712.704	-67.164	0.228	0.092
-711.689	297.940	0.104	-0.196
-710.675	46.202	0.258	-0.244
-709.660	800.000	0.098	0.289
-708.645	-18.205	0.177	0.113
-707.631	800.000	-0.025	-0.097
-706.616	800.000	-0.012	0.040
-705.602	-85.101	-0.535	0.171
-704.587	-9.327	0.239	-0.163
-703.572	-91.456	0.320	0.093
-702.558	91.872	0.105	0.120
-701.543	800.000	-0.014	-0.062
-700.529	27.243	-0.308	-0.265
-699.514	392.131	0.167	-0.354
-698.499	-200.000	0.005	0.185
-697.485	-5.167	-0.215	-0.151
-696.470	-110.265	-0.171	0.036
-695.456	800.000	-0.015	-0.056
-694.441	-29.795	-0.232	-0.135
-693.426	-200.000	0.050	-0.302
-692.412	-97.508	0.383	0.102
-691.397	-200.000	-0.042	-0.231
-690.383	-36.273	0.482	-0.266
-689.368	-200.000	0.032	-0.150
-688.354	-77.889	-0.071	0.025
-687.339	237.800	0.168	-0.285
-686.324	-32.809	0.265	-0.150
-685.310	-24.203	0.314	0.192
-684.295	-170.429	0.062	0.002
-683.281	800.000	0.057	-0.250
-682.266	238.078	-0.074	-0.125
-681.251	254.299	-0.191	-0.333
-680.237	-200.000	0.004	0.216
-679.222	403.870	-0.054	-0.116
-678.208	-109.483	0.043	-0.009
-677.193	-200.000	0.025	-0.304
-676.178	-126.421	-0.365	0.055
-675.164	77.430	0.178	0.194
-674.149	-29.799	-0.415	0.242
-673.135	-8.108	0.260	-0.179
-672.120	7.291	-0.047	-0.036
-671.105	-79.717	0.206	-0.071
-670.091	155.669	0.193	0.272
-669.076	-1.707	0.202	-0.145
-668.062	2.066	-0.095	-0.070
-667.047	75.967	0.145	-0.157
-666.032	546.722	-0.039	-0.095
-665.018	521.910	-0.090	0.216
-664.003	800.000	0.043	-0.126
-662.989	800.000	-0.051	-0.167
-661.974	-200.000	0.009	-0.153
-660.959	-134.985	0.101	-0.012
-659.945	-24.763	0.378	-0.229
-658.930	-70.048	0.196	0.076
-657.916	-200.000	-0.004	0.177
-656.901	536.694	-0.026	0.063
-655.886	651.499	-0.045	-0.117
-654.872	-47.489	0.081	-0.040
-653.857	262.504	-0.086	-0.152
-652.843	64.364	0.085	-0.088
-651.828	599.742	-0.024	-0.061
-650.814	17.938	0.241	-0.196
-649.799	-58.802	-0.145	0.064
-648.784	183.268	-0.117	-0.176
-647.770	800.000	0.110	-0.425
-646.755	-63.343	-0.149	-0.063
-645.741	397.794	-0.185	-0.395
-644.726	-4.335	0.130	0.091
-643.711	-99.101	-0.265	-0.068
-642.697	-200.000	0.035	-0.297
-641.682	104.203	0.058	-0.069
-640.668	1.890	0.099	0.073
-639.653	-200.000	-0.034	-0.171
-638.638	356.773	-0.115	-0.234
-637.624	-200.000	-0.025	-0.233
-636.609	521.749	0.032	0.077
-635.595	-94.927	-0.160	0.044
-634.580	247.824	0.074	0.127
-633.565	-200.000	0.010	-0.109
-632.551	631.837	-0.109	-0.281
-631.536	800.000	0.055	0.201
-630.522	173.054	0.278	-0.408
-629.507	40.280	0.153	0.141
-628.492	-69.109	-0.195	-0.077
-627.478	-51.492	0.127	0.060
-626.463	-60.847	-0.264	0.114
-625.449	-45.221	0.313	-0.159
-624.434	115.823	0.065	0.081
-623.419	36.572	0.243	-0.219
-622.405	157.727	0.083	-0.117
-621.390	673.208	0.092	-0.243
-620.376	-200.000	0.025	-0.300
-619.361	257.980	-0.053	0.093
-618.346	-160.065	0.183	0.010
-617.332	-29.081	0.252	-0.147
-616.317	744.466	0.083	0.228
-615.303	800.000	-0.060	-0.267
-614.288	-79.686	0.344	-0.118
-613.273	-187.199	0.160	-0.002
-612.259	-109.662	-0.197	0.042
-611.244	-200.000	-0.007	-0.050
-610.230	-76.739	0.104	-0.037
-609.215	800.000	-0.122	-0.395
-608.201	247.979	0.110	-0.190
-607.186	-151.124	-0.291	0.022
-606.171	-200.000	-0.059	0.355
-605.157	64.002	0.168	0.172
-604.142	-38.591	-0.219	0.118
-603.128	33.643	-0.217	0.192
-602.113	163.923	0.057	-0.082
-601.098	-200.000	0.070	0.367
-600.084	15.950	-0.298	-0.238
-599.069	-200.000	-0.034	0.218
-598.055	-41.193	-0.112	0.059
-597.040	-71.855	0.060	-0.023
-596.025	-200.000	0.207	0.000
-595.011	-19.421	0.091	0.058
-593.996	-28.505	-0.124	0.073
-592.982	-21.918	0.205	-0.127
-591.967	15.160	0.101	0.081
-590.952	268.216	-0.125	-0.222
-589.938	-200.000	-0.054	0.305
-588.923	28.597	-0.265	0.228
-587.909	-200.000	-0.034	-0.190
-586.894	426.121	0.074	-0.163
-585.879	800.000	0.054	-0.170
-584.865	-74.846	-0.243	0.089
-583.850	191.489	-0.042	-0.065
-582.836	672.047	-0.103	-0.271
-581.821	155.757	0.052	0.073
-580.806	-200.000	0.002	-0.185
-579.792	330.742	0.024	0.046
-578.777	-20.733	-0.204	0.127
-577.763	-200.000	0.014	0.073
-576.748	50.521	0.136	0.131
-575.733	-52.043	-0.153	0.072
-574.719	-200.000	-0.056	-0.366
-573.704	80.091	0.176	-0.192
-572.690	-20.527	-0.332	0.208
-571.675	-127.456	0.531	0.079
-570.661	-200.000	0.028	-0.204
-569.646	-142.526	-0.148	0.015
-568.631	800.000	0.037	0.123
-567.617	-86.012	0.085	0.027
-566.602	800.000	0.082	0.237
-565.588	389.603	0.102	0.216
-564.573	57.813	-0.202	0.201
-563.558	-131.003	0.111	-0.015
-562.544	112.713	-0.207	0.254
-561.529	-36.469	-0.094	0.051
-560.515	56.677	-0.146	-0.145
-559.500	86.845	-0.188	-0.211
-558.485	-163.996	0.336	0.016
-557.471	-200.000	-0.033	-0.333
-556.456	-192.149	-0.412	0.004
-555.442	-52.065	-0.301	0.142
-554.427	-99.291	0.280	-0.072
-553.412	-200.000	-0.038	0.247
-552.398	-13.565	0.228	-0.150
-551.383	129.158	-0.104	-0.135
-550.369	-140.210	0.046	0.005
-549.354	-200.000	-0.028	0.274
-548.339	-44.474	0.153	0.078
-547.325	-111.756	0.131	0.027
-546.310	800.000	-0.026	0.081
-545.296	28.630	-0.128	-0.110
-544.281	120.123	-0.094	0.119
-543.266	800.000	0.067	-0.214
-542.252	-112.743	0.135	0.027
-541.237	-188.743	-0.350	0.004
-540.223	336.299	-0.186	0.366
-539.208	29.726	-0.071	0.061
-538.193	-47.058	-0.243	0.120
-537.179	-200.000	-0.002	-0.268
-536.164	-63.475	-0.185	0.077
-535.150	-5.959	-0.064	-0.044
-534.135	-140.673	0.271	-0.028
-533.121	28.132	-0.203	-0.174
-532.106	-46.695	-0.225	0.112
-531.091	-86.955	-0.131	-0.041
-530.077	-158.575	0.134	-0.008
-529.062	-70.813	-0.213	0.081
-528.048	800.000	-0.116	-0.460
-527.033	800.000	-0.090	-0.289
-526.018	-83.274	-0.198	-0.065
-525.004	-200.000	0.024	0.354
-523.989	-85.757	0.072	0.023
-522.975	-78.510	0.166	0.058
-521.960	800.000	-0.064	-0.257
-520.945	800.000	-0.047	0.198
-519.931	-10.656	0.145	0.098
-518.916	193.517	-0.145	0.223
-517.902	-3.214	-0.155	-0.110
-516.887	-9.546	0.155	0.105
-515.872	-38.660	0.079	0.042
-514.858	800.000	-0.093	-0.308
-513.843	-73.873	-0.105	0.039
-512.829	-157.787	-0.501	0.030
-511.814	672.760	0.047	0.123
-510.799	54.190	0.279	-0.272
-509.785	257.877	-0.076	0.133
-508.770	-133.385	0.250	0.032
-507.756	-108.161	-0.457	0.100
-506.741	800.000	0.089	0.295
-505.726	-200.000	0.018	-0.163
-504.712	15.224	0.057	-0.045
-503.697	-200.000	-0.002	-0.086
-502.683	-64.709	-0.252	0.104
-501.668	-90.281	-0.100	0.030
-500.653	-48.013	-0.089	-0.044
-499.639	384.721	-0.075	-0.158
-498.624	244.991	0.066	0.112
-497.610	-28.840	-0.134	0.078
-496.595	-161.443	-0.044	-0.002
-495.581	200.363	0.078	-0.121
-494.566	-41.605	-0.093	-0.048
-493.551	-153.984	0.144	0.010
-492.537	-36.420	0.285	-0.156
-491.522	15.546	0.228	-0.181
-490.508	-86.652	0.338	-0.105
-489.493	-200.000	0.003	-0.178
-488.478	298.193	0.195	-0.363
-487.464	-200.000	-0.054	-0.356
-486.449	151.450	-0.213	-0.293
-485.435	-124.037	0.237	0.038
-484.420	-200.000	0.015	0.090
-483.405	713.060	-0.105	-0.281
-482.391	773.129	0.027	-0.075
-481.376	259.226	-0.052	0.091
-480.362	118.732	0.148	0.185
-479.347	-81.188	0.525	0.176
-478.332	-154.115	-0.096	0.007
-477.318	800.000	-0.081	-0.248
-476.303	-129.569	0.252	-0.035
-475.289	701.526	0.122	0.325
-474.274	-130.723	-0.201	0.027
-473.259	-157.479	-0.234	-0.014
-472.245	-74.793	-0.339	0.123
-471.230	259.485	-0.127	-0.222
-470.216	-75.654	-0.319	-0.115
-469.201	245.982	-0.124	-0.211
-468.186	-123.427	-0.435	-0.070
-467.172	-108.671	-0.199	0.043
-466.157	3.238	-0.294	0.217
-465.143	110.099	-0.197	0.240
-464.128	27.990	0.303	-0.258
-463.113	41.358	-0.346	0.317
-462.099	800.000	-0.102	0.361
-461.084	171.571	-0.131	-0.190
-460.070	-200.000	0.005	-0.035
-459.055	-200.000	-0.029	0.320
-458.040	-200.000	-0.053	-0.255
-457.026	-52.965	0.061	0.028
-456.011	188.410	-0.065	0.098
-454.997	72.674	-0.282	0.297
-453.982	245.269	0.056	0.095
-452.968	-70.783	0.076	-0.029
-451.953	64.429	0.043	-0.044
-450.938	329.508	0.043	-0.083
-449.924	-24.112	0.334	-0.202
-448.909	43.229	-0.142	-0.131
-447.895	-99.688	-0.155	-0.039
-446.880	-78.462	0.089	0.031
-445.865	-153.999	0.164	0.011
-444.851	670.685	0.099	0.260
-443.836	800.000	0.102	-0.408
-442.822	-72.134	0.130	-0.049
-441.807	143.109	0.013	0.018
-440.792	348.183	0.062	-0.123
-439.778	33.420	-0.090	0.079
-438.763	-137.283	-0.164	-0.019
-437.749	33.154	0.207	0.181
-436.734	-73.636	-0.406	0.150
-435.719	-77.718	-0.303	-0.106
-434.705	-200.000	0.021	0.199
-433.690	87.204	-0.116	-0.130
-432.676	-16.691	0.117	-0.075
-431.661	-53.327	-0.445	-0.206
-430.646	189.784	-0.124	0.188
-429.632	-106.666	0.252	0.057
-428.617	-127.450	0.154	0.023
-427.603	800.000	0.084	0.349
-426.588	545.724	0.081	0.195
-425.573	800.000	0.089	-0.286
-424.559	217.239	0.231	0.373
-423.544	576.990	0.058	0.143
-422.530	-200.000	0.032	-0.147
-421.515	800.000	-0.049	-0.174
-420.500	557.672	0.082	0.201
-419.486	52.649	-0.115	0.111
-418.471	343.777	-0.105	0.208
-417.457	-200.000	-0.021	-0.118
-416.442	142.162	-0.089	-0.119
-415.428	281.920	0.146	-0.265
-414.413	4.565	0.059	0.044
-413.398	-35.230	-0.119	-0.065
-412.384	-94.544	-0.256	0.070
-411.369	-197.872	0.375	0.002
-410.355	-200.000	0.001	-0.239
-409.340	652.509	0.129	0.334
-408.325	52.432	0.154	0.148
-407.311	-89.008	0.197	0.059
-406.296	748.425	0.140	0.381
-405.282	211.454	-0.101	0.160
-404.267	800.000	-0.021	-0.070
-403.252	89.628	-0.101	0.114
-402.238	-200.000	0.010	0.186
-401.223	98.900	-0.103	0.120
-400.209	87.920	-0.131	0.146
-399.194	4.651	-0.182	-0.135
-398.179	-125.589	0.037	0.006
-397.165	800.000	-0.071	0.255
-396.150	-23.640	0.201	-0.122
-395.136	-29.146	-0.208	0.121
-394.121	-188.234	-0.185	-0.002
-393.106	109.299	0.083	0.101
-392.092	669.525	-0.051	0.132
-391.077	-200.000	-0.019	-0.219
-390.063	122.649	-0.185	0.233
-389.048	-160.828	0.210	-0.011
-388.033	-14.480	0.205	0.133
-387.019	-13.016	-0.210	-0.138
-386.004	73.190	0.026	0.028
-384.990	421.325	0.057	-0.123
-383.975	-59.317	0.217	0.094
-382.960	800.000	-0.138	0.429
-381.946	-100.620	0.224	0.056
-380.931	491.286	0.083	-0.191
-379.917	-200.000	-0.006	0.152
-378.902	-200.000	-0.152	0.000
-377.888	129.826	0.048	-0.062
-376.873	163.957	0.217	0.308
-375.858	-85.363	-0.370	0.116
-374.844	-51.432	0.108	-0.051
-373.829	90.502	0.134	0.151
-372.815	-24.438	-0.110	-0.066
-371.800	-62.576	0.266	-0.111
-370.785	-101.146	0.480	0.119
-369.771	-163.537	-0.351	-0.017
-368.756	-24.556	-0.261	0.157
-367.742	239.095	0.176	0.295
-366.727	-179.142	0.320	-0.007
-365.712	139.275	0.193	-0.256
-364.698	-35.671	-0.099	-0.054
-363.683	90.044	0.031	0.035
-362.669	668.763	0.073	-0.191
-361.654	-200.000	0.000	-0.041
-360.639	6.706	-0.073	0.055
-359.625	53.551	0.110	0.106
-358.610	-53.822	-0.198	0.091
-357.596	800.000	-0.021	-0.085
-356.581	19.864	0.067	-0.054
-355.566	29.418	0.155	-0.132
-354.552	-200.000	-0.065	0.505
-353.537	231.116	-0.100	0.164
-352.523	305.357	-0.190	0.356
-351.508	-29.773	-0.071	-0.041
-350.493	0.423	0.295	-0.212
-349.479	-200.000	-0.009	-0.174
-348.464	-6.482	0.047	-0.032
-347.450	50.117	-0.188	0.179
-346.435	179.512	0.113	-0.166
-345.420	399.155	-0.105	0.222
-344.406	-79.164	0.418	0.143
-343.391	800.000	0.080	-0.338
-342.377	194.455	-0.216	0.330
-341.362	434.565	0.133	0.290
-340.348	-200.000	-0.013	-0.240
-339.333	-200.000	0.038	-0.250
-338.318	477.172	0.119	0.271
-337.304	800.000	-0.039	0.108
-336.289	78.044	-0.169	-0.181
-335.275	-200.000	-0.010	-0.143
-334.260	-104.638	-0.143	-0.033
-333.245	-54.994	0.124	-0.056
-332.231	129.541	0.240	0.308
-331.216	-70.705	0.332	-0.126
-330.202	-200.000	0.138	-0.000
-329.187	99.155	0.421	-0.490
-328.172	-37.203	0.138	0.074
-327.158	-200.000	0.016	0.073
-326.143	-63.193	0.198	0.082
-325.129	-84.155	0.267	0.085
-324.114	-1.232	0.214	0.152
-323.099	96.513	-0.273	-0.314
-322.085	82.956	0.167	-0.183
-321.070	-200.000	0.028	0.192
-320.056	155.339	-0.156	0.216
-319.041	-99.630	0.190	-0.048
-318.026	-131.950	-0.197	0.026
-317.012	5.728	0.359	-0.267
-315.997	-200.000	0.008	-0.193
-314.983	129.879	-0.141	0.182
-313.968	-200.000	-0.001	0.281
-312.953	800.000	-0.067	0.232
-311.939	37.578	0.132	0.118
-310.924	485.640	0.020	0.046
-309.910	390.042	-0.102	-0.213
-308.895	-200.000	0.015	-0.215
-307.880	-42.176	-0.081	0.042
-306.866	-200.000	0.014	0.088
-305.851	-200.000	-0.026	-0.129
-304.837	-138.257	0.225	0.025
-303.822	216.093	-0.117	-0.186
-302.807	-116.730	0.163	0.030
-301.793	364.956	0.067	0.136
-300.778	99.627	-0.114	-0.133
-299.764	30.810	0.231	0.199
-298.749	-58.279	0.043	0.019
-297.735	-200.000	-0.011	-0.327
-296.720	-200.000	-0.040	-0.262
-295.705	-135.622	-0.263	-0.031
-294.691	25.078	0.240	0.200
-293.676	-200.000	-0.044	0.260
-292.662	195.977	-0.148	-0.226
-291.647	-200.000	-0.329	0.001
-290.632	100.623	-0.142	0.166
-289.618	-200.000	0.021	0.146
-288.603	-57.062	0.093	0.041
-287.589	800.000	0.055	-0.162
-286.574	-200.000	-0.062	-0.329
-285.559	97.721	0.082	0.095
-284.545	85.862	0.146	-0.161
-283.530	-102.159	0.125	-0.030
-282.516	183.512	0.067	-0.099
-281.501	78.541	-0.266	0.286
-280.486	-117.878	-0.131	-0.024
-279.472	-160.147	-0.069	0.004
-278.457	-112.547	-0.348	-0.070
-277.443	-51.527	0.402	-0.189
-276.428	-200.000	-0.009	-0.160
-275.413	-73.033	0.130	0.048
-274.399	201.201	-0.044	0.068
-273.384	-15.906	-0.216	0.138
-272.370	-26.386	-0.283	-0.167
-271.355	101.219	0.005	0.006
-270.340	-200.000	0.006	0.247
-269.326	-94.000	0.206	-0.057
-268.311	800.000	-0.093	0.334
-267.297	-49.291	-0.247	-0.119
-266.282	800.000	-0.028	-0.114
-265.267	-92.302	0.068	0.019
-264.253	-120.155	0.215	-0.037
-263.238	620.711	-0.123	0.311
-262.224	0.157	-0.227	0.163
-261.209	21.166	0.252	-0.205
-260.195	5.220	-0.334	-0.247
-259.180	615.084	-0.035	-0.088
-258.165	-121.458	-0.508	0.085
-257.151	-200.000	0.061	-0.268
-256.136	164.494	0.065	0.092
-255.122	165.329	-0.037	0.052
-254.107	429.892	0.114	-0.248
-253.092	108.639	0.200	0.240
-252.078	225.654	-0.017	-0.028
-251.063	-18.809	-0.298	0.186
-250.049	-200.000	-0.020	0.162
-249.034	359.940	-0.094	-0.190
-248.019	-3.375	0.061	0.042
-247.005	-35.551	0.233	0.127
-245.990	-200.000	-0.011	-0.174
-244.976	-54.466	0.142	-0.065
-243.961	-81.566	0.217	0.071
-242.946	-52.566	0.217	0.101
-241.932	256.453	0.053	0.091
-240.917	-200.000	0.002	-0.158
-239.903	-78.032	0.311	-0.108
-238.888	-110.278	-0.283	-0.059
-237.873	-105.797	0.215	0.049
-236.859	-15.008	-0.200	-0.128
-235.844	-124.343	0.443	0.069
-234.830	239.014	0.206	-0.343
-233.815	-200.000	-0.057	0.294
-232.800	-200.000	0.003	0.207
-231.786	119.235	-0.028	0.035
-230.771	800.000	0.155	-0.439
-229.757	98.055	-0.152	0.175
-228.742	16.067	0.058	0.046
-227.727	-47.392	-0.079	-0.039
-226.713	98.282	-0.150	-0.174
-225.698	-200.000	0.048	-0.265
-224.684	-0.374	0.281	0.200
-223.669	-200.000	-0.025	-0.251
-222.655	50.264	0.083	-0.078
-221.640	24.743	0.229	0.190
-220.625	27.762	-0.109	0.092
-219.611	-156.378	0.097	-0.006
-218.596	60.977	0.068	-0.068
-217.582	-80.210	0.346	0.116
-216.567	-118.382	-0.056	-0.010
-215.552	-109.643	-0.172	-0.036
-214.538	-122.502	0.275	0.045
-213.523	-58.504	0.113	0.049
-212.509	-173.349	0.387	0.012
-211.494	-200.000	-0.044	0.312
-210.479	800.000	0.050	0.196
-209.465	122.085	0.183	-0.229
-208.450	-84.971	0.237	0.074
-207.436	-70.119	-0.300	-0.114
-206.421	-49.767	0.252	-0.120
-205.406	800.000	0.041	0.124
-204.392	-129.406	-0.076	0.011
-203.377	-106.461	0.280	-0.063
-202.363	178.530	0.136	0.200
-201.348	-105.966	-0.076	0.017
-200.333	-161.460	0.094	-0.005
-199.319	-22.997	-0.151	0.091
-198.304	-200.000	-0.086	-0.391
-197.290	-43.067	-0.246	0.125
-196.275	-200.000	-0.067	0.453
-195.260	-200.000	-0.019	0.408
-194.246	510.517	0.055	0.128
-193.231	-88.328	-0.414	0.124
-192.217	800.000	-0.040	0.141
-191.202	-115.549	0.108	-0.020
-190.187	-102.273	-0.330	-0.079
-189.173	-74.979	0.229	-0.082
-188.158	800.000	-0.040	0.146
-187.144	157.606	0.148	-0.206
-186.129	-86.807	-0.166	0.051
-185.114	-35.991	-0.197	-0.107
-184.100	209.249	0.070	0.110
-183.085	-155.678	0.148	0.009
-182.071	21.651	-0.121	-0.098
-181.056	96.828	-0.194	-0.222
-180.042	610.375	0.045	0.113
-179.027	-103.482	0.154	-0.036
-178.012	-35.180	-0.098	0.053
-176.998	800.000	0.025	0.110
-175.983	800.000	0.124	-0.424
-174.969	-200.000	-0.072	-0.519
-173.954	51.680	0.084	-0.080
-172.939	-200.000	0.018	0.338
-171.925	472.207	-0.063	-0.142
-170.910	128.701	0.125	0.159
-169.896	-87.991	-0.206	-0.062
-168.881	175.492	0.111	-0.161
-167.866	-116.143	-0.285	0.053
-166.852	254.919	-0.180	0.308
-165.837	-99.121	0.154	0.039
-164.823	-102.574	0.252	-0.060
-163.808	-114.428	0.198	0.038
-162.793	800.000	0.072	-0.213
-161.779	-96.315	-0.296	-0.079
-160.764	-200.000	-0.067	-0.324
-159.750	-125.995	-0.265	0.040
-158.735	76.498	-0.050	-0.053
-157.720	-116.347	0.037	-0.007
-156.706	791.803	0.040	-0.109
-155.691	-179.920	-0.330	-0.007
-154.677	26.228	0.149	0.124
-153.662	-151.005	0.192	-0.014
-152.647	375.722	-0.118	0.240
-151.633	294.235	0.101	0.185
-150.618	222.290	0.126	-0.203
-149.604	-200.000	0.055	-0.515
-148.589	-51.251	0.402	-0.188
-147.574	-200.000	-0.005	0.159
-146.560	-200.000	-0.012	0.233
-145.545	199.657	0.089	-0.136
-144.531	-27.887	0.342	0.198
-143.516	25.958	0.315	-0.263
-142.502	-137.011	0.414	0.047
-141.487	-87.970	0.351	0.106
-140.472	66.521	-0.311	-0.316
-139.458	7.621	-0.123	-0.092
-138.443	-200.000	-0.015	0.104
-137.429	84.832	0.074	-0.082
-136.414	-200.000	-0.067	0.308
-135.399	79.958	-0.097	-0.104
-134.385	50.320	-0.215	0.203
-133.370	389.749	-0.078	-0.162
-132.356	-200.000	0.023	-0.416
-131.341	-200.000	-0.007	-0.083
-130.326	-200.000	0.008	0.202
-129.312	-200.000	-0.048	0.388
-128.297	800.000	-0.097	0.318
-127.283	-86.809	0.349	0.107
-126.268	-118.268	0.202	-0.036
-125.253	72.026	-0.133	-0.138
-124.239	469.261	0.012	-0.028
-123.224	-98.060	-0.279	-0.072
-122.210	800.000	0.010	0.039
-121.195	-164.594	-0.163	-0.007
-120.180	348.678	0.067	0.132
-119.166	-200.000	-0.012	0.128
-118.151	276.297	-0.162	-0.288
-117.137	459.999	-0.168	-0.373
-116.122	-167.949	0.125	-0.005
-115.107	800.000	0.012	-0.038
-114.093	-102.719	0.186	-0.044
-113.078	-155.649	0.207	0.013
-112.064	-149.374	0.116	0.009
-111.049	-106.808	0.051	-0.011
-110.034	618.540	0.029	0.071
-109.020	-88.804	0.195	0.058
-108.005	112.524	0.121	-0.146
-106.991	46.332	-0.301	-0.279
-105.976	84.211	0.096	-0.104
-104.962	-133.340	0.180	-0.023
-103.947	220.140	-0.076	-0.121
-102.932	73.113	-0.350	-0.366
-101.918	-131.362	-0.290	-0.038
-100.903	800.000	0.030	0.113
-99.889	-200.000	0.006	-0.308
-98.874	89.501	-0.143	0.160
-97.859	-200.000	-0.001	-0.223
-96.845	364.415	-0.106	-0.212
-95.830	-60.341	0.100	0.042
-94.816	-49.532	-0.225	-0.107
-93.801	100.401	0.255	-0.295
-92.786	-26.882	-0.160	0.093
-91.772	-109.932	0.402	0.084
-90.757	204.031	-0.130	-0.200
-89.743	185.775	-0.171	0.254
-88.728	11.502	0.211	-0.161
-87.713	-169.133	-0.072	-0.003
-86.699	800.000	0.104	0.375
-85.684	-55.748	0.220	-0.098
-84.670	353.898	-0.135	-0.267
-83.655	-49.657	0.382	-0.181
-82.640	103.334	0.133	-0.155
-81.626	-70.407	0.166	-0.063
-80.611	64.138	0.230	0.231
-79.597	-200.000	0.022	-0.152
-78.582	-200.000	0.039	0.198
-77.567	35.281	0.168	-0.147
-76.553	8.912	-0.289	0.217
-75.538	-200.000	-0.022	0.116
-74.524	-200.000	0.049	-0.286
-73.509	-89.452	0.130	0.038
-72.494	-98.782	-0.124	-0.031
-71.480	-5.415	-0.074	0.050
-70.465	25.129	0.177	0.146
-69.451	-41.348	-0.204	-0.105
-68.436	116.774	-0.146	-0.178
-67.422	64.389	0.063	-0.063
-66.407	-200.000	0.025	-0.217
-65.392	-100.065	-0.311	0.077
-64.378	-200.000	-0.050	0.306
-63.363	800.000	-0.069	0.251
-62.349	43.264	0.153	0.139
-61.334	46.650	-0.872	-0.807
-60.319	-109.265	0.188	-0.040
-59.305	-200.000	0.012	-0.876
-58.290	343.509	0.373	0.729
-57.276	800.000	0.360	1.556
-56.261	-200.000	76.624	519.885
-55.246	533.030	1314.914	3101.696
-54.232	148.490	2541.407	3419.506
-53.217	118.709	2225.374	2737.979
-52.203	52.934	1672.910	1594.225
-51.188	44.780	1396.928	1280.221
-50.173	41.246	1350.734	1216.311
-49.159	59.802	1385.758	1362.531
-48.144	66.381	1404.865	1421.732
-47.130	45.293	1367.889	1256.565
-46.115	41.210	1351.072	1216.202
-45.100	40.963	1346.208	1210.271
-44.086	40.881	1343.910	1207.658
-43.071	40.779	1341.770	1205.069
-42.057	40.825	1339.462	1203.223
-41.042	40.883	1337.684	1201.933
-40.027	40.929	1336.155	1200.790
-39.013	40.987	1334.725	1199.805
-37.998	40.937	1332.613	1197.561
-36.984	41.106	1330.553	1196.675
-35.969	41.034	1329.023	1194.822
-34.954	41.116	1327.370	1193.779
-33.940	41.126	1325.776	1192.361
-32.925	41.120	1324.804	1191.398
-31.911	41.149	1323.306	1190.181
-30.896	41.156	1321.694	1188.722
-29.881	41.075	1320.329	1186.965
-28.867	41.207	1318.832	1186.359
-27.852	41.169	1317.165	1184.588
-26.838	41.214	1315.685	1183.474
-25.823	41.154	1314.352	1181.876
-24.809	41.125	1313.289	1180.700
-23.794	41.091	1311.777	1179.092
-22.779	41.103	1310.137	1177.639
-21.765	41.073	1309.368	1176.729
-20.750	41.197	1307.917	1176.106
-19.736	41.106	1305.939	1173.745
-18.721	41.092	1305.008	1172.780
-17.706	41.059	1304.121	1171.745
-16.692	41.028	1302.871	1170.392
-15.677	41.016	1301.760	1169.275
-14.663	41.008	1300.839	1168.357
-13.648	41.097	1299.456	1167.590
-12.633	40.934	1298.577	1165.799
-11.619	40.988	1297.525	1165.120
-10.604	40.993	1296.929	1164.571
-9.590	41.056	1296.027	1164.081
-8.575	40.950	1295.136	1162.617
-7.560	40.999	1294.254	1162.066
-6.546	40.991	1292.771	1160.641
-5.531	40.904	1292.398	1159.752
-4.517	40.984	1291.472	1159.340
-3.502	41.102	1290.133	1158.777
-2.487	41.003	1289.780	1157.840
-1.473	40.994	1286.072	1154.415
-0.458	39.923	1271.229	1134.894
0.556	34.508	1251.587	1093.595
1.571	30.305	1255.074	1072.320
2.586	28.603	1269.746	1074.798
3.600	27.240	1259.257	1057.901
4.615	23.650	1189.257	979.243
5.629	17.898	1114.756	887.985
6.644	14.920	1093.176	855.505
7.659	14.714	1090.727	852.461
8.673	14.416	1089.663	850.037
9.688	14.442	1088.221	848.969
10.702	14.699	1086.990	849.243
11.717	18.311	1091.743	871.295
12.731	22.016	1095.407	893.027
13.746	20.385	1092.218	882.068
14.761	17.834	1088.013	865.668
15.775	16.456	1085.893	856.925
16.790	15.350	1083.871	849.651
17.804	14.632	1081.658	844.214
18.819	14.162	1080.763	841.064
19.834	13.845	1079.390	838.318
20.848	13.488	1078.807	835.989
21.863	13.382	1077.460	834.341
22.877	13.196	1077.227	833.149
23.892	13.192	1076.399	832.410
24.907	13.224	1075.590	831.875
25.921	13.189	1074.673	830.918
26.936	13.277	1072.941	829.945
27.950	13.257	1071.329	828.522
28.965	13.312	1070.166	827.825
29.980	13.295	1068.684	826.523
30.994	13.489	1067.315	826.359
32.009	13.445	1066.409	825.365
33.023	13.426	1065.155	824.224
34.038	13.422	1064.262	823.442
35.053	13.317	1063.402	822.184
36.067	13.269	1062.609	821.261
37.082	13.451	1061.575	821.291
38.096	13.379	1061.004	820.419
39.111	13.213	1060.711	819.297
40.126	13.245	1058.895	817.981
41.140	13.171	1057.416	816.400
42.155	13.257	1056.279	815.874
43.169	13.106	1055.854	814.728
44.184	13.129	1054.402	813.647
45.199	13.109	1053.521	812.799
46.213	13.155	1052.388	812.077
47.228	13.306	1051.348	811.944
48.242	13.256	1050.099	810.664
49.257	13.350	1049.020	810.218
50.271	13.252	1048.626	809.363
51.286	13.412	1047.551	809.247
52.301	13.309	1046.268	807.678
53.315	13.173	1045.622	806.444
54.330	13.182	1044.359	805.446
55.344	13.233	1043.197	804.725
56.359	13.192	1042.397	803.835
57.374	13.221	1041.640	803.323
58.388	13.210	1041.011	802.714
59.403	13.083	1040.114	801.335
60.417	13.109	1038.888	800.444
61.432	13.037	1038.342	799.606
62.447	13.006	1037.329	798.605
63.461	13.119	1036.304	798.290
64.476	13.133	1035.371	797.567
65.490	13.095	1034.679	796.784
66.505	13.060	1034.105	796.101
67.520	13.087	1033.456	795.659
68.534	13.237	1032.367	795.474
69.549	13.208	1032.181	795.119
70.563	13.204	1030.699	793.890
71.578	13.036	1030.197	792.626
72.593	13.020	1029.355	791.832
73.607	12.898	1029.210	791.061
74.622	13.019	1028.270	790.849
75.636	13.072	1027.455	790.408
76.651	13.067	1026.747	789.768
77.666	12.920	1026.495	788.802
78.680	13.046	1025.496	788.570
79.695	13.059	1025.157	788.300
80.709	13.100	1024.351	787.805
81.724	13.099	1023.819	787.321
82.739	13.213	1023.085	787.230
83.753	13.278	1022.288	786.855
84.768	13.420	1021.068	786.525
85.782	13.393	1020.156	785.620
86.797	13.395	1019.501	785.057
87.812	13.263	1018.849	783.863
88.826	13.325	1017.498	783.047
89.841	13.319	1016.732	782.361
90.855	13.365	1015.962	781.914
91.870	13.400	1015.114	781.359
92.884	13.334	1014.171	780.252
93.899	13.439	1013.157	779.898
94.914	13.413	1012.319	779.060
95.928	13.482	1011.720	778.853
96.943	13.368	1010.985	777.685
97.957	13.449	1010.286	777.458
98.972	13.401	1008.959	776.146
99.987	13.430	1007.992	775.465
101.001	13.390	1007.262	774.647
102.016	13.350	1006.033	773.449
103.030	13.350	1005.527	772.992
104.045	13.378	1004.686	772.407
105.060	13.366	1003.848	771.639
106.074	13.309	1002.712	770.431
107.089	13.203	1001.963	769.292
108.103	13.120	1001.337	768.359
109.118	13.217	999.667	767.462
110.133	13.087	998.816	766.135
111.147	13.185	998.629	766.381
112.162	13.200	997.560	765.562
113.176	13.278	996.425	764.984
114.191	13.344	995.555	764.552
115.206	13.377	994.979	764.197
116.220	13.221	994.580	763.099
117.235	13.284	993.366	762.394
118.249	13.315	992.617	761.895
119.264	13.274	991.623	760.872
120.279	13.141	991.243	759.902
121.293	13.292	989.747	759.384
122.308	13.265	989.498	759.002
123.322	13.073	988.427	757.230
124.337	13.197	987.191	756.786
125.352	13.127	986.387	755.782
126.366	13.236	985.217	755.315
127.381	13.261	984.224	754.603
128.395	13.282	983.040	753.725
129.410	13.325	982.140	753.161
130.424	13.231	981.701	752.332
131.439	13.399	980.679	752.248
132.454	13.380	980.327	751.825
133.468	13.373	979.834	751.344
134.483	13.399	978.448	750.333
135.497	13.288	978.138	749.530
136.512	13.355	977.012	748.902
137.527	13.485	975.891	748.566
138.541	13.383	975.308	747.592
139.556	13.554	974.329	747.546
140.570	13.544	974.023	747.201
141.585	13.612	972.921	746.594
142.600	13.687	971.542	745.807
143.614	13.650	971.062	745.205
144.629	13.611	970.469	744.512
145.643	13.583	969.611	743.663
146.658	13.597	968.403	742.733
147.673	13.460	967.551	741.399
148.687	13.377	966.725	740.329
149.702	13.444	965.725	739.797
150.716	13.453	965.236	739.397
151.731	13.441	964.378	738.621
152.746	13.555	963.171	738.141
153.760	13.482	962.940	737.570
154.775	13.498	962.703	737.395
155.789	13.570	961.725	736.904
156.804	13.582	961.253	736.531
157.819	13.610	960.290	735.850
158.833	13.545	959.872	735.176
159.848	13.615	959.055	734.793
160.862	13.585	957.873	733.693
161.877	13.596	956.852	732.892
162.892	13.536	955.791	731.751
163.906	13.455	955.252	730.917
164.921	13.489	954.381	730.336
165.935	13.450	953.318	729.283
166.950	13.598	952.536	729.273
167.964	13.635	951.422	728.518
168.979	13.486	950.887	727.391
169.994	13.644	949.816	727.199
171.008	13.577	949.269	726.422
172.023	13.650	948.622	726.182
173.037	13.732	947.985	725.991
174.052	13.623	947.378	724.982
175.067	13.541	946.754	724.086
176.081	13.553	945.960	723.463
177.096	13.475	945.390	722.624
178.110	13.620	944.517	722.526
179.125	13.598	944.139	722.076
180.140	13.567	944.018	721.785
181.154	13.799	943.054	721.993
182.169	13.733	942.761	721.421
183.183	13.698	942.399	720.925
184.198	13.738	941.349	720.233
185.213	13.886	940.489	720.154
186.227	13.942	939.835	719.830
187.242	13.890	939.384	719.194
188.256	14.000	938.481	718.918
189.271	13.946	938.161	718.374
190.286	13.827	937.169	717.040
191.300	13.670	936.055	715.447
192.315	13.585	935.671	714.721
193.329	13.762	935.015	714.922
194.344	13.675	934.843	714.349
195.359	13.735	934.329	714.152
196.373	14.018	933.001	714.290
197.388	14.001	932.878	714.059
198.402	14.040	932.132	713.593
199.417	14.154	931.463	713.510
200.432	14.118	931.144	713.045
201.446	14.164	930.573	712.742
202.461	14.202	930.146	712.515
203.475	14.145	929.752	711.905
204.490	14.144	928.992	711.258
205.504	14.014	927.879	709.787
206.519	14.089	927.348	709.637
207.534	14.052	926.661	708.893
208.548	14.168	925.821	708.679
209.563	14.117	925.068	707.825
210.577	14.036	924.419	706.921
211.592	14.260	923.835	707.362
212.607	14.219	922.984	706.475
213.621	14.351	922.050	706.256
214.636	14.177	921.527	705.058
215.650	14.216	921.000	704.758
216.665	14.288	920.128	704.331
217.680	14.298	919.603	703.909
218.694	14.349	918.885	703.511
219.709	14.381	918.324	703.156
220.723	14.503	917.395	702.898
221.738	14.373	916.800	701.833
222.753	14.306	916.402	701.181
223.767	14.486	915.586	701.254
224.782	14.424	915.483	700.850
225.796	14.396	914.654	700.039
226.811	14.440	913.831	699.531
227.826	14.375	913.106	698.640
228.840	14.521	912.287	698.566
229.855	14.404	911.401	697.332
230.869	14.362	910.838	696.665
231.884	14.429	909.817	696.105
232.899	14.385	909.383	695.525
233.913	14.340	908.588	694.669
234.928	14.316	908.030	694.082
235.942	14.313	907.517	693.616
236.957	14.387	907.085	693.529
237.972	14.417	906.375	693.053
238.986	14.474	905.481	692.544
240.001	14.500	904.803	692.070
241.015	14.373	904.404	691.181
242.030	14.471	903.711	690.994
243.045	14.627	903.177	691.171
244.059	14.460	902.631	690.001
245.074	14.634	901.932	690.123
246.088	14.541	901.335	689.223
247.103	14.632	900.743	689.085
248.117	14.820	900.030	689.251
249.132	14.701	899.767	688.499
250.147	14.876	898.977	688.555
251.161	14.858	898.267	687.876
252.176	14.780	898.015	687.303
253.190	15.035	896.799	687.356
254.205	14.995	896.280	686.734
255.220	14.849	895.824	685.726
256.234	14.925	895.467	685.706
257.249	14.997	894.609	685.283
258.263	14.942	893.829	684.396
259.278	14.934	893.216	683.833
260.293	15.041	892.741	683.848
261.307	15.157	891.878	683.599
262.322	15.162	891.243	683.072
263.336	14.963	890.932	681.964
264.351	15.227	889.909	682.193
265.366	14.993	889.453	680.831
266.380	15.050	888.968	680.633
267.395	15.070	888.399	680.219
268.409	15.339	886.667	679.921
269.424	15.185	886.325	678.977
270.439	15.096	885.922	678.246
271.453	15.156	884.688	677.485
272.468	15.079	884.745	677.157
273.482	15.072	884.198	676.649
274.497	15.218	883.483	676.632
275.512	15.256	882.802	676.205
276.526	15.251	882.099	675.585
277.541	15.326	881.864	675.648
278.555	15.245	881.407	674.914
279.570	15.412	880.254	674.642
280.585	15.304	879.901	673.878
281.599	15.238	879.505	673.248
282.614	15.359	877.913	672.457
283.628	15.328	877.759	672.157
284.643	15.288	877.534	671.765
285.657	15.414	876.469	671.390
286.672	15.461	875.777	670.991
287.687	15.384	875.523	670.429
288.701	15.356	875.010	669.865
289.716	15.417	874.292	669.498
290.730	15.430	873.567	668.938
291.745	15.426	872.918	668.366
292.760	15.494	872.487	668.245
293.774	15.537	871.544	667.637
294.789	15.485	870.956	666.921
295.803	15.614	870.245	666.829
296.818	15.495	869.507	665.730
297.833	15.472	869.076	665.253
298.847	15.566	868.209	664.901
299.862	15.465	867.925	664.228
300.876	15.520	867.716	664.225
301.891	15.612	866.702	663.751
302.906	15.744	866.192	663.824
303.920	15.791	865.477	663.404
304.935	15.865	864.768	663.093
305.949	15.796	864.190	662.318
306.964	15.701	863.643	661.466
307.979	15.838	862.878	661.363
308.993	15.999	862.137	661.367
310.008	15.849	861.817	660.474
311.022	15.888	861.412	660.259
312.037	15.927	860.541	659.685
313.052	15.823	860.295	659.029
314.066	15.759	859.832	658.369
315.081	15.880	859.063	658.193
316.095	15.832	858.303	657.365
317.110	15.915	857.652	657.131
318.125	15.820	857.342	656.468
319.139	15.845	857.241	656.430
320.154	15.771	856.516	655.528
321.168	15.841	855.947	655.305
322.183	15.833	855.490	654.869
323.197	15.919	854.883	654.677
324.212	15.861	854.456	654.070
325.227	15.911	853.911	653.787
326.241	15.757	853.639	652.922
327.256	15.852	852.634	652.467
328.270	15.822	852.157	651.927
329.285	15.843	851.432	651.394
330.300	15.885	850.946	651.130
331.314	15.891	850.556	650.797
332.329	15.942	850.045	650.543
333.343	15.912	849.448	649.913
334.358	16.002	848.952	649.822
335.373	16.009	848.715	649.611
336.387	15.930	848.385	648.999
337.402	16.084	848.038	649.269
338.416	16.230	847.432	649.310
339.431	16.161	847.345	648.918
340.446	16.192	846.947	648.675
341.460	16.207	846.518	648.347
342.475	16.372	845.905	648.452
343.489	16.317	845.290	647.713
344.504	16.394	844.929	647.675
345.519	16.351	844.786	647.345
346.533	16.379	844.005	646.794
347.548	16.257	843.746	646.073
348.562	16.348	842.936	645.743
349.577	16.202	842.603	644.871
350.592	16.401	841.485	644.721
351.606	16.316	841.103	644.047
352.621	16.354	840.295	643.516
353.635	16.308	839.760	642.873
354.650	16.347	839.315	642.625
355.665	16.301	838.975	642.131
356.679	16.391	838.141	641.778
357.694	16.404	837.267	641.103
358.708	16.318	836.598	640.207
359.723	16.364	836.195	640.016
360.738	16.454	835.749	639.958
361.752	16.535	834.956	639.603
362.767	16.675	834.181	639.479
363.781	16.645	833.965	639.145
364.796	16.713	833.421	638.928
365.810	16.598	833.225	638.288
366.825	16.820	832.432	638.459
367.840	16.831	832.167	638.242
368.854	16.722	831.586	637.330
369.869	16.612	831.205	636.566
370.883	16.585	831.209	636.411
371.898	16.728	830.651	636.465
372.913	16.760	830.428	636.360
373.927	16.722	829.840	635.710
374.942	16.716	829.546	635.405
375.956	16.831	828.779	635.192
376.971	16.850	828.105	634.692
377.986	16.963	827.491	634.588
379.000	16.931	827.236	634.215
380.015	16.947	826.831	633.910
381.029	16.898	826.489	633.407
382.044	17.040	825.616	633.211
383.059	17.068	825.082	632.850
384.073	16.974	824.587	632.063
385.088	16.873	824.172	631.313
386.102	16.964	823.272	630.910
387.117	16.817	822.925	630.039
388.132	16.933	821.859	629.600
389.146	17.029	821.174	629.374
390.161	16.984	821.374	629.303
391.175	17.011	820.671	628.811
392.190	17.045	820.210	628.528
393.205	17.034	819.687	628.031
394.219	17.084	819.115	627.721
395.234	16.931	819.011	627.022
396.248	16.884	818.669	626.530
397.263	16.914	818.297	626.299
398.278	16.927	817.706	625.840
399.292	16.948	817.105	625.405
400.307	17.032	816.822	625.440
401.321	16.910	816.460	624.658
402.336	17.033	815.705	624.479
403.350	17.087	815.195	624.231
404.365	17.175	815.081	624.413
405.380	17.309	814.563	624.452
406.394	17.150	814.167	623.509
407.409	17.253	813.216	623.102
408.423	17.484	812.817	623.589
409.438	17.490	812.611	623.399
410.453	17.453	812.392	623.038
411.467	17.325	811.795	622.060
412.482	17.431	811.565	622.216
413.496	17.534	810.881	622.012
414.511	17.496	810.685	621.668
415.526	17.618	809.923	621.472
416.540	17.575	809.294	620.778
417.555	17.535	809.164	620.478
418.569	17.692	808.659	620.607
419.584	17.491	808.381	619.607
420.599	17.506	807.940	619.269
421.613	91.536	1265.333	1371.440
422.628	78.320	1331.989	1371.557
