DTS Sentinel unit serial number:	SN413079Multiplexer serial number:	ORYXHardware model number:	OX4-SRSoftware version number:	ORYX F/W v4.00 Oryx Data Collector v3.7.2.0data status	okinstallation	princeton_trtdifferential loss correction	single-endedforward channel	channel 1reverse channel	N/Adate	2019/09/11time	03:52:11forward acquisition time	60.00reverse acquisition time	0.00gamma	496.2192k internal	0.2331k external	0.2331temperature offset calibration	0.9924default loss term (dB/km)	0.3790temperature slope calibration	1.0000multiplexer offset coefficient	1.0000multiplexer slope coefficient	1.0000fibre end	0.00T internal ref (°C)	29.56T ext. ref 1 (°C)	-0.28T ext. ref 2 (°C)	23.71length (m)	temperature (°C)	Stokes	anti-Stokes-747.200	86.710	-0.170	-0.189
-746.185	800.000	0.068	0.272
-745.171	339.924	-0.128	-0.251
-744.156	-21.486	-0.247	-0.151
-743.142	-131.811	0.213	-0.028
-742.127	-77.763	-0.364	0.127
-741.112	235.739	-0.118	-0.196
-740.098	-200.000	-0.043	0.235
-739.083	-200.000	0.008	-0.409
-738.069	-200.000	0.038	0.446
-737.054	-101.425	0.208	-0.051
-736.039	189.788	-0.076	-0.115
-735.025	-9.186	0.148	0.099
-734.010	90.301	0.134	0.151
-732.996	59.695	0.164	-0.163
-731.981	94.345	-0.074	0.085
-730.966	-92.119	-0.285	0.081
-729.952	-61.319	0.175	-0.074
-728.937	-39.317	-0.123	0.065
-727.923	226.132	-0.203	0.332
-726.908	800.000	-0.086	0.288
-725.894	-200.000	-0.035	0.335
-724.879	800.000	0.070	-0.231
-723.864	-157.157	0.371	0.023
-722.850	-153.358	-0.187	-0.013
-721.835	-159.227	-0.216	-0.012
-720.821	198.269	-0.112	-0.173
-719.806	212.507	-0.219	-0.348
-718.791	-46.834	-0.154	-0.076
-717.777	90.580	-0.133	-0.150
-716.762	-200.000	0.002	0.071
-715.748	-120.030	-0.274	-0.047
-714.733	-200.000	-0.079	-0.490
-713.718	-176.534	0.233	0.006
-712.704	46.725	0.356	-0.333
-711.689	100.779	-0.082	-0.096
-710.675	-7.889	-0.251	-0.170
-709.660	-200.000	0.022	0.110
-708.645	12.510	-0.263	0.204
-707.631	-63.568	-0.287	0.118
-706.616	21.468	0.052	-0.043
-705.602	-200.000	-0.007	0.106
-704.587	-167.707	0.287	-0.011
-703.572	800.000	-0.111	-0.332
-702.558	-92.462	0.078	-0.022
-701.543	-97.460	-0.257	-0.067
-700.529	-200.000	-0.029	-0.260
-699.514	800.000	0.068	-0.242
-698.499	-84.861	0.263	-0.083
-697.485	-52.413	-0.325	-0.151
-696.470	-95.769	0.231	0.062
-695.456	260.254	-0.188	-0.326
-694.441	-76.922	-0.260	-0.091
-693.426	-135.529	0.113	0.013
-692.412	-200.000	0.024	0.700
-691.397	169.216	0.104	-0.149
-690.383	27.239	0.290	-0.244
-689.368	-200.000	0.013	0.152
-688.354	-67.450	0.103	0.040
-687.339	-129.879	-0.207	-0.029
-686.324	-68.120	-0.219	-0.086
-685.310	-46.235	0.371	-0.183
-684.295	-64.739	0.067	-0.027
-683.281	89.872	0.079	-0.089
-682.266	173.440	-0.112	0.163
-681.251	616.483	-0.120	0.303
-680.237	-200.000	-0.013	-0.104
-679.222	-62.121	-0.276	-0.116
-678.208	-43.656	-0.113	0.057
-677.193	627.976	-0.039	-0.099
-676.178	-193.388	0.172	0.001
-675.164	-102.360	-0.080	-0.019
-674.149	800.000	-0.022	0.073
-673.135	-200.000	0.017	0.101
-672.120	-20.057	0.097	-0.060
-671.105	-111.991	0.232	-0.047
-670.091	477.138	-0.094	0.213
-669.076	-111.958	0.171	-0.035
-668.062	-189.152	0.073	-0.001
-667.047	-71.345	-0.102	0.038
-666.032	61.773	-0.327	0.327
-665.018	-31.992	-0.051	0.028
-664.003	189.099	0.025	0.038
-662.989	200.664	0.143	-0.220
-661.974	435.667	-0.086	-0.188
-660.959	354.418	0.046	-0.091
-659.945	-171.220	-0.207	0.007
-658.930	219.134	0.017	0.028
-657.916	-200.000	-0.017	-0.124
-656.901	800.000	-0.097	0.279
-655.886	-200.000	0.025	-0.157
-654.872	-28.858	-0.020	-0.011
-653.857	333.427	-0.217	-0.421
-652.843	-22.227	-0.063	-0.039
-651.828	-79.126	-0.116	-0.039
-650.814	61.086	-0.202	-0.201
-649.799	-24.618	-0.248	0.148
-648.784	-117.092	-0.031	0.006
-647.770	-73.800	0.115	0.042
-646.755	-60.872	0.053	0.023
-645.741	524.158	0.112	0.263
-644.726	-18.587	0.159	0.099
-643.711	-55.733	0.121	-0.054
-642.697	199.736	-0.104	0.160
-641.682	103.889	-0.257	0.302
-640.668	-112.303	-0.110	-0.022
-639.653	-36.131	-0.207	0.112
-638.638	-71.140	-0.212	0.080
-637.624	32.292	-0.393	-0.340
-636.609	217.293	-0.123	-0.197
-635.595	22.289	-0.300	-0.246
-634.580	-83.445	0.132	-0.042
-633.565	363.413	0.118	0.238
-632.551	-78.825	-0.208	0.071
-631.536	-27.449	-0.362	0.211
-630.522	-32.057	0.417	-0.234
-629.507	-200.000	-0.012	-0.132
-628.492	1.430	-0.187	-0.135
-627.478	-101.681	-0.262	-0.064
-626.463	-150.117	0.103	0.008
-625.449	-169.474	0.142	-0.005
-624.434	800.000	-0.069	-0.212
-623.419	-55.480	-0.240	0.108
-622.405	629.414	0.196	0.496
-621.390	-200.000	0.014	0.105
-620.376	-200.000	-0.034	-0.326
-619.361	45.227	-0.137	0.127
-618.346	-133.892	0.341	-0.042
-617.332	610.795	-0.042	0.104
-616.317	71.779	-0.211	0.220
-615.303	-74.880	-0.177	0.064
-614.288	-64.016	0.050	-0.020
-613.273	-44.449	-0.203	-0.102
-612.259	-146.854	0.519	-0.045
-611.244	-47.914	-0.188	-0.091
-610.230	-116.161	0.465	0.087
-609.215	353.645	-0.056	0.111
-608.201	123.930	-0.241	-0.304
-607.186	-196.176	0.126	-0.001
-606.171	80.833	-0.137	0.148
-605.157	73.177	-0.264	-0.277
-604.142	-82.954	0.263	-0.085
-603.128	1.016	-0.093	0.066
-602.113	-200.000	-0.043	0.271
-601.098	516.848	-0.154	-0.361
-600.084	-200.000	0.008	0.146
-599.069	135.924	0.342	-0.446
-598.055	-172.578	0.196	0.006
-597.040	-200.000	0.051	0.326
-596.025	-167.784	0.362	-0.014
-595.011	-144.664	0.340	0.031
-593.996	-200.000	-0.030	-0.224
-592.982	-200.000	0.045	-0.204
-591.967	119.003	-0.181	-0.224
-590.952	800.000	0.054	0.199
-589.938	88.035	0.147	0.163
-588.923	800.000	0.070	0.289
-587.909	14.453	0.184	0.144
-586.894	-200.000	-0.035	-0.161
-585.879	-200.000	0.040	0.476
-584.865	-5.130	-0.323	-0.222
-583.850	-179.435	0.106	0.002
-582.836	-200.000	0.009	-0.145
-581.821	88.318	0.024	0.027
-580.806	-200.000	0.030	0.336
-579.792	148.315	-0.270	-0.365
-578.777	-200.000	0.002	0.194
-577.763	582.200	-0.070	0.171
-576.748	-130.865	-0.171	-0.023
-575.733	68.388	-0.247	-0.253
-574.719	324.579	0.176	0.337
-573.704	-36.551	0.217	0.117
-572.690	482.405	-0.043	-0.097
-571.675	-108.786	-0.166	-0.036
-570.661	429.629	0.106	0.230
-569.646	800.000	-0.091	-0.266
-568.631	45.178	0.206	-0.190
-567.617	800.000	0.122	0.448
-566.602	-77.686	0.044	0.015
-565.588	53.068	-0.191	0.183
-564.573	800.000	0.067	0.229
-563.558	-44.504	0.097	0.049
-562.544	280.705	0.032	-0.057
-561.529	-200.000	-0.001	-0.061
-560.515	-102.617	-0.193	0.046
-559.500	591.940	-0.043	-0.106
-558.485	-148.047	0.237	0.020
-557.471	-200.000	0.009	-0.495
-556.456	-97.611	-0.038	0.010
-555.442	-3.875	-0.067	-0.047
-554.427	-86.405	0.453	0.139
-553.412	21.234	-0.447	0.362
-552.398	-200.000	0.047	0.331
-551.383	88.311	0.087	0.097
-550.369	-22.001	-0.305	0.185
-549.354	114.518	0.150	-0.182
-548.339	-200.000	-0.040	0.207
-547.325	258.189	0.108	0.186
-546.310	47.373	0.073	0.068
-545.296	-1.526	-0.150	-0.105
-544.281	-146.307	-0.142	-0.012
-543.266	114.170	-0.054	0.066
-542.252	-58.190	0.184	0.080
-541.237	-6.713	-0.091	0.062
-540.223	-166.300	-0.254	-0.011
-539.208	777.501	0.111	-0.302
-538.193	-5.474	0.201	0.137
-537.179	-55.382	-0.134	0.060
-536.164	-173.260	0.092	-0.003
-535.150	269.294	0.073	0.128
-534.135	-42.370	-0.192	0.098
-533.121	23.523	0.059	0.048
-532.106	-156.850	0.150	-0.009
-531.091	-200.000	-0.013	-0.216
-530.077	-200.000	0.011	-0.168
-529.062	11.562	-0.323	-0.247
-528.048	800.000	0.045	0.173
-527.033	623.463	0.059	0.148
-526.018	51.057	0.141	-0.134
-525.004	17.041	0.171	0.135
-523.989	-143.999	-0.095	-0.009
-522.975	323.763	-0.188	-0.357
-521.960	52.160	-0.097	-0.092
-520.945	-179.383	-0.340	-0.007
-519.931	800.000	0.103	0.304
-518.916	77.458	0.137	-0.145
-517.902	-200.000	-0.002	-0.007
-516.887	494.484	0.160	-0.367
-515.872	224.884	-0.326	0.525
-514.858	292.788	-0.279	0.508
-513.843	-6.825	-0.179	0.121
-512.829	-110.894	0.304	0.062
-511.814	88.807	-0.151	-0.167
-510.799	-200.000	0.065	-0.365
-509.785	800.000	0.116	-0.420
-508.770	497.139	0.096	0.219
-507.756	800.000	0.064	-0.225
-506.741	178.459	0.187	0.272
-505.726	-32.116	-0.061	0.034
-504.712	-170.915	-0.062	-0.002
-503.697	64.878	-0.138	-0.139
-502.683	-200.000	-0.044	-0.235
-501.668	-31.010	-0.144	0.081
-500.653	124.934	-0.218	0.274
-499.639	-200.000	-0.024	0.143
-498.624	-47.224	-0.015	0.007
-497.610	67.020	-0.231	0.235
-496.595	55.472	0.158	-0.152
-495.581	-200.000	0.009	-0.155
-494.566	-200.000	-0.064	-0.398
-493.551	-178.001	0.256	-0.006
-492.537	-38.185	0.379	-0.200
-491.522	597.062	-0.039	0.096
-490.508	-132.445	-0.077	-0.010
-489.493	-200.000	0.044	0.279
-488.478	-79.492	-0.114	0.038
-487.464	800.000	0.096	-0.265
-486.449	-121.833	0.220	0.036
-485.435	487.224	0.120	0.273
-484.420	-16.458	-0.237	-0.150
-483.405	58.216	0.335	-0.327
-482.391	-18.195	0.054	-0.034
-481.376	-200.000	0.045	0.446
-480.362	234.165	0.219	0.360
-479.347	-65.105	-0.285	-0.115
-478.332	140.023	0.067	0.088
-477.318	187.908	0.068	-0.102
-476.303	103.030	0.041	-0.047
-475.289	791.176	0.026	0.072
-474.274	386.436	-0.023	-0.047
-473.259	416.180	-0.109	-0.232
-472.245	319.097	-0.137	-0.258
-471.230	-200.000	-0.055	-0.368
-470.216	21.185	-0.218	-0.176
-469.201	-166.304	-0.233	-0.010
-468.186	-121.143	0.035	-0.006
-467.172	-58.122	0.282	-0.122
-466.157	-200.000	-0.051	-0.439
-465.143	14.273	-0.202	-0.157
-464.128	4.803	0.075	0.055
-463.113	137.039	-0.129	0.168
-462.099	25.422	0.117	0.097
-461.084	-112.544	-0.208	0.041
-460.070	159.335	-0.107	0.148
-459.055	-200.000	0.051	0.326
-458.040	-154.835	-0.365	0.024
-457.026	-152.781	0.281	-0.020
-456.011	800.000	0.086	0.365
-454.997	-200.000	0.002	0.108
-453.982	800.000	-0.091	0.254
-452.968	-65.597	0.131	-0.052
-451.953	800.000	-0.028	-0.109
-450.938	-72.631	0.202	0.074
-449.924	-105.939	-0.343	0.077
-448.909	159.671	-0.112	0.154
-447.895	800.000	-0.048	0.172
-446.880	-116.668	-0.218	-0.040
-445.865	-109.364	0.114	-0.024
-444.851	-124.601	-0.426	-0.066
-443.836	-15.045	-0.332	-0.212
-442.822	674.608	-0.194	-0.500
-441.807	36.204	-0.075	0.066
-440.792	318.827	0.137	-0.258
-439.778	800.000	0.118	0.370
-438.763	105.843	-0.101	0.119
-437.749	-139.023	0.341	-0.037
-436.734	-200.000	0.016	-0.231
-435.719	492.073	-0.073	-0.166
-434.705	800.000	-0.065	-0.251
-433.690	385.963	0.049	-0.100
-432.676	91.884	0.156	0.175
-431.661	-200.000	0.022	-0.136
-430.646	434.506	0.104	0.224
-429.632	-63.590	0.200	0.082
-428.617	367.283	0.057	-0.115
-427.603	146.881	0.114	-0.152
-426.588	97.908	0.028	0.032
-425.573	170.102	0.141	-0.200
-424.559	-70.964	-0.116	0.043
-423.544	-51.668	-0.367	-0.170
-422.530	-59.943	-0.052	-0.022
-421.515	5.079	0.269	0.197
-420.500	200.261	0.052	-0.079
-419.486	800.000	-0.085	0.254
-418.471	-43.690	0.240	-0.120
-417.457	800.000	-0.066	0.203
-416.442	-149.056	0.132	-0.011
-415.428	101.469	-0.262	-0.303
-414.413	9.564	-0.199	0.149
-413.398	-146.837	-0.334	-0.029
-412.384	-200.000	0.042	0.190
-411.369	83.857	0.085	0.092
-410.355	-51.955	-0.389	-0.180
-409.340	228.272	0.148	-0.240
-408.325	-40.153	-0.235	-0.122
-407.311	-29.315	0.331	0.188
-406.296	-200.000	0.001	-0.366
-405.282	-26.824	-0.281	-0.163
-404.267	303.043	0.124	-0.228
-403.252	615.077	0.084	-0.210
-402.238	206.352	0.142	0.220
-401.223	-134.696	-0.120	-0.014
-400.209	-19.550	-0.257	-0.158
-399.194	93.909	0.061	-0.069
-398.179	-89.530	0.122	-0.035
-397.165	774.450	0.053	-0.145
-396.150	74.080	0.170	0.177
-395.136	135.152	-0.158	-0.204
-394.121	-182.065	0.182	-0.003
-393.106	212.743	-0.197	0.309
-392.092	-200.000	0.021	-0.295
-391.077	-128.133	-0.212	0.030
-390.063	-38.197	0.198	0.104
-389.048	15.508	-0.098	-0.077
-388.033	800.000	-0.039	-0.161
-387.019	56.021	0.221	0.213
-386.004	-139.811	0.275	0.029
-384.990	800.000	0.095	-0.304
-383.975	171.688	-0.289	-0.412
-382.960	-200.000	0.004	0.076
-381.946	-98.206	-0.073	-0.019
-380.931	283.227	-0.117	0.208
-379.917	-130.783	-0.102	0.014
-378.902	18.440	-0.184	0.146
-377.888	800.000	0.010	0.040
-376.873	103.537	0.166	-0.193
-375.858	-85.263	0.281	-0.087
-374.844	-139.040	-0.481	-0.052
-373.829	129.366	0.180	0.228
-372.815	-200.000	0.005	0.092
-371.800	175.111	0.150	0.216
-370.785	30.471	0.102	-0.086
-369.771	-98.470	-0.177	-0.045
-368.756	-78.019	-0.218	0.075
-367.742	-38.130	-0.274	0.144
-366.727	148.039	0.152	-0.203
-365.712	-146.741	-0.109	0.009
-364.698	-60.187	0.296	-0.125
-363.683	257.007	0.061	-0.105
-362.669	-200.000	0.005	-0.265
-361.654	-27.135	0.152	0.088
-360.639	24.360	-0.073	-0.060
-359.625	247.735	0.166	0.279
-358.610	-106.050	0.053	-0.012
-357.596	-123.517	0.235	-0.037
-356.581	45.597	0.056	0.052
-355.566	9.828	-0.143	-0.108
-354.552	-100.305	-0.236	-0.058
-353.537	-86.228	-0.238	-0.073
-352.523	-52.758	-0.093	0.043
-351.508	-172.520	0.331	-0.010
-350.493	-167.791	-0.204	0.008
-349.479	-102.332	0.229	-0.054
-348.464	800.000	0.113	0.348
-347.450	-112.685	-0.504	-0.099
-346.435	-11.110	0.306	-0.200
-345.420	316.268	0.135	0.252
-344.406	235.327	-0.153	0.250
-343.391	59.776	0.008	-0.008
-342.377	-1.649	-0.106	-0.074
-341.362	-99.838	0.161	-0.040
-340.348	-200.000	0.042	-0.347
-339.333	131.119	-0.163	-0.207
-338.318	800.000	0.039	-0.118
-337.304	-162.329	-0.299	0.015
-336.289	-137.640	0.090	-0.010
-335.275	-54.310	-0.212	-0.095
-334.260	17.108	0.109	-0.085
-333.245	67.550	0.233	-0.236
-332.231	-41.356	-0.088	0.045
-331.216	742.856	0.060	-0.161
-330.202	-55.281	-0.078	0.035
-329.187	226.642	0.069	-0.112
-328.172	12.212	-0.154	-0.117
-327.158	-200.000	0.028	-0.208
-326.143	-200.000	0.018	0.092
-325.129	-83.181	-0.030	-0.010
-324.114	709.736	0.026	-0.068
-323.099	39.724	0.170	0.151
-322.085	113.467	0.240	-0.289
-321.070	93.954	-0.136	0.153
-320.056	-200.000	0.046	-0.255
-319.041	49.391	-0.186	-0.173
-318.026	5.493	-0.276	0.202
-317.012	-163.288	0.439	-0.021
-315.997	-46.904	0.138	0.067
-314.983	-200.000	-0.004	-0.116
-313.968	58.695	-0.069	-0.067
-312.953	-16.429	-0.149	0.093
-311.939	-200.000	-0.001	0.159
-310.924	60.276	0.142	-0.139
-309.910	-61.688	0.212	0.088
-308.895	93.723	-0.139	-0.156
-307.880	194.497	-0.098	0.147
-306.866	180.875	-0.217	-0.316
-305.851	-162.958	0.191	0.009
-304.837	-57.481	0.139	-0.060
-303.822	333.175	0.106	-0.204
-302.807	124.516	0.080	-0.100
-301.793	800.000	-0.061	-0.169
-300.778	-184.905	0.200	0.003
-299.764	93.794	0.109	0.123
-298.749	-94.522	0.095	-0.026
-297.735	-103.362	-0.359	-0.084
-296.720	526.337	-0.084	-0.197
-295.705	-200.000	0.013	0.107
-294.691	800.000	-0.037	-0.157
-293.676	-200.000	-0.024	0.215
-292.662	-200.000	-0.024	-0.124
-291.647	373.843	0.135	-0.272
-290.632	-177.868	0.037	-0.001
-289.618	-112.868	-0.512	0.100
-288.603	-194.543	0.301	-0.002
-287.589	693.626	-0.134	0.346
-286.574	-133.793	0.052	0.006
-285.559	-200.000	0.022	0.214
-284.545	-53.306	0.392	0.178
-283.530	-12.517	-0.145	-0.094
-282.516	-114.608	0.116	0.022
-281.501	148.342	-0.186	0.248
-280.486	394.679	0.166	0.342
-279.472	-200.000	0.009	0.322
-278.457	-105.031	-0.078	0.018
-277.443	6.547	0.269	0.197
-276.428	12.611	-0.302	-0.231
-275.413	314.096	-0.020	-0.036
-274.399	105.822	-0.303	0.354
-273.384	-111.481	-0.114	0.023
-272.370	56.032	-0.054	-0.052
-271.355	-44.347	0.163	0.081
-270.340	-115.065	0.183	-0.034
-269.326	-37.551	0.149	0.079
-268.311	-200.000	0.040	-0.272
-267.297	-56.336	-0.234	0.103
-266.282	-101.617	-0.151	-0.036
-265.267	-50.970	-0.209	0.097
-264.253	-161.734	0.106	-0.005
-263.238	-65.814	0.123	0.049
-262.224	-200.000	0.038	-0.187
-261.209	630.696	-0.014	-0.034
-260.195	339.738	0.226	-0.436
-259.180	33.381	0.303	-0.260
-258.165	70.984	-0.155	0.159
-257.151	-200.000	0.008	0.354
-256.136	11.593	0.223	0.169
-255.122	-123.613	0.079	-0.012
-254.107	184.805	-0.254	0.372
-253.092	797.780	0.079	0.215
-252.078	11.213	-0.243	0.184
-251.063	-166.015	0.181	-0.008
-250.049	11.175	-0.183	0.138
-249.034	-3.596	0.191	0.131
-248.019	800.000	0.096	0.389
-247.005	788.713	0.172	0.467
-245.990	-200.000	-0.022	0.148
-244.976	-41.282	-0.383	0.195
-243.961	-19.080	-0.131	-0.080
-242.946	143.717	0.018	-0.024
-241.932	181.575	0.061	-0.089
-240.917	800.000	0.016	-0.049
-239.903	287.838	-0.156	0.279
-238.888	-200.000	-0.034	-0.265
-237.873	800.000	0.028	0.115
-236.859	-99.862	-0.354	0.087
-235.844	42.393	-0.126	-0.113
-234.830	-40.176	0.308	-0.158
-233.815	-83.354	0.080	-0.025
-232.800	-101.175	0.093	0.023
-231.786	289.033	0.157	-0.281
-230.771	-97.386	0.220	0.056
-229.757	263.934	0.086	0.147
-228.742	180.243	0.117	-0.170
-227.727	525.885	0.129	0.298
-226.713	-129.523	-0.239	-0.033
-225.698	281.455	-0.136	0.240
-224.684	-37.609	0.130	0.068
-223.669	800.000	-0.083	-0.235
-222.655	307.294	0.049	-0.089
-221.640	61.055	0.112	0.110
-220.625	800.000	-0.072	-0.243
-219.611	-200.000	-0.037	0.273
-218.596	-200.000	-0.040	0.261
-217.582	-176.937	0.478	0.012
-216.567	72.579	0.336	0.346
-215.552	-29.640	0.127	-0.072
-214.538	5.050	0.202	-0.146
-213.523	-18.432	0.180	0.111
-212.509	-137.290	-0.191	0.021
-211.494	437.209	0.124	-0.267
-210.479	764.627	0.078	-0.209
-209.465	-99.766	-0.240	0.059
-208.450	800.000	-0.055	0.166
-207.436	270.730	0.098	-0.170
-206.421	-200.000	0.025	0.388
-205.406	-21.122	0.469	-0.283
-204.392	-3.637	-0.245	-0.168
-203.377	641.380	-0.053	0.132
-202.363	-56.730	0.127	0.055
-201.348	-122.119	0.288	0.047
-200.333	-151.248	-0.130	0.010
-199.319	-1.321	0.222	-0.154
-198.304	-193.481	0.110	-0.001
-197.290	271.053	0.195	0.337
-196.275	-88.962	-0.071	-0.021
-195.260	-200.000	0.007	-0.088
-194.246	98.846	0.149	0.169
-193.231	-45.917	0.214	-0.104
-192.217	-200.000	0.018	-0.120
-191.202	25.251	-0.262	-0.214
-190.187	113.160	-0.427	-0.510
-189.173	15.868	-0.080	-0.062
-188.158	-14.067	-0.073	-0.046
-187.144	73.535	-0.172	0.178
-186.129	67.531	-0.244	-0.245
-185.114	-200.000	0.043	0.267
-184.100	250.359	0.091	0.153
-183.085	-47.126	-0.168	0.081
-182.071	209.465	-0.016	0.025
-181.056	389.199	-0.061	-0.124
-180.042	12.502	0.269	-0.204
-179.027	-200.000	0.004	0.061
-178.012	559.635	0.038	-0.090
-176.998	106.681	-0.083	-0.097
-175.983	-132.693	-0.024	0.003
-174.969	41.687	0.083	-0.074
-173.954	-200.000	-0.056	-0.377
-172.939	-116.911	0.093	-0.017
-171.925	307.717	0.081	0.148
-170.910	-36.305	0.049	0.026
-169.896	329.961	0.166	0.314
-168.881	-200.000	-0.052	-0.267
-167.866	80.823	0.213	-0.226
-166.852	-200.000	-0.019	0.239
-165.837	-120.974	-0.210	0.035
-164.823	-200.000	-0.018	0.261
-163.808	800.000	-0.115	0.405
-162.793	181.309	0.249	-0.361
-161.779	800.000	-0.039	0.131
-160.764	-23.262	0.171	0.101
-159.750	14.988	0.246	-0.189
-158.735	229.565	-0.127	-0.205
-157.720	24.350	-0.209	-0.170
-156.706	46.042	-0.164	-0.150
-155.691	259.947	0.188	-0.320
-154.677	-111.973	-0.060	0.012
-153.662	508.803	-0.128	0.292
-152.647	19.264	0.139	0.110
-151.633	55.165	0.300	0.285
-150.618	-105.471	0.361	-0.081
-149.604	32.179	0.185	0.157
-148.589	653.024	0.026	-0.064
-147.574	-200.000	-0.030	0.395
-146.560	224.466	0.034	0.054
-145.545	20.795	-0.186	-0.148
-144.531	-198.918	0.251	0.001
-143.516	495.203	-0.077	0.174
-142.502	-104.237	-0.168	0.038
-141.487	-72.946	0.342	0.124
-140.472	-24.028	0.307	-0.180
-139.458	-96.937	0.414	0.107
-138.443	-100.394	-0.107	0.026
-137.429	-50.531	0.173	-0.080
-136.414	-80.018	-0.260	0.086
-135.399	-200.000	-0.071	-0.408
-134.385	-200.000	-0.004	-0.126
-133.370	550.917	0.108	0.255
-132.356	-24.120	0.210	-0.123
-131.341	-131.081	-0.159	-0.021
-130.326	66.768	0.074	0.074
-129.312	146.993	0.181	-0.240
-128.297	-178.656	-0.322	-0.007
-127.283	-38.019	0.147	0.076
-126.268	516.110	0.109	0.250
-125.253	105.263	0.081	0.094
-124.239	323.572	0.028	0.053
-123.224	190.581	-0.205	0.302
-122.210	125.195	0.201	0.249
-121.195	-200.000	0.094	-0.425
-120.180	25.003	-0.074	0.061
-119.166	-65.513	0.400	0.158
-118.151	98.743	0.200	0.226
-117.137	800.000	0.115	0.354
-116.122	19.240	0.256	-0.202
-115.107	-14.537	0.128	-0.081
-114.093	-200.000	0.024	0.309
-113.078	581.236	0.037	-0.090
-112.064	-102.998	-0.239	-0.056
-111.049	-64.664	-0.301	-0.120
-110.034	-52.573	-0.171	-0.078
-109.020	10.316	-0.292	-0.218
-108.005	101.710	-0.136	-0.156
-106.991	379.682	-0.113	-0.227
-105.976	-200.000	-0.006	-0.060
-104.962	-200.000	-0.329	-0.001
-103.947	800.000	-0.024	-0.094
-102.932	12.483	-0.134	0.101
-101.918	11.028	-0.157	0.118
-100.903	-200.000	0.041	0.324
-99.889	778.693	-0.114	0.306
-98.874	-72.446	0.141	-0.051
-97.859	-83.298	-0.175	0.055
-96.845	-200.000	0.023	-0.223
-95.830	-60.028	-0.103	-0.043
-94.816	550.730	0.025	0.060
-93.801	315.920	-0.177	0.327
-92.786	-200.000	-0.028	0.147
-91.772	146.929	0.059	-0.077
-90.757	397.367	-0.120	0.246
-89.743	-157.088	0.254	0.015
-88.728	-200.000	-0.006	-0.063
-87.713	149.953	-0.108	-0.144
-86.699	129.371	0.053	-0.067
-85.684	-109.348	0.036	0.007
-84.670	10.788	-0.177	-0.132
-83.655	290.964	-0.043	-0.077
-82.640	111.888	0.179	0.212
-81.626	-136.881	-0.316	-0.036
-80.611	-45.568	0.170	-0.082
-79.597	800.000	0.066	-0.227
-78.582	-8.443	-0.038	-0.025
-77.567	93.847	-0.103	0.114
-76.553	-200.000	-0.040	-0.293
-75.538	-139.232	0.200	0.021
-74.524	128.594	-0.026	-0.032
-73.509	18.136	-0.170	-0.133
-72.494	-25.843	0.441	-0.255
-71.480	-44.201	-0.233	-0.115
-70.465	-200.000	0.000	0.287
-69.451	800.000	-0.044	0.188
-68.436	617.901	0.024	0.060
-67.422	-200.000	-0.034	0.155
-66.407	-143.851	0.187	0.017
-65.392	45.454	0.282	0.255
-64.378	55.521	0.184	-0.174
-63.363	-200.000	-0.026	-0.153
-62.349	800.000	0.023	-0.079
-61.334	91.543	-0.959	-1.057
-60.319	191.594	0.453	0.669
-59.305	100.114	-0.727	-0.826
-58.290	300.256	0.574	1.038
-57.276	416.661	0.739	1.544
-56.261	-200.000	105.679	609.989
-55.246	503.374	1506.617	3413.383
-54.232	176.561	2701.090	3846.102
-53.217	111.901	2165.327	2561.635
-52.203	41.571	1597.877	1417.256
-51.188	33.002	1331.975	1130.363
-50.173	29.951	1290.676	1077.550
-49.159	54.145	1344.340	1266.687
-48.144	54.719	1360.218	1285.004
-47.130	33.193	1314.987	1116.899
-46.115	29.608	1297.245	1080.857
-45.100	29.557	1291.932	1076.087
-44.086	29.427	1289.890	1073.590
-43.071	29.413	1287.356	1071.356
-42.057	29.514	1284.788	1069.761
-41.042	29.405	1283.662	1068.150
-40.027	29.539	1281.855	1067.382
-39.013	29.441	1280.501	1065.643
-37.998	29.559	1278.412	1064.541
-36.984	29.542	1276.499	1062.809
-35.969	29.554	1274.525	1061.194
-34.954	29.533	1272.868	1059.652
-33.940	29.622	1271.556	1059.029
-32.925	29.601	1270.564	1058.036
-31.911	29.690	1268.850	1057.080
-30.896	29.713	1267.288	1055.867
-29.881	29.842	1265.679	1055.220
-28.867	29.706	1264.549	1053.460
-27.852	29.621	1263.371	1051.955
-26.838	29.698	1262.369	1051.517
-25.823	29.698	1260.685	1050.073
-24.809	29.648	1259.640	1048.874
-23.794	29.552	1258.399	1047.257
-22.779	29.677	1256.486	1046.331
-21.765	29.645	1255.464	1045.254
-20.750	29.758	1253.593	1044.294
-19.736	29.629	1252.283	1042.435
-18.721	29.472	1251.592	1040.935
-17.706	29.448	1250.625	1039.952
-16.692	29.589	1249.429	1039.711
-15.677	29.492	1248.310	1038.190
-14.663	29.526	1247.204	1037.422
-13.648	29.469	1246.541	1036.509
-12.633	29.470	1245.362	1035.493
-11.619	29.537	1244.253	1034.904
-10.604	29.399	1243.698	1033.631
-9.590	29.431	1242.536	1032.805
-8.575	29.354	1241.751	1031.676
-7.560	29.407	1241.036	1031.342
-6.546	29.469	1240.252	1030.992
-5.531	29.546	1238.556	1029.970
-4.517	29.612	1237.904	1029.759
-3.502	29.538	1237.637	1029.081
-2.487	29.515	1236.541	1028.003
-1.473	29.433	1232.715	1024.324
-0.458	28.165	1217.552	1004.728
0.556	22.380	1201.004	968.465
1.571	18.918	1206.121	953.340
2.586	18.264	1220.373	960.849
3.600	18.077	1210.048	951.593
4.615	13.676	1139.289	872.751
5.629	4.664	1064.600	770.959
6.644	-0.016	1044.594	733.604
7.659	-0.333	1041.904	730.106
8.673	-0.263	1040.533	729.422
9.688	-0.506	1039.306	727.320
10.702	-0.058	1038.022	728.528
11.717	6.009	1046.882	764.273
12.731	15.151	1059.491	818.258
13.746	19.533	1064.645	843.624
14.761	20.566	1065.604	849.361
15.775	20.439	1065.341	848.455
16.790	20.352	1063.847	846.767
17.804	20.242	1064.169	846.412
18.819	20.337	1063.209	846.036
19.834	20.410	1063.005	846.153
20.848	20.518	1062.277	846.026
21.863	20.504	1061.896	845.577
22.877	20.373	1061.414	844.485
23.892	20.243	1060.716	843.222
24.907	20.482	1059.814	843.593
25.921	20.340	1059.264	842.388
26.936	20.325	1057.579	840.901
27.950	20.355	1055.805	839.561
28.965	20.266	1053.865	837.516
29.980	20.311	1052.203	836.340
30.994	20.487	1051.377	836.453
32.009	20.439	1049.928	834.998
33.023	20.301	1048.783	833.349
34.038	20.302	1048.349	832.938
35.053	20.509	1047.413	833.110
36.067	20.420	1046.663	832.013
37.082	20.556	1045.689	831.820
38.096	20.694	1045.305	832.099
39.111	20.630	1044.392	830.993
40.126	20.613	1043.077	829.791
41.140	20.276	1041.379	826.761
42.155	20.130	1039.582	824.568
43.169	20.206	1039.040	824.426
44.184	20.086	1038.424	823.297
45.199	20.060	1037.023	821.988
46.213	20.127	1035.705	821.187
47.228	20.241	1035.241	821.284
48.242	20.361	1034.073	820.856
49.257	20.231	1034.141	820.224
50.271	20.436	1032.455	819.778
51.286	20.475	1031.992	819.524
52.301	20.525	1030.918	818.835
53.315	20.355	1030.050	817.270
54.330	20.322	1029.345	816.486
55.344	20.479	1028.497	816.477
56.359	20.360	1027.638	815.164
57.374	20.311	1026.293	813.794
58.388	20.300	1025.500	813.045
59.403	20.185	1024.927	811.978
60.417	20.089	1023.997	810.722
61.432	20.166	1023.594	810.692
62.447	20.281	1022.826	810.546
63.461	20.319	1022.121	810.094
64.476	20.245	1020.847	808.668
65.490	20.132	1019.779	807.222
66.505	20.144	1019.511	806.997
67.520	20.265	1018.618	806.779
68.534	20.044	1017.134	804.508
69.549	19.665	1016.574	802.236
70.563	19.765	1015.827	802.038
71.578	19.729	1014.990	801.139
72.593	19.687	1013.803	799.939
73.607	19.884	1013.121	800.238
74.622	20.085	1013.045	801.036
75.636	20.045	1012.687	800.498
76.651	19.958	1011.238	798.883
77.666	19.855	1011.071	798.204
78.680	19.938	1010.004	797.671
79.695	20.107	1009.306	797.829
80.709	20.059	1008.609	796.988
81.724	20.177	1007.498	796.579
82.739	20.315	1006.662	796.481
83.753	20.486	1006.303	796.912
84.768	20.707	1005.523	797.239
85.782	20.699	1004.603	796.401
86.797	20.661	1003.457	795.249
87.812	20.502	1002.559	793.741
88.826	20.632	1001.350	793.308
89.841	20.743	1000.325	792.928
90.855	20.662	999.666	791.966
91.870	20.648	998.860	791.197
92.884	20.510	997.750	789.621
93.899	20.512	996.610	788.655
94.914	20.529	996.278	788.402
95.928	20.381	995.233	786.832
96.943	20.299	993.704	785.185
97.957	20.202	992.160	783.458
98.972	19.837	991.405	781.143
99.987	20.068	990.923	781.735
101.001	20.387	989.883	782.284
102.016	20.415	988.747	781.445
103.030	20.181	987.983	779.717
104.045	20.090	987.276	778.681
105.060	20.050	986.093	777.501
106.074	20.204	985.369	777.552
107.089	20.628	984.944	779.045
108.103	20.490	983.857	777.503
109.118	20.185	982.784	775.222
110.133	20.291	981.912	774.938
111.147	20.058	980.147	772.435
112.162	19.919	979.554	771.283
113.176	20.081	979.267	771.712
114.191	20.092	978.267	770.901
115.206	19.797	977.153	768.648
116.220	19.799	975.955	767.643
117.235	19.964	975.191	767.708
118.249	19.884	974.619	766.834
119.264	19.926	973.738	766.259
120.279	19.809	973.146	765.209
121.293	19.977	972.334	765.245
122.308	19.934	971.588	764.400
123.322	19.849	970.244	762.901
124.337	19.658	968.676	760.761
125.352	19.289	967.061	757.801
126.366	19.284	966.202	757.039
127.381	20.055	965.839	760.072
128.395	20.436	965.503	761.412
129.410	20.529	964.696	761.115
130.424	20.366	963.612	759.480
131.439	20.383	962.418	758.545
132.454	20.389	961.835	758.044
133.468	20.380	960.580	756.947
134.483	20.418	960.249	756.787
135.497	20.591	959.279	756.706
136.512	20.711	958.604	756.632
137.527	20.710	957.873	755.982
138.541	20.662	956.924	754.960
139.556	20.620	956.086	754.046
140.570	20.671	955.507	753.746
141.585	20.671	954.597	752.959
142.600	20.751	953.149	752.098
143.614	20.706	953.103	751.798
144.629	20.891	952.498	752.054
145.643	20.854	950.297	750.090
146.658	20.757	949.005	748.587
147.673	20.626	948.359	747.449
148.687	20.645	947.207	746.559
149.702	20.457	946.780	745.348
150.716	20.560	945.563	744.766
151.731	20.655	944.789	744.497
152.746	20.861	944.348	744.965
153.760	20.843	943.769	744.366
154.775	20.763	943.223	743.524
155.789	20.913	942.141	743.247
156.804	20.715	941.321	741.689
157.819	20.851	940.693	741.709
158.833	20.958	939.969	741.527
159.848	20.912	939.004	740.504
160.862	20.667	937.777	738.434
161.877	20.715	937.008	737.964
162.892	20.852	936.226	737.864
163.906	20.543	935.241	735.715
164.921	20.848	933.854	735.848
165.935	20.733	933.393	734.934
166.950	20.720	932.385	734.020
167.964	20.954	930.929	733.793
168.979	20.582	930.410	731.754
169.994	20.583	929.647	731.095
171.008	20.838	929.101	731.671
172.023	20.964	927.862	731.158
173.037	20.644	927.057	729.119
174.052	20.553	926.082	727.909
175.067	20.649	925.535	727.815
176.081	20.623	925.028	727.245
177.096	20.670	924.445	726.918
178.110	20.435	923.368	725.023
179.125	20.213	922.862	723.636
180.140	20.321	921.751	723.152
181.154	20.320	921.988	723.271
182.169	20.692	921.369	724.268
183.183	20.817	921.160	724.561
184.198	20.684	920.157	723.155
185.213	20.701	919.521	722.662
186.227	20.873	918.657	722.634
187.242	20.708	918.230	721.548
188.256	20.866	917.015	721.186
189.271	20.928	916.124	720.678
190.286	20.653	915.237	718.779
191.300	20.015	913.892	715.027
192.315	19.411	912.414	711.317
193.329	19.270	912.252	710.546
194.344	20.246	912.466	714.673
195.359	20.714	912.555	716.604
196.373	20.760	911.905	716.220
197.388	20.567	911.303	714.891
198.402	20.496	910.986	714.288
199.417	20.713	909.653	714.070
200.432	20.451	908.755	712.228
201.446	20.333	907.699	710.855
202.461	20.286	907.352	710.326
203.475	19.481	905.391	705.439
204.490	18.800	904.657	702.025
205.504	19.644	905.091	705.747
206.519	20.302	904.664	708.037
207.534	20.424	904.267	708.163
208.548	20.745	903.957	709.162
209.563	20.499	902.764	707.166
210.577	20.605	902.264	707.140
211.592	20.967	902.081	708.408
212.607	20.928	900.943	707.294
213.621	20.852	900.915	706.898
214.636	20.821	899.906	705.918
215.650	20.740	899.489	705.203
216.665	20.889	898.818	705.217
217.680	20.926	897.555	704.314
218.694	20.474	896.307	701.447
219.709	20.361	895.741	700.487
220.723	20.721	895.432	701.635
221.738	20.717	894.585	700.893
222.753	20.675	894.276	700.420
223.767	20.807	893.758	700.482
224.782	21.012	893.503	701.042
225.796	20.888	893.023	700.109
226.811	20.305	891.192	696.273
227.826	19.760	890.080	693.156
228.840	19.958	889.692	693.589
229.855	19.877	889.246	692.853
230.869	19.545	888.264	690.699
231.884	20.131	888.137	692.881
232.899	20.940	887.739	695.740
233.913	20.690	887.324	694.356
234.928	20.727	886.460	693.765
235.942	20.654	885.939	693.007
236.957	20.381	885.284	691.345
237.972	20.284	884.656	690.410
238.986	20.463	884.438	690.888
240.001	20.438	883.475	689.978
241.015	20.511	882.949	689.794
242.030	20.631	882.389	689.771
243.045	20.846	881.544	689.901
244.059	20.931	881.261	689.957
245.074	20.698	880.282	688.207
246.088	20.332	879.651	686.206
247.103	20.648	878.870	686.784
248.117	21.221	878.842	688.964
249.132	21.363	878.234	688.983
250.147	21.368	877.788	688.594
251.161	21.607	877.240	689.044
252.176	21.424	876.709	687.848
253.190	21.477	876.392	687.743
254.205	21.685	875.816	688.049
255.220	21.663	875.154	687.382
256.234	21.616	874.307	686.471
257.249	21.480	873.394	685.160
258.263	21.401	873.400	684.797
259.278	21.508	872.559	684.495
260.293	21.446	872.120	683.846
261.307	21.517	871.202	683.344
262.322	21.312	870.246	681.732
263.336	20.382	868.204	676.452
264.351	19.491	866.390	671.513
265.366	19.677	865.941	671.829
266.380	20.773	866.621	676.561
267.395	21.169	866.402	677.865
268.409	21.114	865.589	676.957
269.424	21.371	865.162	677.561
270.439	21.255	864.847	676.806
271.453	21.596	863.644	677.122
272.468	21.600	863.644	677.077
273.482	21.756	862.906	677.043
274.497	21.193	862.121	674.191
275.512	20.856	861.157	672.079
276.526	21.363	861.026	673.871
277.541	21.396	860.394	673.447
278.555	21.265	859.753	672.380
279.570	21.111	858.719	670.919
280.585	21.308	857.832	670.924
281.599	21.204	857.012	669.825
282.614	20.540	856.324	666.680
283.628	20.604	856.039	666.647
284.643	21.025	854.924	667.331
285.657	20.737	853.790	665.285
286.672	20.375	853.678	663.757
287.687	20.953	853.283	665.598
288.701	20.956	853.070	665.385
289.716	20.583	852.475	663.435
290.730	20.515	851.765	662.567
291.745	20.430	850.325	661.065
292.760	20.649	850.614	662.066
293.774	21.611	851.008	665.974
294.789	21.988	850.483	666.935
295.803	21.986	849.939	666.444
296.818	21.917	849.307	665.627
297.833	21.521	848.014	663.054
298.847	21.353	847.546	661.995
299.862	21.666	847.437	663.033
300.876	21.954	847.027	663.746
301.891	21.771	846.036	662.220
302.906	21.451	844.880	660.045
303.920	21.599	844.525	660.272
304.935	21.790	844.809	661.153
305.949	21.872	843.765	660.586
306.964	21.703	843.112	659.383
307.979	21.597	842.941	658.791
308.993	22.004	842.662	660.044
310.008	22.037	841.749	659.395
311.022	21.796	841.054	657.887
312.037	21.706	840.331	656.926
313.052	21.386	839.363	654.915
314.066	20.639	838.308	651.237
315.081	20.255	837.793	649.343
316.095	21.160	837.952	652.793
317.110	21.594	837.703	654.163
318.125	20.840	835.828	649.829
319.139	19.869	834.665	645.248
320.154	19.880	834.216	644.888
321.168	20.714	834.776	648.369
322.183	21.413	834.504	650.704
323.197	21.355	834.191	650.185
324.212	21.713	834.182	651.453
325.227	21.703	833.342	650.703
326.241	21.759	832.466	650.171
327.256	21.560	832.275	649.225
328.270	21.551	831.147	648.255
329.285	21.265	830.456	646.599
330.300	21.047	829.678	645.130
331.314	21.352	829.551	646.099
332.329	21.744	829.052	647.104
333.343	21.872	829.060	647.526
334.358	21.821	828.630	646.944
335.373	21.995	827.794	646.874
336.387	22.258	827.798	647.791
337.402	22.211	828.247	647.912
338.416	22.143	827.167	646.757
339.431	22.194	827.402	647.071
340.446	22.345	826.707	647.027
341.460	22.370	825.827	646.374
342.475	22.073	825.729	645.147
343.489	22.198	825.466	645.345
344.504	22.345	825.296	645.694
345.519	22.402	824.759	645.425
346.533	22.602	824.153	645.625
347.548	22.586	823.938	645.343
348.562	22.561	823.357	644.738
349.577	22.357	823.191	643.807
350.592	22.459	822.027	643.210
351.606	22.598	820.985	642.847
352.621	22.444	820.129	641.557
353.635	22.282	819.730	640.598
354.650	21.635	817.917	636.773
355.665	20.784	816.437	632.474
356.679	21.278	816.417	634.196
357.694	21.602	815.913	634.925
358.708	21.369	815.865	633.987
359.723	21.895	815.357	635.443
360.738	22.130	815.047	635.994
361.752	22.445	814.236	636.444
362.767	22.616	814.337	637.085
363.781	22.753	814.202	637.417
364.796	22.888	813.549	637.336
365.810	22.796	813.119	636.611
366.825	22.735	812.728	636.031
367.840	22.598	811.948	634.868
368.854	22.148	811.175	632.588
369.869	22.299	810.653	632.668
370.883	22.280	810.047	632.073
371.898	22.140	809.756	631.287
372.913	22.053	809.702	630.878
373.927	22.511	808.535	631.553
374.942	22.612	808.452	631.796
375.956	22.594	808.180	631.461
376.971	22.746	807.601	631.496
377.986	23.065	806.632	631.824
379.000	22.893	807.025	631.463
380.015	22.650	806.609	630.211
381.029	22.878	805.738	630.288
382.044	22.976	805.124	630.103
383.059	22.975	804.443	629.510
384.073	23.008	803.979	629.210
385.088	22.921	803.738	628.654
386.102	22.585	802.975	626.806
387.117	22.639	802.367	626.471
388.132	22.343	801.218	624.466
389.146	21.730	800.339	621.553
390.161	22.140	800.381	622.982
391.175	22.602	800.048	624.306
392.190	22.393	798.636	622.410
393.205	20.911	797.097	615.922
394.219	19.584	795.401	609.873
395.234	19.585	795.358	609.791
396.248	21.270	796.665	616.692
397.263	22.697	797.159	622.056
398.278	22.453	796.599	620.704
399.292	22.276	796.189	619.707
400.307	22.144	795.955	619.004
401.321	22.429	795.529	619.621
402.336	22.803	795.404	620.787
403.350	23.018	795.566	621.611
404.365	23.354	794.858	622.186
405.380	23.507	794.533	622.413
406.394	23.453	794.122	621.848
407.409	23.511	793.424	621.447
408.423	23.472	793.004	620.926
409.438	23.546	792.789	620.963
410.453	23.506	792.435	620.489
411.467	23.523	791.964	620.125
412.482	23.427	791.573	619.431
413.496	23.531	791.155	619.411
414.511	23.590	790.584	619.116
415.526	23.497	790.256	618.479
416.540	23.467	789.566	617.780
417.555	23.271	788.815	616.455
418.569	23.300	788.618	616.347
419.584	23.083	787.930	614.999
420.599	23.216	787.204	614.843
421.613	158.149	1364.872	1799.795
422.628	136.877	1449.027	1799.893
