DTS Sentinel unit serial number:	SN413079Multiplexer serial number:	ORYXHardware model number:	OX4-SRSoftware version number:	ORYX F/W v4.00 Oryx Data Collector v3.7.2.0data status	okinstallation	princeton_trtdifferential loss correction	single-endedforward channel	channel 1reverse channel	N/Adate	2019/09/18time	06:38:35forward acquisition time	60.00reverse acquisition time	0.00gamma	496.2192k internal	0.2339k external	0.2339temperature offset calibration	0.9982default loss term (dB/km)	0.3790temperature slope calibration	1.0000multiplexer offset coefficient	1.0000multiplexer slope coefficient	1.0000fibre end	0.00T internal ref (°C)	23.27T ext. ref 1 (°C)	0.19T ext. ref 2 (°C)	17.17length (m)	temperature (°C)	Stokes	anti-Stokes-747.200	9.001	0.166	-0.125
-746.185	187.258	-0.222	0.332
-745.171	-93.775	-0.275	0.076
-744.156	434.273	-0.174	0.380
-743.142	-68.027	-0.242	-0.095
-742.127	-200.000	0.066	0.316
-741.112	486.821	0.045	0.102
-740.098	201.326	0.199	0.308
-739.083	800.000	-0.042	0.148
-738.069	-200.000	-0.025	0.278
-737.054	42.232	-0.235	0.214
-736.039	15.132	-0.243	-0.191
-735.025	27.605	0.206	0.174
-734.010	-98.859	-0.494	-0.126
-732.996	-29.219	-0.236	-0.136
-731.981	800.000	0.118	-0.395
-730.966	-20.095	-0.013	-0.008
-729.952	11.979	-0.211	0.163
-728.937	31.419	-0.145	0.125
-727.923	800.000	-0.002	0.009
-726.908	168.041	-0.025	-0.035
-725.894	511.817	0.054	0.126
-724.879	102.748	-0.222	-0.261
-723.864	571.162	-0.096	-0.235
-722.850	93.673	-0.233	-0.264
-721.835	94.404	-0.118	-0.134
-720.821	-104.142	-0.274	0.064
-719.806	-86.037	-0.199	0.062
-718.791	-49.270	-0.159	-0.076
-717.777	-200.000	0.103	-0.465
-716.762	443.166	-0.049	-0.107
-715.748	800.000	0.076	-0.226
-714.733	36.307	-0.136	0.120
-713.718	363.477	0.065	-0.132
-712.704	-200.000	0.071	-0.339
-711.689	19.320	-0.145	-0.117
-710.675	-120.946	-0.021	0.004
-709.660	-149.468	-0.148	-0.012
-708.645	-200.000	-0.023	0.139
-707.631	-200.000	0.076	0.445
-706.616	-37.234	-0.169	0.091
-705.602	192.007	-0.212	0.321
-704.587	88.941	0.090	-0.101
-703.572	-129.714	0.184	0.025
-702.558	364.711	-0.045	0.092
-701.543	75.507	-0.176	-0.187
-700.529	292.579	-0.240	-0.438
-699.514	-200.000	-0.002	-0.021
-698.499	-200.000	-0.050	0.434
-697.485	-128.460	0.275	-0.039
-696.470	-98.073	0.148	-0.038
-695.456	-200.000	-0.015	-0.148
-694.441	800.000	0.038	-0.127
-693.426	-142.573	-0.224	-0.022
-692.412	-86.385	-0.273	0.084
-691.397	13.191	0.264	0.205
-690.383	800.000	0.158	0.455
-689.368	17.746	-0.238	-0.189
-688.354	494.207	-0.024	0.056
-687.339	-200.000	-0.003	-0.035
-686.324	163.031	0.067	0.094
-685.310	800.000	-0.082	-0.230
-684.295	215.430	0.082	-0.130
-683.281	-66.744	0.180	0.071
-682.266	54.606	-0.181	0.175
-681.251	-24.557	0.278	-0.165
-680.237	-70.890	-0.194	0.073
-679.222	-200.000	0.012	0.323
-678.208	800.000	-0.041	0.173
-677.193	-200.000	0.011	0.068
-676.178	30.808	0.241	-0.207
-675.164	-200.000	0.024	-0.292
-674.149	-161.150	0.207	-0.011
-673.135	-0.024	0.164	0.117
-672.120	169.468	0.200	0.286
-671.105	12.299	-0.122	-0.094
-670.091	-151.124	0.092	-0.007
-669.076	-152.839	0.103	-0.007
-668.062	-30.865	-0.191	0.108
-667.047	-81.558	-0.369	-0.121
-666.032	800.000	-0.094	0.269
-665.018	-46.094	0.171	-0.084
-664.003	-12.169	0.027	0.018
-662.989	-38.280	-0.358	-0.189
-661.974	-114.946	0.309	-0.059
-660.959	306.823	0.050	-0.092
-659.945	282.924	-0.101	-0.181
-658.930	19.080	-0.106	-0.085
-657.916	4.986	-0.182	-0.134
-656.901	-128.092	-0.204	0.029
-655.886	192.128	-0.131	-0.198
-654.872	-27.321	0.326	-0.190
-653.857	536.196	0.087	0.206
-652.843	41.664	0.148	0.134
-651.828	-190.933	-0.251	-0.003
-650.814	800.000	-0.107	0.326
-649.799	86.282	-0.114	-0.125
-648.784	-185.862	-0.044	-0.001
-647.770	46.364	-0.111	0.103
-646.755	-200.000	0.032	-0.247
-645.741	246.148	0.158	-0.266
-644.726	-144.841	-0.121	-0.011
-643.711	149.094	-0.081	-0.109
-642.697	219.302	-0.079	-0.126
-641.682	-50.373	-0.121	-0.057
-640.668	-95.478	-0.244	-0.065
-639.653	320.132	-0.239	-0.454
-638.638	239.328	0.148	-0.247
-637.624	-19.346	-0.112	0.069
-636.609	-88.636	-0.177	-0.053
-635.595	788.518	0.026	0.071
-634.580	76.895	0.049	0.052
-633.565	383.134	-0.100	0.205
-632.551	749.224	0.114	-0.306
-631.536	53.829	-0.073	0.070
-630.522	-66.132	0.086	0.034
-629.507	308.288	0.083	0.155
-628.492	84.775	-0.122	0.134
-627.478	-200.000	0.000	0.072
-626.463	800.000	0.054	-0.230
-625.449	-200.000	-0.054	0.300
-624.434	-116.971	0.185	0.034
-623.419	624.133	-0.064	-0.162
-622.405	47.855	0.255	-0.238
-621.390	89.759	-0.077	-0.086
-620.376	-109.009	-0.229	0.049
-619.361	-187.002	0.201	-0.003
-618.346	800.000	-0.160	-0.518
-617.332	48.736	-0.124	-0.116
-616.317	-83.905	-0.447	-0.142
-615.303	278.235	-0.040	0.072
-614.288	-200.000	0.005	0.129
-613.273	-82.558	-0.495	-0.160
-612.259	-38.754	0.178	0.094
-611.244	-113.562	-0.377	0.074
-610.230	-93.096	0.165	0.046
-609.215	-111.760	-0.180	0.036
-608.201	-83.242	-0.310	-0.099
-607.186	247.483	0.035	-0.059
-606.171	-26.305	-0.175	-0.103
-605.157	3.719	0.073	0.053
-604.142	-200.000	0.036	0.239
-603.128	667.740	-0.144	-0.371
-602.113	-76.274	-0.298	0.105
-601.098	182.462	0.241	-0.355
-600.084	89.430	-0.111	-0.124
-599.069	-6.992	-0.154	0.104
-598.055	-200.000	0.006	0.060
-597.040	-110.659	-0.136	-0.028
-596.025	-200.000	-0.006	0.084
-595.011	-146.943	0.110	0.009
-593.996	-194.030	-0.353	0.003
-592.982	-200.000	-0.030	-0.337
-591.967	-42.156	0.248	-0.127
-590.952	-189.169	0.134	-0.002
-589.938	-14.369	-0.453	0.291
-588.923	-73.306	0.433	-0.158
-587.909	-200.000	0.039	-0.337
-586.894	-91.749	-0.147	0.042
-585.879	440.596	0.027	-0.059
-584.865	-65.867	-0.112	0.045
-583.850	137.928	-0.090	-0.117
-582.836	-200.000	-0.234	-0.001
-581.821	400.705	-0.114	0.238
-580.806	201.676	-0.213	0.327
-579.792	-92.933	0.192	-0.053
-578.777	151.389	-0.243	0.329
-577.763	16.298	-0.166	0.130
-576.748	23.724	-0.219	-0.180
-575.733	800.000	-0.064	-0.249
-574.719	-200.000	0.010	-0.136
-573.704	265.062	0.117	0.203
-572.690	-200.000	-0.066	0.399
-571.675	-200.000	0.033	0.331
-570.661	-34.138	0.279	0.153
-569.646	-200.000	-0.061	-0.277
-568.631	-76.301	0.099	-0.035
-567.617	-100.158	-0.277	0.069
-566.602	-200.000	-0.019	-0.382
-565.588	-55.946	0.185	-0.082
-564.573	-126.738	0.262	-0.039
-563.558	-123.705	0.329	0.052
-562.544	-200.000	-0.000	-0.241
-561.529	518.021	0.098	0.228
-560.515	-140.049	-0.323	-0.034
-559.500	-94.769	0.330	-0.089
-558.485	800.000	0.102	0.341
-557.471	-67.963	-0.234	-0.091
-556.456	328.264	0.055	-0.106
-555.442	-94.485	-0.071	0.019
-554.427	-27.382	-0.307	0.178
-553.412	-103.269	0.122	0.029
-552.398	-200.000	0.043	0.260
-551.383	-61.707	0.107	0.045
-550.369	317.391	0.075	0.141
-549.354	573.373	0.144	-0.351
-548.339	800.000	0.109	-0.299
-547.325	-62.394	0.251	-0.104
-546.310	287.038	-0.056	0.101
-545.296	-200.000	0.032	-0.159
-544.281	110.703	0.043	0.052
-543.266	160.318	0.209	0.290
-542.252	564.556	-0.045	0.108
-541.237	51.012	-0.262	0.247
-540.223	-6.549	-0.292	0.198
-539.208	-55.797	-0.192	0.085
-538.193	-36.854	-0.060	0.032
-537.179	-200.000	0.017	0.473
-536.164	-106.017	-0.111	0.025
-535.150	164.490	-0.144	0.202
-534.135	-200.000	0.040	-0.177
-533.121	-87.424	0.331	0.100
-532.106	152.914	0.179	0.243
-531.091	-200.000	0.058	-0.311
-530.077	-141.672	-0.189	-0.019
-529.062	-36.445	-0.312	0.167
-528.048	300.722	0.036	0.067
-527.033	662.827	0.116	0.299
-526.018	-120.360	-0.033	0.006
-525.004	451.874	-0.124	0.273
-523.989	-62.826	-0.270	-0.111
-522.975	-15.880	-0.273	-0.173
-521.960	800.000	-0.016	-0.066
-520.945	-200.000	0.012	0.140
-519.931	800.000	0.144	0.461
-518.916	-60.723	0.147	0.062
-517.902	-200.000	-0.050	0.223
-516.887	800.000	-0.039	-0.150
-515.872	-169.647	-0.388	0.014
-514.858	-72.930	0.195	-0.071
-513.843	-34.559	0.226	0.123
-512.829	-55.787	-0.283	0.126
-511.814	-53.140	-0.139	0.064
-510.799	126.289	0.203	-0.255
-509.785	-58.791	0.102	0.044
-508.770	510.199	0.106	-0.244
-507.756	272.269	0.144	0.252
-506.741	-167.407	-0.103	0.004
-505.726	-0.788	0.147	-0.104
-504.712	800.000	-0.017	-0.064
-503.697	-34.580	0.012	0.006
-502.683	50.123	0.099	-0.093
-501.668	-175.054	-0.459	-0.013
-500.653	-165.128	-0.062	-0.003
-499.639	-2.376	0.277	-0.193
-498.624	276.280	0.164	0.290
-497.610	-63.591	0.213	0.087
-496.595	-200.000	-0.010	0.122
-495.581	142.659	-0.131	0.173
-494.566	-200.000	0.027	0.342
-493.551	-200.000	0.033	-0.227
-492.537	-118.800	-0.225	-0.039
-491.522	800.000	-0.016	-0.060
-490.508	21.815	0.264	-0.214
-489.493	41.785	-0.144	-0.129
-488.478	-18.066	0.247	0.153
-487.464	-102.691	0.354	-0.084
-486.449	800.000	-0.092	-0.320
-485.435	800.000	-0.038	0.136
-484.420	104.700	0.213	0.249
-483.405	-103.079	0.247	0.058
-482.391	409.361	0.072	0.152
-481.376	-17.479	-0.239	-0.149
-480.362	300.509	0.035	-0.065
-479.347	4.320	0.174	-0.126
-478.332	267.687	0.053	0.092
-477.318	-200.000	0.016	0.099
-476.303	96.302	-0.269	0.305
-475.289	800.000	-0.053	0.168
-474.274	-108.457	0.305	-0.065
-473.259	147.258	-0.094	0.126
-472.245	-200.000	-0.010	0.109
-471.230	-200.000	0.035	-0.268
-470.216	292.436	0.104	-0.188
-469.201	-78.269	0.254	-0.087
-468.186	-174.213	0.316	-0.009
-467.172	800.000	-0.088	-0.243
-466.157	31.879	0.165	0.141
-465.143	-80.409	0.020	0.007
-464.128	65.815	0.259	0.260
-463.113	800.000	0.052	-0.189
-462.099	-125.454	0.160	-0.024
-461.084	-139.202	0.122	-0.013
-460.070	-200.000	-0.077	-0.349
-459.055	198.216	0.141	-0.214
-458.040	-58.674	-0.122	0.052
-457.026	445.904	-0.132	-0.288
-456.011	-97.923	0.085	-0.022
-454.997	800.000	0.076	0.226
-453.982	-200.000	-0.004	0.260
-452.968	3.429	0.195	-0.141
-451.953	98.769	-0.053	0.060
-450.938	-166.907	-0.214	-0.009
-449.924	89.398	0.143	0.158
-448.909	-120.065	0.084	0.014
-447.895	-60.031	-0.059	-0.025
-446.880	-200.000	0.027	-0.160
-445.865	-148.571	-0.122	0.010
-444.851	-81.721	0.291	0.095
-443.836	-76.319	0.197	0.069
-442.822	-200.000	0.051	-0.361
-441.807	-82.244	-0.171	-0.055
-440.792	219.410	0.295	0.468
-439.778	-200.000	-0.000	0.202
-438.763	800.000	0.075	0.285
-437.749	13.953	-0.057	-0.044
-436.734	-200.000	-0.002	-0.219
-435.719	800.000	0.053	-0.192
-434.705	33.554	0.254	-0.219
-433.690	226.457	0.109	0.175
-432.676	-53.871	-0.310	0.140
-431.661	800.000	-0.110	-0.357
-430.646	-52.799	0.151	0.069
-429.632	71.992	-0.072	-0.074
-428.617	110.686	-0.169	0.201
-427.603	-182.890	0.389	0.007
-426.588	800.000	0.078	0.326
-425.573	-200.000	0.017	-0.080
-424.559	107.329	0.204	-0.240
-423.544	-200.000	0.004	0.150
-422.530	9.540	-0.242	0.181
-421.515	96.142	0.163	0.184
-420.500	800.000	-0.098	-0.359
-419.486	-52.949	-0.139	0.064
-418.471	-200.000	-0.019	-0.284
-417.457	-99.698	0.356	-0.088
-416.442	-88.210	0.245	0.073
-415.428	781.875	-0.043	0.116
-414.413	19.560	-0.137	0.109
-413.398	-50.822	0.343	-0.160
-412.384	-166.767	-0.302	0.012
-411.369	280.348	0.149	-0.264
-410.355	120.219	-0.080	0.099
-409.340	-96.365	-0.245	0.064
-408.325	6.850	0.201	0.148
-407.311	339.455	-0.114	-0.221
-406.296	-101.323	-0.042	-0.010
-405.282	-153.475	0.141	-0.010
-404.267	285.243	-0.077	0.137
-403.252	274.020	-0.130	-0.227
-402.238	-199.854	0.277	0.001
-401.223	3.570	-0.377	0.272
-400.209	63.213	0.155	0.153
-399.194	-113.015	-0.244	0.048
-398.179	236.485	-0.070	-0.115
-397.165	3.700	0.082	0.059
-396.150	82.099	-0.134	-0.143
-395.136	282.092	0.046	-0.081
-394.121	147.402	-0.142	-0.189
-393.106	-84.196	0.299	-0.094
-392.092	-200.000	0.058	0.271
-391.077	800.000	-0.040	0.131
-390.063	-62.044	-0.223	-0.092
-389.048	-120.987	0.301	-0.050
-388.033	-200.000	-0.017	-0.277
-387.019	-124.458	-0.344	-0.053
-386.004	711.309	0.162	0.425
-384.990	-21.605	0.083	-0.050
-383.975	-19.514	-0.279	-0.171
-382.960	-200.000	0.297	0.001
-381.946	58.413	-0.062	-0.061
-380.931	-21.054	0.291	0.176
-379.917	800.000	0.126	-0.450
-378.902	-177.777	0.326	-0.008
-377.888	-200.000	-0.081	0.555
-376.873	-200.000	-0.014	-0.159
-375.858	-94.121	-0.176	0.048
-374.844	800.000	-0.082	0.351
-373.829	32.347	0.082	0.070
-372.815	-76.478	-0.255	-0.088
-371.800	800.000	0.030	0.098
-370.785	-200.000	-0.019	0.224
-369.771	-200.000	0.040	0.445
-368.756	800.000	0.067	0.240
-367.742	353.788	0.092	0.181
-366.727	800.000	0.074	0.289
-365.712	-66.162	-0.083	0.033
-364.698	444.416	0.147	0.319
-363.683	800.000	-0.034	0.101
-362.669	34.681	-0.082	-0.071
-361.654	-169.940	-0.351	-0.012
-360.639	-6.680	0.213	0.144
-359.625	-26.674	0.326	-0.188
-358.610	-122.154	-0.352	-0.057
-357.596	24.259	0.198	0.162
-356.581	-2.561	0.093	0.065
-355.566	800.000	0.086	-0.257
-354.552	155.527	0.079	-0.108
-353.537	-33.022	-0.395	0.216
-352.523	-200.000	0.016	-0.105
-351.508	204.946	0.039	0.060
-350.493	196.463	-0.030	-0.045
-349.479	-200.000	0.004	-0.196
-348.464	-102.221	-0.076	0.018
-347.450	255.555	0.219	-0.370
-346.435	-200.000	-0.049	-0.566
-345.420	21.383	0.306	0.245
-344.406	-200.000	-0.025	0.312
-343.391	-200.000	0.062	0.334
-342.377	654.596	-0.082	-0.209
-341.362	800.000	-0.082	0.291
-340.348	173.730	0.259	0.369
-339.333	4.701	0.242	0.175
-338.318	107.683	0.138	-0.163
-337.304	-117.654	0.267	-0.048
-336.289	-59.004	0.135	-0.057
-335.275	-124.170	-0.420	-0.065
-334.260	609.280	0.096	0.236
-333.245	125.949	0.103	-0.129
-332.231	-11.597	-0.043	0.028
-331.216	185.965	0.308	0.451
-330.202	655.550	-0.107	0.270
-329.187	-200.000	0.046	-0.207
-328.172	-158.308	-0.153	-0.009
-327.158	-152.087	-0.334	0.024
-326.143	-123.494	-0.450	-0.071
-325.129	800.000	-0.036	-0.102
-324.114	3.495	-0.137	0.098
-323.099	171.091	-0.274	-0.388
-322.085	-145.104	0.151	-0.014
-321.070	800.000	-0.127	-0.393
-320.056	517.999	0.080	-0.185
-319.041	315.449	0.056	-0.105
-318.026	196.857	-0.193	0.290
-317.012	-200.000	-0.053	-0.429
-315.997	-200.000	-0.012	-0.123
-314.983	-200.000	-0.033	-0.211
-313.968	-200.000	0.039	0.239
-312.953	-200.000	-0.022	-0.389
-311.939	-122.776	-0.089	-0.014
-310.924	-78.334	0.315	-0.107
-309.910	-200.000	0.034	0.298
-308.895	-200.000	-0.037	0.193
-307.880	-200.000	0.019	0.129
-306.866	-164.689	-0.159	-0.007
-305.851	-200.000	-0.036	0.183
-304.837	-61.785	0.425	0.175
-303.822	800.000	-0.064	-0.182
-302.807	-123.623	-0.065	-0.010
-301.793	82.249	-0.484	0.518
-300.778	-84.243	-0.135	-0.042
-299.764	406.214	0.048	0.100
-298.749	-34.536	0.171	-0.092
-297.735	10.379	-0.129	-0.097
-296.720	12.433	-0.280	-0.213
-295.705	-200.000	-0.002	-0.102
-294.691	183.553	0.024	-0.035
-293.676	-12.455	0.156	0.101
-292.662	285.603	-0.125	-0.222
-291.647	-134.066	-0.267	-0.033
-290.632	495.361	0.122	-0.276
-289.618	-72.213	-0.096	0.035
-288.603	800.000	-0.057	-0.207
-287.589	610.406	-0.038	0.093
-286.574	18.866	-0.131	-0.104
-285.559	2.091	0.290	-0.207
-284.545	293.799	0.048	-0.086
-283.530	-200.000	0.009	0.313
-282.516	-129.832	0.118	0.016
-281.501	413.075	0.067	-0.141
-280.486	800.000	-0.057	0.223
-279.472	160.254	-0.151	0.207
-278.457	-200.000	0.075	0.431
-277.443	800.000	0.080	0.319
-276.428	800.000	0.057	-0.163
-275.413	-38.435	0.145	-0.075
-274.399	-155.717	0.216	-0.014
-273.384	-85.542	0.086	0.026
-272.370	-149.023	0.250	0.020
-271.355	36.513	-0.075	-0.065
-270.340	-125.415	-0.226	-0.034
-269.326	-200.000	-0.044	-0.303
-268.311	96.571	-0.226	-0.254
-267.297	57.089	0.104	0.100
-266.282	134.983	-0.106	0.136
-265.267	148.501	0.054	0.071
-264.253	7.753	0.060	-0.044
-263.238	-200.000	0.019	0.139
-262.224	-3.364	-0.240	0.165
-261.209	-160.026	-0.364	0.020
-260.195	-69.925	0.284	0.107
-259.180	10.786	-0.355	-0.266
-258.165	40.378	-0.097	-0.086
-257.151	800.000	-0.015	0.051
-256.136	-200.000	-0.005	0.164
-255.122	100.994	0.174	-0.199
-254.107	-103.817	0.258	-0.059
-253.092	73.724	-0.242	-0.250
-252.078	-95.566	0.022	-0.006
-251.063	-179.963	-0.391	-0.008
-250.049	203.504	0.181	-0.275
-249.034	-75.001	-0.187	-0.066
-248.019	177.056	0.251	-0.360
-247.005	-44.164	0.210	-0.103
-245.990	800.000	-0.116	0.325
-244.976	91.696	0.062	-0.069
-243.961	-78.929	0.163	0.054
-242.946	47.895	-0.327	-0.300
-241.932	800.000	0.098	0.417
-240.917	258.261	0.052	-0.088
-239.903	16.631	0.215	0.167
-238.888	558.282	-0.088	-0.210
-237.873	-167.986	0.203	-0.008
-236.859	39.031	-0.233	0.205
-235.844	462.704	0.081	0.178
-234.830	800.000	0.031	0.102
-233.815	-101.090	-0.147	0.035
-232.800	780.157	0.059	-0.159
-231.786	-129.307	-0.365	-0.050
-230.771	174.963	-0.118	-0.169
-229.757	800.000	-0.021	-0.074
-228.742	-155.058	-0.135	0.009
-227.727	-112.037	0.062	0.012
-226.713	800.000	-0.054	-0.203
-225.698	-114.629	0.112	-0.021
-224.684	106.221	0.215	-0.251
-223.669	-200.000	0.011	0.231
-222.655	357.126	0.102	0.201
-221.640	-30.245	0.229	0.128
-220.625	-200.000	0.203	0.001
-219.611	26.600	0.164	0.135
-218.596	-62.391	-0.320	-0.131
-217.582	150.971	0.229	-0.306
-216.567	-21.437	-0.314	-0.188
-215.552	199.559	0.139	-0.209
-214.538	784.212	-0.079	0.212
-213.523	-200.000	0.021	-0.094
-212.509	273.110	-0.069	-0.119
-211.494	-179.912	-0.355	0.007
-210.479	82.271	-0.023	0.025
-209.465	407.700	0.097	-0.201
-208.450	-16.242	0.147	-0.092
-207.436	-96.769	0.162	-0.042
-206.421	-200.000	0.273	-0.000
-205.406	-92.668	-0.082	0.023
-204.392	36.856	0.286	-0.249
-203.377	43.641	0.119	0.107
-202.363	84.505	-0.342	-0.368
-201.348	800.000	-0.065	0.247
-200.333	-118.039	-0.061	-0.011
-199.319	-49.432	0.224	0.105
-198.304	-200.000	-0.069	-0.355
-197.290	-200.000	0.006	0.114
-196.275	-181.592	0.128	-0.002
-195.260	621.513	0.109	0.269
-194.246	-200.000	-0.020	-0.105
-193.231	-17.720	-0.521	-0.321
-192.217	800.000	0.087	-0.319
-191.202	800.000	-0.066	-0.191
-190.187	-200.000	-0.016	0.147
-189.173	194.091	-0.140	-0.208
-188.158	800.000	0.070	-0.200
-187.144	8.056	0.097	-0.072
-186.129	153.899	0.063	-0.084
-185.114	6.142	-0.103	0.075
-184.100	71.989	-0.150	0.153
-183.085	-39.512	-0.233	0.120
-182.071	10.201	-0.103	-0.077
-181.056	774.442	-0.088	0.234
-180.042	-104.588	0.334	-0.076
-179.027	-72.476	0.461	0.167
-178.012	-61.882	-0.227	-0.093
-176.998	-72.518	0.131	0.048
-175.983	-165.005	-0.398	-0.017
-174.969	81.095	0.107	0.113
-173.954	800.000	-0.063	-0.268
-172.939	-200.000	-0.020	0.102
-171.925	-113.656	-0.120	-0.023
-170.910	-147.734	-0.174	-0.014
-169.896	-98.485	0.340	0.085
-168.881	800.000	-0.029	0.094
-167.866	-200.000	0.032	-0.303
-166.852	320.325	-0.117	-0.218
-165.837	79.114	0.132	0.139
-164.823	-171.198	-0.133	-0.004
-163.808	59.981	0.233	0.226
-162.793	430.011	0.176	0.373
-161.779	-200.000	0.033	0.335
-160.764	-200.000	-0.026	0.209
-159.750	-115.087	0.206	-0.038
-158.735	473.413	0.132	-0.291
-157.720	800.000	0.047	0.163
-156.706	86.850	0.139	-0.150
-155.691	800.000	0.039	0.128
-154.677	-32.025	-0.086	0.047
-153.662	-96.897	0.262	-0.067
-152.647	-50.812	0.093	0.043
-151.633	-200.000	0.024	0.204
-150.618	-123.427	-0.269	0.042
-149.604	800.000	0.096	-0.264
-148.589	308.051	-0.093	-0.170
-147.574	21.272	-0.207	0.165
-146.560	162.143	-0.153	0.211
-145.545	-56.784	0.172	-0.075
-144.531	800.000	0.092	-0.280
-143.516	-80.357	-0.355	-0.116
-142.502	584.344	-0.085	0.204
-141.487	166.166	0.051	0.071
-140.472	-200.000	0.017	-0.136
-139.458	146.231	-0.270	0.355
-138.443	-174.084	0.444	-0.013
-137.429	-114.010	-0.171	-0.033
-136.414	-83.628	0.257	-0.081
-135.399	52.046	0.118	-0.110
-134.385	313.048	0.058	0.107
-133.370	-152.789	-0.150	-0.010
-132.356	26.524	0.231	-0.189
-131.341	-83.530	-0.280	-0.088
-130.326	-200.000	-0.059	0.298
-129.312	-40.637	-0.285	0.145
-128.297	-160.819	0.203	-0.010
-127.283	68.445	-0.082	-0.082
-126.268	800.000	-0.099	0.271
-125.253	220.691	0.230	-0.362
-124.239	24.739	0.066	-0.054
-123.224	800.000	0.093	0.270
-122.210	800.000	-0.111	0.368
-121.195	800.000	-0.044	0.164
-120.180	-84.204	0.191	-0.059
-119.166	800.000	-0.057	0.162
-118.151	-200.000	0.029	0.383
-117.137	-98.106	0.056	-0.014
-116.122	-200.000	-0.020	0.218
-115.107	-110.121	-0.263	0.054
-114.093	-200.000	0.003	-0.146
-113.078	-111.637	0.182	0.036
-112.064	-78.839	-0.184	-0.062
-111.049	-96.736	-0.271	0.070
-110.034	-75.009	0.279	-0.098
-109.020	122.676	-0.145	-0.178
-108.005	-200.000	0.008	0.130
-106.991	695.436	-0.113	-0.290
-105.976	20.008	-0.047	-0.037
-104.962	-46.874	0.181	-0.087
-103.947	-129.679	-0.164	-0.022
-102.932	92.527	-0.042	0.046
-101.918	57.014	0.032	-0.031
-100.903	-61.671	-0.083	0.034
-99.889	565.354	0.107	-0.254
-98.874	-16.681	0.164	-0.102
-97.859	-91.656	0.442	0.123
-96.845	-179.087	-0.036	-0.001
-95.830	-117.902	-0.220	-0.039
-94.816	-200.000	0.034	-0.232
-93.801	-200.000	-0.031	-0.202
-92.786	-64.207	-0.178	0.071
-91.772	362.116	-0.044	0.085
-90.757	41.752	0.080	0.071
-89.743	-200.000	0.012	-0.164
-88.728	540.447	-0.141	0.327
-87.713	133.138	-0.153	-0.193
-86.699	-8.120	0.436	-0.287
-85.684	200.498	0.217	0.326
-84.670	270.275	-0.061	-0.105
-83.655	-143.395	-0.168	-0.016
-82.640	147.862	-0.142	0.187
-81.626	800.000	-0.035	0.143
-80.611	-200.000	-0.004	-0.342
-79.597	47.351	-0.328	-0.298
-78.582	90.989	0.174	0.191
-77.567	-104.084	0.054	0.012
-76.553	800.000	0.017	-0.058
-75.538	422.532	0.084	0.177
-74.524	-200.000	0.004	-0.061
-73.509	19.020	-0.187	0.146
-72.494	-15.701	-0.201	-0.125
-71.480	-108.948	0.142	-0.030
-70.465	-76.757	-0.261	0.089
-69.451	-200.000	-0.073	-0.415
-68.436	19.047	0.164	0.128
-67.422	-39.184	0.205	0.105
-66.407	-171.677	0.343	-0.011
-65.392	-75.246	0.187	-0.065
-64.378	307.121	-0.029	0.052
-63.363	-19.093	-0.020	0.012
-62.349	-200.000	-0.044	0.388
-61.334	98.503	-1.003	-1.129
-60.319	53.923	0.819	0.769
-59.305	201.591	-0.676	-1.017
-58.290	800.000	0.688	1.854
-57.276	356.756	0.757	1.473
-56.261	-200.000	124.535	645.069
-55.246	403.390	1572.834	3231.693
-54.232	141.395	2735.325	3535.246
-53.217	94.861	2167.667	2407.969
-52.203	34.719	1597.756	1363.818
-51.188	26.308	1340.300	1093.375
-50.173	23.888	1302.804	1048.495
-49.159	51.993	1372.427	1276.060
-48.144	49.077	1383.660	1268.808
-47.130	26.653	1331.574	1088.157
-46.115	23.404	1312.230	1053.037
-45.100	23.084	1307.969	1047.681
-44.086	23.169	1304.792	1045.596
-43.071	23.083	1302.655	1043.336
-42.057	23.024	1300.413	1041.149
-41.042	23.114	1298.885	1040.415
-40.027	23.144	1297.422	1039.377
-39.013	23.171	1295.623	1038.056
-37.998	23.184	1293.663	1036.519
-36.984	23.278	1291.746	1035.489
-35.969	23.231	1290.446	1034.137
-34.954	23.191	1289.172	1032.840
-33.940	23.288	1287.485	1032.013
-32.925	23.306	1285.904	1030.810
-31.911	23.323	1284.289	1029.570
-30.896	23.465	1282.852	1029.201
-29.881	23.454	1281.841	1028.285
-28.867	23.385	1280.720	1026.947
-27.852	23.347	1279.381	1025.614
-26.838	23.485	1277.843	1025.136
-25.823	23.377	1276.494	1023.389
-24.809	23.351	1274.868	1021.897
-23.794	23.273	1273.841	1020.581
-22.779	23.389	1272.698	1020.292
-21.765	23.368	1271.151	1018.892
-20.750	23.390	1269.946	1018.016
-19.736	23.257	1268.954	1016.417
-18.721	23.229	1267.517	1015.062
-17.706	23.190	1266.711	1014.151
-16.692	23.192	1265.319	1013.012
-15.677	23.153	1264.207	1011.859
-14.663	23.151	1262.596	1010.515
-13.648	23.198	1262.019	1010.279
-12.633	23.224	1260.812	1009.427
-11.619	23.190	1260.532	1008.965
-10.604	23.261	1259.303	1008.347
-9.590	23.186	1258.551	1007.280
-8.575	23.182	1257.509	1006.378
-7.560	23.178	1256.564	1005.560
-6.546	23.177	1255.987	1005.055
-5.531	23.229	1255.061	1004.570
-4.517	23.206	1254.162	1003.677
-3.502	23.245	1253.384	1003.238
-2.487	23.165	1252.586	1002.107
-1.473	23.249	1248.260	999.078
-0.458	21.572	1233.085	977.540
0.556	16.603	1217.611	940.885
1.571	13.150	1225.453	927.504
2.586	12.541	1240.804	935.581
3.600	12.531	1229.083	926.603
4.615	9.369	1156.874	855.299
5.629	3.212	1086.509	772.380
6.644	0.372	1069.855	746.428
7.659	0.152	1067.510	743.638
8.673	0.119	1066.966	743.030
9.688	0.118	1065.581	741.997
10.702	0.345	1063.408	741.534
11.717	4.042	1067.078	762.254
12.731	10.805	1076.666	802.531
13.746	15.634	1082.101	830.427
14.761	16.735	1083.437	836.819
15.775	16.157	1081.208	832.177
16.790	15.052	1079.752	825.533
17.804	14.371	1078.199	820.918
18.819	14.092	1076.907	818.489
19.834	13.813	1076.311	816.590
20.848	13.556	1075.673	814.774
21.863	13.475	1074.021	813.051
22.877	13.301	1073.507	811.735
23.892	13.301	1072.796	811.125
24.907	13.241	1072.457	810.503
25.921	13.241	1071.404	809.636
26.936	13.295	1070.476	809.129
27.950	13.383	1069.455	808.716
28.965	13.306	1068.765	807.747
29.980	13.352	1067.264	806.761
30.994	13.323	1066.516	805.986
32.009	13.379	1065.301	805.270
33.023	13.340	1064.346	804.283
34.038	13.291	1063.365	803.235
35.053	13.262	1062.433	802.318
36.067	13.426	1061.276	802.169
37.082	13.316	1060.614	801.067
38.096	13.267	1060.177	800.425
39.111	13.388	1058.886	799.966
40.126	13.344	1057.962	798.985
41.140	13.295	1056.813	797.809
42.155	13.145	1055.444	795.982
43.169	13.201	1054.550	795.507
44.184	13.125	1053.893	794.575
45.199	13.171	1052.507	793.681
46.213	13.146	1051.527	792.753
47.228	13.312	1050.396	792.627
48.242	13.300	1049.338	791.700
49.257	13.153	1048.607	790.378
50.271	13.174	1047.604	789.650
51.286	13.306	1046.723	789.546
52.301	13.275	1045.428	788.354
53.315	13.282	1044.795	787.841
54.330	13.223	1043.499	786.512
55.344	13.249	1042.370	785.713
56.359	13.244	1041.921	785.282
57.374	13.192	1041.105	784.349
58.388	13.221	1039.582	783.272
59.403	13.080	1039.105	782.174
60.417	13.093	1038.717	781.875
61.432	13.201	1038.029	781.799
62.447	13.194	1036.335	780.422
63.461	13.148	1035.798	779.732
64.476	13.261	1035.382	779.881
65.490	13.132	1035.011	778.927
66.505	13.038	1034.082	777.714
67.520	13.098	1033.495	777.487
68.534	13.294	1032.225	777.383
69.549	13.105	1031.596	775.955
70.563	13.155	1030.611	775.379
71.578	13.005	1030.027	774.167
72.593	13.097	1029.147	773.867
73.607	13.051	1028.573	773.152
74.622	13.066	1027.967	772.697
75.636	13.090	1027.610	772.474
76.651	13.059	1026.992	771.794
77.666	13.020	1025.990	770.795
78.680	13.160	1025.123	770.726
79.695	13.089	1025.017	770.246
80.709	13.050	1024.098	769.308
81.724	13.075	1023.770	769.107
82.739	13.234	1022.594	768.895
83.753	13.250	1022.001	768.456
84.768	13.369	1020.541	767.843
85.782	13.244	1020.268	766.992
86.797	13.274	1019.432	766.435
87.812	13.249	1018.140	765.280
88.826	13.229	1017.686	764.777
89.841	13.247	1016.809	764.131
90.855	13.384	1015.633	763.817
91.870	13.323	1015.037	763.018
92.884	13.267	1014.410	762.220
93.899	13.398	1013.513	762.083
94.914	13.508	1012.309	761.614
95.928	13.463	1011.956	761.074
96.943	13.347	1010.776	759.589
97.957	13.322	1009.965	758.799
98.972	13.424	1009.119	758.560
99.987	13.463	1008.101	757.906
101.001	13.258	1007.492	756.446
102.016	13.422	1006.282	756.218
103.030	13.325	1005.474	755.103
104.045	13.378	1004.732	754.719
105.060	13.295	1004.114	753.808
106.074	13.241	1003.051	752.699
107.089	13.245	1002.089	751.931
108.103	13.217	1001.117	751.009
109.118	13.331	999.922	750.563
110.133	13.292	999.247	749.813
111.147	13.287	997.995	748.783
112.162	13.328	997.330	748.401
113.176	13.242	996.932	747.651
114.191	13.400	996.269	747.798
115.206	13.374	995.328	746.907
116.220	13.319	994.217	745.764
117.235	13.377	993.156	745.160
118.249	13.264	992.758	744.288
119.264	13.273	992.190	743.837
120.279	13.424	991.110	743.641
121.293	13.337	990.436	742.680
122.308	13.269	989.709	741.761
123.322	13.348	988.535	741.169
124.337	13.242	987.251	739.668
125.352	13.238	986.511	739.030
126.366	13.147	985.373	737.706
127.381	13.294	984.205	737.422
128.395	13.330	983.023	736.631
129.410	13.268	982.230	735.695
130.424	13.420	981.676	735.893
131.439	13.267	980.958	734.610
132.454	13.294	980.155	734.063
133.468	13.363	979.161	733.557
134.483	13.269	978.332	732.456
135.497	13.231	977.573	731.657
136.512	13.279	976.381	730.912
137.527	13.354	975.513	730.527
138.541	13.373	974.709	729.946
139.556	13.285	974.687	729.477
140.570	13.402	973.389	728.954
141.585	13.430	972.430	728.293
142.600	13.515	971.844	728.167
143.614	13.502	970.873	727.315
144.629	13.546	970.305	727.022
145.643	13.535	969.052	725.967
146.658	13.400	968.250	724.713
147.673	13.341	967.639	723.934
148.687	13.404	966.836	723.542
149.702	13.369	965.887	722.618
150.716	13.307	965.245	721.804
151.731	13.436	964.161	721.489
152.746	13.438	963.887	721.231
153.760	13.559	963.313	721.262
154.775	13.524	962.555	720.477
155.789	13.564	961.803	720.026
156.804	13.608	960.941	719.507
157.819	13.599	960.298	718.925
158.833	13.583	959.846	718.453
159.848	13.699	958.911	718.192
160.862	13.660	957.603	716.979
161.877	13.531	956.928	715.854
162.892	13.620	955.775	715.312
163.906	13.589	954.970	714.514
164.921	13.579	954.399	713.979
165.935	13.625	953.249	713.254
166.950	13.623	952.676	712.754
167.964	13.647	951.806	712.144
168.979	13.614	950.753	711.150
169.994	13.639	950.015	710.641
171.008	13.680	948.999	709.993
172.023	13.700	948.476	709.626
173.037	13.800	947.771	709.462
174.052	13.610	947.175	708.144
175.067	13.748	946.710	708.322
176.081	13.715	945.743	707.394
177.096	13.786	945.215	707.241
178.110	13.712	944.824	706.569
179.125	13.659	943.970	705.643
180.140	13.859	943.339	705.960
181.154	13.756	943.408	705.509
182.169	13.924	942.245	705.291
183.183	13.893	941.708	704.697
184.198	13.871	940.760	703.829
185.213	13.886	939.922	703.204
186.227	13.845	939.544	702.687
187.242	13.886	939.415	702.702
188.256	14.033	938.351	702.466
189.271	13.901	937.679	701.340
190.286	13.901	936.783	700.608
191.300	13.816	935.872	699.509
192.315	13.818	935.604	699.254
193.329	13.831	934.784	698.633
194.344	13.859	934.087	698.170
195.359	13.874	933.593	697.802
196.373	13.918	933.143	697.588
197.388	14.044	932.194	697.347
198.402	14.069	931.815	697.105
199.417	14.090	931.056	696.565
200.432	14.230	930.512	696.683
201.446	14.165	930.595	696.411
202.461	14.228	929.732	695.968
203.475	14.110	929.273	695.067
204.490	14.127	928.547	694.535
205.504	14.127	927.673	693.819
206.519	14.138	926.793	693.143
207.534	14.184	926.134	692.781
208.548	14.132	925.352	691.921
209.563	14.147	925.230	691.828
210.577	14.291	924.054	691.489
211.592	14.242	923.614	690.894
212.607	14.348	922.658	690.555
213.621	14.313	922.079	689.916
214.636	14.268	921.418	689.176
215.650	14.241	920.769	688.515
216.665	14.448	920.065	688.784
217.680	14.408	919.117	687.850
218.694	14.470	918.391	687.502
219.709	14.450	917.525	686.710
220.723	14.352	917.545	686.261
221.738	14.397	916.291	685.447
222.753	14.523	915.794	685.532
223.767	14.499	915.610	685.234
224.782	14.465	914.619	684.295
225.796	14.459	914.104	683.822
226.811	14.620	913.420	683.910
227.826	14.502	912.812	682.912
228.840	14.556	911.918	682.402
229.855	14.472	911.330	681.558
230.869	14.401	910.269	680.414
231.884	14.567	909.580	680.517
232.899	14.415	909.160	679.524
233.913	14.448	908.456	679.072
234.928	14.327	908.070	678.228
235.942	14.493	907.090	678.112
236.957	14.487	906.729	677.761
237.972	14.521	906.163	677.414
238.986	14.536	905.434	676.871
240.001	14.544	904.628	676.242
241.015	14.605	903.974	675.939
242.030	14.568	903.415	675.311
243.045	14.600	902.729	674.867
244.059	14.573	902.595	674.598
245.074	14.621	901.417	673.852
246.088	14.611	900.611	673.150
247.103	14.694	900.065	673.017
248.117	14.826	899.637	673.169
249.132	14.800	899.162	672.649
250.147	14.856	898.485	672.307
251.161	14.705	898.156	671.397
252.176	14.902	897.140	671.369
253.190	14.960	896.424	671.005
254.205	14.998	895.892	670.699
255.220	14.969	895.350	670.117
256.234	14.986	894.179	669.251
257.249	14.940	894.108	668.955
258.263	15.197	892.678	668.853
259.278	14.924	892.157	667.312
260.293	14.995	891.815	667.283
261.307	15.124	890.996	667.124
262.322	15.132	890.488	666.716
263.336	15.141	889.898	666.249
264.351	15.076	889.323	665.504
265.366	15.145	888.462	665.076
266.380	15.210	888.002	664.929
267.395	15.279	886.800	664.245
268.409	15.209	886.223	663.477
269.424	15.225	885.598	663.013
270.439	15.144	885.110	662.267
271.453	15.316	883.990	662.051
272.468	15.293	883.655	661.649
273.482	15.420	883.020	661.618
274.497	15.248	882.578	660.548
275.512	15.318	881.886	660.249
276.526	15.341	881.925	660.311
277.541	15.269	881.082	659.339
278.555	15.436	880.178	659.260
279.570	15.495	879.590	658.991
280.585	15.485	878.798	658.300
281.599	15.377	878.257	657.415
282.614	15.452	877.306	656.939
283.628	15.520	876.555	656.582
284.643	15.324	876.718	655.880
285.657	15.521	875.708	655.836
286.672	15.532	875.241	655.471
287.687	15.557	874.466	654.928
288.701	15.619	873.851	654.654
289.716	15.397	873.802	653.696
290.730	15.436	873.084	653.251
291.745	15.696	872.385	653.679
292.760	15.753	871.424	653.123
293.774	15.726	871.163	652.766
294.789	15.670	870.053	651.658
295.803	15.629	869.998	651.403
296.818	15.547	869.058	650.325
297.833	15.677	868.500	650.350
298.847	15.611	867.504	649.293
299.862	15.612	867.113	648.946
300.876	15.609	866.624	648.510
301.891	15.688	866.346	648.549
302.906	15.720	865.554	648.025
303.920	15.830	864.768	647.799
304.935	15.725	864.658	647.259
305.949	15.940	863.320	647.026
306.964	15.854	863.112	646.480
307.979	16.021	862.320	646.470
308.993	15.994	861.808	645.928
310.008	15.784	861.776	645.043
311.022	15.852	860.855	644.555
312.037	15.828	860.094	643.836
313.052	15.828	859.439	643.288
314.066	15.902	859.145	643.294
315.081	15.817	858.940	642.757
316.095	15.952	857.634	642.241
317.110	15.932	857.376	641.912
318.125	15.873	856.573	641.029
319.139	15.877	856.105	640.639
320.154	15.954	855.974	640.779
321.168	15.861	855.449	639.975
322.183	16.018	854.667	639.930
323.197	15.992	854.524	639.664
324.212	16.048	853.421	638.996
325.227	15.982	852.753	638.191
326.241	15.960	852.538	637.890
327.256	16.081	852.116	637.974
328.270	16.079	851.156	637.192
329.285	16.047	850.911	636.833
330.300	16.011	850.417	636.271
331.314	16.008	849.669	635.642
332.329	16.059	849.442	635.607
333.343	16.129	848.645	635.218
334.358	16.125	848.521	635.055
335.373	16.063	848.285	634.590
336.387	16.251	847.587	634.718
337.402	16.335	847.442	634.868
338.416	16.293	847.205	634.478
339.431	16.160	846.919	633.708
340.446	16.304	846.268	633.704
341.460	16.170	846.293	633.163
342.475	16.385	845.357	633.214
343.489	16.291	844.810	632.396
344.504	16.368	844.473	632.376
345.519	16.482	843.770	632.221
346.533	16.388	843.386	631.525
347.548	16.286	843.085	630.863
348.562	16.446	842.001	630.592
349.577	16.321	841.888	629.984
350.592	16.481	840.864	629.760
351.606	16.486	840.279	629.284
352.621	16.458	839.608	628.621
353.635	16.399	839.211	628.049
354.650	16.418	838.607	627.612
355.665	16.444	837.630	626.923
356.679	16.591	836.915	626.879
357.694	16.602	836.476	626.534
358.708	16.539	835.970	625.866
359.723	16.663	835.383	625.829
360.738	16.610	834.592	624.988
361.752	16.565	833.888	624.236
362.767	16.591	833.738	624.167
363.781	16.583	833.135	623.631
364.796	16.766	832.364	623.673
365.810	16.603	832.420	623.057
366.825	16.660	831.949	622.861
367.840	16.796	831.128	622.691
368.854	16.827	830.895	622.574
369.869	16.722	830.397	621.762
370.883	16.926	829.719	621.945
371.898	16.755	829.814	621.336
372.913	16.928	829.280	621.515
373.927	16.850	828.950	620.927
374.942	16.866	828.002	620.219
375.956	17.031	827.756	620.586
376.971	17.002	827.416	620.167
377.986	17.063	826.804	619.876
379.000	16.938	826.342	619.021
380.015	16.981	825.849	618.751
381.029	16.899	825.495	618.133
382.044	17.095	824.658	618.165
383.059	17.181	824.449	618.269
384.073	17.011	823.881	617.168
385.088	17.164	823.084	617.073
386.102	16.992	822.749	616.144
387.117	17.053	822.315	615.983
388.132	17.006	821.532	615.172
389.146	17.026	821.001	614.793
390.161	17.239	820.312	614.995
391.175	16.946	820.116	613.732
392.190	17.222	819.201	613.991
393.205	17.146	819.176	613.645
394.219	17.102	818.837	613.176
395.234	17.064	818.600	612.806
396.248	16.935	818.072	611.891
397.263	16.984	817.523	611.604
398.278	17.164	817.187	611.948
399.292	17.152	816.669	611.461
400.307	17.163	816.198	611.096
401.321	17.229	815.522	610.770
402.336	17.099	815.519	610.250
403.350	17.252	814.811	610.213
404.365	17.172	814.628	609.735
405.380	17.373	813.992	609.926
406.394	17.225	813.282	608.812
407.409	17.188	812.853	608.303
408.423	17.304	812.835	608.650
409.438	17.435	812.071	608.495
410.453	17.418	811.909	608.257
411.467	17.348	811.500	607.648
412.482	17.428	811.209	607.661
413.496	17.506	810.632	607.454
414.511	17.600	809.937	607.214
415.526	17.676	809.491	607.096
416.540	17.596	809.255	606.581
417.555	17.513	808.932	605.991
418.569	17.677	808.304	606.048
419.584	17.693	807.904	605.751
420.599	17.761	807.170	605.388
421.613	114.101	1298.278	1488.312
422.628	98.580	1369.800	1488.363
