DTS Sentinel unit serial number:	SN413079Multiplexer serial number:	ORYXHardware model number:	OX4-SRSoftware version number:	ORYX F/W v4.00 Oryx Data Collector v3.7.2.0data status	okinstallation	princeton_trtdifferential loss correction	single-endedforward channel	channel 1reverse channel	N/Adate	2019/09/19time	13:06:35forward acquisition time	60.00reverse acquisition time	0.00gamma	496.2192k internal	0.2328k external	0.2328temperature offset calibration	1.0011default loss term (dB/km)	0.3790temperature slope calibration	1.0000multiplexer offset coefficient	1.0000multiplexer slope coefficient	1.0000fibre end	0.00T internal ref (°C)	28.95T ext. ref 1 (°C)	0.93T ext. ref 2 (°C)	26.92length (m)	temperature (°C)	Stokes	anti-Stokes-747.200	95.239	0.074	-0.085
-746.185	-25.232	-0.207	0.124
-745.171	438.176	-0.211	0.464
-744.156	619.036	0.092	0.232
-743.142	264.493	0.180	0.316
-742.127	800.000	-0.054	0.188
-741.112	-200.000	0.043	0.302
-740.098	-167.420	-0.122	0.005
-739.083	800.000	-0.033	-0.096
-738.069	-200.000	0.055	0.294
-737.054	-115.785	0.098	0.019
-736.039	-200.000	0.036	-0.241
-735.025	26.356	0.176	0.148
-734.010	-84.178	-0.552	-0.176
-732.996	-200.000	0.045	-0.425
-731.981	-37.432	0.078	-0.042
-730.966	99.088	-0.021	0.025
-729.952	365.740	-0.094	0.191
-728.937	-93.413	-0.394	-0.110
-727.923	800.000	0.034	-0.139
-726.908	-200.000	-0.074	0.423
-725.894	514.279	0.076	-0.178
-724.879	-200.000	-0.014	-0.339
-723.864	8.179	-0.210	0.159
-722.850	356.999	0.088	0.176
-721.835	-200.000	0.003	0.127
-720.821	79.649	0.267	-0.289
-719.806	-56.859	-0.255	-0.113
-718.791	-164.683	-0.281	-0.013
-717.777	308.293	-0.087	-0.164
-716.762	397.248	-0.076	0.161
-715.748	-37.024	-0.206	0.111
-714.733	-142.392	0.269	-0.027
-713.718	678.289	0.056	0.147
-712.704	635.247	0.063	0.160
-711.689	-18.280	0.225	0.142
-710.675	671.528	-0.041	0.107
-709.660	-200.000	-0.003	-0.113
-708.645	70.883	0.027	-0.028
-707.631	391.030	-0.058	0.122
-706.616	85.338	-0.281	-0.311
-705.602	-103.552	-0.231	-0.055
-704.587	-50.674	-0.147	0.069
-703.572	-200.000	-0.003	0.276
-702.558	-200.000	-0.062	0.336
-701.543	-14.797	-0.396	-0.256
-700.529	201.907	0.102	0.158
-699.514	-16.441	-0.123	-0.079
-698.499	27.335	0.240	-0.203
-697.485	-200.000	-0.003	-0.155
-696.470	478.559	-0.045	0.103
-695.456	800.000	0.053	-0.231
-694.441	340.293	0.082	-0.162
-693.426	-34.544	0.158	-0.087
-692.412	-70.363	-0.157	0.060
-691.397	150.320	-0.141	0.193
-690.383	-61.196	0.354	0.150
-689.368	258.679	-0.042	0.073
-688.354	397.035	-0.068	-0.143
-687.339	135.406	0.300	-0.392
-686.324	-66.630	0.168	-0.067
-685.310	-58.966	-0.344	-0.149
-684.295	-105.564	-0.118	-0.027
-683.281	-200.000	0.026	0.122
-682.266	718.362	0.153	-0.409
-681.251	-100.852	-0.336	0.083
-680.237	-113.657	0.133	0.026
-679.222	-70.440	-0.217	-0.083
-678.208	-27.618	-0.274	-0.160
-677.193	800.000	-0.096	-0.415
-676.178	-91.785	-0.205	0.059
-675.164	282.970	-0.080	0.145
-674.149	-200.000	-0.001	-0.259
-673.135	-200.000	0.036	-0.201
-672.120	459.730	0.035	-0.079
-671.105	25.676	0.259	0.217
-670.091	800.000	0.085	0.235
-669.076	-200.000	0.020	-0.237
-668.062	111.221	0.178	0.216
-667.047	-200.000	-0.041	0.273
-666.032	-9.830	0.132	0.088
-665.018	65.447	0.044	-0.045
-664.003	68.162	-0.245	-0.252
-662.989	227.326	-0.081	0.133
-661.974	219.632	-0.077	-0.125
-660.959	205.611	-0.052	0.081
-659.945	-95.259	0.085	0.023
-658.930	-40.284	0.235	0.123
-657.916	-26.695	0.168	0.098
-656.901	800.000	0.043	-0.130
-655.886	36.585	-0.103	0.091
-654.872	-54.118	-0.037	0.017
-653.857	-125.169	-0.169	0.026
-652.843	36.094	-0.253	-0.224
-651.828	664.388	-0.052	-0.135
-650.814	89.682	-0.054	-0.060
-649.799	-92.918	0.170	-0.048
-648.784	47.883	0.127	-0.119
-647.770	-115.407	0.133	0.025
-646.755	-81.818	0.203	-0.067
-645.741	-200.000	-0.033	-0.196
-644.726	32.703	0.103	-0.089
-643.711	-187.274	0.076	-0.001
-642.697	-10.215	-0.212	-0.141
-641.682	-200.000	-0.031	-0.216
-640.668	800.000	-0.091	-0.264
-639.653	-70.625	-0.344	0.131
-638.638	-106.378	-0.499	-0.112
-637.624	-200.000	0.003	-0.197
-636.609	19.724	-0.319	-0.258
-635.595	-88.353	0.288	-0.086
-634.580	-200.000	0.083	0.369
-633.565	477.463	0.084	0.192
-632.551	-168.008	-0.181	-0.007
-631.536	-200.000	0.023	0.141
-630.522	800.000	-0.033	-0.105
-629.507	800.000	-0.012	-0.039
-628.492	800.000	0.098	-0.301
-627.478	101.253	0.028	-0.033
-626.463	-47.398	-0.076	-0.037
-625.449	-200.000	-0.031	-0.188
-624.434	-72.167	-0.087	0.032
-623.419	800.000	0.068	0.247
-622.405	-43.079	-0.225	-0.115
-621.390	8.764	0.186	-0.140
-620.376	569.527	-0.113	0.276
-619.361	336.060	0.076	0.147
-618.346	-8.283	-0.231	-0.156
-617.332	229.401	0.150	-0.245
-616.317	-3.571	-0.230	0.160
-615.303	32.115	0.212	0.183
-614.288	-158.941	-0.182	-0.010
-613.273	-164.342	0.239	0.011
-612.259	-99.689	-0.089	0.022
-611.244	273.594	-0.082	-0.145
-610.230	-40.291	0.046	0.024
-609.215	46.294	0.072	-0.067
-608.201	-122.644	0.122	-0.020
-607.186	337.054	0.030	0.058
-606.171	800.000	0.163	-0.531
-605.157	259.161	0.136	0.235
-604.142	-86.486	-0.265	-0.082
-603.128	-200.000	-0.036	-0.349
-602.113	-200.000	-0.040	-0.311
-601.098	-10.867	0.124	0.082
-600.084	-200.000	-0.011	-0.361
-599.069	16.995	0.072	-0.057
-598.055	800.000	0.032	-0.129
-597.040	135.940	-0.180	-0.236
-596.025	-32.955	0.099	0.055
-595.011	253.352	0.095	-0.162
-593.996	142.226	0.201	-0.268
-592.982	-75.726	0.278	-0.099
-591.967	-159.917	-0.013	-0.001
-590.952	296.271	-0.038	0.071
-589.938	-200.000	0.039	-0.211
-588.923	-105.426	-0.229	-0.052
-587.909	-122.903	0.117	-0.019
-586.894	-49.100	-0.212	0.102
-585.879	-71.749	0.061	0.023
-584.865	800.000	-0.173	0.546
-583.850	-200.000	0.057	0.381
-582.836	-133.375	-0.121	-0.015
-581.821	-108.565	-0.128	-0.027
-580.806	-200.000	-0.000	-0.045
-579.792	800.000	0.115	-0.395
-578.777	-134.262	-0.248	-0.031
-577.763	170.365	0.044	0.063
-576.748	-157.425	0.138	-0.008
-575.733	24.969	0.251	0.208
-574.719	-102.229	-0.164	0.039
-573.704	-200.000	-0.009	0.135
-572.690	82.190	0.076	-0.082
-571.675	157.751	-0.142	-0.197
-570.661	-42.723	0.248	-0.126
-569.646	47.685	0.149	-0.139
-568.631	-200.000	0.003	-0.171
-567.617	273.881	-0.148	-0.261
-566.602	382.319	-0.228	-0.469
-565.588	-200.000	0.026	-0.193
-564.573	1.898	-0.246	0.178
-563.558	-84.619	-0.178	-0.056
-562.544	75.822	0.246	-0.260
-561.529	-99.131	0.178	0.045
-560.515	400.149	0.031	-0.065
-559.500	-24.191	0.118	-0.071
-558.485	223.959	-0.089	0.143
-557.471	124.182	-0.157	-0.197
-556.456	-97.042	-0.178	-0.047
-555.442	-43.337	0.167	0.084
-554.427	-120.793	-0.127	-0.022
-553.412	-200.000	-0.078	0.763
-552.398	415.517	-0.156	0.332
-551.383	166.032	-0.201	-0.284
-550.369	193.057	0.367	-0.554
-549.354	55.563	-0.076	-0.074
-548.339	-40.988	-0.146	0.076
-547.325	-200.000	0.027	0.204
-546.310	-200.000	0.051	0.333
-545.296	166.329	-0.071	0.101
-544.281	-144.069	-0.309	-0.029
-543.266	-8.502	0.083	-0.056
-542.252	-61.186	0.241	-0.102
-541.237	-163.404	0.243	0.012
-540.223	-107.607	-0.286	-0.063
-539.208	3.950	0.183	-0.133
-538.193	-200.000	0.025	-0.250
-537.179	-200.000	0.018	0.438
-536.164	-85.747	-0.259	0.080
-535.150	-67.319	0.301	0.118
-534.135	800.000	-0.066	0.229
-533.121	509.218	0.107	0.249
-532.106	-85.637	0.155	-0.048
-531.091	156.710	-0.200	-0.277
-530.077	143.332	-0.179	-0.238
-529.062	-106.492	0.589	-0.131
-528.048	-54.919	-0.023	0.011
-527.033	129.243	0.125	0.159
-526.018	-200.000	-0.053	0.332
-525.004	582.072	-0.131	-0.320
-523.989	504.764	0.184	-0.427
-522.975	-82.142	0.116	0.038
-521.960	-63.820	0.111	0.045
-520.945	448.249	-0.053	-0.117
-519.931	-200.000	-0.060	0.282
-518.916	-130.804	0.425	-0.057
-517.902	-200.000	-0.040	-0.228
-516.887	-99.966	0.083	0.021
-515.872	400.980	-0.055	-0.115
-514.858	174.670	0.177	-0.256
-513.843	-157.376	-0.047	0.003
-512.829	341.976	-0.048	0.093
-511.814	800.000	0.126	0.520
-510.799	-100.599	-0.085	0.021
-509.785	86.064	-0.171	-0.188
-508.770	457.745	0.077	-0.170
-507.756	246.960	-0.078	-0.132
-506.741	-67.031	0.292	-0.115
-505.726	800.000	-0.085	0.337
-504.712	223.634	-0.087	0.141
-503.697	-200.000	-0.002	0.050
-502.683	-200.000	0.052	-0.269
-501.668	-54.925	0.422	-0.190
-500.653	-200.000	0.032	-0.301
-499.639	-200.000	0.045	-0.311
-498.624	55.331	-0.228	0.220
-497.610	-1.068	-0.097	0.068
-496.595	-200.000	0.045	0.255
-495.581	800.000	-0.111	-0.339
-494.566	-83.983	-0.196	-0.062
-493.551	-200.000	0.022	0.430
-492.537	136.399	-0.189	-0.246
-491.522	-45.733	-0.175	-0.087
-490.508	-162.555	-0.126	-0.006
-489.493	-73.636	-0.138	0.050
-488.478	72.294	-0.072	0.074
-487.464	-89.975	-0.284	0.083
-486.449	-128.647	0.221	0.031
-485.435	539.256	-0.099	-0.235
-484.420	652.440	-0.042	-0.107
-483.405	-54.267	-0.214	0.097
-482.391	-200.000	-0.012	-0.078
-481.376	-200.000	0.017	-0.238
-480.362	-200.000	0.001	-0.289
-479.347	-200.000	0.035	0.495
-478.332	-28.590	-0.250	0.144
-477.318	558.283	0.100	-0.241
-476.303	188.775	0.110	-0.164
-475.289	-135.154	-0.128	0.015
-474.274	248.976	-0.171	0.289
-473.259	424.264	0.103	0.221
-472.245	670.901	-0.029	0.074
-471.230	247.725	-0.264	0.445
-470.216	443.876	0.065	0.141
-469.201	-64.287	-0.371	-0.151
-468.186	352.309	0.171	0.339
-467.172	11.997	-0.102	-0.078
-466.157	-200.000	-0.003	-0.179
-465.143	-94.174	0.185	0.051
-464.128	-200.000	0.050	-0.343
-463.113	-200.000	0.002	0.217
-462.099	78.450	-0.226	-0.241
-461.084	382.989	0.054	-0.111
-460.070	-60.259	0.378	0.161
-459.055	34.523	0.218	0.190
-458.040	-100.940	-0.210	0.051
-457.026	7.959	-0.187	-0.140
-456.011	800.000	-0.109	0.315
-454.997	-23.798	0.133	-0.079
-453.982	-200.000	-0.006	-0.193
-452.968	-127.322	0.062	0.009
-451.953	60.181	0.131	-0.129
-450.938	146.549	-0.099	-0.132
-449.924	-200.000	0.012	-0.112
-448.909	240.939	-0.021	-0.035
-447.895	800.000	-0.079	-0.328
-446.880	6.177	-0.262	0.193
-445.865	604.564	0.031	0.077
-444.851	-113.928	-0.159	0.031
-443.836	-125.472	-0.144	-0.022
-442.822	-200.000	-0.054	0.247
-441.807	245.679	-0.284	0.477
-440.792	800.000	0.039	-0.129
-439.778	288.225	0.042	-0.076
-438.763	-40.496	0.377	-0.195
-437.749	40.614	-0.129	-0.116
-436.734	800.000	-0.081	-0.332
-435.719	-81.164	0.181	0.059
-434.705	175.502	0.111	0.161
-433.690	235.404	0.102	-0.167
-432.676	171.687	0.097	-0.139
-431.661	-200.000	-0.023	-0.293
-430.646	12.671	0.204	0.157
-429.632	-171.061	0.181	0.006
-428.617	734.022	0.149	0.397
-427.603	336.144	-0.140	-0.270
-426.588	369.651	0.109	-0.220
-425.573	-77.046	-0.058	0.020
-424.559	67.975	0.241	-0.246
-423.544	-132.704	0.132	0.017
-422.530	-60.635	0.164	-0.069
-421.515	-200.000	0.031	0.177
-420.500	199.863	-0.027	-0.041
-419.486	-200.000	-0.013	0.202
-418.471	-200.000	0.049	-0.290
-417.457	-200.000	0.004	0.017
-416.442	-4.801	-0.180	0.124
-415.428	62.827	-0.096	0.095
-414.413	-144.341	-0.165	0.015
-413.398	800.000	0.061	0.241
-412.384	213.232	0.122	0.191
-411.369	310.359	-0.134	-0.249
-410.355	800.000	-0.092	0.254
-409.340	-200.000	0.021	-0.185
-408.325	57.800	0.123	0.119
-407.311	800.000	-0.033	-0.104
-406.296	83.780	-0.212	0.230
-405.282	-200.000	-0.019	0.109
-404.267	-200.000	-0.008	0.127
-403.252	-42.008	0.253	0.129
-402.238	-16.219	-0.304	0.192
-401.223	-100.604	-0.072	-0.018
-400.209	800.000	0.033	-0.090
-399.194	428.842	-0.204	0.438
-398.179	36.737	-0.193	0.169
-397.165	101.328	0.071	-0.082
-396.150	-129.542	0.123	-0.017
-395.136	24.591	-0.166	0.136
-394.121	-63.431	0.321	0.131
-393.106	-200.000	0.088	0.429
-392.092	-68.609	0.051	-0.020
-391.077	196.317	-0.317	-0.480
-390.063	800.000	-0.056	0.170
-389.048	147.696	0.201	0.269
-388.033	177.827	0.093	-0.135
-387.019	-154.930	-0.077	0.005
-386.004	-152.945	0.322	0.023
-384.990	39.930	-0.151	-0.134
-383.975	-164.533	-0.168	0.008
-382.960	800.000	-0.070	-0.275
-381.946	159.987	0.194	0.269
-380.931	-59.170	0.113	-0.048
-379.917	573.175	-0.110	0.266
-378.902	-95.706	0.108	0.029
-377.888	-65.396	-0.099	-0.039
-376.873	800.000	-0.073	-0.230
-375.858	800.000	-0.073	-0.287
-374.844	-53.734	0.274	0.124
-373.829	-81.376	-0.123	-0.040
-372.815	107.267	0.196	-0.232
-371.800	800.000	0.049	-0.214
-370.785	800.000	-0.056	0.189
-369.771	674.984	0.106	0.272
-368.756	800.000	-0.093	0.281
-367.742	-200.000	0.006	0.074
-366.727	169.566	-0.103	0.146
-365.712	-63.197	0.215	-0.088
-364.698	-111.975	-0.212	0.042
-363.683	-200.000	0.008	0.139
-362.669	121.919	-0.147	0.182
-361.654	278.925	-0.093	0.166
-360.639	10.193	-0.130	-0.098
-359.625	-8.837	0.185	0.123
-358.610	201.777	-0.195	0.299
-357.596	228.684	0.082	-0.133
-356.581	-76.862	-0.313	-0.109
-355.566	800.000	0.132	-0.401
-354.552	77.459	-0.282	-0.298
-353.537	-50.088	-0.378	-0.178
-352.523	-170.336	0.366	-0.013
-351.508	-141.301	-0.133	0.013
-350.493	-200.000	-0.057	-0.317
-349.479	-200.000	0.023	0.109
-348.464	800.000	-0.057	-0.168
-347.450	-200.000	0.006	0.039
-346.435	-118.909	0.234	-0.041
-345.420	-50.383	0.275	0.129
-344.406	-200.000	-0.008	0.454
-343.391	253.133	0.055	-0.092
-342.377	556.365	-0.030	0.073
-341.362	5.061	0.038	-0.028
-340.348	-119.973	-0.364	0.062
-339.333	-69.940	0.265	-0.100
-338.318	-79.818	-0.185	-0.062
-337.304	531.428	-0.040	-0.093
-336.289	-200.000	-0.219	0.001
-335.275	30.349	-0.160	0.136
-334.260	-200.000	-0.023	0.129
-333.245	35.432	0.093	-0.081
-332.231	265.423	0.151	-0.261
-331.216	800.000	-0.099	0.325
-330.202	111.126	0.258	0.308
-329.187	-49.047	-0.110	0.052
-328.172	93.599	0.135	-0.152
-327.158	800.000	-0.072	0.213
-326.143	-154.631	-0.373	-0.025
-325.129	627.482	-0.069	0.172
-324.114	177.661	-0.072	-0.104
-323.099	800.000	-0.025	0.072
-322.085	800.000	0.003	-0.014
-321.070	-200.000	0.020	0.152
-320.056	-20.305	0.432	-0.263
-319.041	-200.000	-0.031	-0.170
-318.026	40.314	-0.333	0.297
-317.012	319.092	-0.034	-0.063
-315.997	-200.000	-0.025	0.158
-314.983	800.000	-0.170	-0.524
-313.968	34.947	0.131	-0.114
-312.953	-77.600	-0.182	0.062
-311.939	-49.444	0.202	-0.096
-310.924	292.561	0.129	-0.233
-309.910	368.740	0.083	0.166
-308.895	-18.331	0.153	0.095
-307.880	40.378	-0.066	0.059
-306.866	-200.000	0.005	0.060
-305.851	-64.863	0.285	-0.114
-304.837	-200.000	0.047	-0.230
-303.822	82.569	-0.053	-0.057
-302.807	9.959	0.213	0.160
-301.793	-24.980	-0.055	-0.032
-300.778	5.013	-0.105	-0.077
-299.764	-32.722	-0.466	-0.257
-298.749	84.852	-0.178	-0.193
-297.735	280.366	-0.197	-0.350
-296.720	-109.498	0.229	0.048
-295.705	-37.190	-0.109	-0.058
-294.691	-122.465	0.273	0.044
-293.676	251.593	-0.083	-0.140
-292.662	-46.056	0.093	0.046
-291.647	116.366	0.170	-0.207
-290.632	123.514	-0.245	-0.304
-289.618	-200.000	-0.030	0.371
-288.603	-200.000	0.014	-0.476
-287.589	28.448	-0.068	-0.057
-286.574	-70.078	0.137	0.052
-285.559	33.265	-0.097	-0.083
-284.545	648.406	-0.101	0.255
-283.530	103.562	0.176	0.205
-282.516	-143.962	-0.490	0.046
-281.501	116.351	0.264	0.321
-280.486	-200.000	-0.024	-0.204
-279.472	-194.169	-0.254	-0.002
-278.457	-200.000	0.006	-0.103
-277.443	7.438	0.328	-0.243
-276.428	-2.541	0.129	0.090
-275.413	-200.000	0.023	0.188
-274.399	-200.000	-0.027	-0.261
-273.384	130.061	-0.225	0.285
-272.370	-133.008	-0.406	-0.051
-271.355	114.603	0.212	0.255
-270.340	-10.231	-0.267	0.175
-269.326	207.909	0.048	-0.074
-268.311	173.621	0.127	0.181
-267.297	204.383	-0.104	-0.159
-266.282	402.104	0.108	-0.225
-265.267	800.000	-0.083	0.303
-264.253	-90.643	0.238	-0.068
-263.238	394.936	-0.074	0.153
-262.224	-45.712	-0.159	0.078
-261.209	-180.659	-0.118	0.002
-260.195	585.843	0.137	0.334
-259.180	-31.703	0.348	0.193
-258.165	-35.228	0.211	-0.113
-257.151	628.979	-0.091	-0.229
-256.136	80.268	0.127	-0.135
-255.122	-10.822	0.341	-0.223
-254.107	-66.365	0.381	0.150
-253.092	-55.120	0.159	0.071
-252.078	-148.367	0.113	0.009
-251.063	-128.934	-0.166	-0.023
-250.049	800.000	-0.050	0.184
-249.034	-122.072	-0.147	0.024
-248.019	-200.000	-0.006	0.329
-247.005	-200.000	0.054	0.238
-245.990	-47.724	0.165	0.079
-244.976	-108.226	0.116	0.025
-243.961	-95.616	0.059	-0.016
-242.946	-11.158	0.348	0.227
-241.932	-75.957	0.097	0.034
-240.917	230.302	0.088	0.142
-239.903	800.000	0.064	0.227
-238.888	-71.964	-0.241	0.089
-237.873	-160.214	-0.336	0.018
-236.859	-128.945	0.340	0.047
-235.844	-129.359	0.033	-0.005
-234.830	136.846	-0.030	-0.038
-233.815	800.000	-0.143	-0.542
-232.800	-163.376	0.173	-0.008
-231.786	130.094	0.020	0.025
-230.771	-119.671	-0.171	0.029
-229.757	-200.000	0.032	-0.264
-228.742	737.610	0.050	0.133
-227.727	-90.106	-0.120	-0.035
-226.713	800.000	-0.015	0.062
-225.698	-109.847	-0.092	0.019
-224.684	25.145	-0.264	0.216
-223.669	-200.000	-0.025	-0.258
-222.655	187.178	0.074	0.109
-221.640	56.169	0.142	-0.136
-220.625	-200.000	-0.037	0.333
-219.611	800.000	0.055	-0.170
-218.596	800.000	-0.013	0.037
-217.582	-112.668	-0.111	0.022
-216.567	-200.000	0.009	0.102
-215.552	-112.489	-0.351	0.069
-214.538	82.117	0.155	-0.165
-213.523	-200.000	-0.035	0.276
-212.509	-55.346	-0.067	-0.030
-211.494	-22.735	-0.309	0.184
-210.479	48.220	-0.151	-0.140
-209.465	-94.844	0.249	-0.067
-208.450	214.872	0.181	0.282
-207.436	170.336	0.195	-0.275
-206.421	-135.675	0.349	-0.041
-205.406	-200.000	-0.046	0.286
-204.392	-99.590	-0.181	-0.045
-203.377	-200.000	0.005	-0.077
-202.363	-133.109	0.316	-0.039
-201.348	-59.132	0.295	0.125
-200.333	575.496	0.070	-0.169
-199.319	232.771	-0.129	0.210
-198.304	800.000	-0.081	0.264
-197.290	-122.479	-0.240	-0.039
-196.275	468.877	0.162	0.359
-195.260	-94.667	-0.219	0.059
-194.246	800.000	0.098	-0.292
-193.231	-158.794	0.324	-0.018
-192.217	-200.000	-0.003	0.093
-191.202	249.106	-0.083	-0.138
-190.187	-38.899	0.026	-0.013
-189.173	-85.463	-0.474	0.146
-188.158	-200.000	-0.040	0.497
-187.144	73.464	0.151	0.155
-186.129	158.090	-0.244	-0.333
-185.114	-16.293	0.083	0.052
-184.100	57.804	0.305	0.294
-183.085	-121.673	0.229	0.037
-182.071	80.167	0.125	-0.133
-181.056	-18.843	-0.300	-0.184
-180.042	-59.249	-0.055	0.023
-179.027	-54.264	0.261	0.117
-178.012	-99.666	-0.211	-0.052
-176.998	-200.000	-0.015	-0.090
-175.983	-200.000	0.011	0.153
-174.969	9.384	0.359	-0.268
-173.954	-15.479	-0.235	0.148
-172.939	-96.055	-0.049	-0.013
-171.925	-52.446	0.117	0.053
-170.910	163.218	0.186	0.258
-169.896	-7.091	-0.036	-0.024
-168.881	-125.900	-0.255	0.038
-167.866	-18.768	0.281	0.172
-166.852	164.453	0.133	0.185
-165.837	-200.000	0.003	0.039
-164.823	135.209	-0.159	0.204
-163.808	-100.130	0.097	-0.024
-162.793	-126.394	0.093	-0.014
-161.779	800.000	-0.101	0.423
-160.764	82.808	0.190	-0.204
-159.750	800.000	0.036	-0.124
-158.735	738.611	0.009	0.023
-157.720	176.566	0.241	0.345
-156.706	-137.319	-0.093	0.010
-155.691	90.792	-0.264	-0.292
-154.677	800.000	-0.080	0.220
-153.662	-16.312	-0.215	0.134
-152.647	149.702	0.068	-0.090
-151.633	-199.371	0.284	-0.001
-150.618	540.292	0.108	-0.252
-149.604	-200.000	0.036	-0.176
-148.589	263.237	0.231	0.395
-147.574	800.000	0.080	0.248
-146.560	155.118	-0.234	0.317
-145.545	90.349	-0.169	-0.187
-144.531	-33.625	0.278	-0.151
-143.516	103.602	0.154	0.178
-142.502	592.681	0.080	0.194
-141.487	-173.152	0.222	0.007
-140.472	-105.880	0.180	-0.040
-139.458	-200.000	-0.046	-0.389
-138.443	-26.376	0.105	-0.061
-137.429	800.000	-0.024	0.102
-136.414	244.279	0.086	0.142
-135.399	104.534	-0.177	0.205
-134.385	-110.264	-0.259	-0.053
-133.370	-74.432	-0.386	-0.137
-132.356	19.135	0.277	-0.218
-131.341	-140.702	0.289	-0.029
-130.326	217.710	-0.105	0.164
-129.312	-200.000	0.002	0.028
-128.297	180.713	-0.084	0.122
-127.283	800.000	-0.082	0.354
-126.268	-94.291	0.118	0.032
-125.253	-28.635	-0.136	-0.077
-124.239	114.355	0.092	-0.110
-123.224	301.350	0.161	0.293
-122.210	164.553	-0.141	0.196
-121.195	-43.446	0.373	0.185
-120.180	-79.019	0.490	0.164
-119.166	-106.234	-0.150	-0.033
-118.151	1.707	-0.255	-0.181
-117.137	-17.056	-0.195	0.121
-116.122	-37.453	0.064	-0.034
-115.107	-134.479	0.429	-0.052
-114.093	-61.022	0.345	-0.143
-113.078	263.939	-0.107	-0.183
-112.064	800.000	-0.043	0.173
-111.049	-200.000	0.014	-0.116
-110.034	-15.851	0.259	-0.162
-109.020	437.369	0.068	0.146
-108.005	209.556	0.211	0.326
-106.991	-200.000	0.010	-0.099
-105.976	-87.889	0.232	-0.069
-104.962	277.092	0.087	0.152
-103.947	-95.374	0.204	0.054
-102.932	668.337	0.110	0.279
-101.918	113.708	-0.234	-0.280
-100.903	-37.344	-0.173	0.091
-99.889	-200.000	0.004	0.210
-98.874	-200.000	-0.333	0.001
-97.859	63.874	0.183	0.181
-96.845	-57.739	0.523	0.225
-95.830	8.614	-0.135	0.100
-94.816	-200.000	0.006	-0.223
-93.801	34.858	-0.340	0.292
-92.786	-9.393	-0.104	-0.068
-91.772	800.000	0.053	0.182
-90.757	-46.563	0.263	0.127
-89.743	195.489	0.124	0.185
-88.728	800.000	0.055	0.219
-87.713	114.697	-0.144	0.172
-86.699	309.982	0.057	-0.104
-85.684	357.851	0.081	-0.158
-84.670	-146.179	0.284	0.025
-83.655	216.514	-0.091	-0.142
-82.640	-200.000	-0.024	-0.170
-81.626	67.482	-0.139	0.139
-80.611	39.587	-0.082	-0.072
-79.597	800.000	0.022	0.086
-78.582	263.524	-0.110	-0.189
-77.567	-200.000	0.062	-0.560
-76.553	-200.000	-0.054	-0.260
-75.538	1.049	-0.409	-0.288
-74.524	437.311	-0.152	0.326
-73.509	-13.660	-0.235	-0.149
-72.494	37.011	0.102	-0.088
-71.480	159.567	-0.183	-0.250
-70.465	-128.307	-0.247	-0.035
-69.451	-174.193	-0.125	0.004
-68.436	5.559	0.126	-0.092
-67.422	-37.337	-0.162	-0.085
-66.407	-200.000	-0.034	-0.156
-65.392	-122.774	-0.216	0.034
-64.378	272.844	-0.171	0.297
-63.363	189.651	-0.115	0.169
-62.349	-115.839	-0.213	-0.039
-61.334	93.452	-0.816	-0.907
-60.319	39.624	0.535	0.470
-59.305	800.000	-0.355	-1.042
-58.290	205.508	0.803	1.225
-57.276	540.317	0.619	1.447
-56.261	-200.000	105.253	580.182
-55.246	416.971	1510.773	3164.022
-54.232	138.739	2731.643	3519.704
-53.217	103.008	2211.887	2541.730
-52.203	40.357	1641.755	1449.330
-51.188	32.173	1375.314	1163.640
-50.173	29.214	1334.074	1110.888
-49.159	52.551	1386.648	1298.700
-48.144	52.780	1403.000	1315.371
-47.130	32.542	1357.552	1150.684
-46.115	29.141	1339.607	1114.880
-45.100	28.808	1335.490	1109.401
-44.086	28.907	1332.574	1107.528
-43.071	28.887	1329.786	1105.045
-42.057	28.695	1328.163	1102.503
-41.042	28.815	1326.077	1101.443
-40.027	28.837	1324.605	1100.309
-39.013	28.677	1322.900	1097.895
-37.998	28.946	1320.443	1097.418
-36.984	28.937	1318.573	1095.769
-35.969	28.932	1316.925	1094.323
-34.954	29.029	1315.191	1093.414
-33.940	28.925	1314.505	1092.182
-32.925	28.903	1313.098	1090.841
-31.911	29.130	1310.933	1090.345
-30.896	29.065	1309.922	1089.072
-29.881	29.031	1308.661	1087.784
-28.867	29.143	1306.444	1086.558
-27.852	29.002	1305.633	1085.009
-26.838	29.158	1303.674	1084.254
-25.823	29.124	1302.224	1082.807
-24.809	29.012	1301.523	1081.525
-23.794	29.007	1299.826	1080.043
-22.779	29.013	1298.191	1078.676
-21.765	29.024	1297.562	1078.173
-20.750	29.135	1295.758	1077.279
-19.736	28.947	1294.833	1075.372
-18.721	28.817	1293.749	1073.665
-17.706	28.906	1292.372	1073.001
-16.692	29.037	1290.961	1072.552
-15.677	28.879	1290.037	1070.820
-14.663	28.849	1288.858	1069.624
-13.648	28.874	1287.955	1068.976
-12.633	28.941	1286.714	1068.296
-11.619	28.853	1286.074	1067.213
-10.604	29.040	1284.373	1066.842
-9.590	28.904	1283.750	1065.490
-8.575	28.878	1282.806	1064.517
-7.560	28.757	1282.651	1063.647
-6.546	28.818	1281.005	1062.590
-5.531	28.933	1279.851	1062.258
-4.517	28.882	1279.397	1061.543
-3.502	28.729	1279.070	1060.346
-2.487	28.956	1277.886	1060.632
-1.473	28.963	1273.891	1057.310
-0.458	28.078	1259.957	1040.670
0.556	24.263	1243.334	1005.890
1.571	20.773	1249.258	990.772
2.586	19.183	1263.459	992.784
3.600	18.040	1250.865	976.274
4.615	13.116	1175.693	891.022
5.629	5.073	1099.262	792.307
6.644	1.198	1079.964	758.968
7.659	0.940	1077.879	756.146
8.673	0.741	1076.954	754.439
9.688	0.851	1075.504	753.904
10.702	1.091	1073.926	753.924
11.717	5.407	1079.263	779.145
12.731	12.919	1089.675	824.258
13.746	16.846	1093.803	846.971
14.761	17.503	1093.419	849.879
15.775	16.638	1091.759	844.204
16.790	15.641	1090.071	837.856
17.804	15.026	1088.490	833.506
18.819	14.565	1087.476	830.362
19.834	14.401	1086.492	828.720
20.848	14.047	1085.483	826.117
21.863	13.796	1084.658	824.171
22.877	13.716	1083.545	822.852
23.892	13.597	1083.043	821.808
24.907	13.651	1082.256	821.410
25.921	13.601	1081.623	820.608
26.936	13.797	1080.784	820.865
27.950	13.755	1079.669	819.741
28.965	13.733	1078.370	818.571
29.980	13.800	1076.897	817.712
30.994	13.820	1075.481	816.662
32.009	13.809	1075.385	816.463
33.023	13.916	1073.597	815.559
34.038	13.976	1072.746	815.137
35.053	13.841	1072.208	813.996
36.067	13.804	1071.189	812.964
37.082	13.712	1070.456	811.886
38.096	13.849	1069.539	811.788
39.111	13.877	1068.861	811.340
40.126	13.849	1067.238	809.898
41.140	13.725	1066.432	808.611
42.155	13.618	1065.383	807.224
43.169	13.663	1064.315	806.562
44.184	13.659	1063.000	805.476
45.199	13.654	1062.010	804.630
46.213	13.689	1061.077	804.022
47.228	13.798	1059.788	803.503
48.242	13.691	1058.899	802.239
49.257	13.728	1058.162	801.787
50.271	13.791	1057.004	801.145
51.286	13.803	1056.066	800.420
52.301	13.810	1055.239	799.756
53.315	13.593	1054.280	797.913
54.330	13.777	1052.867	797.659
55.344	13.690	1052.421	796.834
56.359	13.634	1051.381	795.706
57.374	13.692	1050.287	795.085
58.388	13.552	1049.389	793.662
59.403	13.782	1048.270	793.847
60.417	13.514	1048.048	792.326
61.432	13.657	1046.879	792.057
62.447	13.663	1046.133	791.450
63.461	13.695	1045.238	790.857
64.476	13.606	1044.230	789.602
65.490	13.533	1043.998	789.010
66.505	13.677	1042.548	788.526
67.520	13.600	1042.393	787.975
68.534	13.675	1041.755	787.779
69.549	13.567	1041.026	786.642
70.563	13.581	1039.995	785.863
71.578	13.447	1039.531	784.804
72.593	13.597	1038.378	784.579
73.607	13.628	1037.480	783.975
74.622	13.456	1037.319	782.972
75.636	13.567	1036.549	782.845
76.651	13.562	1035.734	782.135
77.666	13.448	1035.062	781.022
78.680	13.503	1034.311	780.646
79.695	13.613	1033.842	780.740
80.709	13.566	1033.211	779.974
81.724	13.611	1032.280	779.414
82.739	13.758	1031.531	779.471
83.753	13.852	1030.381	778.972
84.768	13.805	1029.459	777.986
85.782	13.784	1028.954	777.439
86.797	13.827	1028.004	776.853
87.812	13.688	1027.262	775.574
88.826	13.801	1025.990	775.071
89.841	13.776	1024.972	774.116
90.855	13.819	1024.131	773.614
91.870	13.772	1023.659	772.971
92.884	13.793	1022.579	772.186
93.899	13.905	1021.499	771.819
94.914	13.868	1020.822	771.069
95.928	14.008	1020.136	771.131
96.943	13.904	1018.919	769.665
97.957	13.856	1018.292	768.899
98.972	13.852	1017.651	768.329
99.987	13.809	1016.472	767.169
101.001	13.871	1015.472	766.634
102.016	13.879	1014.727	766.039
103.030	13.843	1013.725	765.052
104.045	13.768	1013.216	764.254
105.060	13.837	1012.305	763.817
106.074	13.757	1011.440	762.727
107.089	13.721	1010.318	761.651
108.103	13.718	1009.551	760.989
109.118	13.739	1008.517	760.240
110.133	13.801	1007.485	759.678
111.147	13.759	1006.638	758.781
112.162	13.784	1005.767	758.171
113.176	13.835	1004.930	757.705
114.191	13.824	1004.383	757.175
115.206	13.850	1003.409	756.495
116.220	13.804	1002.468	755.508
117.235	13.661	1001.923	754.377
118.249	13.706	1000.754	753.639
119.264	13.758	1000.177	753.373
120.279	13.776	999.388	752.794
121.293	13.846	998.382	752.285
122.308	13.713	997.646	751.061
123.322	13.740	996.706	750.411
124.337	13.799	995.531	749.727
125.352	13.800	994.024	748.530
126.366	13.838	993.447	748.202
127.381	13.862	992.177	747.284
128.395	13.786	991.456	746.333
129.410	13.852	990.670	745.971
130.424	13.791	989.714	744.916
131.439	13.721	989.092	744.067
132.454	13.812	988.571	744.014
133.468	14.110	986.695	743.869
134.483	13.750	986.671	742.177
135.497	13.871	985.222	741.563
136.512	13.989	984.549	741.519
137.527	13.915	983.995	740.704
138.541	13.844	983.072	739.627
139.556	14.043	982.584	740.079
140.570	13.901	981.957	738.912
141.585	13.925	980.851	738.122
142.600	13.910	980.644	737.833
143.614	13.932	979.826	737.247
144.629	13.924	978.736	736.328
145.643	13.992	977.606	735.715
146.658	14.087	976.178	734.996
147.673	14.001	975.531	734.061
148.687	13.791	975.407	732.977
149.702	13.816	974.539	732.371
150.716	13.843	973.658	731.760
151.731	14.051	972.894	732.037
152.746	13.900	971.855	730.528
153.760	13.957	971.053	730.112
154.775	14.030	970.844	730.209
155.789	13.883	970.728	729.412
156.804	14.072	969.633	729.355
157.819	14.061	968.998	728.764
158.833	14.111	968.072	728.221
159.848	14.144	967.279	727.704
160.862	14.155	966.282	726.938
161.877	14.029	965.211	725.519
162.892	14.001	964.130	724.518
163.906	14.104	963.390	724.347
164.921	14.074	962.638	723.588
165.935	14.065	961.614	722.716
166.950	14.183	960.513	722.337
167.964	14.084	960.160	721.577
168.979	14.040	959.365	720.724
169.994	14.058	958.322	719.957
171.008	14.167	957.846	720.006
172.023	14.235	956.325	719.092
173.037	14.149	956.169	718.543
174.052	14.257	955.450	718.404
175.067	14.101	954.680	717.087
176.081	14.127	954.374	716.905
177.096	14.247	953.549	716.739
178.110	14.199	953.230	716.229
179.125	14.238	952.256	715.602
180.140	14.378	951.756	715.766
181.154	14.230	951.632	714.974
182.169	14.282	951.119	714.749
183.183	14.382	950.307	714.505
184.198	14.352	949.511	713.712
185.213	14.496	948.629	713.602
186.227	14.379	948.385	712.854
187.242	14.552	947.294	712.713
188.256	14.476	946.620	711.819
189.271	14.479	945.825	711.170
190.286	14.424	945.166	710.377
191.300	14.330	944.586	709.480
192.315	14.178	944.274	708.534
193.329	14.398	943.355	708.715
194.344	14.408	942.905	708.360
195.359	14.416	941.999	707.650
196.373	14.501	941.152	707.312
197.388	14.499	940.819	706.989
198.402	14.509	940.539	706.759
199.417	14.630	939.333	706.303
200.432	14.643	938.975	706.028
201.446	14.596	938.799	705.631
202.461	14.624	937.954	705.052
203.475	14.634	937.447	704.650
204.490	14.673	936.407	703.973
205.504	14.563	935.828	703.011
206.519	14.667	934.991	702.758
207.534	14.689	934.272	702.247
208.548	14.463	933.960	701.002
209.563	14.685	933.125	701.244
210.577	14.752	932.289	700.837
211.592	14.810	931.628	700.521
212.607	14.753	930.540	699.401
213.621	14.899	929.809	699.399
214.636	14.866	929.329	698.839
215.650	14.775	928.846	698.035
216.665	14.866	927.447	697.300
217.680	14.864	927.532	697.294
218.694	14.995	926.598	697.075
219.709	14.845	926.089	696.008
220.723	14.962	925.057	695.655
221.738	14.819	924.658	694.702
222.753	14.964	923.943	694.704
223.767	14.867	923.313	693.765
224.782	14.997	922.881	693.921
225.796	14.907	922.403	693.126
226.811	14.978	921.789	692.896
227.826	14.945	920.632	691.829
228.840	15.096	919.602	691.620
229.855	14.979	919.294	690.843
230.869	14.987	918.420	690.159
231.884	14.993	917.875	689.710
232.899	14.957	917.231	689.018
233.913	14.976	916.149	688.224
234.928	14.952	915.900	687.875
235.942	15.052	914.928	687.495
236.957	14.994	914.766	687.075
237.972	14.927	914.389	686.455
238.986	15.042	913.504	686.204
240.001	15.169	912.671	686.036
241.015	15.128	912.052	685.345
242.030	15.069	911.230	684.422
243.045	15.035	911.251	684.241
244.059	15.101	910.503	683.887
245.074	15.230	909.260	683.417
246.088	15.114	908.897	682.613
247.103	15.088	908.163	681.893
248.117	15.130	907.806	681.737
249.132	15.232	907.275	681.694
250.147	15.289	906.375	681.190
251.161	15.203	905.867	680.397
252.176	15.299	905.349	680.335
253.190	15.466	904.309	680.171
254.205	15.392	903.697	679.354
255.220	15.342	903.366	678.843
256.234	15.450	902.362	678.462
257.249	15.623	901.383	678.367
258.263	15.529	900.984	677.625
259.278	15.519	900.567	677.212
260.293	15.551	899.798	676.701
261.307	15.590	899.394	676.495
262.322	15.765	898.454	676.433
263.336	15.577	897.959	675.244
264.351	15.694	896.778	674.768
265.366	15.658	896.442	674.309
266.380	15.614	896.073	673.795
267.395	15.604	895.318	673.127
268.409	15.667	894.389	672.623
269.424	15.630	893.559	671.791
270.439	15.654	893.042	671.440
271.453	15.761	892.055	671.063
272.468	15.631	892.033	670.469
273.482	15.641	891.288	669.890
274.497	15.722	890.396	669.481
275.512	15.588	890.245	668.778
276.526	15.845	889.438	669.133
277.541	15.767	888.913	668.369
278.555	15.781	888.324	667.922
279.570	15.876	887.229	667.415
280.585	15.974	886.724	667.368
281.599	15.901	886.000	666.474
282.614	15.842	885.403	665.732
283.628	15.941	884.876	665.667
284.643	15.918	884.314	665.094
285.657	15.912	883.655	664.517
286.672	16.021	882.946	664.357
287.687	16.017	882.289	663.785
288.701	15.997	881.817	663.293
289.716	15.958	881.268	662.669
290.730	15.932	880.817	662.169
291.745	16.057	880.183	662.126
292.760	16.124	879.634	661.916
293.774	16.211	878.751	661.533
294.789	16.008	878.237	660.295
295.803	16.068	877.305	659.770
296.818	15.988	876.913	659.101
297.833	16.009	876.296	658.664
298.847	16.094	875.320	658.203
299.862	16.187	875.460	658.614
300.876	16.102	874.484	657.489
301.891	16.193	873.839	657.301
302.906	16.238	873.004	656.791
303.920	16.391	872.381	656.858
304.935	16.345	871.869	656.236
305.949	16.448	871.198	656.072
306.964	16.369	870.803	655.410
307.979	16.264	870.323	654.583
308.993	16.342	869.583	654.270
310.008	16.311	869.020	653.670
311.022	16.341	868.552	653.375
312.037	16.230	868.199	652.624
313.052	16.174	867.774	652.028
314.066	16.313	866.974	651.906
315.081	16.318	866.505	651.516
316.095	16.368	865.344	650.777
317.110	16.419	864.829	650.529
318.125	16.342	864.253	649.741
319.139	16.314	864.250	649.575
320.154	16.372	863.672	649.307
321.168	16.352	863.168	648.794
322.183	16.465	862.262	648.488
323.197	16.444	862.130	648.252
324.212	16.425	861.471	647.625
325.227	16.537	860.297	647.115
326.241	16.452	860.389	646.802
327.256	16.569	859.931	646.845
328.270	16.416	859.223	645.672
329.285	16.436	858.579	645.208
330.300	16.489	857.694	644.687
331.314	16.405	857.660	644.284
332.329	16.544	857.187	644.404
333.343	16.541	856.304	643.671
334.358	16.607	855.903	643.563
335.373	16.523	855.350	642.770
336.387	16.674	855.088	643.091
337.402	16.619	855.017	642.773
338.416	16.641	854.608	642.492
339.431	16.717	854.521	642.655
340.446	16.699	853.692	641.906
341.460	16.800	853.355	641.980
342.475	16.691	853.043	641.274
343.489	16.778	852.477	641.121
344.504	16.801	851.866	640.693
345.519	16.867	851.421	640.551
346.533	16.932	850.674	640.178
347.548	16.884	850.292	639.652
348.562	16.835	849.756	639.008
349.577	16.813	849.279	638.512
350.592	16.770	848.683	637.846
351.606	16.865	847.872	637.536
352.621	16.843	847.260	636.936
353.635	16.964	846.244	636.569
354.650	16.990	845.859	636.322
355.665	16.855	845.159	635.233
356.679	17.144	844.487	635.754
357.694	17.043	843.894	634.872
358.708	17.002	843.390	634.286
359.723	17.029	842.610	633.743
360.738	17.045	842.400	633.590
361.752	17.084	841.548	633.036
362.767	17.216	841.038	633.089
363.781	17.079	840.207	631.896
364.796	17.182	839.805	631.922
365.810	17.058	840.038	631.580
366.825	17.266	839.230	631.691
367.840	17.192	838.372	630.713
368.854	17.244	837.866	630.471
369.869	17.199	837.781	630.185
370.883	17.294	837.090	629.960
371.898	17.198	836.922	629.423
372.913	17.368	836.819	629.920
373.927	17.304	835.851	628.898
374.942	17.437	835.464	629.043
375.956	17.280	835.319	628.299
376.971	17.315	834.664	627.879
377.986	17.385	834.295	627.805
379.000	17.588	833.423	627.842
380.015	17.559	833.114	627.446
381.029	17.584	832.494	627.015
382.044	17.578	831.833	626.441
383.059	17.509	831.388	625.796
384.073	17.460	830.902	625.195
385.088	17.623	829.845	624.942
386.102	17.392	829.987	624.144
387.117	17.463	829.379	623.894
388.132	17.421	828.715	623.186
389.146	17.622	827.961	623.298
390.161	17.630	827.669	623.051
391.175	17.654	827.013	622.591
392.190	17.649	826.622	622.223
393.205	17.731	825.913	621.934
394.219	17.634	825.827	621.461
395.234	17.546	825.748	621.026
396.248	17.513	825.080	620.347
397.263	17.557	824.534	620.043
398.278	17.592	824.115	619.800
399.292	17.547	823.895	619.416
400.307	17.695	823.193	619.372
401.321	17.726	822.698	619.058
402.336	17.647	822.137	618.292
403.350	17.687	821.586	617.970
404.365	17.856	821.097	618.158
405.380	17.946	820.752	618.170
406.394	17.835	820.456	617.491
407.409	17.791	819.910	616.863
408.423	17.914	819.862	617.220
409.438	17.940	819.342	616.868
410.453	17.812	818.846	615.977
411.467	17.800	818.342	615.499
412.482	17.887	817.886	615.417
413.496	17.972	817.633	615.478
414.511	17.977	816.987	614.956
415.526	18.127	816.755	615.268
416.540	18.148	816.013	614.728
417.555	18.021	815.815	614.067
418.569	18.001	815.407	613.633
419.584	18.090	814.960	613.565
420.599	18.097	814.370	613.090
421.613	111.049	1294.741	1471.859
422.628	96.042	1364.725	1471.939
