DTS Sentinel unit serial number:	SN413079Multiplexer serial number:	ORYXHardware model number:	OX4-SRSoftware version number:	ORYX F/W v4.00 Oryx Data Collector v3.7.2.0data status	okinstallation	princeton_trtdifferential loss correction	single-endedforward channel	channel 1reverse channel	N/Adate	2019/09/16time	03:06:35forward acquisition time	60.00reverse acquisition time	0.00gamma	496.2192k internal	0.2331k external	0.2331temperature offset calibration	0.9979default loss term (dB/km)	0.3790temperature slope calibration	1.0000multiplexer offset coefficient	1.0000multiplexer slope coefficient	1.0000fibre end	0.00T internal ref (°C)	27.75T ext. ref 1 (°C)	10.44T ext. ref 2 (°C)	22.13length (m)	temperature (°C)	Stokes	anti-Stokes-747.200	-31.695	0.155	-0.088
-746.185	330.322	-0.166	0.322
-745.171	-200.000	0.022	0.307
-744.156	38.058	0.047	-0.042
-743.142	-164.863	-0.230	-0.010
-742.127	118.148	-0.055	0.068
-741.112	166.063	0.122	0.173
-740.098	-85.526	-0.182	0.057
-739.083	-41.987	0.286	0.147
-738.069	296.157	-0.033	0.062
-737.054	87.592	0.142	-0.158
-736.039	47.611	-0.212	0.199
-735.025	-110.697	-0.123	-0.026
-734.010	800.000	0.065	0.235
-732.996	-41.652	0.128	-0.066
-731.981	-148.757	-0.350	-0.029
-730.966	-200.000	0.017	-0.096
-729.952	55.278	-0.131	0.127
-728.937	800.000	0.044	0.144
-727.923	-14.102	0.139	0.090
-726.908	-200.000	0.004	-0.083
-725.894	800.000	0.018	-0.080
-724.879	57.749	-0.176	-0.173
-723.864	1.425	0.227	-0.164
-722.850	89.472	0.143	-0.160
-721.835	-139.569	-0.132	0.014
-720.821	800.000	-0.103	-0.316
-719.806	800.000	-0.009	0.038
-718.791	106.490	0.121	0.145
-717.777	-46.876	0.119	-0.059
-716.762	-111.331	-0.239	0.049
-715.748	-200.000	-0.001	0.246
-714.733	163.917	-0.228	-0.323
-713.718	-50.852	-0.142	0.067
-712.704	474.982	-0.062	0.141
-711.689	-45.674	-0.281	0.140
-710.675	18.030	0.193	-0.155
-709.660	484.123	-0.071	0.163
-708.645	-65.358	0.437	-0.177
-707.631	491.003	-0.069	0.158
-706.616	-82.193	-0.158	-0.052
-705.602	800.000	-0.070	-0.193
-704.587	-141.763	-0.165	-0.017
-703.572	28.775	-0.066	-0.056
-702.558	114.912	0.127	0.156
-701.543	-200.000	-0.055	0.243
-700.529	-130.665	0.245	0.033
-699.514	-99.603	0.268	-0.068
-698.499	-109.409	-0.350	-0.074
-697.485	-200.000	0.049	0.314
-696.470	269.332	-0.047	-0.082
-695.456	-200.000	-0.012	0.317
-694.441	66.088	0.077	-0.079
-693.426	99.691	-0.092	0.107
-692.412	800.000	-0.023	0.095
-691.397	440.748	-0.107	-0.236
-690.383	-75.793	-0.324	-0.116
-689.368	-200.000	0.009	-0.061
-688.354	61.225	-0.218	-0.218
-687.339	-200.000	-0.029	-0.255
-686.324	106.652	0.175	0.209
-685.310	-55.842	0.210	0.094
-684.295	13.393	0.299	-0.233
-683.281	641.638	0.070	-0.178
-682.266	-71.227	-0.330	0.124
-681.251	-200.000	-0.026	0.385
-680.237	159.347	0.074	0.104
-679.222	576.876	-0.092	0.226
-678.208	150.044	0.113	0.154
-677.193	-200.000	0.018	0.082
-676.178	800.000	0.128	0.392
-675.164	-200.000	-0.024	-0.173
-674.149	-200.000	-0.004	0.036
-673.135	105.872	-0.157	0.187
-672.120	153.530	-0.143	0.196
-671.105	279.553	0.086	0.155
-670.091	11.143	-0.372	0.286
-669.076	526.537	-0.069	-0.164
-668.062	800.000	-0.128	-0.388
-667.047	-48.200	-0.268	0.130
-666.032	72.256	0.092	-0.096
-665.018	506.500	-0.099	-0.231
-664.003	-166.003	0.363	-0.016
-662.989	-91.183	-0.023	0.007
-661.974	-44.932	-0.397	0.198
-660.959	800.000	-0.071	-0.229
-659.945	-4.700	-0.054	0.037
-658.930	-43.945	-0.119	-0.060
-657.916	72.512	-0.051	-0.053
-656.901	-138.688	-0.170	-0.019
-655.886	335.398	-0.047	0.091
-654.872	-53.617	0.038	-0.018
-653.857	100.474	-0.195	-0.228
-652.843	-200.000	0.012	0.059
-651.828	-162.000	0.454	-0.023
-650.814	202.201	-0.053	-0.082
-649.799	800.000	-0.095	-0.344
-648.784	5.861	0.094	0.070
-647.770	-200.000	0.060	0.276
-646.755	-200.000	-0.012	0.103
-645.741	419.748	0.047	0.101
-644.726	63.507	-0.100	0.101
-643.711	508.099	0.090	0.210
-642.697	-200.000	0.014	0.085
-641.682	467.625	-0.024	-0.054
-640.668	-36.798	-0.116	0.062
-639.653	679.964	0.016	0.041
-638.638	-116.755	0.115	0.021
-637.624	-72.520	0.306	0.113
-636.609	-123.292	-0.442	0.071
-635.595	-28.984	-0.155	0.089
-634.580	101.926	0.102	-0.120
-633.565	800.000	-0.111	-0.325
-632.551	281.201	-0.030	0.054
-631.536	33.862	-0.200	-0.174
-630.522	-88.325	0.262	-0.079
-629.507	-184.216	0.412	0.007
-628.492	113.536	0.166	-0.201
-627.478	-48.450	-0.368	-0.178
-626.463	141.596	0.096	-0.127
-625.449	43.041	-0.285	0.260
-624.434	-126.445	0.267	0.040
-623.419	239.634	-0.126	0.210
-622.405	800.000	-0.101	-0.437
-621.390	-200.000	0.039	-0.190
-620.376	-111.605	0.270	0.055
-619.361	-137.079	0.260	-0.030
-618.346	-0.724	-0.127	-0.090
-617.332	105.589	-0.080	-0.095
-616.317	-28.640	0.227	0.131
-615.303	427.605	-0.092	-0.200
-614.288	-12.222	0.110	0.072
-613.273	-137.446	-0.145	-0.016
-612.259	-36.291	-0.193	-0.104
-611.244	800.000	0.045	-0.135
-610.230	113.210	0.209	-0.253
-609.215	-200.000	-0.028	-0.553
-608.201	279.936	-0.128	0.230
-607.186	-88.592	0.065	-0.019
-606.171	-49.865	-0.333	-0.158
-605.157	442.868	0.221	0.485
-604.142	20.995	0.077	0.062
-603.128	-15.089	-0.114	-0.073
-602.113	-128.055	-0.113	-0.016
-601.098	177.742	-0.190	-0.278
-600.084	800.000	-0.042	0.135
-599.069	-73.734	-0.019	0.007
-598.055	-91.110	0.286	0.082
-597.040	-110.339	-0.289	0.060
-596.025	-200.000	-0.026	-0.525
-595.011	-200.000	-0.024	0.169
-593.996	9.042	-0.060	-0.046
-592.982	716.508	0.049	0.131
-591.967	800.000	0.106	0.363
-590.952	-20.284	-0.176	-0.108
-589.938	280.064	-0.056	0.100
-588.923	-75.339	0.203	0.073
-587.909	800.000	0.057	-0.170
-586.894	236.016	-0.095	-0.158
-585.879	52.585	-0.173	0.165
-584.865	254.926	0.290	-0.497
-583.850	-172.891	0.075	-0.002
-582.836	34.431	-0.182	-0.159
-581.821	615.383	0.024	-0.060
-580.806	99.565	-0.193	-0.223
-579.792	-200.000	0.003	-0.263
-578.777	-103.234	0.109	0.026
-577.763	-58.797	0.081	0.035
-576.748	50.189	-0.062	0.058
-575.733	800.000	-0.107	-0.307
-574.719	332.713	0.031	0.061
-573.704	315.692	-0.052	0.099
-572.690	-159.830	0.197	-0.011
-571.675	247.058	-0.191	0.322
-570.661	800.000	-0.024	0.083
-569.646	786.577	-0.083	-0.228
-568.631	669.909	-0.106	0.275
-567.617	-118.012	0.066	0.012
-566.602	-128.199	0.072	-0.010
-565.588	2.285	-0.272	0.196
-564.573	192.475	0.143	0.216
-563.558	-200.000	-0.025	0.278
-562.544	-88.592	0.220	0.065
-561.529	256.693	0.296	0.508
-560.515	-93.568	-0.191	0.053
-559.500	403.106	-0.199	-0.419
-558.485	228.655	-0.160	-0.260
-557.471	298.248	-0.191	0.352
-556.456	-170.250	0.193	-0.007
-555.442	6.547	-0.227	-0.168
-554.427	-19.625	0.404	0.250
-553.412	-200.000	-0.028	0.190
-552.398	-200.000	-0.061	-0.456
-551.383	186.111	0.199	-0.296
-550.369	-5.847	-0.149	0.102
-549.354	-68.927	0.337	0.130
-548.339	800.000	0.039	0.135
-547.325	-51.707	-0.041	-0.019
-546.310	347.809	-0.147	-0.289
-545.296	171.018	0.048	0.068
-544.281	-105.858	0.319	-0.072
-543.266	800.000	-0.052	-0.168
-542.252	109.741	-0.029	-0.035
-541.237	-141.709	0.422	0.042
-540.223	21.118	-0.172	-0.139
-539.208	-200.000	0.041	0.428
-538.193	-200.000	-0.050	0.274
-537.179	783.905	0.016	-0.044
-536.164	-175.565	0.252	-0.007
-535.150	-125.880	0.566	0.085
-534.135	-200.000	-0.006	0.248
-533.121	756.095	-0.064	0.173
-532.106	-131.447	0.316	0.042
-531.091	-131.892	-0.370	0.048
-530.077	-139.969	-0.355	0.037
-529.062	-164.781	-0.204	-0.009
-528.048	344.428	0.052	-0.102
-527.033	-155.713	0.159	-0.010
-526.018	-23.943	0.047	-0.028
-525.004	31.266	-0.127	-0.109
-523.989	103.020	-0.203	0.237
-522.975	-9.280	0.142	0.095
-521.960	220.730	0.037	0.059
-520.945	117.363	-0.141	-0.173
-519.931	800.000	0.061	0.214
-518.916	217.033	0.085	0.135
-517.902	-200.000	0.006	-0.061
-516.887	227.838	0.057	0.093
-515.872	143.323	-0.232	0.308
-514.858	10.266	-0.174	-0.132
-513.843	-10.897	-0.403	0.265
-512.829	153.742	-0.028	0.039
-511.814	-148.040	-0.034	0.003
-510.799	558.841	-0.200	-0.482
-509.785	22.522	0.161	0.131
-508.770	-200.000	0.015	-0.446
-507.756	6.174	0.161	-0.119
-506.741	149.164	0.098	-0.132
-505.726	-121.101	0.134	0.022
-504.712	-84.636	-0.451	0.142
-503.697	30.091	0.049	0.042
-502.683	-200.000	-0.014	0.087
-501.668	50.622	-0.095	0.090
-500.653	296.523	0.019	-0.035
-499.639	-5.892	-0.134	-0.092
-498.624	-200.000	-0.057	-0.323
-497.610	1.081	-0.121	0.086
-496.595	54.081	0.091	0.088
-495.581	-171.547	-0.130	0.004
-494.566	-0.042	-0.226	0.161
-493.551	87.617	0.039	-0.043
-492.537	800.000	0.030	0.093
-491.522	800.000	0.073	-0.309
-490.508	219.272	-0.053	-0.084
-489.493	299.976	-0.026	0.047
-488.478	800.000	-0.064	0.215
-487.464	-42.184	-0.212	0.108
-486.449	334.977	-0.207	-0.400
-485.435	-200.000	0.030	0.228
-484.420	-34.490	-0.119	0.065
-483.405	-31.216	-0.361	-0.202
-482.391	-200.000	0.002	0.241
-481.376	-2.538	0.141	-0.098
-480.362	-10.075	0.237	-0.157
-479.347	-200.000	-0.102	-0.647
-478.332	800.000	-0.126	-0.525
-477.318	38.200	-0.123	-0.109
-476.303	-166.825	0.205	-0.008
-475.289	29.809	-0.378	-0.321
-474.274	233.406	-0.144	-0.237
-473.259	792.355	-0.098	-0.269
-472.245	-10.358	0.382	0.253
-471.230	-180.202	0.156	0.003
-470.216	-69.108	-0.173	0.066
-469.201	222.729	0.177	0.283
-468.186	205.882	-0.041	0.064
-467.172	800.000	-0.130	0.382
-466.157	1.458	0.225	0.161
-465.143	742.016	-0.065	-0.175
-464.128	-200.000	0.053	-0.233
-463.113	800.000	0.084	-0.293
-462.099	54.596	0.041	-0.039
-461.084	800.000	0.033	-0.131
-460.070	-54.248	0.178	0.080
-459.055	-126.092	-0.066	-0.010
-458.040	221.858	0.135	0.216
-457.026	156.202	-0.083	0.113
-456.011	-46.817	0.291	-0.142
-454.997	630.234	-0.062	-0.155
-453.982	-200.000	0.021	0.137
-452.968	-67.820	-0.341	0.133
-451.953	-200.000	0.009	-0.152
-450.938	36.537	-0.120	-0.105
-449.924	-8.084	0.257	-0.172
-448.909	-6.553	-0.163	0.111
-447.895	-200.000	-0.008	0.410
-446.880	-112.791	0.225	-0.044
-445.865	-126.062	-0.372	-0.056
-444.851	-200.000	-0.036	0.354
-443.836	49.889	0.039	0.037
-442.822	-200.000	-0.060	0.458
-441.807	-65.076	-0.325	-0.130
-440.792	-109.513	-0.080	0.017
-439.778	-118.990	0.258	-0.045
-438.763	90.376	0.087	-0.097
-437.749	-200.000	0.062	0.339
-436.734	-103.762	-0.126	-0.029
-435.719	195.247	-0.061	-0.092
-434.705	130.212	-0.056	0.071
-433.690	-200.000	-0.003	0.110
-432.676	182.124	0.284	0.417
-431.661	800.000	-0.037	0.157
-430.646	258.466	-0.265	0.455
-429.632	-141.387	0.317	0.032
-428.617	260.699	-0.016	-0.027
-427.603	166.642	-0.213	-0.301
-426.588	800.000	0.077	-0.310
-425.573	-73.833	0.077	0.028
-424.559	-157.027	0.345	0.021
-423.544	-110.695	0.141	-0.029
-422.530	-93.706	0.092	-0.025
-421.515	46.947	0.042	0.039
-420.500	-75.242	0.214	0.076
-419.486	-200.000	0.001	0.304
-418.471	426.010	-0.041	-0.089
-417.457	91.243	-0.211	-0.235
-416.442	-66.337	-0.239	0.094
-415.428	193.239	0.244	0.367
-414.413	8.422	-0.075	0.056
-413.398	-29.477	-0.222	0.126
-412.384	107.981	0.157	-0.186
-411.369	37.362	-0.173	0.152
-410.355	11.619	0.127	-0.096
-409.340	-200.000	0.036	-0.360
-408.325	-56.819	-0.271	0.119
-407.311	291.907	0.092	-0.167
-406.296	-200.000	0.008	-0.191
-405.282	-200.000	-0.011	0.160
-404.267	800.000	-0.054	0.163
-403.252	371.176	-0.100	0.202
-402.238	-58.269	0.201	-0.087
-401.223	-145.428	-0.233	-0.021
-400.209	59.757	0.095	0.093
-399.194	298.028	0.140	-0.256
-398.179	-33.273	-0.463	-0.254
-397.165	-200.000	0.039	0.392
-396.150	-87.451	0.418	0.126
-395.136	703.687	0.006	-0.017
-394.121	-200.000	0.014	0.184
-393.106	313.356	-0.018	-0.033
-392.092	-138.022	0.378	0.042
-391.077	37.818	0.244	0.216
-390.063	-22.877	-0.094	0.056
-389.048	800.000	0.040	-0.148
-388.033	-119.650	0.174	0.030
-387.019	41.539	0.161	-0.145
-386.004	4.078	-0.188	-0.137
-384.990	416.355	0.040	-0.086
-383.975	-32.519	0.301	-0.166
-382.960	-10.294	0.070	-0.046
-381.946	-146.692	-0.183	0.016
-380.931	39.245	-0.155	0.138
-379.917	115.509	0.055	0.066
-378.902	-48.081	-0.296	-0.142
-377.888	-200.000	-0.003	-0.094
-376.873	56.385	0.134	-0.129
-375.858	-115.276	-0.290	-0.054
-374.844	-48.735	0.019	0.009
-373.829	-83.084	-0.451	0.144
-372.815	165.660	-0.063	0.088
-371.800	126.642	-0.068	-0.086
-370.785	-200.000	0.029	0.297
-369.771	-200.000	-0.031	0.194
-368.756	259.673	0.123	0.211
-367.742	145.962	0.066	-0.088
-366.727	121.588	-0.215	0.266
-365.712	800.000	-0.085	0.352
-364.698	-200.000	0.014	-0.063
-363.683	-200.000	0.002	0.098
-362.669	-200.000	-0.003	-0.022
-361.654	-41.538	0.249	0.127
-360.639	-66.181	-0.150	0.059
-359.625	-108.545	0.308	0.066
-358.610	800.000	0.008	-0.028
-357.596	56.594	-0.068	-0.066
-356.581	31.986	-0.059	0.050
-355.566	57.492	-0.161	-0.156
-354.552	29.136	-0.046	-0.039
-353.537	100.804	-0.189	-0.217
-352.523	-29.150	0.163	0.092
-351.508	-28.693	0.082	0.047
-350.493	44.579	0.062	0.057
-349.479	-200.000	-0.008	0.158
-348.464	-111.738	-0.324	-0.065
-347.450	113.362	-0.043	0.052
-346.435	-66.188	-0.116	-0.046
-345.420	800.000	0.092	-0.291
-344.406	70.913	0.151	-0.155
-343.391	538.440	-0.117	-0.277
-342.377	552.997	0.071	0.168
-341.362	82.402	-0.214	-0.230
-340.348	-200.000	-0.023	-0.512
-339.333	166.417	0.055	-0.077
-338.318	-34.846	-0.249	-0.135
-337.304	20.435	-0.143	-0.115
-336.289	-200.000	0.016	-0.094
-335.275	-75.742	-0.235	0.082
-334.260	47.069	0.053	-0.049
-333.245	353.497	0.098	0.193
-332.231	74.151	-0.218	-0.226
-331.216	-129.093	0.133	-0.018
-330.202	9.963	0.275	-0.207
-329.187	-36.715	-0.345	0.183
-328.172	800.000	0.021	0.089
-327.158	-200.000	-0.042	0.188
-326.143	-200.000	-0.067	-0.403
-325.129	-170.184	0.631	0.022
-324.114	-200.000	-0.009	-0.054
-323.099	359.398	0.137	-0.271
-322.085	800.000	-0.068	0.215
-321.070	-170.924	-0.342	0.012
-320.056	800.000	-0.088	0.338
-319.041	434.587	0.121	0.260
-318.026	-49.597	-0.222	-0.104
-317.012	77.068	-0.117	-0.123
-315.997	244.425	0.100	0.167
-314.983	41.177	0.177	-0.158
-313.968	-79.571	0.331	0.111
-312.953	-175.404	-0.110	0.003
-311.939	61.332	-0.135	0.133
-310.924	800.000	0.028	-0.118
-309.910	-200.000	0.013	-0.101
-308.895	-131.546	-0.432	-0.056
-307.880	800.000	-0.066	0.254
-306.866	684.173	-0.137	0.353
-305.851	39.485	-0.126	-0.112
-304.837	135.206	0.022	0.028
-303.822	-43.938	-0.164	0.081
-302.807	-133.131	0.117	-0.015
-301.793	-102.695	0.179	0.042
-300.778	363.768	0.167	-0.332
-299.764	5.066	-0.372	0.271
-298.749	-60.963	0.137	0.057
-297.735	-200.000	0.065	0.362
-296.720	88.632	-0.146	0.160
-295.705	-185.259	0.120	0.002
-294.691	368.745	-0.254	0.509
-293.676	-82.865	-0.372	0.119
-292.662	-32.013	0.138	0.076
-291.647	-200.000	-0.049	0.218
-290.632	103.637	-0.174	0.202
-289.618	-112.733	0.191	-0.037
-288.603	157.150	-0.037	0.050
-287.589	34.990	-0.038	-0.033
-286.574	-200.000	-0.010	0.142
-285.559	-15.717	-0.073	0.046
-284.545	-119.632	0.206	-0.035
-283.530	-132.192	0.301	-0.039
-282.516	-200.000	0.014	0.146
-281.501	-55.277	-0.465	0.207
-280.486	-200.000	-0.025	-0.143
-279.472	130.397	-0.178	0.225
-278.457	52.589	0.156	0.147
-277.443	800.000	-0.065	0.206
-276.428	-34.914	0.230	-0.124
-275.413	627.743	-0.107	0.268
-274.399	-200.000	-0.027	-0.319
-273.384	-26.404	-0.239	0.139
-272.370	-36.283	-0.107	-0.057
-271.355	17.385	0.214	0.168
-270.340	214.499	0.089	0.139
-269.326	-58.031	-0.371	-0.160
-268.311	-48.352	0.146	-0.069
-267.297	800.000	-0.018	-0.077
-266.282	-162.228	0.244	0.012
-265.267	-200.000	0.008	-0.049
-264.253	-84.179	0.255	0.080
-263.238	-76.299	-0.108	0.037
-262.224	-107.939	0.235	0.050
-261.209	-94.982	-0.064	-0.017
-260.195	-169.871	-0.381	-0.013
-259.180	-79.102	0.488	-0.164
-258.165	800.000	0.029	-0.113
-257.151	13.623	-0.196	-0.150
-256.136	-31.931	0.275	-0.152
-255.122	96.807	0.099	0.112
-254.107	-33.193	0.298	0.163
-253.092	-99.044	-0.345	0.086
-252.078	800.000	-0.031	-0.121
-251.063	-9.199	0.164	-0.108
-250.049	262.823	-0.079	0.135
-249.034	-200.000	-0.015	0.100
-248.019	239.220	-0.106	-0.174
-247.005	-200.000	0.071	-0.438
-245.990	251.598	0.126	0.212
-244.976	-142.925	-0.013	0.001
-243.961	-200.000	0.001	-0.171
-242.946	800.000	0.033	0.118
-241.932	-200.000	0.059	-0.351
-240.917	-21.337	0.315	-0.190
-239.903	87.918	-0.126	-0.138
-238.888	13.818	0.332	0.254
-237.873	-49.270	0.160	-0.075
-236.859	568.894	0.063	-0.150
-235.844	-200.000	-0.020	0.218
-234.830	-37.919	0.203	0.107
-233.815	-40.584	-0.104	-0.053
-232.800	571.442	0.079	0.190
-231.786	-60.718	-0.213	-0.089
-230.771	-113.623	0.059	-0.011
-229.757	-21.701	-0.042	-0.025
-228.742	-106.293	0.264	0.058
-227.727	800.000	-0.092	-0.264
-226.713	165.560	0.179	-0.249
-225.698	800.000	-0.044	-0.158
-224.684	-200.000	0.267	0.000
-223.669	-200.000	0.080	0.403
-222.655	-14.910	0.253	-0.160
-221.640	72.037	-0.055	-0.056
-220.625	-49.443	-0.096	0.045
-219.611	160.151	0.006	0.008
-218.596	-50.526	-0.265	-0.123
-217.582	118.987	0.119	-0.146
-216.567	-200.000	0.007	-0.100
-215.552	87.820	-0.145	-0.159
-214.538	-20.618	-0.231	-0.140
-213.523	589.686	0.056	0.137
-212.509	260.491	-0.141	-0.240
-211.494	129.920	-0.024	0.030
-210.479	800.000	0.049	-0.190
-209.465	476.204	-0.067	0.149
-208.450	486.941	-0.048	-0.108
-207.436	800.000	0.077	-0.238
-206.421	-57.623	0.125	0.054
-205.406	-137.583	0.156	0.017
-204.392	-200.000	-0.012	-0.257
-203.377	-36.701	-0.097	-0.051
-202.363	-78.756	0.341	-0.115
-201.348	800.000	-0.071	0.283
-200.333	800.000	-0.083	-0.242
-199.319	800.000	0.035	-0.106
-198.304	53.861	-0.119	0.113
-197.290	-111.492	0.093	0.019
-196.275	-200.000	-0.009	-0.422
-195.260	-37.058	0.382	0.201
-194.246	-54.275	-0.174	0.078
-193.231	13.231	0.062	0.047
-192.217	-200.000	-0.011	-0.127
-191.202	-200.000	0.037	0.236
-190.187	-7.998	-0.108	0.072
-189.173	-36.722	0.345	0.182
-188.158	80.073	-0.086	0.091
-187.144	371.527	-0.041	0.081
-186.129	36.230	0.077	0.067
-185.114	-18.083	-0.012	-0.008
-184.100	572.292	0.152	-0.365
-183.085	185.190	0.105	-0.153
-182.071	48.145	0.231	-0.213
-181.056	-200.000	0.009	0.098
-180.042	800.000	-0.076	-0.268
-179.027	800.000	-0.058	0.162
-178.012	129.952	0.187	0.235
-176.998	-198.776	-0.246	0.001
-175.983	-69.644	-0.096	0.036
-174.969	-96.767	-0.191	-0.050
-173.954	-64.310	0.085	0.034
-172.939	-200.000	-0.017	-0.204
-171.925	-147.267	0.174	0.015
-170.910	31.992	0.402	-0.341
-169.896	57.521	0.172	0.165
-168.881	-200.000	-0.023	-0.269
-167.866	-122.158	-0.060	-0.010
-166.852	565.878	0.097	0.231
-165.837	800.000	0.026	-0.083
-164.823	187.559	-0.237	-0.348
-163.808	800.000	-0.082	0.232
-162.793	-44.931	0.140	0.069
-161.779	-200.000	-0.023	0.103
-160.764	-128.126	0.115	-0.016
-159.750	28.537	-0.276	0.229
-158.735	99.901	0.280	0.320
-157.720	20.763	-0.108	0.086
-156.706	-91.087	0.158	-0.045
-155.691	-200.000	-0.032	-0.284
-154.677	-200.000	0.041	0.259
-153.662	342.825	0.200	0.385
-152.647	18.859	0.196	-0.154
-151.633	62.250	-0.197	-0.193
-150.618	-200.000	0.014	-0.271
-149.604	-150.654	-0.332	-0.025
-148.589	431.746	0.146	0.312
-147.574	-94.885	0.242	0.064
-146.560	-79.058	0.195	0.065
-145.545	129.438	0.088	0.111
-144.531	-121.955	0.347	0.056
-143.516	71.446	0.140	0.143
-142.502	-117.960	-0.315	-0.055
-141.487	226.567	0.167	0.267
-140.472	-98.703	-0.248	-0.062
-139.458	-200.000	-0.023	-0.157
-138.443	-90.267	-0.221	-0.063
-137.429	-200.000	0.012	-0.428
-136.414	-69.587	-0.263	0.099
-135.399	-27.179	-0.105	-0.060
-134.385	106.224	-0.220	0.256
-133.370	-51.048	0.218	0.100
-132.356	19.525	-0.154	0.121
-131.341	-61.315	-0.192	-0.079
-130.326	800.000	-0.071	-0.201
-129.312	98.428	-0.179	0.203
-128.297	565.365	0.077	0.184
-127.283	-167.262	0.070	-0.003
-126.268	-200.000	-0.032	-0.164
-125.253	142.844	0.249	0.325
-124.239	97.919	-0.150	0.170
-123.224	800.000	0.017	0.050
-122.210	-200.000	-0.025	-0.120
-121.195	-155.856	-0.126	0.008
-120.180	129.270	-0.082	0.102
-119.166	-19.856	-0.088	0.053
-118.151	342.385	-0.094	0.180
-117.137	111.771	-0.131	0.156
-116.122	30.513	-0.137	0.115
-115.107	83.773	0.215	0.230
-114.093	-116.738	0.351	0.063
-113.078	-95.920	0.206	-0.054
-112.064	-58.367	-0.158	-0.067
-111.049	649.503	0.173	0.435
-110.034	-34.406	-0.189	-0.102
-109.020	-120.244	0.166	0.028
-108.005	-200.000	0.016	0.233
-106.991	24.172	-0.195	0.158
-105.976	245.308	0.062	0.103
-104.962	-200.000	-0.026	0.150
-103.947	800.000	0.050	-0.139
-102.932	-200.000	-0.011	0.353
-101.918	800.000	-0.052	0.145
-100.903	-78.141	0.164	0.055
-99.889	800.000	0.066	0.253
-98.874	-103.372	-0.148	0.034
-97.859	-175.279	0.138	0.004
-96.845	783.353	-0.017	-0.045
-95.830	-109.834	-0.277	0.057
-94.816	-200.000	0.054	0.510
-93.801	31.332	0.161	-0.136
-92.786	-200.000	-0.022	-0.131
-91.772	800.000	0.037	-0.103
-90.757	800.000	-0.032	-0.086
-89.743	-15.659	0.086	0.054
-88.728	800.000	-0.007	0.026
-87.713	-200.000	0.046	-0.310
-86.699	60.049	-0.281	0.272
-85.684	-200.000	0.044	-0.193
-84.670	-143.075	0.125	-0.012
-83.655	44.469	-0.135	0.122
-82.640	-51.000	0.124	0.057
-81.626	-95.153	-0.293	0.078
-80.611	-200.000	0.034	-0.240
-79.597	-200.000	-0.005	0.332
-78.582	2.205	-0.331	0.234
-77.567	-200.000	0.027	-0.214
-76.553	-200.000	0.058	-0.253
-75.538	800.000	0.112	-0.329
-74.524	286.439	-0.124	0.219
-73.509	394.668	-0.135	0.276
-72.494	47.636	0.065	0.060
-71.480	477.628	0.083	0.183
-70.465	-165.236	0.193	0.008
-69.451	188.133	0.128	-0.187
-68.436	-85.285	-0.289	0.088
-67.422	-104.735	0.015	0.003
-66.407	-126.966	0.261	0.038
-65.392	83.232	-0.084	0.089
-64.378	-200.000	0.024	-0.170
-63.363	-124.507	0.254	-0.039
-62.349	-200.000	0.026	0.126
-61.334	139.496	-0.926	-1.195
-60.319	252.075	0.333	0.556
-59.305	522.529	-0.485	-1.115
-58.290	800.000	0.496	1.413
-57.276	800.000	0.505	1.526
-56.261	-200.000	112.135	635.158
-55.246	472.062	1497.856	3304.109
-54.232	148.153	2665.191	3523.390
-53.217	104.226	2154.171	2482.869
-52.203	39.027	1604.570	1405.229
-51.188	30.985	1351.669	1134.982
-50.173	28.193	1313.622	1086.438
-49.159	55.411	1368.739	1297.422
-48.144	54.326	1383.295	1304.625
-47.130	31.398	1339.620	1127.173
-46.115	27.818	1321.765	1090.759
-45.100	27.568	1316.972	1085.274
-44.086	27.693	1314.249	1083.727
-43.071	27.573	1312.197	1081.282
-42.057	27.570	1310.365	1079.713
-41.042	27.657	1308.535	1078.678
-40.027	27.638	1307.494	1077.661
-39.013	27.667	1305.253	1075.945
-37.998	27.612	1303.671	1074.272
-36.984	27.702	1301.692	1073.129
-35.969	27.781	1299.550	1071.786
-34.954	27.761	1298.187	1070.499
-33.940	27.734	1296.981	1069.306
-32.925	27.766	1295.749	1068.437
-31.911	27.776	1294.308	1067.265
-30.896	27.824	1292.633	1066.122
-29.881	27.910	1291.335	1065.510
-28.867	27.885	1289.773	1064.032
-27.852	27.897	1288.227	1062.785
-26.838	27.750	1287.356	1061.166
-25.823	27.800	1285.695	1060.046
-24.809	27.832	1284.548	1059.249
-23.794	27.767	1283.340	1057.834
-22.779	27.833	1281.649	1056.778
-21.765	27.837	1280.814	1056.069
-20.750	27.850	1279.324	1054.872
-19.736	27.790	1278.061	1053.443
-18.721	27.760	1276.768	1052.166
-17.706	27.740	1275.609	1051.053
-16.692	27.781	1274.152	1050.046
-15.677	27.754	1273.133	1049.009
-14.663	27.690	1272.316	1047.925
-13.648	27.697	1271.323	1047.105
-12.633	27.738	1269.541	1045.836
-11.619	27.679	1269.495	1045.418
-10.604	27.738	1268.173	1044.625
-9.590	27.746	1267.390	1043.980
-8.575	27.594	1266.675	1042.483
-7.560	27.658	1265.418	1041.775
-6.546	27.670	1265.186	1041.609
-5.531	27.716	1264.096	1040.936
-4.517	27.731	1262.839	1039.939
-3.502	27.685	1262.303	1039.197
-2.487	27.747	1261.242	1038.637
-1.473	27.717	1257.096	1035.011
-0.458	26.158	1241.992	1013.788
0.556	21.414	1224.901	977.025
1.571	17.855	1231.500	962.173
2.586	17.101	1246.251	969.310
3.600	17.024	1235.653	960.545
4.615	15.480	1168.845	900.259
5.629	12.233	1102.029	832.277
6.644	10.617	1085.127	811.366
7.659	10.330	1082.866	808.175
8.673	10.470	1081.476	807.762
9.688	10.363	1080.272	806.261
10.702	10.504	1078.575	805.623
11.717	12.499	1079.798	816.377
12.731	15.606	1084.540	835.360
13.746	17.726	1086.042	846.984
14.761	17.551	1085.923	845.947
15.775	16.599	1083.577	839.323
16.790	15.510	1081.467	832.222
17.804	14.831	1080.162	827.780
18.819	14.285	1079.163	824.242
19.834	14.226	1077.734	822.783
20.848	13.840	1077.313	820.483
21.863	13.747	1075.983	818.939
22.877	13.572	1075.182	817.392
23.892	13.462	1074.646	816.369
24.907	13.537	1073.685	815.937
25.921	13.553	1072.512	815.054
26.936	13.552	1071.632	814.308
27.950	13.649	1069.907	813.401
28.965	13.670	1068.639	812.468
29.980	13.804	1066.899	811.730
30.994	13.764	1065.537	810.426
32.009	13.712	1064.862	809.586
33.023	13.794	1063.795	809.104
34.038	13.786	1062.608	808.088
35.053	13.671	1061.654	806.733
36.067	13.606	1061.175	805.981
37.082	13.732	1060.091	805.698
38.096	13.771	1059.402	805.291
39.111	13.777	1058.710	804.723
40.126	13.565	1057.414	802.642
41.140	13.577	1056.295	801.779
42.155	13.590	1054.685	800.550
43.169	13.507	1053.509	799.183
44.184	13.409	1052.747	798.063
45.199	13.401	1051.833	797.260
46.213	13.610	1050.497	797.183
47.228	13.671	1049.287	796.489
48.242	13.581	1048.185	795.150
49.257	13.615	1047.921	795.041
50.271	13.671	1046.856	794.433
51.286	13.547	1046.168	793.248
52.301	13.690	1044.869	792.876
53.315	13.619	1043.998	791.807
54.330	13.534	1043.110	790.654
55.344	13.502	1042.050	789.630
56.359	13.570	1040.821	788.954
57.374	13.620	1040.062	788.547
58.388	13.384	1039.518	786.942
59.403	13.477	1038.145	786.274
60.417	13.330	1038.062	785.445
61.432	13.435	1036.737	784.869
62.447	13.353	1036.036	783.878
63.461	13.359	1035.119	783.146
64.476	13.303	1034.401	782.266
65.490	13.405	1033.337	781.874
66.505	13.369	1032.530	781.027
67.520	13.424	1031.825	780.682
68.534	13.438	1031.363	780.329
69.549	13.386	1030.557	779.407
70.563	13.437	1029.378	778.686
71.578	13.429	1028.366	777.814
72.593	13.279	1028.177	776.897
73.607	13.363	1027.392	776.632
74.622	13.301	1026.693	775.741
75.636	13.404	1026.010	775.642
76.651	13.357	1025.460	774.936
77.666	13.424	1024.646	774.564
78.680	13.189	1024.389	773.203
79.695	13.475	1022.950	773.383
80.709	13.404	1022.712	772.806
81.724	13.529	1021.639	772.507
82.739	13.616	1020.947	772.322
83.753	13.670	1020.247	771.974
84.768	13.724	1019.574	771.650
85.782	13.684	1018.504	770.588
86.797	13.713	1017.553	769.931
87.812	13.667	1016.685	768.994
88.826	13.828	1015.144	768.509
89.841	13.662	1014.834	767.435
90.855	13.875	1013.551	767.383
91.870	13.613	1013.457	766.031
92.884	13.717	1012.464	765.694
93.899	13.763	1011.569	765.163
94.914	13.803	1010.774	764.679
95.928	13.817	1010.191	764.231
96.943	13.706	1009.243	762.936
97.957	13.783	1007.797	762.131
98.972	13.686	1007.768	761.596
99.987	13.733	1006.686	760.925
101.001	13.657	1005.886	759.908
102.016	13.713	1004.861	759.322
103.030	13.798	1003.911	758.924
104.045	13.754	1003.454	758.312
105.060	13.852	1002.213	757.754
106.074	13.449	1001.654	755.422
107.089	13.583	1000.200	754.873
108.103	13.661	998.782	754.090
109.118	13.573	998.069	753.086
110.133	13.637	996.948	752.463
111.147	13.595	996.188	751.633
112.162	13.548	995.764	751.033
113.176	13.517	995.506	750.631
114.191	13.663	994.700	750.619
115.206	13.646	993.581	749.630
116.220	13.521	992.752	748.374
117.235	13.562	992.086	747.988
118.249	13.538	991.050	747.034
119.264	13.620	989.941	746.501
120.279	13.625	989.012	745.760
121.293	13.526	988.296	744.707
122.308	13.379	987.760	743.576
123.322	13.571	986.553	743.462
124.337	13.478	985.354	742.077
125.352	13.506	984.552	741.533
126.366	13.544	983.612	740.931
127.381	13.463	982.327	739.536
128.395	13.533	981.581	739.221
129.410	13.465	980.935	738.364
130.424	13.630	979.953	738.294
131.439	13.653	978.812	737.472
132.454	13.577	978.459	736.804
133.468	13.537	977.779	736.049
134.483	13.731	976.342	735.764
135.497	13.701	975.543	734.961
136.512	13.571	974.794	733.759
137.527	13.535	974.134	733.034
138.541	13.698	973.304	733.069
139.556	13.714	972.809	732.698
140.570	13.823	972.000	732.508
141.585	13.777	971.437	731.815
142.600	13.757	970.453	730.921
143.614	13.902	969.541	730.808
144.629	13.916	968.675	730.152
145.643	13.890	967.814	729.326
146.658	13.829	966.794	728.221
147.673	13.763	966.084	727.336
148.687	13.701	965.494	726.555
149.702	13.814	964.098	725.936
150.716	13.719	963.289	724.844
151.731	13.775	962.559	724.478
152.746	13.782	962.141	724.128
153.760	13.832	961.439	723.755
154.775	13.831	961.084	723.417
155.789	13.938	960.359	723.277
156.804	13.858	959.547	722.252
157.819	13.913	958.798	721.862
158.833	13.930	958.498	721.645
159.848	13.955	956.904	720.489
160.862	14.005	956.184	720.102
161.877	13.832	955.398	718.696
162.892	13.851	954.408	717.971
163.906	13.945	952.991	717.247
164.921	13.950	952.273	716.665
165.935	13.912	951.572	715.909
166.950	13.857	950.713	714.963
167.964	13.857	950.384	714.655
168.979	13.959	949.102	714.064
169.994	13.910	948.399	713.262
171.008	13.913	947.863	712.809
172.023	14.076	946.941	712.752
173.037	14.132	946.126	712.314
174.052	14.158	945.453	711.855
175.067	14.156	944.655	711.185
176.081	14.047	944.319	710.404
177.096	13.972	943.678	709.538
178.110	14.035	942.945	709.193
179.125	13.949	942.559	708.470
180.140	14.040	941.719	708.164
181.154	14.088	941.786	708.356
182.169	14.246	940.938	708.329
183.183	14.019	940.839	707.227
184.198	14.091	939.723	706.631
185.213	14.250	938.732	706.500
186.227	14.140	938.349	705.682
187.242	14.353	937.442	705.839
188.256	14.295	937.166	705.323
189.271	14.309	935.879	704.353
190.286	14.110	935.345	703.046
191.300	14.110	934.436	702.298
192.315	14.012	933.966	701.470
193.329	14.003	933.540	701.050
194.344	13.980	933.078	700.545
195.359	14.207	932.040	700.660
196.373	14.156	931.839	700.232
197.388	14.164	931.554	699.991
198.402	14.379	930.880	700.327
199.417	14.422	930.154	699.898
200.432	14.449	929.644	699.565
201.446	14.503	929.456	699.589
202.461	14.485	928.478	698.714
203.475	14.534	927.797	698.348
204.490	14.387	927.182	697.205
205.504	14.292	926.584	696.296
206.519	14.348	925.838	695.911
207.534	14.334	925.090	695.228
208.548	14.465	924.183	695.032
209.563	14.497	923.462	694.562
210.577	14.514	922.782	694.057
211.592	14.706	922.139	694.311
212.607	14.534	921.656	693.170
213.621	14.494	921.132	692.550
214.636	14.554	920.593	692.332
215.650	14.476	919.590	691.193
216.665	14.789	918.512	691.619
217.680	14.778	917.885	691.040
218.694	14.597	917.657	690.056
219.709	14.665	916.611	689.491
220.723	14.717	916.067	689.236
221.738	14.806	915.449	689.077
222.753	14.652	915.027	688.065
223.767	14.767	913.722	687.494
224.782	14.910	913.401	687.782
225.796	14.746	912.982	686.730
226.811	14.723	912.331	686.083
227.826	14.697	911.549	685.330
228.840	14.732	910.651	684.738
229.855	14.738	909.872	684.117
230.869	14.751	908.923	683.394
231.884	14.821	908.422	683.243
232.899	14.775	907.413	682.238
233.913	14.607	907.282	681.391
234.928	14.714	906.534	681.204
235.942	14.646	906.264	680.666
236.957	14.585	905.479	679.768
237.972	14.784	904.624	679.873
238.986	14.719	903.974	679.062
240.001	14.903	903.087	679.084
241.015	14.864	902.405	678.352
242.030	14.780	901.751	677.460
243.045	14.893	901.382	677.580
244.059	14.860	900.820	676.965
245.074	14.995	900.128	676.930
246.088	15.008	899.611	676.532
247.103	14.925	899.155	675.796
248.117	14.985	899.020	675.878
249.132	15.163	898.053	675.809
250.147	15.259	897.446	675.677
251.161	15.216	896.583	674.796
252.176	15.120	896.324	674.156
253.190	15.263	895.510	674.060
254.205	15.270	894.869	673.543
255.220	15.398	894.001	673.344
256.234	15.294	893.669	672.616
257.249	15.279	892.949	671.957
258.263	15.264	892.164	671.248
259.278	15.264	891.431	670.634
260.293	15.302	891.004	670.409
261.307	15.508	890.025	670.434
262.322	15.409	889.537	669.612
263.336	15.690	888.606	669.973
264.351	15.611	887.845	669.025
265.366	15.553	887.248	668.284
266.380	15.453	887.031	667.664
267.395	15.557	886.257	667.435
268.409	15.525	885.191	666.446
269.424	15.463	884.825	665.865
270.439	15.341	884.197	664.852
271.453	15.312	883.595	664.223
272.468	15.317	883.107	663.821
273.482	15.401	882.430	663.585
274.497	15.414	881.849	663.137
275.512	15.472	881.076	662.729
276.526	15.591	880.518	662.717
277.541	15.584	879.815	662.104
278.555	15.563	879.304	661.578
279.570	15.724	878.808	661.781
280.585	15.670	877.839	660.781
281.599	15.629	877.220	660.093
282.614	15.604	876.699	659.545
283.628	15.748	876.031	659.548
284.643	15.561	875.617	658.446
285.657	15.789	874.311	658.299
286.672	15.798	873.741	657.845
287.687	15.711	873.270	657.092
288.701	15.657	873.056	656.663
289.716	15.723	872.086	656.131
290.730	15.686	871.465	655.463
291.745	15.694	871.236	655.264
292.760	15.899	870.622	655.542
293.774	15.951	869.924	655.163
294.789	15.944	869.102	654.456
295.803	15.848	868.507	653.578
296.818	15.851	867.654	652.890
297.833	15.810	866.984	652.168
298.847	16.012	866.328	652.401
299.862	15.886	866.213	651.767
300.876	15.888	865.723	651.348
301.891	16.004	864.963	651.170
302.906	15.984	864.634	650.786
303.920	16.177	863.966	650.970
304.935	16.177	863.442	650.518
305.949	16.041	863.008	649.610
306.964	16.179	861.798	649.173
307.979	16.057	861.643	648.528
308.993	16.071	860.728	647.835
310.008	16.212	860.026	647.791
311.022	16.125	859.958	647.349
312.037	16.135	859.155	646.726
313.052	16.087	858.439	645.945
314.066	16.039	857.957	645.342
315.081	15.989	857.716	644.912
316.095	16.064	856.448	644.187
317.110	16.073	856.569	644.257
318.125	16.192	855.742	644.033
319.139	16.189	855.157	643.525
320.154	16.093	854.820	642.848
321.168	16.179	854.477	642.860
322.183	16.142	853.547	641.961
323.197	16.276	852.992	641.997
324.212	16.211	852.660	641.446
325.227	16.522	851.890	641.990
326.241	16.300	851.505	640.799
327.256	16.129	851.139	639.819
328.270	16.305	850.260	639.767
329.285	16.134	850.051	638.906
330.300	16.080	849.715	638.395
331.314	16.190	848.861	638.111
332.329	16.394	848.081	638.240
333.343	16.404	847.825	638.027
334.358	16.409	847.631	637.845
335.373	16.418	846.955	637.312
336.387	16.380	846.700	636.921
337.402	16.373	846.475	636.668
338.416	16.425	846.523	636.846
339.431	16.571	845.949	636.907
340.446	16.448	845.693	636.194
341.460	16.582	845.354	636.388
342.475	16.638	844.709	636.058
343.489	16.677	843.858	635.506
344.504	16.636	843.633	635.127
345.519	16.784	842.961	635.119
346.533	16.704	842.539	634.444
347.548	16.555	842.038	633.455
348.562	16.738	841.251	633.489
349.577	16.689	840.565	632.734
350.592	16.689	839.915	632.190
351.606	16.537	839.727	631.423
352.621	16.634	838.743	630.991
353.635	16.663	838.319	630.723
354.650	16.689	837.862	630.419
355.665	16.681	836.881	629.598
356.679	16.865	836.135	629.665
357.694	16.704	835.880	628.817
358.708	16.753	835.108	628.364
359.723	16.646	835.033	627.855
360.738	16.793	833.917	627.503
361.752	16.705	833.594	626.880
362.767	16.809	833.067	626.813
363.781	16.924	832.814	626.991
364.796	16.950	832.145	626.528
365.810	16.919	831.979	626.236
366.825	17.023	831.394	626.120
367.840	17.021	830.913	625.698
368.854	17.013	829.907	624.855
369.869	16.900	829.940	624.407
370.883	16.998	829.482	624.371
371.898	17.068	829.119	624.299
372.913	16.997	828.675	623.647
373.927	16.961	828.117	623.041
374.942	17.144	827.361	623.089
375.956	17.149	827.129	622.875
376.971	17.147	826.632	622.438
377.986	17.217	826.232	622.338
379.000	17.204	825.985	622.051
380.015	17.293	825.001	621.580
381.029	17.224	824.583	620.957
382.044	17.137	823.953	620.110
383.059	17.421	823.072	620.430
384.073	17.376	822.817	620.017
385.088	17.297	822.280	619.272
386.102	17.136	821.781	618.255
387.117	17.203	821.568	618.282
388.132	17.300	820.542	617.807
389.146	17.364	820.024	617.597
390.161	17.388	819.625	617.327
391.175	17.410	819.186	617.024
392.190	17.337	818.808	616.418
393.205	17.338	818.219	615.925
394.219	17.280	817.844	615.378
395.234	17.241	817.334	614.798
396.248	17.284	816.742	614.455
397.263	17.166	816.656	613.908
398.278	17.119	816.486	613.556
399.292	17.183	815.658	613.113
400.307	17.303	815.278	613.204
401.321	17.488	814.607	613.311
402.336	17.302	814.359	612.401
403.350	17.404	813.884	612.355
404.365	17.419	813.260	611.887
405.380	17.477	812.969	611.823
406.394	17.654	812.208	611.829
407.409	17.605	811.877	611.350
408.423	17.649	811.648	611.284
409.438	17.519	811.309	610.508
410.453	17.741	811.021	611.033
411.467	17.559	810.244	609.740
412.482	17.706	809.658	609.770
413.496	18.038	809.308	610.640
414.511	17.955	808.978	610.040
415.526	17.825	808.661	609.285
416.540	17.915	808.116	609.140
417.555	17.749	807.794	608.251
418.569	17.841	807.342	608.184
419.584	17.977	806.661	608.104
420.599	17.966	806.294	607.733
421.613	111.321	1294.358	1475.656
422.628	96.070	1365.445	1475.752
