DTS Sentinel unit serial number:	SN413079Multiplexer serial number:	ORYXHardware model number:	OX4-SRSoftware version number:	ORYX F/W v4.00 Oryx Data Collector v3.7.2.0data status	okinstallation	princeton_trtdifferential loss correction	single-endedforward channel	channel 1reverse channel	N/Adate	2019/09/14time	16:46:35forward acquisition time	60.00reverse acquisition time	0.00gamma	496.2192k internal	0.2294k external	0.2294temperature offset calibration	1.0051default loss term (dB/km)	0.3790temperature slope calibration	1.0000multiplexer offset coefficient	1.0000multiplexer slope coefficient	1.0000fibre end	0.00T internal ref (°C)	38.00T ext. ref 1 (°C)	5.00T ext. ref 2 (°C)	33.84length (m)	temperature (°C)	Stokes	anti-Stokes-747.200	232.375	-0.096	-0.162
-746.185	-103.446	-0.240	-0.058
-745.171	-45.093	0.447	-0.227
-744.156	372.296	-0.091	0.190
-743.142	-13.049	0.084	-0.056
-742.127	354.072	0.044	0.088
-741.112	375.947	-0.229	0.479
-740.098	-111.940	0.154	-0.032
-739.083	-200.000	0.003	0.395
-738.069	-200.000	0.016	0.245
-737.054	-200.000	-0.034	0.296
-736.039	-72.804	-0.217	-0.082
-735.025	-77.035	0.136	0.048
-734.010	229.355	0.078	-0.130
-732.996	236.991	0.148	-0.251
-731.981	-117.251	-0.338	-0.063
-730.966	39.303	-0.124	0.114
-729.952	-71.590	0.119	-0.045
-728.937	20.421	-0.196	-0.162
-727.923	-170.546	0.085	-0.003
-726.908	22.465	-0.191	-0.159
-725.894	-42.967	-0.088	-0.046
-724.879	57.258	-0.109	-0.109
-723.864	-50.800	-0.092	-0.044
-722.850	-51.022	-0.078	0.037
-721.835	-144.369	-0.201	-0.019
-720.821	-200.000	-0.001	0.291
-719.806	170.705	-0.163	-0.238
-718.791	800.000	0.118	0.385
-717.777	-5.886	0.259	-0.181
-716.762	359.340	-0.118	-0.241
-715.748	-56.043	-0.232	0.106
-714.733	-1.304	0.276	0.199
-713.718	-200.000	0.004	0.023
-712.704	-104.045	0.230	0.055
-711.689	-142.276	-0.594	-0.060
-710.675	121.885	0.142	0.181
-709.660	-116.944	0.249	0.047
-708.645	31.496	-0.022	0.020
-707.631	-172.947	-0.302	-0.010
-706.616	-200.000	0.024	-0.197
-705.602	-200.000	-0.414	0.000
-704.587	-200.000	-0.015	0.217
-703.572	-48.959	0.167	-0.082
-702.558	15.284	-0.160	0.128
-701.543	116.668	-0.078	-0.098
-700.529	-62.920	0.169	-0.071
-699.514	249.783	-0.073	-0.126
-698.499	-125.025	-0.243	0.038
-697.485	-44.337	-0.408	-0.209
-696.470	800.000	0.108	-0.306
-695.456	-79.249	0.206	0.071
-694.441	-200.000	0.028	-0.214
-693.426	47.948	0.018	0.017
-692.412	-200.000	0.084	0.424
-691.397	88.771	0.083	-0.094
-690.383	-200.000	0.031	0.200
-689.368	42.777	-0.141	0.131
-688.354	28.900	0.095	0.082
-687.339	45.456	-0.153	0.144
-686.324	156.323	0.164	-0.231
-685.310	-144.447	0.073	0.007
-684.295	38.271	0.157	0.142
-683.281	-151.792	-0.271	0.020
-682.266	-91.167	0.531	-0.155
-681.251	-40.322	-0.036	0.019
-680.237	-199.186	-0.221	-0.001
-679.222	-57.869	-0.174	-0.078
-678.208	17.531	-0.074	0.060
-677.193	59.691	-0.136	-0.137
-676.178	-130.288	0.320	-0.044
-675.164	22.210	-0.130	0.108
-674.149	-4.876	0.212	-0.149
-673.135	71.176	0.231	-0.244
-672.120	470.387	-0.085	-0.194
-671.105	-200.000	0.021	0.109
-670.091	257.303	-0.109	0.191
-669.076	-100.535	-0.035	0.009
-668.062	29.361	-0.285	0.247
-667.047	-151.557	-0.195	-0.015
-666.032	-128.211	0.367	-0.053
-665.018	-117.316	-0.140	-0.026
-664.003	-3.057	-0.324	0.230
-662.989	-60.939	-0.251	0.108
-661.974	759.844	0.041	0.114
-660.959	49.999	0.068	0.066
-659.945	482.323	0.149	0.344
-658.930	-115.742	0.298	-0.057
-657.916	-78.040	-0.194	0.068
-656.901	-25.933	-0.104	-0.062
-655.886	289.738	0.062	0.115
-654.872	-33.062	-0.219	0.124
-653.857	-84.948	-0.342	0.109
-652.843	-101.677	0.475	0.117
-651.828	210.443	0.032	-0.051
-650.814	522.680	-0.016	0.038
-649.799	800.000	-0.044	-0.163
-648.784	38.726	-0.049	0.045
-647.770	192.170	-0.215	-0.330
-646.755	-58.688	-0.263	-0.116
-645.741	686.365	0.079	-0.211
-644.726	-173.504	-0.216	0.007
-643.711	-95.227	-0.314	-0.086
-642.697	-200.000	0.041	-0.227
-641.682	176.481	-0.091	-0.135
-640.668	16.179	-0.141	-0.113
-639.653	800.000	-0.068	0.222
-638.638	-9.068	-0.163	-0.111
-637.624	800.000	-0.082	0.263
-636.609	800.000	0.056	0.189
-635.595	701.734	0.062	-0.166
-634.580	-151.897	0.178	-0.013
-633.565	60.547	0.057	0.057
-632.551	-106.045	-0.425	-0.097
-631.536	-90.903	0.130	0.038
-630.522	-49.564	-0.327	0.159
-629.507	-23.232	0.199	0.122
-628.492	-124.417	0.124	0.020
-627.478	-123.766	-0.387	-0.062
-626.463	1.845	0.346	0.254
-625.449	-20.914	0.227	0.142
-624.434	800.000	-0.059	0.240
-623.419	53.220	-0.173	0.169
-622.405	-15.146	-0.416	-0.271
-621.390	112.141	0.181	0.222
-620.376	-12.361	-0.159	0.106
-619.361	-133.563	0.178	0.023
-618.346	800.000	0.064	0.222
-617.332	183.975	0.081	-0.123
-616.317	140.666	0.051	0.068
-615.303	127.346	0.129	-0.166
-614.288	-39.833	0.206	-0.110
-613.273	-91.638	-0.496	0.144
-612.259	-5.203	-0.113	0.079
-611.244	-200.000	0.025	0.214
-610.230	-9.960	-0.370	0.250
-609.215	-142.794	0.367	0.036
-608.201	-59.238	0.189	-0.083
-607.186	402.552	-0.080	0.171
-606.171	-200.000	-0.065	-0.347
-605.157	-133.271	0.175	-0.022
-604.142	-40.595	-0.143	-0.075
-603.128	-101.454	0.388	-0.096
-602.113	-66.826	0.246	0.099
-601.098	78.104	-0.283	0.307
-600.084	271.254	0.177	0.317
-599.069	-178.280	0.275	-0.007
-598.055	368.059	-0.137	0.281
-597.040	800.000	0.077	0.331
-596.025	81.924	-0.381	-0.420
-595.011	654.067	0.085	0.221
-593.996	-57.077	0.144	-0.064
-592.982	-200.000	-0.020	-0.207
-591.967	-28.907	0.226	-0.132
-590.952	534.098	-0.032	0.077
-589.938	800.000	0.102	0.427
-588.923	377.550	0.078	-0.163
-587.909	-83.758	0.196	-0.063
-586.894	78.402	0.195	-0.212
-585.879	-153.378	-0.119	0.008
-584.865	81.343	0.093	-0.102
-583.850	327.788	-0.200	-0.391
-582.836	115.693	-0.174	0.216
-581.821	800.000	0.018	0.073
-580.806	154.702	0.137	-0.191
-579.792	-200.000	-0.066	-0.421
-578.777	45.798	0.122	0.114
-577.763	22.838	-0.211	-0.176
-576.748	-101.384	0.174	0.043
-575.733	293.638	-0.086	0.160
-574.719	-200.000	-0.033	0.179
-573.704	74.566	-0.207	0.221
-572.690	-188.881	0.194	-0.002
-571.675	800.000	-0.001	0.005
-570.661	800.000	0.006	-0.020
-569.646	42.461	0.177	-0.163
-568.631	-132.462	-0.150	-0.020
-567.617	-84.580	-0.361	0.116
-566.602	-200.000	-0.022	0.099
-565.588	-52.730	-0.282	0.132
-564.573	139.781	-0.098	0.131
-563.558	-77.588	-0.127	-0.045
-562.544	616.271	-0.151	0.386
-561.529	-45.987	-0.243	-0.122
-560.515	-58.543	0.201	-0.089
-559.500	-200.000	0.010	0.090
-558.485	-112.738	0.065	0.013
-557.471	-200.000	-0.031	0.332
-556.456	800.000	0.125	-0.358
-555.442	-34.736	-0.033	0.019
-554.427	-127.703	-0.260	0.038
-553.412	150.609	0.133	0.183
-552.398	199.744	-0.120	-0.187
-551.383	-103.251	-0.312	0.075
-550.369	43.687	-0.158	-0.147
-549.354	-200.000	-0.030	-0.303
-548.339	-162.894	-0.412	0.020
-547.325	-17.879	0.057	0.036
-546.310	229.574	-0.053	0.089
-545.296	245.607	-0.147	-0.251
-544.281	-24.825	-0.042	-0.025
-543.266	-200.000	0.024	-0.334
-542.252	-75.921	0.203	-0.073
-541.237	64.655	-0.103	0.105
-540.223	-108.830	0.129	0.028
-539.208	392.019	0.171	0.360
-538.193	-96.225	-0.227	0.061
-537.179	271.972	0.130	0.233
-536.164	-164.823	-0.183	-0.008
-535.150	138.869	-0.172	-0.229
-534.135	-200.000	-0.012	-0.158
-533.121	-129.298	0.134	-0.019
-532.106	-200.000	0.052	0.238
-531.091	-55.408	0.077	-0.035
-530.077	800.000	0.064	0.217
-529.062	612.924	-0.089	-0.227
-528.048	-94.132	-0.359	0.100
-527.033	-200.000	-0.012	-0.247
-526.018	228.259	0.131	-0.217
-525.004	-52.341	-0.051	-0.024
-523.989	-155.222	-0.317	-0.021
-522.975	800.000	-0.104	-0.299
-521.960	-200.000	0.018	0.134
-520.945	478.556	-0.103	0.237
-519.931	-200.000	0.009	0.185
-518.916	-166.197	-0.421	0.018
-517.902	77.888	0.220	0.238
-516.887	-71.115	0.158	-0.060
-515.872	5.839	0.136	-0.102
-514.858	341.196	-0.154	-0.304
-513.843	267.483	0.099	0.175
-512.829	63.764	-0.105	-0.107
-511.814	282.159	0.021	0.039
-510.799	-124.370	-0.252	0.040
-509.785	387.691	0.174	0.365
-508.770	-200.000	-0.064	0.305
-507.756	-104.933	0.226	-0.052
-506.741	-108.645	-0.420	-0.091
-505.726	-51.681	-0.269	0.127
-504.712	-74.830	0.148	0.054
-503.697	800.000	-0.090	0.345
-502.683	113.393	-0.020	-0.024
-501.668	-50.588	-0.240	-0.114
-500.653	-200.000	0.031	0.151
-499.639	108.626	-0.166	-0.201
-498.624	-122.667	-0.140	0.023
-497.610	-96.811	0.233	-0.062
-496.595	-6.268	-0.227	-0.157
-495.581	-96.263	0.220	-0.059
-494.566	66.219	0.132	-0.136
-493.551	239.565	-0.185	-0.311
-492.537	-45.709	-0.249	-0.125
-491.522	3.730	-0.245	-0.181
-490.508	269.273	0.080	0.143
-489.493	215.602	-0.098	0.157
-488.478	108.389	-0.301	0.364
-487.464	243.020	-0.142	-0.240
-486.449	207.970	0.172	-0.271
-485.435	-120.245	-0.288	0.050
-484.420	800.000	0.040	-0.146
-483.405	-1.222	0.264	0.189
-482.391	-156.933	-0.178	-0.011
-481.376	800.000	-0.062	-0.214
-480.362	-7.283	0.107	-0.073
-479.347	65.798	-0.080	-0.082
-478.332	142.717	-0.059	-0.079
-477.318	-133.807	-0.368	-0.046
-476.303	174.602	0.113	0.166
-475.289	-58.860	0.172	0.075
-474.274	-200.000	0.014	-0.089
-473.259	-200.000	0.025	-0.257
-472.245	800.000	-0.077	-0.216
-471.230	-200.000	0.006	0.084
-470.216	-200.000	-0.007	-0.151
-469.201	-62.945	0.158	-0.066
-468.186	-60.808	0.087	0.037
-467.172	-200.000	-0.003	-0.327
-466.157	-200.000	-0.008	0.177
-465.143	-6.928	0.208	-0.143
-464.128	-200.000	-0.023	0.201
-463.113	32.119	-0.267	-0.233
-462.099	257.562	0.074	-0.128
-461.084	791.782	0.076	-0.212
-460.070	-55.802	-0.304	0.137
-459.055	-103.171	-0.153	-0.037
-458.040	-125.860	-0.153	-0.023
-457.026	12.187	-0.129	0.101
-456.011	800.000	-0.039	-0.124
-454.997	-200.000	-0.047	-0.235
-453.982	204.691	-0.094	-0.148
-452.968	243.882	-0.172	0.292
-451.953	-200.000	0.072	0.458
-450.938	-13.647	-0.207	-0.135
-449.924	198.351	-0.094	-0.146
-448.909	9.740	-0.184	-0.141
-447.895	-100.091	0.176	0.044
-446.880	-200.000	0.046	0.275
-445.865	-109.654	-0.170	0.036
-444.851	106.188	0.194	-0.232
-443.836	-143.061	0.155	0.015
-442.822	-5.238	-0.169	-0.118
-441.807	471.918	0.039	0.089
-440.792	280.066	0.137	0.247
-439.778	189.527	0.079	-0.120
-438.763	25.532	-0.253	0.212
-437.749	51.209	0.068	-0.065
-436.734	-122.435	0.401	-0.066
-435.719	-54.724	-0.307	0.140
-434.705	-67.068	0.494	0.197
-433.690	-0.075	-0.062	0.044
-432.676	159.397	-0.171	0.240
-431.661	249.022	-0.078	-0.133
-430.646	-200.000	0.004	0.023
-429.632	-48.578	0.189	-0.092
-428.617	322.468	0.137	0.263
-427.603	-22.934	0.088	-0.054
-426.588	-67.923	0.243	-0.096
-425.573	661.127	-0.039	-0.101
-424.559	-36.306	-0.211	0.115
-423.544	-165.420	0.348	0.015
-422.530	494.116	0.160	-0.372
-421.515	64.306	-0.139	-0.142
-420.500	-200.000	0.043	0.430
-419.486	-25.654	0.243	-0.145
-418.471	45.869	-0.131	0.122
-417.457	800.000	0.053	-0.230
-416.442	-46.039	-0.225	0.112
-415.428	43.824	-0.263	-0.243
-414.413	-34.117	0.283	-0.157
-413.398	-143.963	0.314	0.030
-412.384	-200.000	0.006	-0.161
-411.369	-23.287	-0.241	0.146
-410.355	-74.793	0.039	-0.014
-409.340	-73.527	0.254	0.093
-408.325	369.715	-0.050	-0.102
-407.311	45.863	-0.143	-0.134
-406.296	475.915	-0.025	0.057
-405.282	163.368	0.212	0.300
-404.267	2.005	0.102	-0.074
-403.252	30.946	-0.066	-0.057
-402.238	-111.537	0.127	-0.026
-401.223	176.150	-0.152	0.222
-400.209	143.890	-0.122	0.164
-399.194	-1.866	-0.240	0.170
-398.179	800.000	0.063	0.197
-397.165	1.060	0.092	0.066
-396.150	800.000	0.059	-0.178
-395.136	-200.000	0.041	-0.209
-394.121	20.325	-0.202	0.165
-393.106	175.380	-0.059	0.087
-392.092	-78.633	0.186	-0.064
-391.077	250.216	0.127	-0.217
-390.063	-3.242	0.166	-0.116
-389.048	81.973	-0.040	-0.043
-388.033	-17.757	-0.090	0.057
-387.019	-200.000	0.009	0.122
-386.004	27.746	0.319	0.271
-384.990	79.700	-0.129	-0.140
-383.975	43.799	-0.358	0.330
-382.960	-136.315	-0.188	0.022
-381.946	-75.764	-0.188	-0.067
-380.931	-200.000	-0.050	-0.386
-379.917	-200.000	0.026	-0.202
-378.902	-115.849	-0.192	-0.036
-377.888	-65.583	0.466	-0.188
-376.873	-84.010	-0.083	0.027
-375.858	109.817	0.059	-0.072
-374.844	800.000	-0.035	-0.105
-373.829	116.150	-0.104	0.128
-372.815	-47.893	0.101	-0.049
-371.800	466.753	-0.095	0.214
-370.785	54.363	-0.077	-0.075
-369.771	-200.000	-0.002	0.166
-368.756	28.594	0.213	-0.182
-367.742	-78.251	-0.299	-0.104
-366.727	41.817	-0.179	-0.163
-365.712	-2.147	-0.193	0.137
-364.698	-200.000	-0.011	-0.146
-363.683	492.594	0.063	0.146
-362.669	203.684	0.179	-0.280
-361.654	-141.167	-0.157	0.016
-360.639	-44.048	0.499	0.252
-359.625	-87.434	0.164	0.050
-358.610	-200.000	-0.001	-0.310
-357.596	800.000	0.041	-0.179
-356.581	-62.442	-0.322	0.135
-355.566	138.706	0.164	-0.216
-354.552	134.364	0.084	-0.110
-353.537	-200.000	-0.012	-0.081
-352.523	779.731	0.075	-0.207
-351.508	-200.000	-0.041	-0.393
-350.493	-122.926	-0.302	-0.049
-349.479	36.000	0.259	-0.229
-348.464	-118.271	-0.199	0.036
-347.450	-200.000	-0.019	-0.113
-346.435	-200.000	0.008	-0.093
-345.420	-112.015	0.378	0.077
-344.406	800.000	0.038	0.160
-343.391	-87.052	-0.287	0.088
-342.377	-200.000	-0.182	-0.001
-341.362	-200.000	-0.065	-0.527
-340.348	56.330	0.099	0.097
-339.333	-200.000	-0.006	0.172
-338.318	800.000	-0.023	-0.085
-337.304	107.270	0.197	0.235
-336.289	-135.416	0.107	0.013
-335.275	-200.000	0.003	0.381
-334.260	391.504	-0.136	0.285
-333.245	-200.000	0.056	-0.445
-332.231	-14.401	-0.249	0.162
-331.216	-68.635	0.382	-0.149
-330.202	800.000	0.092	0.326
-329.187	-200.000	0.041	-0.210
-328.172	-155.296	0.144	0.009
-327.158	800.000	0.096	0.335
-326.143	-27.660	0.108	0.063
-325.129	-136.363	-0.079	-0.009
-324.114	-200.000	-0.040	-0.194
-323.099	98.345	0.020	-0.023
-322.085	584.348	-0.150	-0.372
-321.070	-32.985	0.097	0.054
-320.056	783.704	-0.043	0.119
-319.041	56.434	0.072	0.070
-318.026	369.863	-0.127	0.259
-317.012	12.219	-0.151	0.117
-315.997	-162.201	-0.014	0.001
-314.983	166.656	-0.054	0.077
-313.968	-149.651	0.134	0.011
-312.953	-172.864	-0.336	0.011
-311.939	128.648	-0.058	0.074
-310.924	800.000	0.040	0.150
-309.910	-148.918	0.193	0.016
-308.895	161.828	-0.082	-0.115
-307.880	152.109	0.087	-0.120
-306.866	800.000	-0.083	0.243
-305.851	800.000	0.068	-0.259
-304.837	148.238	-0.206	-0.279
-303.822	52.068	0.269	-0.258
-302.807	6.264	0.073	-0.055
-301.793	27.276	0.138	0.116
-300.778	-80.559	-0.036	-0.012
-299.764	-60.483	-0.281	0.120
-298.749	-63.881	-0.126	-0.052
-297.735	113.772	0.034	-0.041
-296.720	-181.760	0.176	0.003
-295.705	-83.847	0.247	0.079
-294.691	-82.753	0.165	0.054
-293.676	-200.000	-0.033	-0.179
-292.662	398.321	0.047	0.099
-291.647	52.177	-0.126	0.121
-290.632	-200.000	0.069	-0.315
-289.618	-41.982	0.105	-0.054
-288.603	464.256	0.048	-0.108
-287.589	105.884	0.098	-0.116
-286.574	26.364	-0.277	-0.232
-285.559	258.626	0.115	-0.200
-284.545	91.232	-0.107	-0.121
-283.530	-200.000	-0.030	0.302
-282.516	-148.633	0.147	-0.012
-281.501	-200.000	0.068	0.522
-280.486	-42.344	-0.205	0.105
-279.472	732.605	0.078	-0.209
-278.457	16.845	0.150	0.119
-277.443	-32.215	0.149	-0.084
-276.428	-200.000	0.043	-0.219
-275.413	-200.000	-0.031	0.207
-274.399	-73.732	-0.124	-0.045
-273.384	-67.252	0.345	-0.136
-272.370	135.263	0.333	0.435
-271.355	-62.919	0.234	-0.097
-270.340	122.250	0.208	-0.261
-269.326	219.670	-0.089	0.142
-268.311	29.047	0.211	-0.180
-267.297	-118.430	0.293	-0.052
-266.282	-200.000	-0.038	-0.247
-265.267	30.445	-0.142	-0.122
-264.253	-115.162	-0.285	-0.054
-263.238	-200.000	0.020	0.282
-262.224	-123.485	0.132	0.021
-261.209	800.000	0.066	-0.246
-260.195	-94.189	-0.341	0.094
-259.180	-13.621	0.199	0.130
-258.165	-119.633	0.300	0.052
-257.151	-11.861	-0.111	0.073
-256.136	-200.000	0.053	-0.283
-255.122	41.568	0.204	-0.185
-254.107	169.866	-0.040	-0.057
-253.092	-34.244	-0.143	0.079
-252.078	-184.732	-0.103	-0.002
-251.063	393.082	0.050	0.104
-250.049	-200.000	0.000	0.015
-249.034	800.000	-0.031	-0.093
-248.019	800.000	-0.065	0.248
-247.005	-156.062	-0.338	0.021
-245.990	57.404	0.184	0.180
-244.976	-200.000	0.021	0.357
-243.961	45.723	-0.207	0.192
-242.946	-59.554	-0.197	0.085
-241.932	800.000	0.086	0.253
-240.917	-94.921	0.444	-0.121
-239.903	-11.954	0.208	-0.136
-238.888	-109.268	0.155	0.033
-237.873	243.540	0.174	-0.293
-236.859	-149.209	-0.204	-0.016
-235.844	173.688	-0.078	0.113
-234.830	157.425	-0.123	-0.170
-233.815	-46.123	0.080	0.040
-232.800	-35.614	0.323	0.176
-231.786	746.727	-0.046	0.124
-230.771	-91.746	0.260	0.074
-229.757	-65.701	0.078	0.031
-228.742	-200.000	-0.013	0.091
-227.727	-23.591	-0.466	0.280
-226.713	-184.239	0.245	-0.004
-225.698	3.214	0.110	-0.080
-224.684	90.998	0.257	-0.289
-223.669	800.000	-0.111	0.307
-222.655	34.977	0.147	0.129
-221.640	12.299	0.100	0.077
-220.625	70.039	-0.039	0.041
-219.611	150.257	-0.187	-0.255
-218.596	262.207	-0.081	-0.141
-217.582	-28.289	-0.116	0.067
-216.567	37.984	0.073	-0.065
-215.552	-42.811	-0.029	0.015
-214.538	-156.551	0.164	0.010
-213.523	95.389	-0.258	-0.294
-212.509	404.974	0.115	0.243
-211.494	-200.000	0.005	0.110
-210.479	56.900	-0.176	0.172
-209.465	800.000	0.078	0.239
-208.450	36.978	0.168	0.149
-207.436	221.871	0.098	-0.158
-206.421	31.185	0.193	-0.166
-205.406	-70.098	0.120	0.046
-204.392	87.122	0.181	-0.201
-203.377	-129.864	-0.391	0.054
-202.363	-171.757	0.449	-0.015
-201.348	-166.601	0.285	0.012
-200.333	103.528	0.212	-0.250
-199.319	-33.580	0.026	-0.014
-198.304	800.000	-0.078	-0.310
-197.290	511.706	-0.027	-0.062
-196.275	-200.000	-0.037	0.231
-195.260	-95.838	0.233	0.062
-194.246	275.805	-0.172	0.305
-193.231	-67.610	-0.117	-0.046
-192.217	-107.346	0.256	0.056
-191.202	-15.030	0.190	0.122
-190.187	-67.274	0.137	0.054
-189.173	448.679	0.179	-0.395
-188.158	180.437	-0.008	-0.011
-187.144	70.175	-0.237	-0.245
-186.129	-59.735	0.319	0.137
-185.114	-89.127	0.227	0.067
-184.100	378.407	0.211	0.431
-183.085	182.776	-0.093	0.137
-182.071	-75.414	-0.226	0.081
-181.056	296.543	-0.174	-0.319
-180.042	-193.047	-0.177	0.002
-179.027	21.385	-0.232	-0.189
-178.012	800.000	0.062	0.217
-176.998	800.000	-0.088	0.245
-175.983	-157.293	-0.115	0.007
-174.969	-146.324	-0.071	0.006
-173.954	186.739	-0.054	0.080
-172.939	-25.465	-0.242	0.143
-171.925	43.550	0.326	-0.298
-170.910	-128.080	0.235	-0.034
-169.896	46.262	0.266	0.246
-168.881	10.614	0.084	0.064
-167.866	117.501	0.101	-0.125
-166.852	-200.000	0.036	-0.169
-165.837	800.000	0.030	0.101
-164.823	425.786	-0.113	-0.243
-163.808	-15.285	0.538	0.344
-162.793	589.154	0.019	-0.046
-161.779	159.605	-0.056	0.078
-160.764	-141.082	-0.157	0.016
-159.750	-200.000	0.027	0.336
-158.735	-52.731	0.365	-0.168
-157.720	-200.000	-0.009	0.065
-156.706	51.137	-0.183	0.174
-155.691	-15.776	-0.237	0.151
-154.677	-68.938	0.151	0.058
-153.662	-106.944	0.234	-0.052
-152.647	-200.000	-0.004	-0.113
-151.633	-51.906	0.209	-0.097
-150.618	258.861	0.135	-0.232
-149.604	-84.455	-0.275	-0.087
-148.589	230.088	0.205	-0.334
-147.574	-104.283	-0.248	0.057
-146.560	-151.388	-0.171	0.013
-145.545	-76.358	0.186	-0.065
-144.531	-64.401	-0.100	0.041
-143.516	-111.771	0.083	0.017
-142.502	96.211	-0.155	-0.177
-141.487	-169.123	0.149	-0.006
-140.472	616.534	0.100	-0.251
-139.458	444.269	-0.137	0.300
-138.443	-200.000	-0.014	-0.154
-137.429	-200.000	0.001	0.133
-136.414	-132.732	-0.136	0.017
-135.399	-52.562	-0.210	0.097
-134.385	-179.702	0.378	-0.008
-133.370	-200.000	0.014	0.233
-132.356	-200.000	0.003	0.037
-131.341	-200.000	0.006	0.048
-130.326	-181.807	0.387	0.007
-129.312	-20.099	-0.132	-0.081
-128.297	-200.000	0.004	0.078
-127.283	7.930	-0.320	0.239
-126.268	243.968	0.147	0.247
-125.253	-112.627	-0.078	0.016
-124.239	-78.936	-0.117	-0.040
-123.224	33.702	0.061	-0.053
-122.210	-121.249	0.274	0.046
-121.195	-137.298	0.346	-0.039
-120.180	800.000	-0.078	0.220
-119.166	654.876	-0.130	0.332
-118.151	-25.162	0.192	0.113
-117.137	-173.080	0.235	0.007
-116.122	-84.138	0.143	-0.045
-115.107	-144.932	-0.138	0.013
-114.093	354.538	-0.066	0.130
-113.078	800.000	0.012	0.044
-112.064	-17.633	0.232	0.145
-111.049	81.344	0.124	0.134
-110.034	800.000	0.026	-0.087
-109.020	164.454	-0.101	-0.143
-108.005	-75.664	0.433	-0.153
-106.991	36.140	0.297	0.261
-105.976	800.000	0.046	0.183
-104.962	77.131	0.145	0.154
-103.947	-200.000	0.076	-0.000
-102.932	134.243	-0.141	0.182
-101.918	-200.000	-0.019	-0.117
-100.903	-64.581	0.153	-0.062
-99.889	-101.262	0.116	-0.028
-98.874	-8.374	0.211	0.142
-97.859	-200.000	-0.015	-0.244
-96.845	800.000	0.064	-0.196
-95.830	-200.000	-0.004	-0.068
-94.816	184.953	0.029	-0.042
-93.801	-18.454	-0.249	0.155
-92.786	800.000	-0.037	-0.109
-91.772	800.000	0.025	-0.089
-90.757	48.388	-0.080	0.075
-89.743	236.698	0.183	0.303
-88.728	800.000	-0.089	0.286
-87.713	22.340	-0.061	-0.050
-86.699	-41.245	0.216	-0.111
-85.684	-103.947	0.285	0.066
-84.670	800.000	0.080	-0.289
-83.655	634.772	-0.126	-0.319
-82.640	-200.000	-0.008	-0.053
-81.626	-95.023	-0.008	0.002
-80.611	-200.000	0.012	0.295
-79.597	98.091	0.135	-0.155
-78.582	31.443	0.099	-0.085
-77.567	-66.396	-0.184	0.073
-76.553	-165.566	-0.239	0.010
-75.538	-133.657	-0.040	0.005
-74.524	-172.594	-0.139	-0.004
-73.509	76.452	0.078	0.082
-72.494	800.000	-0.004	-0.015
-71.480	-191.122	0.405	-0.004
-70.465	800.000	0.057	0.205
-69.451	-131.333	0.197	-0.026
-68.436	-38.654	-0.045	0.024
-67.422	-98.849	0.233	0.059
-66.407	-13.191	-0.125	-0.081
-65.392	18.792	0.056	-0.045
-64.378	-24.382	-0.066	-0.039
-63.363	-200.000	-0.010	-0.047
-62.349	425.854	0.161	0.345
-61.334	-4.567	-1.035	-0.712
-60.319	24.809	0.434	0.358
-59.305	800.000	-0.275	-0.846
-58.290	180.201	0.668	0.975
-57.276	159.911	1.017	1.410
-56.261	-200.000	85.952	497.426
-55.246	533.149	1376.485	3243.900
-54.232	184.651	2591.916	3823.282
-53.217	118.646	2220.010	2728.026
-52.203	48.785	1670.230	1559.161
-51.188	41.273	1402.438	1261.793
-50.173	38.049	1358.063	1202.007
-49.159	56.516	1400.276	1355.115
-48.144	61.507	1419.615	1404.963
-47.130	41.831	1377.858	1242.955
-46.115	38.174	1360.317	1204.584
-45.100	37.927	1355.442	1198.702
-44.086	37.936	1352.702	1196.280
-43.071	37.872	1350.385	1193.792
-42.057	37.745	1348.466	1191.274
-41.042	37.865	1346.680	1190.381
-40.027	38.000	1344.712	1189.418
-39.013	37.881	1343.430	1187.515
-37.998	37.817	1341.648	1185.504
-36.984	37.935	1339.863	1184.592
-35.969	37.979	1337.913	1183.089
-34.954	38.142	1335.729	1182.098
-33.940	38.043	1334.882	1180.702
-32.925	37.977	1333.756	1179.263
-31.911	38.070	1331.951	1178.178
-30.896	38.138	1330.139	1176.940
-29.881	38.115	1328.927	1175.683
-28.867	38.053	1327.680	1174.160
-27.852	38.149	1326.109	1173.298
-26.838	38.197	1324.780	1172.364
-25.823	38.159	1323.487	1170.950
-24.809	38.014	1322.190	1168.886
-23.794	38.050	1320.886	1167.903
-22.779	38.091	1319.229	1166.634
-21.765	38.137	1317.866	1165.655
-20.750	38.109	1316.260	1164.022
-19.736	37.975	1315.463	1162.476
-18.721	38.014	1313.810	1161.199
-17.706	38.103	1312.597	1160.610
-16.692	37.882	1312.029	1158.747
-15.677	37.954	1310.908	1158.138
-14.663	37.909	1309.485	1156.571
-13.648	37.847	1308.682	1155.447
-12.633	37.948	1307.295	1154.777
-11.619	38.096	1306.233	1154.670
-10.604	37.888	1305.826	1153.029
-9.590	37.847	1304.646	1151.700
-8.575	37.955	1303.645	1151.411
-7.560	37.930	1302.375	1150.093
-6.546	37.889	1301.993	1149.472
-5.531	37.959	1300.862	1148.837
-4.517	37.915	1299.918	1147.697
-3.502	37.970	1298.842	1147.026
-2.487	37.934	1298.354	1146.342
-1.473	38.004	1294.038	1142.896
-0.458	36.771	1278.969	1122.395
0.556	33.132	1259.186	1080.277
1.571	28.907	1262.572	1058.819
2.586	27.417	1276.747	1061.925
3.600	25.867	1264.527	1042.706
4.615	19.443	1188.634	944.975
5.629	9.697	1108.422	831.114
6.644	5.152	1085.919	791.174
7.659	4.943	1083.039	787.950
8.673	5.050	1082.316	787.893
9.688	4.845	1081.130	785.926
10.702	5.098	1079.744	786.125
11.717	10.545	1087.102	818.977
12.731	18.695	1099.292	869.542
13.746	20.948	1100.698	881.990
14.761	19.428	1097.852	871.956
15.775	18.323	1095.639	864.542
16.790	17.239	1093.732	857.497
17.804	16.490	1092.191	852.435
18.819	16.022	1091.410	849.392
19.834	15.805	1089.824	846.992
20.848	15.638	1089.232	845.618
21.863	15.525	1088.158	844.139
22.877	15.169	1088.019	842.170
23.892	15.133	1087.665	841.636
24.907	15.230	1086.414	841.084
25.921	15.245	1085.304	840.225
26.936	15.363	1083.168	839.089
27.950	15.337	1082.261	838.181
28.965	15.435	1080.740	837.417
29.980	15.448	1079.415	836.380
30.994	15.580	1078.191	836.014
32.009	15.667	1077.295	835.682
33.023	15.571	1075.721	833.907
34.038	15.458	1075.253	832.910
35.053	15.501	1074.077	832.137
36.067	15.476	1073.577	831.556
37.082	15.410	1072.411	830.249
38.096	15.632	1071.312	830.425
39.111	15.473	1071.099	829.398
40.126	15.315	1070.192	827.843
41.140	15.238	1068.380	825.989
42.155	15.137	1066.748	824.159
43.169	15.091	1065.934	823.228
44.184	15.183	1064.909	822.817
45.199	15.202	1063.738	821.934
46.213	15.210	1062.685	821.085
47.228	15.273	1061.939	820.745
48.242	15.390	1060.677	820.270
49.257	15.322	1059.836	819.215
50.271	15.397	1059.089	818.929
51.286	15.383	1058.020	817.963
52.301	15.387	1056.869	817.019
53.315	15.222	1056.360	815.752
54.330	15.231	1054.761	814.487
55.344	15.325	1053.817	814.145
56.359	15.352	1053.343	813.838
57.374	15.141	1052.414	812.026
58.388	15.163	1051.443	811.311
59.403	15.192	1050.134	810.367
60.417	15.044	1049.899	809.400
61.432	15.104	1048.721	808.710
62.447	15.044	1047.894	807.710
63.461	15.041	1047.250	807.130
64.476	14.993	1046.253	806.059
65.490	15.188	1045.110	806.044
66.505	15.073	1044.892	805.251
67.520	15.120	1044.022	804.736
68.534	14.941	1043.700	803.554
69.549	15.102	1042.211	803.113
70.563	15.092	1041.502	802.446
71.578	14.968	1040.838	801.269
72.593	14.953	1040.105	800.561
73.607	14.909	1039.311	799.669
74.622	14.960	1038.637	799.326
75.636	15.054	1037.668	798.954
76.651	14.977	1037.297	798.232
77.666	14.896	1036.866	797.443
78.680	14.939	1036.123	797.004
79.695	15.040	1035.016	796.567
80.709	15.149	1034.579	796.678
81.724	15.073	1033.966	795.775
82.739	15.231	1033.227	795.882
83.753	15.379	1032.597	796.029
84.768	15.485	1031.694	795.768
85.782	15.509	1030.776	795.103
86.797	15.487	1030.124	794.422
87.812	15.385	1028.830	792.873
88.826	15.351	1027.771	791.827
89.841	15.345	1027.247	791.327
90.855	15.434	1025.843	790.596
91.870	15.586	1025.007	790.595
92.884	15.528	1024.613	789.949
93.899	15.579	1023.224	789.049
94.914	15.550	1022.793	788.510
95.928	15.595	1021.735	787.835
96.943	15.478	1020.850	786.535
97.957	15.548	1019.692	785.899
98.972	15.568	1018.886	785.301
99.987	15.520	1018.400	784.635
101.001	15.524	1017.122	783.601
102.016	15.502	1016.347	782.832
103.030	15.508	1015.891	782.438
104.045	15.507	1014.827	781.546
105.060	15.437	1013.764	780.332
106.074	15.349	1012.953	779.230
107.089	15.110	1011.881	777.225
108.103	15.214	1010.740	776.765
109.118	15.093	1010.163	775.689
110.133	15.074	1009.525	775.045
111.147	15.040	1008.403	773.955
112.162	15.160	1007.336	773.621
113.176	15.210	1007.014	773.538
114.191	15.379	1005.615	773.173
115.206	15.193	1005.177	771.913
116.220	15.229	1004.664	771.615
117.235	15.369	1003.037	770.941
118.249	15.159	1002.581	769.559
119.264	15.208	1001.781	769.102
120.279	15.226	1000.712	768.294
121.293	15.122	999.866	767.102
122.308	15.039	999.489	766.365
123.322	15.160	997.635	765.428
124.337	14.990	997.277	764.307
125.352	15.107	996.439	764.134
126.366	15.027	995.129	762.696
127.381	15.119	993.953	762.144
128.395	15.045	993.476	761.375
129.410	15.009	992.559	760.441
130.424	15.209	991.267	760.294
131.439	15.254	990.685	759.985
132.454	15.321	989.636	759.413
133.468	15.220	989.318	758.648
134.483	15.282	988.233	758.027
135.497	15.249	987.840	757.511
136.512	15.322	986.752	756.938
137.527	15.355	985.806	756.294
138.541	15.414	984.855	755.765
139.556	15.389	984.086	754.993
140.570	15.525	983.469	755.064
141.585	15.702	982.589	755.118
142.600	15.654	981.716	754.167
143.614	15.730	980.655	753.623
144.629	15.830	979.634	753.221
145.643	15.616	979.380	751.999
146.658	15.579	978.426	751.036
147.673	15.503	977.020	749.550
148.687	15.292	976.405	748.072
149.702	15.378	975.176	747.445
150.716	15.295	974.793	746.715
151.731	15.316	974.231	746.315
152.746	15.417	973.152	745.872
153.760	15.495	972.685	745.793
154.775	15.483	972.092	745.218
155.789	15.531	971.418	744.850
156.804	15.495	970.605	743.999
157.819	15.667	970.109	744.316
158.833	15.684	969.495	743.852
159.848	15.752	968.585	743.391
160.862	15.729	967.783	742.609
161.877	15.530	966.141	740.406
162.892	15.463	965.277	739.384
163.906	15.352	964.615	738.320
164.921	15.418	963.968	738.053
165.935	15.586	962.274	737.425
166.950	15.622	962.056	737.352
167.964	15.536	961.295	736.325
168.979	15.483	960.288	735.256
169.994	15.586	959.202	734.813
171.008	15.530	958.660	734.088
172.023	15.575	958.306	733.949
173.037	15.755	957.176	733.802
174.052	15.727	956.473	733.074
175.067	15.591	955.931	732.006
176.081	15.475	955.711	731.264
177.096	15.370	955.388	730.496
178.110	15.516	954.197	730.154
179.125	15.543	953.706	729.834
180.140	15.450	953.930	729.537
181.154	15.688	952.646	729.520
182.169	15.811	952.194	729.643
183.183	15.724	951.846	728.936
184.198	15.934	950.581	728.814
185.213	15.770	949.869	727.492
186.227	15.739	949.565	727.061
187.242	15.971	948.562	727.232
188.256	15.972	948.144	726.848
189.271	15.955	947.299	726.064
190.286	15.693	946.509	724.265
191.300	15.533	945.606	722.822
192.315	15.499	944.834	722.021
193.329	15.553	944.443	721.890
194.344	15.555	943.982	721.482
195.359	15.769	943.181	721.726
196.373	15.722	942.297	720.786
197.388	15.975	942.005	721.579
198.402	16.016	942.091	721.760
199.417	16.034	941.149	721.049
200.432	16.260	940.351	721.341
201.446	16.233	940.327	721.145
202.461	16.237	939.474	720.442
203.475	16.184	939.018	719.805
204.490	16.015	938.034	718.264
205.504	16.034	936.973	717.471
206.519	16.092	936.090	716.978
207.534	16.097	935.144	716.210
208.548	15.893	935.326	715.420
209.563	16.070	934.438	715.429
210.577	16.155	933.952	715.353
211.592	16.135	933.150	714.592
212.607	16.230	932.120	714.141
213.621	16.177	931.274	713.204
214.636	16.204	930.354	712.552
215.650	16.229	930.121	712.415
216.665	16.271	929.647	712.167
217.680	16.173	929.207	711.354
218.694	16.468	927.675	711.358
219.709	16.207	927.853	710.336
220.723	16.454	926.478	710.255
221.738	16.360	925.768	709.257
222.753	16.295	925.298	708.562
223.767	16.373	924.624	708.308
224.782	16.490	923.807	708.110
225.796	16.427	923.665	707.675
226.811	16.433	923.077	707.186
227.826	16.408	922.128	706.292
228.840	16.387	921.254	705.472
229.855	16.219	920.769	704.338
230.869	16.479	919.501	704.387
231.884	16.402	919.138	703.726
232.899	16.351	918.368	702.864
233.913	16.247	917.677	701.842
234.928	16.230	916.831	701.058
235.942	16.191	916.425	700.528
236.957	16.176	915.757	699.890
237.972	16.266	915.312	699.862
238.986	16.291	914.643	699.391
240.001	16.345	913.694	698.827
241.015	16.284	913.403	698.291
242.030	16.574	912.730	698.912
243.045	16.441	911.990	697.738
244.059	16.404	911.547	697.182
245.074	16.494	910.926	697.016
246.088	16.367	910.288	695.943
247.103	16.522	909.894	696.221
248.117	16.631	909.255	696.119
249.132	16.805	908.835	696.449
250.147	16.992	908.190	696.661
251.161	16.975	907.564	696.049
252.176	16.964	906.999	695.509
253.190	17.076	905.850	695.027
254.205	17.162	905.586	695.112
255.220	16.943	904.631	693.423
256.234	17.072	903.985	693.393
257.249	17.109	903.365	693.007
258.263	17.039	902.590	692.067
259.278	17.036	901.960	691.511
260.293	16.996	901.636	691.037
261.307	17.183	900.575	690.925
262.322	17.320	899.937	690.929
263.336	17.242	899.595	690.290
264.351	17.170	898.966	689.453
265.366	17.289	898.215	689.299
266.380	17.207	897.680	688.496
267.395	17.180	896.602	687.499
268.409	17.114	896.062	686.755
269.424	17.177	895.191	686.286
270.439	17.180	894.466	685.678
271.453	16.985	893.846	684.358
272.468	17.235	893.130	684.757
273.482	16.992	893.114	683.704
274.497	17.202	892.029	683.657
275.512	17.184	891.563	683.166
276.526	17.194	891.311	682.955
277.541	17.291	890.509	682.670
278.555	17.341	890.032	682.444
279.570	17.359	889.449	682.009
280.585	17.392	888.441	681.305
281.599	17.163	888.193	680.140
282.614	17.258	887.312	679.786
283.628	17.213	886.763	679.126
284.643	17.303	885.771	678.663
285.657	17.317	885.392	678.370
286.672	17.263	884.634	677.515
287.687	17.320	884.205	677.350
288.701	17.370	883.234	676.746
289.716	17.333	882.952	676.321
290.730	17.375	882.298	675.929
291.745	17.455	881.616	675.666
292.760	17.478	880.988	675.213
293.774	17.575	880.493	675.162
294.789	17.554	880.017	674.654
295.803	17.397	879.419	673.512
296.818	17.403	878.208	672.552
297.833	17.544	877.444	672.460
298.847	17.402	877.286	671.719
299.862	17.442	876.750	671.409
300.876	17.591	876.254	671.557
301.891	17.634	875.734	671.268
302.906	17.682	875.228	671.012
303.920	17.728	874.684	670.715
304.935	17.752	874.052	670.265
305.949	17.749	873.355	669.661
306.964	17.799	872.421	669.082
307.979	17.715	872.092	668.440
308.993	17.814	871.555	668.358
310.008	17.810	871.353	668.125
311.022	17.731	870.182	666.860
312.037	17.711	869.686	666.342
313.052	17.636	869.364	665.744
314.066	17.548	868.726	664.855
315.081	17.533	868.128	664.278
316.095	17.627	867.230	663.899
317.110	17.670	866.698	663.601
318.125	17.597	866.129	662.822
319.139	17.668	865.472	662.534
320.154	17.844	865.232	662.979
321.168	17.624	864.883	661.797
322.183	17.610	864.272	661.217
323.197	17.786	863.860	661.527
324.212	17.741	863.175	660.767
325.227	17.632	862.792	659.993
326.241	17.759	861.766	659.641
327.256	17.724	861.524	659.264
328.270	17.776	860.836	658.879
329.285	17.613	860.502	657.935
330.300	17.761	859.792	657.907
331.314	17.896	858.999	657.760
332.329	17.814	858.918	657.326
333.343	17.790	858.371	656.758
334.358	17.875	858.107	656.822
335.373	17.861	857.564	656.297
336.387	18.039	857.118	656.581
337.402	18.059	856.728	656.300
338.416	18.007	856.686	656.009
339.431	18.176	856.298	656.304
340.446	18.236	855.582	655.927
341.460	17.973	855.846	655.063
342.475	18.198	854.927	655.165
343.489	18.149	854.520	654.606
344.504	18.391	854.098	655.151
345.519	18.493	853.292	654.865
346.533	18.409	852.573	653.934
347.548	18.282	852.299	653.180
348.562	18.168	851.722	652.246
349.577	18.221	851.106	651.917
350.592	18.159	850.491	651.154
351.606	18.112	849.684	650.302
352.621	18.186	849.045	650.034
353.635	18.279	848.177	649.667
354.650	18.197	847.738	648.960
355.665	18.271	847.157	648.737
356.679	18.283	846.658	648.346
357.694	18.235	845.790	647.440
358.708	18.406	845.102	647.504
359.723	18.325	844.761	646.879
360.738	18.258	843.962	645.958
361.752	18.397	843.854	646.341
362.767	18.426	842.967	645.715
363.781	18.442	842.559	645.404
364.796	18.619	842.277	645.798
365.810	18.677	841.818	645.609
366.825	18.825	841.460	645.832
367.840	18.492	841.397	644.473
368.854	18.497	840.278	643.579
369.869	18.678	839.832	643.861
370.883	18.566	839.397	643.048
371.898	18.663	839.029	643.074
372.913	18.654	838.845	642.843
373.927	18.669	838.275	642.404
374.942	18.711	837.801	642.143
375.956	18.822	837.129	641.986
376.971	18.794	837.001	641.724
377.986	18.915	836.465	641.709
379.000	18.962	835.682	641.226
380.015	18.887	835.342	640.630
381.029	18.883	834.726	640.085
382.044	18.959	834.079	639.816
383.059	18.946	833.594	639.339
384.073	18.901	833.077	638.718
385.088	18.904	832.161	637.970
386.102	18.844	831.575	637.241
387.117	18.744	831.330	636.626
388.132	18.753	830.611	636.056
389.146	18.740	830.156	635.601
390.161	18.883	829.624	635.667
391.175	18.968	828.972	635.425
392.190	18.933	828.605	634.959
393.205	18.875	828.036	634.253
394.219	18.903	827.639	633.994
395.234	18.830	827.581	633.625
396.248	18.733	826.819	632.627
397.263	18.726	826.180	632.057
398.278	18.664	826.176	631.771
399.292	18.708	825.682	631.500
400.307	18.872	824.780	631.355
401.321	18.935	824.761	631.517
402.336	18.742	824.570	630.605
403.350	18.943	823.721	630.637
404.365	19.112	823.186	630.792
405.380	19.056	823.017	630.401
406.394	19.199	822.305	630.325
407.409	19.014	822.275	629.566
408.423	19.079	821.906	629.467
409.438	19.242	821.461	629.667
410.453	19.435	820.919	629.899
411.467	19.435	820.352	629.409
412.482	19.504	819.828	629.203
413.496	19.433	819.709	628.796
414.511	19.487	819.120	628.487
415.526	19.361	818.766	627.702
416.540	19.480	818.137	627.594
417.555	19.401	817.798	626.992
418.569	19.324	817.321	626.291
419.584	19.279	816.963	625.800
420.599	19.373	816.478	625.713
421.613	151.237	1368.285	1776.140
422.628	131.530	1448.701	1776.282
