DTS Sentinel unit serial number:	SN413079Multiplexer serial number:	ORYXHardware model number:	OX4-SRSoftware version number:	ORYX F/W v4.00 Oryx Data Collector v3.7.2.0data status	okinstallation	princeton_trtdifferential loss correction	single-endedforward channel	channel 1reverse channel	N/Adate	2019/09/12time	18:36:34forward acquisition time	15.00reverse acquisition time	0.00gamma	496.2192k internal	0.2318k external	0.2318temperature offset calibration	1.0111default loss term (dB/km)	0.3790temperature slope calibration	1.0000multiplexer offset coefficient	1.0000multiplexer slope coefficient	1.0000fibre end	0.00T internal ref (°C)	33.12T ext. ref 1 (°C)	2.99T ext. ref 2 (°C)	27.72length (m)	temperature (°C)	Stokes	anti-Stokes-747.200	800.000	-0.154	-0.638
-746.185	-7.125	-0.393	-0.270
-745.171	354.151	-0.126	0.254
-744.156	54.304	-0.908	-0.885
-743.142	-31.790	0.602	-0.342
-742.127	-101.183	0.566	0.140
-741.112	800.000	0.221	0.682
-740.098	-134.025	-0.552	-0.069
-739.083	186.051	0.242	-0.364
-738.069	-163.016	-0.574	0.028
-737.054	-133.730	1.526	-0.193
-736.039	101.007	-0.265	0.312
-735.025	800.000	-0.113	-0.410
-734.010	-200.000	-0.018	-0.856
-732.996	179.317	-0.239	-0.353
-731.981	169.972	-0.528	0.764
-730.966	-101.049	-0.298	-0.074
-729.952	-29.580	-0.365	-0.211
-728.937	-46.783	-0.696	0.344
-727.923	-149.555	0.816	0.065
-726.908	107.501	-0.513	0.617
-725.894	-54.897	0.971	-0.443
-724.879	-78.447	0.206	-0.071
-723.864	447.998	-0.158	-0.353
-722.850	273.436	-0.479	-0.857
-721.835	329.266	-0.180	-0.351
-720.821	213.389	-0.372	-0.595
-719.806	-200.000	-0.053	-0.396
-718.791	-65.648	0.547	-0.222
-717.777	292.668	0.219	0.404
-716.762	61.857	0.114	0.115
-715.748	43.974	0.326	0.302
-714.733	22.567	-0.115	-0.095
-713.718	75.036	0.515	0.549
-712.704	-200.000	-0.080	0.794
-711.689	32.899	0.488	0.427
-710.675	800.000	-0.127	-0.413
-709.660	186.047	0.274	0.412
-708.645	714.108	-0.230	0.617
-707.631	13.907	0.319	-0.251
-706.616	-200.000	-0.065	0.407
-705.602	87.584	0.159	-0.178
-704.587	143.202	-0.438	-0.589
-703.572	-131.322	0.033	-0.004
-702.558	-45.921	-0.324	-0.161
-701.543	309.888	0.199	0.377
-700.529	404.677	0.323	-0.688
-699.514	800.000	-0.037	-0.137
-698.499	188.422	-0.295	0.445
-697.485	-157.487	0.637	0.039
-696.470	-200.000	-0.048	-0.321
-695.456	-78.994	-0.045	0.015
-694.441	-59.231	-0.732	-0.318
-693.426	-81.976	0.126	0.042
-692.412	-77.767	-0.525	-0.183
-691.397	17.410	-0.076	-0.061
-690.383	306.339	-0.068	-0.127
-689.368	-177.696	0.314	-0.008
-688.354	-200.000	-0.006	-0.592
-687.339	-21.879	0.758	0.465
-686.324	89.974	0.148	0.167
-685.310	261.142	-0.334	0.583
-684.295	442.636	-0.147	0.325
-683.281	323.779	-0.112	0.217
-682.266	111.288	-0.352	-0.428
-681.251	800.000	0.174	0.708
-680.237	-140.645	-0.471	-0.049
-679.222	198.748	0.264	0.409
-678.208	-11.885	-0.886	0.587
-677.193	-200.000	-0.045	-0.952
-676.178	-200.000	-0.082	-0.773
-675.164	800.000	0.367	-1.338
-674.149	75.338	-0.359	-0.382
-673.135	12.931	-0.238	-0.186
-672.120	-176.375	-0.581	0.015
-671.105	-200.000	0.049	-0.486
-670.091	278.585	-0.432	-0.778
-669.076	9.357	-0.548	-0.418
-668.062	-200.000	-0.071	-0.999
-667.047	800.000	0.282	-0.805
-666.032	167.052	-0.614	0.880
-665.018	53.499	0.270	0.261
-664.003	40.635	0.140	-0.127
-662.989	300.107	0.147	0.273
-661.974	69.423	-0.593	-0.616
-660.959	-107.074	0.720	-0.160
-659.945	257.819	0.179	-0.311
-658.930	-42.827	0.546	0.280
-657.916	-36.167	-0.365	0.199
-656.901	-200.000	0.094	0.585
-655.886	-163.264	0.729	0.035
-654.872	-200.000	0.055	-0.352
-653.857	-200.000	-0.105	-0.851
-652.843	40.073	0.086	0.078
-651.828	-184.640	-0.327	0.005
-650.814	-103.216	-0.345	0.082
-649.799	-39.475	-0.160	0.084
-648.784	383.512	-0.258	-0.535
-647.770	38.700	-0.399	0.359
-646.755	-36.575	-0.723	-0.392
-645.741	-200.000	-0.037	0.971
-644.726	-26.191	-0.294	0.174
-643.711	-76.030	0.592	-0.211
-642.697	460.056	0.287	-0.644
-641.682	278.125	0.069	-0.124
-640.668	39.760	-0.346	0.313
-639.653	0.758	0.573	0.413
-638.638	-91.250	0.988	0.285
-637.624	629.190	-0.176	0.450
-636.609	114.659	0.255	-0.314
-635.595	54.744	-0.388	-0.377
-634.580	-160.716	-0.717	-0.038
-633.565	800.000	0.234	0.689
-632.551	-173.839	0.280	-0.008
-631.536	-119.519	0.141	-0.025
-630.522	-87.625	0.489	-0.149
-629.507	2.672	0.351	-0.256
-628.492	-28.444	-0.336	-0.195
-627.478	7.753	0.042	0.031
-626.463	-44.072	-0.306	-0.155
-625.449	-80.804	0.301	-0.101
-624.434	-200.000	0.175	-0.795
-623.419	-200.000	-0.041	-0.259
-622.405	-200.000	-0.034	0.335
-621.390	143.525	0.906	1.216
-620.376	-200.000	-0.043	0.721
-619.361	-200.000	0.036	-0.755
-618.346	1.605	0.288	-0.209
-617.332	270.040	0.104	-0.184
-616.317	512.017	0.142	-0.334
-615.303	-20.981	0.326	0.201
-614.288	-200.000	-0.007	0.388
-613.273	-84.732	0.554	0.176
-612.259	224.681	-0.510	-0.830
-611.244	-200.000	-0.135	-0.805
-610.230	-175.164	0.320	-0.009
-609.215	145.193	-0.281	-0.379
-608.201	624.445	0.169	-0.428
-607.186	-80.137	-0.902	0.304
-606.171	105.076	-0.213	0.253
-605.157	-172.896	0.633	-0.020
-604.142	637.774	0.221	-0.567
-603.128	-121.117	-0.837	-0.141
-602.113	85.206	0.422	0.465
-601.098	800.000	0.153	-0.602
-600.084	74.873	-0.446	-0.473
-599.069	473.915	-0.051	-0.115
-598.055	800.000	0.413	-1.440
-597.040	-60.001	0.282	-0.121
-596.025	800.000	0.052	0.208
-595.011	176.949	0.448	-0.656
-593.996	218.198	-0.259	-0.415
-592.982	333.646	0.160	-0.311
-591.967	480.763	-0.256	0.584
-590.952	800.000	-0.022	0.069
-589.938	64.476	0.354	-0.359
-588.923	-200.000	-0.107	-0.546
-587.909	115.694	-0.173	-0.213
-586.894	45.489	0.166	-0.154
-585.879	-8.289	0.118	-0.080
-584.865	436.378	-0.342	-0.748
-583.850	63.261	-0.110	0.111
-582.836	-60.227	0.219	0.094
-581.821	-57.071	-0.429	0.190
-580.806	-92.584	0.251	0.071
-579.792	-162.796	-0.713	-0.035
-578.777	19.265	-0.193	-0.155
-577.763	800.000	0.070	-0.304
-576.748	-64.810	-0.313	0.127
-575.733	-152.421	0.682	0.049
-574.719	800.000	-0.078	-0.230
-573.704	-200.000	-0.030	0.379
-572.690	-1.252	1.035	0.735
-571.675	-165.458	0.787	0.035
-570.661	6.300	0.590	0.440
-569.646	247.749	0.149	0.252
-568.631	168.648	0.306	0.439
-567.617	184.818	-0.618	-0.921
-566.602	-107.978	0.403	-0.088
-565.588	800.000	-0.306	0.923
-564.573	-71.754	0.584	0.219
-563.558	-44.116	0.632	0.319
-562.544	-37.693	-0.499	-0.267
-561.529	-33.577	0.299	0.166
-560.515	-31.663	0.392	0.221
-559.500	800.000	-0.138	0.510
-558.485	38.424	-0.363	-0.325
-557.471	67.148	0.381	-0.390
-556.456	-54.347	0.465	0.212
-555.442	148.124	0.190	0.257
-554.427	-17.130	-0.423	0.268
-553.412	-96.066	-0.826	0.221
-552.398	111.759	-0.323	0.391
-551.383	-30.533	0.442	-0.252
-550.369	172.029	0.172	0.248
-549.354	-105.284	-1.003	0.230
-548.339	1.879	-0.345	0.250
-547.325	800.000	-0.116	-0.482
-546.310	274.045	-0.622	-1.105
-545.296	-122.202	0.175	-0.029
-544.281	-97.975	-0.326	0.084
-543.266	-101.874	-0.679	0.165
-542.252	-200.000	-0.056	0.814
-541.237	581.429	0.293	0.722
-540.223	405.876	-0.133	0.281
-539.208	-41.502	-0.614	-0.317
-538.193	-200.000	-0.006	0.122
-537.179	761.951	0.133	-0.363
-536.164	800.000	0.247	0.738
-535.150	-37.022	-0.353	-0.190
-534.135	-100.969	0.278	0.069
-533.121	-200.000	-0.060	0.407
-532.106	800.000	-0.211	0.596
-531.091	54.056	-0.555	0.536
-530.077	800.000	-0.041	-0.175
-529.062	800.000	0.120	-0.480
-528.048	171.657	-0.168	-0.243
-527.033	241.515	-0.339	0.568
-526.018	15.456	0.233	0.184
-525.004	25.449	0.198	0.165
-523.989	-180.571	0.284	0.006
-522.975	375.651	-0.125	-0.256
-521.960	623.440	0.257	0.650
-520.945	206.537	-0.295	0.461
-519.931	-31.163	0.771	-0.436
-518.916	-200.000	0.018	-0.456
-517.902	-92.914	-0.869	-0.243
-516.887	360.274	-0.619	1.244
-515.872	501.272	0.089	-0.206
-514.858	32.795	-0.626	0.543
-513.843	-1.275	-1.036	0.734
-512.829	-180.185	0.327	-0.007
-511.814	-40.876	0.860	0.446
-510.799	299.738	0.259	-0.478
-509.785	76.775	0.418	0.444
-508.770	-32.045	-0.716	0.402
-507.756	-37.140	-0.435	0.234
-506.741	97.415	0.419	0.482
-505.726	-200.000	0.010	0.933
-504.712	-107.118	0.350	0.077
-503.697	120.376	-0.474	0.590
-502.683	553.711	0.157	-0.378
-501.668	419.482	-0.390	-0.836
-500.653	-64.318	1.024	-0.418
-499.639	197.495	-0.310	-0.475
-498.624	-114.470	-0.755	-0.145
-497.610	800.000	-0.130	-0.378
-496.595	23.530	-0.314	-0.259
-495.581	246.085	0.048	-0.081
-494.566	-166.773	0.300	0.012
-493.551	-38.859	-0.324	0.171
-492.537	290.671	0.198	0.361
-491.522	-200.000	0.006	-0.175
-490.508	-200.000	-0.036	0.503
-489.493	-159.725	-0.529	-0.029
-488.478	9.942	-0.319	-0.243
-487.464	-107.466	0.248	0.055
-486.449	71.127	0.966	-1.003
-485.435	83.440	0.120	0.131
-484.420	-164.306	-0.529	0.024
-483.405	-115.585	0.953	0.179
-482.391	78.867	-0.441	-0.473
-481.376	-10.598	0.311	0.206
-480.362	210.005	-0.067	0.106
-479.347	-74.077	-0.438	-0.159
-478.332	-84.486	0.510	0.161
-477.318	164.799	-0.037	0.052
-476.303	-141.349	0.425	0.043
-475.289	728.447	-0.288	0.769
-474.274	-36.941	0.643	0.345
-473.259	-172.500	0.497	-0.016
-472.245	-80.816	-0.764	-0.254
-471.230	-56.083	0.428	-0.191
-470.216	-72.538	-0.123	-0.046
-469.201	-200.000	0.033	0.363
-468.186	26.178	-0.494	0.413
-467.172	510.477	0.082	-0.192
-466.157	250.329	0.313	0.532
-465.143	504.712	0.112	-0.260
-464.128	141.728	-0.066	-0.087
-463.113	7.087	-0.837	-0.625
-462.099	57.275	0.369	-0.360
-461.084	-143.777	0.667	-0.063
-460.070	-135.314	0.562	0.067
-459.055	540.014	0.189	-0.450
-458.040	-160.415	-0.618	-0.033
-457.026	800.000	0.155	0.461
-456.011	-181.640	-0.720	-0.014
-454.997	-70.605	-0.381	-0.144
-453.982	-127.294	-0.280	0.041
-452.968	22.441	-0.185	0.152
-451.953	-200.000	0.023	0.544
-450.938	302.226	-0.414	0.766
-449.924	-114.439	-0.219	0.042
-448.909	78.114	0.303	0.324
-447.895	-28.002	-0.224	0.130
-446.880	800.000	-0.159	0.613
-445.865	14.134	0.688	-0.536
-444.851	346.319	-0.288	-0.567
-443.836	76.734	-0.506	0.537
-442.822	330.560	-0.237	-0.457
-441.807	-200.000	0.012	0.086
-440.792	-121.509	-0.629	-0.105
-439.778	-132.187	0.374	0.049
-438.763	-34.844	0.646	0.353
-437.749	-115.216	-0.472	0.089
-436.734	65.014	-0.183	-0.185
-435.719	-86.690	-0.589	-0.180
-434.705	25.615	0.226	-0.188
-433.690	643.984	0.079	-0.202
-432.676	-178.970	0.572	0.013
-431.661	-200.000	0.010	-0.468
-430.646	-136.972	-0.919	-0.105
-429.632	569.950	-0.143	-0.348
-428.617	-57.556	-0.447	0.196
-427.603	-122.409	-0.479	-0.078
-426.588	-51.526	-1.025	-0.479
-425.573	-200.000	0.180	-1.192
-424.559	82.611	0.418	-0.454
-423.544	-98.506	0.702	0.179
-422.530	10.705	-0.759	0.579
-421.515	183.591	-0.372	-0.549
-420.500	437.007	-0.254	0.554
-419.486	-159.303	-0.663	0.037
-418.471	-172.188	1.022	-0.033
-417.457	-190.556	-0.289	-0.003
-416.442	800.000	-0.389	-1.251
-415.428	160.231	-0.334	0.466
-414.413	800.000	-0.152	-0.527
-413.398	89.603	-0.356	0.397
-412.384	-200.000	-0.022	0.474
-411.369	-2.986	-0.284	0.198
-410.355	-49.222	0.092	-0.044
-409.340	286.121	-0.006	-0.011
-408.325	575.441	0.110	-0.269
-407.311	313.141	0.145	-0.272
-406.296	-60.531	0.383	0.162
-405.282	-161.729	0.438	0.022
-404.267	-81.916	-0.820	-0.268
-403.252	-114.110	-0.409	0.079
-402.238	143.116	-0.421	-0.559
-401.223	-166.154	-0.632	-0.027
-400.209	23.472	-0.522	-0.428
-399.194	-132.520	-0.257	0.033
-398.179	84.785	0.150	0.165
-397.165	796.142	-0.274	0.754
-396.150	-49.623	-0.501	-0.238
-395.136	-70.808	-0.450	0.169
-394.121	-200.000	0.091	0.444
-393.106	-178.646	0.321	-0.007
-392.092	-77.100	0.307	0.107
-391.077	-200.000	-0.013	-0.610
-390.063	226.725	0.413	0.669
-389.048	497.431	0.212	-0.486
-388.033	-200.000	0.086	0.387
-387.019	-200.000	-0.005	0.444
-386.004	800.000	0.149	0.426
-384.990	-98.404	0.197	0.050
-383.975	287.511	-0.141	-0.255
-382.960	173.102	-0.324	-0.466
-381.946	101.783	-0.428	0.498
-380.931	-194.072	0.300	0.002
-379.917	660.643	0.129	-0.332
-378.902	-200.000	0.024	0.352
-377.888	-108.404	1.082	0.233
-376.873	-90.379	0.482	-0.140
-375.858	-200.000	-0.105	0.495
-374.844	21.959	0.559	-0.455
-373.829	-8.794	-0.504	-0.337
-372.815	-48.568	0.244	0.117
-371.800	-72.795	-0.494	-0.181
-370.785	-32.300	0.804	0.448
-369.771	-200.000	0.123	0.920
-368.756	-73.300	0.744	0.271
-367.742	119.216	-0.282	0.348
-366.727	800.000	0.200	0.624
-365.712	-29.218	0.320	-0.183
-364.698	-200.000	-0.003	0.292
-363.683	251.005	-0.152	-0.258
-362.669	-200.000	0.003	0.102
-361.654	-200.000	-0.008	-0.519
-360.639	-8.425	0.311	-0.209
-359.625	-14.186	0.670	-0.430
-358.610	-116.270	-0.275	-0.051
-357.596	63.387	-0.358	-0.358
-356.581	109.533	-0.344	-0.411
-355.566	-24.431	-1.060	-0.630
-354.552	-75.552	-0.422	0.150
-353.537	-200.000	0.013	0.821
-352.523	-10.034	-0.272	0.180
-351.508	-200.000	0.020	0.129
-350.493	-200.000	0.034	-0.577
-349.479	20.817	0.541	-0.437
-348.464	-142.628	-0.004	-0.000
-347.450	800.000	0.132	0.405
-346.435	127.871	-0.683	-0.865
-345.420	-12.410	0.469	-0.305
-344.406	28.502	-0.377	0.318
-343.391	-22.092	-0.319	0.193
-342.377	30.873	-0.570	0.486
-341.362	-15.102	0.037	0.024
-340.348	-138.166	-0.447	-0.049
-339.333	245.065	0.096	-0.161
-338.318	73.154	0.266	0.277
-337.304	-50.019	0.255	0.120
-336.289	-200.000	-0.092	0.559
-335.275	-115.315	-0.295	0.056
-334.260	219.344	-0.066	-0.105
-333.245	18.859	-0.510	0.407
-332.231	-3.085	0.583	-0.405
-331.216	99.626	-0.760	-0.876
-330.202	-52.839	0.497	0.228
-329.187	-53.603	0.601	-0.274
-328.172	374.582	-0.187	0.379
-327.158	-34.119	-0.731	0.400
-326.143	175.861	0.059	-0.085
-325.129	-17.620	0.239	-0.150
-324.114	441.673	0.074	-0.161
-323.099	522.263	0.045	-0.106
-322.085	-104.128	0.205	0.048
-321.070	-111.578	-0.471	0.095
-320.056	-200.000	-0.076	0.712
-319.041	-82.239	-0.598	-0.194
-318.026	26.942	-0.152	0.127
-317.012	-124.408	1.220	0.189
-315.997	-140.078	0.466	0.049
-314.983	-29.664	0.328	0.186
-313.968	170.632	-0.287	0.409
-312.953	-152.505	-0.534	0.038
-311.939	-200.000	-0.098	0.615
-310.924	568.244	0.274	0.663
-309.910	-200.000	-0.094	0.722
-308.895	-20.468	0.515	0.315
-307.880	-200.000	0.103	0.639
-306.866	583.269	0.412	-1.006
-305.851	-37.984	0.498	0.263
-304.837	-33.015	0.322	-0.178
-303.822	-200.000	-0.031	-0.570
-302.807	-192.515	0.453	0.004
-301.793	-200.000	-0.009	0.115
-300.778	33.786	-0.272	0.235
-299.764	363.781	-0.458	-0.916
-298.749	-136.276	0.422	0.049
-297.735	56.083	-0.420	-0.405
-296.720	-28.777	-0.232	-0.133
-295.705	17.711	-0.232	-0.183
-294.691	-74.863	-0.676	-0.241
-293.676	-53.689	-0.400	0.182
-292.662	-106.883	-0.303	-0.067
-291.647	-143.921	0.384	0.036
-290.632	146.295	-0.248	-0.331
-289.618	118.684	-0.397	-0.487
-288.603	668.189	-0.120	0.310
-287.589	-200.000	-0.056	0.417
-286.574	40.158	-0.125	-0.112
-285.559	772.903	-0.259	0.701
-284.545	-148.620	0.236	-0.019
-283.530	-88.906	0.320	-0.094
-282.516	557.963	-0.150	0.359
-281.501	800.000	0.236	-0.660
-280.486	-79.370	-0.219	0.074
-279.472	-200.000	0.113	0.722
-278.457	271.732	-0.320	-0.560
-277.443	156.059	-0.088	0.120
-276.428	-111.630	-0.599	0.121
-275.413	286.372	-0.316	-0.568
-274.399	650.276	-0.237	-0.603
-273.384	-84.888	0.478	-0.149
-272.370	-94.472	-0.365	0.099
-271.355	0.607	0.547	0.389
-270.340	116.693	0.489	0.596
-269.326	-159.129	-0.386	-0.022
-268.311	-41.449	-0.136	0.069
-267.297	56.387	-0.458	-0.442
-266.282	-179.832	0.688	0.015
-265.267	-193.518	0.298	-0.003
-264.253	566.632	-0.229	0.552
-263.238	-31.296	-0.860	0.481
-262.224	285.332	-0.411	0.735
-261.209	-108.943	0.778	-0.165
-260.195	-6.301	0.334	0.227
-259.180	-200.000	0.438	0.001
-258.165	-61.904	-0.637	-0.265
-257.151	-181.586	0.348	0.007
-256.136	-98.095	0.552	-0.141
-255.122	800.000	0.145	0.517
-254.107	-133.951	0.690	-0.085
-253.092	143.771	0.079	-0.104
-252.078	30.568	-0.269	0.229
-251.063	800.000	0.171	0.486
-250.049	800.000	0.078	-0.217
-249.034	380.924	0.242	0.492
-248.019	-200.000	-0.084	-1.042
-247.005	-181.652	0.523	-0.010
-245.990	508.735	-0.281	0.647
-244.976	-123.112	-0.179	-0.029
-243.961	-128.732	-0.202	0.028
-242.946	-200.000	-0.206	-1.206
-241.932	-85.199	-0.732	0.227
-240.917	74.492	-0.345	0.360
-239.903	307.205	0.199	-0.368
-238.888	260.168	-0.197	0.339
-237.873	151.738	0.375	-0.507
-236.859	-127.374	-0.074	0.011
-235.844	263.683	-0.247	-0.426
-234.830	-179.424	-0.945	-0.021
-233.815	306.204	0.322	-0.595
-232.800	-200.000	-0.077	0.951
-231.786	76.778	0.174	-0.183
-230.771	-55.698	0.240	0.106
-229.757	-37.751	0.546	0.288
-228.742	-200.000	-0.002	-0.107
-227.727	-49.389	-0.763	0.361
-226.713	-200.000	-0.078	0.534
-225.698	-168.948	0.693	0.026
-224.684	568.909	0.271	0.652
-223.669	2.068	-0.239	0.171
-222.655	-200.000	-0.090	-0.700
-221.640	800.000	-0.168	-0.557
-220.625	800.000	0.278	0.835
-219.611	800.000	-0.136	0.388
-218.596	-200.000	0.004	-0.455
-217.582	-200.000	-0.114	-0.955
-216.567	204.432	-0.386	-0.593
-215.552	-66.162	0.508	-0.201
-214.538	54.352	-0.531	0.507
-213.523	-141.728	-0.232	-0.023
-212.509	-59.715	1.227	-0.521
-211.494	10.683	-0.564	0.426
-210.479	800.000	0.242	0.797
-209.465	-43.490	-0.382	0.191
-208.450	-11.865	0.369	-0.240
-207.436	-200.000	0.084	-0.895
-206.421	-110.451	0.572	-0.118
-205.406	-170.334	-0.607	-0.021
-204.392	212.768	0.238	-0.373
-203.377	348.168	0.072	0.140
-202.363	103.529	-0.220	-0.256
-201.348	400.644	0.265	-0.550
-200.333	-89.550	0.650	0.189
-199.319	66.639	0.748	0.754
-198.304	147.913	0.489	0.653
-197.290	-147.193	-0.211	-0.018
-196.275	-125.280	0.287	-0.044
-195.260	60.551	-0.565	-0.555
-194.246	-99.748	0.372	0.092
-193.231	-51.628	-0.366	-0.169
-192.217	-200.000	-0.002	-0.132
-191.202	-76.552	-0.212	0.074
-190.187	310.516	0.079	-0.147
-189.173	419.595	-0.153	-0.325
-188.158	90.212	-0.160	-0.177
-187.144	-200.000	-0.085	0.448
-186.129	85.602	0.210	-0.228
-185.114	-61.976	1.113	0.461
-184.100	146.807	-0.330	-0.440
-183.085	378.942	-0.041	-0.082
-182.071	800.000	0.139	-0.465
-181.056	626.375	0.209	-0.523
-180.042	-200.000	-0.065	0.448
-179.027	800.000	0.095	-0.350
-178.012	572.102	-0.400	-0.964
-176.998	-200.000	0.020	-0.627
-175.983	-128.094	-0.619	-0.088
-174.969	-82.079	0.985	-0.318
-173.954	-110.152	0.610	0.126
-172.939	-172.791	1.165	0.036
-171.925	414.965	-0.139	-0.293
-170.910	-200.000	0.116	0.735
-169.896	-99.545	0.745	-0.185
-168.881	151.105	-0.413	0.556
-167.866	-114.870	0.379	0.071
-166.852	51.573	0.273	0.257
-165.837	92.239	0.155	-0.173
-164.823	482.775	0.176	-0.395
-163.808	45.691	0.262	-0.240
-162.793	207.923	-0.576	-0.890
-161.779	-10.635	0.197	-0.129
-160.764	-200.000	-0.050	-0.748
-159.750	21.773	0.279	-0.225
-158.735	-71.366	0.349	0.129
-157.720	-84.023	-0.190	0.060
-156.706	15.725	1.035	0.805
-155.691	-135.932	0.533	-0.062
-154.677	-84.980	-0.484	0.150
-153.662	-51.041	0.803	-0.373
-152.647	-95.957	-0.072	-0.019
-151.633	54.882	0.147	0.141
-150.618	14.269	0.413	-0.319
-149.604	800.000	-0.108	0.415
-148.589	-14.818	0.165	-0.105
-147.574	-0.731	-0.237	0.166
-146.560	800.000	0.131	0.541
-145.545	-100.798	-0.522	-0.127
-144.531	-139.512	0.895	0.095
-143.516	-108.887	-0.335	0.071
-142.502	126.964	0.037	0.047
-141.487	-6.710	-0.327	-0.220
-140.472	-186.724	0.182	0.003
-139.458	-161.929	-0.439	-0.022
-138.443	9.000	-0.104	0.078
-137.429	90.198	-0.327	0.361
-136.414	57.330	-0.350	-0.338
-135.399	-45.520	0.442	0.216
-134.385	-200.000	0.004	0.223
-133.370	5.182	-0.636	-0.463
-132.356	106.332	0.297	-0.348
-131.341	-57.879	0.515	-0.223
-130.326	-125.344	0.839	0.126
-129.312	-42.733	-0.375	-0.188
-128.297	-2.077	-0.107	-0.074
-127.283	540.029	-0.188	0.441
-126.268	422.890	-0.311	0.660
-125.253	-121.392	0.664	-0.109
-124.239	189.890	0.288	0.426
-123.224	608.218	-0.326	0.803
-122.210	135.964	0.273	0.352
-121.195	-33.047	0.440	0.241
-120.180	-123.970	-0.541	-0.084
-119.166	-200.000	-0.037	0.332
-118.151	-116.986	0.468	0.084
-117.137	-53.311	1.127	0.510
-116.122	543.982	-0.401	0.946
-115.107	-167.156	-0.440	0.018
-114.093	-200.000	-0.022	-0.390
-113.078	119.535	-0.290	0.354
-112.064	140.127	-0.121	-0.157
-111.049	-200.000	0.005	-0.135
-110.034	318.319	0.185	-0.346
-109.020	-66.443	-0.563	-0.221
-108.005	141.881	-0.257	0.337
-106.991	294.561	-0.169	0.304
-105.976	110.992	0.337	-0.401
-104.962	448.592	-0.164	0.357
-103.947	-200.000	-0.062	0.555
-102.932	-88.973	-0.755	0.221
-101.918	-87.447	-0.450	0.134
-100.903	569.781	0.189	0.454
-99.889	-200.000	0.528	0.001
-98.874	-200.000	-0.127	-0.626
-97.859	-148.018	0.622	-0.051
-96.845	-151.747	0.618	0.045
-95.830	47.830	-0.163	0.151
-94.816	270.273	0.187	-0.325
-93.801	333.664	0.395	0.753
-92.786	51.494	0.472	-0.442
-91.772	-4.011	-0.865	0.592
-90.757	38.663	-0.408	-0.359
-89.743	181.267	-0.448	-0.649
-88.728	-20.077	-0.661	0.402
-87.713	800.000	-0.138	-0.410
-86.699	-50.384	0.570	-0.265
-85.684	-73.505	0.869	0.313
-84.670	99.826	0.575	-0.657
-83.655	106.901	-0.053	0.062
-82.640	-140.135	0.600	-0.062
-81.626	139.880	-0.166	-0.216
-80.611	-51.375	0.541	0.250
-79.597	-147.316	-0.407	0.034
-78.582	-68.999	0.026	0.010
-77.567	-121.077	-0.394	-0.065
-76.553	-200.000	0.047	0.721
-75.538	-43.891	-0.526	0.261
-74.524	-92.380	-0.761	-0.211
-73.509	-111.410	-0.333	-0.067
-72.494	57.331	-0.184	-0.177
-71.480	800.000	0.141	0.480
-70.465	-23.484	-0.329	0.195
-69.451	191.018	0.337	-0.500
-68.436	-11.841	-0.546	0.353
-67.422	-200.000	0.056	-0.407
-66.407	416.518	-0.452	-0.950
-65.392	80.207	-0.172	0.182
-64.378	80.483	0.471	-0.500
-63.363	567.791	-0.225	-0.538
-62.349	493.784	0.074	0.168
-61.334	-75.011	-1.268	-0.447
-60.319	-200.000	0.130	1.143
-59.305	194.755	-0.820	-1.226
-58.290	800.000	0.144	0.536
-57.276	-200.000	-0.212	1.866
-56.261	-200.000	95.268	566.189
-55.246	639.345	1365.091	3421.030
-54.232	201.151	2532.317	3839.754
-53.217	117.538	2130.483	2582.292
-52.203	44.716	1597.097	1447.006
-51.188	36.442	1337.932	1162.616
-50.173	33.380	1295.830	1108.106
-49.159	56.277	1344.454	1286.553
-48.144	57.605	1361.077	1310.305
-47.130	36.888	1318.890	1148.532
-46.115	33.324	1302.305	1113.135
-45.100	33.116	1296.993	1107.330
-44.086	33.173	1295.333	1106.202
-43.071	32.946	1292.739	1102.619
-42.057	33.009	1290.476	1101.013
-41.042	32.959	1288.312	1098.831
-40.027	33.133	1286.962	1098.651
-39.013	33.087	1285.333	1096.946
-37.998	33.074	1283.310	1095.099
-36.984	33.082	1282.113	1094.084
-35.969	33.166	1280.727	1093.343
-34.954	33.230	1279.465	1092.592
-33.940	33.228	1278.128	1091.396
-32.925	33.335	1274.680	1089.025
-31.911	33.093	1274.292	1087.259
-30.896	33.038	1273.207	1085.972
-29.881	33.241	1272.223	1086.256
-28.867	33.213	1269.797	1083.978
-27.852	33.114	1269.735	1083.316
-26.838	33.210	1267.295	1081.742
-25.823	33.308	1266.734	1081.778
-24.809	33.142	1265.033	1079.336
-23.794	33.205	1263.573	1078.410
-22.779	33.226	1262.482	1077.552
-21.765	33.317	1260.371	1076.226
-20.750	33.266	1260.297	1075.832
-19.736	33.135	1258.877	1073.832
-18.721	33.299	1257.229	1073.315
-17.706	33.162	1256.566	1071.929
-16.692	33.125	1255.367	1070.655
-15.677	33.117	1254.249	1069.613
-14.663	33.200	1252.273	1068.350
-13.648	33.052	1251.948	1067.199
-12.633	33.088	1250.391	1066.033
-11.619	32.761	1250.916	1064.590
-10.604	33.060	1248.078	1063.816
-9.590	32.833	1249.384	1063.610
-8.575	32.793	1247.802	1061.997
-7.560	33.025	1246.405	1062.065
-6.546	33.146	1245.087	1061.580
-5.531	33.116	1245.508	1061.733
-4.517	32.802	1244.293	1058.888
-3.502	32.942	1244.033	1059.409
-2.487	33.212	1241.045	1058.339
-1.473	33.030	1238.800	1055.366
-0.458	31.745	1222.723	1034.534
0.556	28.711	1206.149	994.433
1.571	24.921	1211.339	977.965
2.586	24.002	1226.385	984.942
3.600	23.211	1214.945	971.329
4.615	17.421	1142.936	883.698
5.629	7.709	1066.712	777.399
6.644	3.461	1047.219	742.697
7.659	3.132	1044.472	739.101
8.673	2.688	1042.653	735.622
9.688	2.682	1042.539	735.447
10.702	3.189	1040.826	736.602
11.717	9.340	1049.307	772.143
12.731	18.947	1063.243	828.858
13.746	24.080	1069.038	858.113
14.761	24.941	1069.770	862.774
15.775	24.899	1069.437	862.227
16.790	25.042	1067.037	860.902
17.804	24.728	1068.285	860.324
18.819	24.860	1067.724	860.429
19.834	25.124	1066.851	860.919
20.848	24.864	1067.305	859.962
21.863	25.049	1066.582	860.190
22.877	25.063	1065.796	859.545
23.892	24.787	1065.493	857.903
24.907	24.848	1064.439	857.272
25.921	24.821	1062.650	855.624
26.936	25.020	1061.246	855.367
27.950	25.074	1059.858	854.431
28.965	24.680	1059.434	852.136
29.980	24.781	1056.628	850.283
30.994	25.065	1055.502	850.651
32.009	24.934	1056.285	850.586
33.023	25.014	1054.472	849.430
34.038	25.306	1053.116	849.646
35.053	25.058	1052.353	847.780
36.067	24.850	1052.031	846.462
37.082	24.885	1051.423	846.063
38.096	25.249	1050.241	846.755
39.111	24.947	1050.483	845.451
40.126	24.855	1049.343	844.021
41.140	24.666	1047.012	841.184
42.155	24.609	1045.877	839.931
43.169	24.466	1045.817	839.136
44.184	24.735	1044.555	839.313
45.199	24.362	1044.532	837.467
46.213	24.600	1042.349	836.759
47.228	24.634	1042.861	837.252
48.242	24.976	1041.510	837.694
49.257	25.133	1040.386	837.450
50.271	25.343	1039.549	837.682
51.286	25.313	1038.215	836.393
52.301	25.337	1038.207	836.427
53.315	24.927	1037.383	833.781
54.330	25.105	1036.296	833.660
55.344	24.896	1036.202	832.537
56.359	24.892	1035.569	831.939
57.374	24.952	1033.454	830.444
58.388	25.210	1032.411	830.725
59.403	24.961	1031.913	829.100
60.417	24.554	1031.734	826.997
61.432	25.134	1030.713	828.787
62.447	24.588	1031.908	827.148
63.461	25.059	1028.540	826.548
64.476	24.729	1029.082	825.386
65.490	24.874	1027.273	824.534
66.505	24.984	1026.930	824.690
67.520	25.019	1026.040	824.064
68.534	24.543	1025.408	821.297
69.549	24.159	1026.064	819.980
70.563	24.442	1023.295	818.995
71.578	24.549	1022.162	818.503
72.593	24.055	1022.669	816.572
73.607	24.413	1021.702	817.370
74.622	24.633	1021.041	817.774
75.636	25.090	1019.139	818.267
76.651	24.742	1019.246	816.691
77.666	24.535	1019.056	815.520
78.680	24.536	1018.222	814.784
79.695	24.648	1018.317	815.301
80.709	24.509	1017.387	813.852
81.724	24.581	1016.492	813.392
82.739	24.790	1015.471	813.452
83.753	25.095	1015.685	814.940
84.768	25.441	1013.832	814.949
85.782	25.421	1013.752	814.724
86.797	25.239	1013.120	813.317
87.812	25.411	1012.013	813.135
88.826	25.184	1011.279	811.446
89.841	25.506	1010.070	811.859
90.855	25.237	1009.407	810.038
91.870	25.510	1008.403	810.394
92.884	25.264	1007.894	808.806
93.899	25.281	1006.574	807.750
94.914	25.499	1005.220	807.570
95.928	25.463	1005.842	807.836
96.943	25.066	1004.248	804.706
97.957	24.915	1002.569	802.610
98.972	24.936	1002.805	802.823
99.987	25.477	1000.873	803.627
101.001	25.282	1000.407	802.309
102.016	25.422	999.243	801.927
103.030	25.197	999.325	800.919
104.045	25.301	997.227	799.629
105.060	24.992	997.008	798.006
106.074	25.132	996.605	798.239
107.089	25.305	995.111	797.737
108.103	25.032	994.524	795.987
109.118	25.101	992.822	794.857
110.133	24.914	992.780	793.925
111.147	24.853	991.369	792.457
112.162	24.878	990.814	792.055
113.176	24.993	990.967	792.613
114.191	24.827	989.428	790.578
115.206	24.680	988.503	789.124
116.220	24.763	988.124	789.118
117.235	24.678	986.554	787.418
118.249	24.853	985.555	787.320
119.264	24.666	984.787	785.817
120.279	24.659	984.744	785.683
121.293	24.883	983.411	785.531
122.308	24.263	983.475	782.790
123.322	24.637	982.210	783.355
124.337	24.451	981.213	781.678
125.352	24.243	979.020	778.952
126.366	24.231	978.408	778.342
127.381	24.660	978.890	780.533
128.395	24.898	978.439	781.141
129.410	25.255	976.905	781.403
130.424	24.864	977.430	780.051
131.439	25.177	975.671	779.938
132.454	25.033	974.649	778.428
133.468	25.331	973.627	778.834
134.483	25.571	972.915	779.235
135.497	25.352	972.530	777.911
136.512	25.225	972.079	776.931
137.527	25.375	970.051	775.887
138.541	25.690	968.696	776.095
139.556	25.512	969.102	775.584
140.570	25.434	968.478	774.681
141.585	25.583	967.047	774.107
142.600	25.579	966.365	773.477
143.614	25.573	966.059	773.135
144.629	25.867	964.960	773.452
145.643	25.342	964.030	770.387
146.658	25.584	962.171	769.868
147.673	25.445	961.596	768.744
148.687	25.419	960.277	767.512
149.702	25.401	959.951	767.106
150.716	25.527	958.865	766.707
151.731	25.615	958.161	766.453
152.746	25.399	958.223	765.513
153.760	25.461	957.910	765.461
154.775	25.750	956.864	765.784
155.789	25.540	956.847	764.809
156.804	25.390	955.358	762.917
157.819	25.598	954.514	763.059
158.833	25.833	952.920	762.712
159.848	25.816	952.630	762.338
160.862	25.338	951.051	758.986
161.877	25.618	950.382	759.570
162.892	25.527	950.228	758.995
163.906	25.760	947.394	757.647
164.921	25.579	947.298	756.742
165.935	25.732	946.269	756.492
166.950	25.938	946.379	757.380
167.964	25.521	945.323	754.719
168.979	25.532	944.053	753.682
169.994	25.340	943.372	752.269
171.008	25.718	942.401	753.009
172.023	25.520	941.990	751.785
173.037	25.901	940.919	752.455
174.052	25.320	939.972	749.207
175.067	25.523	939.181	749.360
176.081	25.442	939.382	749.112
177.096	25.245	938.301	747.363
178.110	25.235	936.358	745.712
179.125	24.726	937.626	744.534
180.140	25.151	936.166	745.076
181.154	24.955	936.970	744.834
182.169	25.683	935.384	746.531
183.183	25.810	935.018	746.697
184.198	25.131	934.866	743.696
185.213	25.479	933.292	743.820
186.227	25.724	933.172	744.670
187.242	25.404	932.119	742.442
188.256	25.603	932.358	743.390
189.271	25.322	931.835	741.747
190.286	25.423	929.998	740.635
191.300	25.016	929.521	738.510
192.315	24.424	928.081	734.866
193.329	24.259	928.088	734.126
194.344	24.910	927.766	736.487
195.359	25.569	926.989	738.511
196.373	25.931	925.637	738.851
197.388	25.844	925.826	738.581
198.402	25.696	926.467	738.419
199.417	26.186	924.407	738.717
200.432	25.672	924.117	736.318
201.446	25.421	924.095	735.208
202.461	25.739	923.248	735.770
203.475	25.053	921.284	731.341
204.490	24.160	921.449	727.762
205.504	24.938	920.265	729.932
206.519	25.391	920.462	731.873
207.534	25.619	919.505	731.975
208.548	25.665	919.776	732.314
209.563	25.669	918.109	730.936
210.577	25.550	917.214	729.677
211.592	25.839	917.961	731.379
212.607	25.972	916.780	730.911
213.621	25.880	915.916	729.785
214.636	25.883	915.528	729.424
215.650	25.871	914.791	728.723
216.665	25.782	914.328	727.933
217.680	26.105	913.126	728.212
218.694	25.411	913.031	725.273
219.709	25.666	911.538	725.050
220.723	25.675	910.893	724.507
221.738	25.710	910.210	724.043
222.753	25.678	909.657	723.409
223.767	25.800	909.736	723.900
224.782	26.112	908.911	724.433
225.796	26.105	908.012	723.621
226.811	25.365	907.445	720.143
227.826	25.049	906.676	718.199
228.840	25.364	905.340	718.338
229.855	25.215	904.640	717.124
230.869	24.904	904.295	715.546
231.884	25.045	904.549	716.247
232.899	25.546	903.726	717.530
233.913	25.673	902.987	717.385
234.928	25.255	902.737	715.460
235.942	25.616	901.721	716.028
236.957	25.333	900.188	713.621
237.972	24.944	901.111	712.743
238.986	25.235	900.945	713.707
240.001	25.383	899.179	712.833
241.015	25.234	899.382	712.339
242.030	25.481	898.572	712.613
243.045	25.596	898.163	712.682
244.059	25.653	897.554	712.359
245.074	25.669	895.721	710.906
246.088	25.589	896.248	710.946
247.103	25.676	895.513	710.642
248.117	26.124	895.500	712.339
249.132	26.509	894.336	712.867
250.147	26.264	895.348	712.643
251.161	26.669	894.068	713.157
252.176	26.660	893.723	712.781
253.190	26.747	893.269	712.701
254.205	26.707	893.022	712.281
255.220	26.429	891.853	710.197
256.234	25.942	892.442	708.688
257.249	26.294	890.656	708.588
258.263	25.962	889.852	706.583
259.278	26.682	888.741	708.455
260.293	26.261	889.215	707.122
261.307	26.593	888.607	707.876
262.322	26.450	887.291	706.207
263.336	25.783	886.559	702.957
264.351	24.940	885.230	698.554
265.366	25.392	884.906	699.998
266.380	25.920	883.667	701.011
267.395	26.258	884.053	702.570
268.409	26.180	883.568	701.820
269.424	26.457	882.198	701.745
270.439	26.462	881.434	701.093
271.453	26.180	881.724	700.171
272.468	26.524	880.834	700.733
273.482	26.885	879.706	701.170
274.497	26.198	879.653	698.408
275.512	25.545	879.136	695.411
276.526	26.047	878.334	696.655
277.541	26.634	876.965	697.769
278.555	26.166	877.312	696.182
279.570	26.208	877.014	696.046
280.585	26.400	875.705	695.683
281.599	26.493	874.964	695.390
282.614	25.662	874.181	691.516
283.628	25.878	874.163	692.270
284.643	25.881	873.566	691.747
285.657	25.855	872.980	691.120
286.672	25.400	872.144	688.652
287.687	26.042	871.010	690.156
288.701	25.879	871.193	689.615
289.716	26.093	870.586	689.893
290.730	25.811	870.293	688.520
291.745	25.941	868.427	687.481
292.760	26.156	868.269	688.114
293.774	26.684	867.604	689.537
294.789	26.852	868.493	690.821
295.803	26.193	868.143	687.971
296.818	26.179	867.640	687.458
297.833	26.349	865.920	686.681
298.847	26.475	864.427	685.912
299.862	26.321	865.613	686.208
300.876	26.676	864.100	686.295
301.891	26.449	864.392	685.605
302.906	26.141	863.872	683.966
303.920	26.515	861.862	683.728
304.935	26.784	862.362	685.079
305.949	27.020	860.995	684.826
306.964	26.813	859.571	682.852
307.979	26.591	860.106	682.380
308.993	26.646	859.526	682.066
310.008	26.537	859.803	681.813
311.022	26.503	858.807	680.836
312.037	26.448	859.271	680.937
313.052	26.169	857.726	678.603
314.066	25.731	856.254	675.736
315.081	25.713	855.782	675.236
316.095	26.286	855.001	676.707
317.110	26.468	854.818	677.183
318.125	25.535	854.530	673.404
319.139	25.335	853.125	671.488
320.154	25.033	852.695	669.961
321.168	25.769	852.849	672.771
322.183	26.051	853.156	674.010
323.197	26.221	852.616	674.159
324.212	26.129	852.326	673.527
325.227	26.066	850.880	672.087
326.241	26.271	849.906	672.022
327.256	26.111	849.872	671.342
328.270	25.723	849.867	669.836
329.285	25.841	848.000	668.740
330.300	26.036	847.350	668.892
331.314	25.488	847.991	667.306
332.329	26.251	848.141	670.197
333.343	26.716	846.868	670.855
334.358	26.814	845.367	669.968
335.373	26.650	845.708	669.571
336.387	26.894	846.052	670.687
337.402	26.680	845.970	669.773
338.416	26.703	845.958	669.787
339.431	27.032	845.423	670.522
340.446	26.912	844.453	669.249
341.460	27.252	843.699	669.844
342.475	26.983	844.202	669.194
343.489	27.057	843.532	668.877
344.504	26.841	842.825	667.460
345.519	27.468	842.596	669.528
346.533	26.855	842.316	666.993
347.548	27.194	840.335	666.608
348.562	26.815	841.547	666.116
349.577	27.169	840.453	666.491
350.592	27.143	837.930	664.336
351.606	26.657	838.625	663.050
352.621	26.413	838.423	661.938
353.635	26.509	838.175	662.036
354.650	26.179	836.384	659.358
355.665	25.829	836.056	657.763
356.679	26.177	835.802	658.776
357.694	26.257	834.846	658.255
358.708	26.284	834.283	657.850
359.723	26.368	833.596	657.556
360.738	26.544	832.699	657.430
361.752	26.661	831.946	657.202
362.767	26.901	831.901	657.977
363.781	27.053	831.915	658.482
364.796	26.687	831.397	656.689
365.810	26.978	830.642	657.089
366.825	26.988	830.026	656.577
367.840	27.182	829.270	656.622
368.854	26.683	829.103	654.628
369.869	26.551	829.386	654.318
370.883	27.090	827.581	654.778
371.898	26.872	827.627	653.972
372.913	26.952	827.288	653.933
373.927	26.725	826.674	652.573
374.942	26.695	826.388	652.184
375.956	27.177	825.628	653.258
376.971	26.793	825.880	652.019
377.986	27.014	824.810	651.910
379.000	26.840	824.596	651.057
380.015	26.941	823.600	650.577
381.029	27.147	823.197	650.940
382.044	27.579	821.800	651.321
383.059	27.078	823.295	650.653
384.073	27.124	821.307	649.188
385.088	27.090	820.279	648.196
386.102	26.797	820.488	647.261
387.117	26.723	819.151	645.885
388.132	26.235	819.259	644.172
389.146	26.398	818.229	643.885
390.161	26.549	818.400	644.501
391.175	27.383	817.285	646.530
392.190	27.220	817.076	645.728
393.205	26.253	815.006	640.608
394.219	24.925	814.171	635.189
395.234	25.043	814.016	635.431
396.248	26.117	813.753	638.973
397.263	27.069	813.278	641.909
398.278	26.275	813.617	639.312
399.292	26.353	812.383	638.560
400.307	26.305	812.596	638.504
401.321	26.227	811.983	637.690
402.336	26.584	812.090	638.977
403.350	26.944	812.121	640.215
404.365	27.396	811.291	641.096
405.380	27.965	810.673	642.553
406.394	27.041	812.010	640.300
407.409	27.073	811.105	639.641
408.423	27.124	810.969	639.657
409.438	27.271	810.179	639.495
410.453	27.131	809.350	638.292
411.467	27.155	808.620	637.743
412.482	27.375	807.702	637.734
413.496	27.274	807.914	637.491
414.511	27.162	807.376	636.617
415.526	27.496	806.646	637.154
416.540	27.573	806.421	637.188
417.555	27.118	806.672	635.739
418.569	27.615	804.832	635.968
419.584	27.051	805.404	634.393
420.599	27.190	804.711	634.277
421.613	160.000	1371.555	1793.994
422.628	138.993	1454.202	1794.051
