DTS Sentinel unit serial number:	SN413079Multiplexer serial number:	ORYXHardware model number:	OX4-SRSoftware version number:	ORYX F/W v4.00 Oryx Data Collector v3.7.2.0data status	okinstallation	princeton_trtdifferential loss correction	single-endedforward channel	channel 1reverse channel	N/Adate	2019/09/14time	09:06:35forward acquisition time	60.00reverse acquisition time	0.00gamma	496.2192k internal	0.2325k external	0.2325temperature offset calibration	1.0070default loss term (dB/km)	0.3790temperature slope calibration	1.0000multiplexer offset coefficient	1.0000multiplexer slope coefficient	1.0000fibre end	0.00T internal ref (°C)	30.27T ext. ref 1 (°C)	3.76T ext. ref 2 (°C)	28.60length (m)	temperature (°C)	Stokes	anti-Stokes-747.200	-117.220	-0.173	0.032
-746.185	-200.000	0.021	0.529
-745.171	-200.000	0.021	0.324
-744.156	-63.213	0.127	-0.053
-743.142	-146.658	0.620	-0.054
-742.127	300.080	-0.104	0.194
-741.112	-2.231	-0.150	-0.106
-740.098	96.125	-0.131	0.151
-739.083	800.000	0.036	-0.123
-738.069	186.444	-0.183	0.274
-737.054	65.909	0.129	0.132
-736.039	-200.000	0.004	0.125
-735.025	800.000	-0.080	-0.258
-734.010	-114.144	-0.383	-0.075
-732.996	-167.806	0.256	0.010
-731.981	-200.000	-0.006	0.047
-730.966	-149.772	-0.397	0.031
-729.952	193.331	-0.155	0.237
-728.937	800.000	0.026	-0.077
-727.923	-67.829	-0.129	-0.051
-726.908	-7.295	-0.194	-0.132
-725.894	63.753	-0.134	-0.136
-724.879	429.283	0.021	0.047
-723.864	49.616	0.166	0.158
-722.850	41.557	-0.338	-0.309
-721.835	-46.919	-0.180	0.088
-720.821	-129.157	-0.132	-0.019
-719.806	-77.702	0.291	-0.101
-718.791	565.386	-0.094	0.229
-717.777	-101.684	0.461	0.113
-716.762	-27.108	-0.074	0.044
-715.748	-128.041	-0.295	0.043
-714.733	-174.150	-0.245	0.007
-713.718	-47.560	-0.232	-0.113
-712.704	400.540	0.049	-0.104
-711.689	-66.054	0.277	0.111
-710.675	-144.037	0.203	0.019
-709.660	200.082	-0.241	-0.373
-708.645	800.000	-0.104	-0.335
-707.631	42.687	-0.094	-0.086
-706.616	800.000	0.059	-0.245
-705.602	-200.000	0.068	0.405
-704.587	800.000	-0.081	0.254
-703.572	565.281	0.035	0.086
-702.558	-127.583	0.307	-0.045
-701.543	-200.000	-0.057	0.294
-700.529	-2.555	-0.167	0.118
-699.514	-190.608	0.227	0.002
-698.499	-200.000	0.019	-0.131
-697.485	-73.254	-0.348	-0.128
-696.470	130.642	-0.063	-0.081
-695.456	-152.468	-0.270	-0.020
-694.441	-112.658	-0.197	0.039
-693.426	800.000	0.090	-0.306
-692.412	515.254	-0.039	0.093
-691.397	-200.000	-0.017	0.109
-690.383	800.000	0.031	0.093
-689.368	800.000	0.042	0.146
-688.354	268.004	0.161	-0.283
-687.339	-91.588	0.131	0.038
-686.324	-34.242	-0.052	0.029
-685.310	800.000	-0.011	-0.047
-684.295	211.821	-0.117	0.186
-683.281	25.136	0.154	0.129
-682.266	753.547	-0.061	-0.166
-681.251	-200.000	0.023	0.369
-680.237	-72.510	-0.379	0.141
-679.222	-105.656	-0.297	0.068
-678.208	194.437	0.112	0.171
-677.193	-200.000	0.012	-0.119
-676.178	244.108	0.211	-0.356
-675.164	22.889	-0.146	0.121
-674.149	153.155	-0.184	-0.253
-673.135	800.000	-0.036	0.124
-672.120	-69.034	-0.310	0.120
-671.105	437.454	0.050	0.109
-670.091	-143.964	-0.249	-0.024
-669.076	554.701	0.032	-0.078
-668.062	423.573	-0.160	-0.346
-667.047	-200.000	0.051	0.296
-666.032	61.774	0.149	-0.149
-665.018	164.835	0.162	-0.229
-664.003	-83.964	0.304	-0.097
-662.989	-64.202	-0.188	0.077
-661.974	282.885	-0.113	0.205
-660.959	-169.323	-0.307	-0.011
-659.945	-69.121	0.131	0.051
-658.930	-87.840	-0.224	-0.068
-657.916	50.497	0.101	-0.096
-656.901	113.872	-0.187	-0.229
-655.886	212.803	-0.143	-0.227
-654.872	273.597	-0.174	-0.310
-653.857	-135.148	-0.152	-0.018
-652.843	-19.364	-0.164	-0.102
-651.828	-60.635	-0.015	-0.007
-650.814	164.649	0.118	0.167
-649.799	135.363	0.126	0.165
-648.784	-200.000	0.023	0.155
-647.770	548.359	0.030	0.073
-646.755	120.301	0.132	0.165
-645.741	-200.000	0.002	-0.173
-644.726	-115.388	-0.134	0.025
-643.711	-121.860	-0.177	0.029
-642.697	-200.000	0.027	-0.291
-641.682	-43.401	0.067	-0.034
-640.668	139.667	-0.161	-0.214
-639.653	-70.799	0.215	0.082
-638.638	-148.556	0.381	-0.031
-637.624	-65.139	-0.139	0.057
-636.609	-57.208	-0.172	0.076
-635.595	34.893	0.207	0.182
-634.580	-158.995	0.189	0.011
-633.565	-200.000	-0.017	-0.256
-632.551	-200.000	-0.014	-0.116
-631.536	-45.977	0.155	0.077
-630.522	-96.588	-0.138	0.037
-629.507	-120.336	-0.025	-0.004
-628.492	800.000	0.023	-0.083
-627.478	109.560	-0.188	0.226
-626.463	-95.172	-0.179	0.048
-625.449	-73.429	-0.030	-0.011
-624.434	102.887	0.105	-0.123
-623.419	73.004	-0.151	-0.159
-622.405	-189.310	0.370	-0.004
-621.390	130.216	0.182	0.234
-620.376	127.674	-0.047	-0.059
-619.361	104.281	0.293	-0.346
-618.346	436.322	-0.137	-0.300
-617.332	205.220	0.223	0.347
-616.317	800.000	0.087	0.292
-615.303	137.254	0.078	0.103
-614.288	569.772	-0.101	0.245
-613.273	-56.288	-0.152	0.068
-612.259	290.987	0.137	0.250
-611.244	287.186	-0.085	0.153
-610.230	109.409	0.064	0.077
-609.215	800.000	0.075	0.217
-608.201	147.842	-0.184	0.249
-607.186	-0.253	-0.193	-0.138
-606.171	179.087	-0.160	-0.235
-605.157	-156.232	-0.154	0.010
-604.142	-200.000	-0.022	-0.107
-603.128	-115.089	0.169	-0.032
-602.113	-27.146	-0.559	0.327
-601.098	-117.551	-0.134	-0.024
-600.084	-200.000	-0.000	-0.151
-599.069	-121.979	-0.175	0.029
-598.055	-50.419	0.237	0.112
-597.040	154.717	-0.092	0.127
-596.025	-12.644	-0.028	0.019
-595.011	-200.000	-0.034	0.289
-593.996	301.857	0.129	-0.239
-592.982	-200.000	-0.006	-0.241
-591.967	-120.097	-0.140	-0.024
-590.952	-5.581	0.255	-0.175
-589.938	55.920	-0.198	-0.193
-588.923	-15.706	0.243	-0.156
-587.909	800.000	0.064	0.229
-586.894	800.000	-0.089	-0.288
-585.879	-200.000	-0.007	0.156
-584.865	188.931	0.037	-0.056
-583.850	524.362	0.108	0.256
-582.836	114.836	0.242	-0.296
-581.821	556.082	0.031	-0.075
-580.806	22.473	-0.172	0.141
-579.792	-200.000	0.032	0.169
-578.777	-20.604	-0.469	-0.289
-577.763	-47.376	0.405	-0.198
-576.748	-31.844	0.326	0.183
-575.733	683.531	-0.048	-0.126
-574.719	-90.348	-0.290	-0.084
-573.704	63.781	-0.078	0.079
-572.690	-200.000	0.020	0.114
-571.675	-200.000	0.008	0.099
-570.661	-200.000	0.050	-0.339
-569.646	-145.492	-0.105	0.009
-568.631	-200.000	-0.007	0.229
-567.617	-119.847	-0.185	0.032
-566.602	192.699	-0.086	-0.131
-565.588	-68.523	-0.076	-0.029
-564.573	441.885	0.168	-0.369
-563.558	190.432	-0.255	0.383
-562.544	352.671	-0.217	-0.431
-561.529	-134.730	-0.322	-0.039
-560.515	-81.582	0.061	0.020
-559.500	579.743	0.069	-0.168
-558.485	-153.526	-0.143	0.010
-557.471	37.840	-0.106	0.094
-556.456	-200.000	0.010	0.047
-555.442	568.903	-0.089	-0.216
-554.427	-37.996	0.227	0.121
-553.412	-70.354	0.101	0.038
-552.398	84.387	0.188	-0.206
-551.383	-96.039	-0.403	0.107
-550.369	-113.482	-0.247	0.048
-549.354	2.428	0.168	-0.122
-548.339	-200.000	-0.095	0.000
-547.325	-74.384	0.068	-0.024
-546.310	239.448	-0.168	-0.280
-545.296	-113.444	0.085	-0.017
-544.281	-200.000	-0.011	-0.063
-543.266	-200.000	0.050	-0.227
-542.252	135.587	-0.202	-0.263
-541.237	800.000	-0.050	-0.156
-540.223	50.178	-0.189	0.178
-539.208	-33.126	0.327	-0.182
-538.193	132.328	-0.089	0.115
-537.179	-51.620	0.094	0.044
-536.164	-120.505	0.174	0.029
-535.150	209.264	-0.219	0.344
-534.135	146.610	-0.142	0.191
-533.121	108.739	0.025	0.030
-532.106	-200.000	-0.003	-0.146
-531.091	-119.037	0.025	-0.004
-530.077	388.882	-0.085	0.176
-529.062	112.730	-0.141	0.171
-528.048	16.007	-0.031	-0.025
-527.033	-127.337	0.129	-0.019
-526.018	286.429	-0.215	0.388
-525.004	800.000	0.105	-0.405
-523.989	-44.394	0.213	0.107
-522.975	-200.000	-0.103	0.591
-521.960	16.319	0.206	0.163
-520.945	163.915	0.205	-0.288
-519.931	-173.969	-0.356	0.010
-518.916	76.313	-0.215	0.227
-517.902	-200.000	-0.011	-0.121
-516.887	-200.000	-0.016	-0.133
-515.872	71.473	-0.114	0.118
-514.858	-161.041	0.387	0.020
-513.843	-160.591	-0.071	0.004
-512.829	-63.926	-0.190	-0.078
-511.814	0.391	-0.078	-0.056
-510.799	-136.704	-0.182	0.021
-509.785	411.868	0.143	0.303
-508.770	331.124	-0.196	0.377
-507.756	-69.038	-0.023	0.009
-506.741	231.244	0.038	-0.062
-505.726	-23.525	-0.375	-0.225
-504.712	-179.144	0.149	-0.003
-503.697	96.734	0.091	-0.104
-502.683	-125.077	-0.118	-0.018
-501.668	222.803	-0.090	-0.145
-500.653	-6.029	-0.110	0.075
-499.639	-200.000	0.023	-0.442
-498.624	-81.751	-0.109	-0.036
-497.610	-200.000	-0.019	0.150
-496.595	-200.000	0.003	-0.122
-495.581	800.000	0.105	0.294
-494.566	-86.642	0.232	-0.071
-493.551	30.998	0.190	-0.162
-492.537	-200.000	-0.016	0.094
-491.522	-149.903	-0.219	-0.017
-490.508	-200.000	-0.011	0.358
-489.493	-121.295	0.344	-0.057
-488.478	286.881	0.111	-0.200
-487.464	38.893	-0.205	-0.183
-486.449	586.351	-0.049	0.120
-485.435	25.468	-0.216	-0.180
-484.420	271.477	-0.074	0.130
-483.405	-200.000	-0.001	-0.204
-482.391	-37.719	0.257	-0.137
-481.376	165.697	0.080	0.113
-480.362	355.301	0.172	0.342
-479.347	-200.000	-0.086	0.418
-478.332	12.951	-0.161	-0.124
-477.318	-123.636	0.215	0.034
-476.303	67.227	0.274	0.279
-475.289	-45.234	0.088	-0.044
-474.274	362.250	0.153	0.307
-473.259	-74.546	-0.249	-0.090
-472.245	143.049	-0.035	0.046
-471.230	80.515	0.171	-0.184
-470.216	-115.962	-0.354	0.066
-469.201	800.000	-0.008	-0.029
-468.186	-140.560	-0.273	-0.028
-467.172	-15.568	-0.183	0.117
-466.157	-93.687	-0.057	-0.016
-465.143	-139.642	0.089	-0.009
-464.128	800.000	0.043	0.170
-463.113	-143.230	-0.258	0.025
-462.099	83.514	-0.274	0.298
-461.084	83.377	0.066	0.072
-460.070	-73.573	-0.123	0.045
-459.055	-96.454	-0.315	-0.083
-458.040	-79.722	0.135	0.045
-457.026	44.500	0.153	0.141
-456.011	-62.306	0.167	0.069
-454.997	-200.000	0.008	-0.139
-453.982	-125.623	-0.245	-0.037
-452.968	18.091	0.058	-0.046
-451.953	109.416	-0.184	0.220
-450.938	92.617	-0.232	0.262
-449.924	-158.441	0.322	-0.019
-448.909	-148.179	0.381	0.031
-447.895	-91.355	-0.034	0.010
-446.880	432.213	-0.088	0.190
-445.865	-200.000	-0.014	-0.121
-444.851	46.188	0.082	0.076
-443.836	197.987	0.176	-0.267
-442.822	87.321	-0.223	0.246
-441.807	-200.000	-0.002	0.073
-440.792	-73.257	-0.054	0.020
-439.778	-64.018	-0.158	-0.064
-438.763	-23.228	0.173	-0.104
-437.749	-135.083	-0.223	-0.027
-436.734	-143.168	-0.137	-0.013
-435.719	37.731	-0.198	0.176
-434.705	800.000	-0.075	-0.223
-433.690	-200.000	-0.004	-0.064
-432.676	-7.544	0.077	-0.052
-431.661	149.608	0.129	0.175
-430.646	43.066	-0.138	0.126
-429.632	323.769	-0.020	0.038
-428.617	272.282	-0.101	0.177
-427.603	-102.013	0.309	-0.074
-426.588	-200.000	-0.011	0.172
-425.573	119.422	-0.069	-0.085
-424.559	369.041	0.130	0.262
-423.544	-14.371	0.114	-0.073
-422.530	-95.992	0.106	0.028
-421.515	-152.099	0.237	0.017
-420.500	104.453	-0.162	-0.191
-419.486	-121.464	-0.229	-0.038
-418.471	104.698	-0.182	0.214
-417.457	-200.000	0.008	0.361
-416.442	-103.630	-0.051	-0.012
-415.428	-7.569	-0.138	-0.093
-414.413	200.612	0.104	-0.159
-413.398	-200.000	-0.033	-0.265
-412.384	-16.599	-0.286	0.180
-411.369	-25.239	0.063	-0.037
-410.355	-164.769	-0.158	0.007
-409.340	85.961	0.354	-0.388
-408.325	-132.200	-0.156	0.020
-407.311	-50.488	-0.229	-0.107
-406.296	-151.472	0.331	0.024
-405.282	-119.092	0.306	0.053
-404.267	-132.368	-0.107	0.014
-403.252	273.035	0.077	0.136
-402.238	-18.804	0.235	0.146
-401.223	-128.178	-0.065	-0.009
-400.209	441.791	0.115	-0.251
-399.194	12.469	0.154	0.118
-398.179	-132.248	0.142	0.018
-397.165	-66.412	0.033	-0.013
-396.150	155.838	-0.168	0.230
-395.136	-200.000	0.038	-0.187
-394.121	-87.909	-0.250	0.075
-393.106	-125.844	-0.381	-0.057
-392.092	137.080	0.110	-0.144
-391.077	-40.352	-0.343	-0.177
-390.063	-133.362	0.409	-0.051
-389.048	-200.000	-0.044	0.204
-388.033	-96.681	0.133	-0.035
-387.019	-100.116	0.373	0.092
-386.004	-146.245	0.071	0.006
-384.990	-8.706	0.129	-0.086
-383.975	-11.465	0.242	0.158
-382.960	16.363	-0.246	-0.193
-381.946	144.309	-0.155	-0.205
-380.931	-113.106	-0.459	0.090
-379.917	800.000	0.078	0.246
-378.902	800.000	-0.022	0.083
-377.888	800.000	0.050	-0.210
-376.873	-200.000	0.014	-0.175
-375.858	-115.280	0.215	0.040
-374.844	329.679	-0.077	-0.148
-373.829	165.306	-0.108	0.151
-372.815	-200.000	0.055	-0.322
-371.800	378.491	-0.056	-0.114
-370.785	-1.070	0.259	-0.182
-369.771	-200.000	-0.025	0.559
-368.756	164.518	0.190	0.266
-367.742	-200.000	0.015	0.071
-366.727	6.694	-0.068	-0.050
-365.712	245.230	-0.057	0.095
-364.698	-78.119	-0.203	0.070
-363.683	-36.778	0.056	0.030
-362.669	314.503	0.041	0.077
-361.654	800.000	-0.026	-0.091
-360.639	611.049	0.089	-0.221
-359.625	800.000	-0.063	0.219
-358.610	240.050	-0.079	-0.130
-357.596	-16.060	-0.170	-0.107
-356.581	295.231	0.093	-0.169
-355.566	-30.139	-0.073	0.041
-354.552	800.000	-0.073	-0.310
-353.537	42.826	0.300	-0.272
-352.523	800.000	0.140	0.458
-351.508	-186.603	-0.289	-0.004
-350.493	-200.000	-0.051	-0.344
-349.479	-200.000	-0.037	-0.207
-348.464	379.822	-0.119	0.243
-347.450	-30.955	-0.079	-0.044
-346.435	800.000	-0.035	-0.125
-345.420	155.490	0.155	-0.212
-344.406	800.000	0.009	-0.031
-343.391	-153.485	0.027	-0.002
-342.377	-200.000	0.013	-0.435
-341.362	658.355	-0.060	-0.153
-340.348	-200.000	0.006	-0.079
-339.333	5.281	-0.103	0.075
-338.318	-108.352	0.124	0.027
-337.304	-62.980	0.348	-0.143
-336.289	-51.556	-0.096	-0.044
-335.275	-133.943	0.103	-0.013
-334.260	67.763	-0.176	-0.178
-333.245	72.419	0.144	0.149
-332.231	56.461	0.037	0.035
-331.216	177.517	0.127	-0.183
-330.202	-16.570	0.121	-0.076
-329.187	57.862	0.276	0.268
-328.172	-200.000	0.012	-0.091
-327.158	-200.000	0.003	-0.103
-326.143	-200.000	-0.014	0.166
-325.129	84.834	-0.155	-0.169
-324.114	14.701	-0.058	0.045
-323.099	-42.088	0.125	-0.064
-322.085	198.802	-0.153	-0.233
-321.070	37.338	-0.283	-0.249
-320.056	220.447	0.240	-0.382
-319.041	800.000	-0.073	0.300
-318.026	-200.000	-0.066	-0.483
-317.012	-200.000	-0.042	-0.241
-315.997	-32.887	-0.405	0.223
-314.983	85.043	-0.256	-0.278
-313.968	-78.903	0.312	0.106
-312.953	-117.967	-0.184	-0.033
-311.939	485.571	0.065	0.146
-310.924	33.557	-0.122	-0.105
-309.910	231.435	-0.051	-0.083
-308.895	273.807	0.064	-0.112
-307.880	-36.166	-0.254	0.136
-306.866	-200.000	-0.040	-0.226
-305.851	81.187	-0.055	-0.059
-304.837	-157.954	0.291	0.017
-303.822	-121.755	0.319	0.052
-302.807	55.500	-0.095	0.091
-301.793	265.771	-0.017	0.030
-300.778	747.846	-0.034	0.092
-299.764	-113.180	0.165	-0.032
-298.749	553.339	0.051	0.121
-297.735	-127.104	0.464	0.067
-296.720	-200.000	-0.064	0.291
-295.705	139.878	-0.176	-0.229
-294.691	189.427	0.096	0.142
-293.676	-89.456	-0.088	0.026
-292.662	800.000	-0.023	0.074
-291.647	722.784	-0.133	0.351
-290.632	450.939	-0.106	0.231
-289.618	-126.898	0.326	0.048
-288.603	-111.534	-0.266	0.054
-287.589	-200.000	-0.029	-0.212
-286.574	22.628	0.204	0.165
-285.559	252.208	-0.214	0.361
-284.545	98.654	-0.017	0.019
-283.530	-75.964	0.018	-0.006
-282.516	-23.767	0.140	-0.083
-281.501	295.363	-0.058	0.104
-280.486	-176.712	0.338	0.009
-279.472	-37.751	-0.190	0.100
-278.457	-31.077	0.193	0.108
-277.443	-90.923	-0.315	-0.090
-276.428	-200.000	0.011	-0.120
-275.413	-200.000	0.078	0.000
-274.399	2.020	0.111	0.079
-273.384	-200.000	0.020	0.228
-272.370	-72.493	-0.126	-0.046
-271.355	-87.497	0.036	-0.011
-270.340	-139.130	-0.407	0.044
-269.326	76.282	0.159	-0.167
-268.311	-86.287	0.265	-0.081
-267.297	-44.202	0.275	-0.137
-266.282	115.920	0.121	-0.147
-265.267	43.366	0.085	-0.077
-264.253	37.177	0.052	0.046
-263.238	800.000	0.026	0.111
-262.224	-189.930	0.365	-0.004
-261.209	451.721	-0.099	0.218
-260.195	-200.000	-0.003	-0.131
-259.180	-129.521	0.383	0.052
-258.165	-69.352	0.208	-0.079
-257.151	-156.177	-0.132	0.008
-256.136	800.000	-0.078	0.337
-255.122	-17.409	-0.181	0.112
-254.107	71.826	0.111	0.114
-253.092	786.379	0.128	-0.348
-252.078	-141.186	-0.051	-0.005
-251.063	660.063	0.026	0.066
-250.049	-200.000	-0.006	-0.105
-249.034	304.354	-0.128	-0.235
-248.019	30.991	-0.145	0.123
-247.005	800.000	-0.105	-0.356
-245.990	23.036	-0.233	-0.189
-244.976	-98.642	-0.160	0.040
-243.961	-113.415	-0.308	-0.060
-242.946	-200.000	0.007	-0.379
-241.932	427.405	-0.063	-0.134
-240.917	176.361	0.148	-0.213
-239.903	800.000	-0.035	-0.138
-238.888	-200.000	-0.048	0.384
-237.873	-107.400	0.241	0.052
-236.859	41.187	-0.359	0.321
-235.844	51.544	0.030	0.028
-234.830	0.916	0.032	-0.023
-233.815	-200.000	-0.003	-0.409
-232.800	800.000	0.068	0.251
-231.786	94.299	0.096	0.108
-230.771	61.280	-0.268	-0.264
-229.757	531.847	0.016	-0.038
-228.742	-21.918	-0.219	0.132
-227.727	40.366	0.228	-0.203
-226.713	-92.121	-0.012	-0.003
-225.698	746.619	0.025	-0.067
-224.684	19.946	0.167	0.133
-223.669	-65.641	-0.108	-0.043
-222.655	125.771	-0.061	0.076
-221.640	85.287	-0.169	0.183
-220.625	36.780	0.150	0.131
-219.611	40.548	-0.024	-0.021
-218.596	-109.244	0.227	0.048
-217.582	356.268	-0.085	0.166
-216.567	-200.000	0.033	-0.143
-215.552	-200.000	0.284	-0.001
-214.538	522.630	-0.039	0.091
-213.523	175.688	0.090	0.130
-212.509	-155.333	0.195	-0.013
-211.494	99.931	0.098	-0.112
-210.479	39.106	-0.136	0.120
-209.465	-96.496	0.025	0.007
-208.450	-200.000	0.002	-0.015
-207.436	-200.000	-0.006	0.349
-206.421	-126.174	0.279	0.041
-205.406	-72.804	0.113	0.041
-204.392	252.846	-0.192	0.323
-203.377	105.537	-0.073	-0.085
-202.363	206.401	0.048	-0.074
-201.348	119.320	0.152	0.186
-200.333	-156.974	0.166	-0.010
-199.319	359.942	-0.093	0.183
-198.304	73.338	-0.110	0.113
-197.290	-133.708	0.233	-0.029
-196.275	-133.562	0.136	0.017
-195.260	-200.000	0.046	-0.203
-194.246	-138.075	0.103	-0.011
-193.231	-169.193	-0.319	0.012
-192.217	-16.569	0.202	0.127
-191.202	-174.647	0.198	-0.006
-190.187	192.156	0.078	-0.115
-189.173	293.827	-0.019	0.034
-188.158	263.950	-0.120	-0.207
-187.144	365.289	-0.089	-0.176
-186.129	-36.157	-0.090	-0.048
-185.114	800.000	0.135	-0.482
-184.100	-57.593	0.397	-0.172
-183.085	536.703	0.048	-0.113
-182.071	-28.787	0.366	-0.207
-181.056	263.822	0.093	-0.160
-180.042	-200.000	-0.034	-0.157
-179.027	164.967	0.168	0.233
-178.012	81.855	0.111	0.119
-176.998	-91.947	0.280	0.078
-175.983	8.575	-0.184	0.137
-174.969	-96.686	-0.257	-0.067
-173.954	417.544	0.111	-0.233
-172.939	-55.139	-0.056	0.025
-171.925	-134.232	0.239	-0.029
-170.910	-72.929	-0.048	0.017
-169.896	800.000	-0.121	0.479
-168.881	-189.310	0.185	-0.002
-167.866	114.590	-0.101	-0.122
-166.852	-200.000	-0.027	0.411
-165.837	-200.000	-0.013	0.155
-164.823	62.191	-0.173	0.171
-163.808	-10.814	0.185	0.121
-162.793	100.578	-0.142	-0.163
-161.779	-71.522	0.193	0.071
-160.764	-98.007	0.169	-0.043
-159.750	185.770	-0.180	-0.264
-158.735	-200.000	-0.018	-0.118
-157.720	-19.019	0.042	0.026
-156.706	800.000	0.044	0.134
-155.691	187.145	-0.071	-0.105
-154.677	-200.000	0.003	-0.111
-153.662	800.000	-0.072	-0.239
-152.647	-7.581	-0.167	0.111
-151.633	800.000	-0.008	0.030
-150.618	-43.039	-0.226	-0.113
-149.604	-200.000	-0.002	0.406
-148.589	-140.725	0.374	0.038
-147.574	-175.802	-0.099	0.003
-146.560	28.613	0.134	-0.111
-145.545	730.665	0.038	0.100
-144.531	-158.875	-0.065	-0.004
-143.516	-200.000	-0.003	0.300
-142.502	800.000	0.039	0.127
-141.487	318.193	0.143	-0.267
-140.472	-37.164	-0.111	0.059
-139.458	173.485	0.232	-0.329
-138.443	512.211	-0.074	-0.170
-137.429	-90.816	-0.045	-0.013
-136.414	410.824	0.210	0.439
-135.399	0.919	0.079	0.055
-134.385	-200.000	0.008	-0.193
-133.370	-109.229	-0.091	0.019
-132.356	-111.731	-0.129	-0.026
-131.341	800.000	-0.097	0.363
-130.326	-124.292	-0.170	-0.026
-129.312	-31.975	0.221	-0.122
-128.297	361.380	0.179	-0.354
-127.283	-98.853	-0.130	0.032
-126.268	-45.217	-0.147	-0.072
-125.253	-200.000	-0.030	-0.219
-124.239	-5.846	0.018	-0.012
-123.224	122.574	-0.013	0.016
-122.210	-200.000	0.030	-0.169
-121.195	-70.369	0.389	0.145
-120.180	-145.140	-0.165	-0.015
-119.166	-200.000	0.012	0.074
-118.151	243.853	-0.134	-0.222
-117.137	-56.202	0.083	-0.036
-116.122	-200.000	-0.015	0.168
-115.107	-200.000	0.043	0.256
-114.093	-138.475	-0.077	-0.008
-113.078	-8.626	-0.061	0.040
-112.064	-200.000	0.030	-0.179
-111.049	653.942	0.049	-0.123
-110.034	65.246	-0.172	0.171
-109.020	-200.000	-0.034	0.165
-108.005	11.605	-0.126	0.095
-106.991	800.000	-0.034	0.098
-105.976	352.762	-0.214	-0.417
-104.962	-98.554	0.111	0.028
-103.947	60.394	-0.146	0.142
-102.932	142.691	0.165	-0.216
-101.918	-30.417	0.122	0.068
-100.903	800.000	-0.122	-0.373
-99.889	-50.426	-0.283	-0.131
-98.874	555.946	-0.066	-0.157
-97.859	-28.278	0.347	0.197
-96.845	-15.492	-0.162	0.102
-95.830	112.311	0.172	-0.205
-94.816	-153.617	0.047	-0.003
-93.801	58.703	-0.122	-0.118
-92.786	9.930	0.117	-0.087
-91.772	-122.709	-0.307	0.049
-90.757	-96.634	-0.099	0.026
-89.743	-51.256	0.159	0.073
-88.728	189.839	0.173	-0.255
-87.713	-178.911	-0.236	-0.005
-86.699	-14.051	-0.101	-0.064
-85.684	469.643	-0.136	-0.301
-84.670	-69.904	0.223	-0.084
-83.655	-55.277	-0.228	0.101
-82.640	800.000	0.051	-0.171
-81.626	85.080	0.188	-0.202
-80.611	-49.628	0.275	-0.129
-79.597	-200.000	-0.042	0.262
-78.582	177.187	0.061	0.088
-77.567	800.000	-0.045	-0.125
-76.553	-23.031	0.171	0.101
-75.538	-146.872	0.352	0.030
-74.524	-179.867	0.130	-0.003
-73.509	-109.149	-0.146	-0.031
-72.494	800.000	0.007	-0.031
-71.480	-133.358	0.105	-0.013
-70.465	-21.173	-0.288	-0.173
-69.451	-55.685	-0.078	0.034
-68.436	800.000	0.029	0.088
-67.422	209.027	0.069	-0.106
-66.407	-200.000	-0.038	-0.261
-65.392	-200.000	0.005	-0.150
-64.378	-174.614	0.284	-0.008
-63.363	-200.000	0.032	-0.335
-62.349	357.731	0.140	0.275
-61.334	50.634	-0.921	-0.857
-60.319	172.511	0.398	0.562
-59.305	-200.000	0.058	-0.820
-58.290	232.541	0.667	1.075
-57.276	371.132	0.721	1.437
-56.261	-200.000	99.560	581.727
-55.246	547.260	1430.717	3362.452
-54.232	184.731	2638.387	3841.016
-53.217	116.309	2172.698	2614.584
-52.203	42.613	1610.868	1439.789
-51.188	33.855	1341.400	1146.333
-50.173	30.574	1298.944	1090.798
-49.159	53.898	1348.859	1272.640
-48.144	55.084	1365.527	1295.397
-47.130	33.943	1323.037	1130.985
-46.115	30.392	1304.969	1094.610
-45.100	30.265	1299.608	1089.321
-44.086	30.172	1297.799	1087.216
-43.071	30.107	1295.504	1084.869
-42.057	30.097	1293.087	1082.746
-41.042	30.176	1291.619	1081.936
-40.027	30.234	1290.273	1081.100
-39.013	30.176	1288.667	1079.378
-37.998	30.209	1286.690	1077.867
-36.984	30.171	1285.121	1076.294
-35.969	30.288	1283.094	1075.229
-34.954	30.302	1281.273	1073.740
-33.940	30.315	1280.149	1072.834
-32.925	30.259	1279.402	1071.842
-31.911	30.471	1277.110	1071.103
-30.896	30.439	1276.061	1069.992
-29.881	30.418	1274.832	1068.799
-28.867	30.426	1273.376	1067.583
-27.852	30.428	1271.900	1066.315
-26.838	30.361	1270.370	1064.605
-25.823	30.436	1268.937	1063.793
-24.809	30.372	1267.949	1062.557
-23.794	30.459	1266.440	1061.744
-22.779	30.361	1265.144	1060.059
-21.765	30.366	1264.002	1059.084
-20.750	30.266	1263.111	1057.727
-19.736	30.185	1261.734	1056.074
-18.721	30.222	1260.295	1055.038
-17.706	30.271	1259.009	1054.196
-16.692	30.102	1258.393	1052.677
-15.677	30.224	1256.947	1052.119
-14.663	30.239	1255.821	1051.217
-13.648	30.097	1255.377	1050.004
-12.633	30.175	1253.856	1049.127
-11.619	30.117	1253.226	1048.234
-10.604	30.233	1252.190	1047.982
-9.590	30.191	1250.957	1046.670
-8.575	30.149	1250.255	1045.806
-7.560	30.224	1249.108	1045.223
-6.546	30.192	1248.282	1044.313
-5.531	30.115	1247.905	1043.525
-4.517	30.158	1246.849	1042.837
-3.502	30.266	1245.891	1042.605
-2.487	30.232	1244.821	1041.479
-1.473	30.253	1241.319	1038.623
-0.458	29.447	1227.039	1022.170
0.556	27.211	1210.597	990.788
1.571	23.949	1216.770	977.849
2.586	22.984	1231.519	984.243
3.600	21.863	1219.114	968.062
4.615	16.176	1146.146	880.443
5.629	7.737	1072.215	782.213
6.644	3.975	1053.270	750.120
7.659	3.609	1050.927	746.613
8.673	3.750	1049.678	746.341
9.688	3.697	1048.681	745.311
10.702	3.925	1046.803	745.007
11.717	8.875	1053.243	773.458
12.731	16.838	1064.800	820.584
13.746	20.029	1067.606	838.137
14.761	19.519	1066.741	834.917
15.775	18.627	1064.920	829.109
16.790	17.666	1062.949	822.866
17.804	16.950	1061.227	818.007
18.819	16.579	1060.777	815.799
19.834	16.310	1059.846	813.716
20.848	16.112	1058.952	812.003
21.863	16.065	1057.689	810.737
22.877	15.945	1056.960	809.527
23.892	15.889	1056.382	808.747
24.907	15.848	1055.911	808.115
25.921	15.849	1054.584	807.036
26.936	15.887	1053.371	806.219
27.950	15.902	1052.272	805.374
28.965	15.968	1050.999	804.645
29.980	16.120	1048.886	803.680
30.994	16.212	1047.669	803.114
32.009	16.254	1046.916	802.667
33.023	16.125	1046.317	801.522
34.038	16.037	1045.135	800.131
35.053	15.964	1044.585	799.290
36.067	16.067	1043.020	798.511
37.082	16.050	1042.284	797.798
38.096	16.022	1041.864	797.272
39.111	16.109	1041.302	797.184
40.126	15.990	1039.998	795.553
41.140	15.750	1038.476	793.184
42.155	15.702	1037.281	791.979
43.169	15.713	1036.183	791.119
44.184	15.645	1035.448	790.171
45.199	15.724	1034.597	789.821
46.213	15.844	1033.389	789.391
47.228	15.970	1032.710	789.396
48.242	15.967	1031.633	788.484
49.257	15.916	1030.418	787.250
50.271	16.070	1029.542	787.231
51.286	15.939	1029.105	786.215
52.301	15.955	1028.019	785.389
53.315	15.931	1026.744	784.234
54.330	15.811	1025.825	782.908
55.344	15.825	1025.104	782.350
56.359	15.869	1024.296	781.870
57.374	15.717	1023.423	780.429
58.388	15.756	1022.233	779.631
59.403	15.766	1021.627	779.149
60.417	15.701	1021.025	778.318
61.432	15.751	1020.105	777.779
62.447	15.704	1019.265	776.855
63.461	15.589	1018.528	775.692
64.476	15.555	1017.738	774.865
65.490	15.596	1016.759	774.242
66.505	15.682	1016.214	774.151
67.520	15.749	1014.763	773.289
68.534	15.676	1014.184	772.440
69.549	15.632	1013.641	771.759
70.563	15.547	1012.953	770.775
71.578	15.451	1012.482	769.909
72.593	15.436	1011.252	768.837
73.607	15.402	1010.880	768.332
74.622	15.569	1009.715	768.141
75.636	15.545	1009.450	767.763
76.651	15.568	1008.619	767.166
77.666	15.562	1008.155	766.719
78.680	15.446	1007.836	765.881
79.695	15.553	1006.872	765.564
80.709	15.758	1005.925	765.711
81.724	15.833	1005.277	765.490
82.739	15.846	1004.893	765.190
83.753	16.070	1003.804	765.311
84.768	16.024	1003.401	764.727
85.782	16.273	1001.876	764.627
86.797	16.057	1001.573	763.350
87.812	15.919	1000.994	762.213
88.826	16.138	999.492	761.994
89.841	16.121	998.507	761.097
90.855	16.150	997.981	760.759
91.870	16.144	997.471	760.275
92.884	16.103	996.595	759.357
93.899	16.193	995.392	758.777
94.914	16.190	995.003	758.402
95.928	16.153	994.558	757.831
96.943	16.077	993.372	756.519
97.957	16.052	992.555	755.715
98.972	16.165	991.231	755.148
99.987	16.142	990.381	754.327
101.001	15.938	990.019	753.074
102.016	16.125	988.982	753.057
103.030	16.206	987.978	752.583
104.045	16.140	987.333	751.733
105.060	16.050	986.283	750.468
106.074	15.969	985.445	749.402
107.089	15.762	984.239	747.498
108.103	15.693	983.306	746.418
109.118	15.671	982.693	745.789
110.133	15.612	981.867	744.836
111.147	15.795	980.408	744.472
112.162	15.752	979.865	743.801
113.176	15.803	979.607	743.769
114.191	15.863	978.512	743.135
115.206	15.876	977.679	742.492
116.220	15.949	976.561	741.900
117.235	15.971	975.863	741.404
118.249	15.855	975.180	740.309
119.264	15.790	974.300	739.290
120.279	15.762	973.658	738.613
121.293	15.639	972.838	737.383
122.308	15.709	971.846	736.876
123.322	15.649	970.973	735.887
124.337	15.634	969.968	734.995
125.352	15.695	968.908	734.390
126.366	15.723	968.046	733.795
127.381	15.738	966.925	732.948
128.395	15.538	966.426	731.630
129.410	15.650	965.600	731.429
130.424	15.848	964.129	731.110
131.439	15.859	963.849	730.882
132.454	15.838	963.269	730.284
133.468	15.988	962.298	730.136
134.483	15.879	961.415	728.929
135.497	15.974	960.607	728.660
136.512	15.985	959.871	728.085
137.527	15.910	958.950	727.002
138.541	15.905	958.439	726.527
139.556	15.908	957.480	725.749
140.570	16.073	956.812	725.887
141.585	16.172	956.018	725.647
142.600	16.296	954.695	725.113
143.614	16.164	954.312	724.190
144.629	16.311	953.416	724.078
145.643	16.137	952.719	722.739
146.658	16.093	951.755	721.754
147.673	16.032	950.342	720.359
148.687	15.955	949.619	719.416
149.702	15.950	948.935	718.814
150.716	15.817	948.392	717.770
151.731	15.976	947.472	717.690
152.746	15.976	946.759	717.084
153.760	16.207	945.784	717.264
154.775	16.033	945.658	716.366
155.789	16.080	945.334	716.257
156.804	16.122	944.596	715.813
157.819	16.187	943.933	715.525
158.833	16.269	943.425	715.425
159.848	16.274	942.673	714.810
160.862	16.446	940.860	714.101
161.877	16.200	939.989	712.338
162.892	15.926	939.407	710.678
163.906	15.939	938.067	709.653
164.921	15.967	937.522	709.296
165.935	16.061	936.654	708.972
166.950	16.047	936.174	708.489
167.964	16.071	935.090	707.706
168.979	16.022	934.079	706.674
169.994	15.980	933.369	705.899
171.008	16.152	932.529	705.921
172.023	16.274	931.927	705.912
173.037	16.344	931.318	705.680
174.052	16.359	930.406	704.989
175.067	16.040	930.016	703.303
176.081	16.190	929.152	703.209
177.096	16.079	928.567	702.243
178.110	16.112	928.229	702.063
179.125	16.145	927.679	701.724
180.140	16.199	927.269	701.576
181.154	16.361	926.564	701.650
182.169	16.371	926.299	701.431
183.183	16.386	925.443	700.782
184.198	16.365	924.730	700.092
185.213	16.339	924.178	699.508
186.227	16.487	923.284	699.382
187.242	16.404	922.919	698.697
188.256	16.531	922.051	698.505
189.271	16.554	921.074	697.795
190.286	16.363	920.409	696.446
191.300	16.031	919.434	694.278
192.315	15.971	918.765	693.464
193.329	16.057	918.541	693.587
194.344	16.211	917.874	693.657
195.359	16.241	917.205	693.210
196.373	16.381	916.785	693.407
197.388	16.428	916.838	693.578
198.402	16.745	915.959	694.152
199.417	16.645	915.684	693.472
200.432	16.758	914.381	692.887
201.446	16.779	914.460	692.970
202.461	16.777	913.969	692.529
203.475	16.773	913.446	692.057
204.490	16.647	912.560	690.808
205.504	16.542	911.413	689.450
206.519	16.551	910.739	688.918
207.534	16.606	910.126	688.618
208.548	16.633	909.465	688.166
209.563	16.631	909.463	688.093
210.577	16.594	908.769	687.358
211.592	16.737	907.998	687.297
212.607	16.785	907.039	686.704
213.621	16.805	906.217	686.100
214.636	16.837	905.520	685.640
215.650	17.026	904.534	685.599
216.665	16.871	904.274	684.714
217.680	16.932	903.467	684.290
218.694	17.035	902.729	684.086
219.709	16.905	902.246	683.132
220.723	16.871	902.047	682.788
221.738	16.859	901.358	682.154
222.753	16.916	900.247	681.483
223.767	16.846	900.235	681.132
224.782	17.078	899.643	681.557
225.796	17.200	898.959	681.466
226.811	17.028	898.164	680.117
227.826	16.946	897.478	679.208
228.840	16.928	896.556	678.379
229.855	16.883	895.708	677.496
230.869	16.813	895.398	676.922
231.884	16.993	894.099	676.600
232.899	16.953	893.348	675.809
233.913	16.823	892.883	674.883
234.928	16.802	892.300	674.298
235.942	16.758	891.990	673.829
236.957	16.748	891.327	673.228
237.972	16.906	890.615	673.259
238.986	16.702	890.222	672.091
240.001	16.865	889.462	672.103
241.015	16.907	888.883	671.775
242.030	16.841	888.561	671.208
243.045	17.133	887.367	671.403
244.059	16.893	887.436	670.446
245.074	17.026	886.642	670.312
246.088	17.215	885.761	670.334
247.103	17.052	885.835	669.689
248.117	17.219	885.176	669.789
249.132	17.500	884.725	670.493
250.147	17.561	883.960	670.097
251.161	17.445	883.451	669.196
252.176	17.537	882.647	668.888
253.190	17.519	882.308	668.499
254.205	17.669	881.375	668.323
255.220	17.604	880.965	667.698
256.234	17.592	879.949	666.821
257.249	17.640	879.296	666.458
258.263	17.540	879.137	665.887
259.278	17.549	878.342	665.261
260.293	17.568	877.750	664.826
261.307	17.682	876.916	664.579
262.322	17.820	876.332	664.615
263.336	17.870	875.729	664.295
264.351	17.760	875.102	663.334
265.366	17.803	874.463	662.957
266.380	17.868	873.793	662.645
267.395	17.748	872.928	661.464
268.409	17.736	871.973	660.634
269.424	17.783	871.237	660.200
270.439	17.749	870.463	659.425
271.453	17.664	869.860	658.580
272.468	17.659	869.536	658.258
273.482	17.674	869.281	658.062
274.497	17.622	868.446	657.172
275.512	17.591	867.654	656.395
276.526	17.699	867.460	656.607
277.541	17.780	866.891	656.430
278.555	17.925	866.419	656.572
279.570	18.023	865.520	656.209
280.585	17.986	864.815	655.474
281.599	17.985	864.034	654.821
282.614	17.841	863.538	653.836
283.628	17.948	862.647	653.511
284.643	17.871	861.897	652.592
285.657	17.756	861.418	651.733
286.672	17.828	860.897	651.555
287.687	17.899	860.624	651.560
288.701	17.844	860.040	650.852
289.716	17.902	859.555	650.650
290.730	17.903	858.953	650.139
291.745	18.023	857.868	649.717
292.760	18.055	857.651	649.616
293.774	18.193	857.022	649.606
294.789	18.062	856.395	648.579
295.803	18.000	856.009	647.990
296.818	17.949	855.439	647.312
297.833	17.848	854.873	646.442
298.847	18.023	854.064	646.435
299.862	18.020	853.179	645.695
300.876	18.189	852.679	645.899
301.891	18.159	852.333	645.467
302.906	18.356	851.855	645.791
303.920	18.421	851.204	645.484
304.935	18.379	850.772	644.944
305.949	18.428	849.873	644.389
306.964	18.308	849.359	643.492
307.979	18.298	848.885	643.037
308.993	18.390	848.197	642.803
310.008	18.347	847.904	642.365
311.022	18.287	847.466	641.749
312.037	18.108	846.744	640.476
313.052	18.119	845.993	639.893
314.066	18.144	845.393	639.474
315.081	18.034	844.973	638.692
316.095	18.188	844.323	638.717
317.110	18.040	843.616	637.575
318.125	18.014	843.117	637.044
319.139	18.150	843.130	637.504
320.154	18.212	842.476	637.184
321.168	18.291	841.917	636.998
322.183	18.275	841.217	636.353
323.197	18.292	840.901	636.119
324.212	18.190	840.004	635.007
325.227	18.309	839.678	635.146
326.241	18.299	838.553	634.202
327.256	18.175	838.299	633.495
328.270	18.242	837.978	633.446
329.285	18.367	837.305	633.342
330.300	18.231	836.567	632.223
331.314	18.297	836.278	632.194
332.329	18.552	835.624	632.583
333.343	18.473	835.449	632.106
334.358	18.514	834.778	631.692
335.373	18.440	834.486	631.143
336.387	18.592	834.304	631.510
337.402	18.636	833.968	631.363
338.416	18.633	833.737	631.118
339.431	18.781	833.219	631.214
340.446	18.834	833.276	631.396
341.460	18.808	832.649	630.770
342.475	18.847	831.866	630.265
343.489	18.856	831.579	630.026
344.504	18.952	831.016	629.892
345.519	18.858	831.028	629.504
346.533	18.861	829.988	628.669
347.548	18.837	829.384	628.069
348.562	18.701	829.037	627.256
349.577	18.700	828.324	626.657
350.592	18.827	827.606	626.519
351.606	18.689	826.665	625.251
352.621	18.788	825.987	625.042
353.635	18.719	825.740	624.549
354.650	18.744	825.350	624.288
355.665	18.683	824.855	623.639
356.679	18.834	823.992	623.477
357.694	18.753	823.484	622.746
358.708	18.808	822.894	622.445
359.723	18.740	822.273	621.671
360.738	18.858	821.351	621.346
361.752	19.058	820.630	621.468
362.767	19.042	820.536	621.284
363.781	19.232	819.977	621.492
364.796	19.388	819.656	621.756
365.810	19.178	819.185	620.588
366.825	19.421	818.818	621.129
367.840	19.125	819.064	620.197
368.854	19.209	817.810	619.492
369.869	19.185	817.397	619.038
370.883	19.010	817.221	618.221
371.898	19.446	816.500	619.186
372.913	19.308	816.407	618.565
373.927	19.385	815.624	618.195
374.942	19.320	814.959	617.403
375.956	19.398	814.924	617.602
376.971	19.352	814.601	617.137
377.986	19.532	814.277	617.481
379.000	19.556	813.565	616.971
380.015	19.460	813.136	616.248
381.029	19.618	812.488	616.266
382.044	19.533	812.007	615.545
383.059	19.456	811.461	614.801
384.073	19.467	810.857	614.328
385.088	19.457	810.244	613.777
386.102	19.345	809.872	613.040
387.117	19.344	809.407	612.630
388.132	19.195	808.834	611.615
389.146	19.407	807.815	611.540
390.161	19.365	807.634	611.200
391.175	19.525	807.134	611.335
392.190	19.454	806.946	610.888
393.205	19.402	806.115	610.021
394.219	19.312	805.957	609.530
395.234	19.443	805.410	609.522
396.248	19.278	804.549	608.237
397.263	19.259	804.324	607.945
398.278	19.141	804.217	607.393
399.292	19.223	803.540	607.119
400.307	19.244	802.981	606.714
401.321	19.337	802.519	606.641
402.336	19.290	802.451	606.370
403.350	19.417	801.516	606.058
404.365	19.478	801.188	605.970
405.380	19.674	800.855	606.352
406.394	19.699	800.106	605.818
407.409	19.642	800.232	605.659
408.423	19.912	799.399	605.922
409.438	19.894	799.392	605.800
410.453	19.930	799.029	605.598
411.467	19.880	798.272	604.794
412.482	19.982	798.285	605.105
413.496	20.010	797.695	604.704
414.511	19.957	797.507	604.323
415.526	20.065	796.955	604.230
416.540	19.954	796.134	603.164
417.555	19.967	795.891	602.972
418.569	19.979	795.563	602.714
419.584	20.060	795.154	602.633
420.599	20.131	794.830	602.581
421.613	159.983	1370.347	1793.866
422.628	138.684	1454.220	1793.988
