DTS Sentinel unit serial number:	SN413079Multiplexer serial number:	ORYXHardware model number:	OX4-SRSoftware version number:	ORYX F/W v4.00 Oryx Data Collector v3.7.2.0data status	okinstallation	princeton_trtdifferential loss correction	single-endedforward channel	channel 1reverse channel	N/Adate	2019/09/11time	23:20:11forward acquisition time	60.00reverse acquisition time	0.00gamma	496.2192k internal	0.2318k external	0.2318temperature offset calibration	1.0061default loss term (dB/km)	0.3790temperature slope calibration	1.0000multiplexer offset coefficient	1.0000multiplexer slope coefficient	1.0000fibre end	0.00T internal ref (°C)	34.37T ext. ref 1 (°C)	1.86T ext. ref 2 (°C)	28.60length (m)	temperature (°C)	Stokes	anti-Stokes-747.200	-178.352	0.131	0.003
-746.185	65.194	-0.395	0.404
-745.171	-200.000	0.010	0.113
-744.156	-31.956	-0.304	0.172
-743.142	-61.791	0.095	0.040
-742.127	-43.965	0.220	0.112
-741.112	-20.195	0.185	-0.116
-740.098	-95.053	-0.228	0.062
-739.083	-144.661	-0.251	0.023
-738.069	-7.850	-0.168	0.115
-737.054	-35.616	0.175	0.096
-736.039	800.000	-0.038	-0.166
-735.025	-43.870	0.216	0.110
-734.010	-69.821	-0.201	-0.078
-732.996	-184.047	-0.298	0.005
-731.981	-102.695	-0.147	-0.035
-730.966	-95.590	0.310	-0.084
-729.952	-165.514	-0.154	0.007
-728.937	-147.359	-0.365	0.031
-727.923	-118.342	0.121	-0.022
-726.908	-55.838	0.070	0.032
-725.894	625.328	-0.039	0.099
-724.879	5.918	0.327	-0.245
-723.864	-94.298	0.258	-0.071
-722.850	124.251	-0.153	-0.195
-721.835	574.410	0.088	-0.217
-720.821	337.879	-0.092	0.181
-719.806	44.758	0.112	0.104
-718.791	121.088	0.126	0.158
-717.777	-200.000	-0.003	-0.271
-716.762	-106.291	0.313	-0.071
-715.748	-140.881	-0.346	-0.036
-714.733	63.797	-0.197	0.200
-713.718	385.550	0.157	-0.328
-712.704	-15.300	-0.206	-0.133
-711.689	-127.026	0.351	-0.052
-710.675	-60.945	0.055	0.023
-709.660	800.000	-0.077	-0.220
-708.645	-7.971	-0.091	-0.062
-707.631	-86.916	-0.147	0.045
-706.616	-74.252	-0.368	-0.134
-705.602	586.669	-0.045	0.113
-704.587	63.064	-0.082	0.083
-703.572	-200.000	-0.005	-0.046
-702.558	13.041	-0.237	0.185
-701.543	-140.407	0.236	0.025
-700.529	97.536	-0.174	-0.202
-699.514	61.179	0.123	-0.123
-698.499	-11.502	0.190	-0.126
-697.485	-110.828	-0.164	0.034
-696.470	-200.000	0.001	0.045
-695.456	-20.416	0.204	-0.127
-694.441	-200.000	-0.035	0.252
-693.426	41.517	-0.168	-0.154
-692.412	-111.675	-0.167	-0.034
-691.397	96.695	0.149	-0.172
-690.383	155.337	-0.078	-0.108
-689.368	-152.478	-0.382	-0.028
-688.354	532.796	0.096	-0.230
-687.339	136.888	-0.109	0.144
-686.324	-66.423	0.411	0.165
-685.310	112.209	0.104	-0.127
-684.295	-170.345	0.284	0.010
-683.281	-4.786	-0.319	-0.222
-682.266	-200.000	-0.021	-0.132
-681.251	-200.000	-0.032	-0.196
-680.237	43.443	-0.137	-0.126
-679.222	800.000	-0.076	0.288
-678.208	-110.460	0.198	0.042
-677.193	-200.000	0.031	-0.354
-676.178	-169.542	-0.182	-0.007
-675.164	-78.484	-0.217	-0.075
-674.149	800.000	-0.070	0.256
-673.135	770.613	0.082	0.224
-672.120	-200.000	-0.015	0.153
-671.105	-200.000	-0.005	0.340
-670.091	-61.757	-0.176	0.074
-669.076	-200.000	-0.028	-0.454
-668.062	-17.796	-0.165	-0.104
-667.047	-119.211	0.051	0.009
-666.032	151.280	0.262	-0.360
-665.018	161.207	0.227	-0.321
-664.003	-200.000	0.095	-0.571
-662.989	-200.000	0.058	0.267
-661.974	329.140	-0.158	0.305
-660.959	-7.032	0.330	-0.226
-659.945	-126.291	-0.194	0.029
-658.930	-49.511	0.049	-0.024
-657.916	12.948	0.228	-0.178
-656.901	-200.000	-0.063	-0.287
-655.886	25.273	0.356	-0.298
-654.872	330.911	-0.129	-0.251
-653.857	13.711	0.020	0.015
-652.843	120.926	-0.101	-0.127
-651.828	254.013	-0.121	-0.208
-650.814	-124.857	-0.209	0.032
-649.799	-29.747	0.186	-0.107
-648.784	-56.238	-0.140	0.063
-647.770	-55.193	-0.283	-0.128
-646.755	-130.603	-0.257	-0.035
-645.741	-48.539	-0.163	-0.079
-644.726	229.817	-0.082	-0.135
-643.711	-200.000	0.018	-0.130
-642.697	64.088	0.135	-0.137
-641.682	-200.000	-0.010	-0.139
-640.668	0.549	0.233	0.168
-639.653	-102.186	-0.334	0.081
-638.638	-200.000	0.048	-0.428
-637.624	-29.832	0.061	-0.035
-636.609	-100.188	-0.199	0.050
-635.595	102.534	-0.349	-0.411
-634.580	-28.205	-0.098	-0.057
-633.565	-200.000	-0.037	-0.264
-632.551	-62.906	-0.378	-0.157
-631.536	96.150	0.073	-0.084
-630.522	-200.000	-0.009	-0.052
-629.507	461.625	0.025	0.056
-628.492	32.909	-0.279	-0.243
-627.478	34.110	-0.268	-0.235
-626.463	-79.493	-0.095	0.032
-625.449	-151.853	-0.324	-0.024
-624.434	212.301	0.069	-0.110
-623.419	435.133	-0.100	-0.220
-622.405	800.000	0.058	-0.217
-621.390	-47.874	0.338	-0.165
-620.376	130.216	0.185	-0.239
-619.361	21.818	0.067	0.055
-618.346	-102.145	-0.387	-0.094
-617.332	552.322	-0.013	-0.032
-616.317	-200.000	-0.013	0.121
-615.303	392.279	-0.024	0.051
-614.288	-98.054	-0.157	0.041
-613.273	32.808	-0.265	0.231
-612.259	14.637	-0.114	-0.090
-611.244	-29.419	0.390	-0.224
-610.230	-200.000	-0.003	-0.101
-609.215	19.852	0.127	-0.103
-608.201	-9.727	-0.107	0.071
-607.186	-117.099	-0.030	0.005
-606.171	800.000	0.059	-0.191
-605.157	-103.323	0.276	0.066
-604.142	-96.766	0.126	-0.033
-603.128	151.906	0.152	0.209
-602.113	800.000	0.112	-0.323
-601.098	-200.000	-0.009	-0.278
-600.084	11.756	0.146	-0.113
-599.069	298.005	-0.032	-0.059
-598.055	617.794	-0.153	0.386
-597.040	-69.834	0.320	0.123
-596.025	-130.500	-0.219	0.030
-595.011	135.668	-0.084	0.110
-593.996	73.867	0.173	0.183
-592.982	249.398	-0.176	-0.300
-591.967	427.226	-0.021	-0.047
-590.952	225.189	-0.271	0.441
-589.938	800.000	0.044	0.150
-588.923	143.150	0.110	-0.148
-587.909	443.037	0.224	0.493
-586.894	-36.706	-0.307	-0.166
-585.879	-35.728	-0.246	0.134
-584.865	304.501	0.133	0.248
-583.850	-200.000	-0.120	-0.000
-582.836	-110.802	0.361	0.075
-581.821	-200.000	-0.047	-0.289
-580.806	757.634	-0.064	-0.173
-579.792	-143.969	-0.175	-0.017
-578.777	92.539	0.259	0.294
-577.763	-39.945	0.138	0.072
-576.748	-200.000	-0.012	0.303
-575.733	243.859	-0.093	0.157
-574.719	164.711	0.239	0.338
-573.704	-189.026	-0.385	-0.005
-572.690	494.380	-0.175	0.405
-571.675	104.580	0.159	-0.188
-570.661	-21.424	-0.157	0.096
-569.646	-19.657	-0.036	-0.022
-568.631	336.765	0.088	0.171
-567.617	37.933	0.266	0.237
-566.602	800.000	-0.085	0.287
-565.588	-81.795	-0.236	0.078
-564.573	263.812	0.190	-0.332
-563.558	-127.649	-0.175	-0.025
-562.544	-7.645	0.100	0.068
-561.529	-21.607	0.237	-0.145
-560.515	347.004	-0.077	-0.153
-559.500	-139.412	0.202	0.022
-558.485	800.000	0.140	-0.421
-557.471	419.008	-0.097	-0.209
-556.456	-22.593	-0.253	-0.154
-555.442	-183.543	0.303	-0.005
-554.427	-8.472	0.144	0.097
-553.412	-120.161	0.304	-0.052
-552.398	189.423	0.251	-0.378
-551.383	800.000	0.023	0.069
-550.369	194.424	-0.049	0.074
-549.354	-79.942	0.116	-0.039
-548.339	286.516	0.207	-0.374
-547.325	31.978	0.135	-0.117
-546.310	-44.026	-0.063	-0.032
-545.296	-4.940	-0.091	-0.063
-544.281	-180.314	-0.078	-0.002
-543.266	-53.931	0.300	-0.137
-542.252	-200.000	0.036	0.224
-541.237	297.465	0.063	0.116
-540.223	1.717	0.330	-0.238
-539.208	113.377	0.294	-0.358
-538.193	-34.934	-0.145	0.080
-537.179	-17.583	0.344	0.217
-536.164	-51.403	-0.129	0.061
-535.150	-107.742	0.037	0.008
-534.135	800.000	-0.105	0.325
-533.121	-72.407	-0.326	0.121
-532.106	55.158	-0.091	0.088
-531.091	-200.000	-0.060	-0.381
-530.077	-200.000	0.054	-0.346
-529.062	33.054	-0.036	0.031
-528.048	-35.001	-0.174	0.095
-527.033	191.454	0.193	0.292
-526.018	19.474	0.082	0.066
-525.004	-46.938	-0.240	-0.118
-523.989	-200.000	0.074	0.485
-522.975	-37.700	-0.198	-0.106
-521.960	-20.813	0.109	-0.067
-520.945	-15.916	0.113	-0.072
-519.931	-65.000	0.145	0.059
-518.916	-57.225	-0.252	-0.111
-517.902	144.998	-0.097	-0.130
-516.887	-60.455	-0.071	0.030
-515.872	34.728	0.177	0.155
-514.858	-200.000	-0.071	0.320
-513.843	-97.437	0.221	-0.058
-512.829	-131.273	-0.122	0.016
-511.814	667.621	0.127	0.329
-510.799	-116.001	-0.109	0.020
-509.785	-104.615	-0.118	0.027
-508.770	91.321	-0.088	-0.099
-507.756	141.273	-0.019	0.025
-506.741	11.243	-0.277	-0.212
-505.726	-200.000	-0.022	0.159
-504.712	769.605	0.100	0.274
-503.697	-49.719	-0.300	0.143
-502.683	-200.000	0.048	0.224
-501.668	55.059	0.088	0.085
-500.653	-16.011	-0.308	0.196
-499.639	800.000	-0.122	-0.426
-498.624	141.957	-0.039	0.052
-497.610	116.776	-0.129	-0.159
-496.595	-165.748	-0.389	-0.017
-495.581	-104.306	-0.532	0.124
-494.566	800.000	0.080	-0.224
-493.551	-119.465	-0.500	-0.087
-492.537	70.615	0.069	0.072
-491.522	119.224	0.091	0.112
-490.508	172.929	0.119	0.171
-489.493	-200.000	0.010	0.211
-488.478	800.000	0.135	-0.393
-487.464	-73.180	-0.207	-0.076
-486.449	-200.000	-0.015	-0.212
-485.435	271.248	0.045	0.079
-484.420	-22.285	-0.279	-0.170
-483.405	-200.000	-0.006	-0.179
-482.391	71.385	0.157	-0.163
-481.376	-200.000	0.080	0.389
-480.362	14.915	0.139	0.109
-479.347	58.692	-0.212	-0.208
-478.332	299.918	-0.269	-0.497
-477.318	-119.461	-0.583	-0.101
-476.303	800.000	-0.054	0.181
-475.289	149.740	0.146	0.198
-474.274	148.945	0.116	-0.157
-473.259	-200.000	-0.009	-0.306
-472.245	-95.902	0.309	-0.083
-471.230	-97.608	-0.214	-0.056
-470.216	293.610	-0.071	0.129
-469.201	328.592	-0.158	0.303
-468.186	-58.027	0.123	0.054
-467.172	800.000	-0.107	-0.353
-466.157	728.576	0.018	-0.048
-465.143	-58.793	0.236	-0.102
-464.128	117.747	0.035	-0.043
-463.113	-21.935	-0.190	-0.115
-462.099	800.000	0.025	0.107
-461.084	-72.022	-0.107	0.040
-460.070	273.276	0.059	-0.104
-459.055	-2.933	0.179	0.125
-458.040	-200.000	0.015	0.220
-457.026	-165.396	-0.251	-0.011
-456.011	213.714	0.227	0.359
-454.997	153.787	-0.118	0.162
-453.982	-94.960	0.142	0.038
-452.968	-200.000	0.021	-0.205
-451.953	-140.988	-0.313	0.032
-450.938	531.705	0.011	0.026
-449.924	-126.789	-0.264	0.039
-448.909	166.646	-0.035	0.049
-447.895	76.173	0.252	0.267
-446.880	697.133	0.078	-0.205
-445.865	-67.166	0.190	-0.075
-444.851	-200.000	-0.003	-0.043
-443.836	800.000	-0.077	0.230
-442.822	784.710	0.197	0.539
-441.807	49.332	0.145	0.136
-440.792	-200.000	0.040	-0.414
-439.778	800.000	-0.059	-0.179
-438.763	-95.188	0.294	-0.079
-437.749	-200.000	-0.019	-0.168
-436.734	110.741	-0.071	0.085
-435.719	70.962	0.115	-0.119
-434.705	-100.345	-0.204	-0.050
-433.690	-101.250	-0.394	-0.096
-432.676	800.000	0.125	-0.464
-431.661	63.681	0.375	-0.376
-430.646	-145.666	-0.185	-0.016
-429.632	52.272	-0.164	0.157
-428.617	800.000	0.028	0.090
-427.603	185.156	-0.180	0.267
-426.588	-46.356	0.179	-0.088
-425.573	32.904	0.181	-0.157
-424.559	800.000	-0.042	-0.138
-423.544	-9.768	-0.151	-0.100
-422.530	-200.000	-0.016	-0.143
-421.515	51.569	0.140	-0.133
-420.500	-34.016	-0.110	0.060
-419.486	205.259	0.075	0.117
-418.471	-30.648	-0.225	-0.127
-417.457	-56.983	-0.274	0.121
-416.442	-200.000	0.032	0.278
-415.428	79.111	-0.037	0.039
-414.413	278.905	-0.047	0.084
-413.398	-39.914	0.283	0.148
-412.384	-58.385	-0.145	0.063
-411.369	-74.018	0.030	0.011
-410.355	800.000	-0.098	-0.312
-409.340	-121.024	0.134	-0.022
-408.325	-200.000	0.060	-0.430
-407.311	-200.000	0.012	-0.224
-406.296	213.131	-0.181	-0.285
-405.282	-32.606	0.167	-0.093
-404.267	-133.709	-0.129	-0.016
-403.252	53.770	-0.127	-0.121
-402.238	-174.476	-0.015	0.000
-401.223	800.000	-0.073	-0.315
-400.209	-55.660	-0.195	-0.087
-399.194	800.000	-0.098	-0.337
-398.179	-109.076	0.109	0.023
-397.165	-44.499	0.100	-0.050
-396.150	-116.058	-0.173	-0.032
-395.136	800.000	-0.098	0.271
-394.121	800.000	0.030	-0.103
-393.106	800.000	-0.029	-0.120
-392.092	-200.000	0.027	-0.328
-391.077	10.139	0.221	0.168
-390.063	46.414	-0.092	-0.085
-389.048	800.000	-0.082	-0.267
-388.033	648.087	0.130	0.333
-387.019	62.153	0.138	-0.137
-386.004	-145.107	-0.038	-0.003
-384.990	-200.000	-0.028	0.180
-383.975	77.513	0.250	0.265
-382.960	65.213	-0.039	0.039
-381.946	101.914	-0.233	0.271
-380.931	321.610	-0.237	0.450
-379.917	745.175	0.186	0.500
-378.902	-104.017	-0.135	0.031
-377.888	320.171	0.104	0.197
-376.873	437.301	0.060	-0.130
-375.858	800.000	0.024	-0.067
-374.844	78.868	0.165	-0.176
-373.829	-80.754	0.244	-0.081
-372.815	-41.964	-0.109	0.056
-371.800	64.879	0.160	0.161
-370.785	-104.191	-0.162	0.037
-369.771	185.011	-0.158	0.234
-368.756	-77.542	0.202	0.070
-367.742	-142.454	0.354	0.035
-366.727	800.000	-0.045	0.183
-365.712	800.000	-0.009	0.030
-364.698	47.458	-0.143	-0.133
-363.683	31.991	0.101	0.087
-362.669	684.801	-0.058	0.152
-361.654	25.381	0.074	-0.061
-360.639	-78.658	-0.421	-0.143
-359.625	800.000	0.094	0.305
-358.610	-200.000	0.008	0.254
-357.596	487.586	-0.131	-0.298
-356.581	-200.000	-0.019	-0.110
-355.566	142.693	-0.049	-0.065
-354.552	-200.000	-0.002	-0.289
-353.537	800.000	0.029	0.099
-352.523	-200.000	0.005	0.176
-351.508	800.000	0.044	-0.168
-350.493	-142.897	-0.054	-0.005
-349.479	81.622	0.277	-0.298
-348.464	48.354	-0.020	-0.019
-347.450	-6.113	-0.116	0.079
-346.435	-200.000	-0.002	0.195
-345.420	-164.531	-0.154	0.007
-344.406	-99.879	-0.181	0.045
-343.391	-15.468	-0.268	-0.170
-342.377	-57.048	0.398	-0.175
-341.362	-127.147	0.523	-0.076
-340.348	-55.456	-0.123	-0.055
-339.333	175.876	0.128	0.185
-338.318	595.137	-0.172	0.423
-337.304	7.706	-0.144	-0.107
-336.289	266.644	0.197	0.343
-335.275	115.753	0.104	-0.126
-334.260	-200.000	0.089	-0.445
-333.245	-124.050	0.117	0.018
-332.231	-3.107	0.054	0.038
-331.216	-162.038	-0.053	-0.003
-330.202	800.000	-0.075	-0.240
-329.187	149.442	-0.109	-0.147
-328.172	672.601	-0.067	-0.174
-327.158	776.552	0.124	0.336
-326.143	13.855	-0.170	0.132
-325.129	800.000	0.138	0.391
-324.114	-1.559	0.151	0.106
-323.099	-99.093	0.101	-0.026
-322.085	-102.537	-0.156	0.037
-321.070	93.938	0.216	0.244
-320.056	145.154	-0.046	0.062
-319.041	-81.926	-0.393	-0.128
-318.026	202.070	0.306	0.469
-317.012	70.702	-0.008	0.008
-315.997	-135.584	-0.086	0.010
-314.983	53.419	-0.066	0.063
-313.968	23.059	-0.041	0.033
-312.953	-71.445	-0.111	-0.041
-311.939	-130.524	0.206	0.028
-310.924	-200.000	0.008	0.159
-309.910	-153.823	0.082	0.006
-308.895	-200.000	-0.035	0.252
-307.880	361.492	-0.064	-0.127
-306.866	18.359	-0.177	-0.141
-305.851	-200.000	0.016	0.364
-304.837	57.603	0.142	-0.138
-303.822	-16.881	0.125	0.079
-302.807	594.558	-0.068	0.168
-301.793	-200.000	-0.030	-0.217
-300.778	800.000	0.060	-0.201
-299.764	800.000	-0.164	-0.501
-298.749	28.990	0.028	0.024
-297.735	68.897	-0.051	0.052
-296.720	800.000	0.087	-0.321
-295.705	162.154	-0.059	-0.082
-294.691	44.515	-0.043	-0.040
-293.676	-200.000	-0.005	0.236
-292.662	-1.168	0.133	-0.094
-291.647	-68.485	0.040	-0.015
-290.632	-200.000	0.047	0.254
-289.618	37.614	-0.151	-0.133
-288.603	8.359	0.142	0.106
-287.589	-37.493	-0.122	0.065
-286.574	800.000	0.062	-0.243
-285.559	79.241	-0.055	-0.058
-284.545	-133.025	0.092	-0.012
-283.530	572.096	0.078	-0.190
-282.516	800.000	-0.115	-0.316
-281.501	-159.595	-0.244	0.013
-280.486	393.836	0.029	-0.061
-279.472	-125.965	-0.172	0.026
-278.457	-124.309	-0.084	-0.013
-277.443	800.000	0.034	-0.142
-276.428	39.517	-0.182	0.162
-275.413	-83.028	0.178	0.057
-274.399	-13.440	0.153	0.099
-273.384	800.000	-0.076	-0.266
-272.370	240.010	0.066	0.109
-271.355	-57.850	0.287	-0.125
-270.340	-64.353	0.148	-0.060
-269.326	150.297	0.111	-0.150
-268.311	-200.000	-0.032	-0.312
-267.297	-106.438	-0.118	0.026
-266.282	79.553	0.369	0.393
-265.267	-200.000	-0.009	0.176
-264.253	-200.000	0.027	-0.178
-263.238	800.000	-0.044	-0.189
-262.224	-200.000	0.018	-0.146
-261.209	-200.000	-0.027	-0.196
-260.195	-200.000	-0.033	0.447
-259.180	-107.258	0.120	-0.026
-258.165	26.930	-0.229	0.191
-257.151	302.457	-0.060	-0.109
-256.136	-57.109	-0.272	-0.119
-255.122	-200.000	-0.016	0.214
-254.107	134.216	-0.086	-0.110
-253.092	-0.835	0.175	-0.123
-252.078	-200.000	-0.039	0.224
-251.063	248.935	0.183	0.308
-250.049	-117.951	0.363	-0.065
-249.034	434.974	0.093	0.202
-248.019	800.000	-0.013	0.048
-247.005	193.612	-0.125	0.188
-245.990	-103.639	-0.282	0.066
-244.976	172.714	-0.086	0.123
-243.961	-200.000	0.036	-0.219
-242.946	37.552	0.166	0.146
-241.932	71.824	-0.200	0.206
-240.917	-140.006	0.253	-0.026
-239.903	-75.448	0.261	-0.092
-238.888	-127.508	-0.161	-0.023
-237.873	-63.346	0.232	-0.095
-236.859	61.996	0.306	0.303
-235.844	713.523	0.044	-0.117
-234.830	7.318	0.054	0.040
-233.815	-200.000	0.046	-0.323
-232.800	-109.996	0.214	0.044
-231.786	31.464	0.240	-0.204
-230.771	127.418	0.116	-0.145
-229.757	-200.000	0.011	-0.056
-228.742	78.576	-0.240	-0.254
-227.727	165.300	0.153	0.215
-226.713	-200.000	0.021	0.413
-225.698	-200.000	-0.003	0.126
-224.684	800.000	-0.026	-0.081
-223.669	-73.410	-0.337	-0.122
-222.655	6.981	0.347	0.256
-221.640	289.568	-0.113	0.202
-220.625	211.023	0.079	-0.124
-219.611	-63.495	-0.052	0.021
-218.596	-27.985	0.070	0.040
-217.582	-200.000	-0.004	-0.166
-216.567	800.000	0.064	-0.212
-215.552	144.672	-0.119	0.158
-214.538	73.121	-0.161	0.167
-213.523	-23.815	0.329	-0.195
-212.509	-26.235	-0.430	0.250
-211.494	-31.273	-0.150	0.084
-210.479	-134.312	-0.230	0.028
-209.465	-200.000	-0.000	-0.194
-208.450	-114.046	0.287	-0.055
-207.436	754.689	-0.093	-0.250
-206.421	58.699	0.266	0.259
-205.406	215.946	0.199	0.314
-204.392	154.019	0.122	0.166
-203.377	800.000	0.110	0.302
-202.363	-54.464	0.095	0.043
-201.348	-120.886	-0.221	0.037
-200.333	800.000	-0.029	-0.123
-199.319	143.036	-0.011	0.015
-198.304	-126.557	-0.203	-0.030
-197.290	15.251	-0.151	0.117
-196.275	-200.000	-0.031	0.363
-195.260	291.175	0.105	-0.189
-194.246	370.635	0.241	0.484
-193.231	-200.000	-0.008	0.332
-192.217	651.831	0.125	0.317
-191.202	800.000	0.056	0.175
-190.187	93.325	0.148	-0.166
-189.173	800.000	-0.035	-0.119
-188.158	11.564	0.011	0.008
-187.144	-85.611	-0.165	0.051
-186.129	195.308	-0.076	0.114
-185.114	17.522	0.226	-0.178
-184.100	-200.000	-0.006	0.082
-183.085	-137.297	-0.177	-0.020
-182.071	-200.000	-0.014	0.091
-181.056	-200.000	0.011	0.180
-180.042	-62.299	0.283	-0.117
-179.027	-200.000	0.003	0.015
-178.012	-200.000	0.007	0.208
-176.998	-97.753	0.019	0.005
-175.983	274.130	-0.079	-0.138
-174.969	800.000	0.009	0.027
-173.954	-11.990	-0.291	0.189
-172.939	-137.142	0.335	0.038
-171.925	2.428	-0.128	0.092
-170.910	6.619	-0.102	0.075
-169.896	-172.378	-0.101	-0.003
-168.881	239.481	0.090	0.149
-167.866	-161.689	0.049	0.002
-166.852	-84.098	0.120	0.038
-165.837	692.038	-0.104	-0.271
-164.823	-16.269	-0.452	0.284
-163.808	29.398	0.270	-0.227
-162.793	-102.811	0.414	-0.098
-161.779	-108.276	0.210	0.045
-160.764	609.979	-0.037	-0.091
-159.750	-107.062	0.018	-0.004
-158.735	482.008	0.111	0.249
-157.720	-200.000	0.007	0.033
-156.706	32.327	0.240	-0.205
-155.691	191.717	0.090	-0.135
-154.677	-99.115	0.249	0.062
-153.662	-31.135	-0.124	0.069
-152.647	-200.000	0.002	0.032
-151.633	39.527	0.230	-0.204
-150.618	-200.000	-0.003	-0.155
-149.604	348.303	0.010	0.020
-148.589	50.922	0.182	-0.171
-147.574	-123.510	0.245	0.039
-146.560	-61.514	-0.103	0.043
-145.545	-44.457	0.082	-0.040
-144.531	223.034	-0.041	-0.065
-143.516	-77.489	-0.189	0.065
-142.502	-43.677	0.075	0.038
-141.487	-200.000	-0.015	0.077
-140.472	-110.329	0.142	-0.029
-139.458	-200.000	-0.023	-0.103
-138.443	-200.000	0.011	-0.092
-137.429	-200.000	0.021	-0.167
-136.414	294.038	0.156	0.281
-135.399	-147.228	0.329	-0.028
-134.385	129.351	0.102	0.128
-133.370	-91.561	-0.073	0.021
-132.356	133.911	0.107	0.137
-131.341	-200.000	-0.001	-0.198
-130.326	-52.218	0.108	0.049
-129.312	-59.025	0.145	-0.062
-128.297	266.746	0.252	0.435
-127.283	-34.084	0.087	0.047
-126.268	-119.792	0.165	-0.028
-125.253	-200.000	0.004	0.448
-124.239	-200.000	0.001	0.334
-123.224	-200.000	0.015	-0.320
-122.210	-32.087	-0.280	-0.155
-121.195	47.426	-0.481	-0.442
-120.180	800.000	0.134	0.393
-119.166	354.293	-0.043	0.085
-118.151	-92.243	-0.249	0.069
-117.137	-74.225	-0.147	0.052
-116.122	52.815	0.315	0.297
-115.107	-200.000	0.028	0.216
-114.093	-57.995	0.474	0.204
-113.078	-59.092	-0.186	0.079
-112.064	144.738	0.179	0.236
-111.049	139.773	-0.124	-0.162
-110.034	-48.128	-0.151	-0.072
-109.020	-200.000	-0.032	0.171
-108.005	-14.897	0.265	0.168
-106.991	223.499	-0.090	-0.144
-105.976	800.000	0.102	-0.313
-104.962	6.549	0.095	0.070
-103.947	-59.027	-0.163	0.069
-102.932	183.548	-0.071	-0.104
-101.918	61.280	-0.156	0.153
-100.903	-72.256	0.143	0.052
-99.889	-200.000	-0.047	-0.215
-98.874	-94.775	0.293	-0.078
-97.859	-131.923	-0.236	0.030
-96.845	79.567	0.138	-0.146
-95.830	800.000	-0.064	0.215
-94.816	-200.000	-0.014	0.381
-93.801	800.000	-0.033	-0.099
-92.786	-93.815	0.260	0.071
-91.772	260.963	0.226	0.385
-90.757	-10.352	-0.082	0.054
-89.743	-119.223	-0.438	-0.075
-88.728	475.894	0.061	-0.136
-87.713	268.546	-0.113	-0.196
-86.699	481.025	0.074	0.165
-85.684	-200.000	0.002	-0.177
-84.670	-12.695	-0.127	0.081
-83.655	173.852	-0.119	0.169
-82.640	-1.805	-0.125	0.087
-81.626	-96.846	0.144	-0.037
-80.611	103.748	0.124	-0.143
-79.597	-26.313	0.096	0.056
-78.582	507.892	-0.093	-0.214
-77.567	800.000	0.088	0.247
-76.553	404.065	-0.148	0.308
-75.538	-200.000	0.014	-0.149
-74.524	-200.000	-0.015	0.101
-73.509	-48.992	0.203	-0.096
-72.494	-65.621	0.123	-0.049
-71.480	144.285	-0.151	0.199
-70.465	60.400	0.109	0.106
-69.451	-48.972	-0.216	-0.102
-68.436	345.943	-0.121	0.234
-67.422	-113.218	-0.295	0.057
-66.407	-63.936	-0.082	-0.033
-65.392	-104.887	0.105	-0.024
-64.378	-200.000	0.005	-0.121
-63.363	-200.000	0.010	-0.103
-62.349	655.087	-0.050	-0.126
-61.334	25.045	-0.890	-0.727
-60.319	-35.835	0.381	0.203
-59.305	-200.000	-0.153	-1.124
-58.290	734.433	0.399	1.053
-57.276	757.938	0.521	1.391
-56.261	-200.000	98.331	586.956
-55.246	550.868	1391.923	3289.717
-54.232	153.863	2588.418	3494.691
-53.217	114.397	2157.095	2587.217
-52.203	46.031	1613.474	1470.962
-51.188	37.885	1350.118	1181.707
-50.173	34.440	1307.965	1124.495
-49.159	57.734	1357.601	1307.498
-48.144	61.397	1375.948	1347.053
-47.130	38.151	1329.555	1165.111
-46.115	34.558	1311.918	1128.412
-45.100	34.383	1307.570	1123.599
-44.086	34.354	1304.485	1120.728
-43.071	34.186	1302.904	1118.341
-42.057	34.137	1300.827	1116.227
-41.042	34.302	1298.733	1115.349
-40.027	34.248	1298.038	1114.393
-39.013	34.334	1295.763	1112.902
-37.998	34.236	1293.804	1110.599
-36.984	34.372	1291.663	1109.512
-35.969	34.409	1290.002	1108.256
-34.954	34.300	1288.901	1106.634
-33.940	34.431	1287.158	1105.851
-32.925	34.355	1286.440	1104.752
-31.911	34.475	1284.655	1103.871
-30.896	34.486	1283.335	1102.757
-29.881	34.630	1281.671	1102.114
-28.867	34.503	1280.520	1100.344
-27.852	34.599	1278.945	1099.504
-26.838	34.554	1277.280	1097.768
-25.823	34.471	1276.400	1096.491
-24.809	34.381	1275.119	1094.830
-23.794	34.480	1273.373	1093.857
-22.779	34.456	1272.100	1092.579
-21.765	34.482	1270.952	1091.702
-20.750	34.451	1269.638	1090.353
-19.736	34.295	1268.816	1088.714
-18.721	34.304	1267.301	1087.420
-17.706	34.423	1265.800	1086.766
-16.692	34.256	1265.121	1085.187
-15.677	34.345	1264.044	1084.730
-14.663	34.310	1262.940	1083.537
-13.648	34.329	1261.578	1082.437
-12.633	34.307	1260.861	1081.653
-11.619	34.298	1260.370	1081.137
-10.604	34.347	1259.034	1080.226
-9.590	34.285	1258.330	1079.230
-8.575	34.266	1257.092	1078.017
-7.560	34.252	1256.302	1077.217
-6.546	34.252	1255.297	1076.310
-5.531	34.314	1254.415	1075.864
-4.517	34.362	1253.047	1074.918
-3.502	34.335	1253.003	1074.686
-2.487	34.351	1251.702	1073.619
-1.473	34.199	1247.903	1069.463
-0.458	32.782	1232.939	1048.723
0.556	29.423	1215.698	1010.918
1.571	25.764	1221.463	995.438
2.586	24.782	1237.379	1002.818
3.600	24.179	1226.128	990.261
4.615	17.593	1153.253	896.774
5.629	6.961	1074.895	783.341
6.644	2.180	1053.060	744.114
7.659	1.852	1050.261	740.476
8.673	1.773	1048.746	738.959
9.688	1.627	1047.862	737.562
10.702	2.072	1046.822	738.920
11.717	8.837	1056.409	778.583
12.731	18.937	1070.874	838.684
13.746	24.077	1076.460	868.117
14.761	24.899	1077.597	872.970
15.775	24.703	1077.405	871.779
16.790	24.616	1076.344	870.421
17.804	24.621	1075.607	869.769
18.819	24.700	1075.348	869.869
19.834	24.688	1075.072	869.509
20.848	24.805	1074.360	869.425
21.863	24.796	1073.697	868.768
22.877	24.840	1073.195	868.497
23.892	24.681	1072.533	867.117
24.907	24.845	1071.595	867.074
25.921	24.842	1070.371	865.994
26.936	24.821	1069.129	864.812
27.950	24.793	1067.663	863.414
28.965	24.561	1066.336	861.144
29.980	24.585	1065.037	860.138
30.994	24.885	1063.824	860.521
32.009	24.959	1062.752	859.936
33.023	24.739	1061.631	857.899
34.038	24.756	1060.980	857.375
35.053	24.943	1060.237	857.597
36.067	24.798	1059.789	856.462
37.082	24.928	1059.096	856.450
38.096	25.048	1058.565	856.517
39.111	25.226	1057.399	856.348
40.126	25.112	1055.864	854.486
41.140	24.621	1054.091	850.640
42.155	24.461	1052.499	848.518
43.169	24.530	1051.830	848.233
44.184	24.472	1050.954	847.173
45.199	24.289	1050.193	845.618
46.213	24.540	1049.086	845.843
47.228	24.709	1048.716	846.267
48.242	24.703	1047.929	845.529
49.257	24.878	1047.180	845.679
50.271	24.854	1046.700	845.103
51.286	24.876	1045.706	844.326
52.301	25.016	1044.733	844.127
53.315	24.769	1044.007	842.303
54.330	24.907	1042.516	841.677
55.344	24.806	1042.013	840.719
56.359	24.763	1041.141	839.741
57.374	24.545	1040.296	837.962
58.388	24.622	1039.440	837.559
59.403	24.520	1038.705	836.416
60.417	24.459	1037.988	835.478
61.432	24.482	1037.310	834.967
62.447	24.496	1036.723	834.483
63.461	24.602	1035.847	834.202
64.476	24.508	1034.755	832.809
65.490	24.482	1033.968	831.983
66.505	24.477	1033.447	831.465
67.520	24.619	1032.467	831.262
68.534	24.345	1031.617	829.232
69.549	24.082	1030.315	826.889
70.563	24.186	1029.167	826.378
71.578	24.014	1028.612	825.064
72.593	23.869	1027.859	823.713
73.607	23.981	1027.110	823.557
74.622	24.304	1026.635	824.599
75.636	24.303	1026.102	824.095
76.651	24.228	1024.818	822.642
77.666	24.191	1024.312	821.992
78.680	24.162	1023.986	821.525
79.695	24.383	1022.848	821.559
80.709	24.472	1022.730	821.798
81.724	24.416	1021.845	820.759
82.739	24.497	1020.707	820.142
83.753	24.773	1020.533	821.198
84.768	25.113	1019.539	821.885
85.782	25.200	1018.742	821.569
86.797	25.122	1017.686	820.287
87.812	24.985	1016.660	818.764
88.826	25.007	1015.908	818.183
89.841	25.120	1015.554	818.343
90.855	25.081	1014.435	817.192
91.870	24.992	1013.512	815.969
92.884	24.856	1012.110	814.150
93.899	24.867	1010.954	813.200
94.914	25.046	1010.708	813.743
95.928	24.943	1009.344	812.105
96.943	24.800	1007.820	810.158
97.957	24.499	1006.825	807.926
98.972	24.518	1005.297	806.712
99.987	24.633	1004.824	806.780
101.001	24.816	1004.359	807.162
102.016	24.836	1003.431	806.434
103.030	24.633	1002.905	805.025
104.045	24.471	1001.916	803.431
105.060	24.456	1000.751	802.362
106.074	24.576	1000.043	802.259
107.089	24.860	999.897	803.345
108.103	24.900	998.518	802.346
109.118	24.653	997.084	800.017
110.133	24.603	996.267	799.069
111.147	24.214	995.695	796.802
112.162	24.165	994.739	795.746
113.176	24.306	994.354	795.995
114.191	24.329	993.179	795.089
115.206	24.103	991.735	792.856
116.220	24.151	991.147	792.529
117.235	24.164	990.584	792.067
118.249	24.294	989.643	791.823
119.264	24.218	988.502	790.500
120.279	24.246	988.087	790.224
121.293	24.279	987.529	789.856
122.308	24.343	986.886	789.554
123.322	24.122	985.497	787.397
124.337	24.015	984.278	785.879
125.352	23.619	982.391	782.558
126.366	23.632	981.822	782.090
127.381	24.309	981.908	785.074
128.395	24.718	981.574	786.537
129.410	24.869	980.576	786.329
130.424	24.844	979.811	785.538
131.439	24.700	978.633	783.894
132.454	24.685	978.096	783.326
133.468	24.731	976.699	782.340
134.483	24.877	976.077	782.412
135.497	24.981	975.542	782.367
136.512	25.057	974.551	781.835
137.527	25.033	974.182	781.365
138.541	24.951	973.523	780.409
139.556	24.969	972.727	779.779
140.570	25.089	971.650	779.370
141.585	25.187	970.537	778.837
142.600	25.027	969.753	777.441
143.614	25.282	968.959	777.844
144.629	25.274	968.280	777.194
145.643	25.144	966.994	775.530
146.658	25.061	965.724	774.083
147.673	25.063	964.192	772.797
148.687	24.836	963.922	771.534
149.702	24.766	962.924	770.366
150.716	24.770	961.972	769.552
151.731	24.920	961.317	769.605
152.746	25.159	960.819	770.165
153.760	25.141	960.248	769.564
154.775	25.222	959.433	769.187
155.789	25.286	958.182	768.390
156.804	25.199	957.499	767.402
157.819	25.128	956.736	766.420
158.833	25.395	955.894	766.819
159.848	25.390	954.923	765.949
160.862	25.124	953.732	763.796
161.877	25.185	952.953	763.363
162.892	25.126	952.119	762.374
163.906	25.132	950.917	761.370
164.921	25.068	950.161	760.426
165.935	25.305	948.980	760.418
166.950	25.227	948.064	759.286
167.964	25.178	947.719	758.737
168.979	25.123	946.472	757.440
169.994	25.013	945.509	756.139
171.008	25.367	944.623	756.855
172.023	25.238	944.520	756.162
173.037	25.093	943.048	754.306
174.052	24.919	941.978	752.650
175.067	24.898	941.704	752.277
176.081	24.943	941.334	752.104
177.096	24.999	940.414	751.540
178.110	24.720	939.487	749.562
179.125	24.590	938.456	748.128
180.140	24.537	938.587	747.946
181.154	24.599	938.203	747.830
182.169	25.092	937.687	749.415
183.183	25.149	937.847	749.716
184.198	25.190	936.222	748.520
185.213	24.947	936.148	747.380
186.227	25.031	935.437	747.099
187.242	25.185	934.693	747.081
188.256	25.343	933.750	746.918
189.271	25.337	933.533	746.654
190.286	24.869	932.047	743.453
191.300	24.343	930.575	740.033
192.315	23.509	928.893	735.176
193.329	23.622	928.341	735.142
194.344	24.446	929.089	739.081
195.359	24.927	929.087	741.004
196.373	25.064	928.625	741.140
197.388	25.034	927.656	740.177
198.402	24.932	927.305	739.407
199.417	25.051	926.183	738.938
200.432	24.797	924.876	736.787
201.446	24.608	924.409	735.569
202.461	24.785	923.514	735.520
203.475	23.811	922.257	730.455
204.490	23.001	921.037	726.095
205.504	24.068	921.112	730.473
206.519	24.687	920.894	732.770
207.534	24.777	920.716	732.936
208.548	25.234	920.071	734.228
209.563	24.959	919.354	732.465
210.577	24.878	918.742	731.583
211.592	25.420	918.435	733.486
212.607	25.291	917.563	732.198
213.621	25.255	917.183	731.683
214.636	25.235	916.318	730.849
215.650	25.257	914.987	729.813
216.665	25.266	914.793	729.629
217.680	25.289	913.736	728.815
218.694	24.804	913.098	726.274
219.709	24.642	912.698	725.233
220.723	25.071	912.020	726.370
221.738	25.124	911.404	726.029
222.753	25.156	910.799	725.611
223.767	25.171	910.602	725.451
224.782	25.336	910.128	725.676
225.796	25.412	909.260	725.225
226.811	24.714	908.044	721.377
227.826	24.094	906.819	717.841
228.840	24.242	906.351	718.006
229.855	24.248	905.529	717.313
230.869	23.976	904.528	715.365
231.884	24.285	904.911	716.847
232.899	25.095	904.756	719.913
233.913	24.948	903.971	718.637
234.928	24.967	903.515	718.287
235.942	24.952	902.876	717.656
236.957	24.524	901.926	715.124
237.972	24.701	901.289	715.262
238.986	24.753	900.437	714.731
240.001	24.750	900.292	714.542
241.015	24.899	899.657	714.569
242.030	25.053	898.928	714.539
243.045	25.112	898.622	714.468
244.059	25.238	898.034	714.441
245.074	24.925	897.351	712.589
246.088	24.715	896.521	711.032
247.103	25.087	895.855	711.916
248.117	25.612	896.342	714.327
249.132	25.703	895.752	714.154
250.147	25.985	894.943	714.564
251.161	26.089	894.621	714.654
252.176	26.007	894.068	713.828
253.190	25.974	893.527	713.200
254.205	26.149	893.072	713.467
255.220	26.216	892.258	713.018
256.234	25.977	891.761	711.615
257.249	25.963	890.613	710.580
258.263	25.901	889.999	709.783
259.278	26.050	889.617	710.003
260.293	26.061	889.037	709.519
261.307	26.003	888.021	708.418
262.322	25.922	887.163	707.353
263.336	25.078	885.221	702.434
264.351	23.912	883.617	696.535
265.366	24.109	883.543	697.189
266.380	25.188	884.529	702.130
267.395	25.620	883.869	703.236
268.409	25.516	883.071	702.130
269.424	25.811	882.797	703.001
270.439	25.624	882.455	701.939
271.453	25.592	881.847	701.267
272.468	25.771	881.569	701.682
273.482	26.049	880.799	702.091
274.497	25.659	879.398	699.393
275.512	25.264	878.642	697.197
276.526	25.681	879.011	699.048
277.541	25.876	878.283	699.164
278.555	25.717	877.551	697.904
279.570	25.496	877.125	696.646
280.585	25.625	876.067	696.242
281.599	25.546	875.333	695.292
282.614	24.990	874.481	692.408
283.628	25.097	873.671	692.117
284.643	25.366	873.468	692.932
285.657	24.926	872.424	690.350
286.672	24.742	871.278	688.670
287.687	25.303	871.615	691.038
288.701	25.299	871.200	690.632
289.716	25.089	869.864	688.704
290.730	25.008	869.178	687.788
291.745	24.769	868.346	686.153
292.760	24.855	868.728	686.726
293.774	26.052	868.756	691.276
294.789	26.223	868.923	692.002
295.803	26.140	868.148	691.006
296.818	26.368	867.411	691.231
297.833	25.924	865.989	688.340
298.847	25.712	865.613	687.173
299.862	26.089	865.095	688.140
300.876	26.248	865.275	688.826
301.891	26.026	864.403	687.225
302.906	25.738	863.472	685.327
303.920	25.926	862.903	685.531
304.935	26.336	862.791	686.941
305.949	26.232	862.268	686.067
306.964	25.845	861.255	683.733
307.979	26.028	860.870	684.060
308.993	26.406	860.741	685.332
310.008	26.439	859.931	684.752
311.022	26.291	859.156	683.514
312.037	26.003	858.670	681.978
313.052	25.898	857.471	680.569
314.066	24.862	856.212	675.600
315.081	24.670	855.430	674.201
316.095	25.532	855.642	677.556
317.110	25.908	855.470	678.778
318.125	24.937	854.107	673.981
319.139	24.014	852.440	669.140
320.154	24.064	852.119	669.015
321.168	24.897	852.639	672.497
322.183	25.742	852.815	675.747
323.197	25.783	852.375	675.493
324.212	25.943	852.217	675.909
325.227	25.934	851.441	675.200
326.241	25.864	850.770	674.345
327.256	25.795	849.948	673.377
328.270	25.724	849.052	672.343
329.285	25.515	848.427	671.006
330.300	25.230	848.095	669.620
331.314	25.780	847.565	671.193
332.329	25.938	847.797	671.909
333.343	26.107	847.021	671.862
334.358	26.124	846.591	671.524
335.373	26.208	846.301	671.549
336.387	26.455	846.308	672.414
337.402	26.572	846.570	672.995
338.416	26.591	845.359	672.045
339.431	26.660	845.208	672.121
340.446	26.804	845.022	672.446
341.460	26.854	844.046	671.796
342.475	26.596	843.561	670.396
343.489	26.511	843.665	670.103
344.504	26.788	843.383	670.848
345.519	26.922	842.820	670.834
346.533	27.146	842.083	671.017
347.548	27.077	841.358	670.124
348.562	27.017	841.321	669.814
349.577	26.910	840.942	669.059
350.592	26.772	840.260	667.948
351.606	26.820	839.355	667.346
352.621	26.838	838.567	666.729
353.635	26.627	837.917	665.376
354.650	25.852	836.329	661.213
355.665	25.179	834.311	657.096
356.679	25.500	834.725	658.540
357.694	25.983	834.322	659.929
358.708	25.823	833.723	658.814
359.723	26.229	833.438	660.016
360.738	26.560	833.434	661.162
361.752	26.635	833.010	661.040
362.767	26.975	832.366	661.712
363.781	27.404	831.582	662.590
364.796	27.322	831.716	662.340
365.810	27.335	831.252	661.959
366.825	27.427	830.837	661.903
367.840	27.191	830.166	660.456
368.854	26.628	829.179	657.567
369.869	26.645	828.596	657.108
370.883	26.689	828.467	657.107
371.898	26.694	828.168	656.828
372.913	26.813	827.588	656.742
373.927	26.778	827.270	656.305
374.942	27.023	826.553	656.565
375.956	27.242	825.687	656.612
376.971	27.237	825.853	656.665
377.986	27.264	825.613	656.514
379.000	27.389	824.733	656.207
380.015	27.106	824.273	654.766
381.029	27.295	823.735	654.960
382.044	27.404	823.514	655.116
383.059	27.330	822.775	654.204
384.073	27.363	822.218	653.825
385.088	27.385	821.822	653.530
386.102	27.095	820.947	651.735
387.117	26.936	820.313	650.605
388.132	26.725	819.036	648.778
389.146	26.286	817.828	646.194
390.161	26.555	818.180	647.380
391.175	27.092	817.912	649.029
392.190	26.679	817.008	646.780
393.205	25.323	815.036	640.328
394.219	23.854	813.357	633.720
395.234	23.813	812.761	633.052
396.248	25.416	814.571	640.123
397.263	26.754	815.384	645.476
398.278	26.816	814.849	645.217
399.292	26.578	814.011	643.647
400.307	26.602	813.864	643.561
401.321	26.658	813.501	643.415
402.336	27.085	813.043	644.514
403.350	27.363	813.125	645.504
404.365	27.663	813.274	646.631
405.380	28.088	812.730	647.645
406.394	28.166	812.074	647.344
407.409	27.971	811.680	646.280
408.423	27.809	811.668	645.643
409.438	27.866	811.318	645.510
410.453	27.992	810.890	645.554
411.467	27.778	810.480	644.417
412.482	27.999	809.591	644.433
413.496	28.006	809.270	644.142
414.511	28.055	808.797	643.884
415.526	27.945	808.610	643.289
416.540	27.793	807.619	641.911
417.555	27.576	807.198	640.755
418.569	27.607	807.120	640.748
419.584	27.630	806.096	639.956
420.599	27.406	805.819	638.895
421.613	108.979	1282.797	1446.683
422.628	94.107	1352.276	1446.790
