DTS Sentinel unit serial number:	SN413079Multiplexer serial number:	ORYXHardware model number:	OX4-SRSoftware version number:	ORYX F/W v4.00 Oryx Data Collector v3.7.2.0data status	okinstallation	princeton_trtdifferential loss correction	single-endedforward channel	channel 1reverse channel	N/Adate	2019/09/18time	18:14:35forward acquisition time	60.00reverse acquisition time	0.00gamma	496.2192k internal	0.2294k external	0.2294temperature offset calibration	1.0012default loss term (dB/km)	0.3790temperature slope calibration	1.0000multiplexer offset coefficient	1.0000multiplexer slope coefficient	1.0000fibre end	0.00T internal ref (°C)	38.97T ext. ref 1 (°C)	0.93T ext. ref 2 (°C)	32.22length (m)	temperature (°C)	Stokes	anti-Stokes-747.200	-35.004	0.396	0.221
-746.185	-200.000	0.016	-0.252
-745.171	216.851	0.080	-0.131
-744.156	-200.000	-0.016	-0.075
-743.142	800.000	0.061	0.182
-742.127	112.872	-0.088	0.109
-741.112	-200.000	0.001	0.025
-740.098	156.879	-0.239	0.338
-739.083	61.849	0.190	-0.194
-738.069	-138.478	0.283	0.032
-737.054	-16.216	-0.104	0.068
-736.039	-25.155	0.099	0.060
-735.025	-200.000	0.061	0.284
-734.010	-165.170	0.311	0.014
-732.996	-35.845	-0.145	0.080
-731.981	800.000	-0.095	-0.322
-730.966	10.428	0.281	-0.219
-729.952	-128.499	-0.393	0.057
-728.937	-30.261	-0.067	-0.039
-727.923	45.756	0.162	-0.153
-726.908	-17.697	-0.235	0.151
-725.894	-85.707	0.185	-0.059
-724.879	-200.000	-0.020	0.102
-723.864	-119.049	-0.456	0.082
-722.850	171.519	-0.206	0.303
-721.835	-78.971	0.214	0.075
-720.821	115.398	0.024	0.030
-719.806	-89.054	-0.225	-0.068
-718.791	-200.000	-0.087	0.439
-717.777	-159.878	-0.238	0.013
-716.762	-186.919	0.300	-0.004
-715.748	-200.000	-0.014	-0.282
-714.733	55.350	0.242	-0.239
-713.718	800.000	-0.067	0.247
-712.704	-33.317	0.062	-0.035
-711.689	-200.000	-0.010	-0.165
-710.675	-48.642	-0.247	0.121
-709.660	-200.000	-0.002	-0.058
-708.645	33.284	-0.164	-0.145
-707.631	-29.414	0.208	-0.122
-706.616	-200.000	-0.011	-0.132
-705.602	-200.000	-0.007	0.265
-704.587	-30.836	-0.153	0.088
-703.572	-125.628	0.123	-0.019
-702.558	-77.451	-0.238	0.084
-701.543	-25.973	0.315	-0.189
-700.529	-179.126	-0.206	-0.005
-699.514	473.877	0.019	0.045
-698.499	-132.561	-0.107	-0.014
-697.485	-200.000	-0.035	-0.201
-696.470	-0.844	0.136	0.098
-695.456	-200.000	-0.016	0.293
-694.441	151.026	0.298	0.414
-693.426	82.405	0.119	0.131
-692.412	22.805	0.159	-0.133
-691.397	2.732	-0.061	0.045
-690.383	-61.208	-0.069	-0.030
-689.368	800.000	0.016	-0.071
-688.354	800.000	-0.028	-0.093
-687.339	-105.009	-0.075	-0.017
-686.324	-105.460	-0.046	0.011
-685.310	-9.361	-0.177	0.120
-684.295	-200.000	0.004	-0.027
-683.281	618.418	-0.038	-0.097
-682.266	-200.000	-0.002	-0.142
-681.251	-186.002	0.450	0.007
-680.237	137.912	-0.133	0.178
-679.222	-200.000	0.024	-0.264
-678.208	-200.000	0.018	0.086
-677.193	-58.690	-0.118	0.052
-676.178	-97.622	0.168	-0.044
-675.164	85.586	0.261	-0.292
-674.149	-200.000	0.030	-0.243
-673.135	-100.433	-0.147	-0.037
-672.120	-200.000	0.016	0.149
-671.105	-60.075	-0.370	0.161
-670.091	21.067	-0.246	-0.203
-669.076	22.572	0.067	-0.056
-668.062	16.023	-0.264	0.212
-667.047	800.000	0.023	0.093
-666.032	-200.000	-0.022	-0.112
-665.018	-104.917	-0.129	-0.030
-664.003	-138.391	-0.434	0.049
-662.989	-19.084	0.082	-0.052
-661.974	119.899	-0.136	-0.172
-660.959	207.771	0.049	0.078
-659.945	21.115	0.211	0.175
-658.930	483.085	0.087	0.201
-657.916	-200.000	0.033	0.163
-656.901	-90.385	0.352	0.104
-655.886	-24.943	-0.204	0.123
-654.872	-200.000	0.001	0.255
-653.857	-200.000	0.037	0.310
-652.843	-200.000	-0.009	-0.082
-651.828	-200.000	0.011	-0.125
-650.814	-117.482	-0.256	0.047
-649.799	-149.674	-0.319	0.026
-648.784	-57.724	0.180	-0.080
-647.770	447.188	-0.009	-0.021
-646.755	-200.000	-0.013	-0.362
-645.741	-111.471	-0.240	-0.050
-644.726	82.049	0.181	-0.200
-643.711	373.620	-0.195	0.403
-642.697	254.832	-0.105	-0.183
-641.682	200.269	0.150	0.235
-640.668	-71.789	-0.164	0.062
-639.653	33.009	0.055	0.048
-638.638	800.000	-0.042	0.156
-637.624	-7.060	0.199	-0.138
-636.609	56.878	-0.019	-0.019
-635.595	246.506	0.029	0.050
-634.580	-82.865	0.164	0.054
-633.565	132.440	-0.224	-0.295
-632.551	-136.938	-0.267	0.031
-631.536	800.000	0.016	0.054
-630.522	-200.000	0.006	-0.320
-629.507	-1.362	-0.197	-0.142
-628.492	-117.941	0.370	0.068
-627.478	55.598	-0.251	-0.248
-626.463	419.391	-0.124	0.269
-625.449	198.864	0.087	0.135
-624.434	-200.000	-0.058	0.273
-623.419	704.768	-0.020	-0.055
-622.405	-102.018	-0.241	0.059
-621.390	-139.206	0.170	0.019
-620.376	800.000	0.117	0.338
-619.361	-200.000	0.004	-0.230
-618.346	-56.076	0.350	0.159
-617.332	68.768	-0.074	-0.078
-616.317	416.670	0.046	-0.100
-615.303	-51.621	0.336	-0.160
-614.288	-166.031	0.194	0.008
-613.273	78.580	0.063	-0.068
-612.259	7.923	0.363	0.277
-611.244	215.356	0.117	0.188
-610.230	6.948	0.179	-0.136
-609.215	-200.000	0.000	0.075
-608.201	-46.283	0.186	0.093
-607.186	-122.470	-0.039	0.006
-606.171	94.923	0.017	-0.020
-605.157	-133.274	-0.370	-0.047
-604.142	800.000	-0.097	-0.311
-603.128	233.862	-0.067	0.112
-602.113	59.777	-0.158	0.158
-601.098	-167.756	0.120	-0.005
-600.084	101.810	-0.061	0.072
-599.069	-125.536	-0.454	-0.070
-598.055	-163.973	0.206	0.010
-597.040	302.332	-0.154	-0.289
-596.025	-176.841	-0.343	0.009
-595.011	136.143	-0.173	0.229
-593.996	-127.641	0.096	-0.014
-592.982	800.000	-0.075	-0.327
-591.967	-200.000	0.011	-0.117
-590.952	324.344	-0.094	-0.182
-589.938	526.413	-0.054	0.129
-588.923	-94.641	0.179	0.049
-587.909	-116.428	-0.247	0.046
-586.894	-200.000	-0.047	0.217
-585.879	45.707	-0.130	0.122
-584.865	46.807	0.249	0.235
-583.850	315.676	-0.090	0.173
-582.836	-96.279	-0.261	0.070
-581.821	56.499	-0.153	-0.151
-580.806	-164.469	-0.155	0.007
-579.792	-13.289	0.195	-0.129
-578.777	-83.948	-0.234	-0.076
-577.763	-176.466	-0.274	-0.007
-576.748	-162.042	0.461	-0.024
-575.733	-174.426	-0.257	0.008
-574.719	-200.000	-0.019	0.127
-573.704	-60.688	0.284	-0.122
-572.690	472.163	0.054	0.123
-571.675	800.000	-0.102	0.415
-570.661	-200.000	-0.008	-0.074
-569.646	109.454	0.357	-0.434
-568.631	284.081	0.092	-0.167
-567.617	-71.680	-0.092	-0.035
-566.602	-200.000	-0.016	-0.090
-565.588	-198.288	0.065	0.000
-564.573	800.000	-0.015	0.058
-563.558	-200.000	0.082	0.000
-562.544	14.347	-0.111	0.088
-561.529	297.541	0.144	-0.268
-560.515	72.344	0.071	-0.075
-559.500	-127.725	0.042	-0.006
-558.485	-89.198	-0.246	0.074
-557.471	-133.374	-0.369	-0.047
-556.456	-47.789	-0.232	-0.114
-555.442	800.000	0.038	-0.139
-554.427	-200.000	0.059	0.318
-553.412	173.469	0.086	0.127
-552.398	125.723	-0.179	-0.230
-551.383	-200.000	0.030	-0.239
-550.369	65.290	0.106	-0.109
-549.354	705.322	0.100	0.268
-548.339	-127.417	0.081	-0.012
-547.325	-200.000	-0.003	-0.285
-546.310	-39.285	-0.340	-0.181
-545.296	800.000	0.075	-0.234
-544.281	-33.259	0.123	0.069
-543.266	185.870	-0.051	0.078
-542.252	800.000	0.037	-0.142
-541.237	106.583	-0.113	0.135
-540.223	-200.000	-0.017	-0.313
-539.208	-29.286	-0.231	-0.134
-538.193	-37.461	0.354	-0.192
-537.179	152.205	-0.049	-0.068
-536.164	130.918	-0.115	-0.150
-535.150	96.027	0.166	-0.193
-534.135	70.480	0.313	-0.329
-533.121	800.000	-0.068	-0.259
-532.106	-200.000	-0.004	-0.253
-531.091	149.059	-0.120	-0.164
-530.077	156.243	0.188	-0.263
-529.062	800.000	0.113	0.400
-528.048	800.000	-0.063	-0.232
-527.033	-121.981	0.267	-0.044
-526.018	17.530	-0.160	0.129
-525.004	-176.549	-0.276	-0.007
-523.989	-106.440	-0.426	-0.096
-522.975	656.921	-0.072	0.188
-521.960	83.172	-0.144	-0.159
-520.945	59.662	0.007	0.007
-519.931	800.000	-0.082	-0.275
-518.916	41.773	-0.170	-0.157
-517.902	14.186	-0.038	0.030
-516.887	75.240	0.073	-0.078
-515.872	-90.250	-0.242	-0.071
-514.858	20.520	-0.025	-0.020
-513.843	-200.000	0.044	-0.337
-512.829	-200.000	0.020	-0.447
-511.814	-73.727	-0.320	0.118
-510.799	-66.346	-0.399	0.161
-509.785	-200.000	0.011	0.241
-508.770	-22.054	0.124	0.076
-507.756	-200.000	-0.018	0.479
-506.741	79.787	-0.076	-0.082
-505.726	159.094	0.083	-0.117
-504.712	-147.702	0.157	0.013
-503.697	-200.000	-0.000	-0.109
-502.683	29.395	-0.162	0.140
-501.668	-88.542	-0.062	-0.019
-500.653	-89.463	0.246	0.073
-499.639	-101.027	0.214	0.053
-498.624	-83.413	0.269	-0.087
-497.610	-200.000	0.012	0.121
-496.595	-63.692	-0.377	-0.156
-495.581	240.232	-0.115	0.195
-494.566	-6.120	-0.330	0.228
-493.551	800.000	0.037	-0.116
-492.537	800.000	-0.063	-0.248
-491.522	-41.558	0.171	-0.089
-490.508	-72.968	0.310	0.115
-489.493	-200.000	0.023	-0.370
-488.478	-93.232	-0.228	-0.064
-487.464	19.743	0.257	-0.209
-486.449	-200.000	0.010	-0.063
-485.435	153.400	-0.161	-0.224
-484.420	-200.000	0.064	0.304
-483.405	-8.121	-0.136	-0.093
-482.391	57.615	-0.071	-0.070
-481.376	-165.503	0.362	-0.016
-480.362	-200.000	0.002	0.087
-479.347	-13.183	0.199	-0.131
-478.332	800.000	0.107	0.326
-477.318	119.457	-0.198	-0.248
-476.303	-53.824	0.094	-0.043
-475.289	-200.000	-0.003	-0.073
-474.274	156.023	-0.217	0.303
-473.259	-200.000	0.052	0.336
-472.245	26.126	-0.029	0.024
-471.230	175.739	0.162	-0.237
-470.216	362.392	-0.066	0.134
-469.201	61.302	-0.085	0.086
-468.186	-104.090	0.101	0.024
-467.172	-73.009	-0.208	0.077
-466.157	-200.000	-0.037	0.340
-465.143	-200.000	-0.005	0.103
-464.128	-13.056	-0.213	0.140
-463.113	562.844	-0.145	-0.355
-462.099	154.666	-0.176	-0.244
-461.084	9.303	-0.246	-0.188
-460.070	140.279	-0.171	0.228
-459.055	10.845	0.225	0.174
-458.040	66.892	0.179	0.185
-457.026	69.225	-0.235	-0.244
-456.011	27.531	-0.130	-0.111
-454.997	-66.799	0.265	-0.106
-453.982	6.179	-0.025	0.019
-452.968	403.992	-0.145	0.309
-451.953	-200.000	0.034	0.306
-450.938	54.742	-0.052	-0.051
-449.924	25.449	-0.097	0.082
-448.909	800.000	0.068	0.233
-447.895	800.000	0.099	0.316
-446.880	252.506	0.176	0.304
-445.865	-82.678	-0.287	-0.094
-444.851	565.789	0.112	0.273
-443.836	-111.894	-0.107	-0.022
-442.822	110.664	-0.216	-0.263
-441.807	-200.000	-0.009	-0.201
-440.792	-47.375	0.197	0.097
-439.778	-54.530	-0.195	0.089
-438.763	-200.000	-0.009	0.139
-437.749	-76.383	0.178	0.063
-436.734	159.569	0.178	0.250
-435.719	-69.435	-0.221	0.086
-434.705	-172.447	0.526	-0.017
-433.690	121.361	0.183	-0.231
-432.676	-200.000	-0.005	0.152
-431.661	192.728	-0.122	-0.187
-430.646	800.000	-0.017	0.064
-429.632	15.734	0.059	-0.047
-428.617	398.068	-0.064	0.135
-427.603	142.271	-0.150	-0.201
-426.588	146.048	0.223	0.303
-425.573	-200.000	-0.037	0.194
-424.559	800.000	0.149	-0.490
-423.544	239.220	0.098	-0.164
-422.530	-32.793	0.333	0.187
-421.515	-127.713	0.030	0.004
-420.500	29.827	0.102	-0.088
-419.486	-200.000	0.000	-0.090
-418.471	-38.784	-0.170	0.091
-417.457	800.000	0.066	0.196
-416.442	-200.000	-0.003	0.223
-415.428	-39.773	-0.187	0.099
-414.413	170.109	0.257	0.371
-413.398	-200.000	-0.024	-0.115
-412.384	-35.517	0.092	-0.050
-411.369	24.361	-0.187	0.156
-410.355	-149.094	0.239	0.019
-409.340	-5.024	-0.344	-0.239
-408.325	-99.603	0.200	-0.051
-407.311	800.000	-0.028	0.085
-406.296	-80.884	-0.457	-0.153
-405.282	-87.506	0.386	-0.118
-404.267	-31.890	0.191	0.108
-403.252	47.043	-0.075	0.070
-402.238	-200.000	0.031	-0.245
-401.223	33.031	-0.177	-0.155
-400.209	-200.000	-0.005	0.202
-399.194	-200.000	0.014	0.176
-398.179	-151.300	-0.228	0.017
-397.165	134.100	0.096	-0.126
-396.150	800.000	0.061	-0.182
-395.136	-200.000	0.004	-0.046
-394.121	-128.803	-0.171	0.024
-393.106	-86.484	0.135	-0.042
-392.092	-117.606	-0.109	-0.020
-391.077	-200.000	0.006	-0.142
-390.063	368.913	-0.125	-0.255
-389.048	-200.000	-0.056	0.316
-388.033	-97.796	-0.203	-0.053
-387.019	228.506	-0.119	-0.195
-386.004	-31.778	0.152	0.086
-384.990	494.343	-0.077	-0.178
-383.975	28.854	-0.280	-0.240
-382.960	209.482	-0.158	0.250
-381.946	-36.679	0.136	-0.073
-380.931	-113.689	-0.149	0.029
-379.917	-15.677	0.054	-0.035
-378.902	-98.170	-0.139	-0.036
-377.888	-125.115	-0.224	-0.035
-376.873	800.000	-0.064	0.258
-375.858	85.330	0.154	0.171
-374.844	-137.680	0.220	-0.025
-373.829	800.000	-0.008	-0.031
-372.815	387.063	0.123	-0.255
-371.800	-49.948	0.230	-0.110
-370.785	-200.000	-0.024	-0.247
-369.771	800.000	-0.057	-0.205
-368.756	-60.296	0.098	-0.042
-367.742	-70.098	0.229	-0.088
-366.727	-101.195	0.301	-0.074
-365.712	148.711	0.234	0.318
-364.698	279.684	-0.112	0.202
-363.683	-200.000	0.044	-0.199
-362.669	-101.100	0.403	-0.099
-361.654	179.871	-0.154	0.227
-360.639	32.586	-0.151	0.131
-359.625	-138.502	-0.164	0.018
-358.610	800.000	-0.040	0.155
-357.596	268.117	0.022	0.038
-356.581	-128.383	0.220	0.032
-355.566	-154.840	0.255	0.017
-354.552	76.831	0.127	-0.135
-353.537	103.030	-0.103	-0.122
-352.523	254.635	-0.132	-0.228
-351.508	-200.000	0.008	0.456
-350.493	736.802	0.081	-0.218
-349.479	800.000	-0.073	-0.311
-348.464	360.851	0.201	-0.406
-347.450	172.392	0.115	0.166
-346.435	-200.000	0.014	0.124
-345.420	-137.454	0.343	-0.039
-344.406	233.891	0.086	0.142
-343.391	366.484	-0.183	0.371
-342.377	13.383	0.099	0.077
-341.362	135.429	0.242	0.317
-340.348	38.208	-0.103	-0.092
-339.333	181.583	-0.276	0.409
-338.318	-200.000	-0.001	0.131
-337.304	-167.241	0.320	-0.013
-336.289	359.591	0.106	-0.213
-335.275	-200.000	0.072	-0.413
-334.260	-82.990	-0.224	-0.073
-333.245	-52.528	0.303	0.141
-332.231	-152.286	-0.148	0.011
-331.216	-60.402	-0.237	-0.102
-330.202	139.376	-0.153	0.202
-329.187	147.074	0.186	0.252
-328.172	-30.970	0.033	-0.019
-327.158	53.310	0.118	0.113
-326.143	-51.627	-0.246	-0.115
-325.129	-66.072	-0.117	0.047
-324.114	76.713	-0.159	0.170
-323.099	-78.276	0.207	0.071
-322.085	89.544	0.080	-0.090
-321.070	-35.511	-0.237	0.130
-320.056	356.099	0.117	0.235
-319.041	-94.535	0.116	-0.032
-318.026	19.672	0.275	0.223
-317.012	-200.000	0.004	0.050
-315.997	64.494	-0.176	0.179
-314.983	-11.993	0.183	0.121
-313.968	720.602	-0.165	-0.442
-312.953	-89.464	-0.065	0.019
-311.939	-200.000	-0.021	-0.228
-310.924	216.996	0.178	0.285
-309.910	-200.000	-0.039	0.248
-308.895	40.911	-0.244	0.221
-307.880	-200.000	-0.029	0.231
-306.866	-169.704	-0.051	0.002
-305.851	-34.987	-0.224	0.123
-304.837	800.000	-0.036	0.104
-303.822	-82.698	0.136	0.044
-302.807	-134.993	0.483	-0.059
-301.793	-92.954	0.122	-0.034
-300.778	-200.000	-0.016	0.246
-299.764	800.000	0.048	-0.149
-298.749	6.820	0.210	0.157
-297.735	-103.810	-0.203	-0.048
-296.720	722.841	-0.056	0.150
-295.705	-91.940	0.296	-0.084
-294.691	-200.000	0.048	-0.371
-293.676	-200.000	0.013	-0.172
-292.662	-15.424	0.173	0.111
-291.647	606.824	-0.102	0.256
-290.632	184.291	0.291	0.433
-289.618	-200.000	-0.005	-0.104
-288.603	-200.000	-0.015	-0.214
-287.589	-200.000	0.006	0.261
-286.574	-63.763	-0.470	-0.194
-285.559	800.000	0.082	0.328
-284.545	-129.337	-0.320	-0.045
-283.530	208.274	-0.064	0.101
-282.516	347.134	-0.067	0.132
-281.501	800.000	-0.039	0.158
-280.486	-87.770	-0.568	-0.172
-279.472	-24.519	0.362	0.216
-278.457	35.729	0.159	0.140
-277.443	654.259	-0.133	-0.343
-276.428	800.000	-0.141	-0.393
-275.413	564.410	-0.090	-0.219
-274.399	800.000	0.059	0.167
-273.384	-66.663	-0.250	0.100
-272.370	-79.279	-0.258	0.088
-271.355	37.981	-0.058	0.052
-270.340	-0.796	-0.073	-0.052
-269.326	190.757	0.153	-0.232
-268.311	-50.186	-0.216	0.103
-267.297	-6.723	0.204	-0.139
-266.282	-120.863	-0.064	-0.011
-265.267	353.453	0.050	-0.101
-264.253	103.354	0.135	-0.159
-263.238	-86.173	-0.025	-0.008
-262.224	345.910	-0.098	-0.194
-261.209	667.774	0.072	-0.187
-260.195	800.000	0.061	0.215
-259.180	-32.421	0.065	-0.036
-258.165	-9.189	-0.221	-0.148
-257.151	-13.593	-0.302	0.196
-256.136	-0.548	0.260	-0.185
-255.122	67.556	0.271	-0.278
-254.107	100.832	0.190	-0.222
-253.092	80.488	-0.124	-0.134
-252.078	-74.779	-0.200	0.072
-251.063	-200.000	0.047	-0.250
-250.049	-66.333	-0.105	0.042
-249.034	32.255	0.014	-0.013
-248.019	-161.134	0.195	-0.010
-247.005	800.000	-0.030	0.131
-245.990	264.369	0.016	-0.027
-244.976	-200.000	-0.029	-0.129
-243.961	342.866	0.077	-0.151
-242.946	-173.506	0.140	-0.004
-241.932	-98.457	-0.436	0.112
-240.917	-20.457	0.242	0.149
-239.903	800.000	-0.110	0.445
-238.888	-9.818	0.408	0.272
-237.873	-72.322	0.384	0.143
-236.859	344.143	-0.183	0.359
-235.844	-200.000	0.026	0.243
-234.830	-27.122	0.245	-0.143
-233.815	126.001	0.119	0.151
-232.800	226.043	-0.125	0.203
-231.786	765.676	0.037	-0.101
-230.771	543.588	-0.068	0.162
-229.757	325.899	0.126	0.241
-228.742	517.413	0.080	0.187
-227.727	362.946	0.024	-0.049
-226.713	-111.785	0.240	-0.049
-225.698	96.643	0.151	0.173
-224.684	-28.552	-0.262	-0.151
-223.669	111.158	-0.154	-0.186
-222.655	-101.869	0.158	-0.038
-221.640	-79.800	-0.337	-0.114
-220.625	800.000	-0.045	0.139
-219.611	280.984	0.121	-0.217
-218.596	-111.639	-0.111	0.023
-217.582	-139.332	-0.165	0.018
-216.567	-130.325	0.120	0.016
-215.552	105.021	0.082	-0.097
-214.538	-116.493	0.086	0.016
-213.523	-38.697	0.221	-0.117
-212.509	-200.000	0.025	0.406
-211.494	-52.506	0.387	-0.179
-210.479	-200.000	0.210	0.001
-209.465	-200.000	0.009	0.224
-208.450	-179.024	-0.102	-0.002
-207.436	-18.417	0.335	-0.209
-206.421	12.159	0.310	-0.239
-205.406	-90.036	0.121	-0.035
-204.392	800.000	-0.071	0.260
-203.377	68.089	0.124	0.127
-202.363	34.253	0.172	-0.151
-201.348	42.379	-0.203	0.185
-200.333	-148.273	-0.194	-0.016
-199.319	800.000	-0.065	-0.279
-198.304	-200.000	-0.012	-0.206
-197.290	-200.000	0.010	0.083
-196.275	-68.165	0.208	-0.081
-195.260	-37.012	-0.148	0.080
-194.246	-159.349	0.381	-0.021
-193.231	245.307	-0.113	0.191
-192.217	-66.098	0.180	-0.072
-191.202	206.730	-0.132	-0.206
-190.187	358.395	-0.152	0.304
-189.173	-134.249	-0.161	0.020
-188.158	-76.179	0.088	0.031
-187.144	-0.631	-0.149	0.106
-186.129	-200.000	-0.017	0.189
-185.114	-200.000	-0.015	0.249
-184.100	-90.388	0.075	0.022
-183.085	43.539	0.152	-0.139
-182.071	-30.031	-0.196	-0.112
-181.056	800.000	0.064	0.204
-180.042	49.280	-0.178	-0.167
-179.027	74.922	0.227	0.239
-178.012	800.000	-0.056	-0.156
-176.998	-124.378	0.094	0.015
-175.983	-28.142	-0.065	0.038
-174.969	461.009	-0.042	-0.093
-173.954	-200.000	0.002	0.213
-172.939	141.621	-0.191	-0.252
-171.925	20.453	0.189	-0.153
-170.910	8.321	-0.177	0.133
-169.896	286.680	0.136	0.245
-168.881	-126.873	0.276	-0.041
-167.866	-200.000	0.019	-0.186
-166.852	-100.383	-0.485	-0.120
-165.837	114.159	0.135	0.164
-164.823	-200.000	0.009	0.044
-163.808	27.475	-0.325	-0.273
-162.793	788.111	0.111	-0.304
-161.779	117.254	-0.135	0.166
-160.764	85.495	-0.094	0.103
-159.750	155.597	0.175	-0.241
-158.735	128.456	-0.079	-0.101
-157.720	170.961	-0.220	-0.316
-156.706	728.597	0.165	0.440
-155.691	13.895	0.111	0.086
-154.677	-77.446	0.106	-0.037
-153.662	-9.050	0.205	-0.137
-152.647	800.000	-0.020	-0.078
-151.633	-48.093	-0.197	-0.095
-150.618	-100.368	-0.127	0.031
-149.604	-200.000	0.029	0.174
-148.589	-132.586	0.202	0.026
-147.574	-71.671	-0.260	0.097
-146.560	800.000	0.081	0.319
-145.545	743.388	-0.145	-0.390
-144.531	800.000	-0.051	0.160
-143.516	800.000	0.044	0.158
-142.502	-111.491	0.238	-0.048
-141.487	500.803	-0.069	0.160
-140.472	56.424	0.093	-0.090
-139.458	104.011	-0.146	0.171
-138.443	-28.767	-0.243	0.140
-137.429	116.482	0.289	0.353
-136.414	-94.170	-0.182	0.050
-135.399	-142.949	-0.171	0.017
-134.385	90.370	-0.102	-0.114
-133.370	151.981	-0.141	0.192
-132.356	-200.000	0.035	0.212
-131.341	-57.264	-0.066	0.029
-130.326	-200.000	0.066	-0.287
-129.312	-173.953	0.427	-0.013
-128.297	-122.103	0.070	0.012
-127.283	480.766	-0.070	0.158
-126.268	11.476	0.170	0.130
-125.253	-76.755	0.167	-0.058
-124.239	18.575	-0.171	-0.136
-123.224	69.908	0.111	0.114
-122.210	-133.019	-0.362	0.046
-121.195	-140.119	-0.324	0.034
-120.180	128.212	0.072	0.091
-119.166	-93.376	0.290	0.080
-118.151	-12.630	0.128	-0.083
-117.137	-200.000	-0.097	0.650
-116.122	10.122	-0.221	-0.168
-115.107	-151.775	0.167	-0.012
-114.093	-200.000	0.013	0.131
-113.078	-151.665	-0.120	0.009
-112.064	800.000	0.039	-0.108
-111.049	-200.000	-0.016	0.251
-110.034	-200.000	-0.020	-0.124
-109.020	-131.206	-0.032	0.004
-108.005	-18.465	0.238	-0.149
-106.991	352.746	0.092	0.182
-105.976	777.863	-0.110	0.299
-104.962	84.633	-0.247	0.270
-103.947	-200.000	-0.005	-0.171
-102.932	83.150	0.203	0.221
-101.918	800.000	0.040	0.120
-100.903	356.549	0.019	-0.038
-99.889	27.890	-0.370	0.311
-98.874	-153.727	0.203	-0.014
-97.859	-200.000	0.008	0.176
-96.845	-200.000	-0.006	0.090
-95.830	644.807	-0.044	0.112
-94.816	285.016	0.048	-0.086
-93.801	77.681	-0.029	0.031
-92.786	-93.536	0.222	0.061
-91.772	2.418	0.109	-0.079
-90.757	-119.268	-0.161	0.028
-89.743	-120.140	0.171	-0.029
-88.728	264.873	-0.051	-0.089
-87.713	-90.933	-0.171	-0.049
-86.699	222.962	-0.043	0.069
-85.684	800.000	0.042	0.134
-84.670	236.805	0.113	0.186
-83.655	-200.000	0.010	0.180
-82.640	59.627	-0.017	0.016
-81.626	14.432	-0.256	-0.199
-80.611	408.823	0.089	0.188
-79.597	-129.050	-0.091	0.013
-78.582	-200.000	-0.017	-0.116
-77.567	-175.400	0.204	0.006
-76.553	105.959	-0.135	-0.159
-75.538	32.362	0.032	-0.028
-74.524	50.288	0.155	-0.146
-73.509	505.815	0.063	-0.145
-72.494	-200.000	0.024	-0.236
-71.480	104.252	-0.109	0.128
-70.465	143.244	-0.147	0.195
-69.451	-73.632	-0.141	0.051
-68.436	-200.000	0.027	-0.120
-67.422	-70.109	0.288	0.109
-66.407	71.933	-0.194	0.201
-65.392	228.929	0.095	0.154
-64.378	22.513	0.031	-0.025
-63.363	-200.000	0.012	0.284
-62.349	-120.826	-0.227	-0.038
-61.334	64.059	-0.762	-0.763
-60.319	800.000	0.044	0.175
-59.305	-200.000	-0.014	-1.001
-58.290	229.872	0.583	0.948
-57.276	692.849	0.630	1.644
-56.261	-200.000	83.572	517.308
-55.246	500.712	1360.556	3125.514
-54.232	146.590	2583.075	3454.456
-53.217	113.176	2238.172	2702.158
-52.203	50.148	1688.842	1587.224
-51.188	42.500	1419.103	1284.979
-50.173	39.151	1375.158	1224.318
-49.159	57.731	1416.257	1378.529
-48.144	62.894	1435.466	1429.738
-47.130	42.866	1394.293	1264.609
-46.115	39.080	1377.103	1225.415
-45.100	38.955	1372.012	1220.056
-44.086	38.758	1369.876	1216.887
-43.071	38.810	1367.290	1214.867
-42.057	38.809	1364.933	1212.718
-41.042	38.883	1363.191	1211.576
-40.027	38.794	1362.379	1210.261
-39.013	38.901	1359.985	1208.741
-37.998	38.842	1358.229	1206.772
-36.984	38.939	1356.481	1205.770
-35.969	38.914	1354.833	1204.100
-34.954	39.011	1353.023	1203.036
-33.940	39.125	1351.283	1202.140
-32.925	39.064	1350.269	1200.821
-31.911	39.117	1348.535	1199.550
-30.896	39.058	1347.302	1198.049
-29.881	39.076	1345.703	1196.686
-28.867	39.084	1343.980	1195.159
-27.852	39.083	1342.680	1193.951
-26.838	39.119	1341.558	1193.123
-25.823	39.085	1339.655	1191.174
-24.809	39.021	1338.205	1189.451
-23.794	39.030	1336.878	1188.277
-22.779	39.115	1335.592	1187.600
-21.765	39.147	1334.458	1186.743
-20.750	39.017	1332.889	1184.516
-19.736	38.949	1331.779	1183.072
-18.721	38.898	1331.246	1182.246
-17.706	38.845	1329.415	1180.252
-16.692	38.944	1327.724	1179.299
-15.677	38.947	1327.098	1178.712
-14.663	38.972	1326.007	1177.844
-13.648	39.020	1325.216	1177.387
-12.633	38.789	1324.168	1175.021
-11.619	38.806	1323.291	1174.303
-10.604	38.789	1322.111	1173.107
-9.590	38.863	1321.216	1172.706
-8.575	38.870	1320.435	1172.006
-7.560	38.928	1319.032	1171.062
-6.546	38.954	1317.945	1170.206
-5.531	38.857	1317.823	1169.473
-4.517	38.927	1316.826	1168.958
-3.502	38.868	1316.132	1167.948
-2.487	39.038	1314.285	1167.269
-1.473	39.014	1310.397	1163.627
-0.458	37.383	1294.946	1140.301
0.556	31.609	1273.686	1088.484
1.571	25.746	1274.514	1054.861
2.586	23.185	1287.673	1050.475
3.600	21.272	1275.741	1029.390
4.615	15.427	1199.202	935.073
5.629	6.062	1117.593	822.527
6.644	1.235	1094.348	780.560
7.659	0.842	1091.989	776.789
8.673	0.842	1090.733	775.828
9.688	0.793	1089.559	774.672
10.702	0.952	1088.077	774.365
11.717	5.656	1094.808	803.250
12.731	13.718	1105.428	852.565
13.746	17.545	1109.126	875.045
14.761	17.527	1108.929	874.718
15.775	16.698	1106.831	868.733
16.790	15.771	1104.646	862.194
17.804	14.933	1103.186	856.686
18.819	14.575	1101.841	853.735
19.834	14.263	1101.011	851.420
20.848	14.033	1099.986	849.379
21.863	13.790	1099.288	847.524
22.877	13.630	1098.859	846.300
23.892	13.618	1097.961	845.474
24.907	13.644	1097.015	844.803
25.921	13.614	1096.277	844.007
26.936	13.700	1095.378	843.674
27.950	13.675	1094.369	842.699
28.965	13.829	1093.217	842.515
29.980	13.866	1091.260	841.120
30.994	13.924	1090.528	840.778
32.009	13.816	1089.800	839.594
33.023	13.916	1088.203	838.796
34.038	13.740	1087.285	837.124
35.053	13.804	1086.655	836.889
36.067	13.707	1085.684	835.577
37.082	13.766	1084.716	835.057
38.096	13.770	1084.026	834.474
39.111	13.774	1083.497	834.013
40.126	13.682	1082.109	832.409
41.140	13.844	1080.300	831.754
42.155	13.552	1080.140	830.096
43.169	13.634	1078.699	829.324
44.184	13.694	1077.696	828.780
45.199	13.560	1076.887	827.414
46.213	13.642	1075.780	826.901
47.228	13.649	1074.869	826.160
48.242	13.777	1073.634	825.778
49.257	13.568	1072.875	824.082
50.271	13.713	1071.918	823.992
51.286	13.715	1070.978	823.208
52.301	13.778	1069.932	822.644
53.315	13.779	1068.641	821.581
54.330	13.666	1067.774	820.281
55.344	13.684	1066.708	819.480
56.359	13.635	1066.110	818.705
57.374	13.651	1064.963	817.832
58.388	13.663	1063.797	816.921
59.403	13.551	1063.650	816.185
60.417	13.576	1062.810	815.595
61.432	13.490	1061.714	814.256
62.447	13.629	1061.051	814.362
63.461	13.587	1060.183	813.416
64.476	13.521	1059.061	812.157
65.490	13.506	1058.275	811.412
66.505	13.574	1057.498	811.078
67.520	13.531	1057.022	810.431
68.534	13.613	1056.524	810.378
69.549	13.620	1055.647	809.666
70.563	13.585	1054.843	808.808
71.578	13.556	1053.903	807.874
72.593	13.483	1053.482	807.125
73.607	13.462	1052.670	806.327
74.622	13.500	1052.127	806.023
75.636	13.532	1050.958	805.216
76.651	13.439	1050.589	804.406
77.666	13.467	1049.961	803.992
78.680	13.394	1049.327	803.082
79.695	13.531	1048.576	803.098
80.709	13.659	1047.569	802.878
81.724	13.705	1047.071	802.644
82.739	13.642	1046.466	801.808
83.753	13.682	1045.536	801.215
84.768	13.806	1044.703	801.105
85.782	13.811	1043.310	799.994
86.797	13.747	1042.696	799.140
87.812	13.686	1042.072	798.301
88.826	13.686	1040.852	797.295
89.841	13.711	1040.128	796.790
90.855	13.686	1039.274	795.944
91.870	13.771	1038.549	795.728
92.884	13.840	1037.642	795.292
93.899	13.737	1036.653	793.971
94.914	13.879	1035.782	793.911
95.928	13.729	1034.784	792.359
96.943	13.734	1034.409	792.025
97.957	13.751	1033.005	790.962
98.972	13.622	1032.763	790.093
99.987	13.689	1031.534	789.399
101.001	13.827	1030.120	788.905
102.016	13.841	1029.313	788.284
103.030	13.733	1028.765	787.281
104.045	13.821	1027.720	786.828
105.060	13.770	1026.617	785.675
106.074	13.757	1025.913	785.005
107.089	13.593	1025.073	783.517
108.103	13.570	1024.185	782.659
109.118	13.667	1023.056	782.187
110.133	13.782	1021.845	781.734
111.147	13.584	1021.147	780.196
112.162	13.681	1020.306	779.943
113.176	13.776	1019.309	779.559
114.191	13.715	1018.913	778.899
115.206	13.720	1018.114	778.241
116.220	13.679	1017.305	777.363
117.235	13.653	1016.214	776.339
118.249	13.706	1015.541	776.002
119.264	13.602	1014.821	774.901
120.279	13.739	1013.601	774.537
121.293	13.767	1012.548	773.798
122.308	13.774	1011.567	773.013
123.322	13.663	1010.724	771.783
124.337	13.677	1010.007	771.232
125.352	13.704	1008.809	770.372
126.366	13.598	1008.073	769.252
127.381	13.713	1006.611	768.600
128.395	13.702	1005.552	767.672
129.410	13.707	1005.047	767.241
130.424	13.814	1003.837	766.746
131.439	13.794	1003.022	765.965
132.454	13.840	1002.437	765.660
133.468	13.810	1001.551	764.778
134.483	13.832	1000.444	763.968
135.497	13.869	1000.134	763.831
136.512	13.823	999.024	762.706
137.527	13.846	997.988	761.953
138.541	13.897	997.164	761.488
139.556	13.759	996.741	760.469
140.570	14.013	995.911	760.930
141.585	13.899	995.278	759.857
142.600	13.964	994.225	759.282
143.614	13.934	993.245	758.331
144.629	14.091	992.175	758.161
145.643	13.875	991.697	756.744
146.658	13.911	990.508	755.935
147.673	13.903	989.502	755.065
148.687	13.962	988.538	754.532
149.702	13.907	987.394	753.341
150.716	13.853	986.819	752.593
151.731	13.874	986.277	752.208
152.746	13.914	985.733	751.903
153.760	13.816	985.312	751.074
154.775	13.892	984.706	750.890
155.789	14.026	983.554	750.548
156.804	14.083	982.740	750.119
157.819	13.988	982.166	749.189
158.833	14.052	981.487	748.891
159.848	14.016	980.823	748.155
160.862	14.085	979.738	747.570
161.877	13.971	978.670	746.177
162.892	14.005	977.610	745.458
163.906	14.072	976.296	744.689
164.921	14.050	975.462	743.887
165.935	14.026	975.028	743.384
166.950	14.074	973.751	742.559
167.964	14.074	973.079	741.979
168.979	14.070	972.409	741.386
169.994	13.951	971.262	739.919
171.008	14.173	970.643	740.367
172.023	14.183	970.033	739.881
173.037	14.174	969.005	738.992
174.052	14.155	968.452	738.420
175.067	14.163	967.687	737.808
176.081	14.026	967.738	737.174
177.096	14.167	966.488	736.781
178.110	14.176	965.854	736.274
179.125	14.146	965.603	735.884
180.140	14.166	964.816	735.308
181.154	14.154	964.648	735.060
182.169	14.180	963.881	734.524
183.183	14.228	963.194	734.150
184.198	14.223	962.321	733.398
185.213	14.345	961.294	733.084
186.227	14.227	961.041	732.311
187.242	14.328	960.147	732.005
188.256	14.394	959.552	731.778
189.271	14.414	958.729	731.174
190.286	14.208	958.268	729.856
191.300	14.093	957.887	728.995
192.315	14.038	956.928	727.958
193.329	14.133	956.655	728.105
194.344	14.326	955.606	728.084
195.359	14.303	954.496	727.073
196.373	14.214	954.461	726.594
197.388	14.471	953.574	726.977
198.402	14.328	953.499	726.230
199.417	14.474	952.434	725.992
200.432	14.558	951.528	725.600
201.446	14.643	951.322	725.748
202.461	14.571	951.052	725.169
203.475	14.620	950.215	724.679
204.490	14.677	949.103	724.014
205.504	14.632	948.370	723.192
206.519	14.573	947.704	722.368
207.534	14.554	947.057	721.726
208.548	14.370	946.780	720.655
209.563	14.654	945.673	720.979
210.577	14.683	944.914	720.462
211.592	14.613	944.451	719.743
212.607	14.771	943.397	719.555
213.621	14.650	942.967	718.641
214.636	14.623	942.230	717.901
215.650	14.582	941.707	717.261
216.665	14.822	940.787	717.531
217.680	14.770	940.170	716.771
218.694	14.888	939.262	716.520
219.709	14.841	938.632	715.777
220.723	14.676	938.024	714.545
221.738	14.640	937.231	713.721
222.753	14.659	936.690	713.328
223.767	14.721	936.401	713.310
224.782	14.751	935.590	712.756
225.796	14.955	934.733	712.911
226.811	14.852	934.256	712.043
227.826	14.823	933.350	711.167
228.840	14.934	932.410	710.863
229.855	14.860	931.737	709.970
230.869	14.912	930.957	709.535
231.884	14.843	930.505	708.836
232.899	14.810	929.343	707.746
233.913	14.844	928.584	707.251
234.928	14.774	928.596	706.899
235.942	14.972	927.831	707.093
236.957	14.954	926.784	706.155
237.972	14.955	926.286	705.716
238.986	14.871	925.731	704.878
240.001	14.935	925.240	704.714
241.015	14.967	924.427	704.165
242.030	14.914	923.866	703.451
243.045	14.945	923.361	703.137
244.059	15.028	922.720	702.934
245.074	15.022	921.945	702.256
246.088	15.103	921.282	702.028
247.103	14.985	920.912	701.189
248.117	15.026	920.623	701.078
249.132	15.276	919.279	701.042
250.147	15.347	918.351	700.567
251.161	15.164	917.953	699.438
252.176	15.120	917.519	698.860
253.190	15.262	916.753	698.807
254.205	15.278	915.879	698.145
255.220	15.292	915.303	697.702
256.234	15.292	914.806	697.264
257.249	15.282	914.153	696.661
258.263	15.327	913.582	696.351
259.278	15.305	912.702	695.529
260.293	15.453	911.732	695.340
261.307	15.479	911.468	695.188
262.322	15.482	910.567	694.450
263.336	15.426	910.027	693.747
264.351	15.626	909.147	693.840
265.366	15.577	908.664	693.208
266.380	15.504	907.966	692.311
267.395	15.365	907.435	691.273
268.409	15.482	906.281	690.816
269.424	15.541	905.583	690.465
270.439	15.594	905.046	690.209
271.453	15.607	904.234	689.585
272.468	15.562	903.728	688.954
273.482	15.526	903.030	688.212
274.497	15.563	902.642	688.006
275.512	15.584	902.298	687.767
276.526	15.677	901.335	687.354
277.541	15.560	900.859	686.451
278.555	15.676	900.052	686.253
279.570	15.799	899.472	686.251
280.585	15.761	898.927	685.619
281.599	15.841	898.176	685.311
282.614	15.740	897.092	684.011
283.628	15.766	896.844	683.868
284.643	15.981	895.793	683.881
285.657	15.819	895.165	682.681
286.672	15.772	894.981	682.289
287.687	15.806	894.084	681.684
288.701	15.806	893.527	681.199
289.716	15.855	893.011	680.944
290.730	15.910	892.360	680.609
291.745	15.930	891.666	680.100
292.760	15.852	891.346	679.483
293.774	15.958	890.749	679.393
294.789	15.897	890.107	678.600
295.803	16.034	888.892	678.164
296.818	15.962	888.229	677.308
297.833	15.931	887.597	676.642
298.847	15.915	887.160	676.185
299.862	16.020	886.294	675.887
300.876	15.980	886.002	675.442
301.891	16.054	885.348	675.180
302.906	16.129	884.777	674.986
303.920	16.227	884.285	674.941
304.935	16.081	883.620	673.791
305.949	16.160	882.700	673.346
306.964	16.093	882.623	672.961
307.979	16.255	881.494	672.686
308.993	16.304	881.164	672.571
310.008	16.110	880.789	671.453
311.022	16.296	879.769	671.355
312.037	16.176	879.521	670.628
313.052	16.283	878.399	670.138
314.066	16.289	877.762	669.616
315.081	16.330	877.553	669.560
316.095	16.320	876.670	668.789
317.110	16.301	876.229	668.316
318.125	16.259	876.019	667.932
319.139	16.347	875.328	667.695
320.154	16.386	874.710	667.319
321.168	16.191	874.601	666.406
322.183	16.271	873.739	666.006
323.197	16.410	873.445	666.269
324.212	16.286	872.752	665.194
325.227	16.287	872.063	664.613
326.241	16.380	871.365	664.388
327.256	16.346	870.952	663.880
328.270	16.338	870.414	663.380
329.285	16.287	870.039	662.837
330.300	16.410	868.918	662.408
331.314	16.333	868.358	661.620
332.329	16.366	868.272	661.623
333.343	16.522	867.720	661.755
334.358	16.560	867.050	661.337
335.373	16.579	866.785	661.150
336.387	16.564	866.505	660.819
337.402	16.583	866.308	660.682
338.416	16.599	865.875	660.355
339.431	16.598	865.318	659.871
340.446	16.650	864.711	659.553
341.460	16.631	864.700	659.412
342.475	16.762	863.904	659.256
343.489	16.624	864.085	658.797
344.504	16.760	863.191	658.587
345.519	16.790	862.902	658.424
346.533	16.826	862.230	657.993
347.548	16.740	861.827	657.294
348.562	16.780	860.934	656.710
349.577	16.809	860.508	656.438
350.592	16.687	860.003	655.525
351.606	16.696	859.105	654.817
352.621	16.706	858.251	654.145
353.635	16.766	857.748	653.937
354.650	16.849	857.472	653.987
355.665	16.795	856.838	653.240
356.679	16.806	856.197	652.735
357.694	16.850	855.257	652.129
358.708	16.911	854.409	651.659
359.723	16.993	853.731	651.399
360.738	16.880	853.403	650.658
361.752	17.025	852.721	650.638
362.767	16.968	852.008	649.816
363.781	16.966	851.539	649.394
364.796	17.044	850.955	649.189
365.810	17.092	850.794	649.191
366.825	17.198	850.299	649.161
367.840	17.106	849.805	648.375
368.854	17.020	849.613	647.843
369.869	17.168	848.848	647.766
370.883	17.144	848.534	647.377
371.898	17.021	848.588	646.894
372.913	17.271	847.721	647.125
373.927	17.087	847.167	645.947
374.942	17.261	846.725	646.214
375.956	17.232	846.421	645.815
376.971	17.225	845.886	645.325
377.986	17.353	845.493	645.453
379.000	17.417	844.852	645.147
380.015	17.423	844.611	644.929
381.029	17.317	843.869	643.907
382.044	17.454	843.035	643.731
383.059	17.264	842.654	642.663
384.073	17.362	841.836	642.354
385.088	17.416	841.353	642.133
386.102	17.448	840.887	641.842
387.117	17.459	839.956	641.113
388.132	17.303	839.630	640.219
389.146	17.539	838.940	640.524
390.161	17.454	838.638	639.920
391.175	17.642	838.046	640.117
392.190	17.478	837.608	639.112
393.205	17.538	837.057	638.858
394.219	17.661	836.528	638.857
395.234	17.252	836.843	637.511
396.248	17.372	836.057	637.304
397.263	17.378	835.223	636.636
398.278	17.547	834.827	636.908
399.292	17.565	834.531	636.694
400.307	17.466	834.271	636.067
401.321	17.514	833.685	635.746
402.336	17.476	833.307	635.260
403.350	17.564	832.732	635.091
404.365	17.689	832.085	635.008
405.380	17.614	832.049	634.644
406.394	17.723	831.057	634.236
407.409	17.753	830.509	633.876
408.423	17.725	830.294	633.551
409.438	17.827	829.807	633.501
410.453	17.767	829.634	633.091
411.467	17.851	829.137	632.966
412.482	17.882	828.630	632.638
413.496	17.983	828.384	632.770
414.511	18.003	827.877	632.399
415.526	17.871	827.876	631.855
416.540	17.919	827.061	631.354
417.555	17.916	826.588	630.925
418.569	17.909	826.179	630.531
419.584	18.000	825.711	630.454
420.599	17.986	825.317	630.048
421.613	97.578	1277.834	1406.395
422.628	84.188	1343.786	1406.509
