DTS Sentinel unit serial number:	SN413079Multiplexer serial number:	ORYXHardware model number:	OX4-SRSoftware version number:	ORYX F/W v4.00 Oryx Data Collector v3.7.2.0data status	okinstallation	princeton_trtdifferential loss correction	single-endedforward channel	channel 1reverse channel	N/Adate	2019/09/15time	22:30:35forward acquisition time	60.00reverse acquisition time	0.00gamma	496.2192k internal	0.2331k external	0.2331temperature offset calibration	0.9969default loss term (dB/km)	0.3790temperature slope calibration	1.0000multiplexer offset coefficient	1.0000multiplexer slope coefficient	1.0000fibre end	0.00T internal ref (°C)	29.12T ext. ref 1 (°C)	8.74T ext. ref 2 (°C)	22.57length (m)	temperature (°C)	Stokes	anti-Stokes-747.200	32.542	-0.122	0.106
-746.185	-30.304	0.039	0.022
-745.171	-200.000	-0.057	0.318
-744.156	800.000	-0.044	0.180
-743.142	230.143	0.237	0.391
-742.127	800.000	0.010	0.043
-741.112	-71.656	0.281	-0.105
-740.098	311.187	0.197	0.372
-739.083	9.427	0.265	0.201
-738.069	-200.000	0.007	0.202
-737.054	800.000	-0.049	0.141
-736.039	193.369	0.039	-0.059
-735.025	800.000	0.073	-0.226
-734.010	271.165	-0.054	-0.096
-732.996	-104.733	-0.207	0.048
-731.981	-13.356	0.101	-0.066
-730.966	-119.738	-0.358	-0.062
-729.952	-63.117	0.034	-0.014
-728.937	192.154	-0.048	0.073
-727.923	800.000	0.065	0.267
-726.908	137.173	0.190	-0.250
-725.894	442.594	-0.037	0.082
-724.879	-180.494	0.157	-0.003
-723.864	-90.986	-0.147	0.043
-722.850	231.593	-0.162	-0.267
-721.835	500.264	-0.037	0.085
-720.821	141.715	-0.242	0.322
-719.806	709.183	0.052	0.137
-718.791	-107.629	-0.358	0.079
-717.777	800.000	0.071	-0.237
-716.762	-200.000	-0.008	0.134
-715.748	-200.000	-0.031	-0.338
-714.733	101.953	-0.117	-0.137
-713.718	-114.232	-0.460	0.089
-712.704	-25.456	-0.157	0.093
-711.689	244.148	-0.093	-0.157
-710.675	457.817	0.056	0.125
-709.660	-0.260	0.037	-0.026
-708.645	-5.385	0.291	-0.201
-707.631	338.413	-0.175	-0.342
-706.616	-102.071	0.198	-0.048
-705.602	800.000	0.059	0.166
-704.587	235.391	0.165	-0.275
-703.572	-200.000	0.006	-0.266
-702.558	-7.010	-0.307	-0.209
-701.543	-139.893	0.335	-0.036
-700.529	800.000	-0.109	-0.413
-699.514	-19.476	-0.257	-0.160
-698.499	250.293	-0.076	-0.130
-697.485	-91.554	-0.149	0.043
-696.470	-129.568	-0.239	0.033
-695.456	32.375	0.158	0.137
-694.441	-200.000	-0.070	-0.406
-693.426	-17.215	-0.064	-0.041
-692.412	304.086	0.190	-0.354
-691.397	-82.096	-0.171	-0.056
-690.383	-200.000	0.013	0.074
-689.368	79.972	-0.177	-0.192
-688.354	-5.526	0.219	-0.151
-687.339	157.206	0.224	-0.312
-686.324	503.080	0.140	-0.325
-685.310	-0.091	0.310	0.222
-684.295	800.000	0.052	-0.195
-683.281	-200.000	0.041	-0.318
-682.266	-93.987	-0.328	0.090
-681.251	800.000	0.021	-0.078
-680.237	-200.000	0.017	0.323
-679.222	-12.204	-0.262	-0.172
-678.208	284.456	-0.059	0.107
-677.193	334.573	-0.154	0.300
-676.178	-103.587	-0.398	-0.094
-675.164	102.184	-0.206	-0.241
-674.149	263.333	0.047	0.082
-673.135	800.000	-0.060	0.241
-672.120	-107.390	0.065	-0.014
-671.105	769.938	0.034	-0.094
-670.091	209.666	0.135	-0.213
-669.076	-186.075	-0.248	0.004
-668.062	-125.659	0.129	0.020
-667.047	-156.261	-0.314	-0.020
-666.032	-83.872	0.225	-0.072
-665.018	-200.000	-0.009	0.267
-664.003	800.000	0.034	0.134
-662.989	-117.057	0.229	0.042
-661.974	-148.764	0.286	-0.023
-660.959	-118.238	-0.031	-0.006
-659.945	-90.891	-0.265	0.077
-658.930	123.923	0.109	0.137
-657.916	800.000	-0.054	0.230
-656.901	800.000	-0.009	0.027
-655.886	-17.744	0.149	-0.094
-654.872	133.426	-0.067	-0.086
-653.857	65.269	-0.201	-0.203
-652.843	-124.130	-0.228	-0.036
-651.828	-200.000	-0.022	-0.370
-650.814	72.930	-0.150	-0.157
-649.799	800.000	-0.209	0.626
-648.784	-200.000	-0.015	0.069
-647.770	516.477	-0.069	0.161
-646.755	-143.837	0.187	-0.018
-645.741	779.358	-0.139	0.382
-644.726	-162.746	0.075	0.004
-643.711	4.375	0.158	0.116
-642.697	-10.592	0.207	-0.138
-641.682	-117.010	0.062	-0.011
-640.668	1.122	-0.276	-0.199
-639.653	227.208	0.173	0.283
-638.638	800.000	-0.075	-0.290
-637.624	129.535	0.113	-0.145
-636.609	-82.714	0.110	0.036
-635.595	124.836	-0.171	-0.215
-634.580	-200.000	-0.048	0.352
-633.565	-200.000	-0.023	-0.159
-632.551	43.963	0.155	-0.143
-631.536	-200.000	0.002	-0.070
-630.522	514.136	-0.132	-0.309
-629.507	-200.000	-0.018	0.127
-628.492	84.975	0.104	0.114
-627.478	-121.563	-0.085	0.014
-626.463	-200.000	0.070	-0.335
-625.449	-200.000	0.030	-0.153
-624.434	662.096	-0.080	0.207
-623.419	-200.000	-0.034	-0.210
-622.405	-137.011	0.273	0.031
-621.390	82.013	-0.159	-0.172
-620.376	-84.434	0.209	0.066
-619.361	565.889	-0.140	-0.339
-618.346	800.000	0.042	-0.173
-617.332	-64.887	0.178	0.072
-616.317	800.000	-0.012	0.035
-615.303	-200.000	0.001	0.029
-614.288	-16.459	-0.197	-0.125
-613.273	166.791	0.034	-0.048
-612.259	1.178	0.352	-0.253
-611.244	-145.058	-0.039	-0.004
-610.230	7.792	-0.200	-0.150
-609.215	97.549	0.105	0.121
-608.201	150.427	-0.019	-0.026
-607.186	-135.800	-0.385	-0.046
-606.171	-112.268	0.288	-0.058
-605.157	379.408	-0.154	-0.317
-604.142	-143.796	0.459	0.043
-603.128	144.200	0.089	-0.119
-602.113	3.896	0.226	0.166
-601.098	345.432	-0.076	0.150
-600.084	74.979	0.133	-0.140
-599.069	232.530	-0.148	0.243
-598.055	-9.003	0.166	-0.111
-597.040	562.320	-0.118	-0.287
-596.025	-200.000	0.002	-0.181
-595.011	-21.117	-0.158	-0.097
-593.996	-65.842	-0.149	0.060
-592.982	69.803	0.143	-0.148
-591.967	20.518	-0.132	-0.106
-590.952	-103.453	0.213	0.050
-589.938	-200.000	-0.028	0.130
-588.923	27.518	-0.159	0.134
-587.909	-60.693	-0.518	0.220
-586.894	800.000	-0.015	-0.056
-585.879	-60.832	-0.232	-0.098
-584.865	-200.000	0.002	-0.060
-583.850	800.000	0.103	-0.336
-582.836	800.000	0.015	0.052
-581.821	49.618	0.162	0.152
-580.806	-200.000	-0.049	0.255
-579.792	383.008	0.098	-0.203
-578.777	-151.571	0.315	-0.023
-577.763	-84.525	-0.353	0.112
-576.748	-48.094	-0.263	0.127
-575.733	-129.390	-0.221	-0.031
-574.719	78.097	-0.243	-0.259
-573.704	455.356	-0.060	0.132
-572.690	-200.000	-0.020	-0.234
-571.675	53.885	0.137	0.131
-570.661	-200.000	0.016	0.178
-569.646	-55.181	-0.168	0.076
-568.631	7.480	-0.069	0.051
-567.617	-200.000	0.021	-0.107
-566.602	-200.000	-0.004	0.175
-565.588	800.000	0.054	0.153
-564.573	-101.216	-0.026	-0.006
-563.558	-110.661	0.204	0.042
-562.544	800.000	0.005	-0.019
-561.529	189.926	-0.152	0.228
-560.515	112.074	-0.170	-0.205
-559.500	-15.852	0.104	-0.066
-558.485	-130.342	-0.203	0.027
-557.471	66.169	-0.189	0.192
-556.456	-27.890	-0.088	-0.051
-555.442	-12.777	-0.058	-0.038
-554.427	-69.968	-0.076	-0.029
-553.412	-72.854	0.045	-0.017
-552.398	-96.900	-0.527	-0.138
-551.383	-200.000	0.007	-0.132
-550.369	63.169	0.239	-0.239
-549.354	-200.000	0.009	-0.161
-548.339	367.278	-0.157	0.316
-547.325	38.047	0.096	0.085
-546.310	800.000	-0.076	0.317
-545.296	455.395	-0.069	0.153
-544.281	-200.000	0.003	-0.446
-543.266	44.772	0.088	0.081
-542.252	-200.000	0.002	-0.034
-541.237	-107.965	-0.330	0.072
-540.223	-101.671	-0.261	0.063
-539.208	-71.514	0.026	-0.010
-538.193	-120.752	0.609	0.103
-537.179	199.564	-0.240	0.367
-536.164	628.835	0.042	0.105
-535.150	800.000	-0.052	-0.227
-534.135	-3.314	0.150	0.105
-533.121	30.730	-0.203	-0.174
-532.106	-9.575	0.247	-0.165
-531.091	4.898	0.075	-0.055
-530.077	-57.689	-0.098	-0.043
-529.062	290.468	0.048	0.086
-528.048	433.821	-0.095	0.207
-527.033	-200.000	-0.019	0.433
-526.018	-39.950	-0.127	0.066
-525.004	-47.661	0.082	0.040
-523.989	800.000	0.037	0.137
-522.975	-200.000	0.050	0.323
-521.960	-174.738	-0.021	0.001
-520.945	-56.657	-0.131	-0.058
-519.931	300.129	-0.125	-0.229
-518.916	109.801	-0.158	0.188
-517.902	-200.000	0.129	0.595
-516.887	24.662	-0.231	-0.191
-515.872	-147.064	-0.118	-0.010
-514.858	103.485	0.104	0.121
-513.843	302.146	0.098	-0.180
-512.829	34.030	0.133	-0.116
-511.814	-200.000	-0.031	0.164
-510.799	-93.580	0.112	0.031
-509.785	-127.461	0.193	-0.028
-508.770	-200.000	0.065	-0.336
-507.756	660.862	0.076	0.195
-506.741	-111.924	0.102	0.020
-505.726	-86.257	0.194	-0.060
-504.712	13.754	0.140	-0.109
-503.697	-140.040	0.180	-0.019
-502.683	279.194	0.100	0.177
-501.668	569.524	0.050	-0.122
-500.653	82.009	-0.024	-0.026
-499.639	800.000	0.109	-0.332
-498.624	-88.485	-0.193	-0.057
-497.610	158.626	0.163	-0.226
-496.595	425.650	0.096	0.206
-495.581	-5.981	-0.205	-0.140
-494.566	-4.891	-0.158	-0.109
-493.551	741.257	-0.031	0.083
-492.537	90.956	-0.134	0.150
-491.522	-87.916	-0.150	0.045
-490.508	-154.207	-0.160	0.011
-489.493	-100.028	0.254	0.063
-488.478	198.768	0.101	0.154
-487.464	-200.000	-0.003	-0.286
-486.449	-125.333	0.102	0.016
-485.435	87.167	-0.129	0.142
-484.420	-83.752	0.188	-0.060
-483.405	-200.000	0.014	-0.092
-482.391	-143.577	0.073	0.007
-481.376	343.267	-0.041	-0.080
-480.362	79.350	0.128	-0.136
-479.347	49.406	-0.125	-0.117
-478.332	73.940	0.101	-0.106
-477.318	401.440	0.088	-0.184
-476.303	-7.729	0.120	0.081
-475.289	-200.000	-0.020	-0.188
-474.274	800.000	0.096	-0.301
-473.259	800.000	-0.052	-0.187
-472.245	189.857	0.194	0.291
-471.230	-76.519	0.262	-0.092
-470.216	171.628	-0.217	-0.311
-469.201	-200.000	0.021	-0.281
-468.186	88.186	-0.025	0.027
-467.172	-134.436	-0.446	-0.054
-466.157	-30.828	0.257	-0.145
-465.143	74.620	0.212	-0.222
-464.128	51.760	0.142	-0.134
-463.113	-200.000	0.039	-0.414
-462.099	251.116	0.099	-0.167
-461.084	-96.019	-0.181	0.048
-460.070	189.021	0.087	0.130
-459.055	97.184	0.193	-0.220
-458.040	-67.302	-0.292	-0.114
-457.026	-200.000	-0.019	-0.262
-456.011	-200.000	0.032	0.169
-454.997	-33.265	-0.069	0.038
-453.982	-200.000	0.049	-0.488
-452.968	-1.211	0.131	0.092
-451.953	-127.048	0.197	0.029
-450.938	526.438	0.199	0.467
-449.924	496.698	-0.121	0.276
-448.909	691.950	0.040	0.104
-447.895	-200.000	0.023	0.129
-446.880	0.270	0.190	0.135
-445.865	-187.774	-0.360	0.005
-444.851	-40.754	0.051	-0.026
-443.836	235.983	-0.146	0.240
-442.822	-200.000	-0.040	0.328
-441.807	800.000	0.071	0.310
-440.792	-67.050	-0.197	-0.077
-439.778	-200.000	-0.010	-0.151
-438.763	800.000	-0.031	-0.111
-437.749	-138.476	0.245	0.027
-436.734	627.141	-0.190	0.476
-435.719	-148.268	-0.331	0.027
-434.705	19.707	-0.099	0.079
-433.690	253.575	-0.140	-0.237
-432.676	271.434	-0.151	-0.265
-431.661	-200.000	0.033	-0.423
-430.646	118.721	-0.060	-0.074
-429.632	-122.304	0.262	-0.043
-428.617	170.516	-0.223	-0.317
-427.603	4.584	0.148	-0.108
-426.588	329.455	-0.066	0.127
-425.573	155.769	0.220	-0.302
-424.559	-0.342	-0.381	0.270
-423.544	-105.350	-0.072	-0.016
-422.530	-13.125	-0.178	0.115
-421.515	3.314	0.193	0.139
-420.500	-44.541	-0.214	-0.106
-419.486	125.075	0.267	-0.335
-418.471	199.000	0.126	0.192
-417.457	-16.169	-0.336	0.212
-416.442	800.000	-0.080	0.286
-415.428	-74.240	-0.285	0.102
-414.413	-91.455	-0.152	-0.043
-413.398	-200.000	0.036	-0.162
-412.384	-143.983	0.097	-0.009
-411.369	-42.351	0.282	-0.143
-410.355	-127.847	0.268	-0.038
-409.340	438.182	0.005	0.012
-408.325	-7.964	0.060	-0.040
-407.311	187.561	-0.236	0.350
-406.296	154.367	0.103	0.140
-405.282	-200.000	-0.047	0.283
-404.267	83.000	-0.180	-0.194
-403.252	-159.202	0.049	-0.003
-402.238	-70.176	-0.232	-0.088
-401.223	-51.536	0.336	-0.156
-400.209	190.764	-0.121	-0.180
-399.194	42.899	0.131	-0.118
-398.179	-133.226	0.088	0.011
-397.165	-47.151	0.158	0.076
-396.150	-200.000	0.018	-0.264
-395.136	371.638	0.106	-0.213
-394.121	163.504	0.122	-0.170
-393.106	-23.274	-0.218	-0.130
-392.092	-170.577	-0.245	-0.008
-391.077	468.994	-0.272	-0.607
-390.063	-27.358	0.238	-0.137
-389.048	146.456	0.027	0.036
-388.033	-200.000	-0.008	-0.220
-387.019	-100.604	0.340	-0.083
-386.004	-194.817	0.172	-0.001
-384.990	-104.544	-0.137	0.031
-383.975	354.324	-0.124	0.244
-382.960	800.000	-0.051	-0.188
-381.946	-43.551	0.150	0.075
-380.931	-113.308	0.202	-0.039
-379.917	346.784	-0.023	0.045
-378.902	-67.016	0.182	-0.071
-377.888	-67.760	0.214	-0.083
-376.873	800.000	0.038	-0.157
-375.858	-200.000	-0.094	-0.476
-374.844	-143.412	-0.319	0.030
-373.829	159.086	0.140	0.193
-372.815	457.729	-0.034	0.075
-371.800	-200.000	0.028	0.155
-370.785	22.484	0.037	0.030
-369.771	94.161	0.221	-0.248
-368.756	800.000	-0.068	-0.227
-367.742	65.085	-0.230	0.231
-366.727	312.291	0.131	-0.245
-365.712	642.854	0.056	-0.141
-364.698	800.000	0.038	-0.127
-363.683	170.992	0.146	0.208
-362.669	445.995	-0.133	0.289
-361.654	20.158	-0.067	0.054
-360.639	20.474	0.277	0.222
-359.625	39.031	0.216	-0.192
-358.610	-200.000	-0.015	-0.150
-357.596	62.090	0.400	0.396
-356.581	25.885	-0.038	0.032
-355.566	-200.000	0.023	-0.379
-354.552	72.926	0.096	0.099
-353.537	34.938	-0.313	0.271
-352.523	-76.706	0.286	0.099
-351.508	1.398	-0.115	0.082
-350.493	-200.000	-0.031	-0.445
-349.479	33.816	0.253	-0.218
-348.464	-25.404	0.098	-0.058
-347.450	657.356	-0.121	0.309
-346.435	105.016	0.110	-0.129
-345.420	618.925	-0.017	-0.042
-344.406	189.245	-0.097	-0.144
-343.391	217.296	-0.060	-0.095
-342.377	-85.608	0.248	-0.076
-341.362	-135.018	-0.082	-0.010
-340.348	281.865	-0.187	0.331
-339.333	311.090	0.119	0.221
-338.318	-174.176	-0.158	0.005
-337.304	-200.000	-0.006	0.317
-336.289	795.009	0.117	0.318
-335.275	-200.000	0.007	-0.312
-334.260	-120.459	0.030	0.005
-333.245	-163.220	0.509	0.024
-332.231	312.832	0.095	-0.177
-331.216	-103.421	-0.192	-0.045
-330.202	800.000	0.087	0.358
-329.187	-87.300	0.071	0.021
-328.172	730.516	-0.136	-0.361
-327.158	-33.172	0.278	-0.153
-326.143	210.652	-0.278	0.432
-325.129	1.630	-0.146	0.104
-324.114	-63.182	0.434	-0.177
-323.099	-79.183	0.278	0.093
-322.085	-0.493	0.253	-0.178
-321.070	-200.000	0.009	-0.101
-320.056	121.337	0.060	0.074
-319.041	46.788	0.134	0.123
-318.026	-112.033	-0.103	0.021
-317.012	275.916	0.187	0.329
-315.997	-200.000	-0.044	0.209
-314.983	211.200	0.139	-0.217
-313.968	48.666	0.192	0.178
-312.953	32.783	0.310	0.265
-311.939	-68.595	-0.231	0.089
-310.924	442.250	0.050	-0.108
-309.910	-16.462	-0.290	0.182
-308.895	-30.331	-0.159	0.089
-307.880	123.677	-0.312	-0.387
-306.866	392.025	0.180	-0.370
-305.851	-30.267	0.219	0.123
-304.837	218.314	0.135	0.212
-303.822	-49.976	0.029	-0.014
-302.807	800.000	0.034	0.107
-301.793	47.888	-0.058	0.054
-300.778	-87.092	-0.075	-0.023
-299.764	-200.000	0.015	0.105
-298.749	131.941	0.107	0.137
-297.735	216.790	0.071	0.112
-296.720	369.559	-0.096	-0.192
-295.705	800.000	-0.077	-0.245
-294.691	-57.581	0.236	-0.102
-293.676	192.701	-0.087	0.131
-292.662	800.000	-0.015	0.055
-291.647	-45.804	0.353	0.172
-290.632	18.798	-0.054	-0.043
-289.618	27.416	-0.230	0.191
-288.603	-200.000	0.002	-0.148
-287.589	-68.366	0.053	0.020
-286.574	-20.622	-0.040	-0.025
-285.559	19.598	0.216	0.172
-284.545	-132.203	0.296	0.038
-283.530	5.516	-0.179	-0.130
-282.516	800.000	-0.088	0.359
-281.501	-158.427	-0.170	0.010
-280.486	166.371	-0.203	0.284
-279.472	44.950	-0.216	0.197
-278.457	103.079	-0.313	0.363
-277.443	800.000	0.089	0.249
-276.428	-200.000	0.020	0.335
-275.413	8.301	-0.175	0.130
-274.399	-139.908	0.367	-0.038
-273.384	-200.000	-0.035	0.262
-272.370	-186.762	-0.204	0.003
-271.355	514.091	-0.059	-0.137
-270.340	800.000	0.073	0.260
-269.326	53.778	0.076	0.072
-268.311	-137.251	-0.116	-0.013
-267.297	277.593	0.144	0.254
-266.282	37.900	-0.221	0.194
-265.267	-56.430	0.027	-0.012
-264.253	-28.018	0.148	-0.084
-263.238	79.990	0.155	-0.165
-262.224	142.747	0.135	-0.178
-261.209	238.954	-0.076	-0.124
-260.195	800.000	0.140	-0.416
-259.180	-47.708	0.163	-0.078
-258.165	800.000	-0.012	-0.045
-257.151	-200.000	-0.025	0.139
-256.136	80.207	0.080	0.085
-255.122	-200.000	-0.019	0.242
-254.107	-200.000	-0.023	0.245
-253.092	-200.000	-0.013	0.130
-252.078	-200.000	-0.031	-0.176
-251.063	244.162	-0.058	0.096
-250.049	17.159	0.101	-0.079
-249.034	-52.939	0.090	0.041
-248.019	-193.386	-0.157	0.001
-247.005	540.534	-0.100	0.235
-245.990	165.185	0.155	0.216
-244.976	-200.000	-0.013	-0.118
-243.961	-142.483	-0.139	-0.014
-242.946	344.776	0.114	-0.221
-241.932	-17.020	-0.115	-0.072
-240.917	-200.000	-0.005	-0.174
-239.903	800.000	0.154	0.484
-238.888	-83.986	0.464	0.146
-237.873	-0.881	-0.140	0.098
-236.859	-16.615	-0.249	-0.156
-235.844	-200.000	0.007	-0.064
-234.830	800.000	-0.096	-0.332
-233.815	340.854	0.087	-0.167
-232.800	-99.746	-0.286	-0.071
-231.786	-200.000	0.028	-0.255
-230.771	23.117	0.115	-0.093
-229.757	-200.000	-0.001	0.087
-228.742	-89.057	0.122	-0.036
-227.727	88.194	-0.115	0.126
-226.713	-31.409	-0.096	0.053
-225.698	607.103	-0.182	0.448
-224.684	-148.119	-0.124	-0.010
-223.669	-0.402	0.172	-0.120
-222.655	277.973	-0.145	0.255
-221.640	160.108	0.092	0.126
-220.625	-104.363	-0.069	-0.016
-219.611	-72.677	-0.284	-0.103
-218.596	462.366	-0.012	0.026
-217.582	-200.000	0.021	0.129
-216.567	5.890	-0.207	-0.151
-215.552	-200.000	-0.037	-0.240
-214.538	-92.348	-0.286	0.079
-213.523	52.430	-0.168	-0.158
-212.509	241.336	-0.068	0.111
-211.494	178.486	0.046	-0.066
-210.479	153.556	0.118	-0.160
-209.465	149.356	-0.102	0.137
-208.450	-150.197	0.373	0.028
-207.436	157.263	-0.017	0.024
-206.421	77.077	-0.127	0.133
-205.406	-108.273	-0.334	0.071
-204.392	83.616	-0.130	-0.139
-203.377	-200.000	0.042	-0.261
-202.363	-130.719	0.265	0.035
-201.348	-21.176	-0.270	0.163
-200.333	55.474	-0.140	0.134
-199.319	-96.369	0.218	0.057
-198.304	91.257	-0.182	-0.201
-197.290	-200.000	-0.024	-0.341
-196.275	-100.196	-0.169	-0.041
-195.260	-130.870	0.101	0.013
-194.246	-168.119	-0.397	-0.015
-193.231	-99.141	0.485	-0.121
-192.217	-68.672	-0.278	-0.106
-191.202	800.000	0.084	0.294
-190.187	98.477	-0.091	0.104
-189.173	527.535	-0.209	-0.486
-188.158	134.246	-0.170	0.218
-187.144	-138.483	-0.209	0.023
-186.129	22.391	0.041	-0.033
-185.114	-200.000	0.031	-0.185
-184.100	-200.000	0.046	-0.222
-183.085	77.345	0.046	0.048
-182.071	-200.000	0.035	0.434
-181.056	-13.248	0.103	-0.066
-180.042	34.278	-0.101	-0.087
-179.027	-200.000	-0.054	0.251
-178.012	-66.802	-0.210	0.082
-176.998	800.000	0.026	-0.074
-175.983	-136.580	0.246	0.028
-174.969	9.163	0.215	0.160
-173.954	-200.000	0.043	0.344
-172.939	-69.702	0.221	0.083
-171.925	-13.053	-0.042	-0.027
-170.910	-49.511	-0.214	0.100
-169.896	-200.000	-0.010	-0.123
-168.881	188.197	0.148	0.218
-167.866	557.635	-0.065	0.154
-166.852	-0.497	0.169	0.118
-165.837	800.000	-0.007	0.027
-164.823	-57.272	-0.136	-0.059
-163.808	800.000	0.113	0.313
-162.793	-190.730	-0.326	-0.003
-161.779	-162.187	-0.137	-0.007
-160.764	-200.000	-0.003	0.125
-159.750	182.206	-0.249	0.361
-158.735	800.000	-0.074	-0.285
-157.720	282.491	-0.188	-0.332
-156.706	-113.783	0.276	-0.053
-155.691	800.000	0.069	0.191
-154.677	-200.000	-0.043	-0.188
-153.662	-46.532	0.170	-0.082
-152.647	319.586	-0.023	-0.042
-151.633	34.746	-0.149	-0.129
-150.618	130.711	-0.010	0.012
-149.604	800.000	-0.059	-0.188
-148.589	-13.432	0.338	0.215
-147.574	-97.272	0.228	0.058
-146.560	67.148	-0.025	0.025
-145.545	-43.781	-0.432	0.214
-144.531	472.546	0.165	0.365
-143.516	539.905	-0.037	0.087
-142.502	-200.000	-0.003	0.299
-141.487	55.902	0.176	0.168
-140.472	800.000	0.030	-0.121
-139.458	414.739	-0.070	0.146
-138.443	-200.000	-0.003	0.032
-137.429	-144.949	-0.185	0.017
-136.414	312.668	0.070	-0.130
-135.399	-181.494	-0.408	0.008
-134.385	-200.000	-0.007	0.227
-133.370	104.567	-0.082	0.095
-132.356	-136.935	-0.132	0.015
-131.341	-84.578	-0.260	-0.081
-130.326	-200.000	0.010	-0.096
-129.312	-29.331	0.174	0.098
-128.297	127.376	-0.172	-0.215
-127.283	-46.691	0.087	-0.042
-126.268	-51.229	0.288	-0.133
-125.253	-174.724	-0.280	-0.008
-124.239	-200.000	-0.014	-0.202
-123.224	160.477	-0.367	-0.503
-122.210	-165.431	0.183	0.008
-121.195	230.631	0.180	0.290
-120.180	-116.339	0.261	-0.047
-119.166	800.000	-0.094	-0.263
-118.151	558.602	-0.052	-0.122
-117.137	-92.893	0.125	-0.034
-116.122	-52.293	0.319	0.145
-115.107	-200.000	0.008	-0.198
-114.093	318.222	-0.039	-0.073
-113.078	385.225	-0.153	-0.310
-112.064	-98.860	-0.086	-0.021
-111.049	800.000	0.182	0.622
-110.034	-51.828	-0.273	0.125
-109.020	-200.000	0.025	0.150
-108.005	100.439	-0.159	0.181
-106.991	66.100	0.180	-0.179
-105.976	800.000	-0.061	-0.187
-104.962	-200.000	0.028	-0.179
-103.947	107.896	-0.217	-0.254
-102.932	800.000	-0.100	0.333
-101.918	-72.903	-0.182	0.066
-100.903	-43.774	0.118	-0.058
-99.889	797.800	0.105	-0.283
-98.874	26.700	-0.107	0.088
-97.859	-161.216	0.073	-0.004
-96.845	-98.245	0.389	0.098
-95.830	-53.773	0.301	-0.135
-94.816	800.000	-0.090	-0.321
-93.801	800.000	-0.040	0.126
-92.786	-88.661	0.258	0.075
-91.772	-73.920	0.264	0.094
-90.757	72.721	0.148	0.151
-89.743	278.757	0.084	0.147
-88.728	16.349	-0.190	0.147
-87.713	-200.000	0.002	0.155
-86.699	130.280	-0.099	0.125
-85.684	241.009	0.025	-0.041
-84.670	-157.582	0.331	0.019
-83.655	-8.645	0.162	-0.107
-82.640	158.479	-0.083	0.113
-81.626	619.375	0.044	0.107
-80.611	60.199	-0.294	0.286
-79.597	471.858	0.096	-0.212
-78.582	-121.439	0.335	0.055
-77.567	-200.000	-0.008	-0.126
-76.553	382.214	-0.099	0.199
-75.538	-200.000	-0.061	0.342
-74.524	716.332	0.146	-0.381
-73.509	-91.180	0.184	0.052
-72.494	-55.213	0.070	0.031
-71.480	459.530	-0.068	-0.149
-70.465	-200.000	0.121	0.615
-69.451	-114.783	0.116	0.022
-68.436	-170.946	0.397	-0.013
-67.422	-200.000	0.005	-0.405
-66.407	110.064	-0.042	0.050
-65.392	-200.000	0.028	0.393
-64.378	-7.206	0.263	0.175
-63.363	-79.334	0.215	0.071
-62.349	344.117	0.078	0.150
-61.334	91.996	-0.820	-0.905
-60.319	8.552	0.662	0.488
-59.305	138.839	-0.534	-0.688
-58.290	118.379	0.862	1.042
-57.276	800.000	0.653	1.874
-56.261	-200.000	109.541	629.801
-55.246	473.056	1489.762	3289.304
-54.232	148.816	2658.569	3521.288
-53.217	107.945	2138.771	2497.054
-52.203	40.655	1593.608	1407.243
-51.188	32.579	1338.665	1133.710
-50.173	29.514	1298.978	1082.121
-49.159	56.181	1353.451	1287.524
-48.144	56.361	1368.559	1302.914
-47.130	32.737	1324.311	1122.317
-46.115	29.257	1306.672	1086.842
-45.100	29.093	1301.781	1081.766
-44.086	28.982	1299.845	1079.463
-43.071	29.056	1297.319	1077.758
-42.057	28.984	1294.782	1075.184
-41.042	28.950	1293.690	1074.039
-40.027	28.985	1292.428	1073.152
-39.013	28.925	1290.144	1070.861
-37.998	29.049	1288.184	1069.914
-36.984	29.089	1286.666	1068.842
-35.969	29.198	1284.746	1067.841
-34.954	29.208	1283.104	1066.489
-33.940	29.072	1282.282	1064.979
-32.925	29.201	1280.651	1064.323
-31.911	29.222	1279.386	1063.351
-30.896	29.179	1277.877	1061.811
-29.881	29.242	1276.290	1060.810
-28.867	29.320	1275.193	1060.303
-27.852	29.203	1273.521	1058.200
-26.838	29.285	1271.859	1057.251
-25.823	29.303	1270.782	1056.416
-24.809	29.173	1269.550	1054.602
-23.794	29.171	1268.103	1053.349
-22.779	29.220	1267.027	1052.691
-21.765	29.271	1265.699	1051.836
-20.750	29.153	1264.232	1049.906
-19.736	29.093	1262.897	1048.412
-18.721	29.037	1262.099	1047.390
-17.706	29.000	1261.002	1046.226
-16.692	29.133	1259.487	1045.687
-15.677	29.066	1259.078	1044.926
-14.663	29.034	1257.460	1043.358
-13.648	29.114	1256.448	1042.929
-12.633	29.122	1255.398	1042.063
-11.619	29.021	1255.001	1041.118
-10.604	29.063	1254.207	1040.657
-9.590	29.136	1253.291	1040.269
-8.575	28.958	1252.343	1038.436
-7.560	29.118	1250.857	1038.065
-6.546	29.070	1250.157	1037.171
-5.531	29.039	1249.644	1036.532
-4.517	28.976	1248.813	1035.448
-3.502	29.034	1248.321	1035.325
-2.487	29.066	1247.370	1034.673
-1.473	29.075	1242.445	1030.596
-0.458	27.314	1227.403	1008.330
0.556	21.904	1209.917	968.772
1.571	17.923	1215.528	951.049
2.586	17.045	1230.055	957.379
3.600	16.996	1219.105	948.500
4.615	14.892	1153.236	886.032
5.629	10.943	1085.078	813.866
6.644	9.045	1067.445	791.219
7.659	8.690	1066.013	788.339
8.673	8.570	1064.849	786.820
9.688	8.657	1062.803	785.665
10.702	8.953	1060.945	785.674
11.717	11.355	1064.537	800.057
12.731	15.420	1069.434	823.659
13.746	17.480	1071.626	835.393
14.761	17.456	1070.865	834.606
15.775	16.367	1069.149	827.862
16.790	15.341	1066.587	820.788
17.804	14.587	1065.015	815.817
18.819	14.169	1064.430	813.255
19.834	13.944	1063.175	811.128
20.848	13.711	1062.516	809.414
21.863	13.499	1061.451	807.499
22.877	13.398	1060.648	806.324
23.892	13.331	1059.860	805.326
24.907	13.394	1058.841	804.787
25.921	13.270	1058.105	803.555
26.936	13.459	1057.015	803.575
27.950	13.413	1055.869	802.408
28.965	13.508	1054.056	801.419
29.980	13.601	1052.422	800.557
30.994	13.584	1051.399	799.625
32.009	13.648	1050.427	799.121
33.023	13.703	1048.836	798.107
34.038	13.559	1048.395	797.006
35.053	13.469	1047.038	795.475
36.067	13.438	1046.785	795.064
37.082	13.550	1045.969	794.906
38.096	13.551	1044.837	793.982
39.111	13.516	1044.523	793.509
40.126	13.467	1043.113	792.131
41.140	13.362	1041.805	790.565
42.155	13.350	1040.539	789.479
43.169	13.228	1040.002	788.420
44.184	13.162	1039.028	787.295
45.199	13.211	1037.774	786.508
46.213	13.421	1036.814	786.711
47.228	13.420	1035.794	785.863
48.242	13.371	1034.657	784.696
49.257	13.403	1033.843	784.160
50.271	13.434	1032.588	783.285
51.286	13.567	1031.664	783.148
52.301	13.593	1031.181	782.833
53.315	13.368	1030.228	780.979
54.330	13.350	1029.093	779.965
55.344	13.277	1028.202	778.876
56.359	13.466	1027.195	778.933
57.374	13.305	1026.325	777.447
58.388	13.295	1025.415	776.644
59.403	13.211	1024.586	775.554
60.417	13.249	1023.931	775.166
61.432	13.353	1022.988	774.869
62.447	13.348	1021.867	773.927
63.461	13.177	1021.285	772.619
64.476	13.330	1020.178	772.428
65.490	13.279	1019.192	771.379
66.505	13.252	1018.761	770.857
67.520	13.380	1017.788	770.649
68.534	13.362	1017.403	770.207
69.549	13.257	1016.770	769.171
70.563	13.318	1015.523	768.439
71.578	13.121	1015.365	767.338
72.593	13.137	1014.298	766.539
73.607	13.144	1013.566	765.952
74.622	13.160	1012.974	765.511
75.636	13.142	1012.184	764.760
76.651	13.071	1011.421	763.786
77.666	13.122	1010.842	763.520
78.680	13.288	1009.812	763.442
79.695	13.199	1009.570	762.778
80.709	13.239	1008.797	762.309
81.724	13.286	1008.205	762.015
82.739	13.412	1007.516	762.003
83.753	13.392	1006.958	761.425
84.768	13.538	1005.618	761.015
85.782	13.514	1004.908	760.300
86.797	13.495	1004.522	759.851
87.812	13.500	1003.211	758.817
88.826	13.363	1002.568	757.635
89.841	13.602	1000.998	757.474
90.855	13.524	1000.759	756.873
91.870	13.577	999.723	756.263
92.884	13.625	998.848	755.751
93.899	13.612	998.307	755.216
94.914	13.522	997.591	754.200
95.928	13.630	996.883	754.088
96.943	13.696	995.521	753.289
97.957	13.638	994.836	752.444
98.972	13.593	994.197	751.686
99.987	13.606	992.805	750.631
101.001	13.435	992.399	749.484
102.016	13.668	991.065	749.459
103.030	13.649	990.555	748.925
104.045	13.677	989.479	748.171
105.060	13.610	988.649	747.174
106.074	13.507	987.939	746.108
107.089	13.419	986.873	744.840
108.103	13.278	986.093	743.553
109.118	13.344	984.765	742.783
110.133	13.308	984.233	742.153
111.147	13.281	983.529	741.433
112.162	13.436	982.525	741.306
113.176	13.504	981.789	740.990
114.191	13.505	980.941	740.286
115.206	13.388	980.650	739.480
116.220	13.403	979.417	738.554
117.235	13.448	978.296	737.843
118.249	13.488	977.679	737.490
119.264	13.388	976.892	736.387
120.279	13.462	976.076	736.036
121.293	13.368	975.490	735.109
122.308	13.333	974.805	734.374
123.322	13.312	973.315	733.094
124.337	13.447	971.915	732.569
125.352	13.513	970.920	732.046
126.366	13.312	970.295	730.626
127.381	13.335	968.950	729.647
128.395	13.318	968.584	729.235
129.410	13.399	967.631	728.809
130.424	13.269	966.948	727.655
131.439	13.460	966.002	727.720
132.454	13.429	965.225	726.936
133.468	13.561	963.962	726.495
134.483	13.418	963.496	725.456
135.497	13.551	962.274	725.054
136.512	13.413	961.972	724.158
137.527	13.509	961.069	723.832
138.541	13.538	960.416	723.406
139.556	13.457	959.549	722.332
140.570	13.621	958.654	722.311
141.585	13.686	958.003	722.041
142.600	13.675	957.036	721.201
143.614	13.767	956.050	720.792
144.629	13.760	955.551	720.321
145.643	13.656	954.621	719.106
146.658	13.633	953.643	718.207
147.673	13.578	952.590	717.109
148.687	13.464	951.930	716.058
149.702	13.459	950.928	715.217
150.716	13.475	950.634	715.002
151.731	13.552	949.650	714.531
152.746	13.594	948.867	714.062
153.760	13.678	948.121	713.798
154.775	13.644	948.125	713.591
155.789	13.769	947.114	713.305
156.804	13.840	946.155	712.826
157.819	13.681	946.017	711.975
158.833	13.826	945.374	712.052
159.848	13.784	944.719	711.316
160.862	13.779	943.334	710.188
161.877	13.692	942.526	709.143
162.892	13.629	941.399	707.962
163.906	13.641	940.681	707.412
164.921	13.740	939.662	707.006
165.935	13.757	938.970	706.493
166.950	13.731	938.101	705.670
167.964	13.682	937.613	705.028
168.979	13.635	936.508	703.935
169.994	13.646	935.606	703.242
171.008	13.771	934.970	703.233
172.023	13.811	934.505	702.991
173.037	13.903	933.576	702.618
174.052	13.847	932.906	701.816
175.067	13.696	932.200	700.586
176.081	13.785	931.749	700.561
177.096	13.720	931.503	700.039
178.110	13.823	930.665	699.782
179.125	13.835	929.720	699.058
180.140	13.788	929.618	698.723
181.154	13.969	929.124	699.050
182.169	13.955	928.650	698.575
183.183	14.003	927.955	698.191
184.198	14.065	926.424	697.238
185.213	13.897	926.855	696.794
186.227	13.901	925.783	695.944
187.242	14.145	925.150	696.426
188.256	14.125	924.380	695.702
189.271	14.048	923.839	694.910
190.286	13.882	922.996	693.522
191.300	13.851	921.888	692.502
192.315	13.735	921.667	691.789
193.329	13.756	920.826	691.183
194.344	13.913	920.196	691.304
195.359	14.078	919.323	691.274
196.373	14.007	919.499	691.051
197.388	14.253	918.699	691.410
198.402	14.138	918.370	690.624
199.417	14.260	917.446	690.374
200.432	14.180	917.345	689.903
201.446	14.302	916.872	689.992
202.461	14.372	915.988	689.558
203.475	14.386	915.409	689.116
204.490	14.245	914.461	687.759
205.504	14.347	913.631	687.495
206.519	14.299	913.252	686.950
207.534	14.251	912.460	686.099
208.548	14.303	911.764	685.725
209.563	14.136	911.260	684.601
210.577	14.330	910.669	684.892
211.592	14.356	909.994	684.431
212.607	14.534	908.872	684.259
213.621	14.518	908.421	683.794
214.636	14.339	907.811	682.539
215.650	14.369	907.400	682.292
216.665	14.513	906.586	682.208
217.680	14.650	905.511	681.901
218.694	14.494	905.212	680.976
219.709	14.490	904.445	680.322
220.723	14.407	904.138	679.693
221.738	14.447	903.123	679.034
222.753	14.464	902.781	678.784
223.767	14.450	902.066	678.133
224.782	14.702	901.532	678.694
225.796	14.630	901.405	678.247
226.811	14.499	900.364	676.870
227.826	14.581	899.697	676.642
228.840	14.589	898.928	676.037
229.855	14.616	898.211	675.548
230.869	14.645	897.082	674.755
231.884	14.516	896.645	673.845
232.899	14.555	895.934	673.410
233.913	14.665	894.870	672.995
234.928	14.522	894.452	672.044
235.942	14.545	893.721	671.526
236.957	14.525	893.749	671.408
237.972	14.479	893.004	670.602
238.986	14.513	892.232	670.101
240.001	14.639	892.109	670.456
241.015	14.635	891.282	669.759
242.030	14.632	890.476	669.083
243.045	14.728	890.008	669.057
244.059	14.732	889.364	668.529
245.074	14.787	888.393	667.958
246.088	14.742	888.093	667.494
247.103	14.785	887.500	667.162
248.117	15.032	886.834	667.589
249.132	14.985	886.486	667.079
250.147	15.133	885.729	667.041
251.161	15.000	885.367	666.177
252.176	15.032	884.781	665.808
253.190	15.204	883.568	665.519
254.205	15.171	883.656	665.393
255.220	15.203	882.653	664.705
256.234	15.239	881.874	664.203
257.249	15.234	881.384	663.756
258.263	15.193	880.654	662.986
259.278	15.342	879.531	662.672
260.293	15.272	879.273	662.140
261.307	15.289	879.002	661.946
262.322	15.327	878.298	661.505
263.336	15.278	877.239	660.457
264.351	15.451	876.638	660.628
265.366	15.405	876.147	660.018
266.380	15.268	875.436	658.886
267.395	15.184	875.075	658.226
268.409	15.309	873.874	657.756
269.424	15.365	872.985	657.247
270.439	15.348	872.257	656.571
271.453	15.229	872.033	655.880
272.468	15.250	871.315	655.365
273.482	15.296	870.901	655.174
274.497	15.292	870.257	654.617
275.512	15.327	869.995	654.499
276.526	15.300	869.325	653.832
277.541	15.505	868.455	653.917
278.555	15.552	868.152	653.814
279.570	15.576	867.441	653.315
280.585	15.600	866.472	652.621
281.599	15.537	865.644	651.695
282.614	15.523	865.324	651.342
283.628	15.499	864.734	650.746
284.643	15.425	864.172	649.979
285.657	15.523	863.542	649.830
286.672	15.623	862.693	649.517
287.687	15.614	862.503	649.284
288.701	15.581	861.925	648.663
289.716	15.530	861.247	647.899
290.730	15.594	860.470	647.503
291.745	15.689	860.007	647.462
292.760	15.749	859.471	647.235
293.774	15.725	858.810	646.587
294.789	15.791	858.006	646.179
295.803	15.757	857.483	645.595
296.818	15.845	856.356	645.027
297.833	15.750	855.912	644.271
298.847	15.838	855.696	644.388
299.862	15.763	855.145	643.631
300.876	15.888	854.375	643.472
301.891	15.839	853.888	642.862
302.906	15.819	853.641	642.543
303.920	15.771	853.360	642.091
304.935	15.863	852.723	641.905
305.949	15.847	852.073	641.296
306.964	15.911	851.250	640.863
307.979	16.001	850.569	640.637
308.993	15.947	850.017	639.960
310.008	16.001	849.637	639.821
311.022	16.026	849.127	639.478
312.037	15.975	848.419	638.692
313.052	15.883	848.027	637.995
314.066	15.812	847.516	637.285
315.081	15.881	846.630	636.823
316.095	15.978	846.197	636.806
317.110	16.061	845.460	636.507
318.125	16.002	845.258	636.076
319.139	15.940	844.745	635.403
320.154	15.939	844.159	634.901
321.168	16.054	843.370	634.684
322.183	16.058	842.862	634.263
323.197	16.042	842.593	633.942
324.212	16.030	842.474	633.752
325.227	16.041	841.705	633.159
326.241	16.056	840.711	632.410
327.256	16.017	840.080	631.733
328.270	15.953	839.988	631.371
329.285	16.090	838.845	630.969
330.300	16.170	838.185	630.713
331.314	15.999	838.175	630.012
332.329	16.164	837.333	629.939
333.343	16.281	837.092	630.139
334.358	16.141	837.048	629.527
335.373	16.338	836.083	629.480
336.387	16.240	836.318	629.235
337.402	16.214	835.831	628.717
338.416	16.315	835.516	628.801
339.431	16.284	835.025	628.262
340.446	16.320	834.659	628.063
341.460	16.467	833.840	627.937
342.475	16.433	833.600	627.574
343.489	16.444	833.495	627.480
344.504	16.419	833.078	627.018
345.519	16.560	832.433	627.000
346.533	16.589	831.695	626.495
347.548	16.380	831.366	625.419
348.562	16.397	830.735	624.951
349.577	16.383	830.375	624.576
350.592	16.278	829.435	623.423
351.606	16.442	828.744	623.455
352.621	16.291	828.567	622.711
353.635	16.401	827.500	622.259
354.650	16.356	827.071	621.713
355.665	16.492	826.415	621.666
356.679	16.589	825.738	621.458
357.694	16.574	824.890	620.710
358.708	16.518	824.702	620.308
359.723	16.495	824.023	619.659
360.738	16.522	823.587	619.376
361.752	16.546	822.967	618.941
362.767	16.658	822.421	618.886
363.781	16.761	821.939	618.846
364.796	16.823	821.140	618.415
365.810	17.005	820.676	618.675
366.825	16.942	820.528	618.277
367.840	16.895	820.094	617.724
368.854	16.917	819.625	617.398
369.869	16.853	819.126	616.735
370.883	16.819	818.715	616.247
371.898	16.879	818.618	616.337
372.913	16.930	817.934	615.952
373.927	16.962	817.582	615.750
374.942	17.009	816.818	615.291
375.956	17.009	816.547	615.032
376.971	17.009	816.030	614.587
377.986	17.172	815.465	614.696
379.000	17.040	815.239	613.993
380.015	17.152	814.612	613.873
381.029	17.011	814.288	613.065
382.044	17.107	813.651	612.878
383.059	17.184	813.027	612.632
384.073	17.168	812.446	612.081
385.088	17.162	811.555	611.336
386.102	17.104	810.990	610.646
387.117	17.179	810.662	610.616
388.132	17.068	810.241	609.847
389.146	17.177	809.420	609.564
390.161	17.049	809.469	609.087
391.175	17.184	808.680	608.925
392.190	17.197	808.195	608.551
393.205	17.087	807.657	607.699
394.219	17.135	807.262	607.521
395.234	17.245	806.991	607.657
396.248	17.132	806.462	606.800
397.263	17.033	806.051	606.083
398.278	17.062	805.904	606.024
399.292	17.034	805.401	605.490
400.307	17.158	804.684	605.341
401.321	17.173	804.366	605.102
402.336	17.097	803.786	604.339
403.350	17.243	803.329	604.461
404.365	17.255	802.782	604.040
405.380	17.422	802.388	604.286
406.394	17.356	802.261	603.901
407.409	17.417	801.655	603.608
408.423	17.365	801.467	603.228
409.438	17.404	801.371	603.240
410.453	17.566	800.384	603.017
411.467	17.591	799.727	602.556
412.482	17.636	799.608	602.573
413.496	17.633	799.325	602.295
414.511	17.630	799.104	602.067
415.526	17.601	799.021	601.848
416.540	17.727	798.281	601.684
417.555	17.587	797.476	600.529
418.569	17.686	797.174	600.596
419.584	17.558	796.660	599.705
420.599	17.674	796.473	599.920
421.613	110.701	1293.758	1473.409
422.628	95.227	1366.174	1473.514
