DTS Sentinel unit serial number:	SN413079Multiplexer serial number:	ORYXHardware model number:	OX4-SRSoftware version number:	ORYX F/W v4.00 Oryx Data Collector v3.7.2.0data status	okinstallation	princeton_trtdifferential loss correction	single-endedforward channel	channel 1reverse channel	N/Adate	2019/09/13time	04:22:35forward acquisition time	60.00reverse acquisition time	0.00gamma	496.2192k internal	0.2334k external	0.2334temperature offset calibration	1.0157default loss term (dB/km)	0.3790temperature slope calibration	1.0000multiplexer offset coefficient	1.0000multiplexer slope coefficient	1.0000fibre end	0.00T internal ref (°C)	26.78T ext. ref 1 (°C)	4.04T ext. ref 2 (°C)	21.18length (m)	temperature (°C)	Stokes	anti-Stokes-747.200	292.047	0.042	0.077
-746.185	-200.000	0.017	0.147
-745.171	355.855	-0.050	0.099
-744.156	20.183	0.079	0.064
-743.142	-144.890	-0.235	0.022
-742.127	335.761	-0.144	0.281
-741.112	800.000	-0.059	0.164
-740.098	-4.048	-0.306	-0.213
-739.083	800.000	-0.031	0.114
-738.069	235.573	-0.136	0.226
-737.054	-97.986	0.265	0.069
-736.039	800.000	0.038	0.158
-735.025	-200.000	0.027	0.413
-734.010	-200.000	-0.037	0.184
-732.996	-9.909	-0.216	0.144
-731.981	257.460	-0.089	-0.154
-730.966	6.018	-0.129	-0.096
-729.952	22.560	0.112	0.092
-728.937	-93.053	-0.105	0.029
-727.923	-200.000	-0.056	-0.347
-726.908	15.696	-0.197	-0.156
-725.894	738.611	-0.128	-0.344
-724.879	-35.529	-0.146	0.080
-723.864	221.029	-0.138	0.223
-722.850	2.189	0.177	-0.128
-721.835	491.575	-0.126	-0.291
-720.821	800.000	-0.038	0.159
-719.806	304.613	0.094	-0.176
-718.791	282.895	-0.120	-0.216
-717.777	109.501	-0.101	-0.121
-716.762	800.000	-0.089	0.346
-715.748	-79.633	-0.219	-0.074
-714.733	31.248	-0.112	0.097
-713.718	-109.628	-0.264	0.056
-712.704	488.781	0.149	-0.342
-711.689	558.933	-0.106	0.257
-710.675	19.947	0.307	-0.248
-709.660	124.015	-0.211	-0.267
-708.645	224.772	-0.117	-0.190
-707.631	413.350	-0.052	-0.111
-706.616	72.294	0.151	0.158
-705.602	278.873	-0.120	-0.215
-704.587	-77.658	-0.081	-0.028
-703.572	-200.000	-0.011	-0.411
-702.558	54.823	-0.341	0.331
-701.543	-36.659	0.266	-0.144
-700.529	63.573	-0.131	-0.132
-699.514	318.996	0.052	-0.099
-698.499	-42.521	-0.183	0.094
-697.485	-200.000	-0.021	-0.182
-696.470	-97.752	-0.268	-0.070
-695.456	-153.909	-0.246	-0.017
-694.441	-104.570	-0.211	0.049
-693.426	236.858	0.170	-0.282
-692.412	800.000	-0.013	0.051
-691.397	-200.000	-0.004	0.180
-690.383	-66.815	-0.293	-0.116
-689.368	485.413	0.127	-0.289
-688.354	-140.416	-0.224	-0.023
-687.339	235.607	0.064	0.106
-686.324	-200.000	-0.040	0.336
-685.310	446.173	-0.231	-0.510
-684.295	800.000	-0.121	-0.391
-683.281	252.448	-0.285	-0.487
-682.266	-200.000	-0.057	0.401
-681.251	-125.951	0.295	-0.045
-680.237	43.821	0.031	-0.028
-679.222	17.905	0.220	-0.176
-678.208	349.168	-0.092	-0.183
-677.193	18.784	0.102	-0.082
-676.178	-168.257	0.157	-0.006
-675.164	-23.761	-0.491	0.295
-674.149	35.004	-0.267	-0.234
-673.135	-200.000	-0.025	0.122
-672.120	3.426	-0.054	-0.040
-671.105	-200.000	0.034	-0.211
-670.091	-59.447	-0.303	0.130
-669.076	-200.000	0.004	-0.072
-668.062	-183.920	-0.345	0.006
-667.047	-200.000	-0.006	-0.341
-666.032	-137.881	-0.315	-0.035
-665.018	-200.000	0.065	0.293
-664.003	-200.000	0.045	0.203
-662.989	-39.286	-0.281	0.148
-661.974	5.949	-0.034	0.025
-660.959	-52.132	-0.367	-0.171
-659.945	9.676	-0.259	-0.197
-658.930	800.000	-0.036	0.118
-657.916	86.300	0.139	-0.153
-656.901	800.000	0.050	-0.160
-655.886	-200.000	-0.010	0.083
-654.872	59.969	0.233	-0.231
-653.857	35.203	-0.061	0.054
-652.843	800.000	0.021	0.085
-651.828	176.048	-0.179	-0.260
-650.814	800.000	0.053	0.163
-649.799	393.058	-0.030	-0.063
-648.784	8.974	0.068	-0.052
-647.770	8.654	0.503	-0.379
-646.755	-114.717	-0.177	-0.034
-645.741	800.000	-0.148	0.499
-644.726	118.283	0.233	0.288
-643.711	200.929	0.174	-0.268
-642.697	-170.286	-0.230	-0.008
-641.682	-200.000	0.055	-0.383
-640.668	-200.000	0.076	-0.498
-639.653	250.518	-0.037	0.064
-638.638	-200.000	0.079	0.371
-637.624	-184.435	-0.174	0.003
-636.609	-200.000	0.029	0.274
-635.595	-196.953	-0.027	0.000
-634.580	53.005	0.209	-0.200
-633.565	-200.000	-0.013	0.462
-632.551	-200.000	-0.028	-0.304
-631.536	-34.586	0.102	-0.056
-630.522	208.189	-0.238	-0.373
-629.507	-81.843	-0.210	-0.069
-628.492	-114.765	0.100	-0.019
-627.478	-200.000	-0.021	0.149
-626.463	4.421	-0.200	0.147
-625.449	-11.174	-0.149	0.098
-624.434	-200.000	-0.004	0.385
-623.419	-44.011	0.429	-0.216
-622.405	79.373	0.205	-0.220
-621.390	-121.708	-0.135	0.022
-620.376	-200.000	-0.008	-0.213
-619.361	22.892	-0.164	-0.134
-618.346	-200.000	0.006	-0.147
-617.332	-22.875	-0.211	-0.127
-616.317	133.134	0.122	-0.158
-615.303	-94.076	-0.326	-0.090
-614.288	-26.019	0.133	0.078
-613.273	-43.879	-0.139	0.070
-612.259	-200.000	-0.012	-0.150
-611.244	-175.014	-0.225	0.006
-610.230	348.492	0.081	-0.161
-609.215	-60.582	-0.318	0.135
-608.201	-200.000	-0.002	-0.201
-607.186	40.241	0.226	-0.203
-606.171	-8.150	0.195	-0.132
-605.157	61.501	-0.176	-0.175
-604.142	674.218	-0.112	-0.291
-603.128	-155.704	-0.296	-0.019
-602.113	800.000	0.100	-0.353
-601.098	800.000	-0.047	-0.136
-600.084	800.000	0.064	0.208
-599.069	-200.000	0.029	-0.170
-598.055	-32.544	-0.137	0.076
-597.040	-86.568	0.201	0.062
-596.025	-151.966	0.316	0.023
-595.011	-173.373	0.226	0.007
-593.996	258.468	-0.059	-0.101
-592.982	135.008	-0.148	-0.192
-591.967	82.096	-0.097	-0.105
-590.952	64.487	0.152	-0.153
-589.938	-113.610	0.229	-0.045
-588.923	-200.000	0.000	0.148
-587.909	457.778	-0.016	0.035
-586.894	-66.761	0.060	-0.024
-585.879	435.738	0.138	-0.301
-584.865	353.918	-0.144	0.287
-583.850	84.586	0.187	0.204
-582.836	-10.120	0.328	0.218
-581.821	-4.464	0.291	0.201
-580.806	-123.355	-0.097	-0.015
-579.792	210.749	0.057	0.089
-578.777	-33.172	-0.074	-0.041
-577.763	122.644	-0.006	-0.008
-576.748	145.446	-0.198	0.264
-575.733	800.000	-0.049	0.171
-574.719	-148.001	-0.274	-0.023
-573.704	-47.111	-0.138	-0.067
-572.690	31.267	-0.234	-0.200
-571.675	-109.004	-0.268	0.057
-570.661	137.396	-0.187	-0.244
-569.646	-28.641	0.081	0.047
-568.631	-182.055	0.117	-0.002
-567.617	25.117	0.111	-0.092
-566.602	-37.980	0.101	-0.053
-565.588	-2.639	-0.211	0.147
-564.573	-166.666	-0.319	-0.013
-563.558	-177.762	0.337	-0.008
-562.544	-163.306	0.343	0.016
-561.529	75.029	0.073	0.077
-560.515	98.455	0.189	-0.217
-559.500	199.912	0.086	0.132
-558.485	117.270	-0.257	0.315
-557.471	95.210	0.100	0.114
-556.456	111.172	0.080	0.096
-555.442	50.127	-0.245	-0.231
-554.427	112.550	-0.149	0.180
-553.412	59.321	-0.126	-0.124
-552.398	383.377	0.139	-0.285
-551.383	-152.831	-0.279	-0.020
-550.369	-81.559	-0.100	0.033
-549.354	-200.000	-0.023	-0.212
-548.339	-13.388	-0.438	0.284
-547.325	-17.587	0.263	-0.165
-546.310	110.241	-0.064	0.076
-545.296	800.000	-0.024	-0.077
-544.281	-21.787	-0.212	0.129
-543.266	-57.194	-0.140	0.061
-542.252	-200.000	0.054	-0.261
-541.237	-125.000	-0.182	0.028
-540.223	62.133	-0.230	0.229
-539.208	169.328	0.168	0.239
-538.193	139.874	0.119	0.156
-537.179	800.000	0.036	-0.143
-536.164	-200.000	-0.073	0.502
-535.150	3.378	0.282	0.205
-534.135	9.773	0.152	-0.115
-533.121	338.715	-0.240	-0.466
-532.106	-40.466	0.050	-0.026
-531.091	-157.054	-0.080	-0.005
-530.077	-35.678	-0.125	-0.068
-529.062	-11.516	-0.175	-0.115
-528.048	14.587	-0.106	-0.082
-527.033	-75.447	-0.166	-0.059
-526.018	-200.000	-0.022	-0.284
-525.004	-110.928	0.048	0.010
-523.989	356.809	0.137	-0.272
-522.975	55.622	0.011	0.010
-521.960	-96.613	-0.136	0.036
-520.945	-160.688	0.088	0.005
-519.931	-150.787	0.067	0.005
-518.916	549.050	0.086	0.206
-517.902	58.917	0.172	0.168
-516.887	-95.215	0.210	-0.056
-515.872	534.298	0.142	0.335
-514.858	-200.000	0.007	0.173
-513.843	-7.913	-0.141	0.095
-512.829	800.000	-0.078	-0.255
-511.814	800.000	-0.071	-0.285
-510.799	92.736	-0.120	-0.135
-509.785	-97.203	0.106	-0.027
-508.770	365.967	-0.041	0.082
-507.756	96.478	-0.236	0.269
-506.741	-200.000	0.015	0.150
-505.726	-200.000	0.012	-0.102
-504.712	-56.146	-0.213	0.094
-503.697	164.189	0.104	-0.145
-502.683	85.629	0.212	-0.232
-501.668	800.000	0.083	0.274
-500.653	-195.909	-0.155	0.001
-499.639	-200.000	-0.013	-0.131
-498.624	175.861	-0.108	0.157
-497.610	177.614	0.176	-0.255
-496.595	-107.806	-0.224	-0.049
-495.581	-74.172	0.204	0.073
-494.566	-62.701	-0.224	-0.092
-493.551	-78.210	0.152	0.052
-492.537	-5.538	-0.185	-0.126
-491.522	-200.000	0.008	0.464
-490.508	-182.939	-0.130	-0.002
-489.493	118.220	-0.041	0.050
-488.478	-34.725	-0.281	0.153
-487.464	28.965	-0.091	0.076
-486.449	157.903	-0.116	-0.160
-485.435	636.885	-0.071	0.180
-484.420	41.354	0.160	0.144
-483.405	-176.599	-0.111	0.003
-482.391	-156.089	0.313	-0.020
-481.376	-200.000	0.097	-0.511
-480.362	365.131	-0.048	0.097
-479.347	550.702	-0.060	0.143
-478.332	-200.000	-0.023	-0.155
-477.318	53.190	-0.149	0.142
-476.303	674.297	0.107	0.275
-475.289	-16.726	0.259	-0.163
-474.274	-88.531	0.109	-0.032
-473.259	269.067	0.211	0.369
-472.245	-96.405	-0.303	-0.080
-471.230	204.349	-0.136	0.210
-470.216	-45.691	0.179	-0.088
-469.201	-12.441	-0.218	-0.142
-468.186	800.000	-0.072	-0.241
-467.172	71.392	0.107	-0.111
-466.157	315.675	-0.135	0.253
-465.143	74.512	0.034	0.036
-464.128	-119.024	0.092	-0.016
-463.113	-91.197	-0.259	0.074
-462.099	106.499	-0.169	0.199
-461.084	-40.043	-0.349	-0.181
-460.070	-189.705	0.318	0.004
-459.055	-5.801	0.159	0.108
-458.040	62.317	-0.324	0.321
-457.026	-200.000	-0.011	0.385
-456.011	-200.000	-0.025	0.437
-454.997	-109.373	-0.195	-0.041
-453.982	12.937	-0.294	0.226
-452.968	-200.000	0.023	-0.303
-451.953	241.259	-0.059	0.098
-450.938	-169.002	0.065	0.002
-449.924	64.951	-0.105	-0.106
-448.909	56.451	0.052	-0.050
-447.895	-67.635	0.160	0.062
-446.880	-200.000	-0.036	0.264
-445.865	-84.937	0.066	0.021
-444.851	-118.896	0.119	0.021
-443.836	-200.000	0.007	-0.257
-442.822	383.632	-0.081	0.165
-441.807	800.000	0.033	0.107
-440.792	-34.882	-0.246	-0.133
-439.778	-10.449	-0.331	0.218
-438.763	-83.114	-0.083	0.026
-437.749	-200.000	-0.002	0.350
-436.734	7.238	0.206	0.153
-435.719	69.392	0.110	0.113
-434.705	-21.886	-0.264	0.159
-433.690	207.052	-0.069	-0.107
-432.676	278.059	0.125	0.222
-431.661	37.436	-0.293	0.258
-430.646	-15.137	-0.066	0.042
-429.632	-200.000	-0.010	-0.554
-428.617	-51.990	0.287	-0.133
-427.603	-64.495	0.195	0.079
-426.588	362.305	0.029	-0.057
-425.573	-119.818	-0.362	-0.062
-424.559	676.158	-0.042	-0.109
-423.544	-50.443	0.163	-0.076
-422.530	-200.000	0.000	-0.361
-421.515	191.871	0.108	-0.162
-420.500	54.186	-0.217	-0.207
-419.486	0.231	0.221	-0.157
-418.471	-80.275	0.255	-0.085
-417.457	-200.000	0.003	0.149
-416.442	-200.000	-0.036	-0.205
-415.428	-10.077	0.018	0.012
-414.413	643.528	0.097	0.247
-413.398	123.044	0.112	-0.139
-412.384	14.901	-0.142	-0.110
-411.369	-200.000	0.028	-0.312
-410.355	157.259	-0.159	-0.218
-409.340	-173.430	-0.255	0.008
-408.325	20.647	0.296	-0.238
-407.311	139.721	0.178	0.233
-406.296	-167.093	0.448	-0.018
-405.282	-200.000	-0.017	-0.160
-404.267	382.395	0.209	0.427
-403.252	-200.000	0.033	0.177
-402.238	-67.634	0.212	0.082
-401.223	29.222	-0.213	0.180
-400.209	-120.004	-0.210	0.036
-399.194	694.517	-0.046	-0.120
-398.179	268.524	0.043	-0.075
-397.165	800.000	-0.049	0.202
-396.150	680.949	0.176	0.455
-395.136	-200.000	-0.030	0.185
-394.121	-200.000	0.069	-0.379
-393.106	-148.645	0.246	-0.020
-392.092	-200.000	-0.054	0.397
-391.077	20.989	-0.085	0.069
-390.063	167.220	-0.102	-0.143
-389.048	-100.397	-0.229	0.056
-388.033	-114.212	-0.275	0.053
-387.019	-186.664	-0.389	-0.005
-386.004	-59.768	0.166	0.070
-384.990	-144.006	0.205	-0.019
-383.975	188.415	-0.039	-0.058
-382.960	121.810	-0.272	0.337
-381.946	447.284	0.034	-0.074
-380.931	32.612	0.191	-0.164
-379.917	145.563	-0.145	-0.192
-378.902	633.626	-0.083	-0.209
-377.888	-28.537	0.200	0.114
-376.873	-19.350	0.156	-0.096
-375.858	-121.589	-0.131	0.022
-374.844	37.185	0.296	0.260
-373.829	-77.957	-0.305	-0.104
-372.815	-32.215	0.197	0.109
-371.800	-126.690	0.246	0.036
-370.785	-200.000	-0.081	-0.685
-369.771	-6.668	-0.323	0.218
-368.756	-110.167	-0.187	-0.039
-367.742	260.150	0.049	-0.083
-366.727	199.011	0.075	-0.114
-365.712	-9.760	-0.269	-0.177
-364.698	-200.000	0.023	-0.272
-363.683	33.534	0.106	-0.091
-362.669	-55.047	-0.159	0.071
-361.654	288.079	-0.063	-0.113
-360.639	295.785	0.115	0.209
-359.625	-135.603	-0.260	0.031
-358.610	-156.409	0.218	-0.013
-357.596	-68.949	0.025	0.010
-356.581	726.138	0.103	-0.271
-355.566	-115.102	0.119	-0.022
-354.552	336.908	0.049	0.095
-353.537	-100.472	-0.271	-0.066
-352.523	12.925	-0.326	-0.250
-351.508	100.477	-0.044	0.050
-350.493	800.000	0.007	0.022
-349.479	-200.000	0.066	0.311
-348.464	13.473	-0.187	-0.143
-347.450	-127.800	0.239	0.034
-346.435	-200.000	0.006	0.283
-345.420	-16.141	0.211	0.133
-344.406	110.409	-0.099	-0.117
-343.391	40.352	-0.186	0.166
-342.377	-109.476	0.241	0.050
-341.362	-155.208	-0.317	-0.020
-340.348	380.416	0.050	-0.102
-339.333	-165.043	-0.128	-0.006
-338.318	259.220	0.152	-0.259
-337.304	274.060	0.141	0.246
-336.289	-146.586	0.243	-0.021
-335.275	-58.450	-0.102	-0.044
-334.260	800.000	-0.043	0.151
-333.245	-101.591	-0.137	0.033
-332.231	131.864	0.161	-0.206
-331.216	143.238	0.166	0.218
-330.202	347.965	-0.126	0.246
-329.187	412.059	0.115	0.241
-328.172	-65.497	-0.238	-0.094
-327.158	28.600	-0.220	0.184
-326.143	-116.799	0.366	-0.066
-325.129	-200.000	0.004	-0.170
-324.114	34.049	-0.332	-0.286
-323.099	-22.199	0.278	-0.167
-322.085	63.306	0.160	-0.158
-321.070	372.855	-0.160	0.321
-320.056	-16.712	0.106	0.066
-319.041	-113.630	-0.190	-0.037
-318.026	-200.000	-0.060	0.329
-317.012	-122.101	0.234	-0.038
-315.997	535.314	0.065	0.153
-314.983	-6.686	-0.241	-0.162
-313.968	5.991	-0.197	-0.144
-312.953	410.994	0.159	-0.333
-311.939	284.538	-0.144	0.256
-310.924	-154.309	0.111	-0.007
-309.910	-76.213	-0.127	0.044
-308.895	401.289	-0.111	-0.231
-307.880	170.630	0.003	0.005
-306.866	111.362	0.112	-0.133
-305.851	-45.865	-0.235	0.114
-304.837	208.053	0.179	0.276
-303.822	-49.618	0.022	-0.010
-302.807	-35.973	0.116	0.062
-301.793	416.106	0.041	0.086
-300.778	118.152	-0.158	-0.193
-299.764	406.264	0.090	0.187
-298.749	78.543	0.190	0.201
-297.735	-83.680	0.064	-0.020
-296.720	-76.951	0.092	-0.032
-295.705	-200.000	0.264	0.001
-294.691	-68.831	-0.212	-0.081
-293.676	-20.875	0.284	0.172
-292.662	202.983	0.200	-0.305
-291.647	-81.297	0.296	-0.097
-290.632	712.313	0.040	-0.105
-289.618	32.963	0.101	-0.086
-288.603	-183.450	0.285	-0.005
-287.589	-200.000	-0.017	0.134
-286.574	315.988	-0.098	0.182
-285.559	-159.622	-0.116	-0.006
-284.545	-44.805	0.461	-0.227
-283.530	-92.891	-0.085	-0.024
-282.516	-146.639	-0.252	0.022
-281.501	230.025	0.088	0.142
-280.486	106.578	-0.273	0.319
-279.472	13.596	-0.009	-0.007
-278.457	-200.000	0.015	0.221
-277.443	122.076	-0.099	0.122
-276.428	-50.839	-0.088	-0.041
-275.413	-41.976	0.233	-0.118
-274.399	-37.157	0.095	-0.050
-273.384	-200.000	0.009	0.131
-272.370	481.414	-0.034	-0.076
-271.355	153.712	0.041	0.056
-270.340	-200.000	-0.017	-0.445
-269.326	296.754	0.094	-0.170
-268.311	597.391	0.124	-0.302
-267.297	-4.791	0.177	-0.120
-266.282	422.079	-0.229	-0.485
-265.267	-200.000	-0.061	-0.487
-264.253	33.115	-0.050	-0.043
-263.238	-69.381	0.287	-0.109
-262.224	-200.000	-0.020	-0.179
-261.209	321.571	-0.190	0.356
-260.195	800.000	-0.197	-0.545
-259.180	-185.164	-0.400	0.006
-258.165	66.099	0.082	0.082
-257.151	-200.000	0.054	0.416
-256.136	-55.931	-0.214	0.094
-255.122	-98.114	-0.163	0.041
-254.107	800.000	0.087	-0.248
-253.092	-200.000	-0.004	-0.281
-252.078	-20.634	0.055	-0.033
-251.063	-48.281	0.353	0.168
-250.049	-72.842	0.234	0.085
-249.034	-200.000	-0.008	-0.213
-248.019	-116.581	0.077	0.014
-247.005	53.788	0.094	0.089
-245.990	-39.135	-0.114	0.059
-244.976	-33.677	0.224	-0.122
-243.961	11.074	0.158	0.119
-242.946	374.841	-0.114	-0.229
-241.932	800.000	0.116	-0.482
-240.917	-41.620	-0.035	-0.018
-239.903	193.727	0.154	0.229
-238.888	800.000	-0.033	-0.140
-237.873	213.603	-0.083	-0.129
-236.859	358.146	0.065	-0.128
-235.844	800.000	0.055	0.181
-234.830	-200.000	-0.101	0.457
-233.815	-119.676	0.121	0.021
-232.800	-106.490	0.226	-0.050
-231.786	-134.007	0.206	-0.025
-230.771	-200.000	0.058	0.347
-229.757	360.838	0.087	-0.172
-228.742	-100.996	-0.052	0.013
-227.727	800.000	0.052	-0.199
-226.713	-175.287	-0.238	0.006
-225.698	-146.474	-0.262	0.022
-224.684	45.584	-0.184	0.168
-223.669	-117.340	-0.304	0.054
-222.655	502.034	-0.043	0.098
-221.640	-200.000	0.009	-0.044
-220.625	184.587	0.069	-0.100
-219.611	-120.727	0.423	0.070
-218.596	33.772	-0.274	-0.235
-217.582	-135.981	0.157	0.018
-216.567	240.195	0.056	-0.091
-215.552	462.020	0.113	-0.248
-214.538	136.487	-0.144	0.185
-213.523	207.858	-0.190	-0.293
-212.509	298.870	0.105	0.189
-211.494	-104.632	0.418	0.095
-210.479	-38.077	-0.373	-0.195
-209.465	53.646	0.107	-0.101
-208.450	-81.003	0.129	-0.042
-207.436	-200.000	0.011	-0.197
-206.421	-98.985	0.411	0.103
-205.406	800.000	0.024	-0.101
-204.392	14.644	-0.255	0.196
-203.377	-200.000	-0.007	0.107
-202.363	278.634	-0.138	0.243
-201.348	-124.721	0.113	0.017
-200.333	-15.550	-0.281	-0.177
-199.319	-119.761	-0.420	-0.071
-198.304	-64.077	0.340	0.137
-197.290	224.271	0.075	0.119
-196.275	182.750	-0.254	0.368
-195.260	623.633	-0.055	0.136
-194.246	-144.257	-0.153	-0.014
-193.231	206.195	0.111	0.170
-192.217	-108.205	-0.201	0.043
-191.202	-59.566	0.333	0.140
-190.187	-200.000	0.028	-0.236
-189.173	-84.760	-0.252	-0.078
-188.158	-80.708	-0.286	-0.094
-187.144	-103.799	0.243	-0.056
-186.129	-200.000	-0.029	-0.167
-185.114	9.732	0.125	0.093
-184.100	316.042	0.200	-0.371
-183.085	9.075	0.254	0.189
-182.071	-200.000	-0.033	0.333
-181.056	-200.000	-0.013	0.074
-180.042	23.007	0.394	-0.317
-179.027	800.000	0.037	0.128
-178.012	-33.487	-0.399	0.217
-176.998	90.326	-0.099	0.109
-175.983	754.496	-0.079	0.209
-174.969	10.189	-0.196	-0.146
-173.954	-200.000	-0.021	0.107
-172.939	15.341	-0.152	-0.117
-171.925	-82.829	0.113	-0.036
-170.910	-93.771	-0.045	0.012
-169.896	-76.954	0.356	-0.122
-168.881	-106.485	-0.121	0.026
-167.866	800.000	0.150	0.505
-166.852	740.294	0.147	0.388
-165.837	-49.426	0.291	0.137
-164.823	6.511	0.450	0.329
-163.808	-131.447	0.147	-0.019
-162.793	-28.108	-0.235	-0.134
-161.779	-87.758	-0.342	-0.101
-160.764	761.851	0.030	-0.079
-159.750	-58.205	0.182	-0.078
-158.735	-64.279	0.341	0.136
-157.720	-200.000	-0.008	0.038
-156.706	800.000	0.119	0.474
-155.691	409.575	0.097	0.201
-154.677	-89.829	0.253	0.073
-153.662	-200.000	0.005	-0.249
-152.647	-110.700	-0.090	-0.018
-151.633	574.851	0.084	0.200
-150.618	-57.691	0.273	0.117
-149.604	-67.921	0.116	-0.045
-148.589	-152.135	-0.428	0.030
-147.574	-103.938	0.369	-0.084
-146.560	-192.650	0.096	-0.001
-145.545	164.109	0.089	0.123
-144.531	-81.223	-0.098	-0.032
-143.516	-15.613	0.464	-0.290
-142.502	-5.256	-0.227	0.153
-141.487	-118.258	-0.268	0.047
-140.472	-90.175	0.287	-0.082
-139.458	98.994	0.248	0.281
-138.443	-35.058	-0.063	0.034
-137.429	-162.894	-0.216	0.010
-136.414	-13.348	-0.247	0.157
-135.399	145.716	0.040	0.052
-134.385	133.563	0.124	0.157
-133.370	-200.000	0.051	-0.311
-132.356	-125.502	-0.296	-0.044
-131.341	604.055	-0.076	0.185
-130.326	329.625	0.117	0.220
-129.312	38.879	-0.084	0.074
-128.297	4.756	0.178	0.128
-127.283	177.622	0.225	0.322
-126.268	-3.129	-0.066	0.045
-125.253	-200.000	-0.013	-0.063
-124.239	150.679	0.062	-0.082
-123.224	292.296	0.062	-0.110
-122.210	-120.865	-0.025	-0.004
-121.195	39.769	0.063	0.055
-120.180	-200.000	-0.064	-0.331
-119.166	-125.727	0.200	-0.030
-118.151	253.173	-0.031	0.052
-117.137	-200.000	-0.011	-0.103
-116.122	271.588	0.122	-0.211
-115.107	-107.375	-0.125	-0.027
-114.093	-200.000	-0.026	0.123
-113.078	800.000	-0.055	-0.227
-112.064	32.714	0.146	-0.124
-111.049	2.170	-0.224	0.159
-110.034	-200.000	0.017	-0.102
-109.020	-81.342	0.390	-0.126
-108.005	136.690	0.191	0.245
-106.991	-65.577	0.139	0.055
-105.976	-22.951	0.125	0.074
-104.962	113.932	0.178	0.213
-103.947	-46.731	-0.245	0.118
-102.932	-26.644	0.240	0.138
-101.918	-72.207	-0.430	0.156
-100.903	-200.000	0.052	0.374
-99.889	-124.261	0.033	-0.005
-98.874	37.073	0.156	0.136
-97.859	-134.014	0.195	0.024
-96.845	-200.000	0.065	-0.365
-95.830	-136.757	-0.074	0.008
-94.816	195.699	0.079	-0.118
-93.801	176.063	-0.100	0.142
-92.786	507.557	-0.112	0.254
-91.772	-35.396	-0.103	-0.055
-90.757	-143.220	-0.193	-0.018
-89.743	-74.163	-0.442	-0.157
-88.728	-41.890	0.243	-0.122
-87.713	-101.509	-0.214	-0.051
-86.699	45.616	0.263	-0.238
-85.684	-70.488	0.127	0.047
-84.670	800.000	0.069	-0.238
-83.655	-200.000	-0.010	0.063
-82.640	42.188	-0.087	-0.077
-81.626	154.568	0.215	0.290
-80.611	490.346	-0.030	0.067
-79.597	95.874	-0.245	-0.274
-78.582	800.000	0.047	-0.202
-77.567	-94.882	-0.029	-0.008
-76.553	800.000	-0.125	0.513
-75.538	-120.595	0.221	0.037
-74.524	-104.635	-0.223	-0.050
-73.509	376.761	0.151	-0.301
-72.494	-57.664	0.225	0.096
-71.480	-200.000	-0.008	0.251
-70.465	43.284	-0.120	-0.107
-69.451	605.164	0.042	0.102
-68.436	553.478	-0.010	-0.023
-67.422	30.054	0.181	0.151
-66.407	-4.737	0.122	0.083
-65.392	40.470	0.237	-0.209
-64.378	257.153	-0.188	0.317
-63.363	-200.000	0.011	-0.094
-62.349	166.202	-0.137	0.191
-61.334	19.637	-1.252	-0.986
-60.319	153.673	0.574	0.770
-59.305	406.797	-0.502	-1.037
-58.290	465.883	0.593	1.299
-57.276	638.466	0.562	1.398
-56.261	-200.000	117.247	660.950
-55.246	521.357	1540.129	3536.114
-54.232	175.890	2706.890	3843.629
-53.217	107.553	2148.981	2502.302
-52.203	38.458	1587.283	1384.286
-51.188	30.164	1331.501	1111.687
-50.173	27.246	1293.374	1062.792
-49.159	54.735	1351.346	1275.313
-48.144	52.784	1364.974	1276.511
-47.130	30.357	1319.261	1102.443
-46.115	26.920	1301.427	1067.317
-45.100	26.729	1296.555	1062.162
-44.086	26.572	1294.380	1059.417
-43.071	26.558	1291.698	1057.102
-42.057	26.491	1289.706	1055.037
-41.042	26.596	1288.167	1054.346
-40.027	26.663	1286.567	1053.386
-39.013	26.659	1284.526	1051.649
-37.998	26.586	1282.649	1049.648
-36.984	26.748	1280.850	1049.074
-35.969	26.761	1279.009	1047.598
-34.954	26.853	1277.688	1047.007
-33.940	26.867	1275.793	1045.492
-32.925	26.864	1274.536	1044.401
-31.911	26.813	1273.414	1043.146
-30.896	26.831	1272.242	1042.251
-29.881	26.846	1270.855	1041.158
-28.867	26.994	1268.794	1040.276
-27.852	26.860	1268.044	1038.857
-26.838	26.918	1266.441	1037.832
-25.823	26.853	1265.233	1036.431
-24.809	26.808	1263.851	1035.001
-23.794	26.799	1262.483	1033.786
-22.779	26.836	1261.203	1032.910
-21.765	26.917	1260.009	1032.348
-20.750	26.856	1258.348	1030.603
-19.736	26.754	1257.310	1029.130
-18.721	26.732	1256.283	1028.128
-17.706	26.738	1255.423	1027.417
-16.692	26.828	1253.737	1026.506
-15.677	26.801	1252.954	1025.667
-14.663	26.727	1252.113	1024.523
-13.648	26.798	1250.490	1023.553
-12.633	26.761	1249.558	1022.539
-11.619	26.671	1248.975	1021.519
-10.604	26.691	1248.192	1020.947
-9.590	26.814	1247.131	1020.734
-8.575	26.742	1245.917	1019.296
-7.560	26.680	1245.495	1018.560
-6.546	26.681	1244.521	1017.725
-5.531	26.702	1243.877	1017.276
-4.517	26.725	1242.675	1016.382
-3.502	26.687	1242.465	1015.961
-2.487	26.750	1240.860	1014.961
-1.473	26.804	1236.230	1011.435
-0.458	25.117	1221.713	990.205
0.556	23.217	1204.793	952.637
1.571	19.175	1210.579	935.223
2.586	18.315	1225.305	941.787
3.600	18.164	1213.958	932.162
4.615	14.125	1143.465	857.176
5.629	7.207	1072.996	770.720
6.644	4.484	1054.864	744.588
7.659	4.004	1052.691	740.693
8.673	3.828	1051.363	738.855
9.688	3.846	1049.925	737.865
10.702	4.201	1048.358	738.386
11.717	8.819	1053.906	764.302
12.731	16.551	1065.030	809.440
13.746	21.472	1070.998	837.525
14.761	22.462	1071.515	842.594
15.775	21.702	1070.268	837.907
16.790	20.708	1068.534	831.728
17.804	20.155	1067.221	827.988
18.819	19.829	1066.343	825.680
19.834	19.968	1065.555	825.660
20.848	19.895	1064.720	824.592
21.863	19.732	1064.484	823.558
22.877	19.529	1064.017	822.159
23.892	19.425	1063.246	820.995
24.907	19.507	1062.003	820.353
25.921	19.512	1060.696	819.292
26.936	19.333	1059.803	817.683
27.950	19.467	1058.079	816.913
28.965	19.506	1057.114	816.282
29.980	19.741	1055.648	816.187
30.994	19.833	1054.747	815.853
32.009	19.932	1053.815	815.528
33.023	19.734	1052.977	813.872
34.038	19.628	1051.925	812.491
35.053	19.477	1050.890	810.909
36.067	19.492	1049.849	810.102
37.082	19.568	1049.439	810.073
38.096	19.785	1048.837	810.554
39.111	19.813	1048.125	810.061
40.126	19.398	1046.861	807.071
41.140	19.059	1045.458	804.335
42.155	19.081	1043.571	802.914
43.169	19.014	1042.834	801.962
44.184	19.036	1042.110	801.439
45.199	19.005	1041.200	800.524
46.213	19.184	1040.364	800.643
47.228	19.456	1039.518	801.184
48.242	19.629	1038.633	801.234
49.257	19.715	1037.378	800.593
50.271	19.587	1037.335	799.895
51.286	19.639	1036.420	799.360
52.301	19.573	1035.354	798.164
53.315	19.449	1034.398	796.781
54.330	19.259	1033.054	794.801
55.344	19.289	1032.339	794.316
56.359	19.204	1031.412	793.144
57.374	19.169	1030.513	792.220
58.388	19.141	1029.264	791.060
59.403	19.020	1028.741	790.035
60.417	19.007	1027.929	789.279
61.432	18.896	1027.301	788.219
62.447	18.909	1026.199	787.365
63.461	18.850	1025.426	786.429
64.476	18.837	1024.382	785.503
65.490	18.880	1023.120	784.659
66.505	18.819	1023.287	784.440
67.520	18.825	1022.474	783.774
68.534	18.816	1021.524	782.939
69.549	18.645	1021.061	781.734
70.563	18.762	1019.648	781.115
71.578	18.500	1019.254	779.553
72.593	18.505	1018.156	778.667
73.607	18.591	1017.288	778.326
74.622	18.685	1016.816	778.322
75.636	18.682	1016.288	777.834
76.651	18.592	1015.676	776.891
77.666	18.781	1014.482	776.761
78.680	18.690	1014.585	776.359
79.695	18.687	1013.696	775.599
80.709	19.008	1013.143	776.554
81.724	19.097	1012.601	776.474
82.739	19.160	1012.177	776.365
83.753	19.452	1011.746	777.278
84.768	19.857	1011.063	778.509
85.782	19.997	1010.339	778.512
86.797	19.833	1009.459	777.030
87.812	19.627	1008.409	775.229
88.826	19.745	1007.630	775.089
89.841	19.840	1006.856	774.852
90.855	19.869	1006.072	774.306
91.870	19.907	1005.119	773.677
92.884	19.972	1004.097	773.109
93.899	19.798	1003.474	771.788
94.914	19.911	1002.794	771.699
95.928	19.805	1001.752	770.359
96.943	19.739	1000.426	768.976
97.957	19.618	999.907	767.969
98.972	19.760	998.998	767.837
99.987	19.719	998.001	766.817
101.001	19.684	997.296	766.052
102.016	19.700	996.105	765.143
103.030	19.773	995.462	764.906
104.045	19.734	994.800	764.156
105.060	19.619	993.565	762.631
106.074	19.227	992.738	760.199
107.089	19.046	991.251	758.196
108.103	19.001	990.222	757.143
109.118	18.841	989.138	755.547
110.133	18.795	988.075	754.462
111.147	18.895	987.300	754.245
112.162	18.942	987.028	754.176
113.176	19.229	986.165	754.706
114.191	19.026	986.210	753.786
115.206	19.101	984.990	753.114
116.220	18.963	984.194	751.834
117.235	19.027	983.024	751.153
118.249	18.981	982.319	750.349
119.264	18.820	981.447	748.915
120.279	18.812	980.789	748.310
121.293	18.676	979.866	746.950
122.308	18.494	979.189	745.575
123.322	18.565	977.822	744.779
124.337	18.475	976.852	743.584
125.352	18.466	975.582	742.512
126.366	18.462	974.784	741.820
127.381	18.666	973.653	741.777
128.395	18.663	973.087	741.267
129.410	18.699	971.879	740.436
130.424	18.826	971.253	740.441
131.439	19.106	970.793	741.229
132.454	19.096	969.703	740.289
133.468	19.004	969.091	739.360
134.483	19.143	968.269	739.267
135.497	19.044	967.559	738.235
136.512	19.067	966.852	737.729
137.527	19.055	966.233	737.136
138.541	19.014	965.434	736.288
139.556	19.117	965.028	736.353
140.570	19.445	964.329	737.158
141.585	19.592	963.962	737.438
142.600	19.553	963.175	736.607
143.614	19.702	961.893	736.195
144.629	19.807	961.682	736.415
145.643	19.706	960.297	734.862
146.658	19.520	959.040	733.044
147.673	19.316	957.858	731.208
148.687	19.235	956.404	729.690
149.702	19.207	955.647	728.929
150.716	19.104	955.302	728.169
151.731	19.285	954.416	728.192
152.746	19.244	953.923	727.581
153.760	19.335	953.160	727.315
154.775	19.484	952.802	727.606
155.789	19.440	952.193	726.893
156.804	19.452	951.668	726.478
157.819	19.513	951.053	726.202
158.833	19.791	950.216	726.664
159.848	19.921	949.559	726.646
160.862	19.658	947.987	724.277
161.877	19.278	946.788	721.705
162.892	19.120	945.400	719.922
163.906	19.122	944.457	719.148
164.921	19.084	944.070	718.631
165.935	19.324	943.256	718.950
166.950	19.381	942.073	718.219
167.964	19.324	941.683	717.624
168.979	19.327	939.867	716.187
169.994	19.146	939.966	715.448
171.008	19.277	939.110	715.275
172.023	19.577	938.693	716.141
173.037	19.838	938.076	716.690
174.052	19.548	936.946	714.560
175.067	19.250	935.950	712.508
176.081	18.962	935.589	710.976
177.096	19.028	934.721	710.530
178.110	19.308	933.896	710.992
179.125	19.206	933.498	710.209
180.140	19.361	933.243	710.590
181.154	19.458	933.488	711.112
182.169	19.740	932.602	711.535
183.183	19.819	932.148	711.450
184.198	19.815	930.920	710.436
185.213	19.557	931.143	709.483
186.227	19.792	929.979	709.495
187.242	19.959	929.584	709.815
188.256	19.909	929.134	709.207
189.271	19.958	928.476	708.840
190.286	19.430	927.706	706.031
191.300	18.951	926.191	702.856
192.315	18.926	925.082	701.853
193.329	18.991	924.966	701.968
194.344	19.064	924.985	702.216
195.359	19.405	923.698	702.567
196.373	19.471	923.230	702.417
197.388	19.705	923.387	703.427
198.402	19.924	922.735	703.759
199.417	20.124	922.279	704.162
200.432	20.260	921.781	704.273
201.446	20.270	921.436	703.983
202.461	20.389	921.184	704.212
203.475	20.198	920.086	702.538
204.490	19.935	918.618	700.291
205.504	19.806	918.177	699.371
206.519	19.593	917.699	698.085
207.534	19.773	916.661	697.962
208.548	19.822	916.051	697.630
209.563	19.773	915.455	696.917
210.577	19.878	915.031	696.957
211.592	20.128	914.636	697.599
212.607	20.147	914.062	697.176
213.621	20.062	913.377	696.252
214.636	19.959	912.643	695.215
215.650	20.133	911.439	694.936
216.665	20.091	911.238	694.554
217.680	20.182	910.799	694.523
218.694	20.268	910.017	694.206
219.709	20.335	909.224	693.808
220.723	20.149	908.713	692.616
221.738	19.980	908.501	691.718
222.753	20.213	907.331	691.694
223.767	20.099	907.083	690.989
224.782	20.401	906.694	691.836
225.796	20.444	906.125	691.510
226.811	20.222	905.547	690.126
227.826	20.000	904.581	688.445
228.840	19.898	903.857	687.429
229.855	20.122	902.931	687.553
230.869	20.000	902.379	686.587
231.884	19.875	901.733	685.538
232.899	19.808	901.012	684.666
233.913	19.575	900.216	683.079
234.928	19.604	899.792	682.812
235.942	19.661	898.516	682.009
236.957	19.633	898.376	681.730
237.972	19.596	898.188	681.380
238.986	19.813	897.206	681.433
240.001	19.836	896.477	680.907
241.015	19.967	896.215	681.165
242.030	19.950	895.924	680.817
243.045	19.922	895.060	679.989
244.059	20.009	894.490	679.838
245.074	20.167	893.654	679.761
246.088	20.193	893.612	679.772
247.103	20.452	893.039	680.289
248.117	20.581	892.709	680.483
249.132	20.959	892.438	681.695
250.147	21.124	891.907	681.875
251.161	21.247	891.101	681.678
252.176	21.121	890.999	681.046
253.190	21.324	890.261	681.216
254.205	21.328	889.534	680.611
255.220	21.239	888.639	679.522
256.234	20.969	888.600	678.379
257.249	20.971	887.581	677.550
258.263	21.209	886.384	677.502
259.278	21.113	886.066	676.825
260.293	21.116	885.622	676.437
261.307	21.199	885.538	676.634
262.322	21.310	884.268	676.037
263.336	21.308	883.749	675.569
264.351	21.346	882.824	674.952
265.366	21.424	882.684	675.087
266.380	21.326	881.803	673.974
267.395	20.971	881.302	672.164
268.409	20.987	880.317	671.413
269.424	21.084	879.433	671.053
270.439	21.105	878.462	670.332
271.453	20.912	877.769	669.005
272.468	20.839	877.869	668.740
273.482	20.970	876.959	668.491
274.497	20.769	876.669	667.441
275.512	20.921	875.705	667.230
276.526	20.988	875.091	666.960
277.541	21.113	875.026	667.326
278.555	21.217	874.743	667.451
279.570	21.442	874.052	667.723
280.585	21.276	873.323	666.475
281.599	21.113	872.156	664.904
282.614	20.915	871.808	663.827
283.628	21.097	870.972	663.824
284.643	20.947	870.568	662.884
285.657	20.858	870.263	662.254
286.672	20.938	869.504	661.926
287.687	21.105	868.623	661.830
288.701	21.007	868.245	661.110
289.716	21.136	867.522	660.989
290.730	21.168	867.340	660.915
291.745	21.136	866.668	660.224
292.760	21.232	866.257	660.215
293.774	21.533	865.643	660.824
294.789	21.346	864.475	659.169
295.803	21.184	863.578	657.815
296.818	20.982	863.175	656.691
297.833	21.008	862.725	656.389
298.847	21.159	861.913	656.280
299.862	21.285	861.449	656.342
300.876	21.383	861.068	656.360
301.891	21.579	860.591	656.675
302.906	21.525	860.609	656.429
303.920	21.893	859.749	657.093
304.935	21.762	859.386	656.267
305.949	21.596	858.601	654.990
306.964	21.371	858.143	653.739
307.979	21.570	857.493	653.931
308.993	21.544	856.940	653.354
310.008	21.668	856.246	653.228
311.022	21.549	855.581	652.219
312.037	21.323	854.686	650.639
313.052	20.959	853.926	648.648
314.066	21.084	853.530	648.756
315.081	20.980	853.260	648.107
316.095	21.132	852.259	647.853
317.110	21.008	851.899	647.064
318.125	21.040	851.364	646.718
319.139	21.003	851.034	646.270
320.154	21.038	850.288	645.776
321.168	21.183	849.908	645.969
322.183	21.138	849.388	645.351
323.197	21.300	848.626	645.312
324.212	21.295	848.271	644.967
325.227	21.185	847.842	644.179
326.241	21.141	846.964	643.291
327.256	21.213	846.177	642.900
328.270	21.177	845.741	642.382
329.285	21.132	844.927	641.542
330.300	21.128	844.441	641.100
331.314	21.311	843.813	641.239
332.329	21.374	844.506	641.937
333.343	21.529	843.733	641.864
334.358	21.475	843.046	641.085
335.373	21.522	842.769	640.989
336.387	21.699	842.376	641.283
337.402	21.667	842.278	641.034
338.416	21.917	842.205	641.836
339.431	22.020	841.879	641.908
340.446	22.093	841.582	641.891
341.460	21.965	841.246	641.109
342.475	22.209	840.775	641.585
343.489	22.279	840.497	641.572
344.504	22.331	840.094	641.399
345.519	22.389	839.767	641.301
346.533	22.173	839.056	639.917
347.548	21.853	838.126	637.986
348.562	21.710	836.886	636.466
349.577	21.581	836.424	635.591
350.592	21.605	835.406	634.847
351.606	21.461	834.836	633.839
352.621	21.586	834.203	633.754
353.635	21.617	833.505	633.278
354.650	21.812	832.987	633.532
355.665	21.751	832.651	633.002
356.679	21.909	832.467	633.377
357.694	21.947	831.336	632.595
358.708	21.961	830.371	631.856
359.723	21.933	830.171	631.547
360.738	21.953	829.418	630.991
361.752	21.917	829.454	630.833
362.767	22.107	828.926	631.058
363.781	22.310	828.388	631.320
364.796	22.424	828.333	631.632
365.810	22.563	828.025	631.842
366.825	22.606	827.695	631.688
367.840	22.522	826.973	630.779
368.854	22.330	826.074	629.349
369.869	22.207	825.716	628.583
370.883	22.275	825.287	628.444
371.898	22.497	824.876	628.867
372.913	22.536	824.612	628.749
373.927	22.460	824.022	627.974
374.942	22.374	823.526	627.234
375.956	22.428	823.415	627.286
376.971	22.538	822.979	627.289
377.986	22.732	822.667	627.686
379.000	22.872	821.998	627.620
380.015	22.775	821.189	626.602
381.029	22.711	820.586	625.857
382.044	22.746	820.106	625.562
383.059	22.801	819.648	625.352
384.073	22.627	818.817	624.044
385.088	22.455	817.903	622.685
386.102	22.202	817.483	621.417
387.117	22.303	816.845	621.235
388.132	22.209	816.048	620.241
389.146	22.390	815.611	620.493
390.161	22.524	815.794	621.048
391.175	22.576	815.056	620.614
392.190	22.541	814.358	619.907
393.205	22.358	813.867	618.835
394.219	22.375	813.096	618.252
395.234	22.123	812.972	617.219
396.248	21.976	812.618	616.379
397.263	22.022	811.758	615.835
398.278	21.973	811.073	615.086
399.292	21.762	811.231	614.413
400.307	22.017	810.334	614.572
401.321	22.126	810.014	614.655
402.336	22.135	809.534	614.268
403.350	22.458	809.514	615.329
404.365	22.378	809.363	614.881
405.380	22.694	808.831	615.524
406.394	22.979	808.291	616.053
407.409	22.850	808.070	615.381
408.423	22.925	807.812	615.390
409.438	22.995	807.682	615.481
410.453	23.040	807.109	615.144
411.467	23.087	806.410	614.720
412.482	23.259	806.159	615.074
413.496	23.299	805.684	614.794
414.511	23.303	805.340	614.492
415.526	23.317	804.818	614.089
416.540	23.077	804.123	612.672
417.555	23.031	803.800	612.212
418.569	23.145	803.338	612.203
419.584	23.084	802.804	611.528
420.599	22.986	802.596	610.978
421.613	165.116	1371.941	1798.157
422.628	143.558	1454.883	1798.219
