DTS Sentinel unit serial number:	SN413079Multiplexer serial number:	ORYXHardware model number:	OX4-SRSoftware version number:	ORYX F/W v4.00 Oryx Data Collector v3.7.2.0data status	okinstallation	princeton_trtdifferential loss correction	single-endedforward channel	channel 1reverse channel	N/Adate	2019/09/12time	12:44:11forward acquisition time	60.00reverse acquisition time	0.00gamma	496.2192k internal	0.2291k external	0.2291temperature offset calibration	1.0040default loss term (dB/km)	0.3790temperature slope calibration	1.0000multiplexer offset coefficient	1.0000multiplexer slope coefficient	1.0000fibre end	0.00T internal ref (°C)	40.55T ext. ref 1 (°C)	2.04T ext. ref 2 (°C)	37.63length (m)	temperature (°C)	Stokes	anti-Stokes-747.200	47.287	0.287	0.273
-746.185	-50.669	-0.172	0.083
-745.171	800.000	-0.061	-0.226
-744.156	-200.000	-0.018	0.427
-743.142	-185.938	-0.461	-0.007
-742.127	-200.000	0.045	0.423
-741.112	-137.092	-0.166	-0.019
-740.098	-200.000	-0.032	0.511
-739.083	-181.457	0.258	0.005
-738.069	-200.000	-0.117	-0.000
-737.054	-200.000	-0.040	0.217
-736.039	-12.162	-0.096	0.064
-735.025	-96.072	-0.250	0.068
-734.010	-119.581	-0.454	-0.080
-732.996	-139.799	-0.246	-0.027
-731.981	159.144	-0.201	-0.286
-730.966	800.000	0.077	0.254
-729.952	72.111	0.209	0.223
-728.937	-200.000	0.005	-0.176
-727.923	297.159	0.136	0.255
-726.908	-87.466	-0.181	0.056
-725.894	-149.361	0.111	-0.009
-724.879	148.024	-0.070	-0.096
-723.864	-66.710	-0.114	0.046
-722.850	-76.699	-0.090	-0.032
-721.835	-4.961	0.057	-0.040
-720.821	-200.000	-0.021	0.120
-719.806	-200.000	-0.044	0.336
-718.791	189.832	-0.022	-0.034
-717.777	-115.606	-0.336	0.065
-716.762	83.025	0.302	0.336
-715.748	-126.886	0.340	-0.051
-714.733	5.832	0.015	-0.011
-713.718	-50.229	0.200	-0.097
-712.704	-200.000	-0.060	-0.344
-711.689	2.420	-0.143	-0.106
-710.675	-133.290	-0.418	0.054
-709.660	-111.325	0.214	0.045
-708.645	-135.342	-0.279	-0.034
-707.631	-200.000	-0.003	-0.028
-706.616	75.271	-0.021	0.023
-705.602	551.249	0.121	-0.298
-704.587	-54.139	-0.227	0.106
-703.572	-131.994	0.432	-0.058
-702.558	-31.144	0.106	0.061
-701.543	-29.451	-0.018	-0.011
-700.529	24.329	-0.145	-0.122
-699.514	-17.211	0.066	0.042
-698.499	-41.058	-0.128	0.067
-697.485	1.901	0.263	-0.194
-696.470	82.057	-0.141	-0.157
-695.456	-150.275	-0.257	-0.020
-694.441	-200.000	-0.024	0.130
-693.426	73.576	0.013	0.014
-692.412	800.000	0.059	-0.229
-691.397	-89.257	0.249	-0.075
-690.383	613.229	0.087	-0.223
-689.368	800.000	-0.140	-0.430
-688.354	-93.524	-0.262	-0.074
-687.339	29.582	-0.166	0.144
-686.324	-110.482	0.131	-0.028
-685.310	-79.892	-0.185	-0.063
-684.295	611.650	0.042	0.108
-683.281	-129.812	0.108	0.015
-682.266	-75.461	0.170	-0.062
-681.251	-20.487	-0.176	0.110
-680.237	135.831	-0.124	-0.165
-679.222	-75.660	0.280	0.102
-678.208	-162.068	-0.073	-0.004
-677.193	-119.351	0.382	-0.068
-676.178	-129.564	-0.048	0.007
-675.164	30.443	-0.210	0.184
-674.149	800.000	-0.041	0.175
-673.135	-200.000	0.010	-0.126
-672.120	-120.132	0.018	0.003
-671.105	19.729	-0.065	0.054
-670.091	-71.239	0.340	-0.130
-669.076	203.524	-0.080	-0.126
-668.062	255.525	-0.042	0.073
-667.047	13.157	0.080	0.063
-666.032	-200.000	-0.004	0.156
-665.018	-0.326	0.199	0.145
-664.003	100.214	0.084	0.100
-662.989	-200.000	0.065	-0.323
-661.974	-0.840	-0.259	-0.188
-660.959	-26.187	-0.211	0.126
-659.945	800.000	0.048	0.146
-658.930	-28.477	-0.027	-0.016
-657.916	-200.000	0.023	0.187
-656.901	524.231	-0.077	-0.185
-655.886	-53.352	-0.101	0.047
-654.872	-200.000	0.022	-0.124
-653.857	800.000	0.029	-0.098
-652.843	23.139	0.120	-0.101
-651.828	-0.100	-0.154	0.112
-650.814	-200.000	0.010	-0.180
-649.799	800.000	-0.117	-0.414
-648.784	-30.909	-0.189	-0.109
-647.770	18.687	-0.169	0.138
-646.755	-200.000	0.022	0.142
-645.741	-84.379	0.174	-0.056
-644.726	22.060	-0.208	0.173
-643.711	61.351	0.125	0.126
-642.697	-162.956	-0.125	-0.006
-641.682	299.599	0.005	0.009
-640.668	-200.000	-0.004	-0.054
-639.653	-77.366	-0.290	0.103
-638.638	-129.997	0.159	-0.022
-637.624	50.010	0.119	0.115
-636.609	-15.715	-0.103	0.067
-635.595	8.802	-0.545	-0.419
-634.580	-158.314	0.109	-0.006
-633.565	126.898	-0.050	-0.064
-632.551	-5.654	0.200	-0.140
-631.536	-93.518	-0.042	-0.012
-630.522	-200.000	0.055	0.390
-629.507	270.875	0.106	0.190
-628.492	152.482	-0.053	-0.073
-627.478	800.000	-0.069	-0.236
-626.463	82.608	-0.046	-0.051
-625.449	-74.739	0.197	-0.072
-624.434	398.391	0.076	0.161
-623.419	-40.123	-0.090	-0.048
-622.405	-22.229	0.169	0.105
-621.390	473.653	0.038	-0.088
-620.376	-60.081	-0.358	-0.156
-619.361	127.910	-0.226	-0.293
-618.346	800.000	0.041	-0.151
-617.332	132.991	-0.204	-0.268
-616.317	245.794	-0.013	0.023
-615.303	226.647	-0.108	-0.179
-614.288	-200.000	0.057	-0.479
-613.273	253.542	0.078	-0.136
-612.259	-41.512	-0.160	0.084
-611.244	-110.337	0.064	-0.014
-610.230	-127.280	-0.129	-0.019
-609.215	-27.115	-0.050	-0.029
-608.201	209.073	0.024	-0.038
-607.186	-45.718	0.602	0.303
-606.171	800.000	0.108	-0.444
-605.157	-111.496	-0.124	-0.026
-604.142	160.246	-0.078	-0.111
-603.128	-113.729	0.214	0.043
-602.113	-87.827	-0.211	0.065
-601.098	800.000	-0.154	-0.438
-600.084	-74.881	-0.244	0.089
-599.069	-98.237	-0.132	0.035
-598.055	-148.775	0.130	0.011
-597.040	-156.319	-0.163	-0.010
-596.025	30.451	-0.187	-0.163
-595.011	800.000	0.027	-0.119
-593.996	-61.851	0.236	-0.101
-592.982	462.436	0.092	-0.209
-591.967	96.956	0.092	-0.107
-590.952	-53.165	0.151	0.071
-589.938	-200.000	0.009	-0.076
-588.923	688.100	0.053	0.141
-587.909	7.982	0.183	-0.139
-586.894	800.000	0.019	-0.065
-585.879	-50.570	0.120	0.057
-584.865	204.096	0.170	0.268
-583.850	-100.801	-0.100	-0.025
-582.836	-200.000	0.040	0.202
-581.821	44.648	0.146	-0.136
-580.806	107.392	-0.024	0.029
-579.792	-200.000	0.012	-0.248
-578.777	-183.659	-0.180	-0.003
-577.763	510.532	-0.100	0.237
-576.748	17.981	0.300	0.243
-575.733	-200.000	-0.036	0.224
-574.719	-159.391	0.332	-0.019
-573.704	539.066	-0.119	-0.289
-572.690	-36.141	-0.128	0.070
-571.675	-9.758	-0.179	0.121
-570.661	60.628	-0.029	-0.029
-569.646	-182.486	-0.113	0.002
-568.631	263.698	0.066	0.117
-567.617	-101.774	-0.097	0.024
-566.602	758.725	0.078	-0.214
-565.588	-191.940	0.274	0.003
-564.573	311.100	-0.099	-0.189
-563.558	-166.070	-0.205	-0.009
-562.544	-178.417	-0.164	-0.004
-561.529	-200.000	-0.001	-0.171
-560.515	-150.378	0.352	0.028
-559.500	-174.574	-0.121	-0.004
-558.485	15.605	0.188	0.150
-557.471	693.230	-0.067	0.178
-556.456	496.628	-0.167	0.391
-555.442	-173.122	-0.286	0.009
-554.427	-200.000	-0.044	-0.312
-553.412	115.458	0.125	-0.155
-552.398	-115.641	-0.392	0.075
-551.383	-79.536	0.208	0.071
-550.369	-149.481	0.271	0.022
-549.354	-200.000	0.033	0.239
-548.339	47.446	0.231	0.219
-547.325	92.940	-0.091	-0.105
-546.310	-170.043	-0.069	0.002
-545.296	10.173	-0.143	-0.111
-544.281	800.000	-0.041	0.172
-543.266	18.071	0.202	-0.163
-542.252	-81.610	0.162	-0.054
-541.237	-176.316	-0.254	0.007
-540.223	404.616	-0.048	-0.104
-539.208	-200.000	-0.009	0.132
-538.193	12.443	0.314	0.246
-537.179	3.298	-0.153	-0.113
-536.164	800.000	-0.025	0.103
-535.150	-21.797	-0.089	-0.055
-534.135	-200.000	0.003	0.022
-533.121	-31.220	-0.051	0.029
-532.106	-200.000	0.017	0.175
-531.091	-164.138	0.319	-0.015
-530.077	201.591	0.190	-0.297
-529.062	800.000	0.035	-0.151
-528.048	800.000	-0.069	0.275
-527.033	11.585	0.047	0.037
-526.018	32.853	0.108	0.095
-525.004	510.603	-0.083	-0.195
-523.989	234.742	-0.085	0.143
-522.975	-200.000	-0.009	-0.133
-521.960	-200.000	0.002	-0.129
-520.945	68.500	-0.294	0.306
-519.931	739.372	0.062	0.169
-518.916	-200.000	-0.011	0.089
-517.902	-55.042	-0.324	-0.148
-516.887	800.000	0.046	0.179
-515.872	-200.000	0.005	0.317
-514.858	6.115	-0.118	0.088
-513.843	-130.085	0.519	0.072
-512.829	-102.278	0.252	0.061
-511.814	-165.346	0.103	0.005
-510.799	-200.000	0.455	0.002
-509.785	800.000	0.016	0.055
-508.770	-92.206	-0.164	-0.047
-507.756	153.759	-0.123	-0.172
-506.741	465.197	-0.046	-0.104
-505.726	323.764	-0.208	0.403
-504.712	7.041	-0.277	-0.209
-503.697	308.107	-0.050	0.095
-502.683	-200.000	0.005	0.279
-501.668	-141.607	0.331	0.034
-500.653	-61.787	0.303	-0.129
-499.639	-55.331	-0.122	-0.056
-498.624	-200.000	0.001	0.034
-497.610	-84.584	0.283	0.091
-496.595	148.648	-0.118	0.162
-495.581	201.645	-0.069	0.107
-494.566	800.000	0.106	0.364
-493.551	-151.935	-0.192	0.014
-492.537	-200.000	-0.003	0.199
-491.522	192.027	0.102	-0.156
-490.508	281.236	-0.171	0.310
-489.493	-15.119	-0.107	0.069
-488.478	-200.000	0.003	0.076
-487.464	60.969	0.149	-0.149
-486.449	-18.046	-0.240	0.152
-485.435	-61.054	-0.244	-0.105
-484.420	-200.000	-0.020	0.201
-483.405	-31.680	-0.291	0.166
-482.391	-200.000	0.028	0.433
-481.376	62.052	0.111	-0.113
-480.362	800.000	0.073	-0.223
-479.347	779.820	0.022	0.061
-478.332	406.487	0.183	-0.392
-477.318	-44.022	0.280	0.143
-476.303	-18.108	0.187	-0.119
-475.289	-16.738	-0.092	0.059
-474.274	93.995	0.133	0.153
-473.259	21.519	-0.144	0.119
-472.245	-115.060	0.200	-0.038
-471.230	-65.141	0.166	0.068
-470.216	800.000	-0.100	0.285
-469.201	-83.442	-0.202	0.066
-468.186	-104.677	0.121	0.028
-467.172	-59.916	-0.185	-0.080
-466.157	-143.049	0.222	-0.022
-465.143	-153.598	0.108	0.008
-464.128	22.972	-0.224	0.186
-463.113	-123.028	0.098	-0.016
-462.099	228.609	0.044	0.073
-461.084	-87.708	0.390	-0.119
-460.070	118.056	0.076	-0.094
-459.055	575.368	0.077	0.190
-458.040	-3.542	0.038	-0.027
-457.026	264.236	0.204	-0.360
-456.011	-30.134	0.339	-0.195
-454.997	-200.000	0.003	-0.103
-453.982	-200.000	0.007	0.254
-452.968	71.064	0.008	0.008
-451.953	414.646	0.083	-0.179
-450.938	101.284	-0.021	-0.025
-449.924	154.830	0.100	-0.139
-448.909	-87.932	0.221	-0.067
-447.895	60.006	0.056	0.056
-446.880	770.131	-0.120	-0.332
-445.865	-200.000	0.003	0.179
-444.851	-200.000	0.051	0.429
-443.836	-200.000	0.030	-0.138
-442.822	-200.000	0.054	-0.256
-441.807	255.883	-0.162	-0.282
-440.792	162.243	-0.110	-0.157
-439.778	-200.000	0.041	0.397
-438.763	-91.115	-0.355	0.103
-437.749	-18.301	-0.191	-0.121
-436.734	108.607	-0.057	-0.068
-435.719	547.476	0.100	0.241
-434.705	-62.291	-0.403	0.170
-433.690	4.128	0.033	-0.025
-432.676	-200.000	-0.007	-0.119
-431.661	-138.429	-0.357	0.040
-430.646	-200.000	0.072	-0.334
-429.632	-200.000	-0.043	-0.318
-428.617	800.000	-0.052	0.204
-427.603	800.000	0.076	0.248
-426.588	83.820	-0.215	0.238
-425.573	800.000	0.056	-0.180
-424.559	-152.795	0.113	0.008
-423.544	74.809	0.073	-0.077
-422.530	83.814	0.067	-0.074
-421.515	-200.000	0.015	-0.173
-420.500	263.852	0.097	-0.170
-419.486	190.281	0.121	0.183
-418.471	-10.323	-0.156	-0.105
-417.457	-137.797	-0.102	0.012
-416.442	-82.933	-0.350	0.114
-415.428	-59.922	0.229	-0.099
-414.413	-41.865	-0.277	0.144
-413.398	133.686	0.031	-0.040
-412.384	-200.000	-0.056	-0.353
-411.369	-200.000	-0.080	-0.382
-410.355	692.355	0.101	0.267
-409.340	52.863	-0.113	0.109
-408.325	-14.805	-0.211	0.137
-407.311	240.598	0.060	0.100
-406.296	-200.000	0.000	-0.028
-405.282	136.557	-0.076	-0.101
-404.267	-200.000	0.072	-0.430
-403.252	63.603	-0.313	-0.317
-402.238	149.172	0.110	-0.151
-401.223	-64.564	0.157	-0.064
-400.209	295.465	-0.051	-0.095
-399.194	47.204	-0.096	0.090
-398.179	697.308	0.044	0.116
-397.165	-200.000	-0.024	-0.179
-396.150	-12.094	0.235	0.155
-395.136	24.570	0.072	0.060
-394.121	631.591	-0.153	-0.392
-393.106	3.427	0.088	-0.065
-392.092	-116.803	0.278	0.051
-391.077	732.334	-0.071	-0.191
-390.063	-141.860	-0.172	-0.017
-389.048	-118.124	0.271	0.049
-388.033	-173.961	-0.340	-0.010
-387.019	800.000	0.083	-0.302
-386.004	679.917	-0.014	0.037
-384.990	394.612	0.174	0.365
-383.975	-89.256	0.247	-0.074
-382.960	-200.000	0.027	0.167
-381.946	120.474	0.066	0.082
-380.931	-34.499	0.083	0.046
-379.917	21.736	0.196	-0.161
-378.902	-200.000	-0.023	-0.136
-377.888	-173.596	-0.210	0.006
-376.873	150.510	-0.185	0.253
-375.858	-200.000	-0.011	0.061
-374.844	-91.611	-0.285	-0.082
-373.829	-21.724	0.053	-0.033
-372.815	-7.581	-0.436	0.297
-371.800	114.955	-0.165	0.203
-370.785	800.000	-0.080	0.244
-369.771	800.000	-0.087	-0.261
-368.756	-11.247	-0.418	-0.278
-367.742	100.863	0.226	-0.265
-366.727	-127.758	-0.253	0.037
-365.712	-117.339	0.378	0.069
-364.698	-43.565	0.174	0.089
-363.683	800.000	0.074	0.306
-362.669	675.680	0.027	0.070
-361.654	82.366	-0.207	-0.226
-360.639	55.934	-0.233	-0.228
-359.625	13.685	0.021	-0.016
-358.610	-200.000	-0.024	0.233
-357.596	-141.283	0.243	-0.025
-356.581	-40.571	0.259	0.136
-355.566	800.000	0.074	0.277
-354.552	800.000	-0.028	0.091
-353.537	117.761	-0.267	0.331
-352.523	11.105	-0.222	-0.171
-351.508	-122.515	0.226	-0.037
-350.493	2.909	0.248	0.181
-349.479	-197.834	-0.387	0.002
-348.464	-123.509	-0.095	0.015
-347.450	83.800	0.012	-0.013
-346.435	-45.047	0.105	-0.052
-345.420	-49.317	0.357	0.172
-344.406	159.196	-0.065	-0.092
-343.391	800.000	0.092	-0.299
-342.377	-200.000	0.386	-0.001
-341.362	-84.181	0.125	0.040
-340.348	800.000	-0.044	0.152
-339.333	-200.000	0.020	0.122
-338.318	149.912	-0.191	0.261
-337.304	-121.043	-0.235	-0.040
-336.289	-152.090	-0.407	-0.030
-335.275	-124.007	-0.319	-0.051
-334.260	266.971	-0.296	-0.521
-333.245	6.713	-0.175	0.131
-332.231	-26.205	-0.109	0.064
-331.216	-125.174	-0.060	-0.009
-330.202	-164.472	-0.086	-0.004
-329.187	264.169	-0.072	0.127
-328.172	-18.783	0.238	0.149
-327.158	-8.831	-0.070	-0.047
-326.143	283.050	-0.098	-0.178
-325.129	-77.574	0.215	-0.075
-324.114	800.000	-0.056	-0.163
-323.099	-119.187	0.056	-0.010
-322.085	-100.237	-0.329	-0.082
-321.070	800.000	-0.034	-0.111
-320.056	-8.306	0.135	-0.091
-319.041	-10.587	0.124	0.083
-318.026	21.381	0.067	-0.055
-317.012	-3.463	-0.165	0.115
-315.997	145.340	0.309	0.416
-314.983	492.636	-0.097	-0.223
-313.968	-200.000	0.018	0.086
-312.953	105.300	0.067	-0.079
-311.939	-84.132	-0.283	-0.090
-310.924	197.495	0.122	-0.187
-309.910	-29.678	-0.085	0.049
-308.895	-63.901	-0.494	0.203
-307.880	-97.134	0.076	0.020
-306.866	-88.355	0.331	-0.100
-305.851	-15.893	0.056	-0.036
-304.837	17.145	0.063	0.050
-303.822	800.000	-0.066	-0.281
-302.807	-140.359	0.270	0.028
-301.793	-200.000	0.150	-0.000
-300.778	392.063	-0.127	-0.265
-299.764	-200.000	-0.007	0.259
-298.749	800.000	0.021	0.061
-297.735	-28.904	-0.007	-0.004
-296.720	800.000	-0.047	0.172
-295.705	-121.174	-0.084	0.014
-294.691	-151.264	0.331	0.025
-293.676	-138.474	0.266	0.029
-292.662	-108.705	0.348	-0.075
-291.647	718.588	-0.068	0.183
-290.632	-111.172	0.240	0.049
-289.618	207.225	-0.212	0.333
-288.603	800.000	-0.149	0.529
-287.589	-99.404	0.238	0.060
-286.574	84.627	-0.112	0.123
-285.559	47.545	-0.101	0.095
-284.545	155.504	-0.089	-0.123
-283.530	-120.017	0.192	-0.033
-282.516	-200.000	-0.048	-0.235
-281.501	-14.367	-0.373	-0.241
-280.486	800.000	-0.127	-0.360
-279.472	-57.044	0.304	0.135
-278.457	-200.000	-0.010	0.129
-277.443	-132.660	0.076	0.010
-276.428	127.266	-0.200	-0.255
-275.413	-200.000	-0.020	-0.239
-274.399	800.000	-0.043	0.139
-273.384	-200.000	-0.020	0.114
-272.370	-200.000	-0.063	0.355
-271.355	36.568	0.152	-0.135
-270.340	-82.411	-0.243	0.079
-269.326	-104.089	0.130	-0.030
-268.311	-60.646	0.284	0.121
-267.297	-74.519	-0.295	-0.107
-266.282	164.796	-0.068	-0.096
-265.267	44.826	-0.238	-0.220
-264.253	800.000	-0.038	0.134
-263.238	-120.541	-0.221	0.038
-262.224	-121.251	0.323	-0.054
-261.209	-59.771	-0.166	-0.071
-260.195	800.000	-0.050	-0.165
-259.180	-200.000	-0.002	-0.472
-258.165	-128.925	0.275	0.039
-257.151	75.966	0.113	-0.120
-256.136	-152.647	0.170	0.012
-255.122	-0.011	0.081	0.058
-254.107	800.000	0.005	-0.014
-253.092	74.426	-0.272	-0.287
-252.078	-6.669	0.093	0.064
-251.063	126.647	-0.112	0.143
-250.049	17.283	0.190	0.151
-249.034	-200.000	-0.024	-0.293
-248.019	-36.676	-0.364	-0.196
-247.005	139.964	-0.050	-0.066
-245.990	-68.339	0.341	0.133
-244.976	407.839	0.013	0.027
-243.961	158.744	0.179	-0.250
-242.946	98.284	-0.151	-0.174
-241.932	4.592	0.211	-0.156
-240.917	-85.222	0.146	-0.046
-239.903	-85.082	-0.295	-0.093
-238.888	-181.038	0.249	-0.005
-237.873	-170.657	-0.334	-0.012
-236.859	3.509	-0.023	-0.017
-235.844	-6.931	-0.208	0.142
-234.830	-114.087	0.491	0.095
-233.815	212.482	-0.081	-0.128
-232.800	149.325	0.209	0.284
-231.786	-0.377	0.078	-0.055
-230.771	119.475	0.109	-0.136
-229.757	-128.654	0.207	-0.029
-228.742	-200.000	-0.010	-0.104
-227.727	612.550	-0.194	-0.488
-226.713	-114.327	-0.093	-0.018
-225.698	137.225	0.057	0.075
-224.684	-71.283	-0.055	0.021
-223.669	-127.436	0.297	-0.043
-222.655	-68.416	-0.069	-0.027
-221.640	-200.000	0.009	-0.577
-220.625	693.833	0.076	-0.200
-219.611	-50.294	0.250	-0.119
-218.596	712.263	0.098	-0.260
-217.582	-115.299	-0.157	0.030
-216.567	-34.567	0.015	0.008
-215.552	616.150	0.167	0.420
-214.538	800.000	-0.055	-0.192
-213.523	-61.338	0.091	-0.039
-212.509	800.000	0.112	0.359
-211.494	-181.858	-0.311	-0.006
-210.479	49.667	0.003	0.003
-209.465	8.954	-0.103	0.078
-208.450	157.305	0.159	0.220
-207.436	602.444	-0.037	0.091
-206.421	-89.483	0.220	0.065
-205.406	-123.036	-0.083	0.013
-204.392	800.000	-0.031	0.128
-203.377	-170.577	0.222	-0.008
-202.363	19.626	0.113	-0.091
-201.348	-200.000	0.055	-0.408
-200.333	-110.100	0.525	0.110
-199.319	-80.025	0.020	0.007
-198.304	149.223	0.226	-0.306
-197.290	-24.643	0.243	-0.145
-196.275	-18.736	-0.161	-0.100
-195.260	254.054	0.085	-0.146
-194.246	-200.000	0.053	-0.266
-193.231	-17.120	-0.246	0.155
-192.217	385.717	-0.034	-0.070
-191.202	-9.028	-0.257	0.173
-190.187	-98.670	0.175	-0.045
-189.173	-9.728	-0.377	0.252
-188.158	-11.532	0.294	-0.193
-187.144	-200.000	-0.031	0.364
-186.129	544.817	-0.087	0.208
-185.114	-176.525	-0.254	-0.007
-184.100	48.309	-0.094	0.088
-183.085	-40.844	0.175	0.091
-182.071	204.120	0.090	0.140
-181.056	-14.427	0.169	-0.109
-180.042	-200.000	0.019	-0.301
-179.027	128.080	-0.024	-0.030
-178.012	13.833	0.126	0.098
-176.998	800.000	-0.097	-0.279
-175.983	99.787	0.080	0.093
-174.969	246.214	-0.239	0.404
-173.954	104.120	-0.092	-0.108
-172.939	63.515	-0.130	0.131
-171.925	-33.779	0.196	-0.108
-170.910	-200.000	0.007	0.035
-169.896	-200.000	-0.056	0.391
-168.881	89.924	-0.179	-0.200
-167.866	755.227	0.101	-0.274
-166.852	800.000	-0.075	0.246
-165.837	583.527	-0.049	0.121
-164.823	-200.000	0.003	0.186
-163.808	800.000	0.158	0.559
-162.793	-94.343	0.307	-0.084
-161.779	800.000	-0.049	0.192
-160.764	43.474	0.076	0.069
-159.750	348.864	-0.183	0.361
-158.735	-14.571	-0.176	0.113
-157.720	655.440	0.126	0.325
-156.706	-200.000	-0.019	0.464
-155.691	-154.424	-0.182	0.012
-154.677	-97.367	-0.133	0.035
-153.662	-83.106	0.033	0.011
-152.647	98.448	-0.183	-0.211
-151.633	428.400	-0.120	0.259
-150.618	-130.568	0.131	0.018
-149.604	-200.000	-0.028	-0.380
-148.589	204.275	0.125	-0.194
-147.574	800.000	0.121	0.367
-146.560	-162.693	-0.477	0.023
-145.545	301.440	0.148	0.274
-144.531	-200.000	-0.006	0.075
-143.516	408.498	-0.061	0.129
-142.502	-62.010	0.211	0.088
-141.487	300.944	0.205	0.378
-140.472	-3.747	0.078	0.054
-139.458	44.669	0.214	0.196
-138.443	-68.614	-0.239	0.093
-137.429	800.000	-0.070	0.298
-136.414	143.073	-0.059	0.078
-135.399	280.252	-0.102	-0.183
-134.385	-50.763	-0.183	0.086
-133.370	-33.419	-0.205	0.113
-132.356	800.000	0.049	0.212
-131.341	161.737	0.160	0.224
-130.326	2.705	0.160	0.116
-129.312	117.884	0.178	0.219
-128.297	25.165	0.402	0.334
-127.283	306.223	-0.115	-0.214
-126.268	-90.774	-0.285	-0.082
-125.253	47.759	0.112	-0.104
-124.239	271.886	-0.220	0.387
-123.224	523.427	0.045	0.107
-122.210	-35.295	0.117	-0.064
-121.195	-3.691	0.058	0.040
-120.180	-200.000	0.055	-0.286
-119.166	-138.121	0.268	0.030
-118.151	241.861	0.040	0.067
-117.137	77.359	0.167	-0.177
-116.122	404.740	-0.058	-0.121
-115.107	-157.023	0.052	0.003
-114.093	60.367	-0.141	0.139
-113.078	800.000	-0.140	0.484
-112.064	-22.701	0.224	0.135
-111.049	-200.000	-0.002	-0.113
-110.034	25.699	-0.239	-0.199
-109.020	-79.504	-0.127	-0.043
-108.005	367.635	-0.185	0.373
-106.991	265.021	-0.157	0.273
-105.976	-115.689	0.236	-0.044
-104.962	-4.508	0.247	0.170
-103.947	-200.000	-0.022	-0.114
-102.932	644.796	-0.065	-0.164
-101.918	-57.007	0.248	0.109
-100.903	-200.000	-0.044	0.259
-99.889	650.647	-0.069	0.176
-98.874	-18.354	0.191	-0.119
-97.859	4.525	-0.158	0.116
-96.845	19.824	0.122	-0.098
-95.830	152.313	0.158	-0.215
-94.816	233.593	0.136	0.223
-93.801	-1.000	0.081	0.057
-92.786	-78.343	0.384	0.131
-91.772	2.776	0.068	0.049
-90.757	27.199	0.122	-0.102
-89.743	-200.000	0.011	0.060
-88.728	172.843	0.200	0.288
-87.713	4.809	-0.119	0.087
-86.699	266.114	-0.071	0.125
-85.684	-200.000	0.008	0.086
-84.670	-134.898	-0.352	-0.043
-83.655	12.117	-0.135	0.103
-82.640	-157.975	0.137	0.008
-81.626	800.000	0.095	-0.280
-80.611	-125.740	0.169	-0.025
-79.597	-200.000	-0.013	0.176
-78.582	-4.895	0.175	0.120
-77.567	800.000	0.120	-0.332
-76.553	800.000	0.045	0.190
-75.538	228.203	0.187	-0.304
-74.524	-200.000	-0.021	-0.279
-73.509	800.000	-0.031	0.097
-72.494	-145.729	0.342	0.030
-71.480	-145.582	-0.116	0.010
-70.465	800.000	0.060	0.257
-69.451	149.601	-0.173	0.234
-68.436	119.447	-0.107	0.132
-67.422	170.886	-0.103	-0.148
-66.407	-200.000	0.036	0.260
-65.392	-133.071	-0.290	-0.037
-64.378	37.867	0.157	0.140
-63.363	196.835	-0.160	0.243
-62.349	-200.000	0.025	0.189
-61.334	-9.183	-0.654	-0.436
-60.319	117.038	0.532	0.652
-59.305	800.000	-0.315	-1.008
-58.290	124.601	0.425	0.533
-57.276	-200.000	0.342	1.637
-56.261	-200.000	76.274	510.953
-55.246	517.985	1337.688	3119.797
-54.232	145.161	2571.051	3428.353
-53.217	117.268	2230.381	2732.309
-52.203	52.538	1673.826	1592.713
-51.188	44.335	1397.781	1278.653
-50.173	40.687	1352.319	1214.748
-49.159	59.304	1387.554	1361.734
-48.144	65.896	1406.042	1420.451
-47.130	44.817	1369.022	1255.114
-46.115	40.782	1352.480	1215.280
-45.100	40.452	1348.217	1209.387
-44.086	40.327	1346.068	1206.651
-43.071	40.367	1342.995	1204.092
-42.057	40.351	1340.918	1202.086
-41.042	40.387	1339.199	1200.714
-40.027	40.406	1337.774	1199.500
-39.013	40.498	1335.066	1197.581
-37.998	40.458	1333.904	1196.251
-36.984	40.560	1331.931	1195.050
-35.969	40.654	1329.836	1193.690
-34.954	40.506	1329.028	1192.027
-33.940	40.539	1327.449	1190.759
-32.925	40.735	1325.778	1190.388
-31.911	40.608	1324.437	1188.375
-30.896	40.740	1323.151	1187.966
-29.881	40.645	1321.642	1185.998
-28.867	40.665	1320.197	1184.774
-27.852	40.700	1318.436	1183.352
-26.838	40.663	1317.209	1181.982
-25.823	40.560	1315.819	1180.076
-24.809	40.674	1314.192	1179.247
-23.794	40.618	1313.228	1178.003
-22.779	40.628	1311.244	1176.240
-21.765	40.695	1309.944	1175.424
-20.750	40.629	1308.758	1173.919
-19.736	40.554	1307.670	1172.456
-18.721	40.488	1306.424	1170.901
-17.706	40.548	1305.384	1170.276
-16.692	40.445	1304.354	1168.700
-15.677	40.481	1303.315	1167.935
-14.663	40.499	1301.665	1166.512
-13.648	40.507	1300.999	1165.918
-12.633	40.510	1299.874	1164.884
-11.619	40.502	1298.952	1163.960
-10.604	40.438	1298.335	1162.987
-9.590	40.442	1297.386	1162.114
-8.575	40.455	1296.065	1160.959
-7.560	40.383	1295.451	1159.943
-6.546	40.410	1294.291	1159.015
-5.531	40.394	1293.558	1158.223
-4.517	40.483	1292.166	1157.447
-3.502	40.573	1291.533	1157.358
-2.487	40.494	1290.734	1156.140
-1.473	40.599	1287.040	1153.393
-0.458	39.668	1272.316	1134.801
0.556	36.284	1252.634	1095.284
1.571	32.226	1256.940	1075.785
2.586	30.810	1271.399	1079.857
3.600	28.874	1259.572	1058.582
4.615	20.603	1181.470	947.968
5.629	8.212	1096.886	816.932
6.644	2.458	1073.166	770.307
7.659	2.067	1070.033	766.027
8.673	1.900	1068.644	764.128
9.688	1.736	1067.157	762.176
10.702	2.156	1066.000	763.382
11.717	9.048	1076.908	805.828
12.731	20.358	1092.884	875.039
13.746	25.247	1098.605	904.245
14.761	25.361	1099.018	905.080
15.775	25.234	1098.552	903.971
16.790	25.130	1097.472	902.479
17.804	25.017	1096.857	901.325
18.819	25.128	1096.375	901.410
19.834	25.149	1095.846	900.998
20.848	25.361	1095.266	901.510
21.863	25.273	1094.679	900.502
22.877	25.245	1094.037	899.757
23.892	25.265	1093.091	898.996
24.907	25.397	1092.299	898.927
25.921	25.216	1091.637	897.396
26.936	25.292	1090.093	896.427
27.950	25.082	1088.961	894.371
28.965	25.094	1086.834	892.603
29.980	25.038	1085.332	891.012
30.994	25.326	1084.771	891.905
32.009	25.263	1083.205	890.225
33.023	25.249	1081.901	889.009
34.038	25.179	1081.496	888.247
35.053	25.247	1080.878	888.001
36.067	25.238	1080.093	887.230
37.082	25.229	1079.402	886.542
38.096	25.445	1078.895	887.111
39.111	25.424	1078.110	886.284
40.126	25.327	1076.421	884.341
41.140	24.981	1074.837	881.260
42.155	24.806	1073.126	878.918
43.169	24.734	1072.386	877.881
44.184	24.695	1071.473	876.863
45.199	24.857	1070.080	876.439
46.213	24.816	1069.454	875.651
47.228	24.994	1069.157	876.200
48.242	25.114	1068.266	875.978
49.257	25.235	1067.004	875.454
50.271	25.159	1067.113	875.100
51.286	25.314	1065.840	874.732
52.301	25.325	1064.772	873.832
53.315	25.255	1063.813	872.627
54.330	25.066	1063.166	871.099
55.344	25.126	1062.244	870.559
56.359	25.166	1061.231	869.845
57.374	24.986	1060.005	867.890
58.388	25.002	1059.661	867.612
59.403	24.999	1058.612	866.659
60.417	24.761	1057.907	864.858
61.432	24.865	1057.423	864.885
62.447	24.934	1056.831	864.661
63.461	24.973	1056.264	864.308
64.476	24.832	1054.958	862.480
65.490	24.839	1054.211	861.828
66.505	24.850	1053.642	861.341
67.520	25.068	1052.714	861.555
68.534	24.690	1051.703	858.837
69.549	24.513	1050.367	856.816
70.563	24.486	1049.792	856.143
71.578	24.487	1049.038	855.458
72.593	24.128	1048.319	853.079
73.607	24.432	1047.370	853.685
74.622	24.667	1047.342	854.710
75.636	24.734	1046.603	854.352
76.651	24.465	1046.279	852.726
77.666	24.533	1044.637	851.638
78.680	24.540	1044.242	851.273
79.695	24.697	1043.387	851.245
80.709	24.823	1042.772	851.270
81.724	24.687	1042.218	850.094
82.739	24.716	1041.524	849.593
83.753	25.251	1040.916	851.559
84.768	25.560	1040.177	852.347
85.782	25.552	1039.683	851.825
86.797	25.505	1038.103	850.233
87.812	25.330	1037.078	848.494
88.826	25.406	1036.616	848.399
89.841	25.345	1036.170	847.672
90.855	25.550	1034.827	847.464
91.870	25.366	1034.350	846.133
92.884	25.237	1032.827	844.202
93.899	25.277	1031.658	843.360
94.914	25.410	1031.066	843.429
95.928	25.265	1030.077	841.865
96.943	24.996	1028.659	839.371
97.957	24.798	1027.898	837.747
98.972	24.773	1026.303	836.259
99.987	24.920	1025.596	836.295
101.001	25.057	1025.198	836.533
102.016	25.174	1024.216	836.206
103.030	25.070	1023.435	835.011
104.045	25.034	1021.922	833.532
105.060	24.910	1020.952	832.093
106.074	24.941	1020.582	831.861
107.089	25.226	1020.295	832.875
108.103	25.275	1018.967	831.944
109.118	24.906	1017.729	829.152
110.133	25.007	1016.477	828.527
111.147	24.784	1015.508	826.632
112.162	24.556	1014.615	824.780
113.176	24.724	1014.175	825.126
114.191	24.790	1013.267	824.617
115.206	24.447	1012.045	821.971
116.220	24.406	1011.623	821.367
117.235	24.566	1010.428	821.059
118.249	24.681	1009.527	820.781
119.264	24.486	1008.932	819.332
120.279	24.682	1008.013	819.411
121.293	24.633	1007.619	818.792
122.308	24.605	1006.563	817.735
123.322	24.508	1005.620	816.454
124.337	24.367	1004.018	814.436
125.352	24.025	1002.467	811.545
126.366	23.988	1001.170	810.257
127.381	24.651	1001.655	813.600
128.395	25.087	1001.248	815.180
129.410	25.236	1000.435	815.123
130.424	25.043	999.577	813.475
131.439	25.075	998.609	812.758
132.454	25.131	997.558	812.084
133.468	25.047	996.599	810.853
134.483	25.210	995.785	810.856
135.497	25.323	995.421	810.999
136.512	25.463	994.380	810.709
137.527	25.434	993.238	809.575
138.541	25.480	993.092	809.592
139.556	25.396	992.078	808.317
140.570	25.635	990.893	808.354
141.585	25.522	989.896	806.962
142.600	25.556	988.763	806.118
143.614	25.589	988.764	806.198
144.629	25.725	988.172	806.251
145.643	25.563	986.471	804.069
146.658	25.409	985.221	802.289
147.673	25.300	983.909	800.664
148.687	25.126	983.125	799.178
149.702	25.191	982.322	798.745
150.716	25.127	981.388	797.633
151.731	25.129	980.979	797.239
152.746	25.407	980.319	797.866
153.760	25.542	979.453	797.688
154.775	25.517	979.003	797.143
155.789	25.534	978.229	796.514
156.804	25.547	976.991	795.494
157.819	25.683	975.961	795.185
158.833	25.680	975.661	794.857
159.848	25.759	974.583	794.261
160.862	25.585	973.415	792.469
161.877	25.467	972.232	790.919
162.892	25.517	971.338	790.339
163.906	25.388	970.454	788.985
164.921	25.502	969.417	788.572
165.935	25.620	968.369	788.165
166.950	25.473	967.717	786.924
167.964	25.437	967.076	786.174
168.979	25.454	965.246	784.693
169.994	25.354	964.770	783.800
171.008	25.503	964.450	784.121
172.023	25.453	963.789	783.294
173.037	25.415	962.568	782.067
174.052	25.373	961.071	780.599
175.067	25.279	961.008	780.069
176.081	25.360	960.188	779.687
177.096	25.286	959.749	778.939
178.110	24.996	958.773	776.821
179.125	24.830	958.143	775.522
180.140	24.896	957.515	775.231
181.154	24.988	957.682	775.699
182.169	25.234	957.360	776.431
183.183	25.623	956.650	777.470
184.198	25.525	955.730	776.232
185.213	25.398	954.876	774.919
186.227	25.532	954.156	774.845
187.242	25.676	953.390	774.774
188.256	25.563	952.884	773.807
189.271	25.596	952.093	773.242
190.286	25.310	950.954	771.018
191.300	24.753	949.673	767.523
192.315	23.838	947.872	762.078
193.329	23.849	947.173	761.495
194.344	24.684	947.924	765.607
195.359	25.413	947.893	768.638
196.373	25.535	947.303	768.613
197.388	25.386	946.649	767.376
198.402	25.505	945.925	767.230
199.417	25.512	945.142	766.557
200.432	25.225	944.039	764.374
201.446	25.018	943.764	763.200
202.461	25.146	943.206	763.227
203.475	24.343	940.888	757.871
204.490	23.487	939.822	753.313
205.504	24.266	940.296	756.933
206.519	25.007	939.954	759.737
207.534	25.121	939.713	759.955
208.548	25.387	939.570	760.900
209.563	25.207	938.390	759.117
210.577	25.229	937.970	758.804
211.592	25.599	938.140	760.437
212.607	25.530	936.835	759.023
213.621	25.456	936.890	758.685
214.636	25.581	935.455	757.984
215.650	25.410	935.174	756.966
216.665	25.694	934.063	757.199
217.680	25.701	933.100	756.379
218.694	25.184	931.974	753.230
219.709	25.069	931.686	752.447
220.723	25.301	931.482	753.189
221.738	25.456	930.689	753.130
222.753	25.431	929.741	752.195
223.767	25.570	929.419	752.446
224.782	25.658	929.385	752.722
225.796	25.747	928.822	752.572
226.811	25.030	927.613	748.531
227.826	24.474	925.656	744.566
228.840	24.522	925.522	744.595
229.855	24.806	924.533	744.915
230.869	24.315	923.741	742.169
231.884	24.620	924.061	743.627
232.899	25.299	924.135	746.446
233.913	25.380	923.369	746.100
234.928	25.263	922.726	745.027
235.942	25.170	922.224	744.170
236.957	24.920	921.013	742.092
237.972	24.927	920.813	741.893
238.986	25.162	919.921	742.082
240.001	25.084	919.349	741.234
241.015	25.252	918.864	741.468
242.030	25.331	918.583	741.502
243.045	25.428	918.124	741.466
244.059	25.551	917.333	741.271
245.074	25.301	916.584	739.570
246.088	25.067	915.410	737.592
247.103	25.226	915.535	738.284
248.117	25.767	915.728	740.600
249.132	26.076	915.311	741.467
250.147	26.095	914.805	741.067
251.161	26.320	914.286	741.507
252.176	26.112	914.156	740.481
253.190	26.352	912.864	740.352
254.205	26.433	912.754	740.530
255.220	26.407	911.774	739.565
256.234	26.288	911.220	738.564
257.249	26.190	910.213	737.283
258.263	26.281	909.606	737.096
259.278	26.341	908.985	736.773
260.293	26.497	908.383	736.854
261.307	26.235	907.600	735.086
262.322	26.105	906.956	733.972
263.336	25.444	904.780	729.463
264.351	24.332	902.983	723.444
265.366	24.347	903.131	723.559
266.380	25.395	903.595	728.117
267.395	25.899	903.358	729.900
268.409	25.713	902.914	728.726
269.424	26.002	902.126	729.192
270.439	26.129	901.685	729.288
271.453	26.198	901.048	728.985
272.468	26.365	900.719	729.330
273.482	26.334	900.257	728.764
274.497	25.998	898.992	726.323
275.512	25.611	897.947	723.858
276.526	25.983	898.118	725.429
277.541	26.211	897.521	725.796
278.555	25.914	896.511	723.725
279.570	25.980	895.377	723.008
280.585	25.959	895.530	722.985
281.599	25.962	894.677	722.246
282.614	25.420	893.018	718.672
283.628	25.292	892.953	718.048
284.643	25.789	892.673	719.745
285.657	25.435	891.423	717.259
286.672	25.016	890.689	714.935
287.687	25.644	890.397	717.142
288.701	25.628	890.023	716.714
289.716	25.226	889.573	714.684
290.730	25.515	888.286	714.736
291.745	24.981	887.507	711.927
292.760	25.394	887.369	713.392
293.774	26.432	887.859	717.847
294.789	26.666	887.717	718.596
295.803	26.685	886.773	717.845
296.818	26.578	886.421	717.071
297.833	26.234	885.291	714.731
298.847	25.963	884.732	713.147
299.862	26.481	884.695	715.100
300.876	26.604	883.967	714.934
301.891	26.588	883.304	714.273
302.906	26.158	882.158	711.589
303.920	26.349	881.891	712.061
304.935	26.691	881.902	713.353
305.949	26.551	880.990	712.003
306.964	26.198	880.660	710.287
307.979	26.367	880.122	710.453
308.993	26.838	879.908	712.067
310.008	26.728	879.144	710.954
311.022	26.507	878.361	709.391
312.037	26.384	877.526	708.173
313.052	26.090	876.694	706.288
314.066	25.219	875.084	701.525
315.081	24.901	874.210	699.518
316.095	25.669	874.937	703.042
317.110	26.287	874.615	705.133
318.125	25.387	873.019	700.276
319.139	24.393	871.302	694.968
320.154	24.373	870.813	694.437
321.168	25.099	871.524	697.772
322.183	25.908	871.569	700.895
323.197	26.212	871.007	701.561
324.212	26.236	871.226	701.766
325.227	26.452	870.190	701.709
326.241	26.161	869.772	700.181
327.256	26.247	868.779	699.653
328.270	26.212	867.815	698.679
329.285	25.988	867.270	697.314
330.300	25.819	866.502	695.980
331.314	26.028	866.034	696.350
332.329	26.341	866.245	697.666
333.343	26.533	865.664	697.876
334.358	26.364	865.681	697.178
335.373	26.419	865.377	697.084
336.387	26.749	865.126	698.088
337.402	26.919	864.938	698.532
338.416	26.817	864.589	697.796
339.431	27.074	864.138	698.356
340.446	27.237	863.794	698.643
341.460	27.007	863.526	697.483
342.475	26.828	863.165	696.442
343.489	26.942	862.510	696.288
344.504	27.210	862.314	697.099
345.519	27.346	861.776	697.120
346.533	27.288	861.362	696.502
347.548	27.453	860.784	696.604
348.562	27.260	860.292	695.408
349.577	27.223	859.447	694.522
350.592	27.223	858.625	693.794
351.606	27.124	858.255	693.056
352.621	26.947	857.302	691.551
353.635	27.093	856.541	691.435
354.650	26.474	854.655	687.498
355.665	25.543	853.245	682.770
356.679	25.808	853.134	683.628
357.694	26.285	853.216	685.441
358.708	26.170	852.358	684.256
359.723	26.470	852.480	685.428
360.738	26.899	852.311	686.859
361.752	27.074	851.366	686.697
362.767	27.290	851.080	687.222
363.781	27.590	850.802	688.069
364.796	27.763	850.199	688.172
365.810	27.843	849.688	688.000
366.825	27.633	849.752	687.199
367.840	27.460	848.785	685.704
368.854	27.004	847.950	683.253
369.869	27.042	847.568	683.031
370.883	27.080	846.638	682.361
371.898	26.997	846.497	681.877
372.913	27.117	846.278	682.089
373.927	27.109	845.891	681.689
374.942	27.257	845.346	681.745
375.956	27.503	844.699	682.083
376.971	27.599	844.381	682.125
377.986	27.663	844.267	682.212
379.000	27.538	843.665	681.198
380.015	27.482	842.926	680.332
381.029	27.495	842.686	680.126
382.044	27.542	842.164	679.821
383.059	27.574	841.379	679.244
384.073	27.701	840.659	679.076
385.088	27.640	840.282	678.484
386.102	27.410	839.420	676.874
387.117	27.399	838.424	675.969
388.132	26.934	837.437	673.388
389.146	26.496	836.826	671.214
390.161	26.897	836.538	672.412
391.175	27.376	836.657	674.220
392.190	27.092	835.620	672.274
393.205	25.563	833.427	664.806
394.219	24.267	831.212	658.196
395.234	24.181	831.051	657.692
396.248	25.667	832.566	664.326
397.263	27.208	833.353	670.582
398.278	27.157	833.169	670.187
399.292	26.830	832.591	668.458
400.307	26.813	832.055	667.907
401.321	26.900	831.530	667.745
402.336	27.283	831.644	669.187
403.350	27.704	831.741	670.754
404.365	28.012	831.506	671.639
405.380	28.317	830.558	671.932
406.394	28.496	830.341	672.353
407.409	28.274	829.912	671.132
408.423	28.237	829.782	670.832
409.438	28.351	829.413	670.891
410.453	28.257	828.969	670.131
411.467	28.352	828.327	669.899
412.482	28.340	827.899	669.449
413.496	28.405	827.440	669.257
414.511	28.350	827.014	668.652
415.526	28.161	826.463	667.457
416.540	28.168	825.810	666.896
417.555	28.011	824.965	665.585
418.569	28.096	824.817	665.714
419.584	28.068	823.819	664.750
420.599	27.761	823.593	663.391
421.613	95.301	1266.657	1380.254
422.628	82.230	1331.240	1380.403
