DTS Sentinel unit serial number:	SN413079Multiplexer serial number:	ORYXHardware model number:	OX4-SRSoftware version number:	ORYX F/W v4.00 Oryx Data Collector v3.7.2.0data status	okinstallation	princeton_trtdifferential loss correction	single-endedforward channel	channel 1reverse channel	N/Adate	2019/09/12time	14:44:11forward acquisition time	60.00reverse acquisition time	0.00gamma	496.2192k internal	0.2294k external	0.2294temperature offset calibration	1.0051default loss term (dB/km)	0.3790temperature slope calibration	1.0000multiplexer offset coefficient	1.0000multiplexer slope coefficient	1.0000fibre end	0.00T internal ref (°C)	40.19T ext. ref 1 (°C)	2.31T ext. ref 2 (°C)	37.01length (m)	temperature (°C)	Stokes	anti-Stokes-747.200	103.503	-0.073	0.087
-746.185	302.770	-0.145	0.274
-745.171	-16.680	0.146	0.095
-744.156	219.417	-0.262	0.429
-743.142	-85.669	-0.303	0.096
-742.127	-102.720	-0.273	-0.067
-741.112	-124.572	0.220	0.035
-740.098	800.000	0.082	0.290
-739.083	129.316	-0.075	0.098
-738.069	-27.305	-0.232	-0.138
-737.054	800.000	-0.040	0.127
-736.039	-98.873	-0.469	0.122
-735.025	-200.000	0.036	0.255
-734.010	542.384	-0.186	-0.453
-732.996	-73.723	-0.419	-0.156
-731.981	-175.736	-0.300	-0.008
-730.966	-200.000	-0.019	-0.147
-729.952	61.628	-0.246	0.250
-728.937	800.000	-0.137	-0.458
-727.923	-170.166	-0.334	0.012
-726.908	-200.000	0.013	0.090
-725.894	-38.756	-0.138	-0.074
-724.879	800.000	-0.066	-0.291
-723.864	-150.136	-0.435	0.034
-722.850	4.019	0.194	-0.145
-721.835	-31.414	0.125	0.072
-720.821	336.733	-0.073	-0.145
-719.806	233.311	-0.161	-0.271
-718.791	-172.595	-0.254	-0.008
-717.777	-200.000	-0.010	-0.251
-716.762	-200.000	-0.008	0.328
-715.748	-101.049	0.153	-0.038
-714.733	477.053	0.055	0.126
-713.718	201.564	-0.071	0.111
-712.704	-151.965	0.131	0.010
-711.689	-123.312	0.246	-0.040
-710.675	19.126	0.241	0.197
-709.660	-200.000	-0.008	-0.098
-708.645	46.482	0.186	-0.176
-707.631	-25.003	-0.037	0.023
-706.616	-200.000	0.001	-0.123
-705.602	-117.299	-0.251	0.046
-704.587	-75.797	-0.184	0.067
-703.572	98.134	-0.136	-0.160
-702.558	61.845	-0.124	0.127
-701.543	-117.947	-0.162	-0.030
-700.529	-18.338	0.238	-0.152
-699.514	800.000	-0.055	-0.188
-698.499	-59.119	-0.370	0.163
-697.485	-200.000	-0.026	-0.168
-696.470	-106.479	0.328	-0.075
-695.456	-200.000	-0.079	-0.452
-694.441	-200.000	0.018	0.183
-693.426	-59.002	-0.208	0.092
-692.412	-21.632	0.035	0.022
-691.397	161.584	0.098	-0.140
-690.383	-76.884	-0.082	0.029
-689.368	181.573	0.215	0.323
-688.354	153.467	-0.123	0.171
-687.339	-200.000	-0.024	-0.163
-686.324	68.600	0.080	0.083
-685.310	104.219	0.256	-0.307
-684.295	-200.000	-0.008	-0.050
-683.281	-115.777	-0.052	0.010
-682.266	-55.738	0.060	-0.027
-681.251	-157.498	-0.127	-0.008
-680.237	800.000	0.084	0.325
-679.222	800.000	-0.018	0.070
-678.208	-90.030	-0.227	-0.068
-677.193	-200.000	-0.013	0.070
-676.178	284.055	0.067	-0.124
-675.164	-23.534	0.040	-0.025
-674.149	-61.611	0.097	0.042
-673.135	239.719	-0.045	0.076
-672.120	-200.000	-0.001	0.036
-671.105	-121.341	0.198	-0.034
-670.091	800.000	-0.031	0.120
-669.076	-60.229	-0.128	0.056
-668.062	-200.000	-0.027	-0.224
-667.047	81.160	-0.167	-0.184
-666.032	151.099	0.083	0.115
-665.018	-88.461	-0.164	0.050
-664.003	-126.847	0.266	0.040
-662.989	-145.947	-0.201	0.018
-661.974	122.317	-0.181	0.231
-660.959	-126.043	-0.149	0.023
-659.945	8.161	-0.092	-0.071
-658.930	53.325	-0.104	0.102
-657.916	-56.273	0.281	0.127
-656.901	-96.551	0.149	-0.040
-655.886	-71.070	0.169	0.065
-654.872	800.000	-0.052	-0.146
-653.857	175.888	0.030	0.044
-652.843	166.127	0.132	-0.191
-651.828	286.284	-0.145	-0.266
-650.814	-42.324	-0.284	-0.148
-649.799	-85.480	0.288	0.091
-648.784	-80.155	0.275	0.094
-647.770	-51.072	-0.036	0.017
-646.755	-200.000	0.005	-0.145
-645.741	638.726	-0.105	0.273
-644.726	-48.180	0.258	-0.127
-643.711	-115.737	-0.130	0.025
-642.697	29.986	-0.129	0.112
-641.682	14.990	0.208	0.166
-640.668	-5.356	0.091	-0.064
-639.653	625.501	0.098	-0.251
-638.638	162.309	0.307	-0.438
-637.624	-27.829	-0.211	0.125
-636.609	-92.885	0.264	-0.075
-635.595	-61.522	0.125	0.054
-634.580	193.830	0.080	0.123
-633.565	406.076	0.234	0.503
-632.551	-29.662	0.215	0.125
-631.536	79.167	0.062	0.068
-630.522	-9.163	0.103	0.070
-629.507	-200.000	0.066	-0.572
-628.492	-22.096	0.202	-0.125
-627.478	-57.227	0.306	0.137
-626.463	86.131	0.188	0.211
-625.449	-200.000	-0.002	-0.016
-624.434	800.000	0.058	0.228
-623.419	-137.092	0.130	-0.015
-622.405	-39.646	-0.098	0.052
-621.390	800.000	0.060	0.244
-620.376	200.061	0.179	-0.279
-619.361	-40.351	-0.123	0.065
-618.346	-8.971	-0.198	-0.135
-617.332	-91.456	0.170	-0.049
-616.317	-3.158	-0.130	0.092
-615.303	50.383	-0.165	-0.158
-614.288	417.033	0.059	0.127
-613.273	-200.000	0.006	-0.051
-612.259	152.768	-0.149	0.207
-611.244	-141.917	0.260	0.026
-610.230	-200.000	-0.006	-0.032
-609.215	-170.480	-0.302	-0.011
-608.201	440.862	0.067	-0.149
-607.186	-113.598	0.063	0.013
-606.171	116.719	-0.161	-0.201
-605.157	794.604	-0.066	0.184
-604.142	126.922	0.268	-0.345
-603.128	-200.000	0.055	0.298
-602.113	-33.854	-0.097	-0.054
-601.098	-118.566	-0.052	0.009
-600.084	800.000	0.046	0.130
-599.069	-200.000	0.000	0.218
-598.055	106.159	-0.177	-0.213
-597.040	220.980	0.189	0.309
-596.025	800.000	0.054	0.192
-595.011	-24.776	-0.111	0.067
-593.996	-103.614	-0.144	0.034
-592.982	-62.942	0.179	-0.075
-591.967	-106.938	0.065	0.015
-590.952	800.000	0.055	-0.178
-589.938	800.000	0.044	0.131
-588.923	-36.134	-0.348	-0.191
-587.909	77.171	-0.190	-0.205
-586.894	-124.677	0.118	-0.019
-585.879	79.512	-0.280	-0.305
-584.865	410.204	0.130	-0.281
-583.850	44.627	-0.176	-0.165
-582.836	-7.026	-0.179	0.123
-581.821	800.000	0.024	0.100
-580.806	105.188	0.023	-0.028
-579.792	-115.198	-0.170	-0.033
-578.777	260.856	0.262	0.460
-577.763	-8.342	0.117	0.080
-576.748	800.000	-0.062	0.198
-575.733	506.105	-0.071	-0.167
-574.719	42.767	0.284	-0.263
-573.704	800.000	0.078	0.254
-572.690	-200.000	-0.033	0.330
-571.675	165.827	0.124	0.179
-570.661	-87.518	0.151	0.046
-569.646	94.738	-0.167	-0.193
-568.631	6.232	0.194	-0.146
-567.617	-33.303	-0.353	-0.199
-566.602	5.446	-0.368	0.276
-565.588	-170.541	-0.459	0.016
-564.573	6.657	-0.052	-0.039
-563.558	-200.000	-0.033	-0.151
-562.544	-200.000	0.016	0.117
-561.529	12.100	0.168	0.131
-560.515	800.000	0.022	-0.065
-559.500	800.000	0.043	0.174
-558.485	-172.269	-0.063	0.002
-557.471	-200.000	-0.078	-0.584
-556.456	-200.000	-0.033	-0.200
-555.442	-200.000	-0.039	0.216
-554.427	-200.000	-0.022	0.372
-553.412	800.000	-0.053	0.171
-552.398	118.119	0.058	-0.072
-551.383	800.000	0.069	0.272
-550.369	800.000	-0.017	0.062
-549.354	-114.158	-0.307	-0.060
-548.339	53.290	-0.176	0.172
-547.325	800.000	-0.029	0.092
-546.310	-200.000	0.003	-0.206
-545.296	299.795	0.138	-0.258
-544.281	35.413	0.410	-0.365
-543.266	58.636	-0.267	0.266
-542.252	434.649	-0.099	-0.219
-541.237	-200.000	0.005	0.048
-540.223	555.356	0.074	-0.181
-539.208	26.743	0.213	0.181
-538.193	-80.453	-0.306	0.104
-537.179	-200.000	-0.017	0.184
-536.164	-51.991	-0.229	-0.108
-535.150	184.202	-0.045	0.067
-534.135	60.685	0.068	-0.068
-533.121	800.000	-0.047	-0.149
-532.106	-118.166	0.049	-0.009
-531.091	145.614	-0.208	-0.283
-530.077	170.139	0.134	-0.195
-529.062	345.903	-0.135	0.269
-528.048	800.000	0.043	0.121
-527.033	-91.377	0.161	0.047
-526.018	51.819	0.249	-0.240
-525.004	-0.299	-0.111	-0.080
-523.989	67.981	0.005	0.005
-522.975	-28.008	-0.038	0.022
-521.960	37.947	0.180	0.163
-520.945	-109.263	0.183	0.039
-519.931	-64.859	-0.268	-0.110
-518.916	380.120	-0.063	0.131
-517.902	-149.723	-0.173	0.014
-516.887	307.964	-0.127	-0.241
-515.872	-200.000	0.526	-0.002
-514.858	800.000	0.071	-0.277
-513.843	267.691	0.058	0.103
-512.829	89.812	-0.085	0.097
-511.814	628.088	0.083	-0.212
-510.799	-61.353	-0.297	-0.127
-509.785	800.000	-0.050	-0.196
-508.770	800.000	-0.086	-0.340
-507.756	-200.000	0.004	0.047
-506.741	-76.143	0.358	-0.128
-505.726	-200.000	0.005	-0.045
-504.712	800.000	-0.044	0.136
-503.697	800.000	-0.057	-0.169
-502.683	-200.000	-0.006	-0.177
-501.668	225.710	0.126	-0.206
-500.653	-181.556	-0.208	-0.004
-499.639	-142.705	-0.123	0.012
-498.624	-73.418	-0.179	-0.066
-497.610	-65.784	0.099	-0.040
-496.595	572.771	0.153	-0.379
-495.581	-157.267	-0.317	-0.019
-494.566	23.939	0.015	-0.013
-493.551	103.690	-0.149	-0.177
-492.537	-200.000	0.070	0.317
-491.522	-68.664	0.223	0.087
-490.508	254.242	0.105	0.182
-489.493	29.063	-0.230	-0.197
-488.478	-170.505	-0.447	0.016
-487.464	104.797	-0.023	0.027
-486.449	278.334	0.189	-0.341
-485.435	596.825	0.027	-0.067
-484.420	800.000	-0.071	-0.273
-483.405	121.810	0.089	-0.113
-482.391	-152.123	0.354	0.026
-481.376	424.486	0.035	-0.076
-480.362	800.000	-0.048	-0.160
-479.347	-132.559	0.268	0.035
-478.332	558.118	0.122	0.298
-477.318	154.108	0.202	0.281
-476.303	59.413	0.169	-0.169
-475.289	-149.780	-0.427	0.034
-474.274	131.614	-0.312	0.407
-473.259	46.721	-0.077	-0.072
-472.245	800.000	0.037	0.133
-471.230	7.826	0.110	-0.084
-470.216	72.123	0.230	0.242
-469.201	-200.000	0.048	-0.418
-468.186	-49.149	0.185	-0.089
-467.172	260.264	-0.081	-0.142
-466.157	199.034	0.101	0.157
-465.143	-101.497	-0.239	-0.059
-464.128	136.983	0.062	-0.082
-463.113	-74.031	-0.524	0.192
-462.099	-200.000	0.005	0.088
-461.084	252.480	0.058	-0.100
-460.070	59.858	0.145	0.145
-459.055	-5.669	-0.089	0.062
-458.040	-5.217	-0.256	-0.178
-457.026	540.739	0.135	0.325
-456.011	583.946	-0.079	-0.196
-454.997	-98.328	0.163	-0.042
-453.982	-24.764	0.214	-0.129
-452.968	-115.482	-0.388	-0.074
-451.953	-200.000	0.023	-0.409
-450.938	-108.952	0.230	-0.050
-449.924	-200.000	0.003	0.122
-448.909	25.446	-0.261	-0.220
-447.895	127.589	-0.278	0.357
-446.880	-47.070	-0.232	0.114
-445.865	356.554	-0.171	-0.344
-444.851	-127.481	0.222	0.033
-443.836	-84.279	0.215	0.069
-442.822	800.000	0.043	-0.142
-441.807	-93.094	-0.158	-0.044
-440.792	-141.645	0.081	0.008
-439.778	-200.000	-0.038	-0.188
-438.763	290.499	0.055	0.101
-437.749	-97.168	0.145	0.038
-436.734	800.000	-0.091	0.388
-435.719	-107.002	-0.276	0.062
-434.705	160.447	-0.111	0.156
-433.690	-127.734	-0.529	0.077
-432.676	-200.000	0.009	-0.177
-431.661	-200.000	0.079	-0.442
-430.646	-200.000	0.011	-0.163
-429.632	-141.521	-0.281	0.029
-428.617	33.218	0.104	-0.091
-427.603	-40.905	0.078	-0.041
-426.588	-120.051	0.401	-0.069
-425.573	-111.748	-0.126	0.026
-424.559	-111.279	-0.193	-0.040
-423.544	-200.000	-0.071	-0.393
-422.530	-115.388	-0.365	-0.070
-421.515	-200.000	0.002	-0.168
-420.500	-200.000	0.017	0.082
-419.486	17.570	-0.325	0.261
-418.471	-200.000	-0.047	-0.242
-417.457	-191.046	-0.132	0.001
-416.442	52.694	0.249	0.241
-415.428	87.079	0.132	-0.147
-414.413	800.000	0.056	-0.244
-413.398	-63.283	0.413	-0.172
-412.384	-123.835	0.330	-0.053
-411.369	800.000	-0.049	-0.152
-410.355	154.842	0.057	-0.079
-409.340	91.099	-0.198	-0.224
-408.325	-38.373	-0.208	0.111
-407.311	142.839	0.129	0.173
-406.296	800.000	-0.077	0.312
-405.282	-72.765	0.442	-0.164
-404.267	-87.424	-0.277	0.085
-403.252	-16.250	-0.094	0.060
-402.238	399.451	-0.126	0.266
-401.223	-67.422	0.051	0.020
-400.209	-77.405	-0.125	-0.044
-399.194	63.941	0.070	0.071
-398.179	-93.759	0.214	0.060
-397.165	-20.658	-0.052	0.032
-396.150	-133.099	-0.045	-0.006
-395.136	800.000	-0.064	0.213
-394.121	14.903	0.130	-0.103
-393.106	228.593	0.152	-0.250
-392.092	83.272	-0.149	-0.163
-391.077	-73.267	0.195	-0.072
-390.063	159.866	0.053	0.074
-389.048	-54.271	0.375	-0.172
-388.033	-168.514	-0.089	-0.003
-387.019	33.168	-0.401	0.351
-386.004	325.435	0.066	0.127
-384.990	-200.000	-0.004	0.096
-383.975	-189.136	-0.569	-0.007
-382.960	58.176	0.189	-0.187
-381.946	-24.807	0.206	0.124
-380.931	-153.074	0.084	0.006
-379.917	182.788	-0.153	-0.227
-378.902	-200.000	0.045	0.351
-377.888	221.752	0.048	0.077
-376.873	22.378	-0.142	-0.117
-375.858	-132.165	-0.224	-0.029
-374.844	130.772	0.136	-0.175
-373.829	-21.753	-0.156	-0.096
-372.815	-136.682	0.139	0.016
-371.800	381.673	-0.168	-0.347
-370.785	-90.281	0.319	0.094
-369.771	-200.000	-0.033	0.186
-368.756	101.220	-0.150	0.177
-367.742	-200.000	0.002	-0.416
-366.727	-200.000	0.033	-0.308
-365.712	9.250	0.220	-0.167
-364.698	-50.882	0.105	-0.050
-363.683	-61.002	0.085	0.036
-362.669	296.509	-0.096	-0.177
-361.654	-82.226	0.401	0.132
-360.639	-200.000	0.027	0.128
-359.625	-200.000	-0.029	-0.204
-358.610	460.441	0.056	-0.126
-357.596	92.412	0.152	-0.173
-356.581	-200.000	0.026	-0.198
-355.566	604.524	0.124	0.310
-354.552	356.296	0.192	-0.385
-353.537	200.976	0.151	-0.234
-352.523	-92.319	0.185	0.053
-351.508	-102.336	0.006	0.001
-350.493	69.150	0.129	0.133
-349.479	-200.000	0.004	0.404
-348.464	312.708	-0.138	0.261
-347.450	136.895	-0.117	0.154
-346.435	-200.000	0.015	0.157
-345.420	-64.072	0.143	-0.059
-344.406	800.000	-0.026	-0.085
-343.391	800.000	0.048	-0.153
-342.377	-142.623	-0.119	0.012
-341.362	-124.952	-0.235	-0.036
-340.348	403.911	-0.123	-0.261
-339.333	-172.982	0.156	0.005
-338.318	-200.000	-0.018	0.243
-337.304	344.735	-0.034	-0.067
-336.289	595.964	-0.077	-0.192
-335.275	283.569	0.120	0.217
-334.260	13.045	0.182	0.142
-333.245	-200.000	-0.013	0.149
-332.231	10.341	0.189	-0.145
-331.216	403.436	0.083	-0.175
-330.202	-97.477	0.325	0.085
-329.187	-33.735	-0.175	-0.097
-328.172	-87.691	0.216	0.065
-327.158	-200.000	0.009	0.110
-326.143	-110.312	0.252	-0.053
-325.129	-200.000	0.007	0.344
-324.114	-112.841	-0.040	0.008
-323.099	-50.179	-0.114	0.054
-322.085	-200.000	-0.023	0.249
-321.070	10.096	0.235	-0.180
-320.056	-200.000	0.018	0.431
-319.041	509.232	0.087	0.204
-318.026	274.001	0.127	0.226
-317.012	-200.000	0.027	0.369
-315.997	-99.516	0.188	0.048
-314.983	139.841	-0.111	-0.147
-313.968	85.325	-0.090	0.099
-312.953	-147.209	-0.270	-0.023
-311.939	337.751	-0.133	0.261
-310.924	-115.209	0.249	-0.047
-309.910	-200.000	-0.040	0.398
-308.895	609.435	-0.051	-0.128
-307.880	83.057	-0.073	-0.080
-306.866	-56.061	0.063	0.028
-305.851	94.648	-0.241	0.276
-304.837	433.012	-0.220	-0.480
-303.822	36.798	-0.261	-0.232
-302.807	26.642	-0.103	0.086
-301.793	-200.000	-0.008	0.325
-300.778	-106.512	-0.304	0.068
-299.764	223.151	0.071	0.116
-298.749	-122.853	0.302	-0.049
-297.735	2.138	0.381	0.277
-296.720	-11.087	0.133	-0.088
-295.705	-200.000	-0.017	-0.215
-294.691	-1.721	-0.096	0.068
-293.676	47.294	0.111	-0.104
-292.662	-200.000	-0.057	0.362
-291.647	-103.069	0.215	0.051
-290.632	-116.159	-0.210	-0.039
-289.618	212.752	0.196	0.310
-288.603	-200.000	-0.018	-0.181
-287.589	-154.306	-0.268	0.018
-286.574	792.069	0.061	-0.167
-285.559	-101.628	0.165	-0.040
-284.545	27.254	0.053	0.045
-283.530	50.238	0.352	0.334
-282.516	-102.648	-0.184	0.044
-281.501	149.652	0.304	-0.414
-280.486	7.402	-0.041	-0.031
-279.472	8.486	-0.033	-0.025
-278.457	800.000	-0.000	0.002
-277.443	352.369	0.230	-0.458
-276.428	180.958	0.113	0.167
-275.413	-200.000	-0.000	0.349
-274.399	61.222	0.367	0.367
-273.384	-109.837	-0.254	-0.054
-272.370	126.634	-0.183	-0.232
-271.355	183.174	-0.132	-0.196
-270.340	219.375	0.017	0.028
-269.326	116.043	0.203	0.250
-268.311	-91.024	0.296	0.085
-267.297	-101.841	-0.556	-0.135
-266.282	-200.000	0.018	-0.295
-265.267	800.000	0.055	0.155
-264.253	-79.717	-0.275	-0.093
-263.238	162.979	0.159	-0.224
-262.224	-154.051	-0.393	0.027
-261.209	-112.081	0.141	0.028
-260.195	-200.000	-0.009	0.502
-259.180	20.819	0.369	0.300
-258.165	-183.090	-0.424	0.008
-257.151	-148.391	0.531	-0.044
-256.136	-200.000	-0.017	-0.249
-255.122	165.353	-0.152	0.215
-254.107	29.090	-0.132	0.113
-253.092	800.000	0.044	0.176
-252.078	-200.000	0.028	0.449
-251.063	-200.000	-0.010	-0.157
-250.049	800.000	-0.020	-0.087
-249.034	423.341	0.064	-0.139
-248.019	718.239	-0.079	-0.210
-247.005	-48.038	0.459	-0.223
-245.990	164.849	-0.135	-0.191
-244.976	-73.337	-0.225	0.083
-243.961	781.438	-0.072	-0.198
-242.946	459.602	0.093	-0.207
-241.932	359.701	0.129	0.258
-240.917	551.128	0.030	-0.072
-239.903	-16.905	0.013	0.008
-238.888	-200.000	0.016	0.101
-237.873	800.000	0.044	0.134
-236.859	89.904	-0.080	-0.090
-235.844	187.442	0.069	-0.103
-234.830	-200.000	0.023	0.173
-233.815	-13.186	-0.146	0.095
-232.800	-37.829	-0.165	0.088
-231.786	290.254	-0.119	0.217
-230.771	-89.189	0.055	0.016
-229.757	116.654	0.073	-0.090
-228.742	-136.242	-0.274	0.032
-227.727	-50.245	0.229	0.109
-226.713	470.691	0.055	-0.123
-225.698	-90.512	0.108	-0.031
-224.684	-80.673	-0.221	-0.074
-223.669	-200.000	0.107	0.479
-222.655	800.000	0.140	0.396
-221.640	800.000	0.069	0.229
-220.625	32.151	-0.063	-0.055
-219.611	43.050	0.070	-0.064
-218.596	-200.000	-0.013	-0.158
-217.582	-187.520	-0.065	0.001
-216.567	800.000	-0.077	-0.279
-215.552	-7.165	-0.183	0.124
-214.538	-200.000	0.009	0.097
-213.523	78.101	-0.157	-0.168
-212.509	24.897	0.173	0.143
-211.494	-200.000	-0.006	-0.215
-210.479	-200.000	0.002	0.392
-209.465	-97.828	-0.159	-0.041
-208.450	-112.951	0.094	0.019
-207.436	-200.000	0.005	0.225
-206.421	-200.000	-0.037	-0.300
-205.406	-160.150	-0.186	-0.010
-204.392	215.553	-0.061	0.096
-203.377	-23.545	-0.151	0.091
-202.363	25.623	-0.169	0.141
-201.348	190.468	-0.137	-0.206
-200.333	-200.000	-0.034	0.257
-199.319	27.758	0.110	0.093
-198.304	272.367	0.022	0.039
-197.290	-82.499	-0.064	0.021
-196.275	-75.236	0.128	-0.046
-195.260	-95.239	0.194	0.052
-194.246	7.694	-0.145	0.109
-193.231	-163.172	-0.095	0.005
-192.217	-135.195	0.358	0.043
-191.202	-73.362	0.232	0.085
-190.187	9.784	-0.145	0.110
-189.173	-200.000	-0.000	-0.316
-188.158	-66.688	0.378	-0.150
-187.144	569.561	-0.084	0.204
-186.129	-8.410	-0.247	0.166
-185.114	-200.000	-0.010	0.138
-184.100	-200.000	0.002	0.116
-183.085	-154.114	-0.204	-0.014
-182.071	-138.269	-0.318	-0.035
-181.056	-200.000	-0.005	-0.391
-180.042	399.685	-0.128	0.268
-179.027	-62.772	0.486	0.201
-178.012	714.316	-0.061	0.161
-176.998	273.856	0.170	0.301
-175.983	-157.240	-0.189	0.011
-174.969	-200.000	0.110	-0.000
-173.954	-28.357	-0.251	0.145
-172.939	45.554	0.100	-0.093
-171.925	64.282	0.060	0.060
-170.910	-200.000	-0.021	-0.101
-169.896	-92.642	-0.178	0.050
-168.881	-200.000	0.017	-0.200
-167.866	-77.636	-0.247	0.085
-166.852	-96.935	0.355	-0.093
-165.837	68.649	-0.201	-0.206
-164.823	108.710	-0.129	-0.155
-163.808	-100.288	-0.085	-0.021
-162.793	-47.265	0.379	-0.184
-161.779	-3.965	-0.124	-0.086
-160.764	119.911	0.103	0.128
-159.750	-166.943	-0.259	-0.011
-158.735	25.537	-0.231	-0.192
-157.720	576.271	-0.055	0.134
-156.706	-112.723	-0.213	-0.042
-155.691	128.777	-0.220	-0.280
-154.677	433.198	-0.052	-0.113
-153.662	85.524	-0.205	-0.225
-152.647	54.112	-0.062	-0.060
-151.633	-127.004	-0.278	0.041
-150.618	108.676	-0.145	0.173
-149.604	640.645	0.129	-0.329
-148.589	-30.633	-0.153	-0.087
-147.574	666.989	0.040	0.102
-146.560	-15.449	-0.128	-0.081
-145.545	-57.189	0.104	-0.046
-144.531	-127.844	-0.246	0.035
-143.516	-149.705	0.113	-0.009
-142.502	81.575	0.136	0.147
-141.487	675.948	0.247	-0.641
-140.472	-200.000	-0.043	0.367
-139.458	46.643	-0.167	-0.155
-138.443	-149.735	0.097	-0.008
-137.429	-64.844	-0.261	0.105
-136.414	62.657	0.297	0.297
-135.399	800.000	0.109	-0.400
-134.385	18.416	-0.179	-0.143
-133.370	-200.000	0.000	-0.042
-132.356	395.662	-0.089	-0.186
-131.341	800.000	-0.075	-0.233
-130.326	-38.081	0.197	-0.104
-129.312	-44.464	0.253	-0.126
-128.297	310.447	0.138	-0.258
-127.283	142.665	-0.151	0.200
-126.268	68.974	0.030	0.030
-125.253	-77.170	-0.402	-0.140
-124.239	48.163	0.122	-0.114
-123.224	800.000	-0.036	-0.109
-122.210	-38.000	0.478	-0.254
-121.195	-36.690	0.066	0.035
-120.180	155.849	-0.133	-0.184
-119.166	-68.882	-0.414	-0.160
-118.151	-69.708	0.222	-0.085
-117.137	-33.072	0.254	-0.141
-116.122	591.334	-0.119	0.293
-115.107	-119.164	0.475	-0.083
-114.093	-58.083	-0.229	0.100
-113.078	-200.000	0.007	-0.170
-112.064	-45.475	-0.067	-0.033
-111.049	237.687	-0.230	-0.380
-110.034	-200.000	-0.016	-0.181
-109.020	287.502	-0.095	0.172
-108.005	-18.412	0.213	-0.133
-106.991	-48.432	0.103	-0.050
-105.976	800.000	0.058	0.179
-104.962	-78.015	0.160	0.055
-103.947	62.880	-0.043	0.043
-102.932	165.289	0.103	-0.145
-101.918	-154.531	-0.321	-0.021
-100.903	23.664	0.147	-0.121
-99.889	-39.481	-0.088	-0.046
-98.874	36.802	-0.185	-0.163
-97.859	-3.392	0.252	0.175
-96.845	66.182	-0.284	0.288
-95.830	-19.943	-0.233	-0.143
-94.816	-200.000	-0.048	0.277
-93.801	247.505	0.157	0.265
-92.786	181.856	-0.088	0.129
-91.772	114.100	0.027	-0.033
-90.757	-118.491	0.335	-0.059
-89.743	546.516	0.068	-0.163
-88.728	-13.068	-0.161	-0.104
-87.713	-33.366	0.220	0.121
-86.699	-133.398	-0.075	-0.009
-85.684	-200.000	0.002	0.252
-84.670	58.208	0.122	-0.119
-83.655	-76.333	-0.146	0.051
-82.640	-200.000	0.005	0.190
-81.626	-200.000	-0.058	-0.469
-80.611	800.000	-0.095	-0.361
-79.597	177.354	-0.149	0.216
-78.582	35.148	-0.205	-0.179
-77.567	-69.645	0.302	-0.115
-76.553	-200.000	-0.023	-0.176
-75.538	-200.000	-0.032	-0.162
-74.524	-200.000	-0.010	-0.123
-73.509	374.177	-0.064	0.129
-72.494	800.000	0.038	-0.147
-71.480	13.235	0.079	0.061
-70.465	-200.000	0.013	-0.183
-69.451	208.584	-0.097	-0.151
-68.436	-80.696	-0.135	-0.045
-67.422	-87.330	0.102	-0.031
-66.407	800.000	0.088	-0.273
-65.392	-67.540	-0.352	-0.138
-64.378	346.869	0.137	0.269
-63.363	173.002	0.325	0.466
-62.349	64.228	0.165	0.166
-61.334	35.966	-0.685	-0.601
-60.319	-10.066	0.261	0.172
-59.305	800.000	-0.212	-0.691
-58.290	31.205	0.681	0.582
-57.276	237.762	0.911	1.505
-56.261	-200.000	77.910	511.351
-55.246	509.582	1333.399	3085.966
-54.232	147.909	2558.905	3435.388
-53.217	115.285	2223.147	2703.244
-52.203	51.448	1674.506	1583.713
-51.188	43.806	1402.029	1277.971
-50.173	40.359	1356.566	1215.384
-49.159	58.687	1392.788	1361.775
-48.144	65.249	1412.016	1421.143
-47.130	44.330	1373.399	1254.918
-46.115	40.319	1357.500	1215.779
-45.100	40.031	1353.010	1209.949
-44.086	39.983	1350.346	1207.224
-43.071	40.015	1348.096	1205.363
-42.057	39.902	1345.378	1202.196
-41.042	39.894	1344.363	1201.190
-40.027	40.095	1342.573	1200.764
-39.013	40.026	1340.863	1198.770
-37.998	40.114	1338.541	1197.181
-36.984	40.177	1336.631	1195.804
-35.969	40.200	1334.817	1194.270
-34.954	40.214	1333.169	1192.837
-33.940	40.139	1332.255	1191.515
-32.925	40.231	1330.773	1190.700
-31.911	40.236	1329.512	1189.555
-30.896	40.251	1327.352	1187.665
-29.881	40.384	1325.878	1187.097
-28.867	40.326	1324.966	1185.883
-27.852	40.319	1323.274	1184.279
-26.838	40.399	1321.479	1183.107
-25.823	40.183	1320.550	1180.934
-24.809	40.239	1319.081	1179.912
-23.794	40.231	1317.765	1178.640
-22.779	40.307	1316.314	1177.744
-21.765	40.239	1315.046	1176.159
-20.750	40.316	1313.420	1175.117
-19.736	40.274	1311.811	1173.384
-18.721	40.175	1310.671	1171.728
-17.706	40.237	1309.545	1171.042
-16.692	40.154	1308.519	1169.591
-15.677	40.157	1307.182	1168.364
-14.663	40.231	1306.172	1167.851
-13.648	40.135	1305.486	1166.629
-12.633	40.106	1304.319	1165.364
-11.619	40.093	1303.176	1164.225
-10.604	40.159	1302.314	1163.796
-9.590	40.180	1301.370	1163.027
-8.575	39.984	1300.687	1161.218
-7.560	40.072	1299.929	1161.016
-6.546	40.058	1299.152	1160.193
-5.531	40.066	1298.186	1159.327
-4.517	40.170	1296.799	1158.656
-3.502	40.048	1296.238	1157.394
-2.487	40.094	1295.370	1156.839
-1.473	40.186	1291.285	1153.683
-0.458	39.102	1276.237	1133.940
0.556	35.794	1257.364	1094.415
1.571	31.858	1261.574	1075.457
2.586	30.629	1277.209	1081.546
3.600	29.052	1265.789	1062.684
4.615	20.899	1187.398	952.422
5.629	8.394	1103.289	820.981
6.644	2.744	1079.123	774.460
7.659	2.303	1076.042	769.963
8.673	2.144	1074.464	767.963
9.688	2.042	1073.120	766.422
10.702	2.389	1072.017	767.311
11.717	9.569	1082.819	811.237
12.731	20.501	1099.193	879.037
13.746	25.306	1104.428	907.500
14.761	25.645	1104.327	909.050
15.775	25.641	1104.042	908.711
16.790	25.427	1103.201	906.858
17.804	25.281	1102.712	905.645
18.819	25.436	1102.107	905.844
19.834	25.533	1101.718	905.934
20.848	25.600	1101.423	905.950
21.863	25.555	1100.688	905.040
22.877	25.446	1100.342	904.126
23.892	25.391	1099.114	902.760
24.907	25.561	1098.376	902.927
25.921	25.557	1097.511	902.116
26.936	25.557	1096.086	900.864
27.950	25.404	1094.776	898.945
28.965	25.201	1092.994	896.385
29.980	25.317	1091.240	895.447
30.994	25.499	1091.000	896.081
32.009	25.469	1089.621	894.717
33.023	25.266	1088.291	892.537
34.038	25.429	1087.221	892.389
35.053	25.555	1087.082	892.824
36.067	25.520	1085.946	891.637
37.082	25.527	1085.613	891.319
38.096	25.668	1084.642	891.143
39.111	25.733	1084.027	890.880
40.126	25.643	1082.310	888.947
41.140	25.284	1080.832	885.879
42.155	25.045	1079.633	883.639
43.169	25.134	1078.404	882.995
44.184	25.035	1077.771	881.913
45.199	25.053	1076.471	880.861
46.213	24.986	1076.021	880.081
47.228	25.257	1074.975	880.480
48.242	25.432	1074.073	880.523
49.257	25.424	1073.362	879.819
50.271	25.485	1072.908	879.669
51.286	25.611	1071.686	879.208
52.301	25.581	1070.756	878.218
53.315	25.453	1069.948	876.854
54.330	25.347	1069.036	875.513
55.344	25.428	1068.190	875.137
56.359	25.402	1067.176	874.102
57.374	25.100	1066.766	872.218
58.388	25.266	1065.570	871.972
59.403	25.106	1065.171	870.788
60.417	24.944	1064.187	869.121
61.432	25.125	1063.517	869.377
62.447	25.279	1062.944	869.578
63.461	25.241	1062.260	868.755
64.476	25.181	1061.321	867.622
65.490	25.042	1060.461	866.171
66.505	25.078	1060.112	865.983
67.520	25.314	1058.651	865.853
68.534	24.971	1057.592	863.254
69.549	24.696	1056.987	861.362
70.563	24.669	1055.997	860.346
71.578	24.846	1055.248	860.510
72.593	24.590	1053.597	857.858
73.607	24.591	1053.734	857.902
74.622	25.024	1052.945	859.260
75.636	25.139	1052.407	859.297
76.651	24.804	1051.810	857.126
77.666	24.770	1050.775	856.047
78.680	24.708	1050.665	855.584
79.695	24.839	1049.412	855.112
80.709	25.006	1048.725	855.274
81.724	24.889	1048.062	854.100
82.739	25.230	1046.736	854.571
83.753	25.431	1046.681	855.405
84.768	25.756	1045.848	856.193
85.782	25.729	1045.598	855.787
86.797	25.670	1044.084	854.189
87.812	25.583	1043.101	852.897
88.826	25.678	1042.224	852.556
89.841	25.739	1041.702	852.345
90.855	25.734	1040.838	851.536
91.870	25.865	1039.496	850.982
92.884	25.503	1038.795	848.624
93.899	25.597	1037.407	847.860
94.914	25.680	1037.024	847.859
95.928	25.601	1036.104	846.663
96.943	25.393	1034.712	844.471
97.957	25.098	1033.271	841.835
98.972	24.901	1032.477	840.193
99.987	25.198	1031.856	841.006
101.001	25.485	1030.729	841.355
102.016	25.345	1030.061	840.082
103.030	25.462	1028.952	839.647
104.045	25.149	1028.264	837.549
105.060	25.071	1027.307	836.335
106.074	25.184	1026.684	836.280
107.089	25.614	1025.919	837.582
108.103	25.415	1024.826	835.690
109.118	25.246	1023.545	833.786
110.133	25.204	1022.548	832.707
111.147	25.002	1021.513	830.854
112.162	24.718	1020.767	828.857
113.176	25.045	1020.342	829.955
114.191	25.053	1019.314	829.083
115.206	24.786	1017.890	826.618
116.220	24.627	1017.604	825.578
117.235	24.986	1016.261	826.071
118.249	24.926	1015.531	825.127
119.264	24.704	1014.718	823.372
120.279	24.874	1013.811	823.343
121.293	24.916	1013.289	823.042
122.308	24.878	1012.528	822.177
123.322	24.757	1011.348	820.590
124.337	24.731	1009.638	819.010
125.352	24.135	1008.485	815.274
126.366	24.129	1007.174	814.115
127.381	24.907	1007.313	817.711
128.395	25.327	1006.691	819.052
129.410	25.434	1006.169	819.038
130.424	25.443	1005.092	818.132
131.439	25.352	1004.198	816.918
132.454	25.352	1003.761	816.493
133.468	25.465	1002.333	815.771
134.483	25.458	1001.852	815.275
135.497	25.621	1001.177	815.392
136.512	25.766	1000.203	815.182
137.527	25.800	999.288	814.521
138.541	25.709	998.593	813.471
139.556	25.712	997.812	812.775
140.570	25.803	997.057	812.501
141.585	25.757	996.129	811.463
142.600	25.608	995.115	809.895
143.614	25.766	994.609	810.122
144.629	26.064	993.819	810.747
145.643	25.892	992.212	808.590
146.658	25.590	990.909	806.103
147.673	25.521	990.243	805.182
148.687	25.572	988.781	804.149
149.702	25.415	987.815	802.592
150.716	25.389	986.907	801.667
151.731	25.503	986.675	801.915
152.746	25.734	986.256	802.534
153.760	25.907	985.386	802.526
154.775	25.977	984.400	801.963
155.789	25.786	983.873	800.614
156.804	25.830	983.015	800.041
157.819	25.816	981.983	799.071
158.833	25.979	981.528	799.349
159.848	25.961	980.354	798.245
160.862	25.849	979.154	796.701
161.877	25.769	978.184	795.486
162.892	25.841	977.254	794.979
163.906	25.734	975.758	793.219
164.921	25.691	975.276	792.569
165.935	25.746	974.595	792.188
166.950	25.837	973.448	791.583
167.964	25.773	972.541	790.498
168.979	25.596	971.028	788.419
169.994	25.582	970.117	787.548
171.008	25.818	970.131	788.525
172.023	25.780	969.176	787.513
173.037	25.595	967.945	785.633
174.052	25.533	967.080	784.591
175.067	25.523	966.656	784.137
176.081	25.647	966.128	784.177
177.096	25.601	965.141	783.109
178.110	25.295	964.235	780.971
179.125	25.222	963.269	779.801
180.140	25.162	963.097	779.332
181.154	25.316	963.403	780.183
182.169	25.638	962.817	781.037
183.183	25.873	962.379	781.631
184.198	25.728	961.331	780.083
185.213	25.675	960.563	779.159
186.227	25.702	959.748	778.550
187.242	25.897	959.052	778.759
188.256	25.919	958.812	778.589
189.271	25.967	958.272	778.290
190.286	25.593	956.585	775.237
191.300	24.924	955.053	771.048
192.315	24.135	953.410	766.259
193.329	24.103	953.105	765.808
194.344	24.905	953.918	769.846
195.359	25.532	953.563	772.186
196.373	25.769	953.135	772.789
197.388	25.692	952.439	771.825
198.402	25.713	951.837	771.360
199.417	25.751	950.992	770.769
200.432	25.362	950.648	768.756
201.446	25.204	949.683	767.230
202.461	25.279	949.244	767.129
203.475	24.461	946.963	761.728
204.490	23.652	945.960	757.406
205.504	24.615	946.021	761.494
206.519	25.185	946.424	764.178
207.534	25.212	946.073	763.944
208.548	25.738	945.524	765.671
209.563	25.457	944.485	763.566
210.577	25.329	943.963	762.532
211.592	25.890	943.456	764.437
212.607	25.864	942.677	763.629
213.621	25.869	942.101	763.115
214.636	25.979	941.424	762.965
215.650	25.779	940.248	761.098
216.665	25.825	940.539	761.461
217.680	25.850	939.424	760.599
218.694	25.416	938.035	757.578
219.709	25.178	937.718	756.247
220.723	25.367	937.524	756.823
221.738	25.583	936.607	756.924
222.753	25.640	935.983	756.592
223.767	25.819	935.406	756.812
224.782	25.873	935.202	756.806
225.796	25.931	934.788	756.646
226.811	25.302	932.946	752.455
227.826	24.520	931.908	748.276
228.840	24.951	931.064	749.333
229.855	24.943	930.584	748.850
230.869	24.537	929.399	746.133
231.884	24.841	929.671	747.557
232.899	25.635	929.497	750.665
233.913	25.601	928.936	750.004
234.928	25.542	928.492	749.334
235.942	25.479	927.871	748.504
236.957	25.182	926.918	746.431
237.972	25.110	926.506	745.735
238.986	25.362	925.869	746.204
240.001	25.258	925.596	745.483
241.015	25.487	924.709	745.654
242.030	25.601	924.278	745.714
243.045	25.668	923.891	745.612
244.059	25.751	923.839	745.851
245.074	25.509	922.821	743.959
246.088	25.202	921.659	741.690
247.103	25.537	920.953	742.436
248.117	26.102	921.122	744.842
249.132	26.358	920.764	745.543
250.147	26.498	919.916	745.365
251.161	26.525	919.912	745.406
252.176	26.492	919.253	744.671
253.190	26.602	918.884	744.761
254.205	26.856	918.111	745.112
255.220	26.724	917.678	744.151
256.234	26.469	917.027	742.513
257.249	26.513	915.837	741.661
258.263	26.514	914.977	740.906
259.278	26.595	914.597	740.862
260.293	26.678	914.184	740.804
261.307	26.588	913.155	739.536
262.322	26.440	912.210	738.099
263.336	25.521	910.756	733.113
264.351	24.466	908.890	727.250
265.366	24.697	908.452	727.778
266.380	25.804	908.895	732.574
267.395	26.245	908.834	734.252
268.409	26.029	908.670	733.175
269.424	26.299	907.964	733.636
270.439	26.329	906.946	732.872
271.453	26.409	906.340	732.643
272.468	26.584	906.010	733.020
273.482	26.720	905.808	733.340
274.497	26.144	904.745	730.087
275.512	25.835	903.356	727.654
276.526	26.215	903.567	729.292
277.541	26.392	903.340	729.758
278.555	26.217	902.413	728.243
279.570	26.091	901.823	727.191
280.585	26.228	901.099	727.095
281.599	26.269	900.022	726.326
282.614	25.570	898.799	722.470
283.628	25.645	898.241	722.258
284.643	25.960	897.881	723.167
285.657	25.647	896.687	720.888
286.672	25.306	895.790	718.737
287.687	25.909	895.968	721.232
288.701	25.958	895.640	721.101
289.716	25.698	894.550	719.122
290.730	25.607	893.991	718.241
291.745	25.301	893.199	716.325
292.760	25.558	892.777	716.947
293.774	26.505	893.611	721.327
294.789	26.845	893.243	722.325
295.803	26.945	892.568	722.111
296.818	26.883	892.056	721.388
297.833	26.448	890.609	718.427
298.847	26.289	889.929	717.183
299.862	26.514	889.907	717.992
300.876	26.871	889.466	718.990
301.891	26.774	888.648	717.880
302.906	26.427	887.502	715.518
303.920	26.493	887.500	715.713
304.935	26.972	887.311	717.392
305.949	26.757	886.526	715.846
306.964	26.628	885.411	714.374
307.979	26.712	884.854	714.192
308.993	27.000	885.196	715.538
310.008	27.093	884.420	715.214
311.022	26.668	883.678	712.877
312.037	26.639	882.707	711.918
313.052	26.369	881.632	709.928
314.066	25.391	880.372	705.015
315.081	25.086	879.658	703.184
316.095	26.027	879.900	707.005
317.110	26.462	879.639	708.438
318.125	25.701	878.028	704.101
319.139	24.573	876.724	698.584
320.154	24.498	876.549	698.090
321.168	25.596	876.568	702.334
322.183	26.175	876.918	704.812
323.197	26.389	876.607	705.336
324.212	26.679	875.987	705.906
325.227	26.625	875.789	705.472
326.241	26.588	874.734	704.418
327.256	26.455	874.294	703.484
328.270	26.315	873.682	702.382
329.285	26.086	872.710	700.652
330.300	26.065	871.909	699.866
331.314	26.213	871.601	700.130
332.329	26.512	872.273	701.768
333.343	26.879	871.374	702.401
334.358	26.744	870.914	701.446
335.373	26.866	870.342	701.396
336.387	27.064	870.510	702.234
337.402	27.057	870.441	702.090
338.416	27.115	870.181	702.041
339.431	27.243	869.571	701.983
340.446	27.435	869.418	702.538
341.460	27.238	868.980	701.362
342.475	27.129	868.131	700.196
343.489	27.124	867.741	699.801
344.504	27.473	867.592	700.959
345.519	27.544	867.060	700.741
346.533	27.711	866.664	701.002
347.548	27.535	866.382	700.034
348.562	27.579	865.580	699.495
349.577	27.570	864.853	698.811
350.592	27.535	864.158	698.054
351.606	27.548	863.518	697.524
352.621	27.323	862.579	695.845
353.635	27.235	861.778	694.798
354.650	26.626	860.375	691.283
355.665	25.700	858.911	686.516
356.679	26.167	858.472	687.885
357.694	26.732	857.915	689.527
358.708	26.508	857.391	688.193
359.723	26.949	857.188	689.643
360.738	27.040	857.362	690.070
361.752	27.293	856.701	690.435
362.767	27.723	856.135	691.548
363.781	27.916	855.930	692.055
364.796	27.973	855.627	691.966
365.810	27.940	855.462	691.647
366.825	27.987	854.855	691.270
367.840	27.672	853.689	689.078
368.854	27.156	853.091	686.584
369.869	27.335	852.454	686.687
370.883	27.442	851.922	686.602
371.898	27.249	852.095	685.952
372.913	27.312	851.406	685.574
373.927	27.371	850.871	685.304
374.942	27.449	850.498	685.235
375.956	27.669	850.082	685.668
376.971	27.589	849.713	685.011
377.986	27.970	849.517	686.222
379.000	27.831	848.790	685.051
380.015	27.721	848.104	684.024
381.029	27.692	847.368	683.262
382.044	27.908	846.832	683.578
383.059	28.020	846.059	683.311
384.073	27.899	845.712	682.519
385.088	27.945	844.924	681.993
386.102	27.848	844.277	681.050
387.117	27.629	843.563	679.599
388.132	27.327	842.593	677.634
389.146	26.729	841.557	674.516
390.161	27.144	841.734	676.139
391.175	27.595	841.827	677.834
392.190	27.231	840.795	675.589
393.205	25.895	838.440	668.685
394.219	24.397	836.372	661.427
395.234	24.139	836.632	660.619
396.248	25.825	837.950	667.856
397.263	27.344	838.715	674.038
398.278	27.263	838.220	673.281
399.292	27.140	837.660	672.317
400.307	27.053	837.138	671.518
401.321	27.095	836.859	671.387
402.336	27.587	836.705	673.023
403.350	28.079	836.666	674.747
404.365	28.218	836.564	675.119
405.380	28.519	836.236	675.904
406.394	28.583	835.536	675.514
407.409	28.553	835.146	675.029
408.423	28.533	834.556	674.417
409.438	28.497	834.454	674.144
410.453	28.593	833.934	674.017
411.467	28.534	833.112	673.077
412.482	28.515	832.836	672.724
413.496	28.652	832.412	672.823
414.511	28.527	832.040	672.007
415.526	28.589	831.437	671.688
416.540	28.510	830.729	670.765
417.555	28.271	829.979	669.227
418.569	28.274	829.807	669.040
419.584	28.226	829.113	668.246
420.599	28.123	828.514	667.331
421.613	96.542	1269.983	1387.341
422.628	83.459	1334.315	1387.456
