DTS Sentinel unit serial number:	SN413079Multiplexer serial number:	ORYXHardware model number:	OX4-SRSoftware version number:	ORYX F/W v4.00 Oryx Data Collector v3.7.2.0data status	okinstallation	princeton_trtdifferential loss correction	single-endedforward channel	channel 1reverse channel	N/Adate	2019/09/12time	22:34:35forward acquisition time	60.00reverse acquisition time	0.00gamma	496.2192k internal	0.2327k external	0.2327temperature offset calibration	1.0150default loss term (dB/km)	0.3790temperature slope calibration	1.0000multiplexer offset coefficient	1.0000multiplexer slope coefficient	1.0000fibre end	0.00T internal ref (°C)	29.62T ext. ref 1 (°C)	3.74T ext. ref 2 (°C)	24.25length (m)	temperature (°C)	Stokes	anti-Stokes-747.200	667.987	-0.059	0.153
-746.185	-119.842	-0.451	-0.078
-745.171	-19.253	-0.091	0.057
-744.156	800.000	-0.141	0.415
-743.142	-62.719	-0.088	-0.037
-742.127	-53.988	-0.278	0.128
-741.112	322.576	-0.038	-0.073
-740.098	800.000	-0.066	-0.244
-739.083	-24.509	0.282	-0.169
-738.069	11.701	0.110	0.085
-737.054	-42.628	0.172	-0.088
-736.039	216.332	-0.032	-0.051
-735.025	289.717	0.090	0.165
-734.010	-21.199	0.091	0.056
-732.996	-200.000	0.036	-0.181
-731.981	-62.526	-0.226	0.094
-730.966	396.827	0.091	-0.192
-729.952	-144.008	-0.297	-0.028
-728.937	800.000	0.075	-0.293
-727.923	-95.350	-0.127	0.034
-726.908	-200.000	-0.008	0.303
-725.894	-39.332	-0.218	-0.115
-724.879	-164.022	-0.252	0.012
-723.864	167.813	-0.161	-0.231
-722.850	156.275	-0.092	-0.128
-721.835	92.701	0.059	0.068
-720.821	-2.691	-0.080	0.057
-719.806	-37.074	-0.365	-0.197
-718.791	4.699	-0.297	-0.220
-717.777	90.644	0.186	0.210
-716.762	-68.613	-0.188	-0.073
-715.748	269.398	0.090	0.159
-714.733	470.066	0.072	-0.163
-713.718	159.875	-0.147	-0.206
-712.704	-78.219	-0.307	-0.106
-711.689	-117.371	0.052	-0.010
-710.675	-128.400	0.261	-0.037
-709.660	560.959	-0.107	0.259
-708.645	-200.000	0.008	0.220
-707.631	800.000	-0.033	-0.100
-706.616	-12.633	0.095	0.062
-705.602	2.819	0.039	0.029
-704.587	244.735	0.093	0.158
-703.572	-138.152	-0.274	0.031
-702.558	-200.000	-0.012	0.155
-701.543	-139.807	0.297	-0.032
-700.529	-200.000	0.015	-0.275
-699.514	-61.584	-0.184	0.078
-698.499	-94.228	0.134	-0.037
-697.485	165.584	-0.074	-0.106
-696.470	418.330	-0.150	0.323
-695.456	464.912	-0.065	0.146
-694.441	800.000	0.117	0.367
-693.426	-26.402	0.081	0.048
-692.412	800.000	0.009	-0.026
-691.397	96.163	-0.296	-0.340
-690.383	214.914	-0.156	-0.250
-689.368	216.150	0.139	-0.222
-688.354	92.586	-0.079	-0.089
-687.339	-200.000	-0.046	-0.343
-686.324	31.884	-0.072	-0.062
-685.310	30.715	-0.352	-0.303
-684.295	-95.606	-0.055	-0.015
-683.281	-49.384	-0.100	0.048
-682.266	800.000	-0.105	-0.367
-681.251	-200.000	-0.024	-0.359
-680.237	-200.000	0.006	-0.106
-679.222	-200.000	0.000	0.053
-678.208	28.973	-0.117	0.100
-677.193	-154.636	-0.184	-0.012
-676.178	-55.913	-0.091	-0.041
-675.164	-25.402	0.036	0.021
-674.149	24.643	0.313	-0.261
-673.135	-15.341	0.190	0.122
-672.120	452.220	0.064	0.141
-671.105	-200.000	0.044	0.203
-670.091	-200.000	-0.015	-0.100
-669.076	40.348	-0.136	0.123
-668.062	-142.846	-0.106	-0.010
-667.047	-29.160	-0.258	-0.149
-666.032	114.319	-0.173	0.212
-665.018	-125.223	0.268	-0.041
-664.003	-87.911	0.173	0.052
-662.989	175.772	-0.075	0.109
-661.974	147.919	0.025	-0.034
-660.959	-200.000	0.002	0.058
-659.945	-50.013	0.323	0.154
-658.930	104.227	-0.212	0.250
-657.916	-39.210	0.129	-0.068
-656.901	-92.303	-0.029	0.008
-655.886	553.109	-0.215	-0.519
-654.872	-18.103	-0.333	0.209
-653.857	-78.849	-0.070	0.024
-652.843	-166.159	-0.404	0.017
-651.828	-200.000	-0.047	-0.326
-650.814	58.452	0.241	0.238
-649.799	-68.475	-0.287	0.112
-648.784	74.625	-0.260	-0.274
-647.770	-200.000	-0.021	0.112
-646.755	-200.000	-0.032	0.207
-645.741	800.000	0.035	0.105
-644.726	800.000	0.041	-0.125
-643.711	387.729	0.022	0.046
-642.697	168.258	0.079	-0.114
-641.682	-200.000	0.005	-0.159
-640.668	800.000	-0.019	0.066
-639.653	-200.000	0.001	-0.251
-638.638	-200.000	0.025	0.148
-637.624	800.000	0.066	0.193
-636.609	-88.059	-0.222	0.067
-635.595	-73.367	-0.239	0.088
-634.580	316.222	0.219	0.416
-633.565	-193.461	-0.268	-0.002
-632.551	49.677	0.121	0.114
-631.536	-113.222	-0.193	0.038
-630.522	209.089	-0.223	-0.351
-629.507	266.287	-0.054	-0.094
-628.492	581.748	-0.022	-0.055
-627.478	-152.364	0.034	-0.002
-626.463	-200.000	0.032	0.244
-625.449	212.557	-0.025	0.039
-624.434	-191.152	0.073	-0.001
-623.419	-94.335	-0.152	0.042
-622.405	-45.171	-0.108	-0.054
-621.390	-67.108	-0.347	-0.137
-620.376	7.251	-0.050	0.037
-619.361	-200.000	-0.032	-0.181
-618.346	-200.000	0.046	-0.208
-617.332	33.145	-0.177	0.154
-616.317	71.514	-0.085	0.089
-615.303	-67.836	0.194	0.076
-614.288	313.725	0.139	0.262
-613.273	-200.000	-0.035	-0.217
-612.259	-72.957	0.314	-0.116
-611.244	343.576	0.014	-0.027
-610.230	91.882	-0.060	-0.068
-609.215	-24.413	0.275	-0.165
-608.201	-90.135	0.260	0.076
-607.186	232.950	-0.157	0.258
-606.171	7.393	-0.164	-0.123
-605.157	-43.087	0.326	0.166
-604.142	-7.327	-0.195	-0.133
-603.128	-168.855	0.306	-0.012
-602.113	-200.000	0.017	-0.365
-601.098	41.333	0.176	-0.160
-600.084	141.618	0.211	0.280
-599.069	171.607	-0.103	-0.148
-598.055	-197.686	-0.071	0.000
-597.040	-19.478	0.228	-0.142
-596.025	800.000	-0.039	-0.140
-595.011	721.292	0.074	0.198
-593.996	129.802	0.250	-0.320
-592.982	45.882	-0.195	-0.180
-591.967	-114.593	0.340	0.065
-590.952	-200.000	0.040	0.321
-589.938	457.485	0.144	-0.321
-588.923	322.276	-0.048	-0.091
-587.909	376.834	0.092	-0.189
-586.894	-125.465	0.104	0.016
-585.879	0.170	0.316	-0.226
-584.865	-200.000	0.027	-0.362
-583.850	-86.513	0.138	-0.042
-582.836	157.068	0.139	0.192
-581.821	-200.000	-0.025	0.147
-580.806	44.345	0.180	-0.166
-579.792	-200.000	0.001	0.146
-578.777	800.000	0.046	-0.154
-577.763	800.000	0.058	-0.192
-576.748	76.446	-0.329	0.349
-575.733	58.186	0.203	-0.199
-574.719	8.519	-0.186	0.140
-573.704	118.925	-0.169	0.209
-572.690	500.775	0.085	-0.196
-571.675	547.302	-0.092	0.221
-570.661	87.977	0.067	-0.074
-569.646	-80.901	0.053	0.018
-568.631	800.000	-0.047	-0.180
-567.617	-82.977	0.075	-0.024
-566.602	-200.000	-0.044	-0.360
-565.588	12.813	0.216	-0.167
-564.573	415.609	0.108	0.230
-563.558	84.467	-0.097	0.106
-562.544	30.449	0.204	-0.175
-561.529	81.380	0.195	-0.211
-560.515	37.945	0.202	-0.179
-559.500	594.225	0.035	0.086
-558.485	-93.450	0.200	-0.056
-557.471	18.007	0.199	0.159
-556.456	108.709	-0.042	0.050
-555.442	242.050	-0.221	-0.370
-554.427	-200.000	-0.052	0.267
-553.412	-88.642	-0.302	0.090
-552.398	121.113	0.186	-0.232
-551.383	800.000	-0.089	0.291
-550.369	166.642	-0.224	-0.318
-549.354	-75.907	-0.281	0.100
-548.339	8.434	0.174	0.131
-547.325	-44.220	-0.049	-0.025
-546.310	142.841	-0.194	0.258
-545.296	-128.704	-0.710	0.100
-544.281	346.314	-0.052	-0.103
-543.266	-127.246	-0.068	0.010
-542.252	-126.781	-0.105	0.015
-541.237	45.097	0.291	0.268
-540.223	-73.562	-0.206	-0.075
-539.208	-121.037	-0.073	0.012
-538.193	97.740	-0.059	0.067
-537.179	-65.295	-0.331	-0.133
-536.164	552.701	-0.058	0.139
-535.150	-20.566	0.315	-0.193
-534.135	306.145	0.130	-0.242
-533.121	800.000	-0.077	0.258
-532.106	144.954	0.255	0.341
-531.091	624.641	-0.011	0.028
-530.077	-34.926	-0.067	-0.037
-529.062	-200.000	-0.123	0.000
-528.048	332.475	0.043	-0.084
-527.033	74.643	0.278	-0.293
-526.018	-144.057	0.045	-0.004
-525.004	-200.000	-0.014	-0.192
-523.989	30.199	-0.269	0.230
-522.975	-23.774	0.065	0.039
-521.960	318.386	-0.062	-0.117
-520.945	-77.596	0.114	0.039
-519.931	248.464	-0.077	0.130
-518.916	718.228	0.102	-0.270
-517.902	-81.930	0.168	-0.055
-516.887	-116.204	0.445	0.082
-515.872	800.000	0.011	-0.045
-514.858	-13.034	-0.061	-0.040
-513.843	-200.000	0.065	0.402
-512.829	-178.537	-0.039	-0.001
-511.814	-40.117	-0.232	-0.121
-510.799	-94.439	0.215	-0.059
-509.785	28.101	0.195	0.164
-508.770	62.782	0.032	0.032
-507.756	390.864	-0.023	-0.049
-506.741	-145.315	-0.217	0.020
-505.726	-146.438	-0.110	-0.010
-504.712	-170.479	0.221	0.008
-503.697	723.373	-0.101	-0.268
-502.683	-166.024	-0.098	-0.004
-501.668	466.917	-0.008	-0.019
-500.653	84.741	-0.239	0.261
-499.639	134.055	-0.228	0.295
-498.624	-3.823	0.028	-0.019
-497.610	-60.420	-0.271	-0.115
-496.595	-27.445	0.156	0.091
-495.581	143.664	0.115	-0.152
-494.566	20.560	-0.164	-0.132
-493.551	-11.064	0.224	-0.147
-492.537	58.140	0.110	0.108
-491.522	486.167	-0.162	0.369
-490.508	88.781	0.312	0.346
-489.493	126.026	0.134	-0.169
-488.478	782.277	0.031	0.086
-487.464	613.744	0.042	0.104
-486.449	-200.000	-0.007	-0.081
-485.435	-11.212	-0.297	-0.195
-484.420	-36.606	0.144	-0.077
-483.405	713.989	-0.057	-0.150
-482.391	79.961	-0.186	-0.200
-481.376	-95.479	0.083	-0.022
-480.362	-28.923	-0.170	-0.097
-479.347	25.695	-0.108	-0.090
-478.332	151.838	-0.181	-0.246
-477.318	-68.527	0.130	0.050
-476.303	447.763	-0.042	0.091
-475.289	-13.381	0.198	-0.128
-474.274	274.907	-0.136	0.240
-473.259	-200.000	0.006	-0.036
-472.245	-36.372	0.126	0.068
-471.230	340.003	0.120	0.233
-470.216	510.308	-0.046	-0.108
-469.201	7.357	-0.128	-0.095
-468.186	639.004	0.129	-0.326
-467.172	74.360	-0.050	0.053
-466.157	535.238	0.037	-0.086
-465.143	-164.346	-0.064	-0.003
-464.128	-88.221	0.152	0.045
-463.113	800.000	0.088	-0.269
-462.099	-55.497	-0.306	0.137
-461.084	-153.858	0.330	0.022
-460.070	-200.000	-0.013	0.254
-459.055	334.330	-0.104	0.201
-458.040	-14.928	0.067	-0.043
-457.026	-42.748	-0.080	0.041
-456.011	76.979	-0.134	0.142
-454.997	-200.000	-0.019	0.094
-453.982	-137.563	-0.071	-0.008
-452.968	-200.000	-0.024	-0.317
-451.953	53.671	-0.010	0.010
-450.938	-44.245	-0.167	0.084
-449.924	-200.000	0.034	-0.448
-448.909	-73.037	0.255	-0.093
-447.895	101.913	0.063	-0.073
-446.880	-34.490	-0.340	-0.185
-445.865	98.531	-0.068	0.078
-444.851	-200.000	0.048	-0.297
-443.836	-200.000	0.026	0.160
-442.822	-97.328	-0.299	-0.078
-441.807	-87.342	0.150	0.045
-440.792	143.203	0.012	0.017
-439.778	179.879	-0.046	-0.067
-438.763	271.635	-0.137	-0.241
-437.749	-200.000	-0.070	-0.411
-436.734	239.823	-0.088	-0.146
-435.719	-82.242	-0.132	-0.043
-434.705	-41.793	-0.272	0.139
-433.690	-5.959	0.155	-0.106
-432.676	39.499	0.027	0.024
-431.661	-64.072	-0.030	0.012
-430.646	-124.450	-0.035	0.005
-429.632	-133.770	-0.068	-0.008
-428.617	-200.000	-0.014	0.144
-427.603	-200.000	-0.033	-0.342
-426.588	-200.000	-0.012	-0.143
-425.573	112.177	-0.272	-0.327
-424.559	-112.232	-0.232	-0.046
-423.544	295.554	-0.032	-0.058
-422.530	12.698	0.052	0.040
-421.515	-102.938	-0.239	-0.057
-420.500	-58.682	-0.126	0.054
-419.486	-110.152	0.162	-0.034
-418.471	-200.000	0.017	-0.190
-417.457	398.547	0.042	0.088
-416.442	18.465	0.109	-0.087
-415.428	68.512	-0.116	-0.118
-414.413	45.558	-0.165	0.152
-413.398	-53.697	0.186	-0.085
-412.384	661.421	-0.098	0.252
-411.369	-200.000	0.010	0.077
-410.355	-143.156	0.365	0.035
-409.340	-118.886	-0.187	-0.033
-408.325	-200.000	0.043	-0.439
-407.311	-138.524	0.254	-0.028
-406.296	-42.550	0.232	0.117
-405.282	270.345	0.096	0.168
-404.267	-93.872	0.289	0.079
-403.252	-45.717	-0.191	-0.094
-402.238	800.000	-0.136	0.444
-401.223	-130.530	0.468	-0.063
-400.209	234.855	-0.230	-0.378
-399.194	285.114	-0.059	0.106
-398.179	-41.157	0.170	0.087
-397.165	-118.976	-0.306	-0.053
-396.150	419.942	0.198	-0.423
-395.136	478.438	-0.077	0.173
-394.121	-200.000	0.024	-0.156
-393.106	-191.859	-0.276	-0.003
-392.092	-97.243	0.113	-0.029
-391.077	160.671	-0.025	0.035
-390.063	-200.000	0.062	0.283
-389.048	-8.598	-0.154	-0.103
-388.033	243.205	-0.139	-0.232
-387.019	47.661	-0.206	0.191
-386.004	335.257	-0.013	-0.025
-384.990	-116.534	0.346	-0.063
-383.975	-39.698	-0.232	-0.120
-382.960	-77.375	-0.539	-0.186
-381.946	43.181	0.051	0.046
-380.931	123.469	-0.216	0.270
-379.917	-28.448	0.255	0.146
-378.902	504.727	-0.159	-0.366
-377.888	-51.692	0.465	0.215
-376.873	69.551	-0.365	-0.374
-375.858	182.077	0.206	0.301
-374.844	-114.719	0.471	-0.089
-373.829	270.369	-0.276	-0.483
-372.815	800.000	-0.092	-0.308
-371.800	254.711	-0.039	-0.066
-370.785	-100.062	-0.383	0.095
-369.771	16.175	-0.246	-0.193
-368.756	-130.193	0.134	-0.018
-367.742	338.954	-0.029	-0.055
-366.727	55.350	-0.084	0.081
-365.712	53.026	-0.063	0.060
-364.698	-200.000	-0.029	0.147
-363.683	-53.641	-0.083	-0.038
-362.669	-200.000	-0.009	0.059
-361.654	348.079	-0.051	-0.100
-360.639	-80.910	0.111	-0.037
-359.625	800.000	-0.070	0.211
-358.610	-66.321	0.353	-0.139
-357.596	27.883	0.382	-0.319
-356.581	800.000	0.003	0.010
-355.566	51.477	-0.236	0.223
-354.552	-170.773	0.226	-0.008
-353.537	-103.170	-0.221	-0.052
-352.523	-45.330	0.115	0.057
-351.508	-172.902	0.235	-0.007
-350.493	-62.266	0.212	-0.088
-349.479	-162.862	0.194	0.009
-348.464	-68.792	0.236	0.090
-347.450	561.692	0.004	0.009
-346.435	-39.611	0.275	0.143
-345.420	800.000	-0.056	0.206
-344.406	-125.810	-0.255	0.038
-343.391	92.684	-0.067	-0.076
-342.377	-40.788	0.158	0.081
-341.362	24.565	0.115	-0.094
-340.348	-200.000	-0.002	0.138
-339.333	0.592	0.289	0.205
-338.318	-152.039	-0.228	0.016
-337.304	-200.000	-0.033	0.177
-336.289	-80.790	-0.394	-0.130
-335.275	219.797	0.189	-0.301
-334.260	800.000	0.017	0.053
-333.245	27.911	-0.076	0.064
-332.231	-124.646	0.308	-0.047
-331.216	-200.000	-0.052	0.263
-330.202	-64.335	0.145	0.058
-329.187	-200.000	0.040	0.455
-328.172	-101.656	-0.149	0.036
-327.158	-102.512	-0.225	-0.053
-326.143	-184.217	-0.153	0.003
-325.129	-200.000	-0.044	-0.304
-324.114	2.376	-0.241	-0.173
-323.099	800.000	0.048	-0.177
-322.085	800.000	-0.073	0.231
-321.070	210.592	-0.127	-0.198
-320.056	83.883	-0.139	0.150
-319.041	-200.000	0.079	-0.351
-318.026	800.000	-0.016	0.047
-317.012	-174.170	-0.204	-0.006
-315.997	3.398	0.266	-0.192
-314.983	151.607	0.151	-0.204
-313.968	800.000	-0.087	-0.317
-312.953	-126.605	-0.077	0.011
-311.939	-200.000	-0.023	-0.135
-310.924	-22.629	0.274	0.164
-309.910	-200.000	0.014	0.156
-308.895	275.716	-0.143	0.252
-307.880	800.000	0.044	0.166
-306.866	-200.000	0.025	-0.138
-305.851	-46.536	0.188	-0.091
-304.837	-29.004	-0.121	0.069
-303.822	-132.614	0.290	-0.037
-302.807	144.623	0.090	0.119
-301.793	796.946	-0.055	-0.151
-300.778	28.591	-0.132	0.111
-299.764	-200.000	0.009	0.096
-298.749	-71.114	-0.219	0.082
-297.735	-124.571	-0.043	0.007
-296.720	166.117	0.089	-0.125
-295.705	22.498	0.118	-0.095
-294.691	40.285	0.071	-0.064
-293.676	-200.000	0.017	0.353
-292.662	-40.243	0.118	0.061
-291.647	571.902	0.140	-0.338
-290.632	-48.538	0.254	0.121
-289.618	800.000	0.083	0.242
-288.603	800.000	-0.071	0.304
-287.589	287.514	-0.186	0.332
-286.574	-137.603	-0.327	-0.037
-285.559	-73.233	0.372	-0.135
-284.545	800.000	0.090	0.337
-283.530	-200.000	0.002	0.213
-282.516	-115.058	0.192	0.036
-281.501	-3.919	-0.418	-0.287
-280.486	78.869	0.063	0.067
-279.472	-200.000	-0.007	-0.197
-278.457	168.305	-0.134	0.189
-277.443	-200.000	0.002	0.324
-276.428	-63.437	-0.237	0.096
-275.413	33.925	0.098	-0.084
-274.399	-87.378	-0.192	-0.058
-273.384	190.874	0.060	-0.089
-272.370	-26.982	0.370	0.214
-271.355	-56.614	-0.220	-0.096
-270.340	192.740	-0.129	-0.192
-269.326	-200.000	-0.017	0.300
-268.311	-200.000	-0.008	0.118
-267.297	800.000	-0.063	-0.253
-266.282	18.542	-0.210	-0.166
-265.267	-131.215	-0.137	0.018
-264.253	410.513	0.131	-0.275
-263.238	7.784	-0.098	0.073
-262.224	800.000	0.085	-0.247
-261.209	223.502	-0.082	-0.131
-260.195	21.315	0.052	-0.042
-259.180	796.172	0.124	-0.338
-258.165	-79.831	0.085	-0.028
-257.151	-20.057	0.123	-0.075
-256.136	38.101	-0.299	0.263
-255.122	182.332	0.027	0.040
-254.107	-200.000	-0.018	-0.093
-253.092	-21.893	0.107	-0.064
-252.078	-200.000	-0.018	-0.209
-251.063	-14.644	-0.303	0.193
-250.049	-200.000	0.055	-0.386
-249.034	-25.957	0.139	-0.081
-248.019	210.259	0.032	-0.050
-247.005	226.945	-0.056	0.090
-245.990	-50.360	-0.198	-0.093
-244.976	608.569	0.101	0.249
-243.961	-18.916	0.308	-0.190
-242.946	-110.532	-0.254	0.052
-241.932	800.000	-0.069	-0.204
-240.917	163.179	0.039	-0.054
-239.903	-94.703	-0.119	0.032
-238.888	-89.087	-0.079	-0.023
-237.873	-133.596	-0.310	0.038
-236.859	695.296	-0.054	0.141
-235.844	800.000	-0.036	0.116
-234.830	15.068	-0.141	0.109
-233.815	202.098	0.066	0.101
-232.800	-117.144	-0.070	0.013
-231.786	-200.000	0.020	0.090
-230.771	-200.000	-0.030	0.303
-229.757	-200.000	-0.015	0.085
-228.742	-139.639	0.129	-0.014
-227.727	-200.000	0.058	0.304
-226.713	-159.519	-0.062	-0.003
-225.698	-72.129	0.037	0.014
-224.684	-65.178	-0.165	-0.066
-223.669	-200.000	-0.011	0.113
-222.655	-200.000	-0.017	0.166
-221.640	672.469	-0.136	0.349
-220.625	-27.990	0.059	-0.034
-219.611	-76.985	0.111	0.038
-218.596	-123.649	0.066	-0.010
-217.582	206.180	0.084	0.129
-216.567	-20.135	-0.126	-0.077
-215.552	97.781	0.290	0.330
-214.538	800.000	-0.123	0.341
-213.523	337.515	0.057	0.109
-212.509	363.872	0.085	0.169
-211.494	-200.000	-0.012	0.204
-210.479	-200.000	0.028	0.280
-209.465	58.224	-0.256	-0.248
-208.450	38.298	0.076	-0.067
-207.436	-141.842	0.102	-0.010
-206.421	-71.668	-0.104	-0.038
-205.406	14.859	-0.107	-0.083
-204.392	371.288	0.048	-0.097
-203.377	92.638	-0.210	0.234
-202.363	33.696	-0.112	-0.096
-201.348	-200.000	-0.019	-0.181
-200.333	-8.964	0.128	0.084
-199.319	7.871	0.170	0.126
-198.304	-32.149	0.335	0.185
-197.290	484.771	-0.104	0.233
-196.275	-200.000	0.019	0.125
-195.260	-13.055	0.262	-0.168
-194.246	-178.796	0.179	-0.004
-193.231	246.084	-0.079	-0.131
-192.217	800.000	-0.009	0.030
-191.202	24.744	-0.151	0.124
-190.187	-70.842	-0.215	-0.080
-189.173	237.898	0.127	-0.209
-188.158	-129.326	0.201	-0.028
-187.144	-200.000	-0.023	0.364
-186.129	-200.000	-0.034	-0.287
-185.114	-29.460	0.136	0.077
-184.100	-130.930	0.174	0.023
-183.085	-200.000	-0.013	0.077
-182.071	89.929	0.083	0.091
-181.056	-200.000	-0.009	-0.188
-180.042	479.528	-0.027	0.061
-179.027	733.524	-0.111	0.294
-178.012	-200.000	0.046	0.272
-176.998	227.590	-0.247	0.397
-175.983	-71.782	-0.240	0.088
-174.969	300.239	0.085	0.154
-173.954	-82.029	0.287	0.093
-172.939	705.910	-0.020	-0.053
-171.925	83.572	0.163	-0.175
-170.910	-112.368	0.315	-0.062
-169.896	233.526	-0.118	-0.191
-168.881	-80.452	0.474	0.156
-167.866	-200.000	0.036	0.320
-166.852	-200.000	0.008	0.275
-165.837	-200.000	-0.032	0.249
-164.823	125.603	-0.046	0.058
-163.808	169.746	0.200	0.282
-162.793	-200.000	-0.023	-0.443
-161.779	258.205	-0.205	0.348
-160.764	3.841	0.255	-0.183
-159.750	-47.632	-0.264	0.126
-158.735	-59.779	-0.113	0.048
-157.720	800.000	-0.016	0.062
-156.706	-66.714	0.330	-0.129
-155.691	90.577	0.119	0.131
-154.677	48.910	0.284	0.263
-153.662	-200.000	-0.000	-0.077
-152.647	-113.154	-0.090	-0.017
-151.633	800.000	-0.034	-0.144
-150.618	-29.867	-0.060	0.034
-149.604	-92.548	0.267	0.074
-148.589	-13.364	0.250	0.160
-147.574	90.197	0.152	0.167
-146.560	-182.749	0.094	0.002
-145.545	-61.638	-0.446	-0.184
-144.531	243.031	0.048	0.079
-143.516	800.000	0.119	-0.441
-142.502	-127.525	-0.205	-0.029
-141.487	-101.000	-0.092	-0.022
-140.472	521.075	-0.063	-0.145
-139.458	-39.119	0.208	0.108
-138.443	4.651	-0.178	0.129
-137.429	-200.000	0.104	0.508
-136.414	-23.440	-0.075	-0.044
-135.399	183.190	0.062	-0.090
-134.385	43.575	0.016	0.014
-133.370	-200.000	0.003	-0.084
-132.356	2.245	0.256	-0.182
-131.341	4.300	-0.094	-0.068
-130.326	111.670	-0.229	0.272
-129.312	606.942	-0.120	0.295
-128.297	77.673	0.058	-0.060
-127.283	221.206	-0.183	-0.289
-126.268	-23.525	0.194	0.115
-125.253	800.000	-0.030	-0.117
-124.239	652.458	0.139	-0.350
-123.224	-171.840	-0.351	0.011
-122.210	758.534	-0.058	-0.154
-121.195	-100.071	0.282	0.069
-120.180	-200.000	-0.025	-0.279
-119.166	47.182	-0.140	0.128
-118.151	-200.000	-0.026	0.404
-117.137	11.099	0.017	-0.013
-116.122	-200.000	0.059	-0.504
-115.107	44.467	-0.183	-0.166
-114.093	39.731	-0.040	-0.035
-113.078	61.426	-0.257	-0.252
-112.064	683.468	0.098	0.252
-111.049	-149.683	0.259	0.020
-110.034	-200.000	0.017	0.229
-109.020	800.000	-0.124	-0.380
-108.005	800.000	-0.112	-0.468
-106.991	-9.553	0.175	-0.115
-105.976	30.661	-0.309	-0.260
-104.962	278.725	-0.089	0.155
-103.947	-75.535	-0.165	0.058
-102.932	17.621	-0.078	0.061
-101.918	75.493	-0.196	0.204
-100.903	-200.000	-0.019	0.220
-99.889	-111.804	-0.096	-0.019
-98.874	-200.000	0.063	0.363
-97.859	233.647	0.163	-0.264
-96.845	-200.000	0.023	-0.175
-95.830	-159.950	0.099	-0.005
-94.816	78.478	-0.325	0.341
-93.801	171.686	-0.085	0.119
-92.786	269.212	0.044	0.077
-91.772	-38.620	-0.118	-0.061
-90.757	-66.924	0.245	-0.095
-89.743	-97.417	-0.128	-0.033
-88.728	-200.000	-0.015	-0.220
-87.713	44.741	0.106	-0.095
-86.699	398.142	-0.104	-0.214
-85.684	309.479	0.160	0.295
-84.670	55.702	-0.171	0.163
-83.655	-200.000	-0.016	-0.332
-82.640	-57.728	-0.117	0.050
-81.626	107.480	0.109	0.128
-80.611	711.313	-0.123	-0.320
-79.597	-200.000	0.002	-0.029
-78.582	-43.849	-0.254	0.126
-77.567	-121.737	0.105	0.017
-76.553	-147.637	0.198	0.016
-75.538	-178.136	0.316	0.007
-74.524	98.195	0.042	0.047
-73.509	-156.965	-0.359	0.022
-72.494	169.185	-0.143	-0.201
-71.480	800.000	-0.092	-0.363
-70.465	-188.711	0.368	0.004
-69.451	-99.061	-0.339	0.084
-68.436	64.884	0.260	0.258
-67.422	800.000	-0.022	-0.060
-66.407	73.075	-0.272	-0.279
-65.392	2.057	0.024	-0.017
-64.378	123.194	0.110	0.135
-63.363	-164.317	0.171	-0.008
-62.349	129.612	-0.151	-0.189
-61.334	48.821	-1.213	-1.118
-60.319	30.940	0.616	0.518
-59.305	639.617	-0.440	-1.098
-58.290	800.000	0.291	0.895
-57.276	800.000	0.446	1.616
-56.261	-200.000	107.963	596.287
-55.246	511.741	1484.050	3391.698
-54.232	180.612	2666.672	3842.001
-53.217	111.123	2148.062	2539.420
-52.203	40.971	1597.379	1415.250
-51.188	33.072	1337.568	1137.698
-50.173	30.011	1297.169	1085.387
-49.159	53.113	1351.115	1269.398
-48.144	53.829	1366.395	1287.986
-47.130	33.135	1321.186	1123.960
-46.115	29.694	1303.729	1088.838
-45.100	29.601	1298.487	1083.873
-44.086	29.568	1296.443	1081.927
-43.071	29.477	1294.030	1079.337
-42.057	29.480	1291.493	1077.196
-41.042	29.458	1290.282	1076.014
-40.027	29.501	1288.701	1074.903
-39.013	29.512	1286.460	1073.058
-37.998	29.595	1284.870	1072.172
-36.984	29.647	1282.616	1070.547
-35.969	29.639	1281.225	1069.300
-34.954	29.560	1279.901	1067.696
-33.940	29.618	1278.541	1066.853
-32.925	29.672	1277.029	1065.860
-31.911	29.722	1275.770	1065.054
-30.896	29.748	1274.092	1063.760
-29.881	29.669	1272.980	1062.338
-28.867	29.712	1271.755	1061.522
-27.852	29.821	1270.355	1060.936
-26.838	29.636	1269.086	1058.774
-25.823	29.595	1268.141	1057.706
-24.809	29.716	1266.525	1057.011
-23.794	29.678	1265.231	1055.671
-22.779	29.643	1263.736	1054.180
-21.765	29.708	1262.381	1053.380
-20.750	29.732	1261.119	1052.419
-19.736	29.616	1259.646	1050.488
-18.721	29.670	1258.411	1049.725
-17.706	29.598	1257.286	1048.340
-16.692	29.682	1256.165	1047.837
-15.677	29.635	1255.190	1046.717
-14.663	29.685	1253.560	1045.599
-13.648	29.685	1252.767	1044.896
-12.633	29.637	1252.025	1043.964
-11.619	29.448	1251.676	1042.563
-10.604	29.605	1250.731	1042.623
-9.590	29.452	1249.547	1040.729
-8.575	29.494	1248.221	1039.822
-7.560	29.576	1247.390	1039.548
-6.546	29.585	1246.860	1039.116
-5.531	29.496	1246.168	1038.001
-4.517	29.580	1245.287	1037.693
-3.502	29.533	1244.544	1036.774
-2.487	29.562	1243.411	1035.951
-1.473	29.595	1239.120	1032.517
-0.458	27.995	1224.035	1011.065
0.556	25.995	1206.047	972.199
1.571	22.005	1210.917	954.397
2.586	21.009	1224.744	959.733
3.600	20.538	1213.457	948.232
4.615	15.788	1142.995	868.625
5.629	7.674	1070.222	773.880
6.644	4.179	1051.003	743.179
7.659	3.736	1048.311	739.093
8.673	3.554	1047.175	737.355
9.688	3.504	1046.047	736.258
10.702	4.028	1044.044	737.279
11.717	9.075	1051.645	766.742
12.731	17.642	1063.020	816.165
13.746	22.669	1069.293	845.065
14.761	23.498	1070.115	849.610
15.775	22.916	1068.605	845.551
16.790	22.083	1067.143	840.335
17.804	21.612	1065.844	836.989
18.819	21.398	1065.169	835.364
19.834	21.613	1064.652	835.907
20.848	21.766	1063.851	835.938
21.863	21.403	1063.613	833.943
22.877	21.265	1062.819	832.593
23.892	21.269	1061.566	831.555
24.907	21.204	1060.872	830.627
25.921	21.085	1059.859	829.197
26.936	21.098	1058.510	828.131
27.950	20.999	1057.473	826.774
28.965	21.073	1056.030	825.924
29.980	21.308	1054.383	825.675
30.994	21.536	1053.354	825.868
32.009	21.399	1052.710	824.646
33.023	21.467	1051.680	824.088
34.038	21.385	1050.291	822.537
35.053	21.126	1050.181	821.163
36.067	21.060	1048.913	819.790
37.082	21.286	1047.723	819.848
38.096	21.336	1047.569	819.886
39.111	21.249	1047.520	819.368
40.126	21.112	1045.709	817.238
41.140	20.794	1044.038	814.374
42.155	20.577	1042.459	812.057
43.169	20.493	1041.541	810.877
44.184	20.508	1040.696	810.217
45.199	20.616	1039.699	809.874
46.213	20.723	1039.147	809.868
47.228	21.149	1038.657	811.395
48.242	21.263	1037.581	811.013
49.257	21.239	1036.658	810.106
50.271	21.415	1035.965	810.308
51.286	21.306	1035.829	809.627
52.301	21.475	1034.309	809.149
53.315	21.222	1033.467	807.250
54.330	21.029	1032.150	805.257
55.344	20.835	1031.593	803.857
56.359	20.907	1030.472	803.245
57.374	20.855	1029.448	802.138
58.388	20.713	1028.758	800.875
59.403	20.620	1028.039	799.816
60.417	20.485	1027.470	798.684
61.432	20.614	1026.290	798.287
62.447	20.555	1025.304	797.180
63.461	20.352	1025.218	796.109
64.476	20.304	1024.026	794.895
65.490	20.341	1022.695	793.958
66.505	20.361	1022.587	793.898
67.520	20.413	1021.912	793.540
68.534	20.326	1020.800	792.210
69.549	20.345	1019.610	791.302
70.563	20.191	1019.030	790.080
71.578	19.965	1017.933	788.132
72.593	19.852	1017.195	786.977
73.607	20.085	1016.222	787.214
74.622	19.925	1016.144	786.356
75.636	20.154	1015.504	786.831
76.651	20.209	1014.721	786.403
77.666	20.117	1014.206	785.516
78.680	20.210	1013.409	785.254
79.695	20.188	1013.200	784.921
80.709	20.350	1012.790	785.266
81.724	20.564	1011.927	785.497
82.739	20.642	1011.572	785.502
83.753	21.137	1011.231	787.400
84.768	21.584	1011.031	789.192
85.782	21.698	1010.436	789.170
86.797	21.627	1009.092	787.734
87.812	21.468	1007.903	786.022
88.826	21.589	1007.232	785.971
89.841	21.489	1006.433	784.831
90.855	21.569	1005.401	784.315
91.870	21.714	1004.609	784.278
92.884	21.607	1003.803	783.100
93.899	21.616	1002.625	782.150
94.914	21.661	1001.656	781.528
95.928	21.690	1000.542	780.716
96.943	21.302	999.671	778.241
97.957	21.213	998.865	777.147
98.972	21.463	997.589	777.198
99.987	21.456	997.300	776.872
101.001	21.427	996.258	775.862
102.016	21.339	995.353	774.701
103.030	21.497	994.724	774.843
104.045	21.477	994.397	774.429
105.060	21.253	993.097	772.357
106.074	20.850	992.094	769.730
107.089	20.791	990.697	768.317
108.103	20.680	989.610	766.919
109.118	20.434	988.418	764.840
110.133	20.387	986.980	763.457
111.147	20.209	986.580	762.296
112.162	20.321	985.847	762.154
113.176	20.654	985.082	762.957
114.191	20.614	985.019	762.666
115.206	20.545	984.214	761.671
116.220	20.495	983.132	760.550
117.235	20.485	982.295	759.790
118.249	20.301	981.530	758.326
119.264	20.226	980.629	757.236
120.279	20.213	979.759	756.440
121.293	20.032	979.195	755.147
122.308	19.916	978.339	753.917
123.322	19.907	977.342	753.044
124.337	19.953	975.503	751.761
125.352	19.929	974.561	750.861
126.366	20.058	973.697	750.691
127.381	20.066	972.682	749.877
128.395	20.204	972.017	749.893
129.410	20.244	971.363	749.493
130.424	20.401	971.008	749.832
131.439	20.622	970.345	750.207
132.454	20.690	969.743	749.969
133.468	20.557	969.120	748.847
134.483	20.638	968.098	748.343
135.497	20.651	967.043	747.514
136.512	20.655	966.091	746.728
137.527	20.712	965.383	746.359
138.541	20.743	964.565	745.797
139.556	20.769	964.315	745.650
140.570	21.117	963.549	746.479
141.585	21.369	962.775	746.887
142.600	21.397	962.117	746.434
143.614	21.374	961.820	746.038
144.629	21.562	961.056	746.181
145.643	21.293	959.495	743.759
146.658	21.272	958.259	742.645
147.673	21.052	956.884	740.580
148.687	20.751	956.389	738.852
149.702	20.684	954.834	737.305
150.716	20.634	954.659	736.889
151.731	20.847	953.452	736.795
152.746	20.890	952.812	736.417
153.760	20.842	952.174	735.654
154.775	21.173	951.857	736.743
155.789	21.203	951.261	736.344
156.804	21.144	950.242	735.240
157.819	21.099	949.828	734.667
158.833	21.391	949.127	735.286
159.848	21.505	948.598	735.290
160.862	21.246	947.316	733.144
161.877	20.842	945.892	730.286
162.892	20.574	944.733	728.204
163.906	20.589	943.745	727.441
164.921	20.660	942.810	726.951
165.935	20.757	942.251	726.861
166.950	20.789	941.904	726.663
167.964	20.857	940.809	726.037
168.979	20.781	939.797	724.876
169.994	20.626	938.860	723.445
171.008	20.857	938.550	724.100
172.023	21.313	938.111	725.592
173.037	21.320	937.541	725.118
174.052	21.174	936.511	723.652
175.067	20.707	935.193	720.637
176.081	20.382	934.684	718.833
177.096	20.389	934.054	718.313
178.110	20.543	933.354	718.348
179.125	20.569	932.876	718.027
180.140	20.651	932.750	718.204
181.154	21.041	932.733	719.734
182.169	21.381	932.109	720.594
183.183	21.244	931.561	719.540
184.198	21.215	930.694	718.689
185.213	21.313	929.683	718.247
186.227	21.262	929.072	717.503
187.242	21.393	928.678	717.674
188.256	21.616	928.100	718.077
189.271	21.518	927.562	717.196
190.286	21.114	926.218	714.440
191.300	20.439	925.576	711.117
192.315	20.217	924.292	709.159
193.329	20.461	924.027	709.892
194.344	20.629	923.883	710.406
195.359	20.775	923.481	710.628
196.373	20.919	922.592	710.467
197.388	21.295	922.160	711.603
198.402	21.434	922.323	712.233
199.417	21.744	921.401	712.719
200.432	21.903	920.797	712.836
201.446	21.948	920.824	712.974
202.461	22.020	920.247	712.757
203.475	21.726	919.175	710.672
204.490	21.404	918.026	708.418
205.504	21.279	917.147	707.171
206.519	21.184	916.624	706.322
207.534	21.041	916.145	705.312
208.548	21.105	915.755	705.206
209.563	21.167	915.110	704.897
210.577	21.498	913.970	705.290
211.592	21.689	913.971	705.998
212.607	21.692	913.315	705.441
213.621	21.698	912.498	704.775
214.636	21.426	912.220	703.405
215.650	21.562	911.311	703.185
216.665	21.857	910.332	703.551
217.680	21.871	909.977	703.271
218.694	21.820	909.435	702.585
219.709	21.659	908.643	701.269
220.723	21.529	907.883	700.098
221.738	21.612	907.222	699.858
222.753	21.606	906.499	699.217
223.767	21.673	906.178	699.174
224.782	21.764	905.831	699.207
225.796	21.973	905.338	699.597
226.811	21.790	904.219	697.942
227.826	21.443	903.422	695.884
228.840	21.436	902.841	695.348
229.855	21.312	902.021	694.162
230.869	21.315	901.350	693.595
231.884	21.179	900.715	692.508
232.899	21.223	899.569	691.741
233.913	20.995	899.168	690.468
234.928	20.951	898.185	689.477
235.942	20.925	897.789	689.009
236.957	20.907	897.076	688.328
237.972	20.942	896.548	688.001
238.986	20.985	895.973	687.671
240.001	20.970	895.566	687.236
241.015	21.022	895.105	687.029
242.030	21.225	894.567	687.351
243.045	21.390	893.843	687.384
244.059	21.285	893.533	686.674
245.074	21.456	892.839	686.752
246.088	21.619	892.243	686.869
247.103	21.841	891.958	687.462
248.117	22.082	892.044	688.412
249.132	22.299	892.122	689.259
250.147	22.696	891.439	690.226
251.161	22.884	890.760	690.373
252.176	22.715	890.222	689.234
253.190	22.882	889.730	689.446
254.205	22.743	889.339	688.537
255.220	22.722	888.205	687.520
256.234	22.610	887.671	686.608
257.249	22.715	887.037	686.467
258.263	22.359	885.998	684.218
259.278	22.378	885.814	684.088
260.293	22.633	885.078	684.447
261.307	22.542	884.949	683.934
262.322	22.831	884.217	684.429
263.336	22.745	883.373	683.383
264.351	22.744	882.540	682.672
265.366	22.674	882.119	682.019
266.380	22.753	881.220	681.566
267.395	22.571	880.325	680.111
268.409	22.405	879.907	679.091
269.424	22.494	879.161	678.795
270.439	22.372	877.912	677.300
271.453	22.362	877.061	676.547
272.468	22.278	876.889	676.032
273.482	22.248	876.883	675.850
274.497	22.282	876.045	675.277
275.512	22.265	875.253	674.541
276.526	22.331	874.914	674.472
277.541	22.277	874.793	674.111
278.555	22.702	874.068	675.123
279.570	22.895	873.947	675.706
280.585	22.850	872.792	674.582
281.599	22.557	871.828	672.659
282.614	22.299	870.716	670.760
283.628	22.288	870.573	670.545
284.643	22.334	869.490	669.830
285.657	22.118	869.531	668.978
286.672	22.471	868.682	669.608
287.687	22.604	867.777	669.359
288.701	22.414	867.411	668.292
289.716	22.367	867.285	667.959
290.730	22.464	866.681	667.802
291.745	22.555	865.781	667.397
292.760	22.492	865.803	667.115
293.774	23.107	864.711	668.541
294.789	22.817	864.353	667.109
295.803	22.588	863.183	665.283
296.818	22.534	862.185	664.249
297.833	22.278	862.211	663.248
298.847	22.372	861.348	662.876
299.862	22.616	860.971	663.445
300.876	22.641	860.579	663.181
301.891	23.020	860.210	664.260
302.906	23.170	859.854	664.493
303.920	23.189	859.642	664.342
304.935	23.238	859.229	664.146
305.949	23.156	858.253	663.026
306.964	22.857	857.366	661.162
307.979	22.739	856.740	660.179
308.993	22.929	856.806	660.882
310.008	23.023	855.698	660.322
311.022	22.837	855.400	659.339
312.037	22.544	855.030	657.900
313.052	22.384	853.690	656.217
314.066	22.220	852.776	654.842
315.081	22.264	852.087	654.419
316.095	22.221	851.675	653.886
317.110	22.301	851.008	653.612
318.125	22.230	850.453	652.867
319.139	22.162	850.209	652.369
320.154	22.162	849.357	651.658
321.168	22.276	849.294	651.973
322.183	22.357	848.809	651.845
323.197	22.358	848.561	651.598
324.212	22.447	847.509	651.061
325.227	22.450	846.797	650.470
326.241	22.281	846.276	649.386
327.256	22.098	845.932	648.392
328.270	22.220	845.126	648.166
329.285	22.296	844.439	647.860
330.300	22.135	843.828	646.741
331.314	22.161	843.909	646.844
332.329	22.589	843.557	648.091
333.343	22.615	843.427	648.029
334.358	22.715	842.643	647.735
335.373	22.673	842.803	647.648
336.387	22.854	842.434	647.972
337.402	23.077	841.753	648.206
338.416	23.098	841.899	648.340
339.431	23.463	841.688	649.457
340.446	23.506	841.045	649.060
341.460	23.472	841.003	648.846
342.475	23.477	840.599	648.497
343.489	23.786	839.896	649.022
344.504	23.738	840.107	648.953
345.519	23.952	839.567	649.261
346.533	23.651	838.527	647.301
347.548	23.252	837.864	645.280
348.562	23.139	836.677	643.897
349.577	22.877	836.401	642.674
350.592	22.790	835.453	641.573
351.606	22.640	834.417	640.177
352.621	22.889	833.778	640.530
353.635	22.870	833.321	640.055
354.650	22.915	832.902	639.840
355.665	22.943	832.478	639.560
356.679	23.121	831.737	639.578
357.694	23.139	830.870	638.918
358.708	23.074	830.364	638.237
359.723	23.029	830.035	637.765
360.738	23.037	829.106	637.023
361.752	23.109	828.970	637.125
362.767	23.345	828.894	637.859
363.781	23.689	828.390	638.651
364.796	23.813	827.920	638.679
365.810	23.956	827.913	639.130
366.825	23.976	827.158	638.561
367.840	23.791	826.923	637.661
368.854	23.572	825.884	636.019
369.869	23.508	825.401	635.360
370.883	23.501	825.187	635.116
371.898	23.756	824.844	635.707
372.913	23.829	824.457	635.615
373.927	23.726	823.771	634.662
374.942	23.674	823.291	634.049
375.956	23.685	823.259	634.007
376.971	24.066	822.351	634.610
377.986	24.050	822.316	634.470
379.000	24.054	821.884	634.097
380.015	24.125	820.849	633.495
381.029	23.985	820.850	632.940
382.044	24.064	820.013	632.519
383.059	24.055	819.303	631.882
384.073	23.909	818.964	631.048
385.088	23.531	817.804	628.761
386.102	23.503	816.619	627.691
387.117	23.405	815.999	626.814
388.132	23.542	815.588	626.927
389.146	23.484	815.386	626.511
390.161	23.853	815.132	627.565
391.175	23.934	814.588	627.374
392.190	23.767	814.262	626.478
393.205	23.492	813.245	624.673
394.219	23.326	812.918	623.782
395.234	23.088	812.483	622.556
396.248	23.127	812.037	622.295
397.263	23.286	811.123	622.099
398.278	23.018	811.022	621.025
399.292	23.101	810.440	620.817
400.307	23.050	809.879	620.151
401.321	23.155	809.383	620.084
402.336	23.256	809.358	620.365
403.350	23.466	809.122	620.866
404.365	23.744	809.056	621.734
405.380	24.066	808.513	622.389
406.394	24.307	808.114	622.867
407.409	24.298	807.680	622.447
408.423	24.298	807.831	622.505
409.438	24.408	807.393	622.497
410.453	24.486	806.643	622.137
411.467	24.253	806.354	621.047
412.482	24.426	806.115	621.411
413.496	24.669	805.830	621.982
414.511	24.334	805.676	620.640
415.526	24.533	804.635	620.476
416.540	24.241	804.196	619.069
417.555	24.262	803.547	618.588
418.569	24.174	803.410	618.120
419.584	24.307	802.805	618.063
420.599	24.355	802.012	617.563
421.613	163.353	1371.411	1795.960
422.628	141.960	1454.364	1796.060
