DTS Sentinel unit serial number:	SN413079Multiplexer serial number:	ORYXHardware model number:	OX4-SRSoftware version number:	ORYX F/W v4.00 Oryx Data Collector v3.7.2.0data status	okinstallation	princeton_trtdifferential loss correction	single-endedforward channel	channel 1reverse channel	N/Adate	2019/09/12time	18:37:34forward acquisition time	15.00reverse acquisition time	0.00gamma	496.2192k internal	0.2318k external	0.2318temperature offset calibration	1.0112default loss term (dB/km)	0.3790temperature slope calibration	1.0000multiplexer offset coefficient	1.0000multiplexer slope coefficient	1.0000fibre end	0.00T internal ref (°C)	33.12T ext. ref 1 (°C)	2.96T ext. ref 2 (°C)	27.69length (m)	temperature (°C)	Stokes	anti-Stokes-747.200	-7.225	0.630	0.432
-746.185	67.167	0.458	-0.473
-745.171	-114.928	0.400	-0.077
-744.156	-200.000	-0.032	0.310
-743.142	328.649	0.238	-0.463
-742.127	-36.896	0.840	0.456
-741.112	-195.635	-0.523	-0.004
-740.098	-200.000	0.037	0.482
-739.083	-200.000	-0.011	-0.319
-738.069	800.000	0.072	-0.221
-737.054	-183.105	-0.771	-0.014
-736.039	-200.000	0.004	0.024
-735.025	-200.000	-0.051	0.426
-734.010	-200.000	0.026	0.488
-732.996	0.915	-0.414	-0.300
-731.981	-187.195	-0.070	-0.001
-730.966	20.599	-0.232	-0.190
-729.952	-143.305	-0.492	0.048
-728.937	-200.000	-0.026	0.280
-727.923	800.000	0.251	0.895
-726.908	-68.019	-0.935	0.369
-725.894	344.215	0.395	-0.784
-724.879	396.046	0.167	-0.352
-723.864	-97.244	-0.421	-0.111
-722.850	341.000	0.294	0.581
-721.835	113.801	0.323	0.397
-720.821	-31.194	-0.439	-0.250
-719.806	179.588	-0.314	-0.465
-718.791	118.847	-0.556	-0.695
-717.777	139.106	0.462	-0.615
-716.762	-126.230	-0.606	-0.092
-715.748	99.551	-0.405	0.473
-714.733	293.439	0.207	-0.382
-713.718	-60.909	-0.210	0.090
-712.704	-200.000	-0.262	1.562
-711.689	800.000	0.053	0.183
-710.675	704.580	-0.069	0.183
-709.660	-200.000	0.047	1.142
-708.645	-200.000	-0.054	-0.864
-707.631	800.000	0.138	0.489
-706.616	-158.150	1.217	0.072
-705.602	185.160	-0.260	-0.390
-704.587	13.978	-0.860	0.676
-703.572	-147.903	0.686	-0.058
-702.558	-144.103	-0.955	0.090
-701.543	43.240	-0.426	0.393
-700.529	-200.000	0.069	-0.372
-699.514	121.066	0.457	0.574
-698.499	-106.849	0.405	-0.091
-697.485	-69.581	-0.671	0.259
-696.470	134.705	-0.148	-0.194
-695.456	-94.438	-0.717	-0.198
-694.441	-109.856	0.239	0.051
-693.426	800.000	0.209	-0.583
-692.412	-136.221	0.255	0.030
-691.397	800.000	0.193	-0.835
-690.383	3.232	-0.635	-0.467
-689.368	-30.324	-0.547	0.313
-688.354	-40.367	0.494	-0.259
-687.339	150.079	0.398	-0.545
-686.324	19.007	-0.445	0.360
-685.310	270.655	0.433	-0.770
-684.295	-140.032	-0.506	-0.054
-683.281	41.719	-0.323	-0.296
-682.266	95.332	-0.289	0.333
-681.251	-200.000	-0.007	-0.268
-680.237	-93.516	0.471	-0.132
-679.222	-97.904	-0.255	0.066
-678.208	104.915	-0.218	0.259
-677.193	43.546	-0.296	-0.273
-676.178	-163.582	-0.724	-0.035
-675.164	303.456	0.354	-0.662
-674.149	-200.000	0.039	0.221
-673.135	-137.318	-0.076	-0.009
-672.120	-2.789	0.864	-0.609
-671.105	800.000	-0.349	-1.079
-670.091	100.615	0.196	-0.230
-669.076	69.892	-0.699	0.728
-668.062	-41.884	-0.384	-0.198
-667.047	-200.000	0.044	-0.241
-666.032	40.865	0.342	0.312
-665.018	-78.029	0.476	0.165
-664.003	73.661	-0.159	-0.168
-662.989	428.527	0.391	-0.853
-661.974	-61.859	0.384	-0.162
-660.959	-113.061	0.425	-0.085
-659.945	-200.000	-0.040	0.354
-658.930	-85.028	0.164	0.052
-657.916	-200.000	0.151	-0.724
-656.901	354.265	0.151	0.302
-655.886	800.000	-0.152	-0.444
-654.872	-33.489	0.318	-0.177
-653.857	105.923	0.389	-0.464
-652.843	362.560	-0.306	-0.619
-651.828	233.511	-0.156	0.259
-650.814	388.090	-0.375	0.782
-649.799	487.406	-0.108	-0.248
-648.784	800.000	-0.059	-0.242
-647.770	800.000	0.024	-0.069
-646.755	-10.246	-0.519	-0.347
-645.741	-143.945	-0.893	0.085
-644.726	3.004	-0.385	0.282
-643.711	-173.216	0.227	-0.007
-642.697	-65.016	0.797	0.325
-641.682	-200.000	0.110	-0.548
-640.668	-200.000	-0.062	-0.321
-639.653	-83.439	0.469	0.151
-638.638	22.480	0.233	0.192
-637.624	-102.557	-0.387	-0.093
-636.609	425.421	0.353	0.767
-635.595	-25.768	0.492	0.292
-634.580	219.140	0.134	0.216
-633.565	-1.457	-0.705	-0.501
-632.551	47.210	-0.511	-0.480
-631.536	94.320	0.179	-0.204
-630.522	38.950	0.478	0.430
-629.507	-200.000	-0.020	-0.202
-628.492	800.000	-0.011	-0.039
-627.478	28.333	-0.634	-0.540
-626.463	-200.000	0.154	-0.875
-625.449	-143.599	-0.344	-0.033
-624.434	279.547	-0.314	0.564
-623.419	-116.972	0.595	0.109
-622.405	-200.000	0.009	-0.809
-621.390	390.934	-0.206	-0.430
-620.376	-20.236	-0.398	0.247
-619.361	-136.456	0.181	0.021
-618.346	-160.131	-0.632	-0.035
-617.332	-110.093	0.342	0.072
-616.317	-93.386	0.291	-0.081
-615.303	37.171	-0.437	0.390
-614.288	-69.145	0.897	0.347
-613.273	231.567	0.257	-0.424
-612.259	122.152	-0.419	-0.526
-611.244	33.968	0.324	-0.284
-610.230	166.452	-0.447	-0.637
-609.215	332.536	-0.294	0.572
-608.201	-16.140	0.850	0.544
-607.186	-67.246	-0.239	0.095
-606.171	386.934	0.255	-0.530
-605.157	159.374	-0.374	-0.524
-604.142	337.234	-0.387	0.758
-603.128	9.826	-0.401	0.306
-602.113	-200.000	0.034	-0.170
-601.098	-107.052	0.263	0.058
-600.084	-120.757	-1.061	-0.180
-599.069	-24.606	-0.328	-0.197
-598.055	-85.867	-1.214	-0.378
-597.040	-200.000	-0.085	-0.400
-596.025	378.116	0.107	-0.221
-595.011	-161.719	-0.728	-0.037
-593.996	-53.416	0.414	0.191
-592.982	-167.581	0.170	0.007
-591.967	-0.428	0.235	-0.168
-590.952	324.208	0.408	-0.785
-589.938	27.869	-0.132	-0.112
-588.923	11.319	0.070	-0.054
-587.909	-90.367	0.098	-0.029
-586.894	442.270	0.157	0.347
-585.879	-91.291	-0.361	-0.104
-584.865	-117.451	0.965	-0.176
-583.850	-200.000	-0.016	0.508
-582.836	-18.620	-0.545	-0.342
-581.821	-121.055	-0.222	-0.037
-580.806	244.130	0.171	-0.289
-579.792	-200.000	-0.025	-0.228
-578.777	107.559	0.417	0.499
-577.763	-66.788	0.525	-0.209
-576.748	-135.078	-0.383	0.046
-575.733	159.104	-0.314	0.439
-574.719	-200.000	0.056	0.321
-573.704	-115.467	-0.395	0.075
-572.690	526.683	0.329	0.780
-571.675	-142.040	-0.092	0.009
-570.661	-200.000	0.119	1.099
-569.646	32.392	-0.325	-0.282
-568.631	-141.856	0.214	-0.022
-567.617	67.651	0.837	-0.859
-566.602	-102.828	-0.380	-0.091
-565.588	484.634	-0.102	-0.233
-564.573	-77.257	0.608	0.213
-563.558	800.000	-0.173	-0.720
-562.544	-163.708	-0.260	0.012
-561.529	48.219	-0.354	0.333
-560.515	800.000	0.119	0.423
-559.500	-5.037	-0.240	-0.166
-558.485	74.744	-0.630	-0.666
-557.471	-200.000	0.013	0.290
-556.456	170.646	-0.027	-0.038
-555.442	800.000	-0.184	0.564
-554.427	-200.000	0.111	-0.561
-553.412	98.023	-0.239	0.277
-552.398	-174.930	-0.240	-0.007
-551.383	-24.981	-0.391	-0.233
-550.369	294.229	0.480	0.880
-549.354	485.966	0.294	-0.673
-548.339	-72.265	-0.299	0.111
-547.325	318.465	-0.085	0.162
-546.310	-200.000	0.040	-0.613
-545.296	228.344	-0.040	-0.066
-544.281	-200.000	0.044	-0.942
-543.266	105.692	0.219	-0.260
-542.252	16.106	0.474	-0.375
-541.237	-16.499	0.326	-0.208
-540.223	361.590	0.159	0.321
-539.208	144.715	0.310	0.416
-538.193	112.801	-0.144	-0.175
-537.179	-91.338	-0.140	-0.040
-536.164	3.462	-0.449	-0.329
-535.150	-74.722	0.586	0.211
-534.135	644.328	0.185	0.473
-533.121	65.507	-0.038	0.039
-532.106	463.830	-0.298	-0.668
-531.091	52.889	0.553	-0.531
-530.077	-10.598	0.406	0.269
-529.062	-200.000	0.011	-0.339
-528.048	800.000	0.074	0.258
-527.033	-200.000	-0.119	-0.609
-526.018	-2.125	-0.200	-0.141
-525.004	92.820	0.208	-0.235
-523.989	-79.526	-0.645	-0.219
-522.975	-69.448	0.081	-0.031
-521.960	-71.040	-0.349	0.132
-520.945	-60.437	0.134	-0.057
-519.931	105.845	-0.543	0.644
-518.916	23.520	0.427	-0.353
-517.902	-172.639	0.445	-0.014
-516.887	800.000	-0.106	-0.331
-515.872	15.509	0.204	-0.161
-514.858	-200.000	-0.043	0.193
-513.843	12.302	-0.625	-0.483
-512.829	-69.316	-0.305	0.117
-511.814	-200.000	-0.103	-1.073
-510.799	286.569	0.128	-0.231
-509.785	164.845	0.308	0.435
-508.770	-200.000	-0.047	0.648
-507.756	800.000	-0.039	0.159
-506.741	-200.000	-0.165	-0.918
-505.726	530.896	0.165	0.391
-504.712	277.188	0.486	0.866
-503.697	-91.336	-0.710	0.203
-502.683	-199.272	0.223	-0.001
-501.668	-90.808	0.233	-0.067
-500.653	140.370	0.413	0.546
-499.639	364.759	0.168	0.340
-498.624	30.432	-0.124	-0.106
-497.610	360.848	-0.471	-0.945
-496.595	-200.000	0.064	0.416
-495.581	-117.711	-0.272	-0.049
-494.566	-90.269	-0.640	0.186
-493.551	-11.407	-0.546	-0.360
-492.537	800.000	0.272	-0.851
-491.522	-115.896	0.393	-0.074
-490.508	26.496	0.228	0.191
-489.493	385.308	0.166	0.344
-488.478	400.435	0.233	0.489
-487.464	-78.890	1.284	-0.438
-486.449	7.185	0.249	0.187
-485.435	790.945	0.228	-0.628
-484.420	-147.110	-0.577	-0.049
-483.405	100.189	-0.366	-0.425
-482.391	-113.905	0.604	0.117
-481.376	168.191	0.310	-0.442
-480.362	-3.761	0.286	-0.199
-479.347	-125.140	-0.823	0.126
-478.332	-147.622	0.622	-0.052
-477.318	187.976	0.206	0.308
-476.303	800.000	0.125	0.409
-475.289	-175.949	0.201	0.005
-474.274	11.761	-0.535	-0.412
-473.259	-200.000	-0.100	-1.098
-472.245	-91.813	0.552	0.157
-471.230	241.277	0.192	0.321
-470.216	-200.000	-0.024	-0.215
-469.201	-92.656	0.364	-0.102
-468.186	-200.000	0.000	-0.241
-467.172	-76.926	-0.741	-0.259
-466.157	92.105	-0.336	0.379
-465.143	-200.000	0.025	-0.215
-464.128	-200.000	-0.098	-0.689
-463.113	-133.071	0.315	0.040
-462.099	292.673	0.487	-0.888
-461.084	-200.000	-0.051	0.312
-460.070	589.532	-0.311	0.768
-459.055	-117.948	-0.295	-0.053
-458.040	-49.269	-0.401	-0.192
-457.026	563.091	0.410	-0.993
-456.011	83.597	-0.752	-0.821
-454.997	18.922	0.866	0.695
-453.982	-200.000	0.015	-0.493
-452.968	-200.000	0.119	-0.920
-451.953	-15.031	-0.155	0.099
-450.938	1.093	0.481	-0.345
-449.924	21.577	0.092	-0.075
-448.909	-3.359	0.831	-0.579
-447.895	-200.000	-0.046	-0.211
-446.880	-9.335	0.719	0.480
-445.865	-163.270	0.298	-0.014
-444.851	357.748	0.248	-0.496
-443.836	79.708	-0.502	0.539
-442.822	-156.334	-0.281	-0.018
-441.807	66.479	0.580	0.590
-440.792	-13.085	0.610	-0.396
-439.778	-14.738	-0.526	0.338
-438.763	56.302	-0.472	-0.458
-437.749	-29.141	-0.375	0.215
-436.734	-89.206	-0.603	0.178
-435.719	-200.000	-0.203	-1.031
-434.705	-92.229	-0.278	0.079
-433.690	165.138	0.247	0.349
-432.676	-0.326	-0.501	0.356
-431.661	534.875	0.249	0.591
-430.646	-136.096	-0.153	-0.018
-429.632	94.029	-0.405	0.459
-428.617	57.452	-0.775	-0.757
-427.603	-93.132	-0.778	-0.217
-426.588	-200.000	-0.070	0.671
-425.573	-98.523	0.398	0.102
-424.559	-200.000	0.039	-0.532
-423.544	-88.320	0.518	-0.155
-422.530	172.754	0.406	0.584
-421.515	-200.000	0.038	0.223
-420.500	-200.000	0.002	-0.314
-419.486	486.143	0.105	-0.238
-418.471	283.411	-0.556	0.997
-417.457	-45.048	0.258	-0.128
-416.442	-135.006	-0.300	-0.036
-415.428	800.000	-0.116	-0.353
-414.413	800.000	-0.303	1.097
-413.398	-11.215	-0.277	-0.182
-412.384	35.741	-0.155	-0.136
-411.369	-200.000	-0.010	0.274
-410.355	415.226	-0.091	-0.193
-409.340	540.627	-0.103	0.246
-408.325	-200.000	-0.165	-0.853
-407.311	168.978	0.229	0.326
-406.296	-110.459	-0.254	-0.053
-405.282	-200.000	0.107	-0.677
-404.267	-200.000	0.017	1.039
-403.252	-103.463	0.511	-0.120
-402.238	800.000	0.223	-0.658
-401.223	-125.133	-0.559	0.086
-400.209	59.405	-0.230	0.226
-399.194	-79.592	-0.663	-0.223
-398.179	-25.031	-0.233	-0.138
-397.165	-119.675	0.270	-0.047
-396.150	311.058	0.309	0.579
-395.136	-71.825	-0.816	0.303
-394.121	-87.829	-0.391	-0.118
-393.106	-53.699	-0.747	0.341
-392.092	-81.497	0.770	-0.253
-391.077	-121.794	0.565	-0.093
-390.063	-56.130	-0.345	0.153
-389.048	147.129	0.251	-0.337
-388.033	-25.695	-0.790	0.465
-387.019	800.000	0.063	0.232
-386.004	30.014	-0.302	-0.257
-384.990	-102.150	-0.817	0.196
-383.975	491.024	0.236	0.538
-382.960	544.200	-0.209	0.498
-381.946	14.307	0.364	-0.283
-380.931	-200.000	0.076	0.743
-379.917	-142.544	-0.671	0.066
-378.902	-200.000	0.263	0.001
-377.888	800.000	-0.154	-0.493
-376.873	-200.000	0.036	0.530
-375.858	-120.930	0.818	0.137
-374.844	-94.113	-0.285	-0.078
-373.829	-200.000	0.016	0.480
-372.815	126.157	-0.121	0.152
-371.800	-117.349	-0.517	-0.093
-370.785	-200.000	0.160	0.798
-369.771	-200.000	-0.059	0.477
-368.756	-150.488	0.105	0.008
-367.742	13.334	0.215	-0.166
-366.727	-54.272	0.124	-0.056
-365.712	560.578	-0.093	-0.224
-364.698	-200.000	-0.068	0.612
-363.683	-112.309	-0.021	0.004
-362.669	306.576	-0.185	-0.343
-361.654	220.479	-0.389	0.622
-360.639	-70.224	-1.031	-0.391
-359.625	800.000	0.046	-0.139
-358.610	21.461	-0.464	0.376
-357.596	800.000	0.138	-0.487
-356.581	-47.260	0.923	-0.448
-355.566	800.000	-0.162	-0.575
-354.552	-45.082	0.173	-0.086
-353.537	-82.588	-0.366	0.118
-352.523	-58.961	0.580	-0.250
-351.508	256.844	0.431	0.738
-350.493	-125.564	-0.025	0.004
-349.479	-12.116	0.679	0.443
-348.464	-102.095	1.021	0.245
-347.450	349.212	-0.117	0.231
-346.435	208.152	-0.342	-0.533
-345.420	41.919	0.168	0.151
-344.406	-2.092	-0.331	0.232
-343.391	211.090	-0.484	0.758
-342.377	800.000	-0.125	-0.438
-341.362	-188.632	0.030	-0.000
-340.348	83.818	0.106	-0.115
-339.333	87.679	0.190	0.210
-338.318	800.000	-0.224	-0.717
-337.304	106.035	0.243	-0.287
-336.289	38.877	-0.079	0.070
-335.275	-200.000	0.116	-0.853
-334.260	-200.000	-0.017	0.617
-333.245	7.101	0.669	0.497
-332.231	141.197	0.350	-0.461
-331.216	-37.599	0.957	-0.508
-330.202	-47.606	-0.183	0.088
-329.187	800.000	0.204	-0.799
-328.172	532.086	-0.277	-0.652
-327.158	-200.000	0.153	0.836
-326.143	-200.000	-0.009	-0.527
-325.129	82.642	0.237	0.256
-324.114	-149.829	0.720	0.056
-323.099	250.148	-0.281	0.475
-322.085	22.789	-0.296	-0.242
-321.070	10.276	0.612	-0.463
-320.056	127.198	-0.198	0.251
-319.041	40.622	0.381	-0.342
-318.026	-15.260	0.239	-0.152
-317.012	35.750	0.330	0.289
-315.997	-115.448	0.767	-0.144
-314.983	-156.795	0.581	0.036
-313.968	207.371	-0.271	-0.420
-312.953	-200.000	-0.004	0.535
-311.939	99.581	-0.202	-0.233
-310.924	-200.000	0.001	-0.508
-309.910	-200.000	-0.013	-0.429
-308.895	-75.172	-0.604	-0.215
-307.880	-10.369	-0.114	-0.075
-306.866	-48.354	-0.327	-0.157
-305.851	108.424	0.532	0.631
-304.837	-200.000	-0.222	-1.274
-303.822	88.839	0.247	-0.274
-302.807	-104.131	-1.068	0.247
-301.793	-143.439	0.225	-0.021
-300.778	529.119	0.378	0.888
-299.764	-20.782	-0.351	0.214
-298.749	149.095	-0.116	-0.156
-297.735	-200.000	0.080	-0.451
-296.720	661.831	-0.047	0.120
-295.705	236.918	-0.423	0.697
-294.691	-100.883	-0.416	-0.102
-293.676	-107.845	-0.686	0.149
-292.662	-200.000	0.045	0.405
-291.647	738.958	0.089	0.239
-290.632	-200.000	0.066	-0.806
-289.618	-200.000	0.036	0.495
-288.603	-8.843	-0.305	-0.204
-287.589	729.968	0.120	-0.319
-286.574	-200.000	-0.254	1.144
-285.559	2.224	-1.130	0.812
-284.545	626.097	0.106	0.266
-283.530	-27.345	-1.087	-0.629
-282.516	-77.413	0.119	-0.041
-281.501	296.488	-0.298	0.544
-280.486	-116.544	1.043	0.191
-279.472	-200.000	0.020	-0.606
-278.457	44.961	-0.657	0.602
-277.443	-75.261	0.199	0.071
-276.428	-200.000	-0.045	-0.307
-275.413	800.000	-0.078	0.219
-274.399	-18.427	0.691	-0.429
-273.384	-200.000	-0.020	-0.990
-272.370	32.853	-0.407	0.350
-271.355	-200.000	0.004	0.946
-270.340	-200.000	-0.153	1.026
-269.326	-63.869	0.560	0.228
-268.311	627.392	-0.058	-0.147
-267.297	-172.546	0.844	0.026
-266.282	457.078	-0.078	-0.173
-265.267	139.524	-0.174	0.227
-264.253	-200.000	-0.103	-0.628
-263.238	800.000	-0.190	-0.714
-262.224	476.293	0.085	0.190
-261.209	-29.429	0.323	-0.183
-260.195	-95.926	0.238	0.063
-259.180	-200.000	0.014	-0.194
-258.165	435.214	-0.070	0.151
-257.151	118.059	-0.083	0.102
-256.136	328.125	-0.090	0.171
-255.122	65.375	-0.440	-0.442
-254.107	-200.000	-0.167	0.805
-253.092	64.800	0.207	-0.208
-252.078	290.672	-0.188	0.340
-251.063	800.000	-0.158	-0.576
-250.049	-152.691	0.459	-0.032
-249.034	-106.516	0.761	-0.168
-248.019	-8.155	-0.401	0.268
-247.005	-82.654	-0.728	0.234
-245.990	-173.728	-0.638	-0.019
-244.976	189.782	-0.260	-0.387
-243.961	-40.682	-0.586	0.301
-242.946	192.196	0.456	0.683
-241.932	244.104	-0.212	0.352
-240.917	-200.000	0.053	0.478
-239.903	182.543	-0.183	-0.269
-238.888	337.034	0.229	0.442
-237.873	30.799	-0.515	-0.438
-236.859	31.672	-0.757	0.646
-235.844	-200.000	0.007	0.159
-234.830	24.554	-0.383	0.314
-233.815	58.460	-0.195	-0.190
-232.800	-200.000	-0.058	0.362
-231.786	288.716	0.208	0.374
-230.771	-166.878	0.458	-0.019
-229.757	-200.000	-0.116	0.866
-228.742	-41.011	0.467	0.240
-227.727	-200.000	-0.019	0.410
-226.713	66.749	-0.306	0.309
-225.698	-88.394	-0.379	0.112
-224.684	486.752	0.112	-0.254
-223.669	-146.372	-0.103	0.009
-222.655	323.324	0.296	0.559
-221.640	-200.000	-0.073	0.343
-220.625	346.038	0.238	-0.465
-219.611	-138.587	0.745	-0.081
-218.596	-149.254	-0.742	0.059
-217.582	-125.796	-0.364	0.055
-216.567	-87.132	-0.436	0.131
-215.552	-128.215	0.247	0.035
-214.538	-110.491	0.322	0.066
-213.523	174.605	-0.564	-0.809
-212.509	-190.912	-0.435	0.005
-211.494	-18.463	0.512	-0.317
-210.479	-11.478	0.883	0.575
-209.465	-200.000	0.059	0.544
-208.450	-17.298	0.573	0.358
-207.436	-200.000	-0.036	1.076
-206.421	-200.000	0.127	-0.774
-205.406	215.920	0.576	-0.907
-204.392	800.000	-0.235	0.711
-203.377	29.789	0.993	0.838
-202.363	-175.702	0.271	-0.007
-201.348	-114.057	-0.299	0.057
-200.333	-127.143	-0.410	-0.059
-199.319	-8.665	0.650	0.432
-198.304	-35.324	-1.139	0.614
-197.290	231.058	0.178	-0.289
-196.275	-19.735	0.484	0.297
-195.260	-139.386	-0.789	-0.084
-194.246	90.706	0.252	0.279
-193.231	116.682	-0.207	0.252
-192.217	-82.344	0.678	-0.218
-191.202	-95.093	0.696	-0.186
-190.187	159.985	0.161	-0.222
-189.173	100.737	0.566	0.651
-188.158	-38.538	-0.727	0.381
-187.144	383.424	0.392	-0.800
-186.129	78.178	0.513	-0.542
-185.114	-152.362	-0.590	0.042
-184.100	258.333	0.089	0.151
-183.085	-200.000	0.100	0.508
-182.071	8.109	0.204	-0.152
-181.056	36.404	-0.071	0.062
-180.042	335.323	-0.269	0.517
-179.027	40.337	0.668	0.595
-178.012	-200.000	0.118	-0.716
-176.998	-16.399	-0.526	-0.330
-175.983	9.500	0.359	-0.269
-174.969	228.720	-0.135	-0.218
-173.954	135.710	0.597	0.769
-172.939	190.749	0.413	-0.615
-171.925	174.090	-0.481	0.688
-170.910	-33.258	0.440	0.241
-169.896	558.005	-0.248	-0.592
-168.881	-137.170	-0.525	-0.059
-167.866	110.413	0.339	-0.403
-166.852	-110.367	0.229	0.047
-165.837	-86.907	0.286	0.086
-164.823	-200.000	-0.005	0.634
-163.808	-200.000	-0.006	-0.088
-162.793	-200.000	-0.001	-0.602
-161.779	-200.000	-0.098	0.500
-160.764	-113.430	0.543	-0.105
-159.750	-17.176	0.280	-0.175
-158.735	-89.105	0.452	0.132
-157.720	284.890	0.192	0.342
-156.706	800.000	-0.200	0.678
-155.691	-109.719	0.555	0.116
-154.677	95.783	0.328	-0.370
-153.662	-96.950	0.438	0.113
-152.647	339.905	-0.147	-0.284
-151.633	-97.155	0.309	0.080
-150.618	-147.788	0.163	-0.013
-149.604	-42.853	-0.561	-0.282
-148.589	-50.920	-1.123	0.521
-147.574	282.134	0.072	-0.127
-146.560	-92.145	0.842	-0.235
-145.545	168.615	0.111	-0.156
-144.531	261.937	-0.352	-0.603
-143.516	40.196	-0.195	0.174
-142.502	18.730	-0.506	-0.400
-141.487	-200.000	0.033	-0.182
-140.472	24.771	-0.651	0.533
-139.458	497.802	0.366	0.834
-138.443	-36.028	-0.226	0.121
-137.429	197.586	0.347	0.524
-136.414	37.830	1.321	1.160
-135.399	-40.569	0.246	-0.126
-134.385	169.199	-0.264	-0.372
-133.370	800.000	-0.058	0.180
-132.356	95.275	-0.336	0.378
-131.341	-200.000	0.026	0.235
-130.326	-42.220	-0.603	0.304
-129.312	800.000	-0.061	0.229
-128.297	184.875	0.591	-0.866
-127.283	-1.070	-0.326	0.228
-126.268	132.279	0.225	0.286
-125.253	186.108	-0.083	-0.122
-124.239	-53.714	-0.294	-0.133
-123.224	-157.624	-0.428	-0.025
-122.210	-112.619	-0.667	-0.131
-121.195	2.295	-0.330	-0.236
-120.180	685.129	-0.089	-0.230
-119.166	-16.870	0.351	-0.219
-118.151	332.554	-0.202	0.386
-117.137	246.686	0.446	0.743
-116.122	574.707	0.144	-0.347
-115.107	-52.752	-0.365	-0.166
-114.093	800.000	0.236	-0.803
-113.078	52.839	-0.093	0.088
-112.064	-96.201	0.716	0.187
-111.049	-102.375	0.756	0.179
-110.034	-3.881	-0.712	0.488
-109.020	-200.000	-0.029	0.159
-108.005	-52.974	0.322	-0.146
-106.991	619.468	0.278	-0.689
-105.976	-200.000	0.056	0.377
-104.962	-200.000	-0.143	-0.621
-103.947	170.475	0.128	-0.181
-102.932	-36.897	0.543	0.287
-101.918	-100.143	0.872	0.214
-100.903	-63.946	0.357	0.144
-99.889	-120.994	-0.500	-0.083
-98.874	-24.092	0.484	-0.286
-97.859	234.375	-0.092	0.149
-96.845	-41.137	-0.457	-0.233
-95.830	-157.880	-0.642	0.037
-94.816	-97.378	0.756	-0.194
-93.801	-101.891	-1.169	-0.279
-92.786	-92.701	-0.521	0.144
-91.772	-200.000	-0.003	0.200
-90.757	248.372	0.188	0.314
-89.743	351.722	-0.281	0.550
-88.728	20.840	-0.636	0.508
-87.713	-200.000	0.064	0.596
-86.699	685.804	-0.177	-0.456
-85.684	45.077	0.775	-0.705
-84.670	-136.430	-0.988	-0.113
-83.655	-125.083	-0.430	0.065
-82.640	-200.000	0.633	-0.003
-81.626	434.661	0.399	0.855
-80.611	481.969	-0.123	-0.275
-79.597	166.292	-0.223	0.311
-78.582	100.918	0.269	-0.308
-77.567	-17.733	-0.651	-0.403
-76.553	58.888	0.046	0.045
-75.538	-71.878	0.638	0.234
-74.524	-200.000	0.088	0.386
-73.509	-24.028	0.209	0.123
-72.494	-108.429	0.844	-0.179
-71.480	-200.000	-0.098	0.648
-70.465	-145.310	-0.081	-0.007
-69.451	45.748	0.489	0.446
-68.436	-96.495	-0.345	0.090
-67.422	800.000	-0.162	0.595
-66.407	800.000	-0.333	1.044
-65.392	-136.226	-0.053	0.006
-64.378	4.078	-0.562	0.406
-63.363	-200.000	-0.202	0.887
-62.349	153.656	0.482	0.650
-61.334	175.078	-0.854	-1.218
-60.319	-13.206	0.156	-0.100
-59.305	-106.766	-0.804	-0.176
-58.290	262.685	0.479	0.819
-57.276	120.157	1.067	1.305
-56.261	-200.000	96.944	576.263
-55.246	633.024	1374.849	3432.260
-54.232	200.734	2534.373	3839.137
-53.217	116.543	2124.858	2567.003
-52.203	44.750	1594.856	1445.145
-51.188	36.532	1336.345	1161.721
-50.173	33.568	1293.106	1106.815
-49.159	56.831	1344.763	1290.040
-48.144	57.455	1360.606	1308.894
-47.130	36.973	1318.182	1148.365
-46.115	33.611	1300.183	1112.950
-45.100	33.112	1296.126	1106.514
-44.086	33.063	1294.464	1104.763
-43.071	33.082	1292.255	1102.943
-42.057	32.836	1289.954	1099.505
-41.042	33.293	1287.140	1099.717
-40.027	32.960	1287.441	1097.995
-39.013	32.933	1285.671	1096.287
-37.998	32.892	1283.088	1093.801
-36.984	33.024	1281.641	1093.285
-35.969	33.100	1279.923	1092.217
-34.954	33.241	1277.937	1091.294
-33.940	33.345	1276.639	1090.740
-32.925	33.214	1275.398	1088.886
-31.911	33.298	1274.033	1088.160
-30.896	32.989	1272.519	1085.049
-29.881	33.454	1270.626	1086.055
-28.867	33.258	1269.854	1084.228
-27.852	33.407	1267.547	1083.070
-26.838	33.035	1267.347	1080.726
-25.823	33.492	1264.848	1081.160
-24.809	33.041	1264.447	1078.202
-23.794	33.265	1262.677	1077.926
-22.779	33.440	1261.432	1077.816
-21.765	33.119	1261.150	1075.709
-20.750	33.252	1258.818	1074.430
-19.736	33.080	1258.009	1072.721
-18.721	33.153	1257.504	1072.665
-17.706	33.171	1256.188	1071.598
-16.692	32.943	1255.266	1069.478
-15.677	32.840	1254.201	1067.946
-14.663	33.082	1253.424	1068.615
-13.648	32.913	1252.476	1066.806
-12.633	33.122	1250.708	1066.436
-11.619	33.087	1249.999	1065.596
-10.604	32.832	1250.105	1064.204
-9.590	33.257	1247.263	1064.133
-8.575	33.109	1247.510	1063.468
-7.560	33.062	1245.816	1061.719
-6.546	33.037	1245.541	1061.303
-5.531	33.008	1245.176	1060.787
-4.517	33.093	1243.762	1060.016
-3.502	33.034	1242.881	1058.894
-2.487	33.075	1241.821	1058.174
-1.473	32.870	1238.941	1054.533
-0.458	31.533	1222.388	1033.027
0.556	28.709	1206.090	994.228
1.571	24.748	1212.088	977.483
2.586	23.910	1225.033	983.202
3.600	23.319	1214.986	971.813
4.615	17.414	1142.188	882.953
5.629	7.574	1067.320	777.067
6.644	3.455	1047.280	742.603
7.659	3.079	1044.426	738.709
8.673	2.683	1043.068	735.780
9.688	2.626	1041.934	734.646
10.702	3.390	1038.992	736.154
11.717	9.622	1047.799	772.272
12.731	19.192	1061.779	828.775
13.746	24.214	1067.405	857.321
14.761	25.213	1069.586	863.808
15.775	24.986	1070.090	863.048
16.790	24.852	1067.004	859.837
17.804	24.908	1066.811	859.874
18.819	24.777	1067.777	859.949
19.834	25.243	1066.677	861.225
20.848	25.195	1066.271	860.591
21.863	24.884	1065.519	858.414
22.877	25.026	1064.895	858.515
23.892	24.961	1064.349	857.692
24.907	24.865	1063.690	856.622
25.921	25.144	1062.269	856.739
26.936	24.875	1060.829	854.214
27.950	24.810	1060.176	853.305
28.965	25.066	1057.457	852.259
29.980	24.964	1056.183	850.674
30.994	25.394	1054.263	851.087
32.009	24.914	1055.241	849.525
33.023	25.020	1052.835	848.014
34.038	24.896	1053.111	847.573
35.053	24.905	1052.492	847.046
36.067	25.036	1051.334	846.656
37.082	25.159	1050.357	846.375
38.096	25.203	1049.782	846.046
39.111	25.130	1049.418	845.332
40.126	25.135	1048.398	844.459
41.140	25.056	1045.669	841.816
42.155	24.610	1045.840	839.782
43.169	24.605	1045.369	839.306
44.184	24.436	1044.351	837.622
45.199	24.668	1041.919	836.683
46.213	24.520	1042.241	836.175
47.228	24.990	1041.984	838.094
48.242	24.857	1040.950	836.564
49.257	24.965	1040.838	836.907
50.271	25.076	1039.654	836.400
51.286	25.090	1038.300	835.301
52.301	25.307	1036.954	835.153
53.315	25.268	1036.124	834.231
54.330	24.999	1036.303	833.050
55.344	25.051	1034.868	832.064
56.359	25.232	1033.682	831.878
57.374	25.070	1032.091	829.770
58.388	24.940	1032.226	829.203
59.403	24.893	1030.747	827.728
60.417	25.091	1030.905	828.697
61.432	24.874	1029.812	826.743
62.447	24.774	1030.659	826.885
63.461	25.069	1028.427	826.382
64.476	24.804	1028.221	824.921
65.490	24.525	1027.562	823.034
66.505	25.086	1025.661	824.020
67.520	24.939	1025.433	823.088
68.534	24.618	1024.711	820.959
69.549	24.351	1023.988	819.082
70.563	24.130	1023.303	817.449
71.578	24.479	1021.259	817.340
72.593	24.025	1022.329	816.046
73.607	24.465	1020.974	816.903
74.622	24.535	1020.312	816.622
75.636	24.551	1019.813	816.224
76.651	24.611	1017.821	814.831
77.666	24.581	1017.870	814.661
78.680	24.344	1018.462	813.982
79.695	24.651	1016.874	814.038
80.709	25.010	1015.964	814.874
81.724	24.757	1015.571	813.335
82.739	24.809	1015.358	813.328
83.753	25.193	1013.880	813.815
84.768	25.426	1013.661	814.624
85.782	25.763	1011.621	814.435
86.797	25.398	1012.264	813.230
87.812	25.189	1011.911	811.930
88.826	25.626	1009.345	811.771
89.841	25.628	1009.103	811.513
90.855	25.400	1009.387	810.643
91.870	25.216	1008.466	809.000
92.884	25.346	1007.025	808.357
93.899	25.168	1006.991	807.457
94.914	25.552	1004.861	807.406
95.928	25.167	1004.339	805.183
96.943	25.082	1004.248	804.660
97.957	24.764	1003.280	802.387
98.972	25.039	1001.386	802.030
99.987	25.050	1001.513	802.112
101.001	25.448	1000.377	802.908
102.016	25.332	999.428	801.559
103.030	25.194	997.984	799.713
104.045	25.024	997.743	798.694
105.060	24.887	996.792	797.251
106.074	25.283	995.329	797.769
107.089	25.153	995.012	796.869
108.103	24.944	994.218	795.234
109.118	25.146	992.225	794.463
110.133	24.764	991.690	792.274
111.147	24.419	991.534	790.552
112.162	24.800	989.839	790.815
113.176	24.904	990.305	791.575
114.191	24.995	989.181	791.011
115.206	24.659	987.519	788.130
116.220	24.984	986.803	788.920
117.235	24.734	986.814	787.759
118.249	24.710	985.532	786.559
119.264	24.588	985.351	785.809
120.279	24.550	984.239	784.686
121.293	24.546	983.176	783.751
122.308	24.798	982.180	783.992
123.322	24.490	982.201	782.589
124.337	24.591	980.356	781.492
125.352	24.183	978.953	778.522
126.366	23.841	978.910	776.922
127.381	24.637	977.295	779.047
128.395	25.263	976.409	780.995
129.410	24.971	976.496	779.723
130.424	25.214	974.685	779.265
131.439	25.137	974.875	779.012
132.454	25.080	974.307	778.245
133.468	25.321	972.088	777.445
134.483	25.305	972.573	777.695
135.497	25.256	971.682	776.703
136.512	25.122	971.135	775.616
137.527	25.501	969.922	776.219
138.541	25.537	969.553	776.008
139.556	25.382	968.837	774.700
140.570	25.562	966.866	773.826
141.585	25.568	965.553	772.734
142.600	25.532	965.995	772.865
143.614	25.698	965.104	772.797
144.629	25.714	964.073	771.972
145.643	25.319	963.812	769.999
146.658	25.205	961.787	767.826
147.673	25.361	961.680	768.342
148.687	25.140	960.446	766.342
149.702	25.099	959.638	765.456
150.716	24.909	959.258	764.272
151.731	25.135	957.809	764.013
152.746	25.318	957.367	764.372
153.760	25.428	956.246	763.880
154.775	25.573	955.791	764.065
155.789	25.453	956.194	763.807
156.804	25.172	955.504	761.996
157.819	25.424	953.244	761.193
158.833	25.428	953.331	761.214
159.848	25.814	952.062	761.765
160.862	25.439	950.597	758.944
161.877	25.648	948.915	758.414
162.892	25.556	948.450	757.585
163.906	25.551	947.513	756.749
164.921	25.656	946.586	756.386
165.935	25.503	945.608	754.896
166.950	25.408	945.150	754.063
167.964	25.403	944.365	753.349
168.979	25.447	942.596	752.054
169.994	25.488	941.872	751.580
171.008	25.499	941.831	751.527
172.023	25.887	940.708	752.185
173.037	25.871	939.833	751.352
174.052	25.499	939.522	749.487
175.067	25.234	939.471	748.274
176.081	25.643	938.308	748.987
177.096	25.310	938.229	747.471
178.110	25.173	937.053	745.895
179.125	24.694	935.934	742.949
180.140	25.303	934.861	744.558
181.154	25.576	934.818	745.592
182.169	25.505	935.284	745.602
183.183	25.372	934.643	744.473
184.198	25.629	933.364	744.455
185.213	25.608	932.599	743.689
186.227	25.473	933.680	743.928
187.242	25.573	932.387	743.246
188.256	25.589	931.971	742.915
189.271	25.867	930.179	742.567
190.286	25.672	928.942	740.709
191.300	25.054	928.110	737.439
192.315	24.336	926.242	732.938
193.329	23.968	926.812	731.811
194.344	25.096	925.999	735.737
195.359	25.811	926.347	738.886
196.373	25.625	926.072	737.838
197.388	25.723	924.881	737.225
198.402	25.562	925.521	737.007
199.417	25.696	924.269	736.494
200.432	25.632	923.569	735.612
201.446	25.293	923.272	733.922
202.461	25.621	922.956	734.949
203.475	25.078	921.393	731.423
204.490	24.456	919.853	727.599
205.504	25.057	919.178	729.448
206.519	25.498	918.663	730.769
207.534	25.286	919.825	730.766
208.548	25.720	918.542	731.448
209.563	25.602	916.828	729.537
210.577	25.597	916.675	729.332
211.592	26.011	915.570	730.066
212.607	26.202	915.044	730.353
213.621	25.925	915.744	729.724
214.636	25.843	915.362	729.024
215.650	25.452	914.799	726.929
216.665	25.930	913.545	727.800
217.680	25.970	912.015	726.678
218.694	25.515	911.513	724.380
219.709	25.506	910.808	723.721
220.723	25.890	909.633	724.265
221.738	25.964	908.543	723.629
222.753	25.632	908.885	722.507
223.767	25.673	908.801	722.542
224.782	25.997	908.153	723.261
225.796	25.905	908.123	722.803
226.811	25.425	905.900	719.050
227.826	24.952	905.575	716.837
228.840	25.120	904.647	716.711
229.855	25.416	903.981	717.299
230.869	25.103	902.926	715.151
231.884	25.212	902.946	715.540
232.899	25.844	902.776	717.860
233.913	25.414	902.853	716.144
234.928	25.229	901.130	713.977
235.942	25.300	901.002	714.097
236.957	25.450	899.659	713.564
237.972	25.220	899.508	712.467
238.986	25.255	899.405	712.463
240.001	25.378	897.945	711.730
241.015	25.422	897.583	711.553
242.030	25.736	896.851	712.151
243.045	25.766	896.501	711.931
244.059	25.846	895.575	711.448
245.074	25.412	895.700	709.768
246.088	25.693	894.441	709.816
247.103	25.813	894.322	710.132
248.117	26.385	894.367	712.362
249.132	26.286	893.368	711.113
250.147	26.165	894.973	711.848
251.161	26.975	892.397	712.921
252.176	26.438	892.731	711.016
253.190	26.404	892.274	710.456
254.205	26.521	892.120	710.727
255.220	26.685	890.540	710.049
256.234	26.302	890.548	708.491
257.249	26.324	888.776	707.107
258.263	26.360	888.527	706.987
259.278	26.401	888.435	707.011
260.293	26.412	887.312	706.095
261.307	26.464	887.226	706.167
262.322	26.534	886.299	705.644
263.336	26.038	884.964	702.586
264.351	25.633	883.375	699.686
265.366	25.681	882.527	699.141
266.380	25.908	883.729	700.912
267.395	26.426	882.535	701.917
268.409	26.239	882.050	700.740
269.424	26.380	882.131	701.290
270.439	26.658	880.814	701.256
271.453	26.617	879.559	700.038
272.468	26.518	880.320	700.199
273.482	26.072	879.603	697.841
274.497	26.215	878.664	697.587
275.512	26.263	877.697	696.942
276.526	26.030	876.957	695.395
277.541	26.373	877.548	697.125
278.555	26.328	877.110	696.545
279.570	26.381	876.128	695.907
280.585	26.369	874.826	694.764
281.599	26.304	874.231	693.980
282.614	25.672	873.296	690.753
283.628	25.357	872.497	688.851
284.643	26.279	872.071	691.984
285.657	25.716	872.389	690.020
286.672	25.612	871.860	689.141
287.687	26.169	870.547	690.172
288.701	26.353	869.320	689.840
289.716	26.039	869.172	688.465
290.730	26.136	868.459	688.208
291.745	25.975	867.446	686.732
292.760	25.959	867.775	686.870
293.774	26.544	868.003	689.217
294.789	26.854	867.289	689.771
295.803	26.743	866.453	688.622
296.818	26.869	864.715	687.656
297.833	26.533	864.690	686.302
298.847	26.204	864.191	684.601
299.862	26.521	863.579	685.254
300.876	26.776	862.952	685.660
301.891	26.641	862.712	684.898
302.906	26.623	862.288	684.435
303.920	26.595	862.868	684.727
304.935	26.800	861.839	684.627
305.949	26.805	861.503	684.316
306.964	26.281	860.546	681.518
307.979	26.459	860.185	681.846
308.993	26.814	858.845	682.056
310.008	26.761	858.414	681.457
311.022	26.330	858.220	679.621
312.037	26.393	857.540	679.258
313.052	26.013	857.534	677.765
314.066	25.847	855.426	675.420
315.081	25.483	854.858	673.547
316.095	26.228	854.941	676.345
317.110	26.171	854.112	675.413
318.125	25.665	853.448	672.937
319.139	25.274	852.074	670.336
320.154	25.530	851.867	671.069
321.168	25.794	851.575	671.763
322.183	26.348	851.084	673.381
323.197	26.258	851.409	673.242
324.212	26.479	850.841	673.559
325.227	26.360	850.320	672.642
326.241	25.972	849.208	670.262
327.256	26.022	848.943	670.181
328.270	26.061	848.931	670.256
329.285	25.869	847.130	668.060
330.300	25.781	847.182	667.719
331.314	26.108	846.169	668.070
332.329	26.427	846.053	669.100
333.343	26.395	846.109	668.966
334.358	26.235	845.426	667.777
335.373	26.144	845.214	667.214
336.387	26.432	844.922	667.988
337.402	26.952	844.567	669.566
338.416	27.107	844.395	669.942
339.431	26.805	844.325	668.713
340.446	26.738	843.853	668.035
341.460	26.824	843.954	668.373
342.475	27.236	842.707	668.842
343.489	26.880	842.495	667.306
344.504	27.142	841.948	667.775
345.519	26.989	841.711	666.966
346.533	26.859	841.357	666.148
347.548	26.775	840.859	665.387
348.562	27.234	839.613	666.026
349.577	27.303	839.301	665.970
350.592	26.926	838.490	663.889
351.606	26.894	837.359	662.818
352.621	26.476	837.403	661.268
353.635	26.586	836.964	661.263
354.650	26.111	835.680	658.459
355.665	26.069	834.806	657.557
356.679	26.330	833.562	657.469
357.694	26.759	832.842	658.402
358.708	26.385	832.835	656.979
359.723	26.289	832.846	656.583
360.738	26.550	831.784	656.634
361.752	26.795	830.864	656.736
362.767	26.883	831.005	657.109
363.781	26.849	830.565	656.580
364.796	27.027	830.141	656.832
365.810	27.224	828.744	656.377
366.825	27.167	828.617	656.013
367.840	26.900	829.753	655.889
368.854	26.629	828.379	653.766
369.869	26.402	828.048	652.630
370.883	26.864	827.132	653.515
371.898	27.222	826.803	654.485
372.913	27.173	826.470	653.989
373.927	26.752	826.302	652.283
374.942	26.728	825.720	651.679
375.956	27.036	825.156	652.281
376.971	26.903	824.529	651.251
377.986	27.130	824.611	652.074
379.000	27.405	823.023	651.747
380.015	27.380	823.394	651.892
381.029	27.155	822.489	650.312
382.044	26.785	822.517	648.952
383.059	27.220	821.411	649.576
384.073	27.140	821.373	649.204
385.088	26.833	820.532	647.387
386.102	26.766	819.379	646.180
387.117	26.617	818.369	644.798
388.132	26.746	817.354	644.399
389.146	26.484	817.452	643.487
390.161	26.850	817.032	644.402
391.175	26.865	817.596	644.841
392.190	26.855	816.619	643.979
393.205	26.190	815.088	640.356
394.219	25.162	813.017	635.035
395.234	25.286	813.245	635.594
396.248	25.947	813.767	638.287
397.263	26.629	813.728	640.613
398.278	26.395	812.896	639.076
399.292	26.372	812.548	638.665
400.307	26.635	811.589	638.782
401.321	26.619	811.122	638.303
402.336	26.264	812.636	638.181
403.350	26.622	811.246	638.298
404.365	26.965	811.499	639.649
405.380	27.179	811.001	639.953
406.394	27.531	809.595	640.024
407.409	27.311	809.710	639.283
408.423	27.547	809.144	639.610
409.438	27.483	809.487	639.600
410.453	27.513	808.870	639.159
411.467	27.312	808.306	637.953
412.482	27.113	807.558	636.610
413.496	27.337	807.175	637.035
414.511	27.075	806.695	635.684
415.526	27.325	806.107	636.040
416.540	27.554	805.629	636.403
417.555	27.436	804.795	635.279
418.569	26.981	804.920	633.733
419.584	27.172	804.661	634.138
420.599	26.993	804.196	633.092
421.613	159.832	1371.988	1793.505
422.628	138.834	1454.718	1793.594
