DTS Sentinel unit serial number:	SN413079Multiplexer serial number:	ORYXHardware model number:	OX4-SRSoftware version number:	ORYX F/W v4.00 Oryx Data Collector v3.7.2.0data status	okinstallation	princeton_trtdifferential loss correction	single-endedforward channel	channel 1reverse channel	N/Adate	2019/09/12time	06:48:11forward acquisition time	60.00reverse acquisition time	0.00gamma	496.2192k internal	0.2320k external	0.2320temperature offset calibration	1.0043default loss term (dB/km)	0.3790temperature slope calibration	1.0000multiplexer offset coefficient	1.0000multiplexer slope coefficient	1.0000fibre end	0.00T internal ref (°C)	32.16T ext. ref 1 (°C)	1.59T ext. ref 2 (°C)	27.35length (m)	temperature (°C)	Stokes	anti-Stokes-747.200	-89.676	-0.238	0.070
-746.185	49.191	-0.230	0.218
-745.171	252.473	-0.165	0.285
-744.156	-66.521	0.074	-0.030
-743.142	-54.697	-0.303	0.139
-742.127	147.648	0.260	0.354
-741.112	67.258	0.108	0.112
-740.098	-40.625	-0.104	-0.054
-739.083	-99.631	0.234	0.059
-738.069	283.300	0.210	0.382
-737.054	-33.469	0.300	0.168
-736.039	-8.891	-0.301	0.204
-735.025	-77.397	0.089	0.031
-734.010	649.629	-0.137	-0.353
-732.996	59.820	-0.306	-0.305
-731.981	-200.000	-0.048	-0.290
-730.966	-200.000	-0.016	-0.339
-729.952	664.936	-0.049	-0.128
-728.937	-147.072	0.111	0.010
-727.923	800.000	-0.011	-0.039
-726.908	-200.000	-0.002	-0.148
-725.894	800.000	-0.025	-0.101
-724.879	112.967	0.277	-0.340
-723.864	12.156	-0.168	-0.131
-722.850	-99.827	0.209	0.053
-721.835	29.091	-0.162	0.139
-720.821	-180.192	-0.262	0.006
-719.806	-133.084	-0.334	0.043
-718.791	-185.003	-0.715	0.011
-717.777	-81.638	-0.302	-0.100
-716.762	267.471	0.114	0.201
-715.748	-200.000	-0.047	0.286
-714.733	-200.000	0.028	0.211
-713.718	28.470	-0.063	0.054
-712.704	388.261	0.068	0.141
-711.689	42.628	0.246	0.226
-710.675	-163.284	0.346	0.017
-709.660	800.000	0.054	0.157
-708.645	319.839	0.092	-0.177
-707.631	548.443	0.110	-0.265
-706.616	-3.513	-0.391	-0.275
-705.602	-200.000	-0.014	-0.104
-704.587	-37.294	-0.174	-0.094
-703.572	63.788	-0.054	0.055
-702.558	604.246	0.142	0.357
-701.543	-200.000	0.031	0.217
-700.529	-200.000	0.029	0.307
-699.514	-200.000	-0.014	0.319
-698.499	-200.000	0.001	0.132
-697.485	-24.050	-0.393	0.237
-696.470	98.092	-0.142	-0.166
-695.456	646.655	-0.022	-0.057
-694.441	-47.176	-0.232	-0.114
-693.426	-100.188	0.210	0.053
-692.412	166.831	-0.161	0.231
-691.397	-3.122	0.287	-0.202
-690.383	266.397	0.092	-0.162
-689.368	-200.000	0.045	-0.206
-688.354	-112.647	0.155	-0.031
-687.339	35.984	0.044	-0.039
-686.324	2.365	-0.090	0.066
-685.310	-99.746	0.088	-0.022
-684.295	188.314	-0.255	-0.385
-683.281	-2.476	0.101	-0.071
-682.266	-15.014	0.184	-0.119
-681.251	-200.000	-0.003	-0.249
-680.237	443.067	0.044	0.098
-679.222	8.134	0.194	0.147
-678.208	800.000	-0.076	0.311
-677.193	-200.000	0.012	0.181
-676.178	-138.492	-0.065	0.007
-675.164	-12.965	0.115	-0.075
-674.149	284.115	-0.189	0.343
-673.135	112.585	-0.205	0.250
-672.120	239.681	0.131	-0.220
-671.105	-200.000	-0.030	-0.269
-670.091	-35.013	-0.133	0.073
-669.076	-150.788	-0.196	-0.015
-668.062	744.667	-0.122	-0.331
-667.047	-200.000	0.021	0.212
-666.032	136.018	0.255	0.335
-665.018	288.364	0.113	-0.206
-664.003	266.347	-0.084	0.148
-662.989	99.352	0.062	0.072
-661.974	800.000	0.116	-0.397
-660.959	800.000	0.045	-0.157
-659.945	-200.000	-0.067	0.326
-658.930	553.410	0.092	0.223
-657.916	-125.669	-0.093	0.014
-656.901	-62.528	-0.158	-0.066
-655.886	514.158	0.093	0.219
-654.872	-75.422	-0.067	0.024
-653.857	-120.738	-0.136	-0.023
-652.843	-25.487	-0.164	0.098
-651.828	-131.960	-0.482	0.063
-650.814	-200.000	-0.376	-0.001
-649.799	-77.405	0.124	-0.043
-648.784	800.000	-0.031	0.096
-647.770	-150.940	-0.092	-0.007
-646.755	149.499	0.081	-0.110
-645.741	800.000	0.107	-0.330
-644.726	-121.170	-0.110	-0.019
-643.711	-123.525	0.058	0.009
-642.697	459.353	-0.126	0.282
-641.682	-151.394	-0.067	0.005
-640.668	243.735	-0.072	0.121
-639.653	21.096	-0.184	-0.150
-638.638	-89.720	0.234	-0.069
-637.624	-79.209	0.168	0.058
-636.609	-104.019	0.204	0.048
-635.595	149.888	0.136	0.186
-634.580	-77.956	-0.098	0.034
-633.565	739.514	-0.038	-0.102
-632.551	-18.691	-0.093	0.058
-631.536	800.000	0.038	0.151
-630.522	312.748	0.094	0.178
-629.507	83.539	0.116	0.127
-628.492	-127.648	0.167	-0.024
-627.478	-200.000	0.039	0.401
-626.463	-200.000	-0.011	0.172
-625.449	89.648	-0.221	0.249
-624.434	-94.702	0.152	0.041
-623.419	800.000	-0.078	-0.294
-622.405	3.561	0.298	-0.219
-621.390	-200.000	-0.048	-0.394
-620.376	-200.000	-0.049	0.289
-619.361	0.916	-0.242	-0.174
-618.346	-178.581	-0.242	-0.006
-617.332	-200.000	0.017	0.362
-616.317	-136.543	0.135	-0.016
-615.303	800.000	0.068	0.276
-614.288	800.000	0.035	0.151
-613.273	-49.773	0.152	-0.073
-612.259	-43.783	0.195	0.099
-611.244	800.000	-0.056	0.226
-610.230	374.021	-0.121	0.247
-609.215	800.000	-0.019	0.058
-608.201	163.516	0.179	0.253
-607.186	-142.835	0.275	-0.027
-606.171	-72.538	-0.071	0.026
-605.157	346.247	0.101	-0.200
-604.142	-200.000	-0.031	0.270
-603.128	-75.787	-0.355	0.127
-602.113	800.000	-0.049	0.171
-601.098	-112.100	0.281	-0.057
-600.084	-32.088	-0.367	-0.206
-599.069	-103.615	0.154	0.036
-598.055	-21.246	0.240	-0.147
-597.040	-119.074	0.230	-0.040
-596.025	113.180	0.077	-0.094
-595.011	800.000	0.075	-0.301
-593.996	-200.000	0.008	0.183
-592.982	193.223	0.118	-0.179
-591.967	662.059	-0.057	0.148
-590.952	369.664	0.189	-0.386
-589.938	-200.000	-0.010	-0.067
-588.923	800.000	0.075	-0.308
-587.909	-63.593	-0.135	0.056
-586.894	-66.477	0.179	0.071
-585.879	93.469	0.157	-0.179
-584.865	-44.515	-0.199	-0.100
-583.850	149.343	0.143	0.195
-582.836	-200.000	-0.003	0.039
-581.821	62.085	-0.078	-0.078
-580.806	215.792	0.164	0.261
-579.792	-200.000	-0.002	0.060
-578.777	-87.980	-0.127	-0.038
-577.763	-122.725	-0.303	-0.049
-576.748	-200.000	-0.037	0.214
-575.733	144.448	0.050	0.067
-574.719	221.589	-0.233	-0.376
-573.704	-67.073	-0.252	-0.100
-572.690	-143.162	0.233	0.022
-571.675	37.678	0.216	0.193
-570.661	-141.735	-0.180	-0.018
-569.646	12.536	0.073	-0.056
-568.631	-200.000	-0.079	0.383
-567.617	108.309	-0.151	-0.180
-566.602	635.047	-0.074	-0.188
-565.588	99.578	-0.077	0.090
-564.573	90.289	-0.072	0.081
-563.558	-52.289	0.167	-0.078
-562.544	78.940	-0.016	-0.018
-561.529	-200.000	-0.001	0.142
-560.515	-200.000	-0.003	-0.268
-559.500	-109.101	-0.411	-0.088
-558.485	-53.097	0.069	-0.032
-557.471	6.126	-0.361	-0.269
-556.456	457.912	-0.043	-0.096
-555.442	-92.682	0.271	0.076
-554.427	122.973	0.133	-0.168
-553.412	-28.382	0.270	0.157
-552.398	800.000	-0.031	0.114
-551.383	-36.932	0.062	-0.033
-550.369	751.053	-0.092	-0.248
-549.354	317.090	0.094	-0.178
-548.339	800.000	-0.025	0.070
-547.325	-9.045	0.186	-0.125
-546.310	203.441	-0.059	-0.092
-545.296	800.000	0.021	-0.060
-544.281	800.000	-0.064	0.201
-543.266	-25.706	0.181	0.107
-542.252	-39.339	0.248	-0.130
-541.237	800.000	-0.025	0.072
-540.223	-38.185	0.231	0.123
-539.208	185.138	0.137	-0.203
-538.193	-112.890	0.292	-0.058
-537.179	-13.633	0.265	-0.172
-536.164	48.092	-0.242	0.227
-535.150	93.762	0.172	-0.195
-534.135	-200.000	0.030	0.250
-533.121	-200.000	0.035	0.269
-532.106	-200.000	-0.073	-0.379
-531.091	-75.161	-0.270	0.097
-530.077	192.832	-0.114	-0.173
-529.062	49.924	-0.368	-0.348
-528.048	75.293	0.138	-0.146
-527.033	-125.589	-0.110	-0.017
-526.018	529.157	0.070	0.165
-525.004	-38.197	0.342	0.182
-523.989	346.693	-0.084	0.166
-522.975	-73.348	0.328	-0.120
-521.960	-95.263	-0.284	0.077
-520.945	41.553	0.356	0.323
-519.931	92.644	0.113	-0.128
-518.916	572.556	0.023	-0.055
-517.902	238.584	-0.108	-0.179
-516.887	800.000	-0.100	0.371
-515.872	5.216	-0.249	0.184
-514.858	76.484	-0.259	0.275
-513.843	-143.093	-0.277	0.027
-512.829	-56.485	-0.243	-0.108
-511.814	38.196	-0.073	0.066
-510.799	-154.123	-0.266	-0.018
-509.785	458.174	-0.182	0.405
-508.770	569.601	-0.109	-0.265
-507.756	55.262	-0.198	-0.192
-506.741	167.040	0.031	0.045
-505.726	10.781	-0.314	-0.240
-504.712	-200.000	0.031	0.159
-503.697	-46.879	-0.440	-0.216
-502.683	39.802	-0.173	-0.156
-501.668	483.931	-0.111	-0.254
-500.653	292.171	-0.172	-0.314
-499.639	800.000	-0.024	-0.077
-498.624	-147.997	-0.063	0.005
-497.610	2.505	-0.132	0.095
-496.595	98.231	0.078	-0.090
-495.581	800.000	0.052	0.204
-494.566	-27.795	0.067	-0.039
-493.551	-97.832	0.074	0.019
-492.537	-44.989	0.301	-0.150
-491.522	149.582	-0.096	0.130
-490.508	96.002	-0.210	0.240
-489.493	800.000	0.043	-0.157
-488.478	-192.057	0.248	0.002
-487.464	49.142	0.099	-0.093
-486.449	800.000	0.032	0.094
-485.435	-91.113	-0.026	0.008
-484.420	-200.000	-0.002	0.073
-483.405	55.019	0.261	-0.252
-482.391	-7.221	0.142	0.096
-481.376	-200.000	-0.032	0.222
-480.362	327.614	-0.162	0.311
-479.347	-155.467	0.105	0.007
-478.332	800.000	-0.086	-0.366
-477.318	-200.000	-0.017	-0.213
-476.303	-56.540	-0.183	-0.081
-475.289	800.000	-0.076	0.326
-474.274	235.872	0.130	0.215
-473.259	500.832	0.133	-0.306
-472.245	-160.996	-0.209	-0.011
-471.230	-200.000	-0.007	0.049
-470.216	73.540	-0.082	0.086
-469.201	-174.132	0.073	-0.002
-468.186	348.187	-0.121	-0.239
-467.172	-200.000	0.013	-0.229
-466.157	-145.729	0.281	-0.025
-465.143	-83.045	-0.305	-0.098
-464.128	-138.410	-0.147	-0.016
-463.113	-63.104	0.101	-0.042
-462.099	-96.160	-0.028	-0.007
-461.084	800.000	-0.083	0.342
-460.070	281.108	-0.188	0.337
-459.055	-97.594	0.415	0.108
-458.040	557.785	-0.024	0.057
-457.026	-200.000	-0.073	0.324
-456.011	68.313	0.074	0.075
-454.997	791.128	0.127	-0.350
-453.982	27.458	0.168	0.141
-452.968	180.000	-0.084	-0.124
-451.953	800.000	0.083	-0.334
-450.938	-200.000	-0.008	0.147
-449.924	-175.533	0.405	0.011
-448.909	44.889	-0.328	-0.302
-447.895	18.906	-0.072	-0.058
-446.880	107.019	0.231	0.275
-445.865	104.885	0.180	0.212
-444.851	-200.000	0.009	0.064
-443.836	167.963	-0.091	0.130
-442.822	250.841	-0.053	-0.089
-441.807	191.047	-0.104	0.157
-440.792	282.948	0.176	-0.315
-439.778	741.202	-0.144	-0.386
-438.763	93.838	0.282	-0.319
-437.749	-44.331	-0.131	-0.066
-436.734	30.449	0.040	-0.034
-435.719	-125.974	0.527	0.079
-434.705	-200.000	-0.007	0.129
-433.690	-62.935	-0.282	0.117
-432.676	354.475	-0.186	-0.369
-431.661	666.844	0.041	0.105
-430.646	-57.602	0.035	0.016
-429.632	-200.000	-0.021	-0.160
-428.617	8.404	0.039	-0.029
-427.603	5.136	0.097	-0.072
-426.588	105.710	0.208	0.246
-425.573	-127.065	0.141	-0.021
-424.559	-155.162	0.122	-0.008
-423.544	-118.935	-0.129	-0.023
-422.530	14.524	-0.180	-0.140
-421.515	-200.000	-0.002	-0.071
-420.500	488.850	0.175	0.399
-419.486	-200.000	0.037	-0.237
-418.471	-38.644	0.227	-0.120
-417.457	139.300	0.230	0.302
-416.442	131.278	-0.051	-0.065
-415.428	800.000	0.048	-0.149
-414.413	-73.257	0.110	0.040
-413.398	-135.372	0.147	-0.017
-412.384	-26.046	0.033	-0.020
-411.369	-56.226	-0.177	-0.079
-410.355	167.703	-0.076	-0.108
-409.340	136.460	-0.093	0.122
-408.325	-200.000	0.001	-0.272
-407.311	75.403	0.168	-0.176
-406.296	-200.000	0.017	0.375
-405.282	-200.000	-0.054	0.352
-404.267	800.000	0.030	0.124
-403.252	6.140	-0.079	-0.059
-402.238	105.585	0.082	-0.096
-401.223	228.356	-0.084	-0.137
-400.209	-200.000	-0.023	-0.544
-399.194	-200.000	-0.023	-0.165
-398.179	-200.000	-0.018	0.254
-397.165	-9.313	-0.025	-0.017
-396.150	-58.655	0.332	0.143
-395.136	-200.000	0.029	0.254
-394.121	738.325	-0.149	0.400
-393.106	222.028	0.242	0.389
-392.092	-20.711	0.055	0.034
-391.077	41.985	0.173	0.157
-390.063	-200.000	0.016	0.324
-389.048	-186.197	0.060	-0.001
-388.033	-200.000	0.007	0.079
-387.019	37.996	0.020	0.017
-386.004	-58.813	-0.177	-0.076
-384.990	155.489	-0.186	0.255
-383.975	525.444	0.099	0.233
-382.960	403.816	-0.133	-0.278
-381.946	108.187	-0.098	-0.116
-380.931	31.409	-0.164	-0.141
-379.917	-189.569	0.368	0.004
-378.902	205.094	-0.158	-0.245
-377.888	-200.000	-0.023	0.115
-376.873	-113.610	0.165	0.032
-375.858	-200.000	0.019	0.170
-374.844	-119.910	-0.183	-0.031
-373.829	-100.120	-0.173	0.043
-372.815	800.000	0.090	0.341
-371.800	-93.183	-0.301	-0.083
-370.785	800.000	0.033	-0.141
-369.771	27.100	0.123	0.102
-368.756	-157.338	-0.284	0.017
-367.742	-200.000	0.018	-0.099
-366.727	-74.104	-0.106	-0.038
-365.712	93.581	0.166	0.188
-364.698	156.637	0.045	0.062
-363.683	-91.942	-0.082	-0.023
-362.669	-200.000	0.036	-0.170
-361.654	-92.372	-0.190	-0.053
-360.639	466.882	0.130	0.291
-359.625	21.936	-0.181	0.147
-358.610	-88.937	0.301	0.089
-357.596	286.762	-0.096	0.172
-356.581	-200.000	0.035	0.233
-355.566	-149.401	-0.374	-0.030
-354.552	-34.899	0.345	-0.188
-353.537	800.000	-0.144	0.429
-352.523	-109.996	0.160	-0.033
-351.508	-76.679	0.052	-0.018
-350.493	-200.000	0.014	0.100
-349.479	87.310	0.118	0.130
-348.464	-200.000	-0.085	0.385
-347.450	524.986	0.118	0.276
-346.435	82.358	-0.139	0.150
-345.420	-124.740	0.267	0.041
-344.406	-9.661	-0.255	-0.169
-343.391	92.865	0.218	0.246
-342.377	-200.000	0.047	0.543
-341.362	19.756	-0.295	0.236
-340.348	11.004	0.155	0.118
-339.333	64.509	0.076	-0.076
-338.318	-105.989	-0.121	0.027
-337.304	10.878	-0.293	-0.223
-336.289	-200.000	0.016	-0.381
-335.275	752.645	-0.104	-0.280
-334.260	10.061	0.299	0.226
-333.245	-115.501	-0.117	0.022
-332.231	-50.797	0.092	0.043
-331.216	-112.920	0.235	0.046
-330.202	228.947	-0.041	-0.067
-329.187	71.274	-0.281	0.290
-328.172	103.636	-0.050	0.058
-327.158	-118.341	0.275	-0.049
-326.143	-16.076	0.319	-0.202
-325.129	235.417	0.100	0.165
-324.114	-26.180	0.119	-0.070
-323.099	-200.000	0.000	-0.409
-322.085	42.225	-0.298	-0.269
-321.070	-200.000	0.046	-0.274
-320.056	104.483	0.252	-0.296
-319.041	-200.000	0.008	-0.171
-318.026	292.133	0.171	0.309
-317.012	67.522	0.054	-0.055
-315.997	-85.524	-0.165	0.051
-314.983	-35.031	0.273	-0.148
-313.968	223.688	0.182	0.291
-312.953	48.470	-0.230	-0.214
-311.939	-200.000	0.015	0.134
-310.924	800.000	-0.113	0.315
-309.910	-161.747	-0.123	-0.006
-308.895	49.916	0.120	-0.112
-307.880	-64.427	-0.330	0.133
-306.866	-73.920	-0.096	0.035
-305.851	-56.695	-0.180	0.079
-304.837	287.429	-0.116	0.208
-303.822	35.395	0.312	0.272
-302.807	-97.874	0.208	0.053
-301.793	266.851	-0.177	-0.308
-300.778	44.462	0.259	-0.237
-299.764	405.180	-0.090	0.188
-298.749	398.412	-0.064	-0.133
-297.735	393.846	0.109	-0.226
-296.720	-143.882	0.158	0.015
-295.705	-64.854	-0.221	-0.089
-294.691	729.722	0.055	0.147
-293.676	-108.457	-0.123	-0.026
-292.662	800.000	0.051	0.216
-291.647	-107.624	0.372	-0.081
-290.632	13.947	-0.371	0.286
-289.618	31.559	-0.084	0.072
-288.603	-200.000	-0.017	-0.143
-287.589	-200.000	-0.003	0.042
-286.574	-48.635	0.092	-0.044
-285.559	31.089	0.180	-0.154
-284.545	-200.000	-0.041	0.203
-283.530	713.270	-0.069	-0.181
-282.516	-94.696	-0.248	0.067
-281.501	368.890	0.064	-0.128
-280.486	-200.000	0.003	-0.322
-279.472	-144.917	-0.157	0.014
-278.457	-149.147	-0.023	-0.002
-277.443	-200.000	-0.005	-0.040
-276.428	-69.519	0.031	0.012
-275.413	233.722	-0.147	-0.241
-274.399	37.965	-0.041	0.036
-273.384	-34.126	0.241	-0.131
-272.370	105.401	0.167	-0.196
-271.355	-54.415	0.134	-0.060
-270.340	800.000	0.050	-0.170
-269.326	-21.009	-0.100	-0.061
-268.311	91.779	-0.168	0.187
-267.297	-168.868	0.084	0.003
-266.282	160.529	-0.109	0.151
-265.267	-152.611	-0.155	0.011
-264.253	265.842	0.148	0.257
-263.238	800.000	-0.084	-0.334
-262.224	294.966	0.195	0.354
-261.209	-46.470	-0.160	-0.078
-260.195	-115.092	0.058	0.011
-259.180	301.814	0.111	-0.204
-258.165	365.812	0.072	-0.144
-257.151	-42.784	0.099	-0.050
-256.136	324.284	0.155	-0.293
-255.122	-132.380	-0.075	-0.010
-254.107	75.197	-0.040	0.042
-253.092	254.031	0.198	-0.336
-252.078	75.819	-0.136	-0.143
-251.063	-200.000	0.027	-0.143
-250.049	-137.445	-0.071	-0.008
-249.034	-200.000	-0.031	-0.323
-248.019	-200.000	-0.116	0.538
-247.005	-133.387	-0.209	-0.026
-245.990	-114.931	0.087	0.016
-244.976	-152.916	0.043	0.003
-243.961	447.314	-0.072	0.157
-242.946	800.000	-0.034	-0.130
-241.932	334.736	0.160	0.308
-240.917	63.815	-0.299	0.297
-239.903	800.000	-0.065	0.244
-238.888	-51.873	-0.253	-0.117
-237.873	-154.900	-0.376	0.025
-236.859	401.245	0.090	0.187
-235.844	-159.079	0.179	-0.010
-234.830	-200.000	0.245	-0.001
-233.815	-48.530	0.137	0.065
-232.800	35.089	-0.168	-0.146
-231.786	-4.372	-0.016	-0.011
-230.771	-200.000	-0.013	0.152
-229.757	800.000	-0.038	0.126
-228.742	-200.000	-0.181	0.000
-227.727	557.117	0.089	-0.213
-226.713	-200.000	-0.028	0.161
-225.698	125.872	-0.191	-0.239
-224.684	9.530	-0.244	-0.183
-223.669	48.483	-0.133	0.123
-222.655	-200.000	-0.011	0.377
-221.640	-200.000	-0.016	-0.196
-220.625	-18.032	-0.208	0.129
-219.611	-6.306	-0.139	-0.094
-218.596	105.350	0.260	0.304
-217.582	-80.682	0.141	0.047
-216.567	-79.790	0.411	0.137
-215.552	235.841	-0.192	-0.314
-214.538	-34.019	0.235	-0.128
-213.523	211.204	-0.111	-0.173
-212.509	-63.323	-0.246	0.100
-211.494	395.413	-0.148	-0.305
-210.479	-200.000	-0.019	-0.085
-209.465	-200.000	-0.003	0.165
-208.450	233.958	-0.221	-0.360
-207.436	-177.102	0.254	-0.006
-206.421	-46.804	-0.319	-0.154
-205.406	-172.621	-0.431	-0.013
-204.392	62.744	-0.090	-0.089
-203.377	-200.000	-0.089	-0.412
-202.363	131.953	0.287	0.366
-201.348	94.730	-0.107	0.120
-200.333	-18.863	0.309	-0.190
-199.319	-66.549	0.142	0.056
-198.304	556.655	-0.069	-0.164
-197.290	-73.179	-0.222	-0.080
-196.275	-2.510	0.158	-0.109
-195.260	-26.065	0.237	0.138
-194.246	-200.000	-0.020	0.335
-193.231	-200.000	-0.039	0.284
-192.217	-200.000	0.005	0.115
-191.202	164.431	-0.298	-0.416
-190.187	97.289	0.152	-0.172
-189.173	-110.841	0.048	-0.010
-188.158	-142.915	0.163	0.016
-187.144	-60.458	-0.132	-0.055
-186.129	-76.315	0.264	-0.092
-185.114	60.288	0.183	-0.179
-184.100	105.114	-0.240	-0.281
-183.085	-108.086	0.231	-0.049
-182.071	142.714	-0.088	0.116
-181.056	-85.400	-0.160	-0.049
-180.042	138.211	-0.193	-0.251
-179.027	-106.728	0.297	-0.065
-178.012	-151.064	0.166	0.012
-176.998	-119.634	-0.151	0.026
-175.983	-200.000	-0.020	-0.133
-174.969	-200.000	-0.029	0.334
-173.954	139.512	-0.175	0.228
-172.939	-22.828	0.160	-0.096
-171.925	74.461	-0.215	-0.224
-170.910	-54.417	0.401	-0.180
-169.896	-20.938	-0.110	-0.066
-168.881	8.640	0.130	0.097
-167.866	-3.558	-0.188	-0.129
-166.852	-55.129	0.135	0.060
-165.837	141.110	-0.163	-0.213
-164.823	129.932	-0.028	-0.036
-163.808	-200.000	-0.031	-0.244
-162.793	-45.322	-0.298	-0.146
-161.779	107.185	-0.090	-0.106
-160.764	800.000	0.082	0.227
-159.750	-43.516	0.225	-0.112
-158.735	113.699	0.086	0.104
-157.720	-33.976	-0.280	0.152
-156.706	-200.000	-0.088	-0.515
-155.691	269.816	-0.133	-0.231
-154.677	-90.100	0.267	0.077
-153.662	36.652	-0.142	-0.124
-152.647	-200.000	-0.024	0.504
-151.633	-200.000	-0.020	0.162
-150.618	176.751	0.112	-0.161
-149.604	-88.540	0.339	-0.100
-148.589	-133.875	-0.104	-0.013
-147.574	-104.308	-0.252	-0.058
-146.560	624.883	0.056	0.140
-145.545	-32.049	0.052	0.029
-144.531	800.000	-0.026	-0.094
-143.516	-110.967	0.055	0.011
-142.502	31.017	-0.156	0.132
-141.487	800.000	0.059	0.206
-140.472	86.045	0.051	0.055
-139.458	-24.433	0.163	-0.096
-138.443	11.685	0.114	0.086
-137.429	-157.193	0.245	-0.015
-136.414	-142.759	0.121	-0.012
-135.399	-84.835	0.109	0.034
-134.385	155.746	-0.086	-0.117
-133.370	193.093	0.114	0.171
-132.356	-136.652	0.269	0.031
-131.341	142.252	0.090	-0.118
-130.326	130.064	-0.239	0.301
-129.312	154.410	-0.194	-0.263
-128.297	-84.728	-0.098	-0.030
-127.283	-100.316	0.151	0.037
-126.268	419.212	0.206	0.434
-125.253	-105.363	0.100	-0.023
-124.239	-66.509	0.100	0.039
-123.224	15.315	-0.295	0.229
-122.210	513.977	0.111	-0.255
-121.195	-200.000	0.037	-0.226
-120.180	22.118	0.188	0.151
-119.166	-200.000	-0.001	0.379
-118.151	50.079	0.119	0.111
-117.137	-200.000	-0.013	-0.090
-116.122	-106.660	0.176	0.039
-115.107	21.265	-0.122	0.098
-114.093	-150.758	0.137	-0.010
-113.078	800.000	0.038	-0.149
-112.064	-49.984	-0.244	-0.114
-111.049	-200.000	0.001	-0.073
-110.034	633.400	0.122	0.305
-109.020	60.383	0.223	0.218
-108.005	800.000	0.074	-0.210
-106.991	-37.131	0.227	0.120
-105.976	101.983	-0.339	0.391
-104.962	-75.870	0.185	-0.065
-103.947	800.000	0.053	0.154
-102.932	-43.705	-0.352	0.175
-101.918	-31.966	-0.096	0.053
-100.903	215.415	0.163	-0.254
-99.889	-200.000	-0.014	-0.294
-98.874	224.231	0.046	0.074
-97.859	-43.155	-0.273	-0.136
-96.845	-10.055	-0.160	0.105
-95.830	-200.000	0.000	-0.122
-94.816	-167.821	0.207	0.008
-93.801	32.993	-0.084	0.072
-92.786	94.562	-0.192	0.215
-91.772	-14.130	-0.224	-0.143
-90.757	-44.108	0.282	0.140
-89.743	152.242	0.149	-0.200
-88.728	11.616	-0.254	0.192
-87.713	800.000	-0.036	-0.112
-86.699	-59.899	-0.181	-0.076
-85.684	122.261	-0.054	-0.067
-84.670	331.433	-0.103	0.196
-83.655	46.389	-0.087	0.079
-82.640	-200.000	0.034	0.176
-81.626	-49.119	0.267	0.126
-80.611	-64.235	0.050	0.020
-79.597	-152.746	-0.380	-0.027
-78.582	48.317	0.206	-0.190
-77.567	8.492	-0.147	0.109
-76.553	467.449	0.048	0.105
-75.538	-200.000	-0.015	0.297
-74.524	194.938	-0.058	-0.087
-73.509	-106.463	-0.112	0.025
-72.494	680.080	-0.121	0.311
-71.480	14.355	-0.068	-0.052
-70.465	-92.311	-0.341	0.095
-69.451	800.000	0.048	0.195
-68.436	400.320	0.296	0.612
-67.422	-8.051	0.253	0.168
-66.407	-73.551	-0.387	0.139
-65.392	-172.095	0.297	0.009
-64.378	84.211	-0.151	0.162
-63.363	210.454	-0.143	0.221
-62.349	-128.338	0.252	-0.035
-61.334	-17.079	-1.190	-0.739
-60.319	26.598	0.536	0.441
-59.305	800.000	-0.350	-1.064
-58.290	423.542	0.512	1.083
-57.276	186.112	1.052	1.540
-56.261	-200.000	95.962	595.880
-55.246	565.516	1373.165	3276.933
-54.232	160.795	2551.392	3506.297
-53.217	113.419	2143.234	2560.114
-52.203	44.158	1604.202	1447.929
-51.188	35.822	1341.821	1161.025
-50.173	32.488	1300.987	1106.102
-49.159	54.702	1347.798	1279.094
-48.144	56.823	1364.721	1307.766
-47.130	35.921	1323.097	1145.233
-46.115	32.342	1306.053	1109.367
-45.100	32.181	1300.585	1103.734
-44.086	32.167	1298.159	1101.549
-43.071	32.062	1296.020	1099.078
-42.057	31.983	1293.591	1096.510
-41.042	32.051	1292.243	1095.725
-40.027	31.985	1290.749	1094.024
-39.013	31.985	1288.956	1092.463
-37.998	32.132	1286.947	1091.574
-36.984	32.074	1285.509	1089.970
-35.969	32.169	1283.793	1089.022
-34.954	32.137	1281.973	1087.253
-33.940	32.235	1280.270	1086.330
-32.925	32.212	1279.207	1085.254
-31.911	32.212	1277.729	1083.960
-30.896	32.336	1276.049	1083.201
-29.881	32.276	1274.596	1081.582
-28.867	32.317	1273.186	1080.575
-27.852	32.401	1271.778	1079.819
-26.838	32.229	1270.797	1077.962
-25.823	32.284	1269.440	1077.080
-24.809	32.313	1268.227	1076.175
-23.794	32.206	1266.962	1074.449
-22.779	32.293	1265.322	1073.509
-21.765	32.263	1264.286	1072.420
-20.750	32.273	1262.639	1071.036
-19.736	32.121	1261.567	1069.216
-18.721	32.113	1260.325	1068.076
-17.706	32.075	1259.283	1066.936
-16.692	32.088	1258.417	1066.231
-15.677	32.161	1256.811	1065.248
-14.663	32.068	1255.817	1063.835
-13.648	32.084	1254.642	1062.884
-12.633	32.001	1253.831	1061.685
-11.619	32.098	1253.039	1061.525
-10.604	31.911	1252.595	1060.047
-9.590	32.049	1251.037	1059.463
-8.575	32.033	1249.910	1058.378
-7.560	32.183	1248.707	1058.164
-6.546	32.165	1248.151	1057.548
-5.531	32.048	1247.151	1056.001
-4.517	32.120	1246.602	1055.901
-3.502	32.083	1245.959	1055.104
-2.487	32.112	1244.703	1054.164
-1.473	32.142	1240.571	1050.790
-0.458	30.680	1225.750	1030.107
0.556	27.111	1208.412	993.183
1.571	23.587	1214.429	978.644
2.586	22.653	1229.757	985.690
3.600	22.062	1218.911	973.637
4.615	15.747	1145.759	882.111
5.629	5.978	1069.183	775.059
6.644	1.856	1049.034	740.395
7.659	1.633	1046.667	737.575
8.673	1.409	1045.823	735.831
9.688	1.472	1044.053	734.827
10.702	1.613	1042.845	734.589
11.717	7.445	1051.105	768.661
12.731	17.683	1065.433	829.112
13.746	23.515	1072.522	863.022
14.761	24.886	1074.033	870.834
15.775	24.911	1073.746	870.647
16.790	24.670	1072.760	868.602
17.804	24.552	1072.768	867.957
18.819	24.789	1071.704	868.168
19.834	24.818	1071.581	868.135
20.848	24.833	1071.155	867.782
21.863	24.951	1070.363	867.637
22.877	24.754	1069.968	866.287
23.892	24.808	1069.274	865.910
24.907	24.931	1068.264	865.608
25.921	24.886	1067.257	864.501
26.936	24.803	1066.130	863.109
27.950	24.773	1064.436	861.515
28.965	24.567	1062.804	859.127
29.980	24.665	1061.431	858.413
30.994	24.882	1060.483	858.613
32.009	24.965	1059.283	857.961
33.023	24.850	1057.882	856.200
34.038	24.735	1057.458	855.233
35.053	25.030	1056.587	855.862
36.067	24.815	1056.232	854.471
37.082	24.886	1055.729	854.328
38.096	25.087	1054.800	854.458
39.111	25.125	1053.913	853.845
40.126	24.869	1052.470	851.384
41.140	24.618	1050.609	848.610
42.155	24.434	1049.171	846.501
43.169	24.455	1048.229	845.768
44.184	24.494	1047.708	845.457
45.199	24.529	1046.245	844.369
46.213	24.483	1045.967	843.849
47.228	24.709	1045.185	844.211
48.242	24.771	1044.028	843.498
49.257	24.761	1043.864	843.240
50.271	25.062	1042.338	843.350
51.286	25.049	1042.252	843.146
52.301	24.951	1041.058	841.646
53.315	24.729	1040.405	839.998
54.330	24.894	1039.273	839.786
55.344	24.910	1038.681	839.308
56.359	24.581	1038.290	837.376
57.374	24.557	1036.926	836.086
58.388	24.582	1036.202	835.548
59.403	24.598	1035.120	834.678
60.417	24.502	1034.012	833.262
61.432	24.485	1034.125	833.197
62.447	24.697	1033.205	833.371
63.461	24.702	1032.538	832.785
64.476	24.626	1031.473	831.496
65.490	24.512	1030.274	829.929
66.505	24.572	1029.692	829.661
67.520	24.669	1029.080	829.547
68.534	24.293	1028.106	826.944
69.549	24.116	1027.035	825.191
70.563	24.260	1025.726	824.732
71.578	24.065	1025.727	823.758
72.593	23.864	1024.375	821.672
73.607	24.036	1024.321	822.350
74.622	24.432	1023.753	823.649
75.636	24.407	1023.408	823.185
76.651	24.282	1022.071	821.457
77.666	24.257	1021.039	820.441
78.680	24.303	1020.610	820.235
79.695	24.518	1019.881	820.565
80.709	24.455	1019.547	819.934
81.724	24.567	1018.177	819.276
82.739	24.483	1017.750	818.471
83.753	24.892	1017.589	820.145
84.768	25.128	1016.882	820.582
85.782	25.220	1015.895	820.136
86.797	25.090	1015.300	818.989
87.812	25.055	1013.800	817.546
88.826	25.168	1013.062	817.393
89.841	25.146	1012.125	816.466
90.855	25.066	1011.415	815.458
91.870	25.135	1010.414	814.892
92.884	25.060	1008.989	813.326
93.899	24.923	1008.327	812.101
94.914	25.147	1007.567	812.435
95.928	24.918	1006.870	810.761
96.943	24.683	1005.515	808.537
97.957	24.485	1004.320	806.608
98.972	24.379	1003.570	805.456
99.987	24.530	1003.313	805.862
101.001	24.829	1001.572	805.741
102.016	24.875	1001.053	805.457
103.030	24.844	1000.517	804.815
104.045	24.556	999.611	802.722
105.060	24.384	998.415	800.916
106.074	24.553	998.011	801.279
107.089	25.026	997.390	802.830
108.103	24.795	995.875	800.505
109.118	24.645	995.022	799.081
110.133	24.523	994.199	797.801
111.147	24.408	992.899	796.176
112.162	24.335	991.473	794.635
113.176	24.454	991.310	794.968
114.191	24.300	991.180	794.106
115.206	24.087	989.765	791.955
116.220	24.157	988.514	791.194
117.235	24.200	988.633	791.412
118.249	24.180	987.352	790.226
119.264	24.129	986.831	789.513
120.279	24.179	985.983	788.985
121.293	24.428	984.965	789.205
122.308	24.396	983.897	788.135
123.322	24.227	982.753	786.403
124.337	24.030	981.990	784.855
125.352	23.575	979.879	781.097
126.366	23.572	979.329	780.575
127.381	24.275	979.671	783.871
128.395	24.742	979.022	785.337
129.410	24.846	977.819	784.758
130.424	24.811	976.902	783.798
131.439	24.797	975.858	782.830
132.454	24.819	974.957	782.133
133.468	24.633	974.478	780.867
134.483	24.967	973.459	781.442
135.497	24.898	973.136	780.810
136.512	24.972	972.484	780.540
137.527	25.049	970.944	779.572
138.541	25.066	970.530	779.241
139.556	24.960	969.664	778.017
140.570	25.147	968.869	778.121
141.585	25.235	967.984	777.726
142.600	25.042	967.024	776.050
143.614	25.331	966.242	776.601
144.629	25.361	965.433	776.013
145.643	25.285	964.190	774.619
146.658	25.088	962.595	772.420
147.673	25.022	961.911	771.520
148.687	24.872	961.141	770.188
149.702	24.864	960.397	769.486
150.716	24.881	958.776	768.196
151.731	24.874	958.756	768.080
152.746	25.174	958.019	768.708
153.760	25.145	957.525	768.117
154.775	25.249	956.519	767.688
155.789	25.136	956.035	766.748
156.804	25.038	955.074	765.491
157.819	25.195	953.930	765.179
158.833	25.472	953.564	765.999
159.848	25.372	952.650	764.770
160.862	25.259	951.193	763.051
161.877	25.097	950.948	762.099
162.892	25.299	949.392	761.643
163.906	25.138	948.441	760.127
164.921	25.123	947.610	759.334
165.935	25.407	946.609	759.664
166.950	25.215	945.918	758.233
167.964	25.309	944.375	757.326
168.979	24.960	943.675	755.224
169.994	25.087	943.016	755.166
171.008	25.284	942.859	755.802
172.023	25.379	941.366	754.939
173.037	25.116	940.532	753.097
174.052	25.005	939.842	752.012
175.067	25.032	939.150	751.504
176.081	25.137	938.457	751.327
177.096	24.958	937.981	750.127
178.110	24.779	936.930	748.470
179.125	24.583	936.125	746.942
180.140	24.564	936.277	746.918
181.154	24.779	935.665	747.261
182.169	24.961	935.727	748.007
183.183	25.161	935.487	748.583
184.198	25.129	934.394	747.507
185.213	25.123	933.454	746.664
186.227	25.280	932.877	746.793
187.242	25.199	932.268	745.899
188.256	25.269	931.435	745.458
189.271	25.377	930.897	745.412
190.286	24.971	929.528	742.566
191.300	24.379	928.282	739.054
192.315	23.523	926.557	734.073
193.329	23.461	926.543	733.741
194.344	24.508	927.172	738.507
195.359	24.982	927.100	740.345
196.373	25.230	926.356	740.707
197.388	25.029	925.775	739.349
198.402	25.032	925.450	739.037
199.417	25.153	924.447	738.667
200.432	24.892	923.288	736.603
201.446	24.715	922.494	735.179
202.461	24.855	922.058	735.338
203.475	23.952	920.088	730.002
204.490	23.094	919.057	725.599
205.504	24.085	919.354	729.834
206.519	24.631	919.480	732.105
207.534	24.708	919.013	731.983
208.548	25.138	918.837	733.541
209.563	24.843	918.141	731.713
210.577	24.885	917.089	730.982
211.592	25.434	916.532	732.711
212.607	25.200	916.120	731.366
213.621	25.247	915.425	730.936
214.636	25.306	914.806	730.616
215.650	25.113	914.255	729.328
216.665	25.260	913.499	729.257
217.680	25.197	912.615	728.232
218.694	24.962	911.103	726.008
219.709	24.865	910.373	724.969
220.723	25.089	909.983	725.502
221.738	25.163	909.582	725.415
222.753	25.106	909.192	724.811
223.767	25.126	909.184	724.823
224.782	25.417	908.290	725.218
225.796	25.371	907.998	724.737
226.811	24.733	906.031	720.534
227.826	24.093	904.947	717.030
228.840	24.218	904.664	717.244
229.855	24.406	903.674	717.153
230.869	24.015	902.624	714.685
231.884	24.365	903.127	716.427
232.899	25.123	903.031	719.331
233.913	24.974	902.276	718.069
234.928	24.960	901.618	717.424
235.942	24.903	901.195	716.797
236.957	24.648	899.918	714.696
237.972	24.600	899.773	714.326
238.986	24.649	899.001	713.847
240.001	24.750	898.659	713.915
241.015	24.844	898.094	713.779
242.030	24.998	897.732	714.041
243.045	25.054	897.206	713.783
244.059	25.241	896.575	713.962
245.074	25.066	895.736	712.536
246.088	24.686	894.906	710.302
247.103	25.009	894.742	711.392
248.117	25.531	895.117	713.700
249.132	25.801	894.308	714.061
250.147	25.767	894.052	713.662
251.161	25.961	893.378	713.826
252.176	25.950	892.511	713.028
253.190	25.960	892.201	712.758
254.205	26.178	891.449	712.955
255.220	26.086	890.966	712.140
256.234	25.971	890.513	711.261
257.249	25.954	889.376	710.224
258.263	25.985	888.932	709.930
259.278	25.944	888.272	709.177
260.293	25.877	887.984	708.621
261.307	25.917	886.910	707.859
262.322	25.770	886.020	706.510
263.336	24.917	884.199	701.654
264.351	24.032	882.137	696.494
265.366	24.112	882.170	696.771
266.380	25.052	882.930	700.987
267.395	25.551	882.909	702.860
268.409	25.520	881.843	701.830
269.424	25.776	881.537	702.524
270.439	25.840	880.724	702.063
271.453	25.820	880.287	701.575
272.468	25.996	879.858	701.855
273.482	26.124	879.250	701.803
274.497	25.530	878.482	698.823
275.512	25.224	877.248	696.592
276.526	25.641	877.568	698.401
277.541	25.841	876.886	698.573
278.555	25.544	876.248	696.853
279.570	25.609	875.012	696.060
280.585	25.721	874.512	696.034
281.599	25.571	874.047	695.021
282.614	24.904	873.047	691.588
283.628	25.240	872.216	692.168
284.643	25.472	871.932	692.774
285.657	24.965	870.691	689.776
286.672	24.701	870.258	688.355
287.687	25.282	870.161	690.452
288.701	25.445	869.358	690.382
289.716	25.122	868.393	688.312
290.730	25.116	867.966	687.890
291.745	24.752	866.862	685.560
292.760	25.015	866.993	686.611
293.774	25.873	867.451	690.202
294.789	26.332	867.067	691.592
295.803	26.439	866.525	691.509
296.818	26.421	865.980	690.944
297.833	25.977	864.712	688.174
298.847	25.828	863.917	686.914
299.862	26.203	863.773	688.169
300.876	26.345	863.519	688.445
301.891	26.135	862.948	687.132
302.906	25.824	861.841	685.007
303.920	26.004	861.657	685.483
304.935	26.372	861.110	686.383
305.949	26.268	860.459	685.411
306.964	26.039	859.904	684.037
307.979	26.111	859.520	683.945
308.993	26.503	859.471	685.331
310.008	26.566	858.938	685.085
311.022	26.166	857.752	682.565
312.037	26.076	857.209	681.732
313.052	25.932	856.167	680.300
314.066	24.741	854.999	674.819
315.081	24.617	854.125	673.605
316.095	25.511	854.803	677.449
317.110	25.862	854.820	678.725
318.125	25.091	852.841	674.195
319.139	23.979	851.422	668.835
320.154	24.108	851.222	669.107
321.168	24.855	851.373	671.971
322.183	25.639	851.720	675.127
323.197	26.007	851.189	676.027
324.212	26.208	850.818	676.426
325.227	26.077	850.224	675.402
326.241	26.061	849.375	674.609
327.256	25.916	849.277	673.931
328.270	25.823	847.953	672.474
329.285	25.665	847.076	671.128
330.300	25.487	846.425	669.892
331.314	25.744	846.514	670.859
332.329	26.098	846.144	671.825
333.343	26.299	846.084	672.464
334.358	26.254	845.727	671.953
335.373	26.250	844.956	671.269
336.387	26.600	844.947	672.502
337.402	26.599	845.050	672.518
338.416	26.454	844.880	671.787
339.431	26.665	844.053	671.854
340.446	26.865	843.764	672.303
341.460	26.758	843.130	671.343
342.475	26.509	843.183	670.405
343.489	26.629	842.422	670.185
344.504	26.812	842.477	670.846
345.519	26.950	842.220	671.091
346.533	27.056	841.604	670.932
347.548	26.889	840.956	669.740
348.562	26.974	840.293	669.466
349.577	26.977	839.404	668.712
350.592	26.907	838.907	667.998
351.606	26.824	838.335	667.178
352.621	26.829	837.071	666.130
353.635	26.776	836.588	665.492
354.650	26.033	835.079	661.511
355.665	25.081	833.869	657.006
356.679	25.590	833.397	658.439
357.694	26.063	833.086	659.866
358.708	25.947	832.595	658.995
359.723	26.467	832.081	660.429
360.738	26.755	831.972	661.333
361.752	26.728	831.830	661.065
362.767	27.023	831.492	661.813
363.781	27.345	831.177	662.676
364.796	27.443	830.531	662.459
365.810	27.467	830.316	662.318
366.825	27.321	829.957	661.441
367.840	27.161	828.893	659.952
368.854	26.744	828.001	657.674
369.869	26.755	827.523	657.276
370.883	26.806	827.112	657.076
371.898	26.647	827.007	656.356
372.913	26.900	826.510	656.821
373.927	26.735	826.490	656.150
374.942	27.003	826.024	656.690
375.956	27.033	825.361	656.213
376.971	27.262	825.331	656.960
377.986	27.465	824.686	657.120
379.000	27.236	824.074	655.748
380.015	27.127	823.244	654.637
381.029	27.187	822.732	654.386
382.044	27.413	822.610	655.047
383.059	27.306	822.121	654.215
384.073	27.404	821.596	654.093
385.088	27.273	821.013	653.099
386.102	27.004	820.227	651.450
387.117	27.041	819.291	650.781
388.132	26.611	818.238	648.347
389.146	26.373	817.300	646.696
390.161	26.607	817.212	647.407
391.175	26.986	817.678	649.075
392.190	26.735	815.955	646.753
393.205	25.081	813.934	639.200
394.219	23.773	812.565	633.410
395.234	23.744	812.204	632.969
396.248	25.358	813.396	639.597
397.263	26.921	813.951	645.542
398.278	26.800	813.821	644.951
399.292	26.628	813.045	643.667
400.307	26.763	812.437	643.609
401.321	26.661	812.673	643.376
402.336	27.123	812.256	644.630
403.350	27.548	812.127	645.977
404.365	27.843	812.071	646.920
405.380	27.994	811.672	647.081
406.394	28.158	811.147	647.182
407.409	28.006	810.752	646.275
408.423	27.929	810.509	645.751
409.438	27.959	809.941	645.349
410.453	28.059	809.924	645.630
411.467	27.973	809.064	644.582
412.482	28.024	808.785	644.483
413.496	28.034	808.417	644.167
414.511	28.135	807.957	644.100
415.526	28.102	807.376	643.466
416.540	27.820	806.519	641.732
417.555	27.747	805.792	640.843
418.569	27.720	805.547	640.496
419.584	27.757	804.897	640.053
420.599	27.632	804.369	639.138
421.613	110.238	1286.425	1458.345
422.628	95.158	1356.653	1458.448
