DTS Sentinel unit serial number:	SN413079Multiplexer serial number:	ORYXHardware model number:	OX4-SRSoftware version number:	ORYX F/W v4.00 Oryx Data Collector v3.7.2.0data status	okinstallation	princeton_trtdifferential loss correction	single-endedforward channel	channel 1reverse channel	N/Adate	2019/09/13time	11:14:35forward acquisition time	60.00reverse acquisition time	0.00gamma	496.2192k internal	0.2317k external	0.2317temperature offset calibration	1.0157default loss term (dB/km)	0.3790temperature slope calibration	1.0000multiplexer offset coefficient	1.0000multiplexer slope coefficient	1.0000fibre end	0.00T internal ref (°C)	32.25T ext. ref 1 (°C)	4.69T ext. ref 2 (°C)	29.74length (m)	temperature (°C)	Stokes	anti-Stokes-747.200	-94.849	-0.389	-0.107
-746.185	328.661	0.102	-0.198
-745.171	313.116	-0.139	-0.264
-744.156	152.173	-0.104	-0.143
-743.142	367.048	0.073	-0.149
-742.127	-17.370	0.216	-0.138
-741.112	800.000	0.013	0.044
-740.098	-143.115	-0.440	-0.043
-739.083	488.827	-0.041	-0.095
-738.069	414.162	0.027	-0.059
-737.054	-83.640	0.149	0.048
-736.039	-120.806	-0.188	-0.032
-735.025	95.663	0.081	0.093
-734.010	370.052	-0.049	-0.101
-732.996	-66.769	0.157	-0.063
-731.981	-58.531	0.192	0.084
-730.966	-136.942	0.211	0.025
-729.952	-200.000	0.011	0.057
-728.937	135.024	-0.253	-0.333
-727.923	109.299	-0.224	-0.272
-726.908	-200.000	-0.047	-0.250
-725.894	289.331	0.048	0.089
-724.879	282.214	-0.073	0.133
-723.864	-24.231	-0.331	-0.200
-722.850	12.094	-0.204	-0.159
-721.835	-38.053	-0.206	0.110
-720.821	163.721	0.118	0.168
-719.806	-142.051	-0.261	0.026
-718.791	-22.034	0.096	0.059
-717.777	-38.961	0.310	-0.165
-716.762	-44.450	-0.399	-0.202
-715.748	-82.685	-0.176	-0.058
-714.733	-50.192	0.251	0.120
-713.718	800.000	-0.013	0.038
-712.704	-94.624	-0.232	-0.064
-711.689	-126.723	0.055	0.008
-710.675	-93.195	-0.122	0.034
-709.660	-16.505	0.240	-0.154
-708.645	-36.130	-0.306	-0.167
-707.631	-1.857	0.368	-0.262
-706.616	602.549	-0.069	0.174
-705.602	-200.000	0.018	-0.169
-704.587	133.927	-0.215	-0.282
-703.572	-101.202	-0.327	0.081
-702.558	-79.948	0.268	-0.091
-701.543	-200.000	-0.044	-0.344
-700.529	-200.000	-0.009	-0.278
-699.514	493.937	-0.105	-0.243
-698.499	800.000	-0.063	-0.183
-697.485	446.478	0.068	0.150
-696.470	-64.266	0.193	0.079
-695.456	-55.013	0.112	0.051
-694.441	-140.399	0.033	-0.004
-693.426	-200.000	-0.021	-0.128
-692.412	-200.000	-0.009	-0.201
-691.397	-83.683	-0.408	-0.132
-690.383	73.281	-0.093	-0.098
-689.368	-144.841	-0.243	-0.022
-688.354	-200.000	0.078	-0.347
-687.339	-200.000	-0.004	0.075
-686.324	-19.178	0.107	0.067
-685.310	-104.810	0.066	-0.015
-684.295	36.464	-0.343	-0.306
-683.281	64.465	0.027	0.027
-682.266	325.646	0.071	-0.138
-681.251	-200.000	0.015	0.125
-680.237	-4.022	0.327	-0.229
-679.222	-146.867	0.216	-0.019
-678.208	150.822	0.075	0.103
-677.193	238.879	-0.250	-0.419
-676.178	-115.684	0.271	0.051
-675.164	12.241	0.305	0.237
-674.149	-156.923	-0.406	-0.025
-673.135	-200.000	0.017	-0.181
-672.120	376.343	-0.089	0.183
-671.105	246.985	-0.092	0.156
-670.091	-200.000	0.013	-0.304
-669.076	101.885	0.226	-0.267
-668.062	301.305	-0.181	-0.338
-667.047	-130.938	-0.282	-0.038
-666.032	-40.047	-0.040	-0.021
-665.018	-130.899	-0.133	0.018
-664.003	80.916	-0.142	0.155
-662.989	-97.743	0.107	-0.028
-661.974	-103.274	-0.160	-0.038
-660.959	-87.401	-0.343	0.105
-659.945	-125.693	-0.188	-0.029
-658.930	-73.184	-0.158	-0.058
-657.916	800.000	-0.028	-0.085
-656.901	-200.000	0.023	-0.163
-655.886	-200.000	-0.064	-0.317
-654.872	-173.840	-0.242	-0.007
-653.857	142.780	-0.138	0.185
-652.843	-85.134	-0.402	-0.127
-651.828	200.854	-0.072	-0.112
-650.814	-200.000	-0.015	0.129
-649.799	650.654	0.058	-0.149
-648.784	309.575	0.088	-0.166
-647.770	291.173	-0.038	-0.070
-646.755	53.160	-0.180	-0.174
-645.741	186.309	-0.026	-0.039
-644.726	-83.860	-0.106	0.034
-643.711	309.998	0.030	0.056
-642.697	-161.153	0.385	-0.020
-641.682	-69.993	-0.268	-0.103
-640.668	800.000	0.031	-0.107
-639.653	-17.184	-0.208	0.133
-638.638	-75.687	-0.399	0.143
-637.624	77.807	0.264	-0.284
-636.609	-82.841	-0.344	-0.112
-635.595	-117.125	-0.163	0.030
-634.580	204.810	0.135	-0.211
-633.565	-96.227	0.349	-0.093
-632.551	-61.786	-0.310	-0.131
-631.536	40.077	0.250	-0.227
-630.522	800.000	0.026	-0.087
-629.507	7.906	0.132	-0.100
-628.492	60.255	0.123	-0.123
-627.478	301.514	0.129	0.240
-626.463	-200.000	0.000	-0.239
-625.449	-200.000	-0.008	-0.244
-624.434	3.865	0.057	0.042
-623.419	-53.365	0.105	0.049
-622.405	82.279	0.098	-0.107
-621.390	750.806	0.088	-0.240
-620.376	-200.000	0.020	-0.116
-619.361	-200.000	0.052	0.274
-618.346	133.946	0.157	0.205
-617.332	800.000	-0.024	0.085
-616.317	279.182	-0.107	-0.191
-615.303	172.618	-0.068	-0.099
-614.288	53.286	-0.168	-0.162
-613.273	50.849	-0.138	-0.131
-612.259	-136.036	-0.329	0.039
-611.244	70.710	0.179	0.187
-610.230	-122.419	-0.210	-0.035
-609.215	-36.275	-0.055	-0.030
-608.201	800.000	-0.061	-0.215
-607.186	60.505	0.262	0.261
-606.171	-119.248	0.228	0.040
-605.157	29.193	-0.097	0.083
-604.142	453.027	0.074	-0.166
-603.128	-32.658	0.038	0.021
-602.113	-29.936	-0.204	0.117
-601.098	-200.000	0.302	0.001
-600.084	76.924	0.184	-0.196
-599.069	-200.000	0.364	-0.001
-598.055	-200.000	0.053	-0.587
-597.040	-67.377	0.164	0.065
-596.025	-197.077	0.122	0.001
-595.011	37.949	-0.037	-0.033
-593.996	502.332	-0.113	-0.262
-592.982	-70.429	0.250	0.095
-591.967	260.639	-0.078	0.135
-590.952	-62.911	-0.300	-0.125
-589.938	219.100	0.154	-0.248
-588.923	-200.000	-0.013	0.088
-587.909	51.871	0.261	0.250
-586.894	-161.539	-0.073	0.004
-585.879	-125.880	0.127	0.019
-584.865	-158.434	0.096	-0.006
-583.850	69.154	0.104	0.108
-582.836	-86.083	0.099	-0.031
-581.821	-200.000	0.007	-0.131
-580.806	-126.240	-0.097	0.015
-579.792	800.000	-0.004	-0.016
-578.777	303.272	0.173	0.322
-577.763	-200.000	-0.072	0.396
-576.748	-200.000	-0.246	-0.000
-575.733	-200.000	-0.035	-0.246
-574.719	800.000	-0.044	0.187
-573.704	15.870	0.255	0.202
-572.690	-200.000	-0.019	0.351
-571.675	-200.000	-0.013	-0.193
-570.661	-200.000	0.047	-0.260
-569.646	38.349	-0.277	0.249
-568.631	800.000	-0.067	-0.252
-567.617	-200.000	-0.031	0.157
-566.602	-200.000	-0.020	-0.109
-565.588	-122.641	-0.424	0.069
-564.573	-87.514	-0.211	-0.064
-563.558	-49.130	-0.113	0.054
-562.544	-200.000	-0.068	-0.307
-561.529	-42.335	0.259	-0.133
-560.515	26.602	0.059	0.049
-559.500	800.000	-0.083	0.271
-558.485	-111.536	-0.305	-0.062
-557.471	167.641	-0.075	0.107
-556.456	-200.000	0.030	0.208
-555.442	110.691	-0.152	0.184
-554.427	-200.000	-0.006	-0.109
-553.412	12.265	0.158	-0.122
-552.398	193.261	-0.121	-0.185
-551.383	800.000	-0.060	-0.242
-550.369	-69.313	-0.120	-0.046
-549.354	-69.110	0.202	0.078
-548.339	-185.694	0.337	0.005
-547.325	511.123	-0.166	-0.387
-546.310	-200.000	0.003	0.056
-545.296	-133.266	0.348	0.044
-544.281	353.147	-0.186	-0.371
-543.266	-47.995	0.209	-0.101
-542.252	-200.000	-0.016	0.104
-541.237	-173.491	0.077	-0.002
-540.223	-9.339	0.333	0.223
-539.208	83.075	0.179	0.196
-538.193	-178.731	-0.209	0.005
-537.179	425.471	0.225	-0.487
-536.164	800.000	-0.060	0.265
-535.150	-129.188	-0.160	0.022
-534.135	-44.622	0.219	-0.110
-533.121	-178.917	-0.461	-0.010
-532.106	-114.506	0.230	-0.044
-531.091	-140.159	-0.514	-0.054
-530.077	-12.638	0.248	0.163
-529.062	-200.000	0.014	-0.158
-528.048	-200.000	0.017	-0.149
-527.033	21.175	-0.220	-0.179
-526.018	-120.481	-0.255	-0.043
-525.004	68.419	-0.280	-0.288
-523.989	-200.000	0.062	0.299
-522.975	-200.000	0.030	-0.189
-521.960	126.927	0.058	0.074
-520.945	60.943	-0.083	-0.083
-519.931	236.090	-0.121	0.202
-518.916	155.494	0.084	-0.116
-517.902	325.218	0.157	-0.300
-516.887	-200.000	-0.014	0.076
-515.872	-30.606	0.137	0.078
-514.858	109.737	-0.270	0.325
-513.843	-170.892	0.245	-0.008
-512.829	-93.906	-0.184	0.051
-511.814	153.681	0.120	-0.165
-510.799	800.000	0.038	-0.152
-509.785	-200.000	-0.296	-0.001
-508.770	31.512	0.121	-0.105
-507.756	800.000	-0.059	-0.194
-506.741	-55.049	0.114	-0.051
-505.726	-69.250	-0.360	-0.139
-504.712	658.133	0.091	-0.235
-503.697	-152.034	-0.024	-0.002
-502.683	-1.257	-0.155	-0.110
-501.668	229.888	0.014	0.023
-500.653	165.054	-0.213	-0.302
-499.639	-200.000	-0.021	-0.178
-498.624	-38.619	-0.259	0.137
-497.610	305.563	0.047	-0.089
-496.595	0.247	-0.117	0.083
-495.581	721.008	-0.080	-0.212
-494.566	-119.159	0.309	0.054
-493.551	182.788	-0.072	-0.106
-492.537	-200.000	-0.079	0.427
-491.522	800.000	0.046	0.179
-490.508	277.757	0.120	-0.213
-489.493	-41.721	0.233	-0.120
-488.478	221.819	0.111	-0.180
-487.464	257.075	-0.113	0.194
-486.449	202.599	-0.066	-0.102
-485.435	-105.577	0.047	-0.011
-484.420	800.000	-0.059	-0.208
-483.405	-109.561	0.188	0.040
-482.391	41.689	0.300	0.272
-481.376	-129.008	0.205	0.029
-480.362	347.387	0.078	0.154
-479.347	44.674	-0.152	0.140
-478.332	14.348	0.232	-0.181
-477.318	617.540	-0.014	0.036
-476.303	129.291	-0.024	0.030
-475.289	395.765	0.037	-0.077
-474.274	301.392	0.077	0.143
-473.259	800.000	0.066	0.223
-472.245	705.020	0.054	0.143
-471.230	-109.618	-0.059	-0.012
-470.216	-70.074	-0.181	0.069
-469.201	260.605	0.225	0.390
-468.186	-200.000	-0.010	0.159
-467.172	800.000	0.057	-0.223
-466.157	37.707	-0.320	0.285
-465.143	-149.030	-0.274	-0.022
-464.128	-162.866	0.196	0.010
-463.113	-145.521	-0.184	0.017
-462.099	-87.291	0.088	0.027
-461.084	-67.257	0.195	-0.077
-460.070	11.384	0.263	-0.202
-459.055	-29.402	-0.111	0.063
-458.040	-33.632	0.134	-0.074
-457.026	644.005	-0.019	0.049
-456.011	186.057	0.194	-0.289
-454.997	227.670	0.126	-0.205
-453.982	16.749	-0.299	0.237
-452.968	-200.000	0.026	-0.266
-451.953	215.286	0.140	0.222
-450.938	205.031	-0.186	-0.290
-449.924	-200.000	0.050	-0.326
-448.909	-200.000	-0.024	-0.146
-447.895	181.632	0.188	0.276
-446.880	-70.357	-0.089	-0.034
-445.865	800.000	0.090	0.339
-444.851	22.467	-0.316	-0.258
-443.836	-200.000	0.078	-0.528
-442.822	196.831	0.099	-0.151
-441.807	-200.000	0.165	0.001
-440.792	187.149	0.140	0.209
-439.778	800.000	0.042	-0.126
-438.763	346.845	0.055	-0.109
-437.749	67.223	0.114	-0.116
-436.734	800.000	0.115	0.328
-435.719	800.000	-0.061	-0.192
-434.705	41.437	-0.077	-0.070
-433.690	186.868	-0.149	0.222
-432.676	-48.373	0.285	0.137
-431.661	25.908	-0.166	-0.139
-430.646	-85.154	-0.225	-0.071
-429.632	765.566	0.056	0.153
-428.617	-26.002	-0.095	0.056
-427.603	-200.000	-0.039	0.329
-426.588	594.530	-0.045	0.111
-425.573	-119.464	0.043	0.007
-424.559	32.460	0.066	-0.057
-423.544	-4.902	-0.146	-0.101
-422.530	16.691	0.069	0.054
-421.515	22.808	0.222	0.182
-420.500	295.540	-0.270	0.493
-419.486	-77.120	0.296	0.103
-418.471	-152.576	-0.271	0.019
-417.457	-28.079	0.152	-0.088
-416.442	394.112	0.084	0.174
-415.428	43.698	-0.208	0.191
-414.413	-20.593	0.269	0.165
-413.398	-81.310	-0.351	-0.116
-412.384	-124.202	0.204	0.032
-411.369	44.490	-0.224	-0.205
-410.355	781.046	-0.073	0.198
-409.340	0.118	0.093	0.066
-408.325	-30.197	0.317	0.180
-407.311	82.795	-0.221	0.240
-406.296	-200.000	0.063	0.286
-405.282	608.653	-0.055	-0.137
-404.267	-200.000	0.008	0.055
-403.252	-61.608	-0.198	0.083
-402.238	-91.549	-0.134	-0.038
-401.223	-200.000	-0.052	0.303
-400.209	-110.403	-0.115	-0.024
-399.194	-73.749	0.335	0.122
-398.179	-180.229	-0.209	-0.004
-397.165	-112.100	-0.075	-0.015
-396.150	149.230	-0.082	-0.112
-395.136	-3.026	-0.268	-0.187
-394.121	-200.000	-0.016	0.130
-393.106	-180.077	-0.199	0.004
-392.092	-86.891	-0.303	0.092
-391.077	-90.124	0.184	0.053
-390.063	-200.000	0.031	0.188
-389.048	-23.277	-0.046	0.028
-388.033	19.612	-0.089	0.071
-387.019	184.607	-0.162	0.240
-386.004	684.866	-0.123	-0.321
-384.990	-118.939	-0.183	0.032
-383.975	212.644	-0.213	0.335
-382.960	59.419	-0.162	0.159
-381.946	21.336	-0.186	0.151
-380.931	800.000	-0.109	0.370
-379.917	-106.554	-0.223	-0.050
-378.902	-200.000	-0.013	0.398
-377.888	-20.984	0.286	0.175
-376.873	800.000	-0.066	-0.203
-375.858	-17.116	0.448	-0.282
-374.844	87.690	0.120	0.133
-373.829	800.000	-0.084	0.273
-372.815	89.678	0.137	0.153
-371.800	-200.000	0.046	-0.205
-370.785	-200.000	0.060	0.305
-369.771	109.055	-0.148	0.177
-368.756	-200.000	-0.043	-0.489
-367.742	-66.341	0.075	-0.030
-366.727	-130.591	0.135	0.018
-365.712	196.547	0.090	-0.136
-364.698	-116.692	0.153	-0.028
-363.683	328.849	0.056	-0.108
-362.669	-66.101	-0.254	0.101
-361.654	20.807	0.194	0.157
-360.639	-103.789	0.175	-0.041
-359.625	-200.000	-0.031	-0.151
-358.610	-157.854	0.096	0.006
-357.596	-82.405	-0.323	-0.105
-356.581	-18.536	0.138	-0.086
-355.566	104.965	0.129	-0.152
-354.552	800.000	0.099	0.326
-353.537	800.000	-0.056	0.228
-352.523	-78.087	-0.294	-0.101
-351.508	-133.686	-0.150	-0.019
-350.493	-102.841	0.201	0.048
-349.479	186.427	-0.096	-0.143
-348.464	-200.000	-0.024	-0.109
-347.450	93.140	0.031	-0.035
-346.435	-200.000	-0.014	-0.094
-345.420	130.553	0.274	0.350
-344.406	-200.000	0.038	0.228
-343.391	-98.060	-0.401	0.103
-342.377	800.000	-0.079	0.239
-341.362	-142.097	-0.059	-0.006
-340.348	-200.000	-0.012	0.174
-339.333	-102.456	-0.158	0.038
-338.318	-138.877	0.242	-0.026
-337.304	152.703	0.201	-0.274
-336.289	-132.451	-0.197	0.025
-335.275	-200.000	-0.017	-0.234
-334.260	187.372	0.076	-0.113
-333.245	28.454	-0.148	-0.125
-332.231	-200.000	0.036	-0.242
-331.216	169.261	0.147	0.209
-330.202	123.181	0.166	0.208
-329.187	-186.151	0.414	-0.006
-328.172	313.706	-0.103	0.193
-327.158	-64.400	-0.299	0.121
-326.143	-120.190	-0.152	-0.026
-325.129	-1.857	-0.132	0.093
-324.114	800.000	-0.056	0.182
-323.099	-98.971	0.143	0.036
-322.085	-200.000	-0.033	0.243
-321.070	378.716	-0.026	-0.053
-320.056	205.502	0.246	0.380
-319.041	-182.635	0.077	0.001
-318.026	-200.000	0.032	0.427
-317.012	800.000	0.012	0.052
-315.997	268.773	-0.019	-0.033
-314.983	-200.000	-0.044	-0.218
-313.968	-200.000	0.019	-0.134
-312.953	-71.650	-0.147	0.055
-311.939	15.651	0.201	-0.157
-310.924	730.429	0.082	0.218
-309.910	-65.934	0.162	-0.064
-308.895	-151.188	-0.176	-0.013
-307.880	125.529	0.163	0.205
-306.866	800.000	-0.047	0.144
-305.851	-200.000	-0.042	-0.391
-304.837	20.065	0.092	0.073
-303.822	-143.174	-0.140	-0.013
-302.807	-37.719	0.139	-0.074
-301.793	74.373	0.038	-0.039
-300.778	181.705	-0.107	-0.156
-299.764	-200.000	0.040	-0.233
-298.749	225.694	-0.108	-0.174
-297.735	18.276	-0.052	0.042
-296.720	228.373	0.171	0.277
-295.705	213.831	-0.170	0.268
-294.691	-114.982	-0.138	0.026
-293.676	50.649	-0.110	-0.104
-292.662	-0.104	0.237	0.168
-291.647	-200.000	-0.012	-0.278
-290.632	-78.400	-0.153	-0.052
-289.618	-88.274	-0.327	-0.097
-288.603	-13.305	0.246	0.159
-287.589	-161.038	-0.240	0.013
-286.574	-71.072	0.091	0.034
-285.559	-98.208	0.325	0.083
-284.545	-200.000	0.049	-0.275
-283.530	-120.315	0.209	0.035
-282.516	-5.963	0.179	0.122
-281.501	-200.000	0.035	-0.279
-280.486	623.397	-0.035	-0.087
-279.472	-182.582	-0.299	-0.005
-278.457	800.000	0.037	0.141
-277.443	127.190	0.053	-0.067
-276.428	232.524	0.034	-0.056
-275.413	-200.000	0.013	0.056
-274.399	-55.608	-0.116	0.052
-273.384	-56.531	0.312	-0.137
-272.370	-200.000	-0.010	0.203
-271.355	-200.000	-0.005	-0.061
-270.340	30.153	0.255	-0.217
-269.326	34.385	0.113	0.098
-268.311	95.485	-0.184	0.208
-267.297	-200.000	-0.047	-0.287
-266.282	32.206	0.253	0.217
-265.267	-25.378	-0.301	-0.177
-264.253	250.488	0.136	-0.230
-263.238	-64.976	0.130	0.052
-262.224	-4.088	0.326	0.224
-261.209	167.075	-0.188	-0.266
-260.195	-132.261	0.057	0.007
-259.180	-200.000	0.079	0.357
-258.165	-45.597	-0.448	-0.220
-257.151	-77.049	-0.019	0.007
-256.136	-6.976	0.237	-0.160
-255.122	-190.391	-0.155	0.002
-254.107	-200.000	-0.029	0.166
-253.092	-119.902	-0.198	-0.034
-252.078	-32.388	-0.271	0.150
-251.063	-197.258	-0.110	-0.001
-250.049	231.801	0.074	-0.120
-249.034	-106.999	0.289	0.063
-248.019	800.000	0.070	0.196
-247.005	150.521	0.018	-0.024
-245.990	54.097	-0.183	-0.175
-244.976	164.293	0.011	-0.015
-243.961	86.083	-0.031	-0.034
-242.946	117.852	-0.140	0.171
-241.932	192.315	0.212	0.317
-240.917	-76.217	-0.106	-0.037
-239.903	12.177	-0.195	0.149
-238.888	333.311	-0.116	-0.223
-237.873	3.553	0.192	0.139
-236.859	-106.570	0.191	0.042
-235.844	-122.925	-0.177	-0.028
-234.830	615.745	-0.131	0.327
-233.815	27.958	0.189	-0.158
-232.800	5.321	0.173	0.126
-231.786	121.570	0.151	0.187
-230.771	-4.846	-0.244	0.167
-229.757	90.563	0.342	-0.380
-228.742	70.425	0.093	0.096
-227.727	-200.000	-0.004	-0.078
-226.713	-36.420	-0.417	0.223
-225.698	-200.000	0.002	0.080
-224.684	-86.090	0.106	-0.033
-223.669	-8.523	0.138	-0.092
-222.655	140.886	-0.222	-0.291
-221.640	-200.000	0.043	-0.401
-220.625	-35.406	0.031	0.017
-219.611	17.119	0.051	0.040
-218.596	-176.557	0.130	0.003
-217.582	-55.234	-0.442	-0.197
-216.567	279.216	-0.084	-0.149
-215.552	69.017	-0.252	-0.257
-214.538	-94.875	0.235	0.063
-213.523	-168.910	-0.237	0.009
-212.509	157.425	0.073	-0.100
-211.494	-34.121	-0.302	-0.164
-210.479	445.745	-0.140	0.304
-209.465	116.573	0.049	-0.060
-208.450	509.892	-0.063	0.145
-207.436	194.920	-0.182	-0.274
-206.421	-50.518	-0.026	0.012
-205.406	-48.812	0.056	0.026
-204.392	-66.294	0.002	0.001
-203.377	79.727	-0.185	-0.197
-202.363	-129.095	0.369	-0.051
-201.348	29.740	0.082	-0.069
-200.333	5.725	-0.281	-0.206
-199.319	39.271	0.223	0.198
-198.304	45.957	0.172	0.157
-197.290	800.000	-0.050	0.197
-196.275	-200.000	-0.017	0.331
-195.260	-11.866	-0.139	0.091
-194.246	74.520	-0.137	-0.143
-193.231	-200.000	0.061	-0.280
-192.217	-93.869	0.233	-0.064
-191.202	-200.000	-0.055	-0.311
-190.187	800.000	0.099	0.297
-189.173	30.575	0.113	-0.096
-188.158	83.628	-0.132	-0.143
-187.144	-75.017	0.078	-0.028
-186.129	800.000	-0.019	-0.061
-185.114	170.641	-0.155	-0.220
-184.100	477.681	-0.087	0.195
-183.085	35.723	-0.256	0.223
-182.071	-99.307	-0.250	-0.062
-181.056	-101.719	-0.467	-0.112
-180.042	-15.180	0.136	0.087
-179.027	800.000	-0.037	0.116
-178.012	-120.570	0.361	0.061
-176.998	-95.059	-0.209	0.056
-175.983	330.319	-0.028	0.053
-174.969	314.586	-0.088	-0.165
-173.954	-200.000	-0.011	0.105
-172.939	800.000	-0.058	0.162
-171.925	-78.917	0.349	0.118
-170.910	-200.000	0.029	0.277
-169.896	-72.999	0.131	0.048
-168.881	-70.215	0.159	-0.060
-167.866	1.531	0.153	-0.109
-166.852	-106.762	-0.195	-0.043
-165.837	-200.000	0.074	0.000
-164.823	-98.681	0.211	-0.053
-163.808	-73.031	0.260	0.095
-162.793	-124.796	0.154	-0.024
-161.779	-8.371	0.211	-0.140
-160.764	298.902	0.111	0.202
-159.750	800.000	-0.034	-0.112
-158.735	615.135	0.073	0.182
-157.720	-36.049	0.125	0.067
-156.706	-122.075	-0.236	0.038
-155.691	-98.617	-0.109	0.027
-154.677	24.281	0.196	-0.160
-153.662	-72.168	0.230	-0.084
-152.647	134.850	-0.143	-0.183
-151.633	-107.196	0.184	-0.040
-150.618	-167.093	0.079	0.003
-149.604	47.527	0.167	-0.154
-148.589	-200.000	0.038	-0.271
-147.574	-200.000	-0.037	-0.222
-146.560	-6.524	0.122	0.082
-145.545	63.309	-0.100	0.099
-144.531	800.000	-0.166	-0.557
-143.516	404.717	0.111	0.232
-142.502	163.476	-0.100	0.139
-141.487	-195.403	-0.317	-0.002
-140.472	-200.000	0.001	-0.101
-139.458	-130.487	-0.134	0.018
-138.443	73.520	-0.136	0.140
-137.429	28.243	-0.033	-0.027
-136.414	194.349	0.022	0.033
-135.399	180.742	0.124	0.180
-134.385	-98.130	0.399	0.101
-133.370	6.120	0.181	0.133
-132.356	119.878	-0.150	0.183
-131.341	-157.010	0.419	-0.025
-130.326	403.491	-0.134	0.278
-129.312	25.038	-0.084	0.069
-128.297	542.621	-0.019	0.045
-127.283	268.114	-0.046	-0.080
-126.268	800.000	0.061	-0.209
-125.253	-125.854	0.144	0.021
-124.239	137.946	-0.164	0.212
-123.224	-200.000	0.013	-0.179
-122.210	65.646	-0.065	0.065
-121.195	103.696	0.209	-0.242
-120.180	800.000	-0.039	0.115
-119.166	101.908	-0.186	0.215
-118.151	511.618	-0.103	0.238
-117.137	107.586	-0.134	0.158
-116.122	223.067	-0.211	-0.336
-115.107	160.951	-0.177	0.244
-114.093	-50.008	0.290	-0.136
-113.078	-92.522	-0.230	-0.064
-112.064	-171.116	0.207	-0.007
-111.049	5.080	0.296	0.216
-110.034	-200.000	-0.022	-0.185
-109.020	121.647	-0.061	0.075
-108.005	-95.599	0.165	0.044
-106.991	153.733	-0.166	-0.225
-105.976	156.095	-0.055	-0.075
-104.962	-200.000	-0.008	0.427
-103.947	-66.405	-0.493	0.194
-102.932	-60.380	-0.150	-0.063
-101.918	-121.248	0.040	0.007
-100.903	-16.929	-0.248	0.155
-99.889	141.470	0.144	0.188
-98.874	479.572	0.101	0.225
-97.859	224.819	-0.150	0.239
-96.845	218.663	0.120	0.189
-95.830	309.504	-0.075	-0.139
-94.816	-200.000	-0.009	-0.281
-93.801	377.941	0.117	-0.235
-92.786	53.259	0.215	0.204
-91.772	-159.214	0.338	0.019
-90.757	-43.308	-0.374	-0.187
-89.743	568.596	-0.032	0.077
-88.728	67.227	-0.109	-0.109
-87.713	800.000	0.147	-0.432
-86.699	800.000	0.114	0.309
-85.684	800.000	-0.047	-0.130
-84.670	-200.000	0.050	-0.314
-83.655	210.910	0.141	-0.219
-82.640	-8.017	0.112	0.075
-81.626	-200.000	0.105	0.505
-80.611	-85.370	-0.411	-0.126
-79.597	-163.492	0.145	-0.007
-78.582	127.455	0.118	-0.148
-77.567	-137.128	-0.040	-0.005
-76.553	103.921	-0.099	0.115
-75.538	-73.732	0.305	0.110
-74.524	408.641	0.109	-0.229
-73.509	-200.000	-0.036	-0.199
-72.494	704.855	-0.107	-0.279
-71.480	-60.974	-0.122	-0.051
-70.465	643.576	-0.025	0.063
-69.451	-126.783	0.086	-0.013
-68.436	-52.167	0.392	0.179
-67.422	51.752	-0.282	-0.264
-66.407	700.566	-0.056	0.145
-65.392	782.326	0.012	0.032
-64.378	30.817	-0.336	0.284
-63.363	37.963	0.181	0.159
-62.349	120.204	-0.272	0.333
-61.334	36.594	-0.837	-0.729
-60.319	243.503	0.506	0.836
-59.305	198.735	-0.479	-0.722
-58.290	249.235	0.647	1.080
-57.276	800.000	0.562	1.718
-56.261	-200.000	97.414	588.694
-55.246	619.529	1418.359	3513.487
-54.232	187.773	2609.905	3840.808
-53.217	120.400	2177.961	2665.565
-52.203	44.532	1626.606	1473.087
-51.188	35.787	1360.419	1178.690
-50.173	32.556	1318.278	1122.910
-49.159	56.199	1364.923	1306.270
-48.144	58.552	1381.512	1336.304
-47.130	36.015	1340.421	1162.553
-46.115	32.415	1322.871	1125.796
-45.100	32.249	1318.162	1120.754
-44.086	32.171	1315.461	1117.954
-43.071	32.076	1313.636	1115.793
-42.057	32.064	1311.461	1113.826
-41.042	32.237	1309.265	1112.940
-40.027	32.122	1308.285	1111.387
-39.013	32.175	1306.339	1110.004
-37.998	32.173	1304.237	1108.161
-36.984	32.254	1302.304	1106.951
-35.969	32.110	1301.373	1105.266
-34.954	32.317	1299.180	1104.576
-33.940	32.277	1297.901	1103.208
-32.925	32.260	1296.438	1101.826
-31.911	32.301	1295.095	1100.879
-30.896	32.231	1293.443	1099.022
-29.881	32.312	1292.062	1098.276
-28.867	32.335	1290.530	1097.069
-27.852	32.391	1289.085	1096.119
-26.838	32.468	1287.249	1094.967
-25.823	32.321	1286.524	1093.450
-24.809	32.361	1284.984	1092.332
-23.794	32.369	1283.774	1091.302
-22.779	32.265	1282.084	1089.224
-21.765	32.328	1281.260	1088.841
-20.750	32.426	1279.301	1087.700
-19.736	32.284	1278.309	1085.994
-18.721	32.282	1277.131	1084.938
-17.706	32.213	1276.272	1083.769
-16.692	32.246	1274.798	1082.662
-15.677	32.150	1274.035	1081.421
-14.663	32.233	1272.598	1080.635
-13.648	32.113	1271.719	1079.158
-12.633	32.195	1270.474	1078.531
-11.619	32.248	1269.499	1077.959
-10.604	32.212	1268.905	1077.207
-9.590	32.147	1268.314	1076.287
-8.575	32.116	1267.073	1075.019
-7.560	32.220	1266.176	1074.807
-6.546	32.270	1265.453	1074.436
-5.531	32.141	1264.528	1072.875
-4.517	32.258	1263.435	1072.571
-3.502	32.265	1262.588	1071.847
-2.487	32.278	1261.225	1070.723
-1.473	32.245	1257.536	1067.363
-0.458	31.229	1242.713	1049.035
0.556	29.703	1225.013	1011.300
1.571	26.000	1230.329	995.207
2.586	24.494	1245.581	999.032
3.600	23.107	1232.938	981.120
4.615	17.307	1160.388	892.937
5.629	9.000	1084.569	793.577
6.644	5.078	1064.358	759.652
7.659	4.694	1061.649	755.789
8.673	4.582	1060.471	754.339
9.688	4.418	1059.652	752.894
10.702	4.961	1058.052	754.321
11.717	10.481	1066.206	786.920
12.731	18.879	1076.980	835.814
13.746	22.134	1080.748	854.522
14.761	22.007	1080.188	853.387
15.775	21.199	1078.249	847.856
16.790	20.230	1076.364	841.601
17.804	19.483	1075.028	836.860
18.819	19.033	1074.327	834.061
19.834	19.077	1073.566	833.608
20.848	18.955	1072.557	832.160
21.863	18.792	1071.755	830.676
22.877	18.577	1071.241	829.164
23.892	18.579	1070.383	828.435
24.907	18.566	1069.643	827.729
25.921	18.467	1068.740	826.477
26.936	18.577	1067.299	825.824
27.950	18.564	1065.988	824.674
28.965	18.672	1064.843	824.233
29.980	18.831	1063.047	823.530
30.994	18.980	1061.938	823.313
32.009	19.120	1060.901	823.107
33.023	18.871	1060.059	821.190
34.038	18.883	1058.761	820.169
35.053	18.762	1057.965	818.904
36.067	18.630	1057.154	817.575
37.082	18.679	1056.342	817.107
38.096	18.862	1055.743	817.443
39.111	18.872	1055.383	817.137
40.126	18.695	1053.990	815.146
41.140	18.520	1051.943	812.660
42.155	18.258	1050.825	810.486
43.169	18.275	1049.654	809.590
44.184	18.258	1048.605	808.629
45.199	18.282	1048.012	808.215
46.213	18.382	1047.254	808.028
47.228	18.620	1046.647	808.611
48.242	18.725	1045.363	808.042
49.257	18.693	1044.685	807.296
50.271	18.771	1043.566	806.727
51.286	18.743	1042.571	805.755
52.301	18.770	1041.526	805.004
53.315	18.633	1040.541	803.530
54.330	18.479	1039.781	802.147
55.344	18.415	1038.877	801.084
56.359	18.399	1037.905	800.186
57.374	18.334	1037.102	799.195
58.388	18.282	1036.048	798.069
59.403	18.363	1034.865	797.463
60.417	18.256	1034.453	796.576
61.432	18.178	1033.620	795.504
62.447	18.153	1032.841	794.716
63.461	17.957	1032.073	793.145
64.476	18.069	1030.782	792.604
65.490	18.004	1030.231	791.808
66.505	18.137	1029.576	791.848
67.520	18.070	1028.951	790.988
68.534	18.248	1027.409	790.557
69.549	18.071	1026.872	789.257
70.563	18.001	1026.091	788.261
71.578	17.839	1025.703	787.148
72.593	17.880	1024.247	786.149
73.607	17.758	1024.173	785.463
74.622	17.896	1023.220	785.296
75.636	18.031	1022.567	785.345
76.651	18.081	1021.586	784.751
77.666	18.100	1021.034	784.347
78.680	18.034	1020.697	783.714
79.695	18.039	1020.344	783.397
80.709	18.122	1020.041	783.474
81.724	18.151	1019.717	783.288
82.739	18.294	1018.796	783.167
83.753	18.661	1018.342	784.426
84.768	18.931	1017.639	785.050
85.782	19.068	1016.758	784.925
86.797	18.959	1015.725	783.564
87.812	18.796	1014.454	781.770
88.826	18.810	1013.261	780.844
89.841	19.019	1012.166	780.883
90.855	18.972	1011.714	780.250
91.870	19.004	1011.016	779.789
92.884	18.933	1010.066	778.666
93.899	18.970	1009.358	778.217
94.914	19.030	1008.409	777.688
95.928	19.027	1007.765	777.108
96.943	18.871	1006.753	775.557
97.957	18.787	1005.921	774.470
98.972	18.787	1004.975	773.672
99.987	18.963	1003.876	773.550
101.001	18.949	1003.032	772.768
102.016	18.779	1001.983	771.125
103.030	19.065	1001.609	772.056
104.045	18.890	1000.738	770.531
105.060	18.787	999.860	769.325
106.074	18.504	998.521	766.963
107.089	18.217	997.524	764.843
108.103	18.254	996.026	763.794
109.118	18.187	995.366	762.920
110.133	18.189	994.637	762.305
111.147	18.137	993.680	761.271
112.162	18.260	992.888	761.143
113.176	18.317	992.529	761.056
114.191	18.467	991.890	761.163
115.206	18.363	991.061	759.998
116.220	18.254	990.319	758.879
117.235	18.313	989.332	758.315
118.249	18.233	988.221	757.043
119.264	18.178	987.445	756.139
120.279	18.195	986.487	755.416
121.293	18.062	986.057	754.432
122.308	17.975	985.238	753.353
123.322	18.027	983.569	752.242
124.337	18.068	982.395	751.457
125.352	18.055	981.499	750.649
126.366	17.896	980.594	749.192
127.381	17.995	979.259	748.538
128.395	18.058	978.542	748.200
129.410	18.091	978.006	747.866
130.424	18.218	977.306	747.821
131.439	18.280	976.670	747.540
132.454	18.300	976.004	747.050
133.468	18.483	974.456	746.599
134.483	18.362	974.044	745.691
135.497	18.454	973.236	745.406
136.512	18.379	972.754	744.645
137.527	18.430	971.522	743.856
138.541	18.435	971.081	743.473
139.556	18.562	970.140	743.237
140.570	18.686	970.010	743.609
141.585	18.916	968.881	743.674
142.600	18.855	968.103	742.747
143.614	18.943	967.596	742.671
144.629	18.993	966.888	742.280
145.643	18.881	965.831	740.919
146.658	18.794	964.309	739.312
147.673	18.539	963.308	737.384
148.687	18.497	962.311	736.375
149.702	18.286	961.945	735.121
150.716	18.304	960.825	734.278
151.731	18.565	959.872	734.605
152.746	18.576	959.445	734.259
153.760	18.573	958.890	733.757
154.775	18.581	958.649	733.543
155.789	18.805	957.745	733.743
156.804	18.722	957.065	732.802
157.819	18.767	956.432	732.445
158.833	18.901	956.000	732.619
159.848	19.076	955.108	732.614
160.862	18.882	953.981	730.863
161.877	18.557	952.735	728.462
162.892	18.506	951.298	727.084
163.906	18.372	950.806	726.073
164.921	18.524	949.673	725.788
165.935	18.624	948.985	725.623
166.950	18.704	948.191	725.287
167.964	18.599	947.389	724.166
168.979	18.658	946.037	723.319
169.994	18.578	945.493	722.500
171.008	18.719	944.965	722.627
172.023	18.856	944.759	722.981
173.037	18.986	943.918	722.822
174.052	18.715	943.123	721.012
175.067	18.509	942.345	719.488
176.081	18.409	941.380	718.268
177.096	18.446	941.398	718.373
178.110	18.624	940.253	718.180
179.125	18.660	939.725	717.865
180.140	18.692	939.027	717.401
181.154	18.843	939.015	717.961
182.169	18.903	938.534	717.781
183.183	18.987	937.987	717.650
184.198	18.971	937.148	716.876
185.213	18.803	937.032	716.025
186.227	19.059	935.395	715.777
187.242	19.035	935.063	715.360
188.256	19.149	934.524	715.356
189.271	19.316	933.784	715.419
190.286	18.810	932.914	712.592
191.300	18.381	931.902	709.979
192.315	18.339	930.934	709.001
193.329	18.378	930.692	708.917
194.344	18.584	930.270	709.386
195.359	18.619	929.997	709.260
196.373	18.843	929.181	709.499
197.388	19.083	928.712	710.067
198.402	19.162	928.773	710.379
199.417	19.326	928.366	710.678
200.432	19.458	927.313	710.354
201.446	19.576	926.806	710.388
202.461	19.633	926.561	710.373
203.475	19.537	926.112	709.572
204.490	19.153	925.063	707.126
205.504	19.048	924.154	705.941
206.519	18.964	923.033	704.675
207.534	19.081	922.258	704.502
208.548	19.144	921.627	704.216
209.563	19.108	921.165	703.653
210.577	19.031	920.699	702.919
211.592	19.398	920.142	703.932
212.607	19.479	919.133	703.427
213.621	19.325	918.404	702.180
214.636	19.203	917.899	701.235
215.650	19.352	916.867	700.989
216.665	19.409	916.399	700.801
217.680	19.514	915.984	700.849
218.694	19.569	915.490	700.633
219.709	19.598	914.649	700.044
220.723	19.440	914.168	698.974
221.738	19.471	913.396	698.446
222.753	19.318	912.805	697.311
223.767	19.396	912.160	697.074
224.782	19.624	911.904	697.740
225.796	19.637	911.442	697.374
226.811	19.699	910.527	696.863
227.826	19.438	909.347	694.847
228.840	19.459	908.529	694.246
229.855	19.295	907.825	692.988
230.869	19.311	907.495	692.740
231.884	19.308	906.908	692.216
232.899	19.283	906.078	691.421
233.913	19.230	904.970	690.303
234.928	19.023	904.311	688.910
235.942	19.059	903.825	688.622
236.957	19.092	903.124	688.158
237.972	19.167	902.590	687.992
238.986	19.157	901.779	687.273
240.001	19.225	901.354	687.159
241.015	19.377	900.761	687.251
242.030	19.329	900.500	686.803
243.045	19.409	899.780	686.511
244.059	19.485	899.492	686.531
245.074	19.486	898.867	685.997
246.088	19.688	898.123	686.171
247.103	19.642	898.133	685.933
248.117	19.754	897.780	686.050
249.132	19.973	897.503	686.646
250.147	20.287	896.268	686.882
251.161	20.233	895.815	686.261
252.176	20.292	895.425	686.138
253.190	20.462	894.379	685.946
254.205	20.444	894.060	685.567
255.220	20.384	892.974	684.439
256.234	20.281	892.683	683.749
257.249	20.227	891.812	682.809
258.263	20.204	891.218	682.203
259.278	20.313	890.459	681.989
260.293	20.369	889.881	681.707
261.307	20.357	889.686	681.450
262.322	20.280	888.989	680.552
263.336	20.491	887.900	680.488
264.351	20.499	887.249	679.958
265.366	20.629	886.833	680.088
266.380	20.461	886.248	678.924
267.395	20.334	885.476	677.776
268.409	20.386	884.408	677.102
269.424	20.272	884.012	676.293
270.439	20.193	883.216	675.315
271.453	20.168	882.398	674.535
272.468	20.158	881.975	674.111
273.482	20.057	881.461	673.268
274.497	20.186	880.614	673.062
275.512	20.256	880.429	673.133
276.526	20.262	879.775	672.599
277.541	20.359	879.514	672.713
278.555	20.521	878.838	672.764
279.570	20.584	878.494	672.684
280.585	20.561	877.480	671.760
281.599	20.465	876.446	670.537
282.614	20.458	875.641	669.835
283.628	20.183	875.695	668.757
284.643	20.354	874.849	668.712
285.657	20.406	873.907	668.133
286.672	20.452	873.486	667.930
287.687	20.438	872.767	667.264
288.701	20.516	872.093	666.990
289.716	20.454	871.969	666.598
290.730	20.496	871.127	666.055
291.745	20.469	870.699	665.565
292.760	20.596	870.212	665.624
293.774	20.770	869.812	665.924
294.789	20.672	868.996	664.867
295.803	20.360	868.242	663.038
296.818	20.409	867.207	662.375
297.833	20.431	866.716	662.025
298.847	20.728	866.073	662.609
299.862	20.520	865.979	661.684
300.876	20.476	865.543	661.124
301.891	20.779	864.778	661.636
302.906	20.949	864.385	661.922
303.920	21.024	864.323	662.101
304.935	21.017	863.745	661.572
305.949	21.024	862.636	660.689
306.964	20.854	861.943	659.459
307.979	20.713	861.302	658.377
308.993	20.833	860.915	658.473
310.008	20.839	860.455	658.088
311.022	20.915	859.895	657.887
312.037	20.630	859.122	656.164
313.052	20.476	858.323	654.913
314.066	20.549	857.941	654.841
315.081	20.305	857.357	653.419
316.095	20.639	856.379	653.871
317.110	20.611	855.898	653.340
318.125	20.480	855.156	652.226
319.139	20.484	854.948	652.023
320.154	20.559	854.703	652.058
321.168	20.608	854.314	651.889
322.183	20.703	853.190	651.331
323.197	20.593	853.306	650.950
324.212	20.663	852.779	650.752
325.227	20.556	851.995	649.694
326.241	20.751	850.695	649.372
327.256	20.677	850.440	648.843
328.270	20.521	850.144	647.982
329.285	20.750	849.211	648.066
330.300	20.653	848.607	647.184
331.314	20.591	848.750	647.008
332.329	20.741	848.243	647.121
333.343	20.914	847.823	647.385
334.358	20.971	847.266	647.116
335.373	20.962	847.005	646.826
336.387	20.971	846.909	646.727
337.402	21.154	846.630	647.135
338.416	21.107	846.127	646.520
339.431	21.374	845.749	647.164
340.446	21.344	845.735	646.985
341.460	21.346	845.466	646.727
342.475	21.530	844.738	646.794
343.489	21.546	844.138	646.337
344.504	21.586	843.974	646.302
345.519	21.602	843.495	645.935
346.533	21.475	843.086	645.097
347.548	21.324	841.870	643.553
348.562	21.096	841.359	642.267
349.577	20.983	840.686	641.281
350.592	21.093	839.784	640.941
351.606	21.024	839.050	640.072
352.621	20.953	838.678	639.468
353.635	21.081	838.015	639.375
354.650	21.301	837.075	639.407
355.665	21.214	837.164	639.102
356.679	21.323	836.357	638.826
357.694	21.300	835.622	638.126
358.708	21.052	835.665	637.195
359.723	21.263	834.548	637.059
360.738	21.209	834.055	636.428
361.752	21.365	833.654	636.634
362.767	21.531	833.389	636.981
363.781	21.746	832.482	637.010
364.796	21.729	832.177	636.659
365.810	21.790	831.783	636.523
366.825	21.914	831.612	636.784
367.840	21.890	831.019	636.189
368.854	21.530	830.546	634.466
369.869	21.647	829.848	634.299
370.883	21.611	829.581	633.908
371.898	21.780	829.195	634.168
372.913	21.864	829.030	634.289
373.927	21.633	828.182	632.752
374.942	21.870	827.223	632.817
375.956	21.762	827.229	632.376
376.971	21.979	827.216	633.092
377.986	22.128	826.534	633.053
379.000	22.043	826.214	632.445
380.015	22.126	825.539	632.171
381.029	22.076	824.705	631.297
382.044	22.077	824.297	630.933
383.059	21.961	823.770	630.058
384.073	21.953	823.049	629.420
385.088	21.717	822.484	628.086
386.102	21.643	821.766	627.219
387.117	21.597	821.022	626.429
388.132	21.744	820.458	626.470
389.146	21.691	820.212	626.038
390.161	21.863	819.808	626.286
391.175	21.958	819.388	626.250
392.190	21.903	818.575	625.378
393.205	21.723	818.312	624.482
394.219	21.714	817.891	624.071
395.234	21.553	817.549	623.184
396.248	21.389	816.768	621.948
397.263	21.556	816.026	621.922
398.278	21.471	816.013	621.556
399.292	21.608	815.331	621.466
400.307	21.534	815.037	620.926
401.321	21.568	814.752	620.775
402.336	21.727	814.159	620.830
403.350	21.746	814.142	620.831
404.365	22.028	813.778	621.494
405.380	22.137	813.087	621.297
406.394	22.238	812.457	621.119
407.409	22.298	812.012	620.933
408.423	22.162	812.145	620.503
409.438	22.323	811.973	620.883
410.453	22.450	811.190	620.678
411.467	22.369	810.552	619.851
412.482	22.506	810.142	619.964
413.496	22.666	809.914	620.297
414.511	22.522	809.649	619.533
415.526	22.438	808.851	618.573
416.540	22.355	808.608	618.040
417.555	22.484	807.967	617.947
418.569	22.441	807.592	617.458
419.584	22.441	807.041	616.978
420.599	22.305	806.708	616.195
421.613	162.168	1368.991	1793.545
422.628	141.098	1450.927	1793.657
