DTS Sentinel unit serial number:	SN413079Multiplexer serial number:	ORYXHardware model number:	OX4-SRSoftware version number:	ORYX F/W v4.00 Oryx Data Collector v3.7.2.0data status	okinstallation	princeton_trtdifferential loss correction	single-endedforward channel	channel 1reverse channel	N/Adate	2019/09/12time	16:52:11forward acquisition time	60.00reverse acquisition time	0.00gamma	496.2192k internal	0.2309k external	0.2309temperature offset calibration	1.0095default loss term (dB/km)	0.3790temperature slope calibration	1.0000multiplexer offset coefficient	1.0000multiplexer slope coefficient	1.0000fibre end	0.00T internal ref (°C)	36.14T ext. ref 1 (°C)	2.71T ext. ref 2 (°C)	29.44length (m)	temperature (°C)	Stokes	anti-Stokes-747.200	92.925	0.062	-0.071
-746.185	-66.013	0.168	-0.068
-745.171	48.855	0.051	0.048
-744.156	232.997	-0.081	0.135
-743.142	27.615	0.123	0.105
-742.127	286.477	0.139	0.255
-741.112	-65.972	-0.063	0.025
-740.098	800.000	-0.047	-0.141
-739.083	11.706	0.149	0.116
-738.069	-200.000	-0.000	0.169
-737.054	527.931	-0.107	0.257
-736.039	-117.715	-0.164	0.030
-735.025	-159.112	0.259	0.015
-734.010	25.904	-0.106	0.090
-732.996	-200.000	-0.061	-0.410
-731.981	464.765	-0.086	0.195
-730.966	-48.763	0.341	0.166
-729.952	-200.000	-0.006	0.333
-728.937	-53.992	-0.215	-0.099
-727.923	-43.495	-0.408	-0.209
-726.908	-200.000	0.009	0.208
-725.894	93.158	-0.176	0.202
-724.879	-200.000	0.074	0.368
-723.864	-200.000	0.017	0.204
-722.850	800.000	0.015	-0.055
-721.835	-47.272	0.344	-0.170
-720.821	-68.535	-0.344	0.135
-719.806	-144.062	-0.107	0.010
-718.791	-118.939	-0.109	-0.019
-717.777	101.927	0.108	-0.128
-716.762	-200.000	0.050	0.312
-715.748	117.866	0.110	0.138
-714.733	118.330	-0.115	-0.144
-713.718	-68.683	-0.100	0.039
-712.704	-200.000	-0.039	0.213
-711.689	19.006	0.264	-0.214
-710.675	-189.224	-0.174	-0.002
-709.660	-125.684	0.010	0.001
-708.645	297.379	0.194	0.362
-707.631	-105.235	-0.443	-0.102
-706.616	270.089	-0.160	0.285
-705.602	215.475	0.073	0.118
-704.587	83.074	0.161	-0.177
-703.572	-200.000	0.020	-0.260
-702.558	-66.699	0.187	0.075
-701.543	36.423	0.095	0.085
-700.529	-71.832	0.062	-0.023
-699.514	-15.227	-0.056	-0.036
-698.499	-61.665	-0.054	0.023
-697.485	794.075	-0.018	-0.049
-696.470	-70.452	0.304	0.117
-695.456	-56.493	0.144	0.065
-694.441	-13.994	-0.371	-0.243
-693.426	800.000	0.051	-0.210
-692.412	-200.000	-0.022	0.266
-691.397	-145.734	-0.243	0.022
-690.383	556.553	0.039	0.095
-689.368	800.000	-0.069	-0.286
-688.354	-65.893	0.270	0.109
-687.339	682.567	0.133	0.350
-686.324	-20.969	-0.207	0.128
-685.310	509.859	-0.075	0.177
-684.295	6.383	-0.204	0.153
-683.281	800.000	0.117	-0.509
-682.266	-28.498	-0.175	-0.102
-681.251	-50.082	-0.240	-0.115
-680.237	-200.000	-0.059	0.268
-679.222	187.852	-0.080	-0.121
-678.208	-84.307	0.055	0.018
-677.193	100.305	-0.195	-0.229
-676.178	-120.594	0.147	-0.025
-675.164	-200.000	-0.074	-0.337
-674.149	-103.266	0.210	0.050
-673.135	-200.000	0.029	0.230
-672.120	446.012	0.074	-0.164
-671.105	92.500	-0.134	0.153
-670.091	-61.282	-0.275	-0.117
-669.076	342.448	-0.112	0.221
-668.062	-200.000	0.017	0.166
-667.047	-181.297	-0.186	-0.004
-666.032	-56.092	-0.271	0.122
-665.018	-56.383	0.278	-0.125
-664.003	29.794	0.128	0.111
-662.989	41.728	0.190	-0.174
-661.974	173.646	-0.338	0.494
-660.959	534.600	0.138	0.331
-659.945	-69.617	0.233	-0.090
-658.930	800.000	0.089	-0.265
-657.916	355.751	0.215	0.433
-656.901	482.746	-0.050	0.115
-655.886	-200.000	0.027	-0.162
-654.872	-200.000	-0.008	0.119
-653.857	-14.405	-0.231	0.151
-652.843	208.640	0.166	0.262
-651.828	110.129	-0.123	0.150
-650.814	800.000	0.014	-0.047
-649.799	-29.638	-0.121	0.070
-648.784	-54.770	-0.115	-0.053
-647.770	-86.624	0.415	0.129
-646.755	694.472	0.054	0.143
-645.741	-89.556	-0.087	-0.026
-644.726	800.000	-0.037	0.125
-643.711	317.074	-0.188	0.360
-642.697	-200.000	0.076	0.432
-641.682	-116.240	-0.251	0.047
-640.668	60.816	0.121	-0.122
-639.653	742.374	0.133	-0.360
-638.638	90.206	-0.198	-0.224
-637.624	-200.000	0.024	0.114
-636.609	265.552	0.046	0.081
-635.595	0.426	-0.052	0.037
-634.580	194.000	-0.210	-0.322
-633.565	34.127	-0.231	-0.204
-632.551	-52.761	0.423	0.197
-631.536	-50.361	0.137	0.066
-630.522	-48.661	0.323	-0.157
-629.507	192.197	0.111	0.170
-628.492	54.893	-0.104	-0.101
-627.478	-41.910	0.172	-0.089
-626.463	800.000	0.078	-0.343
-625.449	225.310	0.063	0.103
-624.434	329.813	-0.170	-0.330
-623.419	131.828	-0.045	-0.059
-622.405	354.773	0.017	0.034
-621.390	-22.403	0.181	-0.111
-620.376	44.441	0.178	0.165
-619.361	-69.296	-0.178	-0.069
-618.346	-36.206	0.127	-0.069
-617.332	-135.166	0.383	0.047
-616.317	-14.361	-0.126	-0.082
-615.303	214.187	-0.058	-0.093
-614.288	80.948	-0.238	-0.260
-613.273	38.256	0.243	-0.219
-612.259	-77.992	-0.019	-0.007
-611.244	83.398	0.113	0.125
-610.230	11.277	-0.109	0.085
-609.215	-99.463	-0.343	-0.087
-608.201	198.912	0.188	0.291
-607.186	-59.635	-0.069	0.030
-606.171	-200.000	-0.005	0.146
-605.157	211.737	0.113	0.179
-604.142	-83.101	0.285	0.093
-603.128	328.446	-0.322	0.625
-602.113	8.007	-0.479	-0.363
-601.098	-40.125	0.251	0.132
-600.084	110.824	0.183	-0.222
-599.069	-200.000	0.000	-0.170
-598.055	257.017	-0.134	-0.233
-597.040	-66.776	0.117	-0.047
-596.025	-200.000	0.020	-0.424
-595.011	800.000	-0.052	-0.209
-593.996	269.761	0.018	-0.032
-592.982	64.941	-0.209	-0.213
-591.967	-84.579	-0.204	-0.065
-590.952	79.886	-0.103	-0.111
-589.938	800.000	-0.083	0.311
-588.923	-71.748	-0.073	-0.028
-587.909	412.627	-0.098	0.211
-586.894	457.378	0.073	-0.164
-585.879	145.893	0.160	-0.216
-584.865	800.000	0.085	-0.316
-583.850	-128.237	0.178	-0.026
-582.836	-73.250	-0.187	-0.069
-581.821	800.000	0.022	0.063
-580.806	-77.350	-0.212	-0.075
-579.792	318.701	0.188	-0.359
-578.777	491.097	-0.051	0.119
-577.763	41.315	-0.234	-0.214
-576.748	770.061	-0.042	-0.116
-575.733	-10.441	-0.344	-0.230
-574.719	-17.555	0.206	0.131
-573.704	-46.449	0.058	0.029
-572.690	-200.000	-0.028	-0.176
-571.675	-70.858	0.069	0.026
-570.661	35.382	-0.043	0.038
-569.646	-84.603	-0.143	0.045
-568.631	-7.397	-0.204	0.139
-567.617	-75.537	-0.154	-0.055
-566.602	800.000	0.050	0.144
-565.588	-50.739	0.451	-0.214
-564.573	18.699	0.249	-0.201
-563.558	72.771	-0.183	0.192
-562.544	-55.067	0.266	0.121
-561.529	-200.000	-0.041	-0.219
-560.515	2.024	-0.269	-0.196
-559.500	-65.017	-0.398	-0.162
-558.485	9.299	-0.131	-0.100
-557.471	-200.000	-0.064	-0.286
-556.456	424.642	0.075	-0.162
-555.442	418.812	-0.061	0.132
-554.427	211.849	-0.107	0.170
-553.412	-129.760	0.068	0.009
-552.398	-200.000	0.032	0.345
-551.383	-158.599	-0.271	0.016
-550.369	-117.483	0.064	0.012
-549.354	15.985	0.363	-0.289
-548.339	436.803	-0.042	-0.093
-547.325	-2.222	-0.231	0.163
-546.310	-50.764	0.167	-0.079
-545.296	-69.017	0.146	0.057
-544.281	146.771	-0.188	0.255
-543.266	104.576	0.158	0.188
-542.252	-200.000	-0.012	0.433
-541.237	119.423	0.147	0.184
-540.223	31.334	-0.481	-0.416
-539.208	433.358	0.059	0.130
-538.193	-183.034	-0.266	-0.005
-537.179	32.632	0.141	0.123
-536.164	-200.000	-0.004	-0.061
-535.150	-200.000	-0.108	0.481
-534.135	37.219	-0.276	0.247
-533.121	-105.892	-0.365	-0.083
-532.106	-44.705	0.160	-0.080
-531.091	800.000	-0.083	-0.244
-530.077	800.000	0.033	-0.116
-529.062	459.394	-0.086	-0.192
-528.048	701.966	0.097	0.256
-527.033	-200.000	0.011	-0.243
-526.018	225.338	0.029	-0.047
-525.004	-200.000	0.042	-0.261
-523.989	800.000	0.106	-0.372
-522.975	448.914	0.239	0.531
-521.960	586.346	-0.081	-0.202
-520.945	-96.336	0.156	-0.042
-519.931	484.604	0.149	-0.342
-518.916	192.687	0.221	0.336
-517.902	209.306	-0.061	-0.096
-516.887	336.126	-0.150	0.293
-515.872	344.839	-0.122	-0.241
-514.858	-50.198	-0.040	0.019
-513.843	-48.294	0.253	-0.123
-512.829	179.913	0.104	0.153
-511.814	-115.892	0.115	-0.022
-510.799	163.349	-0.145	0.205
-509.785	-50.749	-0.412	-0.195
-508.770	-200.000	0.005	0.114
-507.756	17.942	-0.209	0.167
-506.741	662.496	-0.045	-0.118
-505.726	800.000	-0.141	-0.412
-504.712	94.083	-0.168	-0.192
-503.697	27.696	-0.282	0.239
-502.683	-136.479	0.201	0.023
-501.668	-130.130	-0.204	0.028
-500.653	800.000	0.024	-0.084
-499.639	-109.343	-0.219	0.047
-498.624	-44.337	0.281	0.142
-497.610	239.373	0.096	0.160
-496.595	-113.303	-0.251	-0.050
-495.581	-129.952	-0.320	0.044
-494.566	800.000	-0.019	0.067
-493.551	-144.324	-0.317	-0.030
-492.537	8.556	0.110	-0.083
-491.522	203.361	-0.074	-0.115
-490.508	-200.000	0.007	-0.152
-489.493	-147.216	0.284	0.024
-488.478	-128.844	-0.342	-0.048
-487.464	-129.355	-0.164	0.023
-486.449	-5.682	0.090	0.062
-485.435	-118.452	0.161	0.029
-484.420	800.000	-0.046	0.143
-483.405	-122.893	-0.249	0.040
-482.391	-98.000	0.271	0.070
-481.376	-200.000	0.035	0.308
-480.362	-56.649	0.332	-0.148
-479.347	-61.868	0.301	0.126
-478.332	-200.000	0.016	0.505
-477.318	-200.000	-0.042	0.211
-476.303	-140.776	0.240	0.025
-475.289	-160.195	-0.180	0.010
-474.274	38.568	0.125	-0.112
-473.259	-200.000	0.014	-0.348
-472.245	311.563	0.069	-0.130
-471.230	18.548	0.263	-0.211
-470.216	-147.884	0.226	0.019
-469.201	-118.125	-0.237	-0.042
-468.186	121.001	-0.209	-0.261
-467.172	459.137	0.085	-0.190
-466.157	28.686	-0.243	0.207
-465.143	800.000	0.025	0.086
-464.128	800.000	0.069	0.255
-463.113	81.519	0.084	-0.092
-462.099	18.779	0.081	-0.065
-461.084	287.074	0.134	0.244
-460.070	131.375	-0.076	-0.098
-459.055	-200.000	0.004	0.080
-458.040	226.383	0.030	0.049
-457.026	8.789	-0.138	0.104
-456.011	-200.000	0.013	0.167
-454.997	-200.000	0.060	0.322
-453.982	-200.000	-0.041	-0.236
-452.968	-46.652	-0.372	0.183
-451.953	-121.971	-0.067	-0.011
-450.938	415.127	0.149	-0.319
-449.924	-5.400	-0.601	-0.414
-448.909	-200.000	-0.023	-0.115
-447.895	213.974	0.149	0.237
-446.880	124.485	0.122	0.155
-445.865	-92.869	0.272	-0.076
-444.851	371.589	0.127	0.259
-443.836	212.870	0.136	0.216
-442.822	43.519	-0.089	0.082
-441.807	99.972	-0.215	0.251
-440.792	800.000	-0.049	-0.213
-439.778	-100.459	-0.285	-0.071
-438.763	8.316	0.076	0.057
-437.749	215.961	-0.054	0.086
-436.734	382.048	-0.064	-0.131
-435.719	-54.803	-0.197	-0.089
-434.705	-5.447	0.299	0.206
-433.690	-90.438	-0.239	-0.070
-432.676	60.529	0.169	0.168
-431.661	-71.053	-0.221	-0.083
-430.646	800.000	-0.080	-0.238
-429.632	800.000	0.033	0.119
-428.617	-25.204	0.144	0.086
-427.603	-130.644	-0.121	-0.016
-426.588	-37.732	0.248	0.132
-425.573	282.234	-0.172	0.310
-424.559	-200.000	-0.167	0.000
-423.544	405.092	-0.081	0.171
-422.530	40.429	0.092	-0.083
-421.515	-56.729	-0.241	-0.107
-420.500	196.652	-0.164	0.251
-419.486	490.330	0.129	0.296
-418.471	340.890	-0.085	0.166
-417.457	-143.579	-0.213	-0.020
-416.442	-135.233	-0.033	-0.004
-415.428	-200.000	-0.052	0.293
-414.413	71.582	-0.117	-0.122
-413.398	-107.991	-0.087	-0.019
-412.384	-200.000	-0.019	0.329
-411.369	-200.000	-0.016	0.238
-410.355	179.736	0.167	-0.246
-409.340	151.410	-0.095	0.129
-408.325	-44.649	-0.240	0.120
-407.311	677.328	-0.122	0.317
-406.296	111.295	-0.207	0.250
-405.282	-200.000	-0.054	0.240
-404.267	-200.000	0.012	-0.255
-403.252	161.201	-0.134	-0.187
-402.238	136.841	-0.061	-0.080
-401.223	-95.798	0.489	0.131
-400.209	-200.000	0.020	0.486
-399.194	-97.638	-0.138	-0.036
-398.179	37.675	0.179	0.159
-397.165	363.834	-0.028	-0.057
-396.150	487.183	0.144	0.330
-395.136	-200.000	0.007	-0.080
-394.121	-200.000	-0.019	-0.262
-393.106	800.000	0.057	0.165
-392.092	800.000	0.034	-0.110
-391.077	-3.990	0.062	0.043
-390.063	-59.721	-0.432	0.185
-389.048	-28.459	0.078	-0.045
-388.033	-61.460	-0.114	-0.048
-387.019	15.540	0.030	0.023
-386.004	-71.752	0.235	0.088
-384.990	104.925	-0.227	0.268
-383.975	6.353	0.161	0.120
-382.960	-200.000	0.034	-0.190
-381.946	-7.304	0.066	0.045
-380.931	-156.283	-0.016	0.001
-379.917	-50.119	-0.090	-0.042
-378.902	800.000	0.077	-0.319
-377.888	-54.280	0.200	-0.091
-376.873	585.497	0.170	0.418
-375.858	-200.000	0.045	0.343
-374.844	-12.304	-0.143	0.094
-373.829	-136.331	0.260	-0.030
-372.815	-129.123	-0.245	-0.034
-371.800	222.307	-0.036	0.058
-370.785	-141.248	0.274	-0.028
-369.771	193.200	0.146	-0.221
-368.756	260.215	-0.030	-0.052
-367.742	49.176	0.027	-0.025
-366.727	91.527	0.089	0.100
-365.712	-99.011	-0.187	-0.047
-364.698	786.857	0.056	-0.154
-363.683	-200.000	-0.039	0.354
-362.669	-152.326	0.358	-0.026
-361.654	-163.111	-0.265	-0.013
-360.639	103.814	-0.256	-0.300
-359.625	366.388	-0.135	-0.273
-358.610	-30.243	0.064	-0.036
-357.596	800.000	-0.029	-0.099
-356.581	-68.522	0.143	-0.056
-355.566	55.300	0.040	-0.039
-354.552	84.601	-0.111	0.122
-353.537	-26.820	0.181	0.106
-352.523	478.718	0.021	-0.049
-351.508	196.574	0.164	0.250
-350.493	42.998	0.092	0.084
-349.479	800.000	0.035	0.152
-348.464	-140.863	0.149	-0.015
-347.450	-42.110	0.416	-0.213
-346.435	35.613	-0.185	0.163
-345.420	800.000	0.032	-0.099
-344.406	-45.443	-0.148	-0.073
-343.391	-97.407	-0.347	-0.090
-342.377	-37.274	0.246	-0.132
-341.362	-200.000	-0.071	0.358
-340.348	204.786	-0.075	0.116
-339.333	70.404	0.160	0.165
-338.318	800.000	-0.148	0.432
-337.304	282.627	0.063	-0.113
-336.289	-124.355	0.316	-0.049
-335.275	44.832	0.185	0.171
-334.260	329.009	-0.135	-0.259
-333.245	72.979	0.181	-0.189
-332.231	-151.860	-0.427	0.031
-331.216	48.789	-0.096	-0.090
-330.202	106.992	-0.141	-0.167
-329.187	-81.187	0.135	-0.045
-328.172	193.269	0.228	-0.345
-327.158	-72.955	0.356	0.131
-326.143	-189.863	-0.051	0.001
-325.129	155.576	0.078	0.107
-324.114	-92.080	-0.276	-0.078
-323.099	33.194	-0.247	-0.214
-322.085	-85.146	0.157	0.049
-321.070	-104.271	-0.186	-0.043
-320.056	-55.934	-0.066	0.029
-319.041	9.711	0.148	-0.112
-318.026	-188.099	-0.268	-0.003
-317.012	450.589	0.032	0.071
-315.997	119.361	-0.089	0.110
-314.983	8.501	-0.125	-0.094
-313.968	800.000	0.059	0.191
-312.953	9.787	-0.096	0.073
-311.939	-56.604	0.335	-0.148
-310.924	-100.352	0.056	-0.014
-309.910	-103.557	-0.218	0.051
-308.895	97.242	0.046	-0.053
-307.880	726.093	-0.151	0.403
-306.866	-168.860	-0.257	0.010
-305.851	800.000	0.054	0.217
-304.837	-93.971	0.055	0.015
-303.822	-174.411	0.072	0.002
-302.807	197.410	0.122	-0.187
-301.793	-0.831	-0.363	-0.257
-300.778	-200.000	0.014	-0.251
-299.764	-90.638	-0.117	-0.034
-298.749	63.426	0.231	-0.231
-297.735	-93.333	-0.423	-0.117
-296.720	-200.000	-0.020	0.208
-295.705	-200.000	-0.016	0.102
-294.691	-81.624	-0.251	-0.082
-293.676	-167.413	-0.259	0.010
-292.662	153.430	0.194	-0.265
-291.647	-200.000	-0.027	-0.174
-290.632	-135.131	0.120	-0.014
-289.618	-110.265	0.417	0.087
-288.603	193.845	0.213	-0.322
-287.589	773.006	-0.057	0.155
-286.574	-45.017	-0.210	0.104
-285.559	800.000	0.049	0.176
-284.545	-57.525	-0.281	0.123
-283.530	-24.342	0.135	0.080
-282.516	611.232	-0.056	0.140
-281.501	-124.790	0.122	-0.019
-280.486	-145.178	0.190	0.017
-279.472	-10.459	-0.105	-0.069
-278.457	22.539	-0.091	0.075
-277.443	177.434	-0.154	-0.224
-276.428	419.248	-0.098	-0.209
-275.413	120.720	-0.153	-0.190
-274.399	-200.000	-0.001	0.404
-273.384	-92.233	0.513	0.144
-272.370	-125.941	0.080	0.012
-271.355	800.000	0.129	0.521
-270.340	-103.527	0.096	0.022
-269.326	-116.760	0.323	0.059
-268.311	-104.068	0.272	-0.063
-267.297	590.237	0.094	-0.231
-266.282	7.071	0.189	0.141
-265.267	-71.276	0.112	-0.042
-264.253	-96.937	0.240	0.063
-263.238	-104.254	-0.140	0.032
-262.224	-2.740	0.193	0.135
-261.209	-194.477	0.128	0.001
-260.195	95.364	-0.210	0.239
-259.180	58.063	0.191	0.187
-258.165	-200.000	0.026	-0.115
-257.151	425.067	0.121	-0.259
-256.136	800.000	0.035	0.104
-255.122	800.000	-0.052	-0.186
-254.107	18.627	0.124	0.099
-253.092	800.000	-0.019	-0.058
-252.078	63.060	-0.084	-0.084
-251.063	-140.997	0.058	0.006
-250.049	436.970	-0.119	-0.258
-249.034	42.186	0.108	-0.098
-248.019	392.777	0.118	0.244
-247.005	-120.895	0.485	0.081
-245.990	-45.619	-0.213	-0.105
-244.976	262.189	-0.065	0.111
-243.961	800.000	-0.046	-0.157
-242.946	-200.000	-0.017	0.217
-241.932	-45.837	-0.258	-0.127
-240.917	-63.036	0.088	0.036
-239.903	800.000	-0.095	-0.345
-238.888	394.966	0.057	-0.118
-237.873	-13.603	-0.412	-0.266
-236.859	-200.000	-0.028	0.241
-235.844	9.110	0.347	-0.261
-234.830	-200.000	0.015	0.221
-233.815	134.130	0.227	0.293
-232.800	-110.776	-0.258	-0.053
-231.786	800.000	-0.015	-0.057
-230.771	18.694	-0.149	0.119
-229.757	800.000	0.031	-0.103
-228.742	67.277	-0.234	-0.237
-227.727	-16.886	0.168	-0.106
-226.713	15.053	0.281	0.219
-225.698	485.302	-0.124	-0.281
-224.684	800.000	0.017	0.059
-223.669	138.188	0.049	0.064
-222.655	42.129	-0.044	-0.040
-221.640	0.691	0.119	-0.085
-220.625	254.031	-0.106	0.180
-219.611	418.653	0.023	-0.048
-218.596	774.484	-0.146	-0.396
-217.582	-200.000	-0.030	0.189
-216.567	800.000	0.018	-0.068
-215.552	283.369	0.165	0.294
-214.538	-200.000	-0.050	-0.296
-213.523	-75.445	-0.083	-0.029
-212.509	215.590	0.083	-0.131
-211.494	-13.085	-0.109	0.070
-210.479	-111.056	-0.128	0.026
-209.465	-15.661	-0.189	0.120
-208.450	-76.279	0.262	0.092
-207.436	526.922	0.073	0.170
-206.421	-126.702	-0.143	-0.021
-205.406	-200.000	0.034	0.198
-204.392	-35.521	0.116	0.062
-203.377	551.324	-0.066	-0.157
-202.363	108.024	-0.120	-0.142
-201.348	-100.466	-0.240	0.059
-200.333	-114.512	0.133	-0.025
-199.319	413.197	0.037	0.077
-198.304	-85.268	-0.133	-0.041
-197.290	-115.924	-0.102	0.019
-196.275	73.370	0.197	-0.205
-195.260	-92.826	-0.096	-0.027
-194.246	-200.000	0.046	0.219
-193.231	522.438	0.069	0.162
-192.217	129.272	-0.071	-0.091
-191.202	102.944	0.302	-0.351
-190.187	-42.045	0.297	0.151
-189.173	-186.753	0.382	0.005
-188.158	70.799	0.140	0.144
-187.144	-200.000	-0.023	-0.225
-186.129	687.882	0.080	-0.208
-185.114	-200.000	-0.029	0.167
-184.100	95.481	0.101	-0.114
-183.085	800.000	-0.056	0.176
-182.071	-128.373	0.060	0.008
-181.056	107.801	0.071	-0.084
-180.042	274.390	-0.081	0.142
-179.027	-18.742	-0.365	0.226
-178.012	111.552	-0.138	0.166
-176.998	-44.698	-0.045	0.022
-175.983	800.000	-0.044	0.165
-174.969	365.855	0.148	-0.297
-173.954	800.000	0.079	-0.235
-172.939	776.177	-0.102	-0.275
-171.925	-117.411	-0.172	0.031
-170.910	-152.303	0.155	0.011
-169.896	-200.000	-0.033	-0.151
-168.881	45.210	0.391	-0.358
-167.866	800.000	0.051	-0.160
-166.852	53.492	-0.136	0.129
-165.837	-180.823	0.389	0.008
-164.823	-200.000	-0.010	0.422
-163.808	-85.962	0.296	0.091
-162.793	-200.000	0.027	0.204
-161.779	800.000	-0.114	-0.320
-160.764	60.385	-0.080	0.079
-159.750	125.032	0.107	-0.134
-158.735	164.916	0.134	-0.188
-157.720	224.381	0.131	-0.211
-156.706	-8.303	-0.209	-0.140
-155.691	-147.135	0.152	-0.013
-154.677	-33.876	0.175	-0.096
-153.662	-175.015	-0.140	-0.004
-152.647	-18.451	0.194	-0.120
-151.633	800.000	0.083	-0.244
-150.618	-63.174	-0.064	-0.026
-149.604	-8.203	0.341	-0.228
-148.589	66.449	-0.080	0.080
-147.574	-136.358	0.028	0.003
-146.560	-193.060	-0.186	-0.002
-145.545	131.041	-0.089	0.113
-144.531	109.642	-0.033	-0.039
-143.516	-200.000	0.039	-0.228
-142.502	209.075	-0.115	0.179
-141.487	800.000	0.158	0.501
-140.472	78.278	0.191	0.202
-139.458	-155.914	0.216	0.014
-138.443	-152.178	0.130	0.009
-137.429	-173.112	0.137	-0.004
-136.414	75.886	0.074	-0.077
-135.399	250.582	-0.078	0.132
-134.385	-200.000	0.027	0.462
-133.370	-200.000	0.028	0.149
-132.356	-200.000	-0.028	0.186
-131.341	650.201	0.023	0.057
-130.326	161.333	-0.093	0.129
-129.312	142.957	-0.257	-0.339
-128.297	347.082	-0.126	0.247
-127.283	66.425	-0.157	0.158
-126.268	-30.679	0.209	-0.117
-125.253	-200.000	0.037	0.404
-124.239	94.227	0.091	-0.103
-123.224	-1.799	-0.214	-0.150
-122.210	-158.652	0.187	0.011
-121.195	-152.879	0.324	-0.023
-120.180	225.251	0.053	0.085
-119.166	-79.948	-0.335	-0.111
-118.151	42.111	0.153	0.138
-117.137	245.652	0.039	0.065
-116.122	96.566	-0.146	0.166
-115.107	-95.298	0.368	0.098
-114.093	-105.332	-0.035	-0.008
-113.078	-200.000	0.000	0.119
-112.064	207.332	0.134	0.208
-111.049	-66.205	0.041	-0.016
-110.034	-200.000	0.018	-0.101
-109.020	-105.411	-0.113	0.026
-108.005	-200.000	-0.004	0.153
-106.991	-98.576	-0.121	0.031
-105.976	-85.834	-0.077	-0.024
-104.962	-124.446	-0.275	0.042
-103.947	-74.999	0.195	0.069
-102.932	-146.897	0.416	0.035
-101.918	-41.086	-0.045	-0.023
-100.903	-159.789	-0.163	0.009
-99.889	298.389	-0.174	-0.317
-98.874	7.809	0.084	-0.062
-97.859	-84.819	-0.219	0.068
-96.845	-112.403	-0.357	-0.071
-95.830	-106.652	0.157	-0.035
-94.816	35.299	0.156	0.136
-93.801	447.315	-0.185	0.403
-92.786	196.203	0.124	0.188
-91.772	650.819	0.111	0.280
-90.757	343.880	0.205	0.398
-89.743	62.241	-0.054	0.053
-88.728	7.002	0.136	-0.100
-87.713	-20.494	0.096	0.059
-86.699	60.966	-0.225	-0.221
-85.684	-155.218	-0.186	0.012
-84.670	-200.000	-0.023	0.131
-83.655	374.813	-0.189	0.381
-82.640	262.512	0.055	0.095
-81.626	708.920	0.138	-0.362
-80.611	-19.937	0.313	0.191
-79.597	-102.135	0.175	-0.042
-78.582	381.336	-0.050	-0.102
-77.567	378.321	-0.082	-0.166
-76.553	800.000	0.141	0.522
-75.538	800.000	0.055	0.233
-74.524	-200.000	0.011	0.194
-73.509	554.198	0.039	0.093
-72.494	-120.458	-0.250	-0.042
-71.480	213.170	0.198	0.309
-70.465	-200.000	0.022	0.322
-69.451	58.621	0.140	0.136
-68.436	66.575	0.090	-0.091
-67.422	-200.000	-0.046	0.234
-66.407	127.894	0.075	0.094
-65.392	54.779	-0.229	0.219
-64.378	73.116	0.216	-0.224
-63.363	-200.000	0.044	0.200
-62.349	574.193	-0.040	0.098
-61.334	68.215	-1.019	-1.032
-60.319	-200.000	-0.073	0.535
-59.305	403.064	-0.377	-0.785
-58.290	166.665	0.623	0.873
-57.276	-200.000	0.286	1.780
-56.261	-200.000	94.246	563.847
-55.246	553.375	1370.537	3257.944
-54.232	153.423	2573.181	3483.708
-53.217	117.219	2166.240	2632.735
-52.203	47.868	1625.746	1501.315
-51.188	39.665	1362.671	1208.339
-50.173	36.276	1320.182	1150.455
-49.159	57.731	1368.143	1322.849
-48.144	61.991	1386.925	1366.761
-47.130	40.038	1341.168	1191.332
-46.115	36.169	1323.780	1152.765
-45.100	36.029	1318.629	1147.402
-44.086	36.016	1316.260	1145.218
-43.071	35.979	1314.108	1143.080
-42.057	35.900	1311.835	1140.590
-41.042	35.882	1309.969	1138.817
-40.027	35.945	1308.565	1137.924
-39.013	36.085	1306.539	1136.939
-37.998	36.125	1304.500	1135.357
-36.984	36.046	1303.041	1133.578
-35.969	36.192	1301.261	1132.844
-34.954	36.106	1299.816	1131.032
-33.940	36.173	1298.332	1130.093
-32.925	36.251	1296.718	1129.095
-31.911	36.321	1295.165	1128.112
-30.896	36.277	1293.660	1126.499
-29.881	36.310	1292.581	1125.706
-28.867	36.269	1291.453	1124.439
-27.852	36.220	1290.040	1122.879
-26.838	36.227	1288.524	1121.559
-25.823	36.199	1286.980	1120.004
-24.809	36.306	1285.565	1119.348
-23.794	36.188	1284.249	1117.475
-22.779	36.237	1283.048	1116.668
-21.765	36.113	1281.471	1114.536
-20.750	36.236	1280.243	1114.134
-19.736	36.099	1279.200	1112.393
-18.721	36.035	1278.043	1110.973
-17.706	36.127	1276.871	1110.441
-16.692	36.169	1274.967	1108.979
-15.677	36.134	1273.967	1107.868
-14.663	36.121	1273.037	1106.940
-13.648	36.087	1272.125	1105.910
-12.633	36.018	1271.117	1104.589
-11.619	35.985	1270.270	1103.623
-10.604	36.168	1269.072	1103.585
-9.590	35.991	1268.736	1102.235
-8.575	35.957	1267.610	1101.020
-7.560	36.094	1266.669	1100.942
-6.546	36.116	1266.079	1100.509
-5.531	36.038	1265.288	1099.337
-4.517	36.076	1263.896	1098.295
-3.502	36.069	1263.240	1097.642
-2.487	36.040	1261.949	1096.315
-1.473	35.869	1258.260	1092.096
-0.458	34.155	1241.741	1068.109
0.556	30.422	1221.947	1022.282
1.571	25.858	1226.692	1000.872
2.586	24.655	1241.286	1005.926
3.600	23.736	1230.635	992.074
4.615	17.474	1157.673	900.164
5.629	7.475	1080.026	790.155
6.644	3.098	1058.945	753.261
7.659	2.720	1056.195	749.391
8.673	2.555	1054.648	747.422
9.688	2.468	1053.060	745.802
10.702	2.814	1051.995	746.667
11.717	8.690	1060.227	781.187
12.731	18.747	1074.813	841.387
13.746	24.573	1082.493	875.987
14.761	26.002	1083.747	883.933
15.775	26.087	1083.444	884.025
16.790	25.926	1082.679	882.531
17.804	25.824	1081.926	881.342
18.819	25.937	1081.607	881.557
19.834	26.129	1081.344	882.205
20.848	26.174	1080.928	882.003
21.863	26.194	1080.327	881.534
22.877	26.033	1079.658	880.127
23.892	26.037	1078.627	879.226
24.907	26.129	1078.020	879.103
25.921	26.029	1077.378	878.015
26.936	26.067	1075.934	876.941
27.950	26.045	1074.127	875.288
28.965	25.957	1072.450	873.415
29.980	25.998	1070.752	872.155
30.994	26.262	1069.970	872.717
32.009	26.137	1068.885	871.150
33.023	25.947	1067.846	869.312
34.038	26.035	1067.064	869.022
35.053	26.069	1066.505	868.651
36.067	26.099	1065.400	867.820
37.082	26.262	1065.000	868.202
38.096	26.241	1064.857	867.908
39.111	26.391	1063.480	867.428
40.126	26.183	1062.370	865.448
41.140	25.831	1060.643	862.280
42.155	25.608	1059.304	860.050
43.169	25.799	1058.014	859.839
44.184	25.645	1057.862	858.905
45.199	25.579	1056.454	857.372
46.213	25.719	1055.646	857.304
47.228	25.767	1055.292	857.171
48.242	25.906	1054.314	856.959
49.257	26.033	1053.670	856.965
50.271	26.230	1052.957	857.242
51.286	26.234	1052.045	856.445
52.301	26.183	1050.915	855.208
53.315	26.174	1050.151	854.465
54.330	25.993	1049.293	852.838
55.344	26.061	1048.821	852.701
56.359	25.907	1048.075	851.289
57.374	25.826	1046.866	849.850
58.388	25.838	1046.287	849.361
59.403	25.794	1044.956	848.002
60.417	25.617	1044.373	846.618
61.432	25.851	1043.632	847.046
62.447	25.850	1043.181	846.598
63.461	25.980	1041.819	846.026
64.476	25.869	1041.293	845.003
65.490	25.746	1040.821	843.972
66.505	25.768	1040.126	843.437
67.520	25.773	1039.536	842.905
68.534	25.509	1038.366	840.649
69.549	25.302	1036.577	838.157
70.563	25.196	1036.615	837.623
71.578	25.186	1035.612	836.688
72.593	25.184	1034.564	835.760
73.607	25.233	1034.281	835.685
74.622	25.577	1033.617	836.677
75.636	25.505	1033.488	836.161
76.651	25.463	1032.392	835.004
77.666	25.492	1031.023	833.959
78.680	25.452	1030.933	833.625
79.695	25.672	1029.994	833.815
80.709	25.664	1029.431	833.246
81.724	25.596	1028.772	832.324
82.739	25.722	1027.635	831.913
83.753	26.032	1027.878	833.470
84.768	26.361	1026.634	833.908
85.782	26.469	1025.955	833.778
86.797	26.345	1025.138	832.468
87.812	26.120	1024.201	830.599
88.826	26.291	1023.344	830.616
89.841	26.350	1022.362	830.016
90.855	26.293	1021.508	828.988
91.870	26.256	1020.773	828.150
92.884	26.231	1018.970	826.499
93.899	26.069	1018.658	825.433
94.914	26.239	1018.167	825.736
95.928	26.216	1016.564	824.261
96.943	26.028	1015.051	822.105
97.957	25.643	1014.584	819.898
98.972	25.555	1013.388	818.460
99.987	25.915	1012.545	819.341
101.001	25.975	1012.093	819.175
102.016	25.947	1011.277	818.319
103.030	25.959	1009.960	817.233
104.045	25.804	1009.356	815.970
105.060	25.758	1007.925	814.533
106.074	25.872	1007.125	814.329
107.089	26.177	1006.628	815.233
108.103	26.057	1005.838	813.978
109.118	25.781	1004.145	811.297
110.133	25.776	1003.460	810.645
111.147	25.490	1002.771	808.732
112.162	25.428	1001.393	807.269
113.176	25.726	1000.932	808.166
114.191	25.608	1000.386	807.126
115.206	25.320	999.027	804.665
116.220	25.276	998.448	803.931
117.235	25.414	997.713	803.886
118.249	25.421	997.114	803.363
119.264	25.301	996.225	802.039
120.279	25.366	995.396	801.590
121.293	25.484	994.510	801.333
122.308	25.499	993.704	800.681
123.322	25.432	992.331	799.206
124.337	25.236	991.177	797.333
125.352	24.713	989.666	793.724
126.366	24.709	988.584	792.773
127.381	25.469	988.749	796.201
128.395	25.864	988.318	797.532
129.410	25.936	987.563	797.170
130.424	25.962	986.346	796.233
131.439	26.003	985.733	795.850
132.454	25.831	985.290	794.662
133.468	25.842	984.160	793.729
134.483	26.000	983.341	793.691
135.497	26.177	982.611	793.810
136.512	26.242	981.919	793.468
137.527	26.189	981.181	792.570
138.541	26.221	979.948	791.643
139.556	26.280	979.303	791.311
140.570	26.297	978.763	790.881
141.585	26.482	977.553	790.639
142.600	26.417	976.198	789.190
143.614	26.512	975.919	789.310
144.629	26.542	975.107	788.714
145.643	26.325	973.836	786.674
146.658	26.176	972.442	784.827
147.673	26.090	971.499	783.625
148.687	25.997	970.594	782.421
149.702	25.919	969.438	781.084
150.716	25.925	968.756	780.489
151.731	26.113	968.182	780.772
152.746	26.206	967.638	780.666
153.760	26.373	966.831	780.665
154.775	26.433	966.250	780.390
155.789	26.359	965.385	779.303
156.804	26.365	964.400	778.463
157.819	26.475	963.338	778.009
158.833	26.522	962.942	777.824
159.848	26.600	961.688	777.078
160.862	26.434	960.616	775.430
161.877	26.371	959.895	774.509
162.892	26.381	958.854	773.644
163.906	26.250	957.659	772.050
164.921	26.296	957.242	771.842
165.935	26.422	955.713	771.080
166.950	26.502	954.802	770.616
167.964	26.426	953.959	769.546
168.979	26.259	952.744	767.788
169.994	26.202	952.153	767.000
171.008	26.398	951.778	767.461
172.023	26.503	951.036	767.242
173.037	26.260	949.778	765.132
174.052	26.087	948.885	763.612
175.067	26.235	947.721	763.231
176.081	26.208	947.775	763.095
177.096	26.173	947.356	762.543
178.110	25.797	946.168	759.932
179.125	25.614	945.595	758.634
180.140	25.684	945.192	758.538
181.154	25.977	944.845	759.427
182.169	26.174	944.804	760.153
183.183	26.316	944.447	760.399
184.198	26.208	943.599	759.194
185.213	26.380	942.658	759.090
186.227	26.467	941.842	758.732
187.242	26.349	941.155	757.619
188.256	26.317	940.784	757.118
189.271	26.618	939.991	757.670
190.286	26.036	939.050	754.415
191.300	25.488	937.441	750.764
192.315	24.626	936.351	746.230
193.329	24.742	935.310	745.817
194.344	25.658	935.780	749.943
195.359	26.117	935.774	751.787
196.373	26.339	935.383	752.330
197.388	26.195	934.602	751.038
198.402	26.283	934.309	751.098
199.417	26.323	933.299	750.389
200.432	26.015	932.272	748.218
201.446	25.913	931.770	747.327
202.461	25.831	931.372	746.600
203.475	24.919	929.695	741.416
204.490	24.242	927.799	737.039
205.504	25.082	928.308	740.852
206.519	25.863	927.971	743.745
207.534	25.892	927.989	743.811
208.548	26.332	927.666	745.302
209.563	25.948	926.720	742.895
210.577	26.061	925.935	742.665
211.592	26.493	925.808	744.273
212.607	26.536	925.023	743.755
213.621	26.418	924.397	742.701
214.636	26.468	923.988	742.509
215.650	26.315	923.447	741.383
216.665	26.586	922.399	741.585
217.680	26.584	921.358	740.674
218.694	26.057	920.283	737.592
219.709	26.007	919.586	736.762
220.723	26.240	919.346	737.456
221.738	26.222	919.110	737.131
222.753	26.354	918.121	736.809
223.767	26.310	917.966	736.441
224.782	26.447	917.504	736.563
225.796	26.459	917.191	736.296
226.811	25.878	915.391	732.424
227.826	25.303	914.108	729.000
228.840	25.506	913.251	729.074
229.855	25.570	912.681	728.813
230.869	25.162	912.116	726.646
231.884	25.534	912.169	728.128
232.899	26.191	912.054	730.630
233.913	26.093	911.351	729.610
234.928	25.981	910.810	728.659
235.942	26.106	910.196	728.608
236.957	25.723	909.783	726.665
237.972	25.810	908.672	726.065
238.986	25.857	908.389	725.967
240.001	25.849	907.822	725.413
241.015	26.046	907.138	725.598
242.030	26.089	906.204	724.960
243.045	26.286	905.950	725.483
244.059	26.476	905.489	725.812
245.074	26.184	904.724	723.962
246.088	25.856	903.689	721.759
247.103	26.060	903.630	722.462
248.117	26.740	903.288	724.847
249.132	26.977	903.226	725.681
250.147	27.018	902.703	725.359
251.161	27.037	902.492	725.201
252.176	27.134	901.522	724.746
253.190	27.284	901.122	724.958
254.205	27.331	900.681	724.724
255.220	27.191	900.128	723.658
256.234	27.200	899.033	722.749
257.249	27.079	898.593	721.852
258.263	27.041	898.113	721.251
259.278	27.151	897.254	720.934
260.293	27.298	896.784	721.075
261.307	27.068	896.255	719.674
262.322	26.825	895.297	717.882
263.336	26.233	893.114	713.726
264.351	25.131	891.590	708.096
265.366	25.371	891.204	708.674
266.380	26.353	892.030	713.147
267.395	26.697	891.712	714.186
268.409	26.564	891.054	713.070
269.424	26.848	890.448	713.641
270.439	27.075	889.458	713.677
271.453	27.099	889.380	713.644
272.468	27.102	889.330	713.551
273.482	27.227	888.508	713.320
274.497	26.739	887.435	710.484
275.512	26.459	886.399	708.496
276.526	26.833	886.629	710.082
277.541	26.958	886.162	710.132
278.555	26.793	885.420	708.832
279.570	26.737	884.266	707.625
280.585	26.855	883.894	707.726
281.599	26.642	883.478	706.499
282.614	26.113	881.649	702.915
283.628	26.003	881.631	702.409
284.643	26.486	881.218	703.896
285.657	26.144	880.092	701.608
286.672	25.898	879.221	699.897
287.687	26.462	879.114	701.938
288.701	26.596	878.712	702.075
289.716	26.231	877.613	699.721
290.730	26.105	877.060	698.727
291.745	25.811	876.032	696.710
292.760	26.345	875.706	698.454
293.774	27.226	876.139	702.143
294.789	27.516	876.084	703.156
295.803	27.514	875.546	702.652
296.818	27.549	874.667	702.022
297.833	27.191	873.620	699.742
298.847	26.781	873.317	697.857
299.862	27.208	873.261	699.396
300.876	27.376	873.107	699.855
301.891	27.408	871.891	698.943
302.906	27.000	871.096	696.678
303.920	27.182	870.713	697.007
304.935	27.544	870.293	697.997
305.949	27.431	869.586	696.934
306.964	27.166	868.943	695.345
307.979	27.221	868.610	695.226
308.993	27.581	868.331	696.316
310.008	27.773	867.271	696.140
311.022	27.290	866.836	693.885
312.037	27.269	865.786	692.902
313.052	26.841	864.806	690.427
314.066	26.087	863.378	686.362
315.081	25.750	862.802	684.562
316.095	26.621	863.301	688.209
317.110	27.123	862.895	689.730
318.125	26.317	861.374	685.399
319.139	25.184	859.853	679.835
320.154	25.251	859.770	679.964
321.168	26.294	860.184	684.183
322.183	26.890	860.514	686.641
323.197	26.991	860.052	686.592
324.212	27.227	859.516	686.996
325.227	27.203	859.361	686.722
326.241	26.958	858.650	685.168
327.256	26.810	857.936	683.979
328.270	26.869	857.449	683.753
329.285	26.768	856.260	682.364
330.300	26.574	855.576	681.028
331.314	26.714	855.200	681.197
332.329	27.367	854.923	683.368
333.343	27.290	855.040	683.110
334.358	27.305	854.390	682.589
335.373	27.380	854.003	682.501
336.387	27.521	854.410	683.295
337.402	27.786	853.885	683.807
338.416	27.762	853.309	683.193
339.431	27.862	852.934	683.209
340.446	27.933	852.887	683.374
341.460	27.838	852.436	682.598
342.475	27.663	851.678	681.279
343.489	27.700	851.159	680.941
344.504	27.927	851.462	681.971
345.519	28.155	850.670	682.125
346.533	28.069	850.395	681.525
347.548	28.126	850.149	681.478
348.562	28.094	849.304	680.622
349.577	28.164	848.556	680.224
350.592	28.160	847.686	679.450
351.606	28.145	847.061	678.832
352.621	28.081	845.930	677.631
353.635	27.857	845.496	676.394
354.650	27.180	844.095	672.708
355.665	26.178	842.839	667.943
356.679	26.704	842.313	669.410
357.694	27.162	842.092	670.868
358.708	27.079	841.245	669.825
359.723	27.561	841.354	671.629
360.738	27.692	841.239	671.963
361.752	27.823	840.679	671.938
362.767	28.256	840.247	673.124
363.781	28.493	839.984	673.727
364.796	28.607	839.627	673.798
365.810	28.480	839.443	673.126
366.825	28.497	839.126	672.874
367.840	28.291	837.935	671.104
368.854	27.809	837.352	668.814
369.869	27.933	836.642	668.641
370.883	27.969	836.446	668.554
371.898	27.920	835.759	667.768
372.913	27.913	835.642	667.589
373.927	27.963	834.745	666.998
374.942	28.231	834.827	667.983
375.956	28.251	834.371	667.631
376.971	28.440	833.689	667.714
377.986	28.490	833.854	667.971
379.000	28.500	833.021	667.281
380.015	28.301	832.541	666.110
381.029	28.280	832.099	665.625
382.044	28.490	831.455	665.813
383.059	28.370	830.823	664.813
384.073	28.454	830.139	664.510
385.088	28.363	829.964	663.982
386.102	28.282	828.900	662.778
387.117	28.163	828.384	661.878
388.132	27.895	826.769	659.560
389.146	27.384	826.155	657.167
390.161	27.820	826.207	658.725
391.175	28.146	826.097	659.755
392.190	27.945	824.859	657.983
393.205	26.364	822.776	650.578
394.219	24.968	821.094	644.174
395.234	24.915	820.612	643.548
396.248	26.455	822.353	650.399
397.263	28.017	822.960	656.436
398.278	28.018	822.831	656.281
399.292	27.705	822.107	654.521
400.307	27.656	821.705	653.969
401.321	27.802	821.199	654.032
402.336	28.271	821.196	655.651
403.350	28.649	821.149	656.905
404.365	28.922	820.552	657.348
405.380	29.120	820.594	658.029
406.394	29.244	820.019	657.953
407.409	29.054	819.596	656.880
408.423	29.005	819.101	656.247
409.438	29.256	818.535	656.632
410.453	29.087	818.283	655.768
411.467	29.201	817.853	655.773
412.482	29.151	817.621	655.352
413.496	29.363	817.027	655.569
414.511	29.216	816.916	654.900
415.526	29.201	816.378	654.357
416.540	29.067	815.567	653.173
417.555	28.973	814.614	652.019
418.569	28.882	814.590	651.620
419.584	28.773	813.834	650.574
420.599	28.739	813.073	649.786
421.613	106.743	1281.968	1435.677
422.628	92.256	1350.320	1435.781
