DTS Sentinel unit serial number:	SN413079Multiplexer serial number:	ORYXHardware model number:	OX4-SRSoftware version number:	ORYX F/W v4.00 Oryx Data Collector v3.7.2.0data status	okinstallation	princeton_trtdifferential loss correction	single-endedforward channel	channel 1reverse channel	N/Adate	2019/09/18time	11:18:35forward acquisition time	60.00reverse acquisition time	0.00gamma	496.2192k internal	0.2326k external	0.2326temperature offset calibration	0.9976default loss term (dB/km)	0.3790temperature slope calibration	1.0000multiplexer offset coefficient	1.0000multiplexer slope coefficient	1.0000fibre end	0.00T internal ref (°C)	29.92T ext. ref 1 (°C)	0.41T ext. ref 2 (°C)	27.19length (m)	temperature (°C)	Stokes	anti-Stokes-747.200	-16.656	0.246	-0.157
-746.185	66.420	-0.150	0.154
-745.171	422.142	0.086	-0.185
-744.156	-37.570	-0.317	0.171
-743.142	800.000	0.092	0.265
-742.127	73.326	-0.210	-0.222
-741.112	800.000	-0.053	0.174
-740.098	29.022	0.143	0.122
-739.083	-66.327	-0.189	-0.076
-738.069	405.972	0.204	0.435
-737.054	-17.499	-0.320	0.203
-736.039	-158.070	-0.398	-0.024
-735.025	141.328	0.109	0.146
-734.010	279.792	-0.072	-0.129
-732.996	-2.225	0.123	0.087
-731.981	109.851	-0.108	0.131
-730.966	800.000	-0.014	-0.059
-729.952	-48.451	-0.314	-0.152
-728.937	-83.281	0.135	0.044
-727.923	338.555	-0.088	-0.174
-726.908	-83.056	-0.071	0.023
-725.894	-143.210	-0.146	0.014
-724.879	272.225	-0.041	0.073
-723.864	-200.000	-0.004	-0.163
-722.850	33.761	0.228	0.200
-721.835	317.985	-0.159	-0.304
-720.821	210.741	0.275	-0.435
-719.806	-200.000	-0.006	-0.177
-718.791	225.905	-0.132	0.215
-717.777	-127.722	-0.257	0.037
-716.762	-200.000	-0.027	-0.223
-715.748	118.199	-0.148	-0.184
-714.733	-169.388	0.253	-0.009
-713.718	-179.515	-0.337	0.007
-712.704	-102.197	-0.040	0.010
-711.689	-57.788	-0.059	-0.026
-710.675	-95.556	0.098	0.026
-709.660	34.849	0.089	-0.079
-708.645	800.000	-0.012	-0.038
-707.631	27.414	-0.232	0.197
-706.616	758.447	-0.078	-0.213
-705.602	518.238	-0.054	0.126
-704.587	800.000	-0.092	0.288
-703.572	103.364	-0.402	0.475
-702.558	41.334	-0.088	0.080
-701.543	-99.955	0.190	-0.048
-700.529	800.000	-0.073	-0.228
-699.514	-200.000	0.004	0.131
-698.499	417.786	-0.075	-0.162
-697.485	-52.822	-0.430	-0.200
-696.470	-67.241	0.144	-0.057
-695.456	-200.000	0.005	-0.330
-694.441	-85.555	0.156	-0.049
-693.426	-90.437	0.243	0.071
-692.412	-200.000	-0.030	0.363
-691.397	162.861	-0.030	-0.042
-690.383	68.087	-0.188	0.194
-689.368	-200.000	-0.013	0.150
-688.354	106.067	-0.118	-0.141
-687.339	1.714	-0.216	-0.157
-686.324	-111.701	0.264	-0.054
-685.310	-200.000	-0.070	-0.334
-684.295	-69.132	-0.261	-0.101
-683.281	800.000	-0.051	-0.180
-682.266	146.580	0.172	-0.233
-681.251	91.114	-0.074	0.084
-680.237	-80.354	0.241	0.081
-679.222	800.000	-0.038	-0.121
-678.208	800.000	-0.104	0.300
-677.193	-200.000	0.003	0.291
-676.178	-200.000	0.021	0.116
-675.164	66.233	-0.093	0.095
-674.149	203.733	0.033	-0.052
-673.135	-143.202	0.107	-0.010
-672.120	361.528	0.179	-0.362
-671.105	257.061	0.115	-0.200
-670.091	800.000	-0.042	-0.154
-669.076	-13.249	-0.094	0.062
-668.062	-19.239	-0.226	0.141
-667.047	634.191	-0.105	-0.267
-666.032	752.177	-0.097	-0.262
-665.018	81.770	-0.090	0.098
-664.003	-56.938	0.063	-0.028
-662.989	800.000	0.099	-0.333
-661.974	220.385	-0.038	0.061
-660.959	-31.351	-0.107	-0.061
-659.945	-59.366	0.337	-0.146
-658.930	-9.442	-0.119	-0.080
-657.916	-147.040	0.245	0.021
-656.901	-95.125	-0.073	0.020
-655.886	-141.570	0.381	-0.039
-654.872	-79.507	-0.230	-0.078
-653.857	-200.000	-0.017	-0.203
-652.843	-196.222	-0.237	0.002
-651.828	-200.000	-0.042	0.431
-650.814	-123.282	-0.292	0.047
-649.799	188.944	0.091	-0.137
-648.784	-30.378	-0.131	-0.075
-647.770	121.575	-0.025	-0.032
-646.755	8.006	0.160	-0.121
-645.741	151.527	0.061	0.084
-644.726	-106.915	0.376	-0.084
-643.711	-4.422	0.137	0.095
-642.697	-87.741	0.078	0.024
-641.682	-200.000	-0.016	-0.199
-640.668	-200.000	0.037	-0.229
-639.653	131.737	0.145	-0.187
-638.638	800.000	-0.101	-0.288
-637.624	-19.588	-0.245	-0.152
-636.609	223.408	0.062	0.100
-635.595	63.751	-0.106	0.107
-634.580	-200.000	0.072	0.334
-633.565	800.000	0.037	0.144
-632.551	-131.781	-0.128	0.017
-631.536	310.892	-0.055	-0.104
-630.522	152.035	0.119	0.163
-629.507	71.907	0.066	0.068
-628.492	800.000	0.074	0.207
-627.478	70.887	0.181	0.188
-626.463	-200.000	0.004	-0.047
-625.449	11.305	0.057	0.044
-624.434	-59.100	-0.149	0.065
-623.419	-74.107	0.171	0.062
-622.405	-39.300	0.216	-0.114
-621.390	364.586	0.053	0.108
-620.376	433.515	0.016	-0.034
-619.361	118.617	0.245	-0.304
-618.346	-200.000	0.036	-0.209
-617.332	-85.577	-0.147	-0.046
-616.317	-143.115	0.255	0.025
-615.303	-5.738	-0.160	-0.110
-614.288	-200.000	0.007	0.131
-613.273	-200.000	0.020	0.183
-612.259	-200.000	-0.014	-0.081
-611.244	-91.534	0.357	-0.102
-610.230	470.251	0.065	0.146
-609.215	102.237	0.141	-0.165
-608.201	-46.955	-0.286	-0.140
-607.186	-142.276	-0.163	-0.016
-606.171	-79.519	0.229	0.078
-605.157	150.173	-0.093	0.127
-604.142	-77.479	-0.353	-0.123
-603.128	-200.000	0.023	-0.192
-602.113	800.000	0.055	-0.175
-601.098	-10.888	-0.298	-0.197
-600.084	106.885	0.029	-0.035
-599.069	-54.947	-0.271	-0.123
-598.055	800.000	-0.101	-0.378
-597.040	-15.804	-0.206	-0.132
-596.025	-200.000	0.072	-0.328
-595.011	-138.995	-0.098	-0.011
-593.996	-69.161	0.429	0.165
-592.982	222.601	0.084	0.136
-591.967	524.248	0.068	-0.159
-590.952	-124.892	0.176	-0.027
-589.938	-200.000	-0.053	-0.301
-588.923	-35.229	-0.087	-0.047
-587.909	-189.553	-0.257	0.003
-586.894	350.388	0.098	-0.194
-585.879	245.052	-0.099	-0.168
-584.865	-200.000	0.001	-0.185
-583.850	45.337	0.303	0.280
-582.836	3.767	0.100	0.074
-581.821	276.966	0.086	0.154
-580.806	-110.034	-0.137	0.029
-579.792	-200.000	0.037	-0.420
-578.777	498.380	0.120	0.276
-577.763	34.253	0.108	-0.094
-576.748	800.000	-0.012	-0.047
-575.733	401.391	-0.137	-0.287
-574.719	800.000	0.053	0.148
-573.704	-19.659	0.069	-0.043
-572.690	-200.000	-0.044	-0.313
-571.675	284.229	-0.026	0.048
-570.661	305.807	0.115	0.214
-569.646	-200.000	0.007	-0.074
-568.631	291.831	-0.046	0.083
-567.617	800.000	0.100	-0.418
-566.602	-6.943	0.048	0.032
-565.588	800.000	0.063	-0.235
-564.573	-200.000	0.005	0.118
-563.558	501.339	0.021	0.048
-562.544	-148.320	-0.042	0.003
-561.529	800.000	-0.057	-0.176
-560.515	127.908	0.191	0.243
-559.500	-6.289	-0.234	-0.160
-558.485	-8.925	-0.254	-0.171
-557.471	-103.461	-0.160	-0.038
-556.456	108.227	0.160	0.191
-555.442	-90.090	0.116	0.034
-554.427	-200.000	0.055	0.351
-553.412	-62.942	-0.234	0.097
-552.398	-78.414	0.230	0.079
-551.383	-200.000	0.024	-0.124
-550.369	-39.077	0.270	-0.142
-549.354	-139.141	-0.249	0.027
-548.339	-200.000	-0.001	0.455
-547.325	635.642	-0.041	0.103
-546.310	-85.478	-0.242	-0.075
-545.296	71.846	0.053	-0.055
-544.281	-200.000	0.016	-0.176
-543.266	-55.595	0.281	0.126
-542.252	-18.457	-0.275	0.172
-541.237	-183.812	-0.254	0.004
-540.223	-47.537	-0.309	-0.150
-539.208	-46.581	-0.014	-0.007
-538.193	-200.000	-0.076	0.000
-537.179	93.945	-0.260	0.295
-536.164	800.000	-0.086	0.346
-535.150	144.074	0.045	-0.060
-534.135	232.839	0.022	0.036
-533.121	-200.000	0.015	-0.135
-532.106	800.000	-0.105	-0.390
-531.091	800.000	-0.026	0.084
-530.077	276.463	-0.027	0.049
-529.062	800.000	0.067	0.197
-528.048	5.298	0.280	0.207
-527.033	19.092	-0.133	0.107
-526.018	-37.639	0.363	0.193
-525.004	800.000	0.084	-0.269
-523.989	270.772	0.103	-0.180
-522.975	233.448	-0.036	0.060
-521.960	398.115	0.070	0.146
-520.945	138.224	0.240	-0.314
-519.931	800.000	-0.012	0.036
-518.916	-15.118	0.100	-0.064
-517.902	-200.000	-0.180	-0.000
-516.887	-163.889	-0.188	0.009
-515.872	37.943	0.081	-0.072
-514.858	800.000	0.131	0.407
-513.843	778.080	-0.191	-0.521
-512.829	263.425	-0.170	-0.295
-511.814	97.331	-0.214	0.245
-510.799	-200.000	0.067	-0.471
-509.785	-93.741	-0.179	-0.049
-508.770	101.568	-0.081	0.094
-507.756	59.312	0.300	-0.295
-506.741	-71.473	-0.143	0.054
-505.726	800.000	0.012	-0.043
-504.712	-39.675	0.169	0.088
-503.697	141.252	-0.144	-0.191
-502.683	-200.000	0.040	0.243
-501.668	-200.000	0.013	-0.316
-500.653	332.650	-0.094	-0.181
-499.639	-200.000	0.011	-0.193
-498.624	601.891	-0.040	-0.098
-497.610	-138.028	0.224	0.025
-496.595	-123.354	0.109	0.017
-495.581	-100.845	0.196	-0.048
-494.566	-200.000	0.008	-0.218
-493.551	-52.741	-0.082	0.038
-492.537	800.000	-0.031	-0.087
-491.522	-200.000	-0.043	0.235
-490.508	-139.391	-0.305	-0.033
-489.493	181.981	-0.204	0.299
-488.478	603.419	-0.020	-0.049
-487.464	61.854	0.215	-0.213
-486.449	-166.050	-0.150	0.006
-485.435	64.234	-0.180	-0.181
-484.420	-100.520	0.229	-0.057
-483.405	83.910	0.197	0.215
-482.391	473.829	0.169	0.381
-481.376	8.515	-0.258	0.194
-480.362	-61.774	0.393	-0.164
-479.347	-161.520	0.127	-0.007
-478.332	-196.392	-0.351	0.002
-477.318	800.000	-0.124	0.376
-476.303	-109.943	-0.077	0.016
-475.289	101.882	0.056	0.066
-474.274	-200.000	0.002	-0.082
-473.259	-128.951	0.312	0.044
-472.245	-91.918	-0.288	-0.081
-471.230	41.343	0.316	0.286
-470.216	683.494	-0.115	-0.300
-469.201	-200.000	-0.112	0.489
-468.186	199.041	-0.076	0.116
-467.172	87.853	-0.352	0.390
-466.157	737.722	-0.129	0.344
-465.143	800.000	0.070	0.289
-464.128	-23.020	0.193	-0.116
-463.113	-157.108	-0.308	-0.019
-462.099	-200.000	-0.033	0.188
-461.084	-163.613	0.088	-0.004
-460.070	-200.000	0.024	-0.401
-459.055	-200.000	0.033	-0.192
-458.040	-200.000	0.012	0.208
-457.026	21.561	0.166	-0.135
-456.011	58.061	0.182	0.178
-454.997	-167.998	0.050	0.002
-453.982	-43.680	0.020	0.010
-452.968	-179.870	-0.264	0.006
-451.953	-174.061	0.234	0.007
-450.938	-14.504	-0.298	0.191
-449.924	353.821	0.118	0.233
-448.909	-106.177	-0.092	-0.020
-447.895	-181.580	-0.123	0.002
-446.880	-200.000	0.010	-0.207
-445.865	58.132	0.112	-0.110
-444.851	-36.440	-0.206	-0.110
-443.836	-108.366	0.137	-0.029
-442.822	-200.000	-0.033	0.263
-441.807	-79.080	-0.218	0.074
-440.792	-64.396	-0.222	-0.090
-439.778	731.299	0.030	0.081
-438.763	-160.987	0.357	-0.019
-437.749	119.729	-0.203	0.250
-436.734	-62.448	-0.154	-0.064
-435.719	112.637	0.199	-0.240
-434.705	68.169	0.092	0.094
-433.690	800.000	-0.033	0.101
-432.676	800.000	-0.004	-0.013
-431.661	-79.217	-0.414	0.140
-430.646	44.379	-0.273	0.250
-429.632	199.291	0.120	0.183
-428.617	265.219	0.134	0.233
-427.603	-76.986	-0.223	0.078
-426.588	-200.000	0.006	0.027
-425.573	800.000	0.028	0.117
-424.559	263.186	0.184	0.318
-423.544	-131.260	-0.268	-0.035
-422.530	-200.000	-0.019	0.096
-421.515	-200.000	0.010	-0.133
-420.500	-122.776	-0.293	0.047
-419.486	-200.000	0.021	-0.134
-418.471	116.775	-0.216	0.264
-417.457	49.276	0.094	0.088
-416.442	-36.184	-0.256	0.138
-415.428	310.883	-0.042	0.079
-414.413	217.896	0.260	-0.414
-413.398	800.000	0.063	-0.176
-412.384	-77.732	-0.402	-0.138
-411.369	800.000	0.126	0.382
-410.355	13.806	-0.248	0.192
-409.340	-40.730	-0.236	-0.122
-408.325	-26.738	0.226	0.132
-407.311	133.119	-0.171	0.219
-406.296	-28.192	0.380	0.219
-405.282	81.672	0.093	-0.101
-404.267	-200.000	-0.006	-0.166
-403.252	245.562	0.149	-0.249
-402.238	66.006	-0.083	0.084
-401.223	-136.170	0.430	0.050
-400.209	46.884	0.163	0.151
-399.194	-50.226	0.393	-0.185
-398.179	37.434	-0.227	-0.200
-397.165	-110.812	0.046	0.010
-396.150	800.000	0.075	0.249
-395.136	71.379	0.207	0.214
-394.121	31.218	-0.238	-0.203
-393.106	-20.391	-0.090	0.055
-392.092	-85.641	0.272	0.084
-391.077	118.110	-0.089	0.109
-390.063	-200.000	0.006	-0.156
-389.048	566.805	0.065	-0.158
-388.033	515.152	0.086	0.200
-387.019	346.794	-0.074	0.145
-386.004	-100.000	-0.129	0.032
-384.990	458.884	-0.075	-0.166
-383.975	666.099	0.069	-0.178
-382.960	-200.000	-0.005	0.192
-381.946	81.899	0.140	0.151
-380.931	800.000	0.090	-0.249
-379.917	23.053	0.200	-0.163
-378.902	-27.508	-0.150	-0.087
-377.888	18.485	0.288	-0.229
-376.873	20.583	0.119	0.096
-375.858	-200.000	0.028	0.236
-374.844	-200.000	0.021	-0.103
-373.829	-200.000	-0.029	-0.319
-372.815	-124.109	-0.358	0.056
-371.800	-46.497	-0.186	0.091
-370.785	-79.831	0.197	-0.066
-369.771	28.606	0.142	-0.119
-368.756	-61.983	0.209	-0.087
-367.742	74.864	-0.138	-0.145
-366.727	276.592	-0.129	-0.228
-365.712	-155.789	0.087	0.006
-364.698	-35.195	0.146	0.079
-363.683	-200.000	0.013	-0.470
-362.669	11.365	0.047	0.036
-361.654	-142.259	0.354	0.035
-360.639	-200.000	0.012	0.135
-359.625	96.356	0.195	-0.222
-358.610	-22.536	0.304	-0.183
-357.596	-115.641	-0.424	-0.079
-356.581	-78.486	-0.335	0.114
-355.566	800.000	-0.042	0.180
-354.552	-200.000	0.021	-0.103
-353.537	791.979	-0.087	-0.239
-352.523	-200.000	-0.044	0.322
-351.508	-101.109	0.230	-0.056
-350.493	-121.256	-0.206	-0.034
-349.479	-122.616	0.094	0.015
-348.464	45.995	-0.036	-0.033
-347.450	278.471	-0.112	-0.198
-346.435	-59.573	-0.056	0.024
-345.420	-110.188	0.346	0.072
-344.406	-137.994	-0.311	0.034
-343.391	41.473	0.061	0.055
-342.377	354.049	0.144	0.283
-341.362	299.042	-0.079	0.144
-340.348	-61.027	0.027	-0.011
-339.333	800.000	-0.036	0.130
-338.318	-19.292	0.066	-0.040
-337.304	800.000	-0.055	-0.173
-336.289	-79.314	-0.331	0.111
-335.275	800.000	-0.057	0.188
-334.260	-35.910	-0.321	0.173
-333.245	145.568	0.132	-0.175
-332.231	-103.649	0.250	-0.058
-331.216	-20.633	-0.076	0.046
-330.202	444.043	-0.167	0.363
-329.187	-45.419	-0.127	0.063
-328.172	-111.881	-0.245	0.049
-327.158	266.622	0.222	-0.384
-326.143	800.000	0.048	0.189
-325.129	-159.051	-0.148	0.008
-324.114	-31.088	-0.188	0.105
-323.099	760.050	-0.032	-0.087
-322.085	-124.249	0.034	-0.005
-321.070	800.000	0.017	0.072
-320.056	-99.499	0.233	-0.058
-319.041	179.503	-0.078	-0.113
-318.026	63.964	-0.099	-0.098
-317.012	-145.223	-0.131	0.012
-315.997	-90.813	0.283	-0.081
-314.983	-200.000	0.047	-0.385
-313.968	84.611	-0.201	-0.219
-312.953	-200.000	-0.023	0.294
-311.939	-146.069	0.131	0.011
-310.924	131.509	-0.244	-0.311
-309.910	-40.044	-0.171	-0.088
-308.895	80.941	0.148	0.158
-307.880	710.927	0.125	0.328
-306.866	-200.000	-0.068	0.381
-305.851	33.327	0.178	-0.154
-304.837	800.000	-0.085	-0.255
-303.822	-200.000	-0.002	-0.040
-302.807	800.000	0.049	-0.143
-301.793	-28.159	0.236	0.135
-300.778	134.630	-0.064	-0.082
-299.764	-123.965	-0.185	0.029
-298.749	104.679	-0.204	-0.238
-297.735	-113.012	0.218	0.043
-296.720	800.000	0.029	0.102
-295.705	6.571	0.134	-0.099
-294.691	-200.000	-0.064	0.408
-293.676	-200.000	-0.003	0.040
-292.662	-112.484	-0.287	0.057
-291.647	-31.931	-0.214	-0.119
-290.632	-200.000	-0.025	0.419
-289.618	-18.609	0.286	-0.177
-288.603	94.531	0.176	0.199
-287.589	-200.000	-0.032	0.265
-286.574	800.000	-0.066	0.254
-285.559	-166.023	0.256	-0.011
-284.545	18.241	-0.274	-0.217
-283.530	-57.751	-0.146	-0.063
-282.516	-80.464	0.321	-0.106
-281.501	800.000	-0.052	0.180
-280.486	264.515	0.068	0.118
-279.472	800.000	0.025	-0.089
-278.457	-37.570	0.015	-0.008
-277.443	34.174	-0.254	-0.219
-276.428	143.553	-0.086	-0.113
-275.413	314.577	0.080	0.150
-274.399	156.179	-0.191	-0.261
-273.384	131.803	0.122	-0.156
-272.370	145.535	0.205	-0.272
-271.355	121.637	0.071	0.088
-270.340	12.970	-0.169	0.130
-269.326	-200.000	-0.056	-0.357
-268.311	71.594	0.034	-0.035
-267.297	13.500	-0.163	-0.125
-266.282	44.825	0.271	-0.247
-265.267	800.000	-0.012	0.042
-264.253	-200.000	-0.001	-0.408
-263.238	800.000	-0.077	-0.271
-262.224	9.098	-0.063	-0.047
-261.209	649.886	0.113	0.286
-260.195	18.487	0.083	-0.065
-259.180	-137.936	-0.212	0.023
-258.165	-200.000	0.035	-0.230
-257.151	6.402	-0.272	0.200
-256.136	474.995	0.077	0.172
-255.122	22.211	-0.051	0.042
-254.107	97.740	0.115	0.131
-253.092	351.194	0.085	0.166
-252.078	57.473	0.135	-0.131
-251.063	-141.823	0.217	-0.022
-250.049	-62.137	-0.174	0.072
-249.034	-200.000	0.101	0.475
-248.019	26.797	-0.152	-0.126
-247.005	-86.713	-0.033	0.010
-245.990	97.773	0.090	0.103
-244.976	-86.588	-0.293	0.089
-243.961	800.000	-0.017	-0.062
-242.946	52.464	0.105	-0.099
-241.932	-200.000	0.189	-0.001
-240.917	-181.932	-0.245	0.005
-239.903	800.000	0.082	-0.269
-238.888	-200.000	0.022	0.196
-237.873	-99.090	0.150	0.038
-236.859	-15.664	-0.239	0.151
-235.844	-85.371	-0.162	0.050
-234.830	684.572	0.051	0.131
-233.815	189.082	-0.073	0.108
-232.800	-200.000	0.042	0.204
-231.786	800.000	-0.013	0.053
-230.771	-200.000	0.013	-0.413
-229.757	-200.000	-0.018	0.149
-228.742	-102.332	-0.070	0.017
-227.727	-13.817	-0.229	0.146
-226.713	334.755	0.074	0.143
-225.698	512.144	0.146	0.337
-224.684	-200.000	0.006	0.036
-223.669	35.344	-0.332	0.288
-222.655	156.639	-0.102	-0.140
-221.640	-34.139	-0.316	-0.172
-220.625	45.996	-0.034	0.031
-219.611	82.552	-0.155	0.167
-218.596	-89.242	-0.132	-0.039
-217.582	30.824	0.129	0.109
-216.567	529.343	-0.046	-0.107
-215.552	-193.458	-0.103	-0.001
-214.538	-200.000	-0.018	-0.219
-213.523	746.823	0.068	-0.181
-212.509	370.463	0.016	0.033
-211.494	-12.002	-0.201	-0.130
-210.479	567.785	0.099	0.239
-209.465	-47.857	-0.184	-0.088
-208.450	320.353	0.111	-0.209
-207.436	34.964	0.222	0.192
-206.421	745.542	0.085	0.225
-205.406	-8.757	0.137	0.091
-204.392	198.665	-0.085	0.128
-203.377	584.604	0.126	0.306
-202.363	204.481	0.312	-0.477
-201.348	238.954	-0.139	-0.228
-200.333	10.390	-0.262	-0.197
-199.319	-200.000	0.003	-0.364
-198.304	118.885	-0.095	0.116
-197.290	-200.000	0.013	0.416
-196.275	86.899	-0.121	0.132
-195.260	154.141	0.175	-0.237
-194.246	-116.413	0.159	-0.029
-193.231	-190.071	0.135	0.001
-192.217	-80.345	-0.047	0.016
-191.202	159.273	-0.048	0.066
-190.187	86.408	0.253	0.275
-189.173	57.761	0.182	-0.176
-188.158	-26.661	-0.175	0.101
-187.144	-150.744	-0.336	0.025
-186.129	251.814	0.026	0.044
-185.114	379.161	-0.126	-0.255
-184.100	-107.392	-0.194	0.042
-183.085	-21.574	-0.201	0.121
-182.071	-152.943	-0.307	-0.021
-181.056	100.171	-0.116	0.132
-180.042	196.972	0.187	-0.281
-179.027	245.896	0.105	-0.175
-178.012	800.000	0.096	0.268
-176.998	-57.042	0.310	0.135
-175.983	14.977	0.047	-0.037
-174.969	-139.401	0.182	-0.019
-173.954	-124.979	-0.130	-0.020
-172.939	-86.701	0.355	-0.107
-171.925	-72.147	0.265	0.097
-170.910	-25.212	0.306	0.179
-169.896	-51.266	-0.195	0.090
-168.881	708.730	-0.031	0.080
-167.866	236.674	0.128	0.209
-166.852	-120.931	0.053	-0.009
-165.837	204.889	0.017	0.026
-164.823	612.375	-0.095	0.234
-163.808	91.105	-0.218	0.242
-162.793	-18.397	0.222	-0.137
-161.779	329.509	0.175	-0.331
-160.764	197.161	0.104	-0.156
-159.750	25.414	-0.205	0.168
-158.735	-88.729	-0.284	0.083
-157.720	-28.663	0.365	0.207
-156.706	69.825	0.321	-0.326
-155.691	-16.262	0.438	-0.274
-154.677	-200.000	-0.117	-0.625
-153.662	800.000	0.076	0.244
-152.647	33.962	-0.048	0.041
-151.633	800.000	-0.085	0.282
-150.618	621.404	-0.055	0.136
-149.604	204.698	0.184	0.281
-148.589	294.572	0.174	-0.314
-147.574	342.422	-0.096	-0.185
-146.560	195.801	-0.108	-0.161
-145.545	20.789	-0.092	-0.073
-144.531	124.768	-0.039	0.049
-143.516	-121.642	-0.066	0.011
-142.502	800.000	0.062	-0.223
-141.487	-12.668	0.280	-0.180
-140.472	269.940	-0.065	0.113
-139.458	296.807	-0.066	0.119
-138.443	-31.281	-0.247	0.137
-137.429	-198.024	-0.231	0.001
-136.414	325.909	0.106	-0.199
-135.399	119.187	-0.402	0.490
-134.385	-61.756	-0.246	0.102
-133.370	-200.000	0.039	0.184
-132.356	-97.082	0.245	-0.063
-131.341	-38.211	0.146	-0.076
-130.326	37.023	0.099	0.086
-129.312	-81.154	0.105	-0.034
-128.297	-200.000	-0.184	0.000
-127.283	-138.641	-0.183	-0.020
-126.268	128.714	0.214	-0.269
-125.253	-200.000	0.024	0.132
-124.239	-200.000	0.011	0.184
-123.224	-46.048	-0.189	-0.092
-122.210	224.554	0.067	0.107
-121.195	800.000	-0.053	-0.194
-120.180	-161.803	0.229	0.011
-119.166	560.391	0.073	-0.173
-118.151	-74.351	0.194	-0.069
-117.137	-110.151	0.275	-0.057
-116.122	800.000	0.037	0.150
-115.107	-148.818	-0.311	0.025
-114.093	-58.293	0.157	-0.067
-113.078	683.229	0.060	0.155
-112.064	-29.327	0.092	-0.052
-111.049	-88.359	-0.601	0.177
-110.034	-93.529	0.312	-0.085
-109.020	800.000	0.100	-0.335
-108.005	93.505	-0.235	-0.262
-106.991	701.506	-0.030	-0.078
-105.976	110.392	-0.019	0.023
-104.962	-92.239	-0.152	-0.042
-103.947	800.000	0.025	-0.071
-102.932	28.620	0.162	-0.135
-101.918	-200.000	-0.056	-0.245
-100.903	-156.631	0.090	0.006
-99.889	-173.294	0.084	-0.003
-98.874	-67.868	0.374	-0.144
-97.859	-5.416	0.391	0.264
-96.845	657.034	-0.068	0.171
-95.830	-62.650	0.295	-0.120
-94.816	-22.821	0.124	0.074
-93.801	-167.728	0.046	0.002
-92.786	800.000	-0.157	-0.429
-91.772	800.000	-0.047	0.198
-90.757	-128.174	0.055	-0.008
-89.743	530.245	-0.039	0.091
-88.728	250.283	0.122	-0.203
-87.713	353.255	0.141	-0.276
-86.699	165.825	-0.103	-0.144
-85.684	-21.451	0.226	-0.135
-84.670	88.109	0.124	-0.135
-83.655	-200.000	-0.014	-0.103
-82.640	-97.974	-0.129	-0.033
-81.626	-200.000	-0.005	0.084
-80.611	144.639	0.067	0.088
-79.597	-71.390	0.129	0.048
-78.582	379.943	-0.072	0.144
-77.567	135.415	-0.100	0.128
-76.553	223.654	-0.156	-0.248
-75.538	119.892	0.095	-0.116
-74.524	-200.000	0.028	0.130
-73.509	-172.922	0.405	0.012
-72.494	-200.000	-0.007	-0.193
-71.480	-141.647	0.173	-0.017
-70.465	271.429	0.125	0.216
-69.451	-200.000	-0.029	0.171
-68.436	58.212	-0.207	-0.199
-67.422	-9.828	0.471	0.308
-66.407	52.095	0.189	-0.177
-65.392	-14.553	-0.121	-0.076
-64.378	-200.000	-0.003	-0.188
-63.363	-135.917	-0.421	-0.049
-62.349	-155.830	-0.289	0.018
-61.334	75.901	-1.109	-1.151
-60.319	75.001	0.127	0.132
-59.305	468.061	-0.506	-1.115
-58.290	180.411	0.758	1.092
-57.276	326.758	0.847	1.594
-56.261	-200.000	102.944	568.306
-55.246	452.864	1467.667	3187.856
-54.232	146.151	2669.655	3517.061
-53.217	107.211	2191.003	2557.011
-52.203	41.864	1627.174	1448.683
-51.188	33.443	1359.201	1158.818
-50.173	30.255	1316.912	1103.791
-49.159	53.061	1367.780	1285.246
-48.144	54.029	1384.485	1306.757
-47.130	33.467	1341.082	1143.332
-46.115	30.071	1322.859	1107.496
-45.100	29.880	1318.045	1102.288
-44.086	29.847	1315.215	1099.677
-43.071	29.790	1313.180	1097.596
-42.057	29.725	1311.216	1095.528
-41.042	29.782	1309.355	1094.264
-40.027	29.940	1307.494	1093.597
-39.013	29.931	1305.755	1092.046
-37.998	29.937	1303.727	1090.344
-36.984	29.981	1301.952	1089.075
-35.969	29.909	1300.941	1087.762
-34.954	29.995	1298.665	1086.323
-33.940	29.981	1297.526	1085.245
-32.925	30.001	1295.819	1083.889
-31.911	30.011	1294.699	1082.972
-30.896	29.996	1293.469	1081.809
-29.881	30.028	1291.501	1080.306
-28.867	30.084	1290.253	1079.549
-27.852	29.994	1288.757	1077.731
-26.838	30.067	1287.163	1076.776
-25.823	29.981	1286.284	1075.499
-24.809	30.052	1285.017	1074.810
-23.794	29.964	1283.732	1073.183
-22.779	29.996	1282.029	1071.902
-21.765	30.071	1280.705	1071.186
-20.750	30.074	1279.229	1069.928
-19.736	29.933	1278.239	1068.239
-18.721	29.880	1277.347	1067.147
-17.706	29.870	1275.887	1065.826
-16.692	29.940	1274.249	1064.819
-15.677	29.867	1273.696	1063.894
-14.663	29.826	1272.579	1062.685
-13.648	29.859	1271.510	1061.940
-12.633	29.801	1270.556	1060.768
-11.619	29.884	1269.411	1060.247
-10.604	29.749	1268.832	1058.949
-9.590	29.805	1267.569	1058.169
-8.575	29.689	1266.553	1056.616
-7.560	29.842	1265.491	1056.563
-6.546	29.741	1265.076	1055.598
-5.531	29.820	1264.175	1055.257
-4.517	29.834	1263.040	1054.345
-3.502	29.796	1262.529	1053.661
-2.487	29.824	1261.630	1053.030
-1.473	29.968	1257.499	1050.358
-0.458	28.986	1243.083	1032.760
0.556	24.348	1226.433	997.102
1.571	21.016	1233.466	983.968
2.586	20.021	1248.157	989.916
3.600	19.296	1235.881	975.988
4.615	14.102	1161.029	889.092
5.629	5.090	1084.368	785.135
6.644	0.712	1063.770	748.501
7.659	0.373	1061.664	745.280
8.673	0.266	1060.897	744.146
9.688	0.310	1059.436	743.275
10.702	0.570	1057.638	743.224
11.717	5.755	1064.514	773.631
12.731	13.939	1074.981	821.809
13.746	17.127	1078.619	840.320
14.761	17.108	1077.529	839.303
15.775	16.207	1076.490	833.966
16.790	15.223	1073.832	826.981
17.804	14.460	1072.317	821.979
18.819	14.167	1070.997	819.451
19.834	13.929	1070.201	817.601
20.848	13.691	1069.292	815.660
21.863	13.336	1068.593	813.310
22.877	13.178	1067.935	811.964
23.892	13.263	1067.217	811.762
24.907	13.126	1066.518	810.487
25.921	13.158	1065.817	810.038
26.936	13.285	1064.161	809.329
27.950	13.328	1063.703	809.119
28.965	13.370	1062.371	808.239
29.980	13.396	1061.037	807.283
30.994	13.407	1060.165	806.601
32.009	13.404	1059.223	805.796
33.023	13.336	1058.096	804.540
34.038	13.340	1057.219	803.821
35.053	13.304	1056.571	803.082
36.067	13.440	1054.986	802.465
37.082	13.312	1054.581	801.464
38.096	13.467	1053.654	801.440
39.111	13.338	1052.836	800.121
40.126	13.496	1051.616	799.886
41.140	13.267	1050.686	798.006
42.155	13.215	1049.495	796.781
43.169	13.173	1048.755	795.943
44.184	13.144	1047.608	794.863
45.199	13.093	1046.874	793.993
46.213	13.319	1045.711	794.122
47.228	13.370	1044.249	793.191
48.242	13.227	1043.518	791.878
49.257	13.235	1042.173	790.827
50.271	13.243	1041.693	790.431
51.286	13.379	1040.903	790.411
52.301	13.285	1039.951	789.169
53.315	13.475	1038.411	788.834
54.330	13.318	1037.581	787.386
55.344	13.350	1036.594	786.720
56.359	13.322	1035.979	786.054
57.374	13.201	1035.343	784.927
58.388	13.184	1034.040	783.787
59.403	13.163	1033.363	783.107
60.417	13.147	1032.768	782.511
61.432	13.137	1032.082	781.874
62.447	13.071	1031.348	780.935
63.461	13.210	1030.127	780.597
64.476	13.145	1028.964	779.344
65.490	13.171	1028.572	779.100
66.505	13.228	1027.712	778.646
67.520	13.200	1027.323	778.151
68.534	13.129	1026.900	777.428
69.549	13.123	1025.860	776.544
70.563	13.244	1024.653	776.131
71.578	13.200	1023.690	775.125
72.593	13.135	1023.316	774.469
73.607	13.111	1022.675	773.804
74.622	13.029	1022.234	773.014
75.636	13.155	1021.471	772.959
76.651	13.035	1020.859	771.866
77.666	13.002	1020.317	771.233
78.680	13.161	1019.315	771.154
79.695	13.126	1018.527	770.325
80.709	13.048	1017.906	769.423
81.724	13.194	1017.355	769.618
82.739	13.254	1016.311	769.038
83.753	13.286	1015.286	768.343
84.768	13.362	1014.994	768.407
85.782	13.345	1014.090	767.578
86.797	13.293	1012.751	766.254
87.812	13.266	1012.176	765.625
88.826	13.273	1011.347	764.964
89.841	13.396	1010.329	764.698
90.855	13.346	1009.354	763.660
91.870	13.383	1008.552	763.154
92.884	13.467	1007.657	762.797
93.899	13.369	1006.948	761.741
94.914	13.548	1005.994	761.777
95.928	13.493	1005.038	760.732
96.943	13.441	1004.442	759.974
97.957	13.420	1003.610	759.181
98.972	13.435	1002.494	758.339
99.987	13.496	1001.578	757.858
101.001	13.470	1000.567	756.905
102.016	13.403	1000.153	756.223
103.030	13.559	998.959	755.962
104.045	13.325	998.496	754.480
105.060	13.280	997.908	753.762
106.074	13.245	996.735	752.649
107.089	13.296	995.656	752.004
108.103	13.354	994.519	751.339
109.118	13.271	993.877	750.411
110.133	13.243	992.906	749.483
111.147	13.309	992.125	749.129
112.162	13.182	991.410	747.949
113.176	13.307	990.769	747.961
114.191	13.430	989.554	747.534
115.206	13.351	989.131	746.791
116.220	13.284	988.403	745.877
117.235	13.255	987.359	744.891
118.249	13.433	986.197	744.748
119.264	13.331	986.073	744.132
120.279	13.201	985.388	742.963
121.293	13.236	984.458	742.356
122.308	13.203	983.575	741.473
123.322	13.313	982.253	740.902
124.337	13.267	981.493	740.059
125.352	13.253	980.451	739.144
126.366	13.306	979.404	738.527
127.381	13.296	978.649	737.850
128.395	13.297	977.395	736.844
129.410	13.336	976.652	736.390
130.424	13.340	976.011	735.860
131.439	13.409	974.731	735.137
132.454	13.439	974.276	734.860
133.468	13.343	973.472	733.764
134.483	13.505	972.313	733.545
135.497	13.297	971.737	732.125
136.512	13.428	970.615	731.790
137.527	13.448	969.965	731.326
138.541	13.449	969.287	730.755
139.556	13.418	968.604	730.040
140.570	13.410	967.949	729.443
141.585	13.553	966.756	729.110
142.600	13.634	966.192	728.975
143.614	13.550	965.558	728.064
144.629	13.637	964.600	727.661
145.643	13.436	963.985	726.248
146.658	13.540	962.540	725.551
147.673	13.517	961.901	724.906
148.687	13.550	960.767	724.133
149.702	13.519	960.287	723.571
150.716	13.475	959.572	722.775
151.731	13.459	958.456	721.800
152.746	13.567	957.613	721.573
153.760	13.579	956.869	720.999
154.775	13.539	957.000	720.863
155.789	13.620	956.301	720.624
156.804	13.577	955.556	719.811
157.819	13.664	954.371	719.233
158.833	13.685	953.972	718.958
159.848	13.759	952.919	718.425
160.862	13.622	952.187	717.214
161.877	13.670	951.353	716.732
162.892	13.757	949.818	715.885
163.906	13.684	948.804	714.744
164.921	13.641	948.744	714.449
165.935	13.673	947.939	713.916
166.950	13.636	947.070	713.044
167.964	13.675	946.315	712.577
168.979	13.727	944.956	711.715
169.994	13.679	944.763	711.298
171.008	13.589	944.181	710.411
172.023	13.687	943.070	709.935
173.037	13.687	942.606	709.522
174.052	13.782	941.403	708.959
175.067	13.778	940.555	708.240
176.081	13.587	940.478	707.306
177.096	13.666	939.586	706.908
178.110	13.808	939.103	707.088
179.125	13.722	938.796	706.425
180.140	13.736	937.976	705.810
181.154	13.788	937.706	705.763
182.169	13.781	937.234	705.317
183.183	14.012	936.310	705.540
184.198	13.889	935.466	704.320
185.213	13.918	934.801	703.879
186.227	13.895	934.088	703.183
187.242	13.963	933.295	702.810
188.256	13.922	933.042	702.387
189.271	14.011	932.061	701.962
190.286	13.803	931.543	700.632
191.300	13.821	930.836	700.111
192.315	13.712	930.548	699.372
193.329	13.810	929.619	699.028
194.344	13.920	928.881	698.873
195.359	13.921	928.271	698.356
196.373	14.073	927.547	698.388
197.388	14.038	927.330	698.017
198.402	14.023	927.072	697.698
199.417	14.171	926.021	697.465
200.432	14.254	925.326	697.227
201.446	14.367	924.640	697.123
202.461	14.216	924.633	696.423
203.475	14.100	924.534	695.803
204.490	14.243	923.065	695.231
205.504	14.165	922.487	694.408
206.519	14.220	921.582	693.894
207.534	14.164	921.293	693.382
208.548	14.070	920.649	692.446
209.563	14.153	919.709	692.021
210.577	14.112	919.241	691.439
211.592	14.263	918.010	691.080
212.607	14.334	917.050	690.587
213.621	14.226	916.765	689.864
214.636	14.287	915.994	689.478
215.650	14.309	915.330	689.005
216.665	14.406	914.420	688.661
217.680	14.356	914.018	688.093
218.694	14.425	913.242	687.733
219.709	14.371	912.888	687.183
220.723	14.463	912.244	687.017
221.738	14.402	911.152	685.879
222.753	14.425	910.569	685.475
223.767	14.557	909.729	685.325
224.782	14.498	909.369	684.752
225.796	14.481	909.296	684.567
226.811	14.511	908.069	683.706
227.826	14.491	907.664	683.258
228.840	14.535	906.538	682.529
229.855	14.457	905.750	681.558
230.869	14.500	905.223	681.274
231.884	14.444	904.639	680.547
232.899	14.607	903.650	680.406
233.913	14.401	903.283	679.233
234.928	14.492	902.475	678.935
235.942	14.529	902.348	678.928
236.957	14.543	901.432	678.235
237.972	14.469	900.752	677.364
238.986	14.483	900.561	677.219
240.001	14.535	899.650	676.685
241.015	14.625	898.757	676.317
242.030	14.662	898.102	675.915
243.045	14.622	897.918	675.552
244.059	14.522	897.088	674.468
245.074	14.664	896.159	674.281
246.088	14.739	895.687	674.168
247.103	14.671	894.553	672.981
248.117	14.782	894.416	673.267
249.132	14.757	894.053	672.832
250.147	14.918	893.147	672.738
251.161	14.838	892.636	671.975
252.176	14.913	891.938	671.690
253.190	15.036	890.924	671.360
254.205	14.853	890.671	670.377
255.220	15.036	889.643	670.276
256.234	15.033	889.224	669.891
257.249	14.954	888.756	669.160
258.263	14.893	887.986	668.280
259.278	15.086	887.137	668.352
260.293	15.032	886.779	667.807
261.307	15.109	886.079	667.528
262.322	15.195	885.719	667.541
263.336	15.124	884.749	666.465
264.351	15.125	884.034	665.874
265.366	15.194	883.709	665.843
266.380	15.113	882.964	664.903
267.395	15.045	882.387	664.139
268.409	15.296	881.212	664.188
269.424	15.186	880.196	662.928
270.439	15.106	879.797	662.257
271.453	15.140	879.380	662.019
272.468	15.195	878.799	661.740
273.482	15.295	877.840	661.352
274.497	15.299	877.361	660.949
275.512	15.142	876.871	659.903
276.526	15.216	876.352	659.746
277.541	15.448	875.513	659.966
278.555	15.345	875.052	659.154
279.570	15.339	874.877	658.941
280.585	15.291	874.023	658.052
281.599	15.357	872.900	657.407
282.614	15.422	872.117	657.012
283.628	15.417	871.737	656.651
284.643	15.456	871.403	656.491
285.657	15.355	870.859	655.632
286.672	15.373	870.380	655.282
287.687	15.315	869.806	654.564
288.701	15.489	868.955	654.544
289.716	15.601	868.284	654.417
290.730	15.436	867.983	653.492
291.745	15.500	866.866	652.843
292.760	15.648	866.295	652.927
293.774	15.738	865.549	652.658
294.789	15.701	864.994	652.036
295.803	15.636	864.407	651.285
296.818	15.608	863.843	650.694
297.833	15.613	862.948	649.981
298.847	15.722	862.373	649.913
299.862	15.554	862.319	649.165
300.876	15.805	861.348	649.348
301.891	15.570	861.218	648.285
302.906	15.633	860.682	648.064
303.920	15.802	860.176	648.280
304.935	16.013	858.808	648.004
305.949	15.876	858.697	647.333
306.964	15.865	857.925	646.651
307.979	15.888	857.577	646.420
308.993	15.821	856.757	645.489
310.008	15.855	856.364	645.266
311.022	15.845	855.699	644.669
312.037	15.970	854.781	644.401
313.052	15.820	854.364	643.455
314.066	15.907	853.971	643.434
315.081	15.824	853.581	642.767
316.095	15.781	852.861	642.004
317.110	15.759	852.360	641.487
318.125	15.988	851.976	642.011
319.139	15.888	851.594	641.287
320.154	15.895	851.051	640.846
321.168	16.002	850.282	640.618
322.183	15.913	849.747	639.821
323.197	15.892	849.522	639.515
324.212	15.980	849.251	639.588
325.227	15.816	848.597	638.418
326.241	16.010	847.397	638.193
327.256	16.069	846.647	637.794
328.270	15.848	846.757	636.986
329.285	16.008	846.242	637.145
330.300	15.994	845.260	636.296
331.314	15.984	844.774	635.837
332.329	16.084	844.535	635.978
333.343	16.145	843.869	635.652
334.358	16.056	843.613	635.065
335.373	15.956	843.044	634.204
336.387	16.110	843.201	634.848
337.402	16.105	842.660	634.366
338.416	16.196	842.278	634.362
339.431	16.229	841.678	633.979
340.446	16.253	841.228	633.674
341.460	16.248	840.689	633.194
342.475	16.366	840.606	633.516
343.489	16.336	840.074	632.950
344.504	16.503	839.465	633.057
345.519	16.414	838.834	632.194
346.533	16.591	838.269	632.372
347.548	16.376	838.015	631.321
348.562	16.473	837.444	631.197
349.577	16.351	836.815	630.212
350.592	16.328	836.464	629.808
351.606	16.427	835.461	629.365
352.621	16.400	834.980	628.847
353.635	16.278	834.468	627.953
354.650	16.318	833.907	627.622
355.665	16.575	833.010	627.847
356.679	16.408	832.521	626.804
357.694	16.447	831.928	626.444
358.708	16.464	831.278	625.962
359.723	16.480	830.792	625.602
360.738	16.537	830.039	625.191
361.752	16.500	829.957	624.934
362.767	16.668	828.820	624.643
363.781	16.624	828.714	624.346
364.796	16.696	828.266	624.218
365.810	16.790	827.616	624.022
366.825	16.676	827.550	623.495
367.840	16.782	826.596	623.111
368.854	16.778	826.291	622.811
369.869	16.839	825.560	622.431
370.883	16.685	825.615	621.851
371.898	16.845	825.001	621.921
372.913	16.938	824.686	621.968
373.927	16.878	823.964	621.150
374.942	16.809	823.745	620.678
375.956	16.849	823.383	620.496
376.971	17.006	822.995	620.724
377.986	16.926	822.503	620.006
379.000	16.938	821.984	619.602
380.015	16.940	821.340	619.070
381.029	16.875	821.157	618.638
382.044	16.992	820.181	618.277
383.059	17.081	819.841	618.288
384.073	16.877	819.441	617.191
385.088	17.102	818.446	617.205
386.102	17.077	817.859	616.615
387.117	17.000	817.538	616.040
388.132	17.148	816.732	615.913
389.146	17.055	816.185	615.110
390.161	17.066	815.838	614.836
391.175	17.119	815.457	614.683
392.190	17.085	814.973	614.143
393.205	17.076	814.460	613.670
394.219	17.149	813.858	613.424
395.234	16.932	814.204	612.847
396.248	17.020	813.482	612.565
397.263	17.113	812.689	612.252
398.278	17.299	812.234	612.526
399.292	17.221	811.803	611.865
400.307	17.182	811.469	611.419
401.321	17.059	811.072	610.624
402.336	17.260	810.383	610.772
403.350	17.186	810.089	610.229
404.365	17.256	809.823	610.229
405.380	17.411	808.850	609.996
406.394	17.295	808.508	609.268
407.409	17.332	808.220	609.130
408.423	17.295	808.177	608.911
409.438	17.379	807.415	608.583
410.453	17.460	807.101	608.584
411.467	17.463	806.393	608.006
412.482	17.631	805.947	608.215
413.496	17.655	805.885	608.201
414.511	17.582	805.302	607.446
415.526	17.486	805.092	606.891
416.540	17.691	804.367	607.023
417.555	17.485	804.110	606.041
418.569	17.544	803.491	605.731
419.584	17.629	803.113	605.693
420.599	17.663	802.475	605.280
421.613	109.487	1293.396	1469.101
422.628	94.290	1364.875	1469.199
