DTS Sentinel unit serial number:	SN413079Multiplexer serial number:	ORYXHardware model number:	OX4-SRSoftware version number:	ORYX F/W v4.00 Oryx Data Collector v3.7.2.0data status	okinstallation	princeton_trtdifferential loss correction	single-endedforward channel	channel 1reverse channel	N/Adate	2019/09/16time	01:46:35forward acquisition time	60.00reverse acquisition time	0.00gamma	496.2192k internal	0.2333k external	0.2333temperature offset calibration	0.9974default loss term (dB/km)	0.3790temperature slope calibration	1.0000multiplexer offset coefficient	1.0000multiplexer slope coefficient	1.0000fibre end	0.00T internal ref (°C)	27.37T ext. ref 1 (°C)	10.01T ext. ref 2 (°C)	22.23length (m)	temperature (°C)	Stokes	anti-Stokes-747.200	-125.642	-0.281	-0.043
-746.185	-48.193	-0.204	0.099
-745.171	315.555	-0.040	0.077
-744.156	252.662	-0.165	-0.283
-743.142	-94.049	-0.283	0.078
-742.127	-154.873	-0.147	0.010
-741.112	59.843	0.044	-0.044
-740.098	723.418	-0.182	0.488
-739.083	-200.000	-0.027	-0.138
-738.069	531.263	-0.179	0.426
-737.054	-50.688	-0.240	0.114
-736.039	79.381	-0.145	-0.156
-735.025	800.000	0.045	-0.177
-734.010	99.228	-0.185	-0.215
-732.996	49.243	-0.035	-0.033
-731.981	231.014	0.020	0.032
-730.966	14.124	0.307	0.240
-729.952	800.000	-0.167	0.491
-728.937	800.000	-0.063	-0.231
-727.923	-98.369	-0.188	0.048
-726.908	-129.064	-0.292	0.041
-725.894	-200.000	0.041	-0.188
-724.879	56.020	-0.029	-0.028
-723.864	-81.677	0.185	-0.061
-722.850	-177.269	0.200	0.005
-721.835	-180.024	-0.337	-0.007
-720.821	-25.666	-0.190	-0.113
-719.806	-200.000	0.016	-0.144
-718.791	-163.372	0.101	0.005
-717.777	800.000	-0.034	0.110
-716.762	-113.022	-0.172	0.034
-715.748	-78.991	0.104	-0.036
-714.733	608.055	-0.054	0.136
-713.718	272.072	-0.084	-0.149
-712.704	-114.837	-0.400	-0.077
-711.689	-58.779	0.304	-0.132
-710.675	-26.064	-0.121	0.072
-709.660	-200.000	-0.032	-0.222
-708.645	370.522	0.055	0.113
-707.631	201.448	0.083	-0.129
-706.616	800.000	0.073	-0.307
-705.602	548.780	-0.095	-0.229
-704.587	-200.000	-0.061	0.399
-703.572	-100.046	-0.140	0.035
-702.558	162.150	0.086	0.121
-701.543	-42.836	0.179	-0.091
-700.529	-12.301	0.200	0.131
-699.514	96.293	0.170	0.195
-698.499	-200.000	-0.072	0.385
-697.485	-200.000	0.021	-0.095
-696.470	100.734	-0.095	0.111
-695.456	-126.054	-0.248	0.037
-694.441	-154.563	0.145	-0.010
-693.426	-66.889	-0.278	0.110
-692.412	134.142	-0.180	-0.233
-691.397	-24.737	0.304	-0.181
-690.383	122.443	-0.278	-0.349
-689.368	70.709	0.196	-0.204
-688.354	444.615	-0.136	-0.299
-687.339	-80.115	-0.108	0.036
-686.324	-45.081	0.204	0.102
-685.310	-126.769	-0.079	0.012
-684.295	388.091	0.128	-0.266
-683.281	-98.926	-0.246	-0.063
-682.266	19.294	0.101	-0.081
-681.251	-198.192	-0.162	-0.001
-680.237	-81.786	0.088	-0.029
-679.222	360.189	0.102	-0.205
-678.208	-1.969	-0.149	0.105
-677.193	-200.000	0.082	0.409
-676.178	-89.969	-0.163	-0.048
-675.164	173.191	0.081	0.118
-674.149	370.031	-0.047	0.095
-673.135	-200.000	0.009	0.436
-672.120	-114.664	-0.124	-0.024
-671.105	21.436	-0.183	0.149
-670.091	-163.797	-0.207	-0.010
-669.076	151.424	-0.059	0.081
-668.062	7.055	-0.108	-0.080
-667.047	-32.897	-0.200	-0.112
-666.032	7.574	-0.060	-0.045
-665.018	-40.209	0.213	0.111
-664.003	-198.785	0.148	0.001
-662.989	-158.678	-0.324	0.019
-661.974	-152.216	-0.421	-0.031
-660.959	559.492	0.043	-0.104
-659.945	-200.000	-0.015	-0.082
-658.930	45.339	-0.100	0.092
-657.916	-200.000	0.037	-0.169
-656.901	-124.488	0.247	-0.039
-655.886	-118.321	0.328	0.058
-654.872	107.995	-0.271	-0.324
-653.857	718.372	0.136	0.363
-652.843	32.864	0.225	0.195
-651.828	800.000	-0.068	-0.193
-650.814	-39.032	-0.040	0.021
-649.799	156.683	-0.024	-0.033
-648.784	800.000	-0.023	0.081
-647.770	-122.530	-0.309	-0.050
-646.755	-200.000	0.320	0.001
-645.741	234.685	0.296	0.488
-644.726	-87.939	0.300	-0.090
-643.711	-165.133	-0.112	-0.005
-642.697	-194.479	0.212	-0.002
-641.682	-200.000	0.008	0.175
-640.668	323.011	-0.217	0.415
-639.653	-142.874	0.265	0.026
-638.638	180.984	0.070	-0.103
-637.624	-21.879	-0.258	0.157
-636.609	51.612	-0.043	-0.041
-635.595	95.668	-0.213	0.243
-634.580	318.551	0.178	-0.337
-633.565	-10.462	-0.183	0.121
-632.551	-55.497	0.134	0.060
-631.536	584.051	-0.012	0.029
-630.522	266.384	-0.111	0.194
-629.507	-200.000	0.033	-0.199
-628.492	-200.000	-0.065	0.328
-627.478	-200.000	0.025	-0.227
-626.463	-60.145	-0.229	-0.098
-625.449	31.857	0.177	0.152
-624.434	-82.857	-0.388	-0.125
-623.419	-152.479	-0.127	-0.009
-622.405	800.000	0.016	-0.048
-621.390	-200.000	-0.014	0.113
-620.376	119.562	-0.127	0.157
-619.361	-48.905	-0.183	-0.088
-618.346	-200.000	0.031	-0.159
-617.332	-118.104	-0.414	0.074
-616.317	46.562	-0.197	-0.183
-615.303	-200.000	0.010	-0.062
-614.288	93.656	-0.141	0.159
-613.273	-127.727	-0.155	-0.022
-612.259	366.964	-0.036	-0.073
-611.244	130.174	0.105	-0.134
-610.230	92.128	-0.269	-0.303
-609.215	-124.255	0.394	-0.062
-608.201	118.890	-0.108	0.133
-607.186	119.653	-0.127	-0.158
-606.171	-8.464	0.059	0.040
-605.157	-76.707	-0.263	-0.092
-604.142	-34.260	-0.139	-0.076
-603.128	-47.276	0.233	-0.113
-602.113	-200.000	-0.001	-0.120
-601.098	263.177	-0.063	0.110
-600.084	186.081	-0.034	0.051
-599.069	-200.000	0.036	0.230
-598.055	323.678	-0.092	0.175
-597.040	-83.695	-0.279	-0.089
-596.025	16.271	-0.143	-0.113
-595.011	800.000	0.080	-0.229
-593.996	800.000	0.068	-0.248
-592.982	-159.387	-0.161	0.009
-591.967	-154.661	0.348	0.023
-590.952	-194.820	-0.392	0.003
-589.938	94.825	-0.190	-0.216
-588.923	-187.505	-0.206	-0.003
-587.909	-73.854	0.104	-0.038
-586.894	-200.000	-0.014	-0.213
-585.879	311.651	0.034	0.063
-584.865	135.491	0.046	-0.060
-583.850	-200.000	-0.021	0.095
-582.836	282.939	0.044	0.080
-581.821	-200.000	0.023	0.212
-580.806	-111.331	-0.529	-0.108
-579.792	0.564	0.319	-0.228
-578.777	16.979	0.129	0.102
-577.763	-200.000	0.023	-0.115
-576.748	-78.626	-0.117	0.040
-575.733	323.538	-0.145	-0.277
-574.719	-61.204	-0.138	-0.058
-573.704	-200.000	0.001	-0.156
-572.690	-80.808	0.329	0.109
-571.675	-200.000	0.008	-0.149
-570.661	-200.000	0.018	0.188
-569.646	-89.216	0.154	-0.045
-568.631	-69.449	-0.080	0.031
-567.617	133.162	0.050	-0.064
-566.602	-12.965	-0.050	-0.033
-565.588	-59.953	0.210	-0.089
-564.573	-35.990	0.397	0.214
-563.558	0.191	-0.090	-0.064
-562.544	-121.804	-0.258	0.043
-561.529	-100.531	-0.307	-0.076
-560.515	-107.686	0.090	-0.020
-559.500	800.000	-0.079	0.284
-558.485	40.999	-0.221	-0.199
-557.471	67.396	0.016	0.016
-556.456	-132.841	-0.212	-0.027
-555.442	-160.717	-0.316	0.017
-554.427	182.919	0.086	-0.127
-553.412	22.322	0.131	0.107
-552.398	800.000	-0.055	0.217
-551.383	-124.890	-0.128	-0.020
-550.369	250.635	-0.149	-0.252
-549.354	222.619	0.152	-0.244
-548.339	37.237	0.132	-0.117
-547.325	800.000	0.080	-0.221
-546.310	622.597	-0.026	-0.065
-545.296	-44.255	-0.145	-0.073
-544.281	-50.288	-0.258	0.122
-543.266	-8.424	-0.085	0.057
-542.252	-94.535	0.553	-0.150
-541.237	24.901	-0.203	-0.168
-540.223	-200.000	0.066	0.521
-539.208	-200.000	0.006	-0.045
-538.193	-170.139	0.078	-0.003
-537.179	-9.232	-0.284	-0.190
-536.164	-152.059	-0.175	0.013
-535.150	-96.437	-0.478	-0.126
-534.135	-135.702	0.203	0.024
-533.121	-103.044	0.444	0.105
-532.106	-92.948	-0.120	0.033
-531.091	495.998	-0.015	-0.035
-530.077	-70.362	-0.151	-0.057
-529.062	748.494	-0.075	0.203
-528.048	-200.000	0.028	-0.173
-527.033	-173.212	-0.153	-0.005
-526.018	392.128	0.159	0.330
-525.004	335.379	0.203	-0.392
-523.989	148.556	-0.119	-0.160
-522.975	-101.706	0.134	-0.032
-521.960	-29.676	0.256	0.146
-520.945	258.625	0.166	0.285
-519.931	315.297	-0.065	0.123
-518.916	172.676	-0.120	-0.172
-517.902	-91.207	-0.204	-0.058
-516.887	-75.614	-0.148	0.053
-515.872	-200.000	-0.049	-0.320
-514.858	-39.897	0.248	0.129
-513.843	179.564	-0.187	0.273
-512.829	-200.000	-0.004	0.031
-511.814	800.000	0.032	0.100
-510.799	345.190	0.195	0.381
-509.785	19.218	-0.107	-0.085
-508.770	-140.735	-0.064	-0.007
-507.756	-200.000	-0.000	-0.030
-506.741	-60.669	-0.188	-0.080
-505.726	-96.776	-0.165	0.043
-504.712	-103.561	-0.172	0.040
-503.697	600.891	0.058	-0.144
-502.683	-93.084	0.141	0.039
-501.668	-14.927	0.138	-0.088
-500.653	-69.245	0.187	0.072
-499.639	-93.021	-0.248	-0.069
-498.624	-8.932	0.101	-0.067
-497.610	-16.799	0.224	-0.141
-496.595	14.276	0.156	-0.121
-495.581	31.050	0.157	0.134
-494.566	15.336	0.145	0.113
-493.551	-200.000	0.002	0.283
-492.537	-200.000	-0.073	-0.329
-491.522	309.611	0.089	-0.166
-490.508	506.623	-0.072	0.166
-489.493	66.560	0.251	0.254
-488.478	61.099	0.067	-0.066
-487.464	29.328	-0.229	-0.194
-486.449	-200.000	-0.036	0.239
-485.435	-62.728	0.372	-0.153
-484.420	79.046	-0.221	0.236
-483.405	450.026	-0.160	-0.351
-482.391	10.745	0.180	-0.137
-481.376	19.157	0.333	0.266
-480.362	786.006	0.074	-0.203
-479.347	98.909	0.036	0.041
-478.332	-87.082	0.282	-0.085
-477.318	287.372	-0.076	-0.137
-476.303	-8.478	-0.226	-0.151
-475.289	27.587	0.149	0.125
-474.274	800.000	0.111	-0.378
-473.259	-64.872	-0.141	-0.057
-472.245	-14.435	-0.333	0.213
-471.230	-200.000	0.012	0.193
-470.216	153.643	-0.124	-0.168
-469.201	197.622	0.016	0.024
-468.186	594.758	0.032	0.078
-467.172	-64.007	-0.265	-0.108
-466.157	-55.874	0.226	0.100
-465.143	800.000	0.106	-0.338
-464.128	-200.000	0.003	0.038
-463.113	-200.000	-0.018	-0.226
-462.099	-29.223	0.258	0.147
-461.084	21.858	0.253	0.205
-460.070	33.092	0.108	0.093
-459.055	25.709	-0.123	-0.101
-458.040	-73.284	0.135	0.049
-457.026	800.000	0.043	0.181
-456.011	444.636	0.195	0.426
-454.997	-200.000	0.013	-0.249
-453.982	-171.435	-0.271	0.009
-452.968	60.886	0.205	0.202
-451.953	239.767	-0.092	-0.152
-450.938	-200.000	-0.017	-0.159
-449.924	-200.000	-0.063	-0.412
-448.909	3.724	-0.254	-0.184
-447.895	-138.039	-0.291	0.032
-446.880	-111.182	0.015	-0.003
-445.865	232.411	-0.074	0.121
-444.851	147.639	0.059	0.080
-443.836	-81.315	0.335	0.110
-442.822	-43.197	0.192	-0.097
-441.807	336.501	0.046	-0.088
-440.792	-11.582	0.090	0.059
-439.778	-62.022	-0.251	-0.104
-438.763	-85.712	0.099	0.031
-437.749	800.000	-0.113	-0.353
-436.734	-70.032	-0.063	0.024
-435.719	800.000	0.070	0.264
-434.705	-200.000	-0.004	-0.020
-433.690	-11.059	0.325	-0.213
-432.676	130.783	-0.043	-0.055
-431.661	107.060	0.190	0.225
-430.646	199.399	0.039	-0.059
-429.632	20.733	-0.213	0.171
-428.617	203.666	0.246	-0.378
-427.603	800.000	0.030	-0.107
-426.588	800.000	0.030	0.128
-425.573	284.889	-0.110	-0.197
-424.559	-200.000	-0.045	0.250
-423.544	-93.082	-0.100	-0.028
-422.530	800.000	0.018	0.072
-421.515	77.532	-0.209	0.221
-420.500	-101.833	-0.248	-0.060
-419.486	145.039	-0.063	0.083
-418.471	373.136	0.097	0.197
-417.457	800.000	-0.062	0.196
-416.442	-120.231	0.178	0.030
-415.428	26.294	0.279	0.232
-414.413	-125.009	-0.200	0.031
-413.398	-200.000	-0.031	-0.179
-412.384	90.952	-0.037	0.041
-411.369	24.772	0.171	-0.141
-410.355	-104.710	0.312	0.071
-409.340	-146.846	-0.343	0.029
-408.325	-8.196	0.065	-0.043
-407.311	-82.853	-0.184	0.059
-406.296	232.357	0.267	0.434
-405.282	-73.850	-0.297	0.107
-404.267	305.097	-0.111	-0.205
-403.252	37.636	0.110	0.096
-402.238	228.233	0.079	-0.127
-401.223	-143.083	0.503	0.048
-400.209	-200.000	0.046	0.257
-399.194	-200.000	0.005	-0.203
-398.179	-103.518	-0.210	0.049
-397.165	-200.000	-0.028	-0.120
-396.150	194.333	-0.144	-0.216
-395.136	-82.314	-0.183	-0.059
-394.121	762.866	0.020	0.054
-393.106	-143.495	0.164	0.016
-392.092	620.312	0.087	-0.218
-391.077	-93.353	-0.158	0.044
-390.063	18.488	0.219	-0.173
-389.048	-200.000	-0.003	0.058
-388.033	-140.325	0.223	0.023
-387.019	800.000	0.064	-0.192
-386.004	559.898	0.205	-0.492
-384.990	-104.662	-0.286	-0.065
-383.975	38.554	-0.284	-0.251
-382.960	-200.000	-0.031	-0.198
-381.946	-200.000	-0.006	-0.098
-380.931	-200.000	-0.042	0.380
-379.917	139.814	-0.118	0.154
-378.902	-36.698	0.220	0.117
-377.888	-3.435	0.149	0.103
-376.873	-82.762	0.160	-0.051
-375.858	509.078	-0.070	0.160
-374.844	800.000	0.025	-0.075
-373.829	-200.000	0.008	0.089
-372.815	183.924	0.041	0.060
-371.800	-200.000	-0.072	-0.441
-370.785	800.000	0.086	0.315
-369.771	21.549	-0.136	-0.110
-368.756	-88.133	0.101	0.030
-367.742	-200.000	0.005	0.214
-366.727	-41.368	-0.276	-0.141
-365.712	45.817	-0.274	0.251
-364.698	138.600	0.119	0.155
-363.683	3.811	-0.316	-0.228
-362.669	-200.000	-0.028	0.125
-361.654	-111.214	-0.183	0.037
-360.639	8.284	0.134	0.100
-359.625	-80.122	0.074	0.025
-358.610	-78.292	0.071	-0.024
-357.596	-200.000	-0.019	0.247
-356.581	-3.734	0.228	-0.157
-355.566	800.000	0.103	0.400
-354.552	283.359	0.152	-0.270
-353.537	800.000	0.101	-0.302
-352.523	612.349	-0.155	-0.385
-351.508	-200.000	-0.019	-0.084
-350.493	431.901	0.094	0.201
-349.479	59.604	0.166	-0.162
-348.464	-200.000	0.047	0.410
-347.450	-200.000	-0.053	-0.375
-346.435	49.826	0.181	-0.169
-345.420	-24.007	-0.244	0.145
-344.406	244.774	0.096	0.160
-343.391	-144.648	-0.222	0.020
-342.377	800.000	0.095	0.306
-341.362	-55.388	0.180	0.080
-340.348	-17.000	-0.077	0.048
-339.333	85.227	-0.244	0.265
-338.318	-34.745	0.176	-0.095
-337.304	-124.103	0.259	0.040
-336.289	-76.217	0.314	0.110
-335.275	143.346	0.126	0.166
-334.260	-5.324	0.058	0.040
-333.245	800.000	0.058	0.159
-332.231	501.237	-0.137	-0.312
-331.216	-141.174	0.227	0.023
-330.202	501.748	0.077	0.177
-329.187	25.338	-0.144	-0.119
-328.172	-164.760	-0.188	-0.008
-327.158	-66.141	0.225	0.089
-326.143	282.396	-0.168	0.298
-325.129	64.406	0.008	-0.008
-324.114	66.268	-0.392	-0.394
-323.099	214.050	-0.118	0.184
-322.085	-65.562	-0.250	0.099
-321.070	429.369	-0.063	0.135
-320.056	800.000	0.107	-0.395
-319.041	-105.739	0.204	0.046
-318.026	445.799	0.026	-0.056
-317.012	549.327	-0.122	-0.288
-315.997	-97.693	0.071	0.018
-314.983	-90.390	-0.407	-0.117
-313.968	-72.101	-0.135	0.050
-312.953	-200.000	-0.001	-0.052
-311.939	-85.741	0.247	0.076
-310.924	105.436	-0.086	-0.100
-309.910	-51.136	-0.072	-0.033
-308.895	41.934	-0.253	-0.227
-307.880	-22.254	-0.099	0.059
-306.866	171.189	-0.161	-0.228
-305.851	-15.004	-0.220	-0.140
-304.837	342.286	-0.130	-0.252
-303.822	579.842	-0.067	0.162
-302.807	-47.981	-0.265	-0.127
-301.793	-60.587	0.304	0.127
-300.778	-152.647	0.342	0.024
-299.764	-95.555	0.232	-0.062
-298.749	800.000	0.091	-0.296
-297.735	33.397	-0.096	-0.082
-296.720	-94.015	0.095	0.026
-295.705	-135.215	-0.316	-0.037
-294.691	-200.000	-0.005	0.033
-293.676	-200.000	-0.007	0.199
-292.662	-200.000	0.019	-0.147
-291.647	-63.371	-0.175	0.071
-290.632	194.015	0.142	-0.212
-289.618	-200.000	0.031	0.178
-288.603	-43.025	-0.123	-0.062
-287.589	669.779	0.090	-0.229
-286.574	800.000	0.130	0.475
-285.559	-61.226	-0.370	0.154
-284.545	345.157	-0.118	0.229
-283.530	-43.354	0.270	0.135
-282.516	218.476	0.068	-0.108
-281.501	-68.973	0.017	-0.007
-280.486	9.499	-0.237	0.177
-279.472	-135.291	0.165	0.020
-278.457	3.004	-0.108	-0.078
-277.443	246.050	0.044	-0.074
-276.428	471.843	-0.127	0.283
-275.413	800.000	0.076	0.259
-274.399	-200.000	-0.024	-0.137
-273.384	30.702	0.061	0.052
-272.370	-119.044	-0.179	-0.031
-271.355	-26.943	0.251	-0.145
-270.340	-200.000	-0.004	0.234
-269.326	-124.095	0.251	-0.039
-268.311	331.032	-0.145	-0.275
-267.297	-17.423	-0.217	-0.135
-266.282	-58.662	0.262	0.112
-265.267	382.172	-0.159	0.322
-264.253	87.977	0.392	-0.429
-263.238	87.275	-0.202	-0.220
-262.224	518.930	-0.050	0.116
-261.209	500.280	0.030	0.068
-260.195	25.460	0.160	-0.131
-259.180	10.704	0.054	-0.040
-258.165	83.601	0.351	-0.377
-257.151	46.965	-0.255	-0.234
-256.136	800.000	-0.038	-0.120
-255.122	-68.728	0.110	-0.042
-254.107	-200.000	0.001	0.225
-253.092	-24.349	0.148	0.087
-252.078	-200.000	-0.063	-0.380
-251.063	204.454	-0.056	0.086
-250.049	47.347	0.092	0.084
-249.034	-82.474	0.383	0.123
-248.019	159.345	0.128	-0.176
-247.005	295.736	0.007	0.013
-245.990	265.544	0.204	-0.350
-244.976	108.330	-0.191	-0.225
-243.961	-5.303	-0.267	0.181
-242.946	-200.000	-0.026	-0.224
-241.932	800.000	0.064	-0.213
-240.917	31.793	0.237	-0.201
-239.903	-200.000	0.009	-0.165
-238.888	-143.775	0.149	0.014
-237.873	-200.000	-0.040	0.485
-236.859	-119.372	0.402	0.069
-235.844	-200.000	0.032	-0.181
-234.830	-111.259	0.190	-0.038
-233.815	194.178	0.069	-0.104
-232.800	-190.474	-0.481	0.005
-231.786	-200.000	0.065	-0.357
-230.771	-17.620	0.083	0.051
-229.757	106.877	0.141	0.165
-228.742	123.381	0.164	0.203
-227.727	-153.627	0.235	-0.016
-226.713	800.000	-0.073	0.264
-225.698	800.000	0.095	0.344
-224.684	-111.694	-0.154	0.031
-223.669	65.918	-0.140	-0.140
-222.655	-99.845	-0.031	0.008
-221.640	-113.838	-0.141	-0.027
-220.625	-57.605	-0.149	0.065
-219.611	-93.981	0.137	-0.037
-218.596	-46.132	0.128	-0.062
-217.582	61.921	0.275	0.270
-216.567	155.205	-0.133	-0.181
-215.552	431.337	0.057	0.121
-214.538	-75.409	-0.239	-0.084
-213.523	459.983	-0.018	0.039
-212.509	800.000	0.031	0.115
-211.494	-25.503	0.104	-0.060
-210.479	-200.000	-0.046	0.232
-209.465	-148.168	0.311	0.025
-208.450	800.000	0.043	-0.159
-207.436	-46.548	-0.193	0.093
-206.421	89.114	-0.086	0.095
-205.406	-15.794	-0.195	0.122
-204.392	34.238	-0.215	-0.185
-203.377	-158.985	0.280	0.016
-202.363	-29.447	-0.156	-0.088
-201.348	-42.604	-0.222	0.111
-200.333	-184.160	0.085	-0.001
-199.319	517.484	-0.045	0.103
-198.304	409.148	0.107	0.222
-197.290	101.980	-0.110	0.126
-196.275	3.864	-0.454	0.327
-195.260	-67.370	-0.341	0.132
-194.246	3.612	-0.151	0.108
-193.231	95.893	0.210	0.236
-192.217	17.786	0.136	-0.106
-191.202	-200.000	0.044	0.255
-190.187	178.299	0.091	0.130
-189.173	-37.231	0.418	-0.220
-188.158	800.000	0.005	-0.016
-187.144	-149.533	0.150	0.012
-186.129	193.605	-0.102	-0.152
-185.114	-200.000	-0.003	0.119
-184.100	800.000	-0.077	-0.328
-183.085	95.741	0.069	-0.077
-182.071	-14.205	-0.065	-0.041
-181.056	-200.000	0.041	0.256
-180.042	-200.000	0.056	-0.276
-179.027	3.676	0.188	0.135
-178.012	27.870	0.086	0.071
-176.998	800.000	-0.054	-0.179
-175.983	337.363	0.043	0.082
-174.969	800.000	0.038	0.116
-173.954	29.093	0.168	0.140
-172.939	-127.228	0.193	-0.028
-171.925	16.799	-0.074	0.058
-170.910	149.554	0.144	-0.192
-169.896	-93.650	-0.272	-0.074
-168.881	677.653	-0.171	0.437
-167.866	35.448	0.058	0.050
-166.852	356.054	0.031	-0.061
-165.837	-65.422	0.277	0.110
-164.823	95.704	-0.234	0.263
-163.808	304.155	0.199	0.363
-162.793	-118.603	0.231	0.040
-161.779	162.479	0.204	-0.282
-160.764	182.968	-0.095	0.138
-159.750	-200.000	0.004	-0.071
-158.735	766.186	-0.071	-0.190
-157.720	-150.811	0.379	-0.028
-156.706	6.493	-0.224	-0.164
-155.691	-139.566	-0.159	0.017
-154.677	-200.000	0.072	0.375
-153.662	-200.000	-0.032	0.330
-152.647	-153.054	-0.051	0.003
-151.633	800.000	-0.065	0.265
-150.618	60.902	-0.215	-0.210
-149.604	272.689	-0.040	-0.070
-148.589	77.516	-0.232	-0.242
-147.574	-16.036	0.354	0.221
-146.560	-133.852	-0.291	0.036
-145.545	800.000	0.110	0.398
-144.531	15.287	-0.277	0.214
-143.516	800.000	0.110	-0.329
-142.502	-17.635	0.458	-0.282
-141.487	-65.805	0.061	0.024
-140.472	-55.168	0.093	-0.041
-139.458	11.127	0.265	0.199
-138.443	-9.607	0.176	0.115
-137.429	-127.807	-0.191	-0.027
-136.414	91.311	-0.226	-0.249
-135.399	-175.079	-0.209	-0.006
-134.385	-200.000	0.023	-0.303
-133.370	-200.000	-0.015	-0.082
-132.356	791.441	0.088	0.236
-131.341	-194.398	0.162	0.001
-130.326	-200.000	-0.011	-0.202
-129.312	17.117	0.107	-0.084
-128.297	-133.781	0.166	0.020
-127.283	106.652	-0.342	0.399
-126.268	41.026	-0.103	0.091
-125.253	800.000	-0.033	-0.125
-124.239	54.415	0.144	0.137
-123.224	800.000	-0.035	0.112
-122.210	800.000	0.085	0.293
-121.195	800.000	-0.098	0.333
-120.180	800.000	-0.049	-0.189
-119.166	-64.557	-0.141	0.056
-118.151	-183.770	0.085	0.001
-117.137	-200.000	-0.007	-0.169
-116.122	-200.000	-0.041	0.267
-115.107	-76.456	0.202	0.070
-114.093	12.643	0.045	-0.034
-113.078	15.071	0.096	-0.074
-112.064	105.515	0.212	-0.246
-111.049	800.000	0.081	-0.230
-110.034	-80.729	0.355	-0.116
-109.020	147.310	-0.116	-0.153
-108.005	-160.784	0.042	0.002
-106.991	6.741	-0.101	0.074
-105.976	-200.000	0.033	0.144
-104.962	14.541	0.235	-0.180
-103.947	-124.970	-0.163	-0.025
-102.932	-200.000	-0.013	0.179
-101.918	-130.707	0.267	-0.035
-100.903	-26.680	-0.214	0.123
-99.889	-84.834	0.444	0.137
-98.874	201.640	0.174	-0.263
-97.859	-28.458	0.231	0.131
-96.845	86.546	-0.247	0.267
-95.830	-157.247	-0.154	-0.009
-94.816	-28.210	0.408	-0.231
-93.801	-80.485	0.078	0.025
-92.786	133.092	0.286	0.362
-91.772	766.694	-0.037	-0.097
-90.757	736.098	-0.040	0.105
-89.743	-139.533	-0.124	-0.013
-88.728	800.000	-0.025	-0.088
-87.713	49.144	0.070	0.064
-86.699	68.066	0.151	0.151
-85.684	-78.481	0.129	0.043
-84.670	-0.130	0.179	-0.125
-83.655	-200.000	0.085	0.368
-82.640	-48.808	-0.128	-0.060
-81.626	-200.000	-0.006	-0.406
-80.611	122.304	0.135	-0.165
-79.597	800.000	0.064	0.194
-78.582	153.802	0.031	-0.041
-77.567	-172.788	-0.090	-0.003
-76.553	511.938	0.051	0.116
-75.538	-73.444	-0.065	0.023
-74.524	800.000	-0.077	0.270
-73.509	663.957	0.151	-0.382
-72.494	368.569	-0.286	-0.566
-71.480	28.939	0.187	0.156
-70.465	-9.108	0.193	0.126
-69.451	-162.505	0.219	0.011
-68.436	-178.001	0.219	-0.005
-67.422	267.481	-0.075	0.128
-66.407	-38.794	0.101	-0.052
-65.392	-17.989	-0.238	-0.146
-64.378	92.693	0.322	0.356
-63.363	81.658	0.182	0.193
-62.349	0.236	-0.145	-0.101
-61.334	45.971	-1.194	-1.082
-60.319	138.467	0.449	0.577
-59.305	-200.000	-0.232	-1.158
-58.290	79.608	0.926	0.973
-57.276	495.652	0.574	1.292
-56.261	-200.000	113.279	642.931
-55.246	475.765	1501.755	3320.221
-54.232	148.663	2664.985	3524.519
-53.217	103.516	2145.351	2464.053
-52.203	38.675	1594.881	1392.809
-51.188	30.559	1342.053	1123.176
-50.173	27.884	1303.366	1075.030
-49.159	55.136	1359.180	1285.410
-48.144	53.880	1373.754	1291.626
-47.130	30.961	1329.846	1115.185
-46.115	27.466	1312.113	1079.600
-45.100	27.384	1306.934	1074.810
-44.086	27.231	1304.843	1072.144
-43.071	27.167	1302.344	1069.672
-42.057	27.148	1300.613	1068.098
-41.042	27.392	1298.120	1067.436
-40.027	27.198	1297.552	1065.791
-39.013	27.256	1295.468	1064.377
-37.998	27.268	1293.642	1062.905
-36.984	27.350	1291.482	1061.565
-35.969	27.479	1289.514	1060.655
-34.954	27.448	1288.349	1059.479
-33.940	27.438	1286.830	1058.130
-32.925	27.360	1285.843	1056.819
-31.911	27.425	1284.251	1055.850
-30.896	27.480	1282.422	1054.619
-29.881	27.574	1280.885	1053.859
-28.867	27.484	1279.775	1052.382
-27.852	27.487	1278.320	1051.165
-26.838	27.418	1277.657	1050.177
-25.823	27.409	1276.064	1048.774
-24.809	27.488	1274.107	1047.581
-23.794	27.398	1273.474	1046.502
-22.779	27.497	1271.841	1045.682
-21.765	27.524	1270.381	1044.600
-20.750	27.508	1269.278	1043.555
-19.736	27.396	1268.023	1041.841
-18.721	27.277	1267.135	1040.394
-17.706	27.444	1265.445	1039.918
-16.692	27.294	1265.140	1038.769
-15.677	27.299	1264.347	1038.103
-14.663	27.371	1262.467	1036.931
-13.648	27.329	1261.002	1035.446
-12.633	27.303	1260.667	1034.984
-11.619	27.268	1259.825	1034.054
-10.604	27.231	1259.239	1033.318
-9.590	27.192	1258.144	1032.161
-8.575	27.326	1256.540	1031.561
-7.560	27.345	1255.494	1030.767
-6.546	27.221	1255.365	1029.918
-5.531	27.393	1253.752	1029.527
-4.517	27.306	1253.585	1028.860
-3.502	27.347	1252.614	1028.250
-2.487	27.295	1251.351	1026.879
-1.473	27.424	1246.631	1023.692
-0.458	25.884	1232.912	1003.818
0.556	21.149	1216.508	968.306
1.571	17.710	1223.067	954.226
2.586	17.159	1237.666	962.413
3.600	17.074	1227.430	953.888
4.615	15.405	1160.206	892.695
5.629	11.879	1093.681	823.721
6.644	10.059	1077.141	802.167
7.659	10.078	1074.089	799.920
8.673	9.974	1073.161	798.645
9.688	9.919	1072.243	797.619
10.702	10.057	1069.774	796.393
11.717	12.256	1071.686	808.587
12.731	15.886	1076.224	829.864
13.746	17.623	1078.653	840.235
14.761	17.525	1077.629	838.881
15.775	16.551	1075.559	832.406
16.790	15.628	1073.452	826.165
17.804	14.776	1071.914	820.724
18.819	14.306	1070.860	817.536
19.834	14.053	1069.696	815.335
20.848	13.970	1068.488	813.937
21.863	13.620	1068.302	812.005
22.877	13.462	1067.602	810.631
23.892	13.504	1066.823	810.173
24.907	13.438	1066.191	809.297
25.921	13.510	1065.066	808.725
26.936	13.529	1063.787	807.775
27.950	13.501	1062.563	806.635
28.965	13.562	1060.666	805.420
29.980	13.784	1059.360	805.436
30.994	13.778	1057.959	804.269
32.009	13.659	1057.681	803.413
33.023	13.638	1056.165	802.086
34.038	13.613	1054.993	801.006
35.053	13.492	1054.568	800.028
36.067	13.698	1053.086	799.824
37.082	13.545	1052.696	798.721
38.096	13.626	1051.799	798.358
39.111	13.669	1050.855	797.783
40.126	13.533	1049.734	796.205
41.140	13.366	1048.807	794.630
42.155	13.476	1047.453	794.058
43.169	13.434	1046.192	792.834
44.184	13.362	1045.114	791.604
45.199	13.403	1044.073	790.937
46.213	13.459	1043.006	790.327
47.228	13.513	1042.064	789.802
48.242	13.561	1040.845	789.035
49.257	13.588	1039.777	788.289
50.271	13.644	1038.516	787.526
51.286	13.586	1038.144	786.897
52.301	13.596	1037.115	786.097
53.315	13.543	1035.969	784.905
54.330	13.449	1035.198	783.809
55.344	13.478	1034.565	783.396
56.359	13.532	1033.508	782.784
57.374	13.500	1032.281	781.635
58.388	13.470	1031.206	780.611
59.403	13.407	1030.710	779.866
60.417	13.437	1029.786	779.242
61.432	13.348	1029.115	778.247
62.447	13.392	1028.589	777.987
63.461	13.289	1027.856	776.880
64.476	13.426	1026.386	776.342
65.490	13.410	1025.768	775.728
66.505	13.424	1024.988	775.139
67.520	13.486	1024.466	774.966
68.534	13.503	1023.786	774.463
69.549	13.381	1022.822	773.091
70.563	13.399	1022.028	772.510
71.578	13.330	1021.263	771.537
72.593	13.172	1020.822	770.400
73.607	13.260	1020.046	770.159
74.622	13.218	1019.507	769.486
75.636	13.327	1018.813	769.402
76.651	13.378	1018.019	768.972
77.666	13.188	1017.898	767.929
78.680	13.307	1017.017	767.749
79.695	13.319	1016.048	767.005
80.709	13.369	1015.930	767.081
81.724	13.351	1014.799	766.074
82.739	13.492	1014.490	766.428
83.753	13.508	1014.037	766.093
84.768	13.734	1012.288	765.744
85.782	13.679	1011.893	765.124
86.797	13.683	1010.907	764.331
87.812	13.586	1010.023	763.149
88.826	13.599	1008.970	762.345
89.841	13.747	1007.972	762.202
90.855	13.797	1006.905	761.557
91.870	13.673	1006.307	760.468
92.884	13.713	1005.365	759.872
93.899	13.756	1004.964	759.700
94.914	13.750	1004.032	758.902
95.928	13.748	1003.185	758.186
96.943	13.773	1002.224	757.506
97.957	13.655	1001.694	756.499
98.972	13.675	1000.681	755.757
99.987	13.605	999.649	754.595
101.001	13.656	998.702	754.044
102.016	13.691	997.797	753.453
103.030	13.709	996.876	752.775
104.045	13.737	996.199	752.321
105.060	13.597	995.413	751.029
106.074	13.631	994.326	750.295
107.089	13.515	993.143	748.812
108.103	13.339	992.524	747.484
109.118	13.513	991.223	747.220
110.133	13.378	990.987	746.370
111.147	13.400	990.234	745.834
112.162	13.497	988.994	745.270
113.176	13.538	988.111	744.725
114.191	13.614	987.336	744.417
115.206	13.578	985.928	743.125
116.220	13.548	985.641	742.709
117.235	13.443	984.442	741.273
118.249	13.605	984.001	741.599
119.264	13.541	983.171	740.621
120.279	13.560	982.122	739.851
121.293	13.436	981.475	738.743
122.308	13.494	980.266	738.027
123.322	13.476	979.341	737.185
124.337	13.386	978.212	735.870
125.352	13.450	976.901	735.101
126.366	13.421	976.016	734.242
127.381	13.498	975.129	733.853
128.395	13.493	974.400	733.216
129.410	13.389	973.467	731.988
130.424	13.468	972.735	731.726
131.439	13.577	971.750	731.400
132.454	13.568	971.231	730.906
133.468	13.709	969.895	730.454
134.483	13.683	969.208	729.757
135.497	13.500	968.618	728.445
136.512	13.620	967.934	728.395
137.527	13.545	966.961	727.269
138.541	13.610	966.072	726.818
139.556	13.522	966.053	726.355
140.570	13.643	965.296	726.253
141.585	13.938	963.231	725.924
142.600	13.749	963.694	725.380
143.614	13.780	962.448	724.516
144.629	13.730	961.691	723.663
145.643	13.789	960.729	723.132
146.658	13.667	959.507	721.618
147.673	13.733	958.811	721.317
148.687	13.779	957.398	720.390
149.702	13.728	956.725	719.597
150.716	13.699	956.144	718.975
151.731	13.696	955.316	718.276
152.746	13.778	954.598	718.026
153.760	13.697	953.959	717.130
154.775	13.953	953.281	717.662
155.789	13.736	952.934	716.401
156.804	13.735	951.886	715.545
157.819	13.846	951.553	715.713
158.833	13.901	950.719	715.257
159.848	13.988	949.741	714.833
160.862	13.887	948.813	713.637
161.877	13.771	947.978	712.449
162.892	13.757	947.067	711.641
163.906	13.782	946.120	710.974
164.921	13.853	945.283	710.584
165.935	13.833	944.732	710.023
166.950	13.929	943.458	709.412
167.964	14.018	942.181	708.768
168.979	13.944	941.724	708.045
169.994	13.851	940.986	707.033
171.008	13.969	940.430	707.057
172.023	14.139	939.484	707.002
173.037	14.034	938.672	705.884
174.052	14.093	937.727	705.359
175.067	13.935	937.494	704.455
176.081	13.856	936.874	703.589
177.096	14.041	936.185	703.795
178.110	13.853	935.539	702.450
179.125	14.013	935.122	702.753
180.140	13.948	934.842	702.205
181.154	14.087	934.172	702.228
182.169	14.049	933.928	701.820
183.183	14.158	933.233	701.697
184.198	14.124	932.416	700.875
185.213	14.144	931.596	700.280
186.227	14.294	930.551	700.065
187.242	14.240	930.173	699.494
188.256	14.278	929.471	699.060
189.271	14.211	928.997	698.364
190.286	14.108	927.651	696.857
191.300	14.020	927.072	695.991
192.315	13.965	926.905	695.575
193.329	13.929	925.851	694.571
194.344	14.097	925.424	694.894
195.359	14.201	924.371	694.475
196.373	14.216	923.938	694.150
197.388	14.363	923.899	694.671
198.402	14.370	923.509	694.345
199.417	14.488	922.644	694.128
200.432	14.403	922.138	693.331
201.446	14.450	921.755	693.178
202.461	14.487	921.021	692.715
203.475	14.426	920.639	692.117
204.490	14.271	920.207	691.085
205.504	14.214	919.120	689.974
206.519	14.383	918.435	690.095
207.534	14.361	917.692	689.388
208.548	14.379	917.133	688.981
209.563	14.289	916.572	688.125
210.577	14.536	915.382	688.189
211.592	14.505	914.623	687.429
212.607	14.530	914.053	687.043
213.621	14.514	913.357	686.396
214.636	14.507	912.875	685.944
215.650	14.651	911.928	685.764
216.665	14.695	911.123	685.277
217.680	14.778	910.737	685.267
218.694	14.669	910.220	684.370
219.709	14.710	909.391	683.854
220.723	14.730	908.066	682.879
221.738	14.699	907.823	682.508
222.753	14.651	907.372	681.915
223.767	14.655	907.044	681.621
224.782	14.755	906.180	681.324
225.796	14.669	906.020	680.792
226.811	14.812	904.835	680.420
227.826	14.782	904.367	679.888
228.840	14.732	903.867	679.247
229.855	14.796	902.484	678.409
230.869	14.759	901.862	677.730
231.884	14.743	901.305	677.187
232.899	14.613	900.275	675.828
233.913	14.680	899.657	675.577
234.928	14.722	899.244	675.375
235.942	14.638	898.475	674.398
236.957	14.676	898.204	674.289
237.972	14.577	897.699	673.449
238.986	14.624	897.576	673.489
240.001	14.675	896.636	672.928
241.015	14.658	895.668	672.075
242.030	14.750	895.277	672.092
243.045	14.779	894.756	671.758
244.059	14.803	893.945	671.185
245.074	14.764	893.420	670.578
246.088	14.943	892.494	670.539
247.103	14.930	892.212	670.214
248.117	14.926	891.824	669.850
249.132	15.023	891.008	669.566
250.147	15.192	890.459	669.769
251.161	15.336	889.451	669.527
252.176	15.351	888.761	669.008
253.190	15.330	888.143	668.398
254.205	15.291	887.748	667.889
255.220	15.269	887.247	667.363
256.234	15.307	886.527	666.914
257.249	15.289	885.784	666.225
258.263	15.330	885.081	665.801
259.278	15.247	884.419	664.915
260.293	15.397	883.665	664.882
261.307	15.464	883.379	664.875
262.322	15.536	882.769	664.640
263.336	15.406	881.688	663.254
264.351	15.484	881.220	663.150
265.366	15.574	880.710	663.062
266.380	15.444	880.127	662.053
267.395	15.608	879.291	662.014
268.409	15.513	878.299	660.835
269.424	15.416	877.524	659.812
270.439	15.442	876.952	659.423
271.453	15.467	876.356	659.018
272.468	15.430	875.558	658.212
273.482	15.440	875.468	658.128
274.497	15.391	874.731	657.323
275.512	15.479	874.496	657.434
276.526	15.643	873.449	657.227
277.541	15.617	873.124	656.822
278.555	15.586	872.477	656.156
279.570	15.567	871.968	655.641
280.585	15.518	871.219	654.831
281.599	15.779	870.064	654.919
282.614	15.547	869.914	653.844
283.628	15.710	869.057	653.779
284.643	15.638	868.694	653.166
285.657	15.687	868.016	652.790
286.672	15.663	867.077	651.931
287.687	15.658	866.426	651.368
288.701	15.742	866.200	651.466
289.716	15.667	865.754	650.779
290.730	15.742	864.738	650.249
291.745	15.869	864.216	650.291
292.760	15.921	863.310	649.752
293.774	15.831	863.051	649.152
294.789	15.894	862.304	648.777
295.803	15.846	861.488	647.919
296.818	15.820	860.832	647.268
297.833	16.016	859.929	647.285
298.847	15.843	859.720	646.406
299.862	15.816	859.852	646.344
300.876	15.921	858.883	645.961
301.891	16.080	858.223	646.019
302.906	15.979	857.789	645.247
303.920	16.092	857.198	645.180
304.935	16.080	856.668	644.675
305.949	16.189	856.041	644.563
306.964	16.144	855.165	643.674
307.979	16.077	855.089	643.306
308.993	16.159	854.456	643.084
310.008	16.233	853.466	642.564
311.022	16.152	853.251	642.036
312.037	16.075	852.451	641.084
313.052	16.046	851.865	640.479
314.066	16.073	851.084	639.938
315.081	16.055	850.552	639.411
316.095	16.019	850.262	639.000
317.110	16.072	849.377	638.478
318.125	16.016	849.062	637.974
319.139	16.146	848.695	638.134
320.154	16.094	848.412	637.667
321.168	16.257	847.897	637.841
322.183	16.250	847.027	637.102
323.197	16.106	846.802	636.336
324.212	16.312	845.884	636.364
325.227	16.138	845.538	635.393
326.241	16.222	844.997	635.246
327.256	16.144	844.192	634.291
328.270	16.246	843.761	634.295
329.285	16.151	843.267	633.510
330.300	16.303	842.269	633.276
331.314	16.362	842.043	633.269
332.329	16.287	841.723	632.693
333.343	16.380	841.456	632.786
334.358	16.351	840.676	632.034
335.373	16.233	840.822	631.645
336.387	16.326	840.447	631.657
337.402	16.501	839.740	631.721
338.416	16.460	839.574	631.389
339.431	16.600	839.000	631.424
340.446	16.489	838.971	630.930
341.460	16.644	838.218	630.888
342.475	16.661	837.907	630.662
343.489	16.631	837.233	629.985
344.504	16.556	837.148	629.588
345.519	16.708	836.606	629.690
346.533	16.695	835.765	628.953
347.548	16.571	835.431	628.185
348.562	16.543	834.934	627.653
349.577	16.521	834.280	627.022
350.592	16.580	833.667	626.726
351.606	16.580	833.091	626.236
352.621	16.609	832.070	625.523
353.635	16.710	831.200	625.184
354.650	16.659	831.062	624.839
355.665	16.585	830.534	624.112
356.679	16.759	829.737	624.100
357.694	16.708	829.092	623.372
358.708	16.776	828.522	623.138
359.723	16.717	828.141	622.577
360.738	16.724	827.720	622.233
361.752	16.796	826.849	621.788
362.767	17.077	825.985	622.111
363.781	16.988	825.376	621.272
364.796	16.881	825.279	620.755
365.810	16.982	824.864	620.754
366.825	17.039	824.705	620.790
367.840	16.999	824.106	620.138
368.854	16.877	823.950	619.518
369.869	16.919	823.494	619.275
370.883	17.158	822.861	619.616
371.898	17.016	822.531	618.797
372.913	17.187	821.835	618.841
373.927	17.131	821.494	618.325
374.942	17.028	821.155	617.641
375.956	17.245	820.204	617.660
376.971	17.237	820.146	617.531
377.986	17.341	819.417	617.306
379.000	17.156	819.271	616.470
380.015	17.451	818.451	616.867
381.029	17.322	818.251	616.194
382.044	17.248	817.256	615.123
383.059	17.312	817.160	615.227
384.073	17.352	816.543	614.854
385.088	17.211	816.111	613.965
386.102	17.172	815.160	613.053
387.117	17.190	814.869	612.845
388.132	17.187	814.595	612.573
389.146	17.224	813.815	612.065
390.161	17.218	813.474	611.733
391.175	17.417	812.661	611.784
392.190	17.178	812.314	610.608
393.205	17.251	812.017	610.595
394.219	17.290	811.353	610.181
395.234	17.248	811.028	609.734
396.248	17.103	810.663	608.884
397.263	17.133	810.216	608.601
398.278	17.160	809.656	608.223
399.292	17.281	809.067	608.159
400.307	17.273	808.493	607.647
401.321	17.331	808.205	607.585
402.336	17.333	807.582	607.071
403.350	17.415	807.339	607.127
404.365	17.507	806.994	607.139
405.380	17.484	806.361	606.527
406.394	17.595	805.895	606.518
407.409	17.635	805.517	606.325
408.423	17.645	805.380	606.203
409.438	17.761	804.778	606.107
410.453	17.764	804.219	605.644
411.467	17.608	804.251	605.061
412.482	17.709	803.820	605.042
413.496	17.893	802.911	604.955
414.511	17.774	802.992	604.543
415.526	17.793	802.245	603.994
416.540	17.714	801.813	603.333
417.555	17.687	801.337	602.826
418.569	17.889	801.003	603.236
419.584	17.891	800.330	602.684
420.599	17.803	800.173	602.202
421.613	111.744	1294.343	1476.889
422.628	96.278	1366.319	1476.970
