DTS Sentinel unit serial number:	SN413079Multiplexer serial number:	ORYXHardware model number:	OX4-SRSoftware version number:	ORYX F/W v4.00 Oryx Data Collector v3.7.2.0data status	okinstallation	princeton_trtdifferential loss correction	single-endedforward channel	channel 1reverse channel	N/Adate	2019/09/12time	12:36:11forward acquisition time	60.00reverse acquisition time	0.00gamma	496.2192k internal	0.2291k external	0.2291temperature offset calibration	1.0048default loss term (dB/km)	0.3790temperature slope calibration	1.0000multiplexer offset coefficient	1.0000multiplexer slope coefficient	1.0000fibre end	0.00T internal ref (°C)	40.45T ext. ref 1 (°C)	2.03T ext. ref 2 (°C)	35.60length (m)	temperature (°C)	Stokes	anti-Stokes-747.200	25.912	-0.091	-0.078
-746.185	-200.000	-0.030	0.284
-745.171	148.436	-0.210	-0.290
-744.156	-200.000	0.003	-0.118
-743.142	11.186	-0.146	0.115
-742.127	743.709	-0.100	0.276
-741.112	-126.348	-0.143	-0.022
-740.098	-102.563	0.377	0.092
-739.083	-135.568	-0.174	-0.021
-738.069	-192.039	-0.180	-0.002
-737.054	-184.477	-0.276	0.005
-736.039	-136.539	-0.316	0.038
-735.025	-104.231	0.172	0.041
-734.010	-35.866	-0.406	0.225
-732.996	170.052	0.110	-0.161
-731.981	800.000	-0.097	0.304
-730.966	389.175	0.076	-0.161
-729.952	-39.645	-0.049	0.026
-728.937	800.000	-0.035	-0.131
-727.923	-132.882	-0.366	-0.048
-726.908	800.000	0.045	0.188
-725.894	800.000	-0.036	0.158
-724.879	47.828	-0.129	0.123
-723.864	8.697	-0.130	0.100
-722.850	800.000	0.071	0.207
-721.835	-200.000	0.000	-0.133
-720.821	-103.345	0.207	-0.050
-719.806	181.403	0.021	-0.031
-718.791	-32.800	0.365	-0.207
-717.777	-30.715	-0.331	-0.191
-716.762	344.095	-0.063	0.126
-715.748	162.488	-0.157	-0.225
-714.733	48.847	-0.161	-0.154
-713.718	602.722	0.033	0.084
-712.704	146.416	-0.258	-0.354
-711.689	-200.000	0.006	0.168
-710.675	306.573	0.178	-0.338
-709.660	-200.000	0.021	-0.278
-708.645	-200.000	-0.006	-0.128
-707.631	-200.000	0.033	-0.170
-706.616	133.367	-0.085	-0.112
-705.602	-105.856	-0.266	-0.061
-704.587	-42.842	0.228	-0.119
-703.572	-174.242	0.335	-0.010
-702.558	323.692	-0.115	-0.224
-701.543	-200.000	0.008	0.126
-700.529	-200.000	-0.245	-0.001
-699.514	-50.698	-0.152	0.073
-698.499	270.216	-0.054	-0.096
-697.485	-48.148	-0.143	-0.070
-696.470	27.796	-0.173	0.149
-695.456	183.177	0.096	-0.145
-694.441	-9.075	0.243	-0.166
-693.426	350.847	0.068	0.137
-692.412	-200.000	-0.023	-0.223
-691.397	-143.695	-0.256	-0.025
-690.383	-4.284	-0.386	-0.273
-689.368	-62.806	0.273	0.116
-688.354	222.000	-0.080	0.132
-687.339	-200.000	0.043	0.291
-686.324	-94.938	0.238	0.066
-685.310	-6.510	0.111	0.077
-684.295	-106.692	0.315	0.071
-683.281	380.511	-0.097	0.203
-682.266	9.068	-0.034	0.026
-681.251	-62.966	0.268	0.113
-680.237	250.693	0.117	-0.203
-679.222	-36.662	0.226	0.124
-678.208	7.871	0.168	0.129
-677.193	80.330	-0.152	0.167
-676.178	-76.270	-0.241	0.087
-675.164	-114.596	0.052	-0.010
-674.149	-10.134	-0.122	0.083
-673.135	161.087	-0.108	0.154
-672.120	-2.590	0.159	0.113
-671.105	416.062	-0.241	0.524
-670.091	-73.178	-0.185	-0.069
-669.076	397.771	-0.020	0.043
-668.062	615.917	0.078	-0.199
-667.047	-106.898	-0.081	0.018
-666.032	549.705	-0.073	0.178
-665.018	11.031	0.248	-0.193
-664.003	-22.561	-0.148	0.091
-662.989	800.000	0.041	0.164
-661.974	-200.000	0.020	-0.180
-660.959	387.168	0.194	-0.409
-659.945	38.081	-0.222	-0.201
-658.930	800.000	-0.018	0.068
-657.916	390.726	-0.039	-0.082
-656.901	-139.051	-0.225	0.025
-655.886	186.966	-0.117	0.178
-654.872	726.011	-0.064	-0.175
-653.857	161.535	0.098	0.140
-652.843	-129.760	-0.273	-0.038
-651.828	104.146	-0.150	-0.180
-650.814	-200.000	-0.016	-0.325
-649.799	-91.246	0.127	-0.037
-648.784	-200.000	0.006	0.085
-647.770	-48.614	-0.220	-0.108
-646.755	800.000	-0.025	0.096
-645.741	-134.144	-0.346	0.044
-644.726	297.999	0.030	-0.056
-643.711	248.306	-0.147	-0.254
-642.697	36.754	-0.080	-0.072
-641.682	800.000	-0.101	0.295
-640.668	123.180	0.066	-0.084
-639.653	800.000	-0.046	-0.151
-638.638	-113.373	-0.119	-0.024
-637.624	22.038	0.184	-0.153
-636.609	-107.932	-0.147	-0.033
-635.595	-200.000	-0.048	-0.358
-634.580	-23.673	-0.136	-0.083
-633.565	-160.392	-0.049	-0.003
-632.551	-31.980	-0.169	0.097
-631.536	206.222	-0.171	0.272
-630.522	470.466	-0.145	0.332
-629.507	17.514	-0.282	-0.229
-628.492	-200.000	0.002	-0.268
-627.478	-200.000	-0.003	-0.096
-626.463	800.000	-0.029	-0.128
-625.449	-200.000	0.043	-0.266
-624.434	-47.730	-0.309	0.153
-623.419	-177.738	0.217	-0.005
-622.405	-19.329	0.057	-0.036
-621.390	-68.720	-0.134	0.053
-620.376	564.316	0.128	-0.315
-619.361	-74.587	0.054	0.020
-618.346	120.686	-0.194	-0.246
-617.332	-42.664	-0.270	-0.140
-616.317	143.780	0.018	0.024
-615.303	-128.265	0.094	-0.014
-614.288	158.737	-0.214	-0.302
-613.273	-177.318	-0.041	-0.001
-612.259	-200.000	0.052	-0.238
-611.244	800.000	-0.037	-0.117
-610.230	-54.971	-0.359	-0.165
-609.215	48.609	-0.208	0.199
-608.201	-135.165	-0.395	0.048
-607.186	-21.117	-0.112	0.070
-606.171	-100.042	0.194	-0.049
-605.157	-0.475	-0.260	0.188
-604.142	-18.661	-0.084	-0.053
-603.128	1.218	0.061	0.044
-602.113	-64.866	-0.274	0.113
-601.098	-68.235	-0.133	0.053
-600.084	-16.351	0.056	-0.036
-599.069	525.300	-0.063	-0.150
-598.055	11.614	0.036	0.028
-597.040	626.880	0.041	-0.105
-596.025	90.403	0.132	-0.151
-595.011	-46.990	-0.098	0.049
-593.996	183.398	0.161	-0.243
-592.982	-200.000	-0.017	-0.125
-591.967	47.938	0.246	-0.234
-590.952	-34.587	0.446	0.248
-589.938	28.383	-0.039	0.033
-588.923	-86.256	-0.290	0.091
-587.909	28.903	-0.088	-0.076
-586.894	-102.685	0.213	-0.052
-585.879	84.748	0.133	-0.148
-584.865	311.372	0.102	0.195
-583.850	-200.000	-0.007	-0.044
-582.836	-60.938	0.150	-0.064
-581.821	-200.000	0.028	0.228
-580.806	269.159	0.041	-0.073
-579.792	-51.738	0.119	0.056
-578.777	800.000	0.064	0.187
-577.763	6.324	-0.322	-0.243
-576.748	106.514	-0.069	-0.083
-575.733	-42.449	0.212	-0.110
-574.719	-31.221	0.127	-0.073
-573.704	262.807	-0.137	0.242
-572.690	155.678	0.149	0.209
-571.675	-200.000	0.011	-0.050
-570.661	-18.140	0.078	-0.050
-569.646	-123.907	-0.157	-0.025
-568.631	-48.027	0.037	-0.018
-567.617	-72.685	0.248	-0.093
-566.602	497.471	-0.035	-0.082
-565.588	136.217	-0.049	0.066
-564.573	-184.029	-0.052	0.001
-563.558	89.173	0.292	-0.331
-562.544	25.136	0.278	-0.234
-561.529	120.416	-0.083	0.105
-560.515	800.000	0.078	0.244
-559.500	221.703	0.109	-0.178
-558.485	800.000	0.070	-0.241
-557.471	-200.000	-0.013	0.233
-556.456	195.220	0.144	0.223
-555.442	-99.697	0.126	-0.032
-554.427	266.889	-0.194	0.344
-553.412	-137.323	-0.239	0.028
-552.398	-109.259	-0.217	0.047
-551.383	-29.578	0.219	0.127
-550.369	0.981	-0.023	-0.017
-549.354	6.495	-0.138	-0.104
-548.339	-200.000	0.032	0.184
-547.325	408.585	-0.173	0.372
-546.310	-75.585	-0.302	-0.109
-545.296	-199.461	0.280	0.001
-544.281	24.252	-0.110	-0.093
-543.266	14.066	0.073	-0.058
-542.252	-48.264	0.143	0.070
-541.237	-152.702	-0.008	0.001
-540.223	-31.305	-0.088	-0.050
-539.208	-200.000	0.002	-0.206
-538.193	151.303	0.192	0.265
-537.179	-43.599	0.056	-0.029
-536.164	-21.222	0.099	0.061
-535.150	-59.648	0.129	-0.056
-534.135	-22.666	-0.254	-0.156
-533.121	112.383	-0.143	0.175
-532.106	-200.000	-0.013	-0.070
-531.091	-89.888	-0.110	-0.033
-530.077	-6.248	0.327	0.227
-529.062	287.428	-0.125	-0.230
-528.048	-106.058	0.449	-0.103
-527.033	650.431	0.028	-0.074
-526.018	-200.000	-0.017	-0.103
-525.004	-200.000	0.010	-0.144
-523.989	123.871	-0.246	0.314
-522.975	-129.986	-0.376	0.052
-521.960	800.000	0.072	-0.309
-520.945	21.084	0.055	0.045
-519.931	649.355	0.136	0.352
-518.916	53.441	-0.080	0.078
-517.902	179.641	-0.159	0.236
-516.887	501.685	-0.048	-0.111
-515.872	239.674	0.210	-0.356
-514.858	-60.786	-0.443	-0.190
-513.843	-12.985	-0.118	0.078
-512.829	800.000	0.090	-0.355
-511.814	-66.615	-0.125	-0.050
-510.799	-110.471	-0.092	0.019
-509.785	386.859	0.106	-0.222
-508.770	-140.157	-0.408	0.043
-507.756	305.853	0.023	-0.043
-506.741	500.091	0.077	-0.180
-505.726	-71.331	-0.181	-0.069
-504.712	-34.470	0.129	-0.072
-503.697	327.243	-0.181	-0.353
-502.683	74.805	0.170	0.181
-501.668	-200.000	-0.040	0.295
-500.653	-32.346	0.095	0.054
-499.639	166.926	0.238	-0.342
-498.624	-200.000	-0.045	0.290
-497.610	59.316	-0.366	0.365
-496.595	19.501	0.271	-0.221
-495.581	-200.000	0.016	-0.271
-494.566	78.826	-0.121	-0.132
-493.551	-114.317	-0.145	-0.028
-492.537	-168.575	0.411	0.016
-491.522	-168.005	-0.307	0.012
-490.508	207.045	-0.119	0.189
-489.493	662.412	-0.090	0.236
-488.478	-200.000	-0.046	0.238
-487.464	-152.944	-0.110	-0.008
-486.449	-173.275	0.278	-0.009
-485.435	-200.000	0.002	0.147
-484.420	115.297	-0.040	0.050
-483.405	-65.416	-0.221	0.090
-482.391	8.121	-0.109	-0.083
-481.376	265.254	-0.201	-0.355
-480.362	-98.301	0.188	-0.049
-479.347	-175.428	0.230	-0.006
-478.332	-23.531	0.117	0.071
-477.318	-45.391	0.373	-0.187
-476.303	-132.613	0.042	-0.005
-475.289	-200.000	-0.008	0.164
-474.274	-31.486	0.211	-0.120
-473.259	10.969	-0.332	-0.257
-472.245	-200.000	0.015	0.140
-471.230	800.000	-0.067	0.227
-470.216	-200.000	0.005	0.145
-469.201	52.867	-0.331	-0.320
-468.186	-135.960	0.175	-0.021
-467.172	-200.000	0.069	0.320
-466.157	-40.855	0.195	-0.102
-465.143	-122.007	-0.080	-0.013
-464.128	66.155	-0.146	-0.150
-463.113	-114.232	0.231	0.045
-462.099	528.389	0.060	-0.144
-461.084	46.830	-0.200	-0.189
-460.070	-76.878	0.223	0.079
-459.055	186.687	0.104	-0.157
-458.040	117.725	-0.118	0.147
-457.026	-200.000	-0.010	-0.147
-456.011	-99.105	-0.208	-0.053
-454.997	30.141	-0.080	0.069
-453.982	-200.000	-0.040	-0.239
-452.968	-55.628	0.154	-0.070
-451.953	329.674	0.136	0.264
-450.938	52.899	0.286	0.276
-449.924	800.000	0.020	0.064
-448.909	-28.478	-0.029	0.017
-447.895	-200.000	-0.021	0.118
-446.880	204.799	-0.123	-0.194
-445.865	-44.455	-0.376	0.191
-444.851	388.258	0.171	0.358
-443.836	776.678	0.175	0.484
-442.822	-37.800	-0.080	0.043
-441.807	37.110	-0.048	0.043
-440.792	382.033	0.112	0.232
-439.778	-200.000	-0.031	-0.171
-438.763	800.000	0.105	-0.386
-437.749	-200.000	-0.003	0.390
-436.734	-200.000	-0.013	0.091
-435.719	-200.000	-0.032	0.216
-434.705	-70.715	0.270	0.103
-433.690	411.181	-0.147	0.315
-432.676	-33.384	0.225	-0.126
-431.661	-200.000	0.003	0.250
-430.646	-200.000	-0.011	0.153
-429.632	23.580	-0.077	-0.064
-428.617	-200.000	-0.036	0.177
-427.603	170.201	0.103	-0.149
-426.588	115.174	0.259	-0.320
-425.573	-125.031	0.179	0.028
-424.559	-66.139	-0.157	-0.063
-423.544	440.173	0.093	-0.206
-422.530	800.000	0.124	-0.352
-421.515	96.176	0.137	0.159
-420.500	-9.955	-0.143	0.096
-419.486	-60.593	-0.164	0.071
-418.471	-43.644	0.112	0.057
-417.457	-200.000	0.024	0.213
-416.442	164.703	0.159	0.227
-415.428	-200.000	-0.004	0.334
-414.413	800.000	-0.014	-0.053
-413.398	-103.680	0.084	0.020
-412.384	-64.375	-0.142	0.058
-411.369	-200.000	-0.077	0.524
-410.355	42.192	0.208	0.191
-409.340	29.385	0.254	0.218
-408.325	-199.621	-0.257	-0.001
-407.311	1.897	-0.155	-0.113
-406.296	-15.816	-0.163	-0.105
-405.282	522.715	0.046	-0.108
-404.267	-114.947	0.116	0.022
-403.252	-109.974	-0.148	0.031
-402.238	114.149	-0.150	0.185
-401.223	-200.000	0.019	-0.595
-400.209	-200.000	-0.033	-0.232
-399.194	38.369	-0.070	-0.063
-398.179	-161.695	0.152	0.008
-397.165	-114.804	0.273	-0.053
-396.150	79.852	0.172	0.187
-395.136	-114.885	-0.202	-0.039
-394.121	130.999	0.061	-0.080
-393.106	-141.002	0.052	-0.005
-392.092	-173.752	0.118	-0.004
-391.077	-103.181	-0.328	-0.078
-390.063	-67.913	0.270	0.106
-389.048	-38.632	0.103	-0.055
-388.033	36.579	0.118	0.105
-387.019	352.496	0.076	-0.153
-386.004	372.422	-0.062	-0.128
-384.990	-200.000	-0.011	-0.129
-383.975	-200.000	0.022	-0.165
-382.960	-139.821	0.219	0.023
-381.946	335.366	-0.074	0.145
-380.931	-66.499	-0.124	0.050
-379.917	-200.000	0.027	0.505
-378.902	1.548	-0.129	0.094
-377.888	160.947	-0.064	-0.091
-376.873	-200.000	0.041	-0.317
-375.858	-200.000	-0.003	-0.225
-374.844	-24.510	0.125	0.075
-373.829	800.000	0.031	-0.096
-372.815	-95.891	0.057	0.015
-371.800	-200.000	-0.005	-0.083
-370.785	-160.344	-0.145	0.008
-369.771	-200.000	-0.028	-0.162
-368.756	-132.331	-0.219	-0.029
-367.742	-17.273	-0.023	-0.015
-366.727	44.048	0.127	0.118
-365.712	-86.551	0.300	0.093
-364.698	-110.689	0.265	-0.055
-363.683	-200.000	0.053	-0.264
-362.669	47.437	0.138	0.129
-361.654	4.534	-0.276	0.204
-360.639	800.000	0.095	0.272
-359.625	800.000	-0.122	0.383
-358.610	412.811	-0.083	0.177
-357.596	78.358	0.275	-0.296
-356.581	-200.000	0.045	-0.320
-355.566	37.848	0.179	-0.160
-354.552	-200.000	-0.023	0.316
-353.537	-200.000	-0.021	-0.182
-352.523	-124.941	0.201	-0.031
-351.508	-200.000	-0.004	-0.046
-350.493	625.716	-0.081	0.207
-349.479	2.975	0.134	0.098
-348.464	-200.000	0.076	0.349
-347.450	-200.000	0.021	0.149
-346.435	248.778	-0.067	0.115
-345.420	66.230	-0.064	0.066
-344.406	121.271	0.057	-0.072
-343.391	372.791	-0.059	0.122
-342.377	-200.000	-0.029	-0.137
-341.362	-105.939	-0.140	-0.032
-340.348	452.466	0.101	0.225
-339.333	20.241	-0.134	0.109
-338.318	-200.000	0.006	-0.197
-337.304	-161.216	-0.226	-0.012
-336.289	-10.987	-0.163	-0.108
-335.275	72.270	-0.144	0.151
-334.260	126.933	0.073	-0.094
-333.245	800.000	-0.108	0.374
-332.231	33.015	0.046	0.040
-331.216	96.121	-0.256	-0.294
-330.202	564.564	0.040	-0.098
-329.187	53.941	0.188	0.182
-328.172	-27.249	0.091	0.053
-327.158	800.000	0.037	-0.108
-326.143	28.577	0.226	0.193
-325.129	-91.237	0.194	0.056
-324.114	-152.325	-0.180	-0.013
-323.099	471.015	0.088	0.199
-322.085	40.147	-0.164	0.148
-321.070	0.362	-0.160	-0.115
-320.056	273.073	0.069	0.123
-319.041	307.944	0.123	-0.230
-318.026	-200.000	-0.000	-0.277
-317.012	267.041	-0.106	0.186
-315.997	-200.000	-0.006	0.149
-314.983	-199.456	-0.452	-0.002
-313.968	-200.000	-0.010	-0.233
-312.953	-16.942	0.231	-0.147
-311.939	37.612	0.246	0.220
-310.924	162.527	0.205	-0.289
-309.910	-200.000	-0.016	0.126
-308.895	-200.000	0.030	-0.236
-307.880	800.000	-0.043	-0.178
-306.866	-200.000	-0.012	-0.098
-305.851	558.706	-0.173	-0.420
-304.837	-74.059	0.034	0.012
-303.822	-200.000	0.052	0.365
-302.807	75.638	-0.111	0.118
-301.793	-117.090	0.157	-0.029
-300.778	115.174	0.174	0.213
-299.764	-200.000	0.002	-0.109
-298.749	-161.062	0.065	0.003
-297.735	-16.058	0.078	0.050
-296.720	71.220	0.329	0.344
-295.705	-200.000	0.048	0.289
-294.691	86.712	-0.173	-0.192
-293.676	-58.122	0.132	0.058
-292.662	34.870	0.197	-0.173
-291.647	800.000	-0.098	0.310
-290.632	800.000	-0.021	-0.074
-289.618	-110.780	-0.134	0.028
-288.603	113.272	-0.055	0.067
-287.589	-29.619	-0.229	-0.131
-286.574	-111.520	-0.340	0.070
-285.559	19.254	-0.353	-0.285
-284.545	-200.000	-0.001	-0.210
-283.530	64.990	0.061	0.062
-282.516	-119.223	-0.355	-0.062
-281.501	-200.000	-0.018	-0.174
-280.486	-200.000	-0.010	-0.082
-279.472	124.593	0.122	-0.154
-278.457	165.299	0.071	0.101
-277.443	-200.000	-0.002	-0.017
-276.428	519.799	-0.065	0.153
-275.413	800.000	0.030	-0.086
-274.399	551.987	-0.064	-0.153
-273.384	-162.072	0.434	0.022
-272.370	-200.000	-0.011	0.177
-271.355	-126.520	-0.267	0.040
-270.340	-69.446	-0.188	0.072
-269.326	393.760	0.083	-0.174
-268.311	-200.000	-0.094	0.635
-267.297	-124.389	-0.247	0.039
-266.282	800.000	0.029	0.117
-265.267	-118.555	-0.421	0.075
-264.253	589.577	0.114	0.284
-263.238	-29.280	-0.022	-0.013
-262.224	-144.502	-0.131	-0.012
-261.209	-149.271	0.237	0.019
-260.195	-200.000	0.020	-0.180
-259.180	800.000	0.026	-0.108
-258.165	-57.218	0.080	-0.035
-257.151	140.340	0.176	0.234
-256.136	120.034	0.067	0.084
-255.122	-200.000	0.022	-0.105
-254.107	18.789	-0.139	0.112
-253.092	-185.931	0.269	-0.004
-252.078	-200.000	0.008	0.223
-251.063	-42.592	-0.204	0.105
-250.049	-11.261	0.192	0.127
-249.034	-109.786	-0.082	-0.017
-248.019	485.961	0.101	-0.232
-247.005	-112.412	-0.288	0.058
-245.990	481.252	-0.058	-0.131
-244.976	-16.529	0.155	-0.098
-243.961	82.053	0.043	-0.047
-242.946	-140.101	-0.118	-0.012
-241.932	45.126	0.197	0.182
-240.917	-10.150	-0.135	-0.090
-239.903	800.000	0.084	-0.299
-238.888	17.289	0.294	-0.235
-237.873	-64.436	0.189	-0.077
-236.859	-200.000	-0.002	-0.045
-235.844	-40.894	0.184	-0.095
-234.830	566.097	-0.050	-0.122
-233.815	402.416	-0.161	0.341
-232.800	146.509	0.073	-0.098
-231.786	22.404	-0.099	-0.081
-230.771	-200.000	-0.000	-0.078
-229.757	264.247	-0.043	-0.075
-228.742	800.000	-0.109	-0.343
-227.727	500.662	-0.158	-0.365
-226.713	-200.000	0.004	0.017
-225.698	-200.000	0.015	0.488
-224.684	53.571	-0.160	0.154
-223.669	-102.517	0.255	-0.061
-222.655	-93.420	-0.164	-0.046
-221.640	-41.397	0.316	0.163
-220.625	-136.177	0.221	-0.026
-219.611	187.952	0.172	0.258
-218.596	266.731	0.036	0.063
-217.582	-200.000	0.002	-0.096
-216.567	-200.000	-0.005	0.159
-215.552	-10.069	-0.096	-0.064
-214.538	800.000	-0.079	0.258
-213.523	800.000	0.036	-0.142
-212.509	-200.000	-0.013	0.286
-211.494	-73.178	-0.287	0.106
-210.479	-78.742	0.102	-0.035
-209.465	-59.286	-0.095	-0.041
-208.450	-16.636	0.241	-0.153
-207.436	-101.093	0.213	-0.052
-206.421	-1.352	-0.350	-0.248
-205.406	-45.593	0.262	-0.130
-204.392	-200.000	-0.011	0.478
-203.377	800.000	-0.039	0.167
-202.363	-200.000	0.024	-0.205
-201.348	-200.000	0.011	-0.193
-200.333	-200.000	0.001	-0.062
-199.319	392.571	-0.145	-0.303
-198.304	-85.532	0.326	0.102
-197.290	42.667	-0.279	-0.255
-196.275	-114.570	-0.239	0.046
-195.260	1.644	0.154	0.111
-194.246	-20.244	0.107	-0.066
-193.231	-200.000	-0.025	0.133
-192.217	50.929	0.078	-0.074
-191.202	-200.000	-0.038	-0.238
-190.187	-99.718	-0.051	-0.013
-189.173	-128.667	-0.143	0.020
-188.158	800.000	0.041	0.119
-187.144	800.000	0.074	0.239
-186.129	275.436	0.098	0.173
-185.114	-200.000	0.174	0.001
-184.100	-200.000	0.004	-0.166
-183.085	183.026	0.235	-0.347
-182.071	-45.104	0.340	-0.170
-181.056	334.519	0.058	-0.112
-180.042	-1.751	0.081	-0.057
-179.027	-14.686	-0.082	-0.053
-178.012	363.328	0.119	0.239
-176.998	322.627	-0.125	-0.238
-175.983	-105.010	-0.207	-0.048
-174.969	-200.000	-0.071	0.388
-173.954	269.919	-0.153	0.269
-172.939	-42.535	0.137	-0.070
-171.925	112.018	-0.097	0.117
-170.910	-64.026	-0.015	-0.006
-169.896	-24.872	-0.061	-0.036
-168.881	-200.000	0.015	-0.068
-167.866	-191.960	-0.259	0.003
-166.852	800.000	-0.107	-0.298
-165.837	-33.401	0.151	-0.084
-164.823	-116.212	0.125	0.023
-163.808	-91.600	0.073	0.021
-162.793	124.432	0.045	-0.057
-161.779	-0.534	0.124	0.088
-160.764	20.583	-0.230	0.186
-159.750	800.000	0.011	0.046
-158.735	-155.434	0.371	-0.024
-157.720	-71.319	0.302	-0.113
-156.706	-69.247	0.080	-0.031
-155.691	-50.171	-0.206	-0.098
-154.677	-42.827	-0.020	-0.010
-153.662	-166.243	0.207	-0.009
-152.647	800.000	-0.090	0.332
-151.633	-200.000	0.000	0.089
-150.618	-89.405	-0.174	0.051
-149.604	415.779	0.128	-0.273
-148.589	-9.539	-0.130	0.086
-147.574	538.758	-0.090	-0.215
-146.560	434.779	-0.175	-0.380
-145.545	379.310	0.076	0.156
-144.531	-136.872	0.194	0.022
-143.516	208.898	0.153	-0.240
-142.502	800.000	-0.064	-0.240
-141.487	116.364	0.041	0.050
-140.472	-77.604	-0.114	0.040
-139.458	291.264	-0.128	0.232
-138.443	60.712	0.220	-0.219
-137.429	44.114	-0.061	-0.056
-136.414	-94.224	-0.106	-0.029
-135.399	-49.727	-0.085	-0.041
-134.385	-25.713	-0.187	0.110
-133.370	-72.325	0.137	0.051
-132.356	-200.000	-0.081	0.422
-131.341	626.027	-0.062	0.158
-130.326	-21.424	-0.315	-0.192
-129.312	-200.000	-0.040	-0.251
-128.297	800.000	-0.049	-0.151
-127.283	-44.045	0.192	-0.096
-126.268	-3.397	0.159	-0.110
-125.253	-15.596	0.313	0.200
-124.239	-32.091	-0.114	-0.063
-123.224	79.775	-0.179	0.192
-122.210	228.572	-0.048	0.078
-121.195	-135.569	0.155	0.018
-120.180	109.254	-0.055	-0.066
-119.166	171.488	-0.142	-0.204
-118.151	77.877	-0.222	0.236
-117.137	77.855	0.307	0.327
-116.122	96.257	0.162	-0.185
-115.107	-109.337	0.067	0.014
-114.093	-200.000	0.047	-0.388
-113.078	-166.573	0.075	-0.003
-112.064	37.366	-0.170	0.151
-111.049	-167.418	-0.133	0.005
-110.034	-139.242	-0.546	-0.059
-109.020	-200.000	-0.040	0.221
-108.005	-133.743	0.206	0.026
-106.991	11.320	0.147	-0.112
-105.976	-200.000	0.072	-0.317
-104.962	63.423	-0.050	0.051
-103.947	86.358	0.171	-0.188
-102.932	640.494	0.052	-0.131
-101.918	-102.738	0.090	0.021
-100.903	-38.685	0.278	0.147
-99.889	23.527	-0.143	0.117
-98.874	785.880	0.110	0.300
-97.859	800.000	0.014	0.046
-96.845	-8.505	0.130	0.087
-95.830	8.812	0.174	-0.131
-94.816	283.107	0.166	-0.297
-93.801	401.017	0.090	-0.188
-92.786	159.988	-0.146	-0.203
-91.772	-200.000	-0.020	-0.180
-90.757	31.378	-0.202	-0.173
-89.743	-41.207	-0.096	0.050
-88.728	-200.000	-0.000	0.330
-87.713	88.940	-0.164	0.182
-86.699	-200.000	-0.039	-0.203
-85.684	-116.295	0.284	-0.052
-84.670	-44.627	-0.167	0.083
-83.655	-94.891	-0.299	0.081
-82.640	-200.000	0.011	-0.111
-81.626	-29.580	0.087	-0.049
-80.611	70.817	-0.245	0.253
-79.597	-130.751	-0.173	0.023
-78.582	93.939	0.228	-0.258
-77.567	-85.162	-0.218	0.068
-76.553	-200.000	0.019	-0.092
-75.538	6.609	-0.326	0.242
-74.524	-0.288	0.205	0.145
-73.509	-21.796	0.134	0.081
-72.494	-152.621	-0.352	-0.025
-71.480	-200.000	0.037	-0.226
-70.465	-35.205	0.170	-0.092
-69.451	209.745	0.217	0.339
-68.436	-200.000	0.010	0.268
-67.422	118.418	0.180	0.221
-66.407	-200.000	-0.019	-0.151
-65.392	-48.318	-0.076	0.036
-64.378	-200.000	0.005	0.121
-63.363	-95.916	-0.161	-0.043
-62.349	150.673	0.029	0.040
-61.334	56.458	-0.593	-0.575
-60.319	69.382	0.185	0.190
-59.305	-200.000	0.032	-0.826
-58.290	234.131	0.476	0.782
-57.276	800.000	0.509	1.470
-56.261	-200.000	76.686	513.547
-55.246	510.338	1341.886	3110.651
-54.232	144.618	2574.562	3427.925
-53.217	116.089	2233.068	2725.238
-52.203	52.147	1678.926	1594.731
-51.188	44.140	1404.032	1283.206
-50.173	40.569	1358.868	1219.971
-49.159	59.252	1393.717	1367.537
-48.144	65.530	1412.784	1425.083
-47.130	44.578	1375.761	1259.883
-46.115	40.601	1358.575	1219.706
-45.100	40.357	1353.846	1213.918
-44.086	40.319	1351.376	1211.421
-43.071	40.235	1349.473	1209.159
-42.057	40.205	1347.049	1206.751
-41.042	40.295	1344.700	1205.148
-40.027	40.339	1343.548	1204.335
-39.013	40.381	1341.567	1202.768
-37.998	40.391	1339.548	1200.972
-36.984	40.425	1338.030	1199.771
-35.969	40.430	1336.275	1198.175
-34.954	40.541	1334.591	1197.287
-33.940	40.440	1333.565	1195.710
-32.925	40.466	1332.251	1194.643
-31.911	40.515	1330.584	1193.394
-30.896	40.502	1329.136	1191.971
-29.881	40.601	1327.541	1191.090
-28.867	40.601	1326.026	1189.684
-27.852	40.471	1324.712	1187.677
-26.838	40.502	1323.143	1186.409
-25.823	40.655	1321.650	1185.939
-24.809	40.551	1320.333	1184.089
-23.794	40.547	1319.007	1182.827
-22.779	40.531	1317.608	1181.429
-21.765	40.569	1316.551	1180.662
-20.750	40.513	1314.734	1178.656
-19.736	40.426	1313.543	1177.019
-18.721	40.432	1312.175	1175.787
-17.706	40.496	1310.821	1174.906
-16.692	40.371	1310.275	1173.630
-15.677	40.546	1308.663	1173.170
-14.663	40.416	1307.833	1171.613
-13.648	40.306	1307.067	1170.232
-12.633	40.314	1305.793	1169.091
-11.619	40.376	1304.866	1168.580
-10.604	40.470	1303.800	1168.132
-9.590	40.388	1302.836	1166.740
-8.575	40.300	1302.165	1165.575
-7.560	40.340	1301.038	1164.753
-6.546	40.356	1300.500	1164.324
-5.531	40.480	1298.915	1163.583
-4.517	40.367	1298.051	1162.101
-3.502	40.479	1296.851	1161.637
-2.487	40.443	1296.542	1161.104
-1.473	40.525	1292.179	1157.629
-0.458	39.215	1277.624	1136.975
0.556	35.368	1258.032	1094.016
1.571	31.145	1261.251	1072.507
2.586	29.925	1275.676	1077.580
3.600	28.521	1265.001	1060.359
4.615	20.725	1187.798	953.045
5.629	8.358	1102.861	821.558
6.644	2.487	1078.984	774.084
7.659	1.933	1076.086	769.145
8.673	1.908	1074.223	767.619
9.688	1.794	1072.434	765.697
10.702	2.088	1071.795	766.653
11.717	8.991	1082.395	809.078
12.731	20.272	1098.430	878.425
13.746	25.247	1104.166	908.183
14.761	25.484	1104.254	909.375
15.775	25.327	1104.136	908.402
16.790	25.167	1103.049	906.619
17.804	25.078	1102.569	905.694
18.819	25.158	1101.986	905.538
19.834	25.295	1101.459	905.717
20.848	25.378	1100.809	905.522
21.863	25.405	1100.206	905.082
22.877	25.240	1099.912	903.927
23.892	25.231	1098.965	903.022
24.907	25.256	1098.144	902.396
25.921	25.222	1097.414	901.545
26.936	25.210	1095.907	900.165
27.950	25.281	1093.801	898.712
28.965	25.221	1091.995	896.849
29.980	25.137	1090.812	895.378
30.994	25.259	1090.186	895.395
32.009	25.293	1089.094	894.589
33.023	25.106	1087.539	892.300
34.038	25.125	1087.415	892.215
35.053	25.240	1087.090	892.441
36.067	25.262	1085.835	891.444
37.082	25.482	1084.749	891.564
38.096	25.589	1084.226	891.584
39.111	25.484	1083.798	890.633
40.126	25.404	1081.994	888.678
41.140	25.030	1080.445	885.479
42.155	24.803	1079.108	883.185
43.169	24.836	1078.260	882.571
44.184	24.793	1077.444	881.616
45.199	24.761	1076.731	880.797
46.213	24.862	1075.722	880.389
47.228	24.978	1074.725	880.068
48.242	25.050	1074.031	879.775
49.257	25.281	1073.074	880.047
50.271	25.270	1072.335	879.306
51.286	25.326	1071.809	879.073
52.301	25.377	1070.932	878.525
53.315	25.234	1069.484	876.560
54.330	25.142	1069.018	875.652
55.344	25.244	1068.168	875.375
56.359	25.287	1066.612	874.234
57.374	25.071	1065.878	872.500
58.388	25.042	1065.185	871.714
59.403	24.896	1064.729	870.558
60.417	24.903	1063.579	869.571
61.432	24.835	1063.186	868.846
62.447	25.029	1062.500	869.150
63.461	25.065	1061.447	868.386
64.476	25.010	1060.540	867.301
65.490	24.886	1059.873	866.076
66.505	25.038	1059.129	866.125
67.520	24.887	1059.173	865.357
68.534	24.846	1057.483	863.703
69.549	24.441	1056.356	860.753
70.563	24.502	1055.382	860.176
71.578	24.441	1054.730	859.276
72.593	24.312	1053.473	857.555
73.607	24.506	1053.089	858.099
74.622	24.799	1053.079	859.421
75.636	24.837	1052.163	858.781
76.651	24.686	1050.836	856.897
77.666	24.592	1050.249	855.893
78.680	24.576	1050.055	855.583
79.695	24.807	1049.166	855.889
80.709	24.835	1048.651	855.526
81.724	24.823	1047.580	854.518
82.739	24.894	1046.996	854.304
83.753	25.278	1046.337	855.522
84.768	25.533	1045.262	855.782
85.782	25.541	1045.230	855.717
86.797	25.506	1043.712	854.233
87.812	25.345	1042.623	852.504
88.826	25.454	1041.897	852.352
89.841	25.584	1040.858	852.041
90.855	25.489	1040.357	851.108
91.870	25.551	1039.145	850.334
92.884	25.458	1037.864	848.772
93.899	25.239	1037.194	847.113
94.914	25.464	1036.167	847.262
95.928	25.328	1035.273	845.816
96.943	24.960	1033.915	842.899
97.957	24.924	1032.277	841.317
98.972	24.804	1031.448	840.007
99.987	24.843	1031.652	840.280
101.001	25.193	1030.235	840.692
102.016	25.249	1029.162	840.005
103.030	25.117	1028.206	838.532
104.045	24.938	1027.419	836.979
105.060	24.842	1026.471	835.686
106.074	25.082	1025.639	836.053
107.089	25.332	1025.047	836.663
108.103	25.177	1024.283	835.244
109.118	24.983	1022.949	833.177
110.133	24.959	1022.021	832.239
111.147	24.830	1020.342	830.201
112.162	24.614	1019.892	828.760
113.176	24.904	1019.281	829.531
114.191	24.848	1018.556	828.608
115.206	24.647	1017.523	826.765
116.220	24.589	1016.458	825.559
117.235	24.665	1015.762	825.273
118.249	24.605	1015.314	824.559
119.264	24.548	1014.172	823.295
120.279	24.501	1013.487	822.448
121.293	24.602	1012.706	822.206
122.308	24.821	1011.538	822.196
123.322	24.522	1010.601	819.986
124.337	24.520	1008.855	818.486
125.352	23.968	1007.369	814.684
126.366	23.956	1006.440	813.807
127.381	24.559	1006.919	816.879
128.395	25.018	1006.448	818.521
129.410	25.290	1004.959	818.478
130.424	25.144	1004.288	817.193
131.439	25.074	1003.648	816.284
132.454	25.235	1002.118	815.697
133.468	24.974	1001.522	813.953
134.483	25.180	1000.956	814.360
135.497	25.459	1000.256	814.983
136.512	25.506	999.700	814.673
137.527	25.368	998.728	813.180
138.541	25.518	997.652	812.913
139.556	25.470	997.373	812.394
140.570	25.695	996.376	812.528
141.585	25.598	995.238	811.089
142.600	25.364	994.654	809.488
143.614	25.675	993.928	810.228
144.629	25.672	992.939	809.333
145.643	25.555	991.869	807.865
146.658	25.450	990.177	805.946
147.673	25.351	989.044	804.509
148.687	25.301	987.870	803.260
149.702	25.304	986.670	802.223
150.716	25.180	986.253	801.259
151.731	25.207	985.763	800.910
152.746	25.464	984.825	801.224
153.760	25.627	984.378	801.517
154.775	25.648	983.886	801.138
155.789	25.556	982.978	799.917
156.804	25.519	982.106	798.974
157.819	25.567	981.118	798.314
158.833	25.677	980.580	798.292
159.848	25.773	979.535	797.797
160.862	25.611	978.329	796.028
161.877	25.608	977.198	795.022
162.892	25.620	976.300	794.276
163.906	25.587	975.150	793.122
164.921	25.591	974.268	792.353
165.935	25.632	973.449	791.798
166.950	25.551	972.670	790.737
167.964	25.575	971.358	789.708
168.979	25.495	970.096	788.262
169.994	25.389	969.606	787.326
171.008	25.531	969.046	787.428
172.023	25.601	968.703	787.384
173.037	25.352	967.490	785.239
174.052	25.214	966.700	783.924
175.067	25.287	965.932	783.552
176.081	25.364	965.435	783.415
177.096	25.298	964.917	782.639
178.110	25.009	963.965	780.538
179.125	24.834	963.065	778.978
180.140	24.922	962.602	778.917
181.154	25.181	962.111	779.579
182.169	25.370	962.251	780.443
183.183	25.540	961.718	780.680
184.198	25.437	960.391	779.087
185.213	25.415	960.168	778.743
186.227	25.344	959.376	777.724
187.242	25.490	958.582	777.641
188.256	25.650	958.163	777.928
189.271	25.699	957.211	777.294
190.286	25.302	956.143	774.646
191.300	24.737	954.520	770.830
192.315	23.880	953.053	765.885
193.329	23.945	952.211	765.420
194.344	24.826	952.656	769.503
195.359	25.266	952.602	771.280
196.373	25.516	952.446	772.161
197.388	25.487	951.463	771.173
198.402	25.425	951.364	770.759
199.417	25.608	950.295	770.608
200.432	25.196	949.439	768.081
201.446	25.191	948.611	767.324
202.461	25.091	948.229	766.518
203.475	24.247	946.423	761.386
204.490	23.458	944.870	756.703
205.504	24.444	945.233	761.133
206.519	25.116	945.259	763.951
207.534	25.078	944.979	763.496
208.548	25.375	944.820	764.564
209.563	25.177	943.872	762.886
210.577	25.136	943.189	762.096
211.592	25.623	942.874	763.842
212.607	25.620	942.174	763.194
213.621	25.560	941.846	762.608
214.636	25.610	940.750	761.864
215.650	25.494	940.193	760.852
216.665	25.574	939.876	760.866
217.680	25.649	938.667	760.138
218.694	25.088	937.481	756.745
219.709	25.057	936.654	755.877
220.723	25.246	936.247	756.279
221.738	25.420	935.555	756.388
222.753	25.370	935.295	755.900
223.767	25.459	934.908	755.895
224.782	25.792	934.507	756.902
225.796	25.733	933.908	756.103
226.811	25.153	932.163	752.190
227.826	24.401	930.857	747.919
228.840	24.601	930.722	748.585
229.855	24.934	929.309	748.774
230.869	24.362	928.281	745.486
231.884	24.786	928.812	747.621
232.899	25.598	929.015	751.113
233.913	25.414	928.070	749.513
234.928	25.340	927.582	748.743
235.942	25.245	927.270	748.029
236.957	24.828	926.121	745.302
237.972	24.995	925.635	745.538
238.986	25.149	924.736	745.388
240.001	25.215	924.190	745.159
241.015	25.241	923.965	745.017
242.030	25.437	923.208	745.153
243.045	25.650	922.618	745.496
244.059	25.667	922.615	745.497
245.074	25.428	921.816	743.795
246.088	25.007	920.677	741.068
247.103	25.415	920.319	742.404
248.117	25.973	920.305	744.632
249.132	26.031	920.271	744.777
250.147	26.294	919.894	745.491
251.161	26.440	919.110	745.390
252.176	26.323	918.335	744.216
253.190	26.457	917.800	744.267
254.205	26.579	917.410	744.388
255.220	26.429	917.048	743.411
256.234	26.308	916.572	742.460
257.249	26.134	915.468	740.786
258.263	26.233	914.780	740.573
259.278	26.285	914.226	740.271
260.293	26.323	913.767	739.991
261.307	26.271	912.811	738.936
262.322	26.126	911.905	737.546
263.336	25.365	910.383	733.145
264.351	24.373	908.156	727.241
265.366	24.414	907.847	727.100
266.380	25.487	908.415	731.859
267.395	25.959	907.886	733.292
268.409	25.923	907.525	732.787
269.424	26.070	906.797	732.730
270.439	26.209	906.310	732.839
271.453	26.225	905.845	732.463
272.468	26.435	905.543	733.006
273.482	26.334	905.033	732.119
274.497	25.906	903.587	729.154
275.512	25.611	903.050	727.462
276.526	25.972	902.817	728.669
277.541	26.205	902.763	729.500
278.555	25.924	901.908	727.610
279.570	26.013	900.611	726.861
280.585	26.003	900.475	726.645
281.599	25.923	899.533	725.498
282.614	25.391	897.877	721.961
283.628	25.446	897.688	721.966
284.643	25.760	897.264	722.821
285.657	25.368	896.461	720.538
286.672	25.085	895.559	718.616
287.687	25.732	895.448	721.055
288.701	25.690	895.097	720.540
289.716	25.306	894.072	718.117
290.730	25.416	893.276	717.854
291.745	25.180	892.334	716.092
292.760	25.369	892.132	716.621
293.774	26.510	892.485	721.392
294.789	26.678	892.558	722.055
295.803	26.737	891.548	721.408
296.818	26.868	890.762	721.230
297.833	26.360	889.860	718.420
298.847	26.110	889.137	716.778
299.862	26.523	889.124	718.344
300.876	26.698	888.671	718.608
301.891	26.567	888.261	717.693
302.906	26.165	887.235	715.210
303.920	26.321	886.946	715.531
304.935	26.729	886.531	716.746
305.949	26.663	885.628	715.693
306.964	26.384	885.091	714.095
307.979	26.468	884.619	713.982
308.993	26.756	884.626	715.059
310.008	26.744	883.986	714.433
311.022	26.597	883.088	713.065
312.037	26.415	882.604	711.894
313.052	26.135	881.513	709.850
314.066	25.069	880.092	704.454
315.081	24.783	879.148	702.513
316.095	25.772	879.523	706.633
317.110	26.316	879.284	708.514
318.125	25.495	877.930	704.145
319.139	24.496	876.524	699.046
320.154	24.424	875.847	698.164
321.168	25.170	876.852	701.822
322.183	26.007	876.473	704.730
323.197	26.207	876.321	705.326
324.212	26.397	875.898	705.665
325.227	26.512	874.923	705.266
326.241	26.463	874.294	704.507
327.256	26.161	873.873	702.927
328.270	26.097	873.267	702.127
329.285	25.896	872.237	700.456
330.300	25.842	871.182	699.337
331.314	25.905	871.422	699.713
332.329	26.392	870.901	701.121
333.343	26.619	870.842	701.892
334.358	26.412	870.568	700.810
335.373	26.540	870.103	700.867
336.387	26.811	870.038	701.801
337.402	26.915	869.837	701.980
338.416	26.861	869.409	701.365
339.431	27.070	868.980	701.765
340.446	27.223	868.750	702.108
341.460	27.002	868.144	700.702
342.475	26.873	867.427	699.563
343.489	26.910	867.245	699.496
344.504	27.214	866.962	700.379
345.519	27.357	866.648	700.614
346.533	27.331	865.724	699.706
347.548	27.446	865.325	699.762
348.562	27.321	864.982	698.940
349.577	27.337	864.146	698.266
350.592	27.206	863.958	697.551
351.606	27.292	863.007	697.052
352.621	27.099	861.967	695.408
353.635	27.021	861.317	694.524
354.650	26.422	859.502	690.716
355.665	25.460	857.955	685.741
356.679	25.926	858.124	687.595
357.694	26.192	858.140	688.559
358.708	26.132	857.424	687.696
359.723	26.621	857.094	689.232
360.738	27.037	856.698	690.435
361.752	27.076	856.289	690.190
362.767	27.489	855.896	691.381
363.781	27.681	855.757	691.936
364.796	27.710	855.216	691.547
365.810	27.716	855.140	691.449
366.825	27.841	854.026	690.958
367.840	27.565	853.163	689.156
368.854	27.028	852.547	686.566
369.869	27.175	852.246	686.819
370.883	26.961	852.002	685.754
371.898	27.040	851.143	685.302
372.913	27.139	850.986	685.485
373.927	27.286	850.572	685.648
374.942	27.253	850.272	685.220
375.956	27.328	850.023	685.241
376.971	27.632	849.359	685.789
377.986	27.768	849.080	686.013
379.000	27.713	848.391	685.190
380.015	27.516	847.694	683.828
381.029	27.573	847.200	683.582
382.044	27.615	846.918	683.453
383.059	27.747	845.677	682.885
384.073	27.679	845.397	682.343
385.088	27.631	845.106	681.869
386.102	27.363	844.366	680.210
387.117	27.384	843.604	679.614
388.132	27.087	842.355	677.441
389.146	26.526	841.582	674.669
390.161	27.042	841.307	676.311
391.175	27.198	841.388	676.895
392.190	27.097	839.978	675.328
393.205	25.661	837.867	668.242
394.219	24.259	835.801	661.337
395.234	23.901	835.878	660.012
396.248	25.709	837.236	667.737
397.263	27.100	838.243	673.643
398.278	27.161	837.855	673.498
399.292	26.893	837.311	672.009
400.307	26.872	836.620	671.316
401.321	27.066	836.411	671.806
402.336	27.403	836.273	672.884
403.350	27.803	836.222	674.263
404.365	28.170	835.836	675.247
405.380	28.241	835.955	675.543
406.394	28.449	835.018	675.493
407.409	28.415	834.561	674.938
408.423	28.231	834.359	674.037
409.438	28.284	834.251	674.086
410.453	28.478	833.560	674.182
411.467	28.263	833.020	672.894
412.482	28.396	832.331	672.769
413.496	28.337	832.281	672.452
414.511	28.444	831.714	672.326
415.526	28.301	831.428	671.511
416.540	28.255	830.639	670.645
417.555	27.978	829.924	668.994
418.569	28.075	829.557	668.995
419.584	28.100	828.800	668.416
420.599	27.845	828.512	667.191
421.613	95.169	1267.785	1379.846
422.628	82.226	1331.805	1379.995
