DTS Sentinel unit serial number:	SN413079Multiplexer serial number:	ORYXHardware model number:	OX4-SRSoftware version number:	ORYX F/W v4.00 Oryx Data Collector v3.7.2.0data status	okinstallation	princeton_trtdifferential loss correction	single-endedforward channel	channel 1reverse channel	N/Adate	2019/09/12time	14:36:11forward acquisition time	60.00reverse acquisition time	0.00gamma	496.2192k internal	0.2293k external	0.2293temperature offset calibration	1.0054default loss term (dB/km)	0.3790temperature slope calibration	1.0000multiplexer offset coefficient	1.0000multiplexer slope coefficient	1.0000fibre end	0.00T internal ref (°C)	40.06T ext. ref 1 (°C)	2.27T ext. ref 2 (°C)	36.14length (m)	temperature (°C)	Stokes	anti-Stokes-747.200	800.000	0.091	0.313
-746.185	800.000	0.067	0.232
-745.171	232.839	-0.102	-0.172
-744.156	-99.966	-0.034	-0.009
-743.142	-200.000	-0.030	-0.165
-742.127	-200.000	0.038	0.245
-741.112	-104.368	0.337	0.080
-740.098	-200.000	0.005	0.106
-739.083	-132.288	0.256	-0.034
-738.069	-126.155	-0.111	0.017
-737.054	22.743	-0.222	0.186
-736.039	-149.963	-0.176	0.014
-735.025	-200.000	0.014	0.156
-734.010	193.045	-0.184	0.284
-732.996	-103.107	-0.396	-0.096
-731.981	-124.954	-0.022	0.003
-730.966	-79.503	-0.239	-0.083
-729.952	60.183	-0.194	-0.196
-728.937	45.017	-0.237	0.223
-727.923	-200.000	0.031	0.201
-726.908	-200.000	0.002	0.100
-725.894	-15.240	-0.325	-0.212
-724.879	-78.374	0.097	-0.034
-723.864	-43.635	0.111	-0.057
-722.850	207.815	0.203	0.324
-721.835	87.271	-0.215	0.242
-720.821	-200.000	0.015	0.144
-719.806	-200.000	0.038	-0.304
-718.791	37.076	-0.177	0.160
-717.777	800.000	0.081	-0.285
-716.762	-200.000	-0.013	-0.143
-715.748	-67.827	0.269	0.107
-714.733	-185.340	0.112	-0.002
-713.718	800.000	-0.035	-0.112
-712.704	-200.000	0.019	-0.088
-711.689	-64.188	0.172	-0.072
-710.675	-98.088	-0.464	0.122
-709.660	-200.000	0.054	0.458
-708.645	-86.565	0.186	0.058
-707.631	28.140	-0.149	-0.129
-706.616	800.000	0.052	-0.223
-705.602	103.472	-0.248	-0.297
-704.587	-103.291	-0.099	0.024
-703.572	-62.165	-0.056	-0.024
-702.558	221.869	-0.128	-0.210
-701.543	-200.000	-0.009	0.270
-700.529	-200.000	-0.001	0.253
-699.514	-17.090	-0.161	-0.104
-698.499	-54.551	0.187	-0.086
-697.485	-200.000	-0.016	-0.247
-696.470	-81.275	0.163	-0.055
-695.456	800.000	0.035	0.121
-694.441	137.887	-0.166	0.222
-693.426	-200.000	-0.015	0.344
-692.412	-121.574	0.553	-0.094
-691.397	25.690	-0.194	-0.165
-690.383	-129.716	0.417	-0.059
-689.368	-200.000	-0.027	-0.177
-688.354	565.816	-0.177	-0.437
-687.339	800.000	-0.056	0.212
-686.324	-57.472	0.150	-0.067
-685.310	260.664	-0.085	-0.150
-684.295	5.643	-0.477	-0.360
-683.281	159.666	0.253	-0.359
-682.266	259.237	0.100	0.175
-681.251	231.820	-0.217	0.363
-680.237	-200.000	0.028	-0.255
-679.222	260.206	0.111	0.196
-678.208	687.292	-0.011	0.029
-677.193	-91.266	-0.048	-0.014
-676.178	-200.000	-0.034	-0.270
-675.164	76.818	-0.158	-0.172
-674.149	-14.905	-0.525	-0.343
-673.135	16.240	0.186	-0.150
-672.120	-103.565	0.158	-0.038
-671.105	-12.674	0.040	0.026
-670.091	-147.025	-0.120	-0.011
-669.076	-200.000	-0.090	-0.406
-668.062	-200.000	-0.042	-0.362
-667.047	20.243	-0.165	-0.136
-666.032	-200.000	0.005	-0.077
-665.018	357.603	-0.193	-0.394
-664.003	94.737	0.059	-0.068
-662.989	121.403	0.076	0.097
-661.974	-63.570	-0.139	-0.058
-660.959	-46.438	-0.334	-0.167
-659.945	-200.000	0.003	0.126
-658.930	-98.956	0.043	-0.011
-657.916	-200.000	-0.024	0.120
-656.901	-200.000	0.082	-0.430
-655.886	-145.069	0.103	0.010
-654.872	76.899	0.032	-0.035
-653.857	800.000	0.031	-0.087
-652.843	126.468	-0.102	0.132
-651.828	-144.201	0.195	0.019
-650.814	-128.729	0.081	0.012
-649.799	-30.922	-0.163	0.094
-648.784	501.957	-0.150	-0.353
-647.770	542.128	0.069	0.167
-646.755	-200.000	-0.007	0.266
-645.741	320.483	-0.125	0.242
-644.726	-200.000	0.000	-0.298
-643.711	800.000	0.027	0.098
-642.697	-8.489	-0.118	-0.081
-641.682	-200.000	0.011	0.074
-640.668	193.645	-0.151	-0.233
-639.653	-200.000	0.013	0.094
-638.638	-97.848	0.292	-0.077
-637.624	-188.623	-0.482	-0.006
-636.609	-119.061	-0.079	-0.014
-635.595	-147.469	0.058	-0.005
-634.580	175.807	-0.226	-0.334
-633.565	5.697	0.350	-0.264
-632.551	-53.122	0.138	0.065
-631.536	41.696	-0.214	-0.197
-630.522	-90.790	0.128	0.037
-629.507	-64.678	-0.137	-0.056
-628.492	-67.223	-0.136	0.055
-627.478	170.086	-0.011	0.016
-626.463	800.000	-0.113	-0.341
-625.449	800.000	-0.004	0.016
-624.434	-200.000	-0.029	-0.179
-623.419	90.110	-0.133	0.152
-622.405	251.998	-0.089	-0.154
-621.390	-200.000	0.039	-0.284
-620.376	-84.008	-0.161	-0.052
-619.361	-200.000	-0.002	0.162
-618.346	-107.415	0.127	-0.028
-617.332	-152.744	-0.199	-0.014
-616.317	40.397	-0.170	-0.155
-615.303	800.000	-0.023	0.075
-614.288	-200.000	-0.030	0.185
-613.273	76.605	0.064	-0.069
-612.259	-69.118	-0.298	-0.117
-611.244	-8.459	0.197	-0.135
-610.230	-30.890	-0.119	-0.068
-609.215	-67.600	0.381	-0.152
-608.201	407.172	-0.135	0.290
-607.186	-200.000	0.004	-0.049
-606.171	-19.692	0.170	-0.107
-605.157	-64.402	0.331	-0.137
-604.142	253.199	-0.127	-0.221
-603.128	800.000	-0.016	-0.046
-602.113	-149.397	0.128	-0.010
-601.098	-38.384	-0.297	-0.160
-600.084	51.711	-0.209	0.202
-599.069	247.655	0.199	-0.343
-598.055	-200.000	0.010	0.312
-597.040	-151.452	0.149	-0.011
-596.025	147.162	0.217	0.296
-595.011	6.850	0.136	-0.103
-593.996	767.193	0.101	-0.280
-592.982	-152.992	-0.439	-0.031
-591.967	-16.044	0.450	0.291
-590.952	96.560	-0.131	0.153
-589.938	-88.183	0.361	-0.110
-588.923	564.130	-0.084	0.206
-587.909	800.000	-0.022	0.062
-586.894	-44.943	-0.101	-0.051
-585.879	36.929	-0.072	-0.064
-584.865	-69.165	-0.421	-0.165
-583.850	-200.000	0.000	-0.234
-582.836	-132.291	0.208	-0.027
-581.821	-117.162	0.321	-0.059
-580.806	-149.594	-0.202	0.016
-579.792	63.370	-0.294	0.300
-578.777	-200.000	0.002	-0.195
-577.763	21.892	-0.104	-0.086
-576.748	-119.432	-0.084	0.015
-575.733	-19.045	-0.309	-0.195
-574.719	800.000	-0.020	-0.072
-573.704	59.500	0.139	0.139
-572.690	235.025	0.126	0.211
-571.675	60.750	-0.231	-0.233
-570.661	-200.000	-0.029	0.169
-569.646	-164.301	-0.224	-0.010
-568.631	29.055	0.315	-0.271
-567.617	424.310	-0.205	0.448
-566.602	189.168	0.093	-0.142
-565.588	-189.149	-0.190	0.002
-564.573	-35.283	0.211	-0.117
-563.558	97.599	0.128	0.150
-562.544	59.098	0.230	0.230
-561.529	178.307	0.118	-0.174
-560.515	263.438	-0.048	0.084
-559.500	24.163	0.241	0.202
-558.485	44.858	-0.232	0.217
-557.471	-177.070	0.289	0.007
-556.456	-66.718	0.179	0.072
-555.442	160.844	0.057	-0.080
-554.427	-163.799	-0.047	0.002
-553.412	40.276	-0.071	-0.065
-552.398	-71.346	-0.207	0.079
-551.383	-34.021	-0.048	0.027
-550.369	800.000	-0.028	-0.115
-549.354	-200.000	-0.010	0.101
-548.339	-105.726	0.418	0.096
-547.325	-200.000	0.022	-0.318
-546.310	-131.495	0.240	-0.032
-545.296	-200.000	0.028	-0.153
-544.281	166.422	-0.141	-0.204
-543.266	499.696	0.004	0.010
-542.252	71.668	-0.135	-0.143
-541.237	295.502	0.095	0.177
-540.223	623.865	-0.171	-0.437
-539.208	-167.885	-0.102	0.004
-538.193	-200.000	0.021	0.333
-537.179	800.000	-0.047	-0.203
-536.164	268.214	-0.218	-0.388
-535.150	-200.000	0.031	-0.153
-534.135	370.403	0.141	-0.289
-533.121	744.766	-0.079	0.215
-532.106	800.000	-0.072	-0.228
-531.091	88.145	0.067	0.075
-530.077	-200.000	0.005	0.029
-529.062	82.488	-0.301	0.332
-528.048	17.819	0.114	0.092
-527.033	-200.000	-0.005	-0.253
-526.018	-200.000	0.005	-0.080
-525.004	170.582	0.106	0.153
-523.989	-200.000	-0.011	0.189
-522.975	415.220	-0.107	-0.231
-521.960	-126.874	0.214	-0.032
-520.945	57.504	-0.074	-0.074
-519.931	49.087	0.253	0.241
-518.916	438.403	-0.144	0.318
-517.902	-8.850	-0.097	-0.066
-516.887	800.000	-0.070	-0.290
-515.872	575.361	0.106	0.262
-514.858	-182.925	0.257	0.005
-513.843	280.111	0.043	-0.078
-512.829	174.007	0.211	-0.309
-511.814	-200.000	-0.007	0.385
-510.799	775.576	-0.106	0.293
-509.785	-200.000	0.068	-0.489
-508.770	237.547	0.166	-0.278
-507.756	338.122	-0.065	0.128
-506.741	800.000	0.035	-0.116
-505.726	-144.053	0.078	-0.007
-504.712	348.096	-0.053	-0.107
-503.697	145.614	0.106	0.143
-502.683	420.412	-0.140	-0.304
-501.668	-23.810	0.282	0.171
-500.653	370.758	-0.080	0.164
-499.639	608.306	-0.068	-0.172
-498.624	-200.000	-0.008	-0.246
-497.610	800.000	-0.077	-0.247
-496.595	169.891	0.129	0.186
-495.581	-78.015	-0.306	0.107
-494.566	49.437	-0.094	-0.090
-493.551	77.243	-0.138	-0.149
-492.537	723.548	0.063	-0.171
-491.522	-200.000	-0.013	-0.156
-490.508	-55.584	0.318	-0.144
-489.493	-200.000	-0.003	0.015
-488.478	-154.000	-0.057	0.004
-487.464	130.018	0.160	-0.207
-486.449	-125.026	-0.230	0.036
-485.435	-194.721	0.354	-0.003
-484.420	-178.386	-0.179	-0.004
-483.405	-102.575	0.112	0.027
-482.391	257.426	-0.198	0.345
-481.376	48.466	0.284	0.269
-480.362	800.000	0.072	0.288
-479.347	-126.134	0.125	-0.019
-478.332	-137.501	0.246	0.028
-477.318	-200.000	-0.092	0.439
-476.303	158.567	0.054	-0.077
-475.289	459.208	0.030	-0.066
-474.274	312.624	-0.193	-0.368
-473.259	-200.000	0.018	0.165
-472.245	29.835	0.119	0.102
-471.230	317.357	0.046	0.088
-470.216	-135.909	-0.162	-0.019
-469.201	1.288	0.173	0.126
-468.186	-200.000	-0.001	0.057
-467.172	-91.955	-0.108	-0.031
-466.157	-35.634	0.281	-0.154
-465.143	-200.000	0.022	0.321
-464.128	304.198	0.111	0.209
-463.113	232.465	0.019	0.031
-462.099	-32.007	0.110	-0.062
-461.084	46.767	-0.126	-0.119
-460.070	46.814	0.063	0.059
-459.055	-200.000	-0.003	-0.181
-458.040	-6.145	-0.268	0.185
-457.026	-170.991	-0.383	-0.013
-456.011	-79.334	-0.233	0.080
-454.997	63.783	-0.265	0.269
-453.982	-60.768	0.155	0.067
-452.968	-200.000	-0.058	-0.262
-451.953	800.000	0.033	-0.134
-450.938	248.823	0.160	-0.274
-449.924	-52.378	-0.235	-0.110
-448.909	177.652	-0.103	0.151
-447.895	-4.296	-0.291	0.204
-446.880	32.920	0.186	0.163
-445.865	69.497	0.266	-0.277
-444.851	-200.000	0.003	-0.043
-443.836	28.604	-0.109	-0.093
-442.822	417.375	-0.045	0.096
-441.807	800.000	0.058	-0.194
-440.792	97.987	-0.304	-0.354
-439.778	800.000	0.083	0.231
-438.763	-43.580	-0.116	-0.059
-437.749	183.715	-0.237	0.354
-436.734	-200.000	0.003	0.025
-435.719	-200.000	-0.045	0.345
-434.705	42.068	-0.201	0.185
-433.690	-62.228	-0.245	0.103
-432.676	749.391	-0.107	0.291
-431.661	519.261	0.078	0.185
-430.646	105.067	-0.082	-0.098
-429.632	-103.766	-0.108	-0.025
-428.617	-171.555	0.199	-0.007
-427.603	140.396	0.259	0.346
-426.588	-200.000	0.000	-0.133
-425.573	800.000	0.081	-0.318
-424.559	247.518	0.162	0.276
-423.544	-102.897	-0.205	-0.049
-422.530	-0.390	-0.109	-0.078
-421.515	149.966	-0.272	-0.372
-420.500	-156.095	0.272	-0.017
-419.486	-64.366	0.287	0.118
-418.471	225.485	-0.098	-0.161
-417.457	82.659	-0.309	0.339
-416.442	-8.848	-0.084	-0.057
-415.428	-136.456	0.183	-0.021
-414.413	-200.000	-0.005	0.136
-413.398	28.431	0.297	-0.253
-412.384	-200.000	0.064	-0.318
-411.369	800.000	-0.064	0.243
-410.355	298.033	-0.101	0.188
-409.340	621.560	0.040	0.101
-408.325	-200.000	-0.008	-0.130
-407.311	385.206	-0.136	-0.284
-406.296	201.771	-0.118	0.183
-405.282	-200.000	-0.019	0.221
-404.267	-72.411	0.044	0.016
-403.252	70.390	-0.197	-0.205
-402.238	199.782	0.074	0.114
-401.223	71.270	0.153	0.161
-400.209	-106.618	-0.073	-0.016
-399.194	12.547	0.010	0.007
-398.179	800.000	-0.077	-0.257
-397.165	160.185	0.114	-0.160
-396.150	-200.000	-0.050	-0.261
-395.136	-40.610	0.410	-0.215
-394.121	-52.636	-0.168	-0.078
-393.106	800.000	0.056	0.192
-392.092	501.103	-0.155	-0.360
-391.077	-52.220	0.214	0.100
-390.063	-96.387	-0.236	-0.063
-389.048	-90.893	-0.248	0.072
-388.033	-8.923	0.060	-0.040
-387.019	800.000	0.031	0.130
-386.004	-31.941	0.123	0.069
-384.990	800.000	0.084	-0.244
-383.975	198.908	-0.107	0.166
-382.960	-200.000	0.025	0.247
-381.946	-16.299	-0.035	-0.022
-380.931	-9.279	-0.185	-0.125
-379.917	443.641	-0.143	0.316
-378.902	-14.309	-0.198	-0.128
-377.888	-118.726	0.055	-0.010
-376.873	-35.799	-0.106	0.058
-375.858	9.761	-0.258	-0.197
-374.844	81.153	-0.239	-0.261
-373.829	378.429	0.098	0.202
-372.815	29.394	-0.271	-0.232
-371.800	-200.000	0.000	-0.039
-370.785	-200.000	0.031	-0.239
-369.771	-200.000	-0.012	0.066
-368.756	87.568	0.070	0.078
-367.742	-200.000	0.040	-0.357
-366.727	-10.011	-0.106	-0.071
-365.712	672.463	-0.127	-0.333
-364.698	-105.774	-0.182	-0.041
-363.683	-47.738	0.174	0.085
-362.669	165.613	-0.118	0.169
-361.654	-200.000	0.024	-0.269
-360.639	-200.000	0.049	-0.237
-359.625	11.143	0.098	-0.076
-358.610	-137.674	0.164	-0.019
-357.596	21.807	-0.210	-0.172
-356.581	-57.628	0.079	-0.035
-355.566	-128.059	0.281	-0.041
-354.552	234.708	-0.062	-0.103
-353.537	512.035	0.098	-0.229
-352.523	-200.000	-0.043	0.245
-351.508	534.132	-0.077	-0.184
-350.493	-170.756	0.079	-0.003
-349.479	-200.000	-0.082	0.396
-348.464	-200.000	-0.006	0.286
-347.450	9.666	0.180	-0.137
-346.435	7.369	0.081	0.061
-345.420	-200.000	-0.008	-0.042
-344.406	56.680	0.115	-0.113
-343.391	-178.953	0.053	0.001
-342.377	-200.000	-0.016	0.373
-341.362	218.877	-0.150	-0.241
-340.348	-34.647	0.204	0.113
-339.333	36.779	0.130	0.116
-338.318	-31.254	-0.220	0.125
-337.304	43.861	-0.048	-0.044
-336.289	-200.000	-0.001	-0.089
-335.275	494.873	-0.072	-0.167
-334.260	-113.824	0.195	-0.038
-333.245	-5.525	0.121	0.083
-332.231	144.322	-0.215	0.289
-331.216	-172.710	0.098	-0.003
-330.202	-106.814	0.336	0.075
-329.187	-51.853	0.265	0.124
-328.172	49.077	0.170	0.160
-327.158	273.873	-0.163	0.290
-326.143	-200.000	-0.046	0.249
-325.129	800.000	0.088	0.329
-324.114	800.000	-0.049	-0.140
-323.099	293.447	0.149	0.274
-322.085	355.010	0.120	-0.241
-321.070	90.935	0.150	0.169
-320.056	77.681	-0.023	0.025
-319.041	328.931	-0.128	-0.248
-318.026	800.000	-0.036	-0.154
-317.012	800.000	-0.077	-0.299
-315.997	-69.042	-0.313	-0.121
-314.983	-127.574	0.284	0.041
-313.968	360.529	0.145	-0.291
-312.953	223.866	-0.112	0.182
-311.939	-128.329	-0.067	0.010
-310.924	-91.129	0.332	0.096
-309.910	-200.000	-0.010	-0.054
-308.895	-132.352	0.312	0.041
-307.880	71.161	-0.081	-0.085
-306.866	-200.000	0.017	-0.105
-305.851	139.840	0.077	-0.101
-304.837	-200.000	-0.002	0.078
-303.822	800.000	-0.073	0.208
-302.807	-47.878	-0.047	-0.023
-301.793	142.206	-0.072	-0.096
-300.778	28.895	-0.194	0.165
-299.764	-74.581	-0.305	-0.110
-298.749	-15.864	-0.024	0.016
-297.735	-200.000	-0.014	-0.149
-296.720	211.645	-0.114	0.180
-295.705	-200.000	0.165	0.000
-294.691	-129.296	0.244	0.034
-293.676	278.962	-0.106	-0.190
-292.662	-200.000	0.025	0.320
-291.647	-33.468	0.229	0.127
-290.632	146.339	-0.152	0.205
-289.618	133.211	-0.120	-0.155
-288.603	-200.000	0.040	-0.269
-287.589	-100.948	-0.060	0.015
-286.574	-101.510	-0.145	0.035
-285.559	220.720	0.014	0.023
-284.545	-26.196	0.143	0.085
-283.530	-161.830	0.185	-0.009
-282.516	-46.681	0.157	0.077
-281.501	-28.581	0.398	0.230
-280.486	800.000	0.065	0.215
-279.472	-106.849	0.239	-0.053
-278.457	106.010	0.173	-0.205
-277.443	-65.523	-0.065	-0.026
-276.428	-50.431	0.240	0.114
-275.413	-108.183	-0.213	-0.046
-274.399	492.198	0.074	-0.170
-273.384	80.078	0.163	-0.176
-272.370	155.210	0.099	0.137
-271.355	-118.118	-0.265	0.048
-270.340	800.000	0.053	-0.161
-269.326	459.250	0.150	-0.335
-268.311	800.000	-0.021	-0.090
-267.297	800.000	0.015	-0.058
-266.282	79.402	0.124	-0.133
-265.267	-200.000	0.034	0.210
-264.253	-200.000	-0.017	-0.170
-263.238	68.914	-0.073	0.075
-262.224	-200.000	0.014	0.295
-261.209	112.175	0.123	-0.149
-260.195	-129.492	-0.069	0.010
-259.180	-50.814	0.132	-0.062
-258.165	-59.166	-0.246	0.106
-257.151	261.772	-0.107	-0.186
-256.136	17.296	-0.296	0.236
-255.122	17.116	0.074	-0.059
-254.107	68.021	-0.175	-0.180
-253.092	384.354	-0.071	0.147
-252.078	382.135	0.113	-0.233
-251.063	-70.795	-0.149	-0.056
-250.049	23.738	0.082	-0.068
-249.034	-200.000	0.015	0.415
-248.019	338.264	-0.116	0.227
-247.005	211.051	0.105	0.165
-245.990	-81.055	-0.184	0.061
-244.976	-128.871	0.131	-0.018
-243.961	-126.270	-0.160	-0.024
-242.946	800.000	-0.115	-0.319
-241.932	-128.759	-0.518	0.073
-240.917	800.000	-0.070	0.255
-239.903	321.649	-0.222	0.423
-238.888	235.990	0.092	0.153
-237.873	-161.025	0.293	-0.015
-236.859	-19.460	0.273	0.169
-235.844	800.000	0.047	0.181
-234.830	-61.144	0.274	-0.116
-233.815	-60.224	0.196	0.084
-232.800	77.097	-0.089	0.095
-231.786	-200.000	-0.052	0.417
-230.771	-151.671	0.166	0.012
-229.757	105.299	0.084	-0.099
-228.742	-50.241	0.370	-0.176
-227.727	93.838	-0.248	0.282
-226.713	-200.000	-0.026	0.317
-225.698	237.509	0.154	0.255
-224.684	-200.000	0.017	0.409
-223.669	102.535	0.131	0.154
-222.655	23.342	0.085	-0.070
-221.640	-173.479	-0.078	-0.002
-220.625	12.337	0.138	0.106
-219.611	800.000	0.032	-0.117
-218.596	-180.618	-0.155	-0.003
-217.582	90.765	0.186	-0.209
-216.567	-70.135	0.142	0.054
-215.552	-140.726	0.113	0.012
-214.538	-105.625	0.157	0.036
-213.523	800.000	-0.076	0.246
-212.509	-100.758	-0.236	0.058
-211.494	-14.004	-0.451	0.292
-210.479	255.900	0.071	0.122
-209.465	800.000	0.127	0.390
-208.450	-200.000	-0.010	0.116
-207.436	-55.502	-0.111	-0.050
-206.421	156.860	0.175	-0.243
-205.406	-200.000	0.020	-0.440
-204.392	800.000	0.016	0.060
-203.377	-92.153	0.177	-0.050
-202.363	357.567	0.246	0.491
-201.348	77.186	-0.280	-0.298
-200.333	800.000	0.036	-0.152
-199.319	375.137	0.077	-0.157
-198.304	120.538	0.149	-0.186
-197.290	459.875	0.034	-0.077
-196.275	-84.592	-0.162	0.051
-195.260	-0.004	0.203	0.145
-194.246	-24.823	0.068	0.041
-193.231	-113.773	0.202	-0.039
-192.217	-35.791	-0.339	0.184
-191.202	407.898	-0.128	0.271
-190.187	-200.000	0.018	0.126
-189.173	-95.062	-0.352	0.095
-188.158	137.217	0.062	-0.082
-187.144	348.130	0.081	0.159
-186.129	-200.000	-0.023	-0.202
-185.114	141.455	-0.106	-0.141
-184.100	-58.726	0.357	-0.155
-183.085	-113.123	-0.392	0.077
-182.071	-200.000	-0.046	-0.262
-181.056	-200.000	-0.033	-0.204
-180.042	16.465	0.144	0.114
-179.027	-62.360	0.204	0.085
-178.012	-51.925	-0.148	-0.069
-176.998	-176.479	-0.236	0.006
-175.983	51.490	-0.053	0.051
-174.969	33.610	0.141	0.122
-173.954	-69.768	0.194	-0.074
-172.939	-95.153	0.026	-0.007
-171.925	80.554	0.112	0.121
-170.910	-109.393	0.252	0.053
-169.896	-110.239	-0.160	0.033
-168.881	-200.000	-0.086	-0.410
-167.866	73.274	-0.158	0.166
-166.852	25.460	0.138	-0.114
-165.837	-136.063	0.168	-0.020
-164.823	238.076	0.085	-0.142
-163.808	338.338	0.285	0.555
-162.793	96.377	0.219	0.250
-161.779	-200.000	-0.087	0.403
-160.764	137.855	0.142	0.186
-159.750	-40.333	-0.208	-0.108
-158.735	-200.000	-0.017	-0.083
-157.720	32.814	-0.398	-0.344
-156.706	39.364	-0.138	-0.123
-155.691	416.109	0.160	0.342
-154.677	-118.191	-0.137	0.024
-153.662	-121.553	-0.273	0.045
-152.647	800.000	-0.127	-0.479
-151.633	230.196	-0.159	-0.259
-150.618	434.611	-0.146	-0.317
-149.604	-200.000	0.070	-0.419
-148.589	-150.892	0.229	-0.017
-147.574	-200.000	0.023	-0.103
-146.560	-56.698	0.202	-0.089
-145.545	-131.290	0.322	0.043
-144.531	800.000	-0.048	-0.170
-143.516	-103.406	0.483	0.114
-142.502	172.607	0.188	0.270
-141.487	-122.952	-0.376	0.060
-140.472	-138.222	0.216	-0.024
-139.458	-110.979	-0.295	-0.060
-138.443	800.000	-0.067	-0.191
-137.429	13.954	-0.156	0.121
-136.414	800.000	-0.037	0.147
-135.399	-142.080	-0.234	-0.023
-134.385	131.700	0.120	-0.154
-133.370	-10.025	0.058	0.038
-132.356	270.393	-0.050	-0.087
-131.341	189.345	0.123	0.185
-130.326	308.976	0.104	-0.194
-129.312	-123.002	-0.160	0.026
-128.297	-116.645	-0.194	-0.036
-127.283	1.318	-0.089	0.064
-126.268	-200.000	0.016	0.575
-125.253	133.452	0.027	0.035
-124.239	135.605	0.023	-0.030
-123.224	357.660	0.135	-0.269
-122.210	-143.139	0.398	0.038
-121.195	800.000	-0.049	0.170
-120.180	800.000	0.058	0.223
-119.166	-122.515	-0.192	-0.031
-118.151	719.119	-0.048	-0.126
-117.137	-51.849	0.073	0.034
-116.122	-91.010	-0.195	0.056
-115.107	774.050	0.059	-0.160
-114.093	50.036	0.235	-0.221
-113.078	372.460	0.053	0.107
-112.064	-87.458	-0.128	0.039
-111.049	-156.164	-0.499	-0.031
-110.034	85.340	-0.264	-0.289
-109.020	800.000	0.060	0.174
-108.005	313.741	0.171	-0.322
-106.991	800.000	0.021	-0.077
-105.976	-83.173	0.278	-0.089
-104.962	-127.008	-0.099	0.014
-103.947	-26.163	0.153	0.090
-102.932	-130.217	-0.143	-0.019
-101.918	-137.533	-0.122	-0.014
-100.903	-46.918	0.130	-0.063
-99.889	510.269	-0.036	0.084
-98.874	125.202	-0.137	0.173
-97.859	140.071	0.284	0.374
-96.845	31.317	-0.135	0.116
-95.830	126.919	0.163	0.205
-94.816	-52.937	0.277	0.127
-93.801	-200.000	0.039	-0.533
-92.786	-200.000	-0.022	-0.101
-91.772	-106.679	-0.121	0.027
-90.757	33.458	-0.120	0.104
-89.743	-200.000	0.030	0.200
-88.728	800.000	0.019	0.067
-87.713	-200.000	0.007	-0.033
-86.699	800.000	-0.026	-0.099
-85.684	-200.000	0.019	0.248
-84.670	264.837	0.080	-0.139
-83.655	-200.000	-0.055	0.255
-82.640	-103.066	0.206	-0.049
-81.626	-31.507	-0.398	0.223
-80.611	-200.000	-0.017	-0.078
-79.597	-130.832	-0.135	-0.018
-78.582	-78.931	0.171	0.058
-77.567	-162.692	0.410	-0.020
-76.553	-61.875	-0.238	-0.099
-75.538	-132.337	0.166	-0.021
-74.524	-200.000	0.016	-0.377
-73.509	-73.815	0.368	-0.133
-72.494	-200.000	0.029	0.145
-71.480	19.470	0.477	-0.382
-70.465	9.308	0.131	0.099
-69.451	800.000	-0.033	-0.135
-68.436	290.954	0.076	-0.138
-67.422	-94.269	0.208	-0.057
-66.407	-10.131	-0.314	0.208
-65.392	-174.422	-0.243	-0.007
-64.378	135.371	-0.050	0.065
-63.363	-113.068	0.092	0.018
-62.349	-200.000	0.004	0.047
-61.334	473.699	-0.340	-0.763
-60.319	-65.597	0.343	0.137
-59.305	-200.000	0.007	-0.767
-58.290	366.218	0.491	0.987
-57.276	800.000	0.540	1.540
-56.261	-200.000	77.489	508.843
-55.246	506.994	1332.457	3077.573
-54.232	148.314	2557.161	3437.225
-53.217	114.599	2222.611	2696.720
-52.203	51.257	1676.738	1584.533
-51.188	43.652	1405.190	1279.989
-50.173	40.247	1359.520	1217.447
-49.159	58.464	1396.323	1363.977
-48.144	64.998	1414.628	1422.342
-47.130	44.202	1376.879	1257.409
-46.115	40.313	1360.296	1218.350
-45.100	40.079	1355.695	1212.748
-44.086	39.862	1353.676	1209.562
-43.071	39.894	1351.267	1207.562
-42.057	39.926	1348.768	1205.472
-41.042	39.838	1347.411	1203.677
-40.027	39.959	1345.496	1202.655
-39.013	39.868	1343.860	1200.591
-37.998	39.922	1342.041	1199.248
-36.984	40.088	1340.109	1198.477
-35.969	40.012	1338.163	1196.230
-34.954	40.130	1336.543	1195.449
-33.940	40.229	1335.121	1194.729
-32.925	40.184	1333.822	1193.249
-31.911	40.147	1332.566	1191.851
-30.896	40.090	1331.248	1190.281
-29.881	40.106	1329.304	1188.597
-28.867	40.132	1328.048	1187.578
-27.852	40.195	1326.356	1186.398
-26.838	40.323	1324.740	1185.669
-25.823	40.163	1323.799	1183.825
-24.809	40.135	1322.246	1182.220
-23.794	40.094	1320.922	1180.745
-22.779	40.281	1319.198	1180.273
-21.765	40.149	1317.934	1178.310
-20.750	40.120	1316.481	1176.789
-19.736	39.978	1315.484	1175.009
-18.721	40.044	1314.091	1174.109
-17.706	40.084	1312.979	1173.305
-16.692	40.102	1311.531	1172.073
-15.677	39.995	1310.505	1170.479
-14.663	40.045	1309.649	1169.961
-13.648	40.018	1308.308	1168.556
-12.633	39.957	1307.561	1167.485
-11.619	39.921	1306.859	1166.598
-10.604	39.936	1306.064	1165.929
-9.590	39.967	1304.912	1165.040
-8.575	40.051	1303.811	1164.502
-7.560	39.956	1303.186	1163.343
-6.546	40.029	1302.223	1162.863
-5.531	39.911	1301.289	1161.289
-4.517	39.920	1300.853	1160.904
-3.502	40.169	1298.719	1160.419
-2.487	39.961	1298.393	1158.860
-1.473	39.984	1294.607	1155.569
-0.458	38.933	1278.947	1135.471
0.556	35.200	1260.272	1093.283
1.571	31.446	1264.163	1075.030
2.586	30.186	1279.660	1080.773
3.600	28.858	1268.856	1063.874
4.615	20.843	1190.550	954.406
5.629	8.488	1106.103	823.353
6.644	2.735	1081.750	776.106
7.659	2.316	1078.823	771.824
8.673	2.063	1077.611	769.615
9.688	1.968	1076.130	768.011
10.702	2.324	1075.117	769.008
11.717	9.352	1085.480	811.933
12.731	20.362	1101.610	880.043
13.746	25.172	1107.408	909.041
14.761	25.620	1107.385	911.212
15.775	25.573	1107.025	910.598
16.790	25.394	1106.062	908.820
17.804	25.321	1105.333	907.770
18.819	25.374	1104.964	907.655
19.834	25.492	1104.365	907.680
20.848	25.553	1104.031	907.633
21.863	25.591	1103.494	907.301
22.877	25.381	1103.092	905.832
23.892	25.412	1102.111	905.103
24.907	25.522	1101.217	904.840
25.921	25.455	1100.193	903.583
26.936	25.347	1099.051	902.021
27.950	25.457	1097.240	901.006
28.965	25.174	1096.207	898.664
29.980	25.377	1094.065	897.843
30.994	25.583	1093.560	898.375
32.009	25.528	1092.316	897.002
33.023	25.376	1091.308	895.338
34.038	25.415	1090.452	894.748
35.053	25.555	1089.720	894.766
36.067	25.450	1088.826	893.432
37.082	25.486	1088.606	893.351
38.096	25.631	1087.644	893.203
39.111	25.736	1086.674	892.846
40.126	25.564	1085.743	891.148
41.140	25.339	1083.584	888.189
42.155	25.087	1082.443	885.927
43.169	25.099	1081.590	885.212
44.184	25.094	1080.209	883.976
45.199	25.018	1079.418	882.879
46.213	25.085	1078.611	882.469
47.228	25.271	1078.125	882.910
48.242	25.269	1077.309	882.152
49.257	25.370	1076.587	881.978
50.271	25.526	1075.785	882.011
51.286	25.788	1074.425	882.102
52.301	25.564	1073.999	880.576
53.315	25.505	1072.627	879.084
54.330	25.376	1071.895	877.778
55.344	25.346	1071.521	877.244
56.359	25.386	1070.648	876.650
57.374	25.197	1069.200	874.466
58.388	25.142	1068.784	873.776
59.403	25.066	1067.659	872.413
60.417	25.033	1066.752	871.434
61.432	25.008	1066.314	870.874
62.447	25.236	1065.716	871.416
63.461	25.229	1065.070	870.781
64.476	25.044	1064.326	869.197
65.490	25.068	1062.860	868.039
66.505	25.174	1062.146	867.892
67.520	25.223	1061.474	867.503
68.534	25.107	1060.580	866.136
69.549	24.687	1059.899	863.471
70.563	24.686	1058.703	862.416
71.578	24.661	1057.704	861.408
72.593	24.635	1056.684	860.375
73.607	24.672	1056.304	860.170
74.622	24.851	1056.243	860.903
75.636	24.920	1055.580	860.620
76.651	24.834	1054.273	859.062
77.666	24.800	1053.597	858.273
78.680	24.929	1052.908	858.255
79.695	25.035	1051.838	857.816
80.709	24.985	1051.663	857.358
81.724	24.941	1051.093	856.604
82.739	25.112	1049.719	856.227
83.753	25.455	1049.687	857.762
84.768	25.707	1048.882	858.230
85.782	25.786	1048.028	857.831
86.797	25.749	1046.506	856.333
87.812	25.662	1045.824	855.289
88.826	25.714	1044.895	854.699
89.841	25.729	1044.403	854.294
90.855	25.705	1043.456	853.326
91.870	25.735	1041.941	852.157
92.884	25.738	1040.481	850.899
93.899	25.513	1040.289	849.605
94.914	25.682	1039.817	849.944
95.928	25.456	1038.732	847.916
96.943	25.289	1037.565	846.101
97.957	24.990	1036.378	843.649
98.972	24.926	1035.289	842.384
99.987	25.341	1034.008	843.217
101.001	25.480	1033.758	843.594
102.016	25.386	1032.927	842.399
103.030	25.194	1032.104	840.751
104.045	25.248	1030.770	839.846
105.060	25.067	1029.609	837.979
106.074	25.306	1028.661	838.250
107.089	25.469	1028.687	838.958
108.103	25.297	1027.828	837.382
109.118	25.216	1026.294	835.678
110.133	25.199	1025.290	834.711
111.147	24.937	1024.540	832.804
112.162	24.775	1023.486	831.123
113.176	25.056	1022.965	831.933
114.191	25.048	1022.084	831.104
115.206	24.690	1020.668	828.221
116.220	24.757	1020.062	827.965
117.235	24.778	1019.462	827.502
118.249	24.873	1017.855	826.564
119.264	24.835	1017.291	825.858
120.279	24.820	1016.992	825.473
121.293	24.903	1016.274	825.200
122.308	24.784	1015.477	823.929
123.322	24.773	1014.202	822.772
124.337	24.732	1012.701	821.294
125.352	24.177	1011.062	817.345
126.366	24.128	1010.130	816.295
127.381	24.867	1010.246	819.702
128.395	25.263	1010.112	821.337
129.410	25.440	1009.116	821.264
130.424	25.537	1007.491	820.311
131.439	25.365	1007.155	819.180
132.454	25.488	1006.032	818.753
133.468	25.437	1005.116	817.705
134.483	25.433	1004.916	817.450
135.497	25.658	1004.032	817.679
136.512	25.698	1003.265	817.164
137.527	25.699	1002.185	816.219
138.541	25.689	1001.373	815.438
139.556	25.697	1000.977	815.081
140.570	25.770	1000.083	814.610
141.585	25.757	998.941	813.549
142.600	25.561	998.424	812.174
143.614	25.966	997.145	812.885
144.629	26.034	996.027	812.209
145.643	25.752	995.163	810.165
146.658	25.777	993.662	808.982
147.673	25.613	992.832	807.501
148.687	25.536	992.130	806.511
149.702	25.365	990.957	804.720
150.716	25.393	990.250	804.198
151.731	25.560	989.597	804.346
152.746	25.755	988.790	804.492
153.760	25.760	988.324	804.063
154.775	25.792	987.953	803.833
155.789	25.926	986.467	803.148
156.804	25.734	985.916	801.775
157.819	25.738	984.939	800.926
158.833	25.915	984.565	801.339
159.848	25.980	983.464	800.659
160.862	25.789	982.051	798.594
161.877	25.792	981.103	797.765
162.892	25.760	980.732	797.251
163.906	25.729	979.132	795.742
164.921	25.815	978.213	795.307
165.935	25.654	977.260	793.749
166.950	25.792	976.494	793.663
167.964	25.788	975.590	792.844
168.979	25.564	974.097	790.576
169.994	25.496	973.288	789.549
171.008	25.789	973.058	790.580
172.023	25.880	972.224	790.233
173.037	25.615	971.249	788.209
174.052	25.404	970.214	786.375
175.067	25.369	969.776	785.794
176.081	25.560	968.979	785.915
177.096	25.530	968.434	785.274
178.110	25.262	967.202	783.036
179.125	25.104	966.504	781.714
180.140	25.179	966.270	781.780
181.154	25.445	965.759	782.458
182.169	25.543	966.126	783.113
183.183	25.739	965.501	783.389
184.198	25.737	964.181	782.238
185.213	25.693	963.630	781.532
186.227	25.687	963.184	781.077
187.242	25.803	962.470	780.930
188.256	25.760	961.682	780.035
189.271	25.883	961.173	780.088
190.286	25.450	960.383	777.501
191.300	24.991	958.491	773.921
192.315	24.023	956.949	768.429
193.329	24.041	956.303	767.919
194.344	24.963	957.087	772.459
195.359	25.533	957.019	774.794
196.373	25.782	956.196	775.132
197.388	25.603	955.735	773.918
198.402	25.602	954.846	773.127
199.417	25.644	954.734	773.149
200.432	25.424	953.550	771.178
201.446	25.162	952.828	769.399
202.461	25.262	952.292	769.329
203.475	24.566	950.050	764.469
204.490	23.631	948.994	759.554
205.504	24.528	949.153	763.450
206.519	25.308	949.078	766.657
207.534	25.314	948.620	766.245
208.548	25.739	948.388	767.802
209.563	25.501	947.671	766.138
210.577	25.579	946.939	765.811
211.592	25.828	946.748	766.650
212.607	25.972	945.567	766.236
213.621	25.914	945.506	765.873
214.636	25.860	944.764	764.975
215.650	25.771	943.721	763.687
216.665	25.987	943.115	764.042
217.680	26.014	942.137	763.298
218.694	25.503	941.165	760.281
219.709	25.189	940.846	758.628
220.723	25.526	940.358	759.592
221.738	25.680	939.573	759.541
222.753	25.630	939.468	759.178
223.767	25.758	938.390	758.780
224.782	26.035	938.182	759.712
225.796	25.921	937.876	758.917
226.811	25.184	936.473	754.612
227.826	24.575	935.118	750.895
228.840	24.707	934.818	751.145
229.855	24.840	934.007	750.985
230.869	24.551	932.530	748.520
231.884	24.886	932.851	750.113
232.899	25.688	932.827	753.388
233.913	25.641	931.851	752.337
234.928	25.453	931.423	751.140
235.942	25.502	930.797	750.772
236.957	25.194	930.300	749.017
237.972	25.058	929.893	748.056
238.986	25.314	928.725	748.118
240.001	25.339	928.304	747.817
241.015	25.340	927.991	747.501
242.030	25.761	926.899	748.308
243.045	25.636	926.830	747.666
244.059	25.726	926.376	747.606
245.074	25.630	925.379	746.338
246.088	25.260	924.593	744.106
247.103	25.639	923.995	745.125
248.117	26.226	924.296	747.733
249.132	26.410	923.923	748.128
250.147	26.534	923.335	748.098
251.161	26.753	922.669	748.395
252.176	26.538	922.385	747.213
253.190	26.585	921.745	746.824
254.205	26.723	921.411	747.055
255.220	26.598	920.743	745.933
256.234	26.505	920.346	745.160
257.249	26.355	919.114	743.482
258.263	26.498	918.119	743.197
259.278	26.528	917.619	742.849
260.293	26.600	917.204	742.743
261.307	26.616	916.190	741.924
262.322	26.221	915.743	739.879
263.336	25.622	913.671	735.687
264.351	24.581	911.591	729.698
265.366	24.569	911.728	729.694
266.380	25.694	912.290	734.677
267.395	26.210	911.535	736.105
268.409	26.109	911.106	735.285
269.424	26.374	910.814	736.061
270.439	26.301	910.526	735.466
271.453	26.483	909.569	735.370
272.468	26.508	909.466	735.324
273.482	26.565	908.785	734.937
274.497	26.231	907.255	732.282
275.512	25.985	906.231	730.392
276.526	26.221	906.613	731.593
277.541	26.354	906.391	731.888
278.555	26.265	905.018	730.357
279.570	26.111	904.038	728.877
280.585	26.302	903.532	729.176
281.599	26.437	902.587	728.894
282.614	25.553	901.860	724.682
283.628	25.512	901.520	724.180
284.643	26.050	901.422	726.200
285.657	25.529	900.197	723.057
286.672	25.326	898.882	721.122
287.687	25.877	899.435	723.713
288.701	26.022	898.794	723.714
289.716	25.676	897.811	721.472
290.730	25.529	897.143	720.284
291.745	25.332	896.108	718.599
292.760	25.690	895.688	719.631
293.774	26.638	896.443	723.964
294.789	26.935	896.174	724.871
295.803	26.920	895.043	723.833
296.818	27.009	894.547	723.721
297.833	26.453	893.854	720.882
298.847	26.521	892.705	720.163
299.862	26.735	892.756	720.993
300.876	27.005	892.592	721.867
301.891	26.865	891.337	720.235
302.906	26.384	890.572	717.643
303.920	26.789	890.203	718.889
304.935	27.096	889.620	719.572
305.949	26.865	889.264	718.306
306.964	26.465	888.730	716.227
307.979	26.450	888.443	715.872
308.993	27.076	888.227	718.110
310.008	27.111	887.387	717.506
311.022	26.813	886.758	715.758
312.037	26.687	885.631	714.286
313.052	26.339	884.655	712.068
314.066	25.539	883.374	707.824
315.081	24.862	882.971	704.774
316.095	25.890	883.145	708.898
317.110	26.502	882.739	710.914
318.125	25.744	881.324	706.736
319.139	24.642	879.544	700.929
320.154	24.615	879.426	700.668
321.168	25.509	879.728	704.348
322.183	26.231	879.771	707.147
323.197	26.474	879.719	707.995
324.212	26.562	879.272	707.916
325.227	26.568	878.730	707.444
326.241	26.505	877.812	706.396
327.256	26.405	877.377	705.590
328.270	26.215	876.888	704.396
329.285	26.197	875.443	703.100
330.300	25.983	874.957	701.817
331.314	26.300	874.520	702.638
332.329	26.606	874.470	703.724
333.343	26.791	874.025	704.022
334.358	26.736	873.932	703.672
335.373	26.847	873.376	703.593
336.387	26.954	873.827	704.307
337.402	27.192	873.537	704.936
338.416	27.197	872.916	704.390
339.431	27.219	872.868	704.374
340.446	27.378	872.184	704.376
341.460	27.261	872.002	703.715
342.475	26.974	871.029	701.757
343.489	27.291	870.559	702.542
344.504	27.394	870.263	702.636
345.519	27.673	869.966	703.412
346.533	27.524	869.540	702.432
347.548	27.574	869.029	702.148
348.562	27.475	868.521	701.296
349.577	27.496	867.820	700.747
350.592	27.432	867.429	700.122
351.606	27.505	866.474	699.571
352.621	27.415	865.391	698.289
353.635	27.316	864.889	697.444
354.650	26.636	863.162	693.385
355.665	25.885	861.330	688.985
356.679	26.095	861.615	689.952
357.694	26.410	861.354	690.887
358.708	26.427	860.608	690.293
359.723	26.923	860.171	691.774
360.738	27.161	859.899	692.399
361.752	27.261	859.472	692.375
362.767	27.691	859.232	693.755
363.781	27.751	859.194	693.891
364.796	27.808	858.908	693.818
365.810	27.945	858.777	694.169
366.825	27.943	857.725	693.250
367.840	27.730	856.817	691.650
368.854	27.088	856.273	688.716
369.869	27.312	855.760	689.089
370.883	27.180	855.447	688.278
371.898	27.170	854.659	687.544
372.913	27.366	854.592	688.171
373.927	27.339	854.181	687.678
374.942	27.582	853.551	688.028
375.956	27.579	853.281	687.736
376.971	27.716	853.122	688.062
377.986	27.873	852.746	688.291
379.000	27.965	851.828	687.835
380.015	27.743	850.879	686.173
381.029	27.812	850.606	686.152
382.044	27.839	850.066	685.760
383.059	28.027	849.082	685.609
384.073	27.992	848.936	685.297
385.088	27.745	848.553	684.002
386.102	27.577	847.389	682.376
387.117	27.589	846.986	682.035
388.132	27.219	845.463	679.366
389.146	26.806	844.655	677.117
390.161	27.114	844.647	678.201
391.175	27.539	844.718	679.784
392.190	27.313	843.510	677.909
393.205	25.916	841.201	670.798
394.219	24.400	839.552	663.786
395.234	24.306	838.969	662.918
396.248	25.876	840.543	669.944
397.263	27.399	841.621	676.409
398.278	27.383	840.956	675.754
399.292	27.177	840.482	674.551
400.307	27.105	839.793	673.672
401.321	27.208	839.550	673.797
402.336	27.642	839.747	675.505
403.350	28.028	839.576	676.739
404.365	28.183	839.760	677.400
405.380	28.617	838.927	678.274
406.394	28.766	838.464	678.387
407.409	28.645	837.724	677.283
408.423	28.510	837.633	676.650
409.438	28.577	836.860	676.214
410.453	28.765	836.466	676.529
411.467	28.560	836.268	675.551
412.482	28.515	835.738	674.899
413.496	28.553	835.795	675.027
414.511	28.626	835.257	674.800
415.526	28.572	834.763	674.143
416.540	28.462	833.704	672.822
417.555	28.235	832.767	671.178
418.569	28.383	832.543	671.478
419.584	28.410	831.841	670.953
420.599	27.900	831.768	668.966
421.613	96.945	1270.135	1389.191
422.628	83.928	1333.995	1389.312
