DTS Sentinel unit serial number:	SN413079Multiplexer serial number:	ORYXHardware model number:	OX4-SRSoftware version number:	ORYX F/W v4.00 Oryx Data Collector v3.7.2.0data status	okinstallation	princeton_trtdifferential loss correction	single-endedforward channel	channel 1reverse channel	N/Adate	2019/09/13time	21:02:35forward acquisition time	60.00reverse acquisition time	0.00gamma	496.2192k internal	0.2331k external	0.2331temperature offset calibration	1.0077default loss term (dB/km)	0.3790temperature slope calibration	1.0000multiplexer offset coefficient	1.0000multiplexer slope coefficient	1.0000fibre end	0.00T internal ref (°C)	28.61T ext. ref 1 (°C)	3.04T ext. ref 2 (°C)	23.21length (m)	temperature (°C)	Stokes	anti-Stokes-747.200	-141.469	0.217	-0.022
-746.185	-200.000	-0.026	0.173
-745.171	-75.022	0.275	0.099
-744.156	-200.000	-0.015	0.106
-743.142	-200.000	-0.034	0.273
-742.127	-200.000	-0.044	0.228
-741.112	800.000	0.014	0.057
-740.098	230.549	0.183	0.302
-739.083	-200.000	-0.020	-0.178
-738.069	-6.587	-0.164	-0.113
-737.054	-116.219	0.243	-0.045
-736.039	74.454	-0.266	-0.281
-735.025	-200.000	0.058	0.261
-734.010	800.000	-0.084	0.260
-732.996	322.359	-0.035	0.067
-731.981	271.879	-0.070	0.125
-730.966	-112.685	-0.177	0.035
-729.952	800.000	-0.046	0.136
-728.937	-96.252	-0.291	0.078
-727.923	-81.474	-0.355	-0.118
-726.908	-75.388	0.166	0.059
-725.894	190.925	-0.158	-0.240
-724.879	-200.000	0.054	-0.304
-723.864	-200.000	0.039	0.283
-722.850	-48.032	0.441	-0.215
-721.835	-131.263	-0.130	-0.017
-720.821	-19.701	-0.212	-0.132
-719.806	-200.000	0.035	-0.401
-718.791	310.205	0.118	0.223
-717.777	-8.255	-0.234	0.159
-716.762	27.031	-0.076	0.064
-715.748	800.000	0.018	-0.064
-714.733	-93.843	-0.100	-0.028
-713.718	800.000	-0.026	0.074
-712.704	333.236	-0.083	0.161
-711.689	-198.198	-0.290	0.002
-710.675	-46.330	-0.139	-0.069
-709.660	-141.790	0.339	0.034
-708.645	160.652	0.110	-0.154
-707.631	-73.367	0.133	0.049
-706.616	800.000	-0.057	-0.177
-705.602	-13.822	0.049	-0.032
-704.587	-106.355	-0.325	0.073
-703.572	-200.000	0.034	-0.253
-702.558	170.646	-0.153	0.220
-701.543	305.355	-0.037	0.069
-700.529	77.037	0.605	0.646
-699.514	73.568	0.196	0.206
-698.499	-31.805	-0.175	0.099
-697.485	-86.579	0.227	0.070
-696.470	800.000	-0.056	0.164
-695.456	-60.630	0.262	-0.112
-694.441	-37.378	-0.118	-0.063
-693.426	41.056	0.149	-0.135
-692.412	156.960	-0.026	-0.036
-691.397	-141.578	-0.181	-0.018
-690.383	-92.845	0.246	-0.069
-689.368	89.425	-0.132	0.147
-688.354	113.822	-0.181	0.221
-687.339	540.352	-0.170	0.407
-686.324	800.000	-0.094	0.298
-685.310	439.812	0.157	0.345
-684.295	-109.630	-0.316	0.067
-683.281	-167.332	-0.185	0.007
-682.266	250.457	0.061	0.104
-681.251	-200.000	-0.003	0.232
-680.237	-200.000	-0.028	0.154
-679.222	549.196	-0.051	0.123
-678.208	501.609	0.151	-0.349
-677.193	800.000	-0.145	0.514
-676.178	125.275	0.046	0.058
-675.164	800.000	0.040	0.134
-674.149	105.664	-0.125	0.149
-673.135	-47.843	-0.226	0.110
-672.120	-40.060	-0.137	-0.072
-671.105	-119.427	-0.161	-0.028
-670.091	-76.631	0.176	-0.062
-669.076	-44.540	-0.285	0.143
-668.062	4.585	0.192	-0.141
-667.047	40.114	-0.112	0.101
-666.032	-96.780	-0.267	-0.070
-665.018	554.553	0.099	0.239
-664.003	-153.738	0.179	0.012
-662.989	45.448	0.269	0.249
-661.974	-33.399	0.191	0.106
-660.959	800.000	-0.057	0.215
-659.945	-85.967	-0.226	0.070
-658.930	-200.000	-0.011	0.285
-657.916	379.630	-0.087	-0.179
-656.901	-200.000	-0.079	-0.391
-655.886	47.871	-0.200	-0.187
-654.872	-200.000	0.037	0.251
-653.857	-16.550	0.244	-0.155
-652.843	-200.000	0.006	0.120
-651.828	-130.019	0.111	0.015
-650.814	62.133	-0.130	-0.130
-649.799	-200.000	-0.028	-0.299
-648.784	239.532	0.139	0.232
-647.770	-74.711	0.030	0.011
-646.755	-163.327	-0.163	0.008
-645.741	-115.818	0.305	-0.057
-644.726	-74.880	-0.232	-0.083
-643.711	-126.453	0.185	0.028
-642.697	-144.105	0.408	0.038
-641.682	-200.000	-0.010	0.113
-640.668	-34.039	-0.082	-0.045
-639.653	800.000	0.026	-0.091
-638.638	165.136	0.147	0.209
-637.624	-90.470	0.165	-0.048
-636.609	-200.000	0.006	0.072
-635.595	-200.000	-0.010	-0.085
-634.580	44.146	-0.102	-0.094
-633.565	149.054	0.146	-0.198
-632.551	800.000	0.037	-0.116
-631.536	-97.808	0.100	-0.026
-630.522	-156.309	0.197	-0.012
-629.507	309.202	0.123	0.229
-628.492	66.885	0.117	-0.119
-627.478	800.000	0.029	-0.108
-626.463	123.720	-0.032	-0.040
-625.449	79.724	-0.039	-0.042
-624.434	29.081	-0.089	-0.075
-623.419	-155.104	-0.509	0.033
-622.405	-60.018	-0.334	0.143
-621.390	-200.000	0.004	0.062
-620.376	645.267	0.134	0.342
-619.361	49.837	0.098	0.092
-618.346	-52.576	-0.189	-0.088
-617.332	-121.430	-0.280	-0.047
-616.317	-147.607	0.339	-0.029
-615.303	-152.368	-0.255	-0.018
-614.288	-127.583	0.037	-0.005
-613.273	336.964	-0.032	0.062
-612.259	533.809	0.156	-0.371
-611.244	800.000	0.031	0.131
-610.230	-195.245	-0.385	-0.003
-609.215	-122.771	0.083	-0.014
-608.201	-36.442	0.124	0.067
-607.186	-53.647	0.266	0.122
-606.171	-26.572	-0.338	-0.198
-605.157	33.798	-0.450	-0.392
-604.142	-92.505	-0.171	-0.048
-603.128	-44.955	0.084	0.042
-602.113	-200.000	0.104	0.513
-601.098	-200.000	-0.006	-0.072
-600.084	50.952	0.061	-0.058
-599.069	-151.660	-0.330	0.024
-598.055	-200.000	0.029	0.279
-597.040	125.227	0.215	0.271
-596.025	189.071	-0.107	0.160
-595.011	-68.978	-0.402	-0.155
-593.996	-50.002	0.228	0.108
-592.982	232.394	0.143	-0.234
-591.967	-161.922	-0.424	0.021
-590.952	-56.956	0.132	0.058
-589.938	-200.000	0.020	-0.225
-588.923	718.728	0.116	-0.307
-587.909	-200.000	0.005	-0.398
-586.894	-200.000	0.002	-0.088
-585.879	-200.000	-0.048	-0.260
-584.865	1.218	-0.128	-0.092
-583.850	624.011	-0.011	-0.029
-582.836	501.713	0.081	0.187
-581.821	-200.000	0.009	-0.048
-580.806	90.878	-0.069	-0.078
-579.792	736.566	0.129	-0.346
-578.777	-200.000	-0.057	-0.408
-577.763	-148.571	-0.130	-0.011
-576.748	-200.000	0.021	-0.146
-575.733	800.000	-0.091	-0.314
-574.719	34.912	0.047	-0.041
-573.704	-22.013	0.260	-0.158
-572.690	-200.000	-0.036	-0.255
-571.675	724.159	0.047	-0.126
-570.661	-157.005	-0.192	0.012
-569.646	-35.586	0.304	0.165
-568.631	-15.922	0.119	-0.076
-567.617	-102.698	0.103	-0.025
-566.602	-200.000	-0.018	-0.246
-565.588	-63.601	0.114	0.047
-564.573	40.454	-0.340	0.306
-563.558	347.090	0.071	-0.141
-562.544	-200.000	-0.012	-0.158
-561.529	800.000	0.133	-0.434
-560.515	16.726	-0.359	-0.284
-559.500	800.000	-0.051	-0.221
-558.485	-200.000	-0.004	0.135
-557.471	-69.058	0.254	-0.098
-556.456	181.029	-0.116	0.171
-555.442	-98.609	-0.497	-0.127
-554.427	-61.651	0.116	0.049
-553.412	-200.000	0.003	-0.257
-552.398	-200.000	0.029	-0.250
-551.383	82.687	0.202	-0.219
-550.369	-131.107	0.224	0.030
-549.354	-200.000	-0.011	0.374
-548.339	-200.000	-0.036	-0.359
-547.325	-126.243	0.449	0.067
-546.310	-41.219	-0.240	-0.124
-545.296	-38.492	-0.295	0.156
-544.281	-93.627	0.399	-0.110
-543.266	23.647	0.073	0.060
-542.252	800.000	-0.027	0.113
-541.237	185.945	0.080	0.119
-540.223	-200.000	-0.060	0.292
-539.208	10.740	0.206	0.157
-538.193	-24.569	-0.102	-0.061
-537.179	-200.000	0.024	0.218
-536.164	-84.456	-0.160	-0.050
-535.150	231.413	0.038	-0.062
-534.135	-9.492	-0.114	-0.076
-533.121	-200.000	-0.033	-0.268
-532.106	46.382	0.194	-0.180
-531.091	36.218	0.204	0.180
-530.077	46.249	-0.188	-0.174
-529.062	-119.716	0.285	-0.049
-528.048	-45.543	0.176	0.087
-527.033	-200.000	-0.000	0.132
-526.018	79.359	0.241	-0.257
-525.004	-104.381	-0.467	-0.108
-523.989	-200.000	-0.070	0.323
-522.975	155.709	0.070	0.096
-521.960	-78.842	-0.212	-0.072
-520.945	262.099	0.162	-0.280
-519.931	83.582	0.146	0.159
-518.916	47.758	0.082	-0.076
-517.902	800.000	0.110	0.375
-516.887	-10.094	0.195	-0.129
-515.872	300.318	-0.140	0.258
-514.858	-200.000	0.001	0.078
-513.843	87.765	-0.125	0.138
-512.829	557.499	0.052	0.125
-511.814	27.219	-0.254	0.213
-510.799	-200.000	0.020	-0.152
-509.785	525.650	0.043	-0.102
-508.770	-185.341	0.073	-0.001
-507.756	-99.245	-0.374	-0.094
-506.741	16.885	-0.121	-0.096
-505.726	-28.323	0.143	0.082
-504.712	335.672	-0.061	-0.118
-503.697	258.663	0.061	-0.105
-502.683	-55.176	0.287	-0.129
-501.668	13.693	-0.197	0.153
-500.653	-28.364	0.209	-0.120
-499.639	31.103	-0.153	-0.131
-498.624	26.331	-0.202	-0.168
-497.610	-74.751	0.273	-0.098
-496.595	161.451	-0.119	0.166
-495.581	-91.249	0.240	0.069
-494.566	-200.000	-0.010	-0.072
-493.551	141.578	-0.200	0.264
-492.537	53.764	-0.165	0.158
-491.522	-200.000	-0.018	0.173
-490.508	64.775	0.106	-0.106
-489.493	-200.000	0.140	-0.000
-488.478	325.771	0.014	0.026
-487.464	800.000	-0.061	0.219
-486.449	-41.855	0.221	0.113
-485.435	57.091	0.165	-0.160
-484.420	54.742	-0.106	0.102
-483.405	-105.508	-0.415	0.094
-482.391	-114.577	0.390	-0.075
-481.376	95.188	0.120	0.137
-480.362	111.093	0.201	-0.241
-479.347	-200.000	-0.010	-0.126
-478.332	770.144	-0.030	0.081
-477.318	-200.000	-0.002	-0.025
-476.303	-200.000	0.014	-0.069
-475.289	-200.000	-0.006	-0.139
-474.274	724.037	-0.188	0.498
-473.259	-126.939	-0.447	-0.065
-472.245	-74.103	-0.346	0.125
-471.230	-200.000	0.074	-0.348
-470.216	354.288	-0.166	-0.327
-469.201	782.456	0.190	-0.517
-468.186	97.081	-0.128	0.146
-467.172	-100.840	0.152	0.037
-466.157	-150.735	-0.277	0.021
-465.143	-60.785	0.129	-0.054
-464.128	-35.397	0.151	0.082
-463.113	142.440	0.028	0.037
-462.099	-50.458	-0.227	-0.106
-461.084	-130.230	-0.262	0.035
-460.070	-200.000	0.079	-0.372
-459.055	-200.000	-0.010	0.115
-458.040	-49.382	0.281	0.133
-457.026	-68.213	0.221	-0.085
-456.011	-169.440	-0.030	0.001
-454.997	-105.623	0.118	0.027
-453.982	-189.401	0.236	-0.003
-452.968	295.031	-0.100	0.182
-451.953	96.270	-0.032	0.037
-450.938	89.819	-0.212	-0.236
-449.924	24.573	0.229	-0.189
-448.909	-200.000	0.034	0.154
-447.895	300.234	-0.076	0.140
-446.880	446.123	0.049	0.107
-445.865	-200.000	-0.011	-0.114
-444.851	531.449	-0.059	0.138
-443.836	123.134	-0.263	0.328
-442.822	-200.000	0.001	-0.220
-441.807	134.853	0.074	-0.096
-440.792	125.808	0.151	0.190
-439.778	101.123	-0.218	0.252
-438.763	635.975	-0.059	-0.148
-437.749	-60.310	0.219	-0.093
-436.734	-123.350	-0.107	0.017
-435.719	800.000	-0.028	0.087
-434.705	-62.398	0.124	-0.051
-433.690	110.388	-0.077	0.092
-432.676	-36.250	0.156	0.084
-431.661	87.980	-0.233	-0.257
-430.646	-111.996	-0.115	0.023
-429.632	91.064	-0.126	0.141
-428.617	800.000	0.044	-0.121
-427.603	12.904	0.046	0.036
-426.588	-200.000	-0.008	0.186
-425.573	-121.379	-0.474	0.079
-424.559	256.474	-0.090	0.153
-423.544	-66.137	0.343	-0.136
-422.530	-143.459	0.256	0.024
-421.515	209.642	-0.207	0.323
-420.500	-72.575	-0.312	0.115
-419.486	534.005	-0.039	0.092
-418.471	-100.622	-0.394	0.097
-417.457	-17.185	0.294	0.184
-416.442	800.000	0.106	0.448
-415.428	57.153	-0.254	-0.246
-414.413	-22.508	0.238	-0.143
-413.398	-108.438	-0.051	0.011
-412.384	-4.811	-0.174	0.119
-411.369	319.716	0.180	0.339
-410.355	-24.392	0.187	-0.111
-409.340	-45.441	0.132	-0.065
-408.325	-200.000	-0.032	0.263
-407.311	-54.152	-0.216	-0.098
-406.296	19.200	-0.140	0.112
-405.282	-88.444	0.185	-0.055
-404.267	220.282	0.171	0.273
-403.252	522.491	0.116	-0.270
-402.238	-23.639	0.140	0.083
-401.223	52.071	-0.099	-0.093
-400.209	-200.000	0.029	0.152
-399.194	-21.783	0.075	-0.045
-398.179	250.978	0.067	-0.113
-397.165	-200.000	0.016	-0.150
-396.150	-71.944	-0.268	-0.099
-395.136	-98.884	0.337	-0.085
-394.121	-121.553	-0.074	0.012
-393.106	-43.475	-0.146	-0.073
-392.092	-165.567	-0.392	-0.017
-391.077	-13.431	0.117	-0.076
-390.063	-200.000	0.028	0.218
-389.048	-75.931	-0.218	-0.077
-388.033	25.619	0.319	-0.263
-387.019	93.296	-0.128	-0.144
-386.004	484.628	-0.057	-0.130
-384.990	79.757	0.280	0.298
-383.975	35.568	-0.242	0.211
-382.960	800.000	0.054	0.219
-381.946	-200.000	0.050	0.296
-380.931	142.087	0.177	0.232
-379.917	154.548	-0.057	-0.078
-378.902	152.327	-0.137	0.186
-377.888	22.989	-0.059	0.048
-376.873	39.329	0.077	-0.068
-375.858	71.778	-0.065	-0.067
-374.844	-199.695	-0.191	-0.001
-373.829	42.017	0.212	0.191
-372.815	800.000	0.107	0.372
-371.800	680.269	-0.019	-0.050
-370.785	111.159	0.144	-0.172
-369.771	-145.719	0.246	0.022
-368.756	-113.789	0.167	-0.032
-367.742	-82.977	-0.093	0.030
-366.727	151.858	-0.093	0.126
-365.712	29.141	0.222	0.187
-364.698	-63.504	-0.336	0.137
-363.683	1.567	0.325	-0.232
-362.669	371.071	-0.051	-0.102
-361.654	-83.079	-0.088	-0.028
-360.639	-200.000	-0.037	0.355
-359.625	-200.000	-0.007	0.115
-358.610	64.830	-0.038	-0.038
-357.596	34.117	0.177	0.153
-356.581	27.303	-0.241	0.201
-355.566	800.000	-0.052	-0.160
-354.552	-18.565	0.254	-0.157
-353.537	-90.499	0.377	-0.108
-352.523	28.351	0.082	0.069
-351.508	-61.945	0.117	0.048
-350.493	-80.640	-0.210	0.069
-349.479	11.530	0.141	-0.107
-348.464	-52.927	0.114	-0.052
-347.450	328.886	-0.106	0.203
-346.435	-33.401	-0.293	0.161
-345.420	-4.563	0.041	0.028
-344.406	228.463	-0.196	-0.316
-343.391	2.713	0.036	-0.026
-342.377	76.929	0.225	0.237
-341.362	-65.822	-0.156	0.062
-340.348	-53.957	-0.166	-0.075
-339.333	570.206	-0.039	-0.095
-338.318	82.110	0.062	0.067
-337.304	111.231	-0.238	-0.284
-336.289	420.395	-0.121	0.257
-335.275	284.391	0.085	0.151
-334.260	-58.534	0.194	0.083
-333.245	-200.000	0.044	0.364
-332.231	-191.385	0.037	-0.000
-331.216	377.243	0.062	0.125
-330.202	-200.000	-0.010	0.056
-329.187	461.041	-0.068	-0.151
-328.172	-96.138	-0.271	-0.071
-327.158	375.765	0.059	0.118
-326.143	51.381	-0.176	-0.166
-325.129	26.553	-0.100	0.083
-324.114	338.621	-0.289	-0.558
-323.099	61.279	0.196	-0.193
-322.085	0.062	-0.149	-0.105
-321.070	86.676	0.049	0.053
-320.056	-75.654	-0.169	-0.059
-319.041	-8.193	-0.206	-0.137
-318.026	243.000	-0.031	-0.052
-317.012	87.518	-0.044	0.049
-315.997	29.903	0.281	0.237
-314.983	42.334	0.205	-0.184
-313.968	800.000	0.069	0.239
-312.953	800.000	-0.085	-0.253
-311.939	800.000	0.075	0.255
-310.924	253.842	0.206	0.348
-309.910	-200.000	-0.008	0.161
-308.895	-45.659	-0.467	0.228
-307.880	-200.000	-0.008	-0.097
-306.866	63.794	0.091	0.091
-305.851	331.001	-0.153	0.291
-304.837	-151.762	-0.110	-0.008
-303.822	349.738	-0.146	0.286
-302.807	-80.045	0.082	-0.027
-301.793	226.432	-0.146	0.234
-300.778	-200.000	0.016	0.123
-299.764	77.610	-0.098	0.103
-298.749	29.360	-0.016	-0.014
-297.735	-36.010	-0.147	0.079
-296.720	-85.559	-0.104	-0.032
-295.705	-200.000	-0.037	-0.185
-294.691	-200.000	0.023	0.289
-293.676	-200.000	-0.048	-0.372
-292.662	-109.597	-0.239	0.050
-291.647	800.000	-0.091	-0.319
-290.632	-183.089	0.187	-0.003
-289.618	-164.494	0.262	-0.012
-288.603	800.000	0.035	-0.100
-287.589	-67.728	0.153	0.059
-286.574	143.850	-0.109	-0.143
-285.559	-74.728	-0.082	-0.029
-284.545	-200.000	0.003	0.090
-283.530	10.981	-0.027	0.020
-282.516	-73.989	0.455	-0.163
-281.501	132.231	0.086	0.109
-280.486	800.000	-0.088	-0.339
-279.472	24.859	0.185	-0.151
-278.457	-57.468	0.031	0.013
-277.443	-67.426	-0.220	-0.085
-276.428	238.846	-0.140	0.230
-275.413	800.000	-0.022	-0.078
-274.399	13.270	-0.130	0.100
-273.384	-151.846	0.296	-0.021
-272.370	-200.000	-0.046	-0.274
-271.355	-23.091	-0.279	-0.166
-270.340	-119.027	-0.124	-0.022
-269.326	-200.000	-0.031	0.248
-268.311	59.145	0.154	0.149
-267.297	269.456	0.188	0.326
-266.282	-145.355	-0.247	-0.022
-265.267	341.323	0.042	-0.081
-264.253	-80.052	0.213	0.071
-263.238	302.948	0.058	-0.106
-262.224	-200.000	0.066	-0.321
-261.209	106.785	0.116	-0.136
-260.195	800.000	-0.022	-0.086
-259.180	-200.000	-0.033	0.167
-258.165	684.630	-0.031	0.080
-257.151	86.364	-0.105	0.114
-256.136	-200.000	-0.068	0.423
-255.122	66.265	0.103	0.103
-254.107	493.110	0.089	0.201
-253.092	800.000	-0.104	0.331
-252.078	-200.000	0.009	0.145
-251.063	800.000	0.019	0.071
-250.049	181.862	0.057	-0.083
-249.034	-200.000	-0.011	0.120
-248.019	-200.000	-0.038	0.356
-247.005	-159.296	0.135	-0.007
-245.990	390.415	-0.136	0.278
-244.976	-200.000	-0.077	-0.419
-243.961	800.000	0.076	0.220
-242.946	79.570	-0.081	-0.086
-241.932	-117.345	-0.071	0.013
-240.917	75.656	0.276	-0.288
-239.903	-30.948	0.069	-0.039
-238.888	-14.021	0.060	0.038
-237.873	-200.000	-0.020	0.131
-236.859	-176.931	-0.206	0.005
-235.844	457.981	-0.086	-0.188
-234.830	102.977	0.136	-0.158
-233.815	-78.404	0.217	0.073
-232.800	71.842	-0.346	0.355
-231.786	800.000	0.055	0.194
-230.771	-178.891	-0.109	0.002
-229.757	-187.421	0.112	0.001
-228.742	-82.563	0.359	-0.115
-227.727	90.284	-0.192	-0.212
-226.713	184.608	0.181	-0.265
-225.698	-10.489	0.220	0.144
-224.684	-167.748	-0.356	-0.014
-223.669	11.089	0.215	-0.162
-222.655	-66.805	-0.028	0.011
-221.640	295.978	-0.193	-0.349
-220.625	561.184	-0.022	-0.051
-219.611	36.048	-0.175	-0.152
-218.596	-200.000	-0.009	-0.334
-217.582	134.460	0.179	-0.228
-216.567	-145.444	-0.153	0.014
-215.552	800.000	-0.081	-0.291
-214.538	54.146	0.250	0.237
-213.523	-109.652	-0.114	0.024
-212.509	36.888	-0.266	0.231
-211.494	-91.352	-0.213	-0.060
-210.479	-200.000	0.023	0.213
-209.465	-170.791	-0.237	-0.008
-208.450	-67.199	-0.262	0.102
-207.436	-14.991	0.142	-0.089
-206.421	86.183	0.134	0.145
-205.406	-171.300	-0.399	0.013
-204.392	19.478	0.124	0.098
-203.377	233.541	-0.078	0.126
-202.363	-200.000	-0.001	-0.280
-201.348	-159.436	0.310	0.017
-200.333	-41.892	-0.053	0.027
-199.319	-58.817	-0.144	-0.061
-198.304	-31.974	0.211	-0.116
-197.290	800.000	0.113	-0.315
-196.275	-200.000	-0.013	0.401
-195.260	54.729	0.190	0.180
-194.246	-120.366	-0.208	-0.035
-193.231	-11.141	0.175	-0.114
-192.217	-72.980	0.163	-0.059
-191.202	37.448	0.065	0.057
-190.187	79.656	0.148	-0.156
-189.173	180.115	-0.111	0.161
-188.158	-200.000	0.023	0.366
-187.144	74.479	-0.201	-0.208
-186.129	-39.189	0.215	-0.111
-185.114	143.253	0.346	-0.454
-184.100	64.964	0.159	0.159
-183.085	397.887	0.057	-0.117
-182.071	730.661	-0.127	0.333
-181.056	800.000	-0.017	0.051
-180.042	800.000	0.054	0.184
-179.027	-111.802	0.408	0.081
-178.012	-10.324	-0.234	0.153
-176.998	-111.934	-0.088	-0.018
-175.983	510.804	-0.046	-0.105
-174.969	514.311	0.103	0.236
-173.954	800.000	0.057	0.171
-172.939	800.000	0.091	0.269
-171.925	441.140	0.063	-0.137
-170.910	409.381	-0.126	-0.262
-169.896	-64.086	-0.159	-0.064
-168.881	-90.157	0.137	0.039
-167.866	-200.000	-0.030	-0.242
-166.852	199.847	-0.184	0.278
-165.837	-75.964	-0.306	-0.106
-164.823	230.081	0.055	-0.088
-163.808	28.577	0.080	0.066
-162.793	-120.575	0.186	-0.031
-161.779	-200.000	-0.002	0.151
-160.764	188.139	0.049	-0.072
-159.750	-58.234	-0.261	-0.112
-158.735	-128.247	0.321	0.045
-157.720	232.569	0.195	-0.315
-156.706	426.578	-0.056	-0.118
-155.691	203.692	-0.144	-0.218
-154.677	226.537	0.083	0.133
-153.662	27.521	0.182	-0.151
-152.647	152.933	0.069	-0.092
-151.633	-147.722	0.235	0.019
-150.618	384.558	-0.098	0.199
-149.604	-72.314	-0.403	0.147
-148.589	45.730	0.183	0.167
-147.574	15.405	-0.051	-0.040
-146.560	800.000	-0.024	0.094
-145.545	-200.000	-0.009	-0.266
-144.531	200.250	0.031	-0.046
-143.516	218.718	-0.247	0.388
-142.502	-8.929	-0.046	-0.030
-141.487	-200.000	0.014	0.113
-140.472	244.732	0.071	-0.118
-139.458	547.917	0.035	-0.083
-138.443	292.250	-0.051	0.091
-137.429	416.335	-0.049	-0.102
-136.414	-82.423	0.411	0.131
-135.399	242.903	0.165	0.272
-134.385	-157.826	0.367	-0.021
-133.370	3.024	-0.325	-0.232
-132.356	68.240	0.126	-0.127
-131.341	67.496	-0.100	0.100
-130.326	-24.253	0.115	0.068
-129.312	529.921	-0.227	0.526
-128.297	-200.000	0.023	-0.292
-127.283	-108.477	0.261	-0.055
-126.268	7.672	0.079	0.058
-125.253	-9.300	0.037	-0.024
-124.239	800.000	-0.025	-0.084
-123.224	675.763	0.017	-0.044
-122.210	245.158	-0.119	0.196
-121.195	46.753	-0.184	0.168
-120.180	145.544	0.144	0.189
-119.166	800.000	-0.069	-0.217
-118.151	41.400	0.105	0.093
-117.137	-125.191	-0.136	-0.020
-116.122	481.549	0.126	0.281
-115.107	-30.411	0.115	-0.064
-114.093	-13.326	0.096	0.061
-113.078	14.513	0.090	-0.069
-112.064	421.689	0.094	0.199
-111.049	-41.009	0.186	-0.094
-110.034	-200.000	-0.007	-0.351
-109.020	47.101	0.412	0.376
-108.005	181.008	0.032	-0.046
-106.991	-88.493	0.209	-0.061
-105.976	-200.000	0.010	0.191
-104.962	107.725	-0.144	0.169
-103.947	-117.967	0.382	-0.067
-102.932	800.000	0.053	-0.179
-101.918	775.901	0.037	0.099
-100.903	210.392	0.234	-0.360
-99.889	48.217	0.074	0.068
-98.874	-36.743	0.138	0.073
-97.859	523.104	-0.073	-0.169
-96.845	18.907	-0.047	-0.037
-95.830	-200.000	-0.067	0.566
-94.816	502.242	0.119	0.270
-93.801	-162.927	-0.109	-0.005
-92.786	5.186	0.144	0.104
-91.772	16.186	-0.089	0.069
-90.757	118.100	0.025	-0.031
-89.743	34.738	0.104	0.089
-88.728	-53.161	0.242	-0.109
-87.713	-122.677	-0.215	0.034
-86.699	-80.411	0.201	-0.066
-85.684	-111.047	-0.150	0.030
-84.670	93.335	0.085	0.094
-83.655	-162.335	-0.046	-0.002
-82.640	26.726	-0.012	0.010
-81.626	548.153	-0.115	-0.269
-80.611	-200.000	-0.027	0.143
-79.597	88.241	0.136	0.149
-78.582	-76.744	0.049	-0.017
-77.567	-200.000	-0.024	0.149
-76.553	-200.000	0.014	-0.175
-75.538	-200.000	-0.010	0.077
-74.524	-70.517	-0.343	-0.127
-73.509	139.743	-0.068	-0.087
-72.494	16.977	-0.265	-0.206
-71.480	-134.279	0.134	-0.016
-70.465	-170.249	0.148	0.005
-69.451	-45.567	0.211	0.102
-68.436	335.709	0.115	-0.218
-67.422	220.765	-0.152	-0.238
-66.407	-160.215	-0.290	-0.015
-65.392	-125.274	0.229	0.034
-64.378	-95.668	0.056	0.015
-63.363	-136.347	0.226	0.026
-62.349	183.906	-0.147	-0.212
-61.334	104.331	-0.866	-0.998
-60.319	143.894	0.474	0.619
-59.305	512.021	-0.391	-0.892
-58.290	61.870	0.900	0.879
-57.276	229.230	0.913	1.460
-56.261	-200.000	112.707	659.671
-55.246	542.005	1518.953	3547.058
-54.232	177.830	2690.988	3843.548
-53.217	112.947	2150.738	2553.214
-52.203	40.425	1597.244	1408.526
-51.188	32.136	1341.287	1133.017
-50.173	29.092	1302.508	1082.356
-49.159	55.515	1358.452	1288.072
-48.144	55.257	1373.066	1300.329
-47.130	32.182	1327.883	1121.795
-46.115	28.777	1310.426	1086.896
-45.100	28.531	1305.485	1081.309
-44.086	28.463	1303.088	1078.879
-43.071	28.414	1300.669	1076.543
-42.057	28.463	1298.502	1074.995
-41.042	28.529	1297.129	1074.204
-40.027	28.504	1295.393	1072.574
-39.013	28.522	1293.580	1071.135
-37.998	28.559	1291.829	1069.858
-36.984	28.564	1289.832	1068.195
-35.969	28.667	1287.777	1067.048
-34.954	28.695	1285.931	1065.640
-33.940	28.655	1285.352	1064.883
-32.925	28.636	1284.202	1063.778
-31.911	28.636	1282.926	1062.680
-30.896	28.695	1281.167	1061.520
-29.881	28.638	1279.881	1060.084
-28.867	28.696	1278.182	1058.969
-27.852	28.683	1277.298	1058.123
-26.838	28.774	1275.583	1057.181
-25.823	28.717	1274.046	1055.537
-24.809	28.689	1273.022	1054.486
-23.794	28.681	1271.462	1053.106
-22.779	28.742	1270.163	1052.341
-21.765	28.736	1268.931	1051.243
-20.750	28.695	1267.559	1049.832
-19.736	28.614	1266.723	1048.637
-18.721	28.617	1265.397	1047.512
-17.706	28.586	1264.305	1046.390
-16.692	28.583	1262.848	1045.122
-15.677	28.585	1261.925	1044.333
-14.663	28.606	1260.744	1043.432
-13.648	28.480	1259.983	1042.046
-12.633	28.528	1259.094	1041.540
-11.619	28.491	1258.170	1040.524
-10.604	28.656	1257.093	1040.526
-9.590	28.495	1256.542	1039.119
-8.575	28.456	1255.831	1038.267
-7.560	28.581	1254.534	1037.860
-6.546	28.520	1253.783	1036.856
-5.531	28.472	1252.669	1035.619
-4.517	28.610	1251.926	1035.745
-3.502	28.552	1251.229	1034.798
-2.487	28.559	1250.064	1033.835
-1.473	28.423	1245.991	1029.662
-0.458	26.988	1230.515	1008.864
0.556	23.485	1213.481	969.641
1.571	19.588	1218.359	952.011
2.586	18.634	1232.404	957.579
3.600	18.246	1220.085	945.783
4.615	13.568	1149.137	866.299
5.629	6.269	1077.687	776.456
6.644	3.244	1058.644	747.988
7.659	2.964	1056.464	745.021
8.673	2.964	1055.491	744.272
9.688	2.968	1054.249	743.347
10.702	3.192	1052.267	742.964
11.717	7.307	1057.090	766.231
12.731	14.900	1068.132	811.128
13.746	19.390	1073.831	837.229
14.761	19.731	1073.882	838.851
15.775	18.983	1072.168	833.814
16.790	17.947	1070.261	827.240
17.804	17.291	1068.937	822.967
18.819	16.953	1067.446	820.114
19.834	16.893	1066.673	819.155
20.848	16.743	1066.085	817.908
21.863	16.561	1064.972	816.102
22.877	16.394	1064.341	814.742
23.892	16.315	1063.893	813.949
24.907	16.341	1062.961	813.286
25.921	16.334	1061.874	812.348
26.936	16.414	1060.337	811.487
27.950	16.450	1059.220	810.733
28.965	16.570	1057.640	810.028
29.980	16.633	1056.457	809.348
30.994	16.658	1055.563	808.712
32.009	16.762	1054.303	808.173
33.023	16.607	1053.655	806.864
34.038	16.443	1052.771	805.337
35.053	16.451	1051.539	804.361
36.067	16.615	1050.547	804.308
37.082	16.486	1049.542	802.856
38.096	16.582	1049.224	802.996
39.111	16.774	1048.101	802.975
40.126	16.475	1046.763	800.464
41.140	16.209	1045.497	798.168
42.155	16.100	1044.482	796.808
43.169	16.006	1043.428	795.487
44.184	16.123	1042.206	795.039
45.199	16.156	1041.121	794.295
46.213	16.414	1040.132	794.686
47.228	16.519	1039.882	794.918
48.242	16.355	1038.949	793.362
49.257	16.384	1037.667	792.450
50.271	16.560	1036.461	792.282
51.286	16.572	1035.931	791.862
52.301	16.560	1034.425	790.588
53.315	16.387	1033.862	789.278
54.330	16.238	1032.690	787.621
55.344	16.294	1031.837	787.158
56.359	16.228	1031.081	786.206
57.374	16.146	1030.465	785.287
58.388	16.067	1029.001	783.731
59.403	16.101	1028.255	783.252
60.417	16.178	1027.655	783.086
61.432	16.115	1026.858	782.114
62.447	16.118	1025.683	781.165
63.461	16.057	1025.139	780.400
64.476	16.050	1023.735	779.229
65.490	15.865	1023.850	778.390
66.505	15.913	1023.129	777.996
67.520	16.059	1022.092	777.811
68.534	15.945	1021.606	776.850
69.549	15.999	1020.646	776.297
70.563	15.926	1019.522	775.041
71.578	15.858	1019.267	774.465
72.593	15.732	1018.155	772.971
73.607	15.746	1017.362	772.364
74.622	15.782	1017.111	772.273
75.636	15.891	1016.334	772.116
76.651	16.001	1015.514	771.928
77.666	15.861	1014.969	770.804
78.680	15.826	1014.532	770.242
79.695	15.953	1013.299	769.819
80.709	16.054	1012.927	769.930
81.724	16.107	1012.515	769.792
82.739	16.231	1012.094	769.969
83.753	16.276	1011.655	769.772
84.768	16.601	1010.581	770.366
85.782	16.741	1009.665	770.235
86.797	16.687	1008.230	768.826
87.812	16.551	1007.519	767.600
88.826	16.625	1006.557	767.133
89.841	16.616	1005.731	766.396
90.855	16.591	1004.982	765.644
91.870	16.672	1004.255	765.388
92.884	16.713	1002.910	764.483
93.899	16.643	1002.403	763.714
94.914	16.723	1001.902	763.625
95.928	16.718	1000.860	762.741
96.943	16.686	999.597	761.563
97.957	16.530	999.171	760.473
98.972	16.570	998.361	759.969
99.987	16.673	997.084	759.392
101.001	16.596	996.456	758.499
102.016	16.564	995.134	757.286
103.030	16.661	994.507	757.175
104.045	16.659	994.017	756.725
105.060	16.517	993.112	755.335
106.074	16.181	992.379	753.212
107.089	16.115	990.825	751.670
108.103	15.843	990.285	749.982
109.118	16.011	989.088	749.757
110.133	15.944	988.414	748.883
111.147	16.005	987.508	748.399
112.162	16.044	986.783	747.955
113.176	16.313	985.441	748.067
114.191	16.291	985.032	747.593
115.206	16.142	984.276	746.292
116.220	16.163	983.304	745.581
117.235	16.229	982.230	744.994
118.249	16.168	981.910	744.414
119.264	16.155	980.886	743.514
120.279	15.961	979.900	741.848
121.293	16.033	979.065	741.468
122.308	15.966	978.284	740.517
123.322	15.900	977.349	739.454
124.337	15.937	976.167	738.654
125.352	15.841	975.304	737.517
126.366	15.786	974.438	736.557
127.381	15.856	973.002	735.713
128.395	16.075	972.361	736.115
129.410	16.125	971.202	735.391
130.424	15.931	970.982	734.317
131.439	16.224	969.744	734.589
132.454	16.178	969.105	733.841
133.468	16.183	968.456	733.306
134.483	16.115	967.931	732.548
135.497	16.251	966.651	732.103
136.512	16.342	966.006	731.946
137.527	16.198	965.276	730.703
138.541	16.229	965.233	730.742
139.556	16.158	964.206	729.590
140.570	16.406	963.295	729.908
141.585	16.690	962.638	730.575
142.600	16.747	961.183	729.650
143.614	16.554	961.294	728.838
144.629	16.719	960.348	728.769
145.643	16.585	959.288	727.320
146.658	16.472	958.030	725.819
147.673	16.315	957.048	724.337
148.687	16.257	956.354	723.501
149.702	16.258	955.276	722.624
150.716	16.267	954.333	721.884
151.731	16.275	953.701	721.375
152.746	16.274	953.467	721.130
153.760	16.405	952.787	721.113
154.775	16.469	951.929	720.674
155.789	16.502	951.469	720.399
156.804	16.453	950.999	719.772
157.819	16.646	950.043	719.806
158.833	16.683	949.543	719.520
159.848	16.660	948.690	718.712
160.862	16.719	947.120	717.710
161.877	16.428	946.313	715.804
162.892	16.261	945.463	714.389
163.906	16.376	944.267	713.908
164.921	16.395	943.151	713.084
165.935	16.472	942.430	712.801
166.950	16.405	941.735	711.927
167.964	16.409	941.151	711.440
168.979	16.362	939.625	710.028
169.994	16.527	938.876	710.092
171.008	16.429	938.649	709.446
172.023	16.754	937.934	710.203
173.037	16.654	937.335	709.267
174.052	16.581	936.475	708.251
175.067	16.476	935.234	706.808
176.081	16.406	934.835	706.151
177.096	16.443	934.427	705.936
178.110	16.436	933.997	705.519
179.125	16.514	933.433	705.356
180.140	16.388	932.921	704.382
181.154	16.636	932.534	705.060
182.169	16.775	932.116	705.264
183.183	16.818	931.102	704.611
184.198	16.777	930.897	704.221
185.213	16.783	929.795	703.351
186.227	16.803	929.255	702.963
187.242	16.822	928.876	702.695
188.256	17.078	928.088	703.098
189.271	17.069	927.188	702.315
190.286	16.677	926.423	700.052
191.300	16.309	925.702	697.924
192.315	16.248	924.816	696.943
193.329	16.304	924.266	696.701
194.344	16.398	923.714	696.608
195.359	16.587	923.209	696.944
196.373	16.699	922.793	697.029
197.388	16.850	922.361	697.265
198.402	16.972	921.668	697.178
199.417	17.027	921.266	697.039
200.432	17.078	920.904	696.915
201.446	17.261	920.437	697.247
202.461	17.457	919.626	697.377
203.475	17.184	919.487	696.093
204.490	16.950	918.549	694.362
205.504	16.890	917.385	693.174
206.519	16.984	916.715	692.989
207.534	16.958	915.663	692.029
208.548	16.999	915.079	691.692
209.563	16.965	914.447	691.014
210.577	17.024	914.179	690.993
211.592	17.177	913.683	691.179
212.607	17.241	912.749	690.671
213.621	17.170	911.965	689.730
214.636	17.215	911.158	689.239
215.650	17.142	910.608	688.465
216.665	17.351	909.680	688.550
217.680	17.446	909.448	688.698
218.694	17.313	909.059	687.803
219.709	17.283	908.028	686.845
220.723	17.367	907.381	686.631
221.738	17.132	906.821	685.199
222.753	17.304	905.980	685.195
223.767	17.440	905.292	685.162
224.782	17.514	904.957	685.146
225.796	17.364	904.938	684.467
226.811	17.385	903.949	683.742
227.826	17.250	902.977	682.405
228.840	17.244	902.277	681.791
229.855	17.147	901.595	680.828
230.869	17.218	900.559	680.271
231.884	17.137	900.151	679.576
232.899	17.219	899.030	678.998
233.913	17.023	898.507	677.760
234.928	16.943	898.077	677.056
235.942	17.164	897.096	677.139
236.957	17.245	896.771	677.155
237.972	17.064	896.386	676.085
238.986	17.152	895.734	675.883
240.001	17.172	894.897	675.270
241.015	17.117	894.561	674.741
242.030	17.213	893.992	674.632
243.045	17.284	893.572	674.536
244.059	17.371	892.855	674.281
245.074	17.371	892.361	673.850
246.088	17.361	891.651	673.213
247.103	17.471	891.028	673.117
248.117	17.561	891.044	673.425
249.132	17.803	890.438	673.866
250.147	17.926	889.460	673.549
251.161	18.069	888.694	673.474
252.176	17.967	887.886	672.402
253.190	18.121	887.342	672.536
254.205	18.107	887.091	672.230
255.220	18.069	886.194	671.340
256.234	18.051	885.804	670.917
257.249	18.024	884.920	670.080
258.263	18.051	883.974	669.411
259.278	18.103	883.507	669.201
260.293	18.091	883.329	668.961
261.307	18.226	882.069	668.475
262.322	18.270	882.204	668.690
263.336	18.225	881.234	667.721
264.351	18.293	880.383	667.282
265.366	18.316	879.533	666.668
266.380	18.224	879.310	666.081
267.395	18.166	878.413	665.116
268.409	18.054	878.134	664.413
269.424	18.144	877.143	663.953
270.439	18.013	876.549	662.935
271.453	18.057	875.675	662.387
272.468	18.043	875.389	662.057
273.482	18.011	874.476	661.185
274.497	18.066	873.770	660.807
275.512	17.933	873.816	660.269
276.526	17.961	872.959	659.668
277.541	18.119	872.161	659.619
278.555	18.201	872.117	659.843
279.570	18.418	871.073	659.831
280.585	18.391	870.302	659.085
281.599	18.209	869.503	657.719
282.614	18.079	869.038	656.812
283.628	18.158	868.441	656.606
284.643	18.222	868.024	656.476
285.657	18.184	867.211	655.660
286.672	18.211	866.505	655.172
287.687	18.227	866.117	654.881
288.701	18.109	865.772	654.111
289.716	18.302	864.806	654.059
290.730	18.188	864.491	653.328
291.745	18.320	863.749	653.214
292.760	18.318	863.272	652.788
293.774	18.515	862.806	653.128
294.789	18.545	861.966	652.548
295.803	18.304	861.115	650.930
296.818	18.189	860.405	649.900
297.833	18.388	859.468	649.888
298.847	18.260	859.440	649.324
299.862	18.360	858.715	649.100
300.876	18.390	858.472	648.970
301.891	18.426	857.880	648.604
302.906	18.546	857.494	648.707
303.920	18.574	857.142	648.489
304.935	18.777	856.258	648.529
305.949	18.667	855.607	647.566
306.964	18.615	854.551	646.513
307.979	18.762	854.154	646.707
308.993	18.833	853.378	646.330
310.008	18.716	852.820	645.409
311.022	18.595	852.439	644.611
312.037	18.568	851.808	643.974
313.052	18.537	850.717	642.977
314.066	18.549	850.086	642.487
315.081	18.431	850.032	641.947
316.095	18.362	849.342	641.114
317.110	18.363	848.818	640.665
318.125	18.455	848.353	640.601
319.139	18.427	847.853	640.062
320.154	18.367	847.511	639.523
321.168	18.434	847.050	639.366
322.183	18.594	846.492	639.487
323.197	18.696	845.535	639.086
324.212	18.565	845.471	638.496
325.227	18.555	844.801	637.896
326.241	18.575	843.816	637.169
327.256	18.568	843.334	636.724
328.270	18.435	843.298	636.144
329.285	18.571	842.423	635.933
330.300	18.549	841.589	635.165
331.314	18.589	841.300	635.039
332.329	18.657	841.033	635.032
333.343	18.880	840.436	635.350
334.358	18.870	839.910	634.859
335.373	18.731	839.581	634.042
336.387	18.823	839.506	634.269
337.402	19.018	839.116	634.637
338.416	19.089	838.742	634.561
339.431	19.138	838.506	634.506
340.446	19.074	838.421	634.151
341.460	19.097	837.787	633.700
342.475	19.228	837.386	633.820
343.489	19.361	836.846	633.845
344.504	19.290	836.337	633.142
345.519	19.441	835.777	633.218
346.533	19.358	835.086	632.332
347.548	19.068	834.790	630.990
348.562	19.038	834.434	630.556
349.577	18.972	833.644	629.660
350.592	18.927	832.713	628.737
351.606	18.806	832.204	627.856
352.621	18.878	831.559	627.577
353.635	18.992	830.771	627.340
354.650	19.163	829.882	627.239
355.665	19.034	829.987	626.792
356.679	19.182	829.208	626.685
357.694	19.221	828.451	626.200
358.708	19.040	828.077	625.206
359.723	19.008	827.653	624.715
360.738	19.194	826.731	624.635
361.752	19.285	826.259	624.556
362.767	19.362	825.605	624.282
363.781	19.483	825.168	624.336
364.796	19.709	824.892	624.889
365.810	19.635	825.100	624.724
366.825	19.614	824.489	624.128
367.840	19.730	823.510	623.750
368.854	19.467	823.028	622.384
369.869	19.448	822.580	621.921
370.883	19.516	822.159	621.794
371.898	19.544	822.048	621.755
372.913	19.627	821.670	621.712
373.927	19.584	820.805	620.849
374.942	19.517	820.581	620.383
375.956	19.786	820.096	620.928
376.971	19.666	819.683	620.130
377.986	19.733	819.369	620.076
379.000	19.937	818.642	620.202
380.015	19.874	818.031	619.459
381.029	19.806	817.631	618.858
382.044	19.833	816.994	618.420
383.059	19.944	816.223	618.175
384.073	19.790	815.783	617.241
385.088	19.440	815.395	615.640
386.102	19.448	814.726	615.110
387.117	19.503	814.116	614.791
388.132	19.558	813.283	614.306
389.146	19.826	812.741	614.795
390.161	19.776	812.567	614.429
391.175	19.910	812.152	614.537
392.190	19.659	811.399	613.022
393.205	19.663	811.004	612.684
394.219	19.667	810.632	612.363
395.234	19.374	810.408	611.102
396.248	19.492	809.682	610.918
397.263	19.573	809.100	610.710
398.278	19.493	808.506	609.927
399.292	19.380	808.706	609.622
400.307	19.447	807.818	609.137
401.321	19.607	807.162	609.151
402.336	19.772	806.818	609.420
403.350	19.559	806.826	608.621
404.365	19.873	806.461	609.398
405.380	20.096	805.276	609.234
406.394	20.032	805.585	609.188
407.409	19.984	805.179	608.658
408.423	20.151	804.894	608.975
409.438	20.096	804.827	608.679
410.453	20.139	803.953	608.113
411.467	20.328	803.370	608.282
412.482	20.384	803.402	608.449
413.496	20.338	802.815	607.790
414.511	20.321	802.295	607.282
415.526	20.290	801.726	606.690
416.540	20.168	801.463	606.010
417.555	20.255	801.161	606.032
418.569	20.447	800.269	605.972
419.584	20.373	800.061	605.504
420.599	20.390	799.446	605.042
421.613	161.189	1372.639	1796.833
422.628	139.883	1456.151	1796.900
