DTS Sentinel unit serial number:	SN413079Multiplexer serial number:	ORYXHardware model number:	OX4-SRSoftware version number:	ORYX F/W v4.00 Oryx Data Collector v3.7.2.0data status	okinstallation	princeton_trtdifferential loss correction	single-endedforward channel	channel 1reverse channel	N/Adate	2019/09/13time	22:42:35forward acquisition time	60.00reverse acquisition time	0.00gamma	496.2192k internal	0.2334k external	0.2334temperature offset calibration	1.0087default loss term (dB/km)	0.3790temperature slope calibration	1.0000multiplexer offset coefficient	1.0000multiplexer slope coefficient	1.0000fibre end	0.00T internal ref (°C)	27.62T ext. ref 1 (°C)	3.23T ext. ref 2 (°C)	21.68length (m)	temperature (°C)	Stokes	anti-Stokes-747.200	-73.676	-0.144	0.053
-746.185	222.286	0.242	0.391
-745.171	373.238	-0.145	0.297
-744.156	16.031	-0.057	-0.045
-743.142	24.312	0.132	-0.110
-742.127	245.309	-0.168	0.284
-741.112	-23.431	0.246	0.149
-740.098	62.993	-0.216	0.217
-739.083	-98.879	-0.198	0.051
-738.069	10.003	0.075	0.057
-737.054	-200.000	-0.002	0.296
-736.039	189.932	-0.259	-0.390
-735.025	800.000	-0.058	-0.174
-734.010	-200.000	0.006	0.107
-732.996	6.270	-0.330	-0.246
-731.981	166.199	-0.155	-0.220
-730.966	287.440	-0.085	-0.154
-729.952	118.533	0.172	-0.213
-728.937	54.562	-0.184	-0.179
-727.923	23.727	-0.132	0.109
-726.908	76.699	-0.316	0.337
-725.894	800.000	-0.046	-0.158
-724.879	36.804	-0.319	-0.283
-723.864	-86.274	-0.146	0.045
-722.850	-200.000	0.003	-0.306
-721.835	39.449	-0.092	-0.083
-720.821	145.333	-0.136	-0.183
-719.806	640.544	-0.125	-0.319
-718.791	-83.095	-0.176	0.057
-717.777	-4.208	0.083	-0.058
-716.762	-200.000	-0.034	0.285
-715.748	-103.257	0.142	-0.034
-714.733	254.923	-0.139	-0.240
-713.718	-139.278	-0.077	0.008
-712.704	-200.000	0.051	-0.275
-711.689	196.899	-0.088	0.135
-710.675	223.209	0.175	-0.283
-709.660	170.356	-0.118	-0.170
-708.645	73.100	0.157	0.164
-707.631	635.769	0.142	0.363
-706.616	130.589	-0.061	0.079
-705.602	800.000	-0.035	-0.100
-704.587	59.071	0.025	-0.025
-703.572	-71.365	-0.250	0.094
-702.558	800.000	0.136	-0.428
-701.543	230.032	-0.233	0.383
-700.529	-0.236	-0.172	-0.123
-699.514	92.766	0.095	0.108
-698.499	-171.488	-0.274	0.009
-697.485	202.953	-0.039	-0.060
-696.470	-171.875	0.356	0.012
-695.456	-200.000	0.049	-0.231
-694.441	2.966	0.066	-0.048
-693.426	-42.476	0.042	0.022
-692.412	-58.686	-0.210	-0.091
-691.397	-200.000	0.021	-0.368
-690.383	800.000	0.021	0.080
-689.368	7.517	-0.141	-0.106
-688.354	31.364	0.079	0.068
-687.339	130.094	0.098	0.126
-686.324	64.284	0.047	0.048
-685.310	-33.640	0.220	0.122
-684.295	100.210	0.185	0.216
-683.281	-200.000	-0.030	0.154
-682.266	-200.000	0.006	0.139
-681.251	-106.245	0.063	0.014
-680.237	-200.000	0.008	-0.195
-679.222	-103.062	-0.072	-0.017
-678.208	800.000	-0.122	-0.400
-677.193	-200.000	-0.026	-0.144
-676.178	389.924	-0.118	0.245
-675.164	158.400	0.070	0.097
-674.149	-20.272	0.157	0.097
-673.135	-200.000	-0.010	0.175
-672.120	-120.903	0.260	-0.044
-671.105	-100.017	-0.424	0.106
-670.091	180.699	-0.112	0.164
-669.076	-200.000	-0.059	-0.262
-668.062	-92.506	-0.028	-0.008
-667.047	800.000	-0.065	-0.206
-666.032	-200.000	-0.007	-0.189
-665.018	-49.451	-0.028	0.013
-664.003	295.949	-0.133	-0.244
-662.989	800.000	0.141	-0.489
-661.974	18.820	0.214	-0.172
-660.959	-102.804	-0.110	-0.026
-659.945	13.057	-0.264	0.204
-658.930	-200.000	-0.015	0.198
-657.916	-200.000	0.023	0.357
-656.901	-128.015	0.144	0.021
-655.886	-97.784	-0.458	-0.119
-654.872	395.346	0.263	-0.549
-653.857	188.567	-0.250	-0.375
-652.843	-200.000	-0.004	-0.039
-651.828	800.000	0.023	-0.073
-650.814	800.000	-0.050	-0.208
-649.799	64.161	0.152	0.153
-648.784	-101.865	-0.310	-0.075
-647.770	-154.370	0.343	0.023
-646.755	-200.000	-0.032	-0.321
-645.741	20.787	0.173	-0.140
-644.726	367.559	-0.077	-0.156
-643.711	800.000	0.094	-0.387
-642.697	15.178	0.113	0.089
-641.682	58.869	-0.208	0.204
-640.668	299.950	-0.146	0.269
-639.653	-126.981	0.188	-0.028
-638.638	113.770	0.244	-0.297
-637.624	800.000	-0.011	-0.039
-636.609	27.183	-0.124	-0.104
-635.595	-31.055	0.102	0.057
-634.580	-200.000	0.035	-0.208
-633.565	-114.747	-0.192	-0.037
-632.551	160.807	-0.047	0.065
-631.536	-64.658	-0.055	0.022
-630.522	800.000	-0.031	0.131
-629.507	-200.000	0.011	0.081
-628.492	-76.747	0.138	0.048
-627.478	-29.457	0.140	-0.080
-626.463	-91.331	0.298	-0.085
-625.449	-65.803	-0.181	0.073
-624.434	247.175	0.073	0.124
-623.419	123.925	0.206	0.259
-622.405	-123.004	-0.297	0.048
-621.390	-46.286	-0.225	0.110
-620.376	652.078	-0.123	-0.316
-619.361	-51.976	0.047	0.022
-618.346	-200.000	0.032	-0.234
-617.332	800.000	0.009	0.026
-616.317	111.776	-0.237	0.286
-615.303	83.007	-0.091	0.099
-614.288	-156.132	0.422	0.027
-613.273	16.274	0.328	0.259
-612.259	-106.603	-0.412	-0.092
-611.244	-39.270	0.038	0.020
-610.230	150.188	0.121	-0.164
-609.215	-72.704	-0.420	-0.155
-608.201	-108.937	0.078	-0.017
-607.186	95.407	-0.182	-0.208
-606.171	73.326	-0.115	-0.120
-605.157	-40.465	-0.245	0.127
-604.142	800.000	0.055	0.153
-603.128	123.020	0.214	0.268
-602.113	-200.000	0.038	0.397
-601.098	166.830	0.057	0.081
-600.084	535.578	0.053	0.125
-599.069	-200.000	0.038	-0.233
-598.055	-17.353	-0.180	0.113
-597.040	-178.479	0.311	0.007
-596.025	800.000	0.008	-0.024
-595.011	192.600	0.118	-0.178
-593.996	-85.288	-0.328	0.102
-592.982	218.203	0.136	0.218
-591.967	303.578	-0.177	-0.328
-590.952	-186.356	0.254	0.004
-589.938	-61.451	-0.215	0.090
-588.923	-50.278	-0.321	0.152
-587.909	-200.000	-0.045	-0.277
-586.894	-4.722	0.448	-0.309
-585.879	47.892	0.070	-0.065
-584.865	-115.409	0.246	0.046
-583.850	-12.366	0.137	0.090
-582.836	-200.000	-0.038	-0.663
-581.821	-123.326	-0.080	0.013
-580.806	-16.692	-0.101	0.064
-579.792	134.992	-0.123	0.160
-578.777	-126.689	0.390	-0.058
-577.763	-63.800	-0.322	-0.132
-576.748	103.111	0.030	0.035
-575.733	-200.000	0.000	-0.405
-574.719	-200.000	0.035	0.196
-573.704	115.147	0.024	0.029
-572.690	-162.161	0.200	-0.010
-571.675	212.767	0.066	-0.104
-570.661	-157.047	0.282	0.017
-569.646	136.926	-0.131	0.171
-568.631	-200.000	0.007	-0.042
-567.617	-69.793	0.310	0.118
-566.602	-110.514	0.127	0.026
-565.588	134.457	-0.151	-0.196
-564.573	108.325	-0.196	0.233
-563.558	800.000	-0.050	0.195
-562.544	-200.000	-0.045	-0.403
-561.529	-200.000	0.041	-0.453
-560.515	-200.000	0.037	0.384
-559.500	-200.000	0.006	-0.440
-558.485	34.528	-0.118	0.103
-557.471	-200.000	0.037	0.224
-556.456	-28.167	-0.185	-0.106
-555.442	774.735	-0.031	0.086
-554.427	34.433	-0.148	0.129
-553.412	-104.388	-0.085	-0.020
-552.398	33.573	0.123	-0.107
-551.383	9.739	0.178	-0.135
-550.369	142.020	-0.111	-0.147
-549.354	800.000	0.079	-0.294
-548.339	-148.287	0.443	-0.036
-547.325	-76.504	0.058	-0.020
-546.310	800.000	0.021	-0.087
-545.296	91.613	-0.028	0.032
-544.281	-107.155	0.233	0.051
-543.266	-200.000	0.035	0.491
-542.252	-137.698	-0.032	-0.004
-541.237	-149.223	-0.070	-0.006
-540.223	167.075	-0.129	-0.183
-539.208	481.660	0.212	-0.481
-538.193	800.000	-0.111	-0.376
-537.179	-200.000	0.005	-0.101
-536.164	-200.000	-0.043	0.188
-535.150	11.455	-0.096	-0.074
-534.135	-108.719	-0.264	0.056
-533.121	800.000	0.029	0.091
-532.106	-200.000	0.004	0.257
-531.091	-146.252	-0.229	0.020
-530.077	-58.729	-0.298	-0.129
-529.062	16.457	0.123	0.097
-528.048	-200.000	-0.008	0.225
-527.033	-104.622	-0.308	-0.071
-526.018	-200.000	0.029	-0.136
-525.004	-152.869	-0.342	-0.024
-523.989	-116.045	-0.141	-0.026
-522.975	11.117	-0.130	-0.099
-521.960	-93.672	-0.035	0.010
-520.945	-78.282	-0.146	-0.050
-519.931	-14.877	0.412	-0.264
-518.916	-200.000	0.064	-0.344
-517.902	11.928	-0.063	0.048
-516.887	357.770	0.087	0.172
-515.872	70.957	0.082	-0.085
-514.858	116.339	0.051	0.063
-513.843	-200.000	0.025	-0.198
-512.829	-200.000	0.043	0.278
-511.814	800.000	0.089	0.292
-510.799	180.113	0.050	-0.073
-509.785	-19.160	0.251	-0.156
-508.770	800.000	-0.053	-0.163
-507.756	62.971	0.057	-0.056
-506.741	-31.700	0.230	-0.128
-505.726	353.650	-0.069	0.136
-504.712	-165.912	0.401	0.017
-503.697	448.896	0.012	-0.026
-502.683	170.770	-0.100	-0.143
-501.668	-4.995	-0.117	-0.080
-500.653	-69.128	0.200	0.077
-499.639	-200.000	-0.019	0.244
-498.624	-144.112	-0.354	-0.033
-497.610	-200.000	0.011	-0.100
-496.595	-91.085	-0.214	-0.061
-495.581	-200.000	0.029	-0.278
-494.566	127.157	0.109	-0.137
-493.551	276.560	-0.126	-0.223
-492.537	36.558	0.008	-0.007
-491.522	268.990	-0.087	0.152
-490.508	42.378	-0.063	-0.057
-489.493	-62.029	0.262	0.109
-488.478	-200.000	-0.028	0.133
-487.464	800.000	-0.052	-0.190
-486.449	800.000	-0.091	0.317
-485.435	185.535	0.075	0.111
-484.420	-166.264	0.179	-0.008
-483.405	800.000	-0.067	-0.264
-482.391	135.484	0.052	-0.068
-481.376	141.199	-0.047	-0.062
-480.362	-66.391	-0.387	0.153
-479.347	414.350	-0.115	0.243
-478.332	-74.343	0.490	0.176
-477.318	-200.000	0.025	0.330
-476.303	396.352	-0.110	0.228
-475.289	28.774	0.166	-0.140
-474.274	126.185	0.215	-0.270
-473.259	-26.965	0.107	-0.062
-472.245	244.001	-0.120	-0.201
-471.230	-88.963	0.191	0.056
-470.216	-131.809	-0.348	0.045
-469.201	-71.995	-0.201	0.074
-468.186	226.720	-0.133	0.214
-467.172	365.060	0.161	0.322
-466.157	291.383	-0.083	-0.150
-465.143	-70.287	0.282	-0.106
-464.128	800.000	0.037	0.151
-463.113	-158.863	0.426	0.024
-462.099	62.206	-0.211	-0.209
-461.084	-200.000	0.057	0.263
-460.070	772.237	0.076	-0.207
-459.055	668.332	0.061	-0.156
-458.040	253.461	0.065	-0.111
-457.026	168.794	0.106	-0.151
-456.011	80.127	-0.079	-0.084
-454.997	800.000	-0.037	-0.121
-453.982	-91.374	-0.287	0.082
-452.968	-137.670	0.326	-0.036
-451.953	800.000	-0.041	-0.135
-450.938	17.579	0.190	-0.150
-449.924	607.210	0.101	0.250
-448.909	578.573	-0.236	0.575
-447.895	-146.792	-0.149	0.013
-446.880	-57.578	-0.249	-0.109
-445.865	7.376	0.212	-0.158
-444.851	-20.078	-0.423	0.259
-443.836	451.416	-0.137	-0.300
-442.822	-121.730	-0.512	-0.084
-441.807	17.771	-0.143	-0.113
-440.792	-69.133	-0.436	0.167
-439.778	405.474	0.117	0.246
-438.763	96.253	0.231	-0.263
-437.749	-150.855	0.301	-0.023
-436.734	-141.970	-0.201	-0.020
-435.719	-200.000	0.028	-0.271
-434.705	800.000	-0.034	-0.122
-433.690	-43.958	-0.268	0.134
-432.676	800.000	-0.024	0.092
-431.661	-79.034	0.114	0.038
-430.646	-83.505	0.124	0.039
-429.632	-92.836	-0.230	0.064
-428.617	160.980	-0.201	-0.279
-427.603	-18.994	-0.125	-0.077
-426.588	-16.164	0.125	0.079
-425.573	-178.356	0.104	0.002
-424.559	87.267	0.067	-0.073
-423.544	36.228	0.080	0.070
-422.530	79.285	0.273	0.291
-421.515	-69.182	-0.061	-0.023
-420.500	100.780	-0.039	0.045
-419.486	322.653	0.032	0.061
-418.471	-110.734	-0.008	-0.002
-417.457	-63.078	-0.266	-0.109
-416.442	9.592	-0.322	-0.242
-415.428	800.000	0.074	-0.253
-414.413	800.000	-0.012	0.036
-413.398	23.227	-0.090	0.073
-412.384	128.653	0.097	-0.123
-411.369	335.206	0.025	0.047
-410.355	-109.051	0.239	-0.051
-409.340	-6.670	-0.215	0.145
-408.325	562.955	0.088	0.212
-407.311	444.201	0.108	-0.235
-406.296	-65.685	0.087	-0.034
-405.282	-185.528	0.282	-0.004
-404.267	326.345	-0.137	0.260
-403.252	-200.000	-0.030	0.183
-402.238	-200.000	0.052	-0.331
-401.223	-149.837	0.243	0.019
-400.209	33.498	-0.217	0.187
-399.194	-200.000	0.052	-0.235
-398.179	-158.615	-0.321	0.018
-397.165	160.036	-0.061	0.084
-396.150	-67.832	0.120	-0.047
-395.136	800.000	0.083	0.312
-394.121	-119.251	-0.370	-0.064
-393.106	-78.497	0.271	0.092
-392.092	322.480	0.097	-0.183
-391.077	292.692	-0.120	0.217
-390.063	-200.000	0.011	0.050
-389.048	800.000	-0.057	0.204
-388.033	290.096	-0.077	0.138
-387.019	-79.970	0.334	-0.111
-386.004	800.000	0.060	0.176
-384.990	-100.108	0.192	-0.047
-383.975	-200.000	-0.014	-0.117
-382.960	-145.334	-0.035	0.003
-381.946	319.505	0.041	-0.078
-380.931	-20.908	0.354	0.215
-379.917	-17.192	-0.121	-0.075
-378.902	-123.783	0.413	0.065
-377.888	108.575	0.154	-0.183
-376.873	-200.000	0.237	-0.001
-375.858	-200.000	0.001	0.072
-374.844	800.000	-0.032	0.128
-373.829	384.126	-0.121	-0.248
-372.815	363.074	-0.019	-0.039
-371.800	-91.742	0.027	-0.008
-370.785	-140.226	0.124	-0.013
-369.771	-200.000	0.007	0.156
-368.756	800.000	-0.076	0.224
-367.742	-37.883	0.216	0.114
-366.727	-158.364	-0.158	0.009
-365.712	166.551	-0.094	-0.132
-364.698	-96.611	0.235	0.061
-363.683	-154.089	0.169	-0.011
-362.669	37.674	0.115	-0.101
-361.654	42.878	0.243	-0.219
-360.639	78.155	-0.137	0.144
-359.625	8.226	0.309	-0.230
-358.610	-5.468	-0.250	0.170
-357.596	-34.208	0.199	0.108
-356.581	12.043	-0.220	-0.168
-355.566	-74.506	-0.209	0.075
-354.552	-200.000	0.010	0.268
-353.537	12.641	0.229	-0.175
-352.523	-94.724	0.148	0.040
-351.508	394.344	0.210	0.434
-350.493	-200.000	0.123	-0.599
-349.479	-84.312	-0.187	0.059
-348.464	210.593	0.134	0.209
-347.450	-154.010	-0.204	-0.014
-346.435	248.833	0.103	0.172
-345.420	89.930	0.109	-0.121
-344.406	323.893	-0.157	0.297
-343.391	370.462	-0.133	-0.268
-342.377	800.000	-0.059	0.232
-341.362	310.671	-0.136	0.252
-340.348	800.000	-0.074	-0.292
-339.333	-200.000	0.025	0.114
-338.318	-2.015	0.206	0.144
-337.304	800.000	-0.076	0.237
-336.289	20.078	-0.135	-0.108
-335.275	590.613	-0.064	-0.156
-334.260	582.750	-0.042	0.103
-333.245	86.405	-0.166	0.181
-332.231	-54.766	-0.086	-0.038
-331.216	781.262	0.144	-0.390
-330.202	800.000	0.023	0.090
-329.187	-110.418	-0.080	0.016
-328.172	-200.000	-0.015	-0.111
-327.158	151.786	0.246	-0.332
-326.143	-130.322	0.309	-0.042
-325.129	65.640	-0.074	-0.074
-324.114	-10.587	-0.161	0.106
-323.099	-200.000	-0.001	0.011
-322.085	-155.710	0.073	0.005
-321.070	-184.814	-0.232	0.004
-320.056	265.153	0.106	0.183
-319.041	702.738	0.098	0.255
-318.026	170.554	-0.168	0.238
-317.012	703.631	-0.077	0.201
-315.997	-144.391	-0.122	0.011
-314.983	-69.462	0.179	-0.068
-313.968	-86.252	0.228	-0.069
-312.953	338.418	-0.213	-0.409
-311.939	35.143	-0.170	0.148
-310.924	800.000	-0.093	0.327
-309.910	10.652	0.071	0.053
-308.895	-84.087	0.117	-0.037
-307.880	-51.021	-0.176	-0.081
-306.866	-200.000	-0.045	0.240
-305.851	463.374	-0.093	0.206
-304.837	-51.862	-0.151	-0.069
-303.822	800.000	0.032	0.115
-302.807	92.530	0.118	0.132
-301.793	163.673	0.211	-0.294
-300.778	-200.000	-0.009	-0.147
-299.764	-200.000	-0.063	0.302
-298.749	197.555	0.025	0.038
-297.735	-69.938	0.135	-0.051
-296.720	9.275	0.193	0.144
-295.705	-59.498	0.119	-0.051
-294.691	-187.125	-0.029	0.000
-293.676	800.000	-0.075	0.207
-292.662	77.862	0.084	-0.089
-291.647	616.882	0.033	-0.081
-290.632	-48.683	-0.162	-0.077
-289.618	-200.000	-0.011	-0.169
-288.603	-129.063	0.131	-0.018
-287.589	-35.132	-0.067	-0.036
-286.574	756.875	0.045	-0.121
-285.559	297.688	0.149	-0.271
-284.545	243.502	-0.103	-0.171
-283.530	408.312	0.168	0.350
-282.516	-41.160	-0.371	0.189
-281.501	235.493	0.273	-0.445
-280.486	95.831	0.157	-0.177
-279.472	-200.000	-0.032	0.181
-278.457	161.893	-0.032	0.044
-277.443	-112.978	0.227	0.044
-276.428	126.833	-0.202	-0.252
-275.413	-200.000	0.015	-0.234
-274.399	184.567	0.106	-0.156
-273.384	-15.506	-0.282	-0.178
-272.370	728.309	-0.018	0.047
-271.355	-83.972	-0.066	0.021
-270.340	710.077	0.103	0.268
-269.326	61.831	0.120	0.118
-268.311	-200.000	0.015	-0.120
-267.297	79.265	-0.212	0.224
-266.282	140.608	0.181	-0.236
-265.267	18.151	-0.490	0.385
-264.253	-71.614	-0.191	0.071
-263.238	-187.363	-0.064	-0.001
-262.224	305.287	0.163	0.299
-261.209	-2.821	0.140	0.097
-260.195	-200.000	0.018	0.169
-259.180	-113.681	0.293	-0.056
-258.165	146.149	-0.136	-0.180
-257.151	14.720	0.226	-0.174
-256.136	19.887	-0.217	-0.172
-255.122	12.498	0.295	-0.224
-254.107	-200.000	0.029	-0.134
-253.092	271.549	-0.086	0.150
-252.078	-116.556	-0.291	0.053
-251.063	533.314	-0.054	-0.127
-250.049	-114.031	-0.380	0.073
-249.034	-130.124	-0.097	-0.013
-248.019	-200.000	0.012	0.119
-247.005	69.685	0.118	-0.119
-245.990	-200.000	0.007	0.176
-244.976	-103.697	0.199	0.046
-243.961	27.922	-0.078	0.065
-242.946	-92.385	0.240	-0.067
-241.932	-99.002	-0.301	-0.075
-240.917	800.000	-0.052	0.187
-239.903	406.098	0.262	-0.544
-238.888	135.441	-0.112	-0.143
-237.873	800.000	0.042	-0.137
-236.859	-200.000	0.017	0.089
-235.844	-53.563	-0.067	0.030
-234.830	-200.000	0.023	-0.131
-233.815	16.594	-0.251	-0.196
-232.800	-81.679	0.268	-0.087
-231.786	-138.269	-0.158	-0.017
-230.771	283.655	-0.022	0.039
-229.757	-107.550	0.324	0.070
-228.742	791.403	-0.074	0.201
-227.727	-56.383	-0.135	-0.059
-226.713	-200.000	-0.038	0.224
-225.698	175.959	-0.119	-0.171
-224.684	-126.565	-0.045	0.007
-223.669	-101.397	-0.086	-0.021
-222.655	800.000	0.027	-0.090
-221.640	800.000	0.120	-0.358
-220.625	147.499	0.185	0.245
-219.611	163.842	0.207	0.287
-218.596	491.879	0.098	-0.222
-217.582	-124.145	0.181	0.028
-216.567	800.000	-0.078	-0.225
-215.552	95.624	-0.101	0.113
-214.538	-200.000	-0.033	-0.318
-213.523	-49.524	-0.323	-0.152
-212.509	800.000	0.034	-0.129
-211.494	-200.000	0.090	-0.502
-210.479	321.355	-0.064	-0.120
-209.465	-139.988	-0.355	0.037
-208.450	295.761	0.068	0.123
-207.436	800.000	-0.041	0.175
-206.421	-104.147	0.093	0.021
-205.406	684.262	-0.126	0.323
-204.392	161.795	0.142	0.196
-203.377	-200.000	-0.013	0.219
-202.363	323.911	-0.153	0.288
-201.348	-4.156	0.106	-0.072
-200.333	194.072	0.054	-0.081
-199.319	-65.344	-0.104	-0.041
-198.304	233.546	0.072	0.117
-197.290	152.025	0.079	0.106
-196.275	-57.204	-0.280	0.121
-195.260	-50.885	-0.230	0.106
-194.246	113.538	0.106	0.127
-193.231	-55.017	0.058	0.026
-192.217	-200.000	-0.010	0.220
-191.202	731.604	0.103	0.270
-190.187	-63.523	0.451	0.182
-189.173	627.617	-0.075	0.187
-188.158	-16.560	-0.126	-0.079
-187.144	59.710	-0.112	-0.109
-186.129	216.897	-0.143	0.224
-185.114	654.212	-0.132	0.334
-184.100	-200.000	-0.218	-0.000
-183.085	-118.429	0.316	-0.055
-182.071	800.000	0.057	0.209
-181.056	301.963	-0.104	0.189
-180.042	52.195	0.157	-0.148
-179.027	631.886	-0.022	-0.056
-178.012	-82.379	-0.227	-0.073
-176.998	-31.115	-0.195	0.108
-175.983	-99.795	-0.189	0.047
-174.969	-49.922	-0.178	0.083
-173.954	800.000	-0.075	0.219
-172.939	13.849	0.083	-0.063
-171.925	-200.000	0.003	-0.113
-170.910	687.028	0.095	0.243
-169.896	-200.000	0.046	0.367
-168.881	-109.948	-0.393	-0.081
-167.866	66.138	0.109	0.109
-166.852	596.812	0.074	-0.181
-165.837	14.261	-0.220	-0.169
-164.823	-141.325	-0.164	-0.016
-163.808	800.000	-0.050	-0.183
-162.793	284.431	0.174	0.308
-161.779	294.952	-0.030	-0.054
-160.764	331.082	0.068	0.128
-159.750	800.000	-0.017	-0.055
-158.735	158.084	0.147	0.200
-157.720	34.642	-0.098	-0.084
-156.706	1.942	0.085	-0.060
-155.691	-80.277	-0.061	-0.020
-154.677	546.961	-0.009	0.020
-153.662	571.019	0.094	-0.225
-152.647	-94.128	0.048	0.013
-151.633	-35.850	-0.059	-0.032
-150.618	800.000	0.086	-0.313
-149.604	-65.564	0.298	-0.118
-148.589	64.988	0.297	-0.295
-147.574	-72.690	-0.048	0.017
-146.560	477.657	-0.055	0.123
-145.545	625.399	0.076	0.188
-144.531	106.831	0.261	0.304
-143.516	-20.109	0.144	0.087
-142.502	-200.000	0.025	-0.370
-141.487	277.029	0.089	0.155
-140.472	-200.000	-0.028	0.246
-139.458	-200.000	-0.031	0.221
-138.443	88.355	-0.097	0.106
-137.429	-200.000	-0.026	0.174
-136.414	81.656	-0.247	-0.263
-135.399	-200.000	0.018	0.241
-134.385	800.000	0.112	-0.359
-133.370	49.711	-0.203	0.188
-132.356	-200.000	-0.147	-0.710
-131.341	-51.577	-0.203	-0.093
-130.326	-91.988	-0.275	0.076
-129.312	-200.000	0.005	0.105
-128.297	672.023	-0.170	-0.431
-127.283	-200.000	0.009	0.072
-126.268	56.449	-0.081	0.077
-125.253	-121.405	0.418	0.068
-124.239	24.707	0.271	0.220
-123.224	3.293	-0.277	0.198
-122.210	727.698	-0.085	-0.221
-121.195	800.000	0.096	0.369
-120.180	800.000	0.141	0.421
-119.166	110.294	-0.086	0.101
-118.151	-111.979	0.393	0.078
-117.137	-200.000	0.041	-0.450
-116.122	213.767	-0.062	-0.097
-115.107	140.604	-0.239	0.309
-114.093	-200.000	0.001	0.032
-113.078	-200.000	-0.010	0.153
-112.064	-138.480	0.143	0.015
-111.049	-89.915	-0.341	0.098
-110.034	245.353	-0.138	0.228
-109.020	-70.820	0.121	-0.045
-108.005	359.316	0.149	-0.292
-106.991	116.183	0.140	0.168
-105.976	113.137	0.083	0.099
-104.962	-93.126	0.296	-0.081
-103.947	66.611	-0.062	-0.062
-102.932	-200.000	0.003	-0.034
-101.918	800.000	0.035	0.135
-100.903	800.000	0.034	0.140
-99.889	209.534	0.174	-0.267
-98.874	-200.000	0.032	0.299
-97.859	-99.564	-0.271	-0.067
-96.845	-95.882	-0.389	0.102
-95.830	800.000	0.091	0.297
-94.816	632.700	0.090	0.224
-93.801	-73.740	-0.237	0.084
-92.786	-125.709	0.232	0.034
-91.772	-200.000	-0.017	-0.398
-90.757	-200.000	-0.032	0.164
-89.743	4.048	0.055	-0.039
-88.728	61.127	0.048	0.047
-87.713	47.417	0.212	0.193
-86.699	-130.887	-0.193	0.025
-85.684	182.024	-0.146	-0.211
-84.670	-200.000	0.015	0.104
-83.655	-73.686	0.308	-0.110
-82.640	119.397	0.197	-0.238
-81.626	45.375	-0.125	-0.113
-80.611	112.876	-0.150	0.178
-79.597	2.299	0.392	0.278
-78.582	158.830	0.112	-0.153
-77.567	-200.000	-0.031	0.186
-76.553	-7.196	0.178	-0.118
-75.538	215.492	-0.158	-0.246
-74.524	800.000	0.064	-0.271
-73.509	45.502	0.221	0.200
-72.494	800.000	0.041	0.166
-71.480	451.822	-0.101	-0.218
-70.465	800.000	0.061	-0.225
-69.451	800.000	-0.083	-0.227
-68.436	373.324	0.029	0.058
-67.422	-47.901	0.120	0.057
-66.407	113.666	-0.149	-0.177
-65.392	-65.056	-0.376	0.149
-64.378	800.000	0.080	0.303
-63.363	-119.390	0.483	-0.082
-62.349	245.145	-0.123	0.202
-61.334	246.556	-0.719	-1.187
-60.319	123.434	0.414	0.508
-59.305	-200.000	-0.268	-1.212
-58.290	151.274	0.843	1.123
-57.276	131.672	0.945	1.189
-56.261	-200.000	115.096	665.438
-55.246	546.478	1517.651	3552.087
-54.232	179.567	2681.839	3842.658
-53.217	110.105	2147.545	2522.591
-52.203	39.303	1594.562	1396.726
-51.188	30.904	1342.055	1125.047
-50.173	28.024	1304.537	1076.617
-49.159	55.767	1362.129	1291.699
-48.144	54.134	1376.264	1295.261
-47.130	31.288	1330.157	1117.194
-46.115	27.795	1312.959	1082.043
-45.100	27.614	1308.346	1077.128
-44.086	27.499	1305.796	1074.304
-43.071	27.507	1303.830	1072.689
-42.057	27.535	1301.443	1070.848
-41.042	27.497	1300.315	1069.655
-40.027	27.589	1298.128	1068.354
-39.013	27.546	1296.511	1066.732
-37.998	27.569	1294.443	1065.119
-36.984	27.621	1292.446	1063.740
-35.969	27.611	1290.873	1062.344
-34.954	27.604	1289.074	1060.777
-33.940	27.685	1288.191	1060.481
-32.925	27.645	1286.888	1059.136
-31.911	27.695	1285.389	1058.149
-30.896	27.638	1283.832	1056.497
-29.881	27.733	1282.457	1055.872
-28.867	27.679	1281.577	1054.793
-27.852	27.806	1279.813	1054.033
-26.838	27.767	1278.334	1052.547
-25.823	27.727	1277.046	1051.215
-24.809	27.762	1275.598	1050.184
-23.794	27.667	1274.686	1048.842
-22.779	27.632	1273.413	1047.553
-21.765	27.673	1272.591	1047.071
-20.750	27.688	1271.051	1045.848
-19.736	27.662	1269.640	1044.501
-18.721	27.617	1268.166	1042.987
-17.706	27.668	1266.961	1042.246
-16.692	27.625	1266.050	1041.211
-15.677	27.549	1265.364	1040.169
-14.663	27.664	1263.711	1039.426
-13.648	27.601	1263.237	1038.634
-12.633	27.620	1262.196	1037.846
-11.619	27.538	1261.336	1036.632
-10.604	27.526	1260.320	1035.685
-9.590	27.497	1259.527	1034.829
-8.575	27.609	1258.052	1034.211
-7.560	27.513	1257.450	1033.133
-6.546	27.480	1257.011	1032.541
-5.531	27.566	1255.863	1032.048
-4.517	27.523	1254.816	1030.902
-3.502	27.565	1254.212	1030.599
-2.487	27.610	1252.707	1029.576
-1.473	27.611	1248.647	1026.206
-0.458	25.930	1233.199	1004.116
0.556	22.589	1216.121	964.924
1.571	18.787	1221.247	947.964
2.586	17.797	1236.119	953.886
3.600	17.417	1224.139	942.455
4.615	13.175	1153.456	865.773
5.629	6.330	1082.238	778.490
6.644	3.376	1064.102	750.997
7.659	3.125	1061.467	747.852
8.673	3.181	1060.731	747.538
9.688	3.239	1059.131	746.625
10.702	3.244	1057.546	745.468
11.717	7.283	1062.469	768.490
12.731	14.695	1073.148	812.325
13.746	19.266	1078.565	838.651
14.761	19.887	1078.591	841.619
15.775	19.038	1077.270	836.388
16.790	18.075	1075.406	830.191
17.804	17.331	1073.922	825.364
18.819	17.095	1072.331	822.924
19.834	16.944	1071.851	821.752
20.848	16.885	1070.727	820.531
21.863	16.621	1070.225	818.798
22.877	16.423	1069.515	817.225
23.892	16.452	1069.014	816.907
24.907	16.343	1068.344	815.798
25.921	16.442	1066.995	815.173
26.936	16.530	1065.703	814.540
27.950	16.511	1064.469	813.432
28.965	16.600	1062.579	812.344
29.980	16.520	1061.931	811.390
30.994	16.829	1060.264	811.526
32.009	16.696	1059.988	810.606
33.023	16.631	1058.593	809.156
34.038	16.637	1057.475	808.257
35.053	16.644	1056.364	807.373
36.067	16.551	1055.722	806.367
37.082	16.563	1054.721	805.587
38.096	16.644	1054.391	805.648
39.111	16.710	1053.484	805.199
40.126	16.531	1051.985	803.132
41.140	16.407	1050.800	801.569
42.155	16.187	1050.015	799.856
43.169	16.190	1048.372	798.546
44.184	16.282	1047.341	798.127
45.199	16.168	1046.599	796.952
46.213	16.390	1045.615	797.180
47.228	16.515	1044.873	797.134
48.242	16.575	1043.791	796.518
49.257	16.524	1042.554	795.266
50.271	16.529	1042.070	794.848
51.286	16.645	1040.913	794.441
52.301	16.607	1039.982	793.481
53.315	16.363	1039.257	791.715
54.330	16.410	1038.035	790.933
55.344	16.284	1037.431	789.814
56.359	16.516	1035.618	789.448
57.374	16.295	1035.860	788.532
58.388	16.270	1034.616	787.396
59.403	16.071	1034.272	786.138
60.417	16.176	1033.280	785.803
61.432	16.259	1031.815	785.007
62.447	16.018	1031.464	783.550
63.461	15.953	1030.712	782.604
64.476	16.097	1029.170	782.036
65.490	16.056	1028.587	781.330
66.505	16.105	1027.944	781.002
67.520	16.254	1027.132	781.004
68.534	16.185	1026.695	780.284
69.549	16.110	1025.855	779.230
70.563	16.077	1024.805	778.211
71.578	15.983	1024.102	777.175
72.593	15.993	1023.662	776.820
73.607	15.991	1022.717	776.021
74.622	16.003	1022.178	775.601
75.636	16.027	1021.450	775.091
76.651	15.992	1020.858	774.412
77.666	15.905	1020.806	773.905
78.680	16.094	1019.382	773.624
79.695	16.054	1019.019	773.098
80.709	16.214	1018.306	773.220
81.724	16.286	1017.906	773.178
82.739	16.364	1016.925	772.720
83.753	16.531	1016.571	773.145
84.768	16.732	1015.714	773.344
85.782	16.848	1014.618	772.970
86.797	16.795	1013.995	772.187
87.812	16.545	1012.912	770.154
88.826	16.661	1012.009	769.926
89.841	16.666	1010.955	769.079
90.855	16.765	1010.177	768.868
91.870	16.756	1009.344	768.128
92.884	16.743	1008.695	767.507
93.899	16.634	1008.038	766.444
94.914	16.892	1006.905	766.683
95.928	16.893	1006.152	766.044
96.943	16.695	1005.442	764.542
97.957	16.749	1004.168	763.749
98.972	16.776	1003.445	763.256
99.987	16.789	1002.170	762.274
101.001	16.664	1001.912	761.450
102.016	16.746	1000.778	760.889
103.030	16.691	999.879	759.893
104.045	16.770	999.127	759.607
105.060	16.633	998.471	758.428
106.074	16.317	997.615	756.293
107.089	16.335	995.811	754.940
108.103	16.190	995.137	753.714
109.118	16.169	994.205	752.851
110.133	16.155	993.467	752.162
111.147	16.173	992.315	751.301
112.162	16.143	992.198	751.013
113.176	16.353	991.193	751.122
114.191	16.453	990.534	750.997
115.206	16.393	989.299	749.729
116.220	16.184	988.904	748.439
117.235	16.338	987.495	747.987
118.249	16.199	986.782	746.766
119.264	16.323	985.804	746.508
120.279	16.177	985.467	745.543
121.293	16.147	984.085	744.299
122.308	16.090	983.092	743.229
123.322	15.969	982.423	742.126
124.337	16.095	981.010	741.546
125.352	16.071	980.232	740.788
126.366	16.080	978.922	739.768
127.381	16.088	977.947	739.002
128.395	16.031	977.436	738.301
129.410	16.048	976.218	737.391
130.424	16.186	975.552	737.425
131.439	16.201	975.093	737.077
132.454	16.318	974.397	736.998
133.468	16.331	973.032	735.957
134.483	16.280	972.401	735.192
135.497	16.341	971.616	734.800
136.512	16.370	970.598	734.090
137.527	16.348	969.586	733.165
138.541	16.379	969.116	732.882
139.556	16.505	968.389	732.813
140.570	16.489	968.108	732.464
141.585	16.659	967.290	732.517
142.600	16.748	966.543	732.273
143.614	16.723	966.052	731.728
144.629	16.820	965.239	731.466
145.643	16.764	963.876	730.126
146.658	16.697	962.569	728.780
147.673	16.565	961.831	727.593
148.687	16.250	960.934	725.495
149.702	16.368	960.415	725.544
150.716	16.252	959.542	724.323
151.731	16.309	959.204	724.250
152.746	16.419	957.584	723.431
153.760	16.400	957.440	723.179
154.775	16.593	956.789	723.449
155.789	16.615	956.288	723.099
156.804	16.704	955.148	722.555
157.819	16.796	954.688	722.536
158.833	16.832	954.337	722.357
159.848	16.922	953.262	721.863
160.862	16.740	952.235	720.248
161.877	16.582	950.988	718.569
162.892	16.402	949.808	716.850
163.906	16.390	949.010	716.133
164.921	16.531	947.856	715.797
165.935	16.648	947.273	715.790
166.950	16.641	946.748	715.299
167.964	16.571	945.757	714.191
168.979	16.582	944.732	713.403
169.994	16.637	943.954	712.980
171.008	16.633	943.422	712.499
172.023	16.860	942.615	712.783
173.037	16.912	942.199	712.622
174.052	16.708	941.397	711.097
175.067	16.532	940.447	709.578
176.081	16.391	940.107	708.666
177.096	16.422	939.683	708.413
178.110	16.590	939.142	708.650
179.125	16.659	938.120	708.102
180.140	16.622	937.981	707.782
181.154	16.759	937.421	707.866
182.169	16.901	936.999	708.081
183.183	16.967	936.395	707.838
184.198	16.949	935.782	707.234
185.213	16.789	934.858	705.808
186.227	16.981	934.202	706.049
187.242	16.977	933.943	705.773
188.256	17.038	933.079	705.310
189.271	17.020	932.206	704.517
190.286	16.868	931.014	702.923
191.300	16.402	930.303	700.391
192.315	16.528	929.225	700.040
193.329	16.539	929.133	699.952
194.344	16.618	928.513	699.752
195.359	16.836	927.530	699.847
196.373	16.913	927.125	699.800
197.388	16.908	927.474	699.981
198.402	17.139	926.513	700.145
199.417	17.212	926.064	700.047
200.432	17.369	925.412	700.137
201.446	17.361	925.013	699.740
202.461	17.401	924.490	699.449
203.475	17.302	923.661	698.352
204.490	17.135	922.887	697.018
205.504	17.074	922.366	696.312
206.519	17.029	921.553	695.455
207.534	17.044	920.807	694.889
208.548	17.119	919.812	694.385
209.563	17.105	919.351	693.918
210.577	17.189	918.792	693.780
211.592	17.212	918.892	693.885
212.607	17.396	917.520	693.540
213.621	17.301	916.725	692.491
214.636	17.350	916.021	692.095
215.650	17.312	915.623	691.579
216.665	17.471	914.560	691.363
217.680	17.417	914.425	690.978
218.694	17.481	913.493	690.471
219.709	17.452	912.853	689.811
220.723	17.505	912.558	689.742
221.738	17.484	911.196	688.564
222.753	17.458	910.921	688.191
223.767	17.584	910.183	688.082
224.782	17.711	909.575	688.074
225.796	17.704	909.445	687.888
226.811	17.560	908.485	686.521
227.826	17.424	907.837	685.422
228.840	17.436	906.961	684.748
229.855	17.525	905.941	684.273
230.869	17.278	905.610	682.972
231.884	17.332	904.813	682.528
232.899	17.435	903.968	682.241
233.913	17.308	903.326	681.188
234.928	17.164	902.388	679.846
235.942	17.255	901.424	679.421
236.957	17.236	901.592	679.413
237.972	17.250	900.809	678.820
238.986	17.231	900.512	678.460
240.001	17.325	899.117	677.723
241.015	17.403	898.978	677.868
242.030	17.501	898.282	677.674
243.045	17.411	898.037	677.070
244.059	17.509	896.999	676.620
245.074	17.614	896.686	676.738
246.088	17.603	896.362	676.390
247.103	17.698	895.333	675.932
248.117	17.714	895.369	675.963
249.132	17.919	894.963	676.408
250.147	17.998	894.473	676.290
251.161	18.179	893.474	676.191
252.176	18.190	892.887	675.729
253.190	18.128	892.431	675.083
254.205	18.118	892.036	674.683
255.220	18.243	890.925	674.274
256.234	18.228	890.339	673.714
257.249	18.168	889.693	672.931
258.263	18.222	888.641	672.287
259.278	18.200	887.987	671.644
260.293	18.323	887.845	671.960
261.307	18.268	887.412	671.359
262.322	18.288	886.587	670.754
263.336	18.432	885.684	670.574
264.351	18.366	885.159	669.860
265.366	18.454	884.679	669.781
266.380	18.428	883.844	668.986
267.395	18.264	883.200	667.801
268.409	18.271	882.123	666.954
269.424	18.233	881.502	666.279
270.439	18.198	880.541	665.357
271.453	18.096	880.549	664.908
272.468	18.081	879.863	664.274
273.482	18.034	879.241	663.562
274.497	18.215	878.536	663.671
275.512	18.192	878.177	663.253
276.526	18.159	877.857	662.827
277.541	18.297	877.313	662.891
278.555	18.339	876.415	662.314
279.570	18.628	875.680	662.818
280.585	18.527	875.173	661.988
281.599	18.309	874.319	660.439
282.614	18.216	873.718	659.570
283.628	18.346	873.144	659.578
284.643	18.239	872.528	658.645
285.657	18.309	871.890	658.371
286.672	18.359	870.987	657.823
287.687	18.245	870.480	656.947
288.701	18.452	870.045	657.353
289.716	18.378	869.430	656.547
290.730	18.544	868.631	656.521
291.745	18.304	868.381	655.355
292.760	18.506	867.804	655.637
293.774	18.697	866.961	655.668
294.789	18.538	866.661	654.777
295.803	18.366	865.600	653.263
296.818	18.439	864.848	652.915
297.833	18.500	864.164	652.571
298.847	18.401	863.748	651.825
299.862	18.564	863.086	651.888
300.876	18.624	862.720	651.781
301.891	18.736	862.135	651.704
302.906	18.734	861.996	651.535
303.920	18.894	861.306	651.562
304.935	19.040	860.517	651.462
305.949	18.976	859.920	650.711
306.964	18.822	859.134	649.476
307.979	18.847	858.584	649.096
308.993	18.780	858.548	648.760
310.008	18.795	857.786	648.181
311.022	18.820	856.962	647.597
312.037	18.891	856.215	647.240
313.052	18.611	855.842	645.848
314.066	18.527	855.289	645.057
315.081	18.556	854.758	644.712
316.095	18.714	853.680	644.433
317.110	18.497	853.815	643.663
318.125	18.607	853.099	643.481
319.139	18.535	852.738	642.881
320.154	18.568	852.306	642.622
321.168	18.765	851.575	642.752
322.183	18.714	851.285	642.282
323.197	18.695	850.685	641.702
324.212	18.754	849.918	641.289
325.227	18.706	849.278	640.570
326.241	18.629	848.645	639.748
327.256	18.570	848.312	639.220
328.270	18.818	847.417	639.412
329.285	18.641	846.865	638.280
330.300	18.736	846.159	638.044
331.314	18.841	845.609	637.964
332.329	18.862	845.819	638.144
333.343	19.109	845.126	638.480
334.358	18.960	844.622	637.491
335.373	19.096	844.117	637.557
336.387	19.012	844.120	637.191
337.402	18.997	844.085	637.055
338.416	19.093	843.650	637.025
339.431	19.272	843.059	637.186
340.446	19.320	842.974	637.241
341.460	19.291	842.574	636.775
342.475	19.413	841.995	636.732
343.489	19.489	841.502	636.582
344.504	19.476	841.566	636.527
345.519	19.591	840.601	636.164
346.533	19.516	840.292	635.599
347.548	19.278	839.748	634.254
348.562	19.124	838.916	633.005
349.577	19.063	838.492	632.405
350.592	19.015	837.319	631.286
351.606	19.011	836.703	630.752
352.621	19.148	835.897	630.589
353.635	19.165	835.344	630.180
354.650	19.219	835.223	630.231
355.665	19.222	834.517	629.651
356.679	19.268	834.056	629.416
357.694	19.466	832.943	629.245
358.708	19.332	832.292	628.206
359.723	19.279	832.200	627.889
360.738	19.220	831.684	627.231
361.752	19.370	830.912	627.138
362.767	19.613	830.100	627.354
363.781	19.674	829.727	627.234
364.796	19.709	829.615	627.224
365.810	19.703	829.305	626.910
366.825	19.797	829.278	627.176
367.840	19.796	828.246	626.336
368.854	19.720	827.255	625.258
369.869	19.678	827.128	624.953
370.883	19.549	827.153	624.450
371.898	19.802	826.826	625.065
372.913	19.857	825.968	624.557
373.927	19.819	825.215	623.798
374.942	19.761	825.457	623.714
375.956	19.864	824.508	623.314
376.971	19.942	823.981	623.143
377.986	19.936	823.920	623.018
379.000	19.999	823.289	622.711
380.015	20.006	822.910	622.396
381.029	20.038	822.179	621.901
382.044	20.004	821.455	621.178
383.059	20.087	820.808	620.932
384.073	20.019	820.059	620.068
385.088	19.938	819.659	619.421
386.102	19.619	819.248	617.914
387.117	19.761	818.570	617.855
388.132	19.963	817.321	617.577
389.146	19.913	817.356	617.372
390.161	19.901	817.122	617.096
391.175	19.803	816.826	616.471
392.190	19.916	815.912	616.128
393.205	19.798	815.753	615.532
394.219	19.940	815.144	615.523
395.234	19.745	814.991	614.660
396.248	19.608	814.424	613.693
397.263	19.581	813.577	612.904
398.278	19.492	813.570	612.526
399.292	19.742	812.584	612.617
400.307	19.684	812.554	612.334
401.321	19.615	812.012	611.628
402.336	19.807	811.428	611.812
403.350	19.958	811.211	612.129
404.365	20.085	810.881	612.275
405.380	20.218	810.258	612.221
406.394	20.095	810.003	611.541
407.409	20.264	809.663	611.825
408.423	20.323	809.232	611.653
409.438	20.426	808.499	611.408
410.453	20.549	808.204	611.564
411.467	20.318	807.861	610.436
412.482	20.348	807.791	610.436
413.496	20.604	807.014	610.694
414.511	20.440	806.985	610.042
415.526	20.475	805.914	609.300
416.540	20.519	805.905	609.394
417.555	20.361	805.606	608.559
418.569	20.411	805.022	608.241
419.584	20.417	804.643	607.919
420.599	20.392	804.035	607.319
421.613	161.676	1373.349	1796.500
422.628	140.469	1456.286	1796.568
