DTS Sentinel unit serial number:	SN413079Multiplexer serial number:	ORYXHardware model number:	OX4-SRSoftware version number:	ORYX F/W v4.00 Oryx Data Collector v3.7.2.0data status	okinstallation	princeton_trtdifferential loss correction	single-endedforward channel	channel 1reverse channel	N/Adate	2019/09/16time	06:18:36forward acquisition time	60.00reverse acquisition time	0.00gamma	496.2192k internal	0.2331k external	0.2331temperature offset calibration	0.9986default loss term (dB/km)	0.3790temperature slope calibration	1.0000multiplexer offset coefficient	1.0000multiplexer slope coefficient	1.0000fibre end	0.00T internal ref (°C)	27.44T ext. ref 1 (°C)	11.34T ext. ref 2 (°C)	21.67length (m)	temperature (°C)	Stokes	anti-Stokes-747.200	-200.000	0.027	0.219
-746.185	-63.665	0.099	-0.041
-745.171	688.519	-0.085	-0.222
-744.156	36.520	-0.101	-0.089
-743.142	-130.676	-0.403	-0.055
-742.127	-105.363	-0.107	0.024
-741.112	556.118	0.111	0.268
-740.098	681.693	-0.168	0.440
-739.083	182.083	0.148	0.220
-738.069	-200.000	-0.007	0.258
-737.054	-200.000	0.055	0.340
-736.039	-200.000	0.007	-0.119
-735.025	22.779	-0.156	-0.129
-734.010	-112.100	0.275	0.056
-732.996	-26.516	-0.255	-0.150
-731.981	-48.609	-0.236	-0.114
-730.966	-77.826	-0.181	-0.063
-729.952	-28.011	-0.217	0.126
-728.937	800.000	-0.116	0.344
-727.923	-139.296	-0.101	-0.011
-726.908	225.979	0.072	0.117
-725.894	800.000	0.060	-0.199
-724.879	38.759	0.172	0.154
-723.864	-8.302	0.232	-0.157
-722.850	652.303	-0.050	0.128
-721.835	-200.000	-0.084	0.646
-720.821	-112.046	0.385	0.078
-719.806	-120.100	-0.463	0.080
-718.791	122.527	-0.186	-0.233
-717.777	92.597	0.102	-0.116
-716.762	-200.000	0.011	-0.113
-715.748	-20.296	-0.223	0.138
-714.733	800.000	0.113	-0.438
-713.718	646.964	0.049	0.125
-712.704	-30.213	-0.214	0.122
-711.689	800.000	-0.077	0.316
-710.675	241.859	0.089	-0.150
-709.660	-200.000	-0.024	-0.250
-708.645	54.125	0.256	0.248
-707.631	-96.857	-0.134	0.035
-706.616	-200.000	-0.044	-0.213
-705.602	150.134	-0.156	0.212
-704.587	183.754	0.158	0.235
-703.572	-33.829	-0.224	-0.124
-702.558	-90.024	-0.010	0.003
-701.543	-18.918	-0.255	-0.160
-700.529	-59.450	0.259	-0.112
-699.514	329.602	-0.143	-0.276
-698.499	-7.807	0.168	-0.114
-697.485	-100.415	-0.313	-0.078
-696.470	-200.000	0.015	-0.190
-695.456	800.000	-0.018	-0.067
-694.441	156.053	-0.131	0.181
-693.426	284.558	0.142	-0.257
-692.412	-53.286	-0.192	-0.089
-691.397	484.361	-0.041	-0.093
-690.383	-124.506	0.125	0.019
-689.368	-52.379	-0.467	0.217
-688.354	-200.000	-0.026	0.284
-687.339	-127.911	-0.191	-0.028
-686.324	278.499	-0.128	0.229
-685.310	115.062	-0.100	0.122
-684.295	-58.107	0.078	-0.034
-683.281	-89.977	-0.384	-0.112
-682.266	800.000	0.060	0.238
-681.251	-174.929	-0.203	0.006
-680.237	112.448	-0.086	-0.104
-679.222	-200.000	-0.027	0.124
-678.208	-129.947	-0.404	-0.056
-677.193	236.619	-0.192	-0.318
-676.178	-86.178	-0.138	0.043
-675.164	-76.388	0.119	0.042
-674.149	-22.458	0.136	0.083
-673.135	289.419	-0.127	0.231
-672.120	-99.343	0.247	0.063
-671.105	-23.613	-0.180	-0.108
-670.091	-27.932	-0.247	0.144
-669.076	48.395	-0.272	0.255
-668.062	786.178	-0.091	0.252
-667.047	-200.000	-0.005	0.230
-666.032	-44.412	0.121	-0.061
-665.018	-127.558	-0.306	-0.044
-664.003	349.830	0.030	-0.060
-662.989	-200.000	-0.030	-0.170
-661.974	-5.750	0.136	0.094
-660.959	800.000	-0.060	0.221
-659.945	-69.891	-0.207	0.079
-658.930	275.043	0.068	-0.120
-657.916	-103.244	-0.386	0.091
-656.901	-17.998	-0.067	-0.042
-655.886	-21.261	-0.165	0.101
-654.872	-56.660	-0.266	0.118
-653.857	151.081	-0.209	0.285
-652.843	-80.216	-0.176	-0.059
-651.828	-200.000	-0.013	0.149
-650.814	70.204	0.070	-0.072
-649.799	162.626	0.131	-0.185
-648.784	800.000	0.099	0.312
-647.770	-48.472	-0.131	0.063
-646.755	-200.000	0.098	0.000
-645.741	-83.263	-0.145	-0.047
-644.726	-43.278	0.206	-0.105
-643.711	800.000	-0.042	0.136
-642.697	42.046	-0.126	-0.115
-641.682	185.103	0.090	0.133
-640.668	-17.663	-0.250	-0.158
-639.653	154.887	-0.289	-0.399
-638.638	101.914	-0.040	0.046
-637.624	-167.176	0.251	-0.010
-636.609	800.000	-0.079	-0.219
-635.595	-200.000	-0.021	-0.136
-634.580	-87.755	-0.273	0.083
-633.565	-200.000	-0.026	0.125
-632.551	476.500	-0.110	-0.249
-631.536	783.451	-0.092	0.254
-630.522	800.000	-0.067	-0.262
-629.507	-161.756	-0.173	0.009
-628.492	276.146	-0.149	-0.265
-627.478	-32.853	0.213	0.119
-626.463	88.647	-0.302	-0.336
-625.449	47.905	-0.043	-0.040
-624.434	70.594	0.114	0.118
-623.419	748.318	0.026	0.070
-622.405	634.565	0.069	-0.176
-621.390	248.748	0.157	0.266
-620.376	-199.563	-0.128	-0.001
-619.361	-200.000	-0.001	-0.081
-618.346	-140.809	-0.272	-0.028
-617.332	67.251	0.167	-0.171
-616.317	180.200	0.119	0.174
-615.303	-16.835	-0.126	-0.080
-614.288	-108.431	0.274	0.059
-613.273	-167.801	-0.333	-0.013
-612.259	-19.510	-0.070	-0.044
-611.244	64.157	-0.157	0.158
-610.230	-40.986	0.069	0.036
-609.215	-200.000	0.018	-0.177
-608.201	13.585	-0.158	0.123
-607.186	-159.203	-0.189	-0.011
-606.171	-200.000	0.024	0.159
-605.157	230.835	-0.128	-0.209
-604.142	53.958	-0.108	0.104
-603.128	272.776	-0.081	-0.143
-602.113	375.272	-0.049	0.099
-601.098	-71.281	0.136	0.051
-600.084	-57.272	-0.257	-0.113
-599.069	-98.780	-0.394	0.100
-598.055	-67.866	-0.171	-0.067
-597.040	246.622	-0.116	-0.196
-596.025	-95.533	0.059	0.016
-595.011	-107.703	-0.081	-0.018
-593.996	149.163	0.114	-0.154
-592.982	-88.745	-0.032	0.010
-591.967	-9.114	0.373	0.249
-590.952	-79.978	0.259	-0.087
-589.938	-175.315	0.316	-0.009
-588.923	-200.000	-0.036	-0.205
-587.909	65.607	-0.140	-0.142
-586.894	-27.853	-0.045	-0.026
-585.879	-200.000	0.013	-0.211
-584.865	25.636	0.218	0.182
-583.850	-164.908	0.088	0.004
-582.836	159.366	-0.027	-0.038
-581.821	-159.091	0.448	0.025
-580.806	-102.966	-0.337	0.080
-579.792	-36.356	-0.240	-0.129
-578.777	101.374	-0.337	0.393
-577.763	-200.000	0.003	0.051
-576.748	-200.000	-0.027	-0.171
-575.733	1.842	0.155	-0.112
-574.719	-61.010	-0.284	-0.120
-573.704	88.185	-0.097	-0.107
-572.690	-144.689	0.288	0.026
-571.675	-45.582	0.114	-0.056
-570.661	-200.000	0.004	0.172
-569.646	92.285	-0.241	0.271
-568.631	217.483	-0.101	0.161
-567.617	248.079	0.123	0.207
-566.602	-3.308	-0.290	0.202
-565.588	7.364	0.273	-0.204
-564.573	521.109	-0.136	0.320
-563.558	75.696	0.279	0.294
-562.544	800.000	0.025	-0.095
-561.529	800.000	0.010	-0.040
-560.515	-31.255	0.319	-0.179
-559.500	17.267	-0.261	-0.207
-558.485	370.137	-0.080	-0.161
-557.471	-51.178	-0.280	-0.131
-556.456	-29.830	0.089	-0.051
-555.442	335.291	-0.194	0.375
-554.427	-105.553	-0.318	0.072
-553.412	-91.882	-0.042	0.012
-552.398	206.046	-0.313	-0.486
-551.383	-53.334	-0.296	-0.136
-550.369	-123.188	-0.105	0.017
-549.354	-2.006	0.017	-0.012
-548.339	-91.512	0.226	0.064
-547.325	389.818	-0.199	-0.412
-546.310	-115.300	-0.068	-0.013
-545.296	142.176	0.126	0.166
-544.281	-141.791	0.220	0.022
-543.266	95.815	0.023	-0.026
-542.252	88.359	0.077	0.086
-541.237	67.789	0.134	-0.137
-540.223	-22.480	0.045	-0.027
-539.208	-70.814	0.323	-0.122
-538.193	-169.197	-0.379	0.014
-537.179	3.163	0.095	0.069
-536.164	171.490	-0.162	0.232
-535.150	-168.299	-0.021	-0.001
-534.135	14.770	-0.187	0.146
-533.121	141.666	0.097	-0.128
-532.106	800.000	-0.099	0.273
-531.091	7.678	-0.175	0.131
-530.077	-107.275	0.190	0.042
-529.062	-71.840	0.123	-0.046
-528.048	239.383	-0.161	-0.267
-527.033	262.689	-0.118	-0.205
-526.018	133.960	-0.214	0.276
-525.004	-126.365	0.247	0.037
-523.989	213.116	0.056	-0.089
-522.975	372.611	0.021	-0.043
-521.960	800.000	0.054	-0.190
-520.945	4.959	0.252	-0.185
-519.931	-200.000	0.019	0.250
-518.916	16.076	-0.259	-0.204
-517.902	126.623	-0.173	-0.219
-516.887	510.180	0.026	0.059
-515.872	-138.189	-0.230	-0.025
-514.858	-118.028	-0.146	0.026
-513.843	-139.503	0.211	0.022
-512.829	511.439	0.009	-0.021
-511.814	-9.983	-0.107	0.071
-510.799	322.560	0.099	0.189
-509.785	554.412	-0.128	0.307
-508.770	-200.000	0.021	0.153
-507.756	-200.000	-0.012	0.092
-506.741	-89.249	0.305	-0.090
-505.726	95.726	-0.048	-0.054
-504.712	-105.731	-0.373	-0.084
-503.697	-4.276	-0.145	0.100
-502.683	-172.875	0.352	0.011
-501.668	-39.636	-0.241	0.125
-500.653	-114.125	0.270	-0.052
-499.639	-200.000	0.157	-0.000
-498.624	-129.234	-0.194	-0.027
-497.610	800.000	0.011	-0.039
-496.595	-49.513	-0.213	-0.101
-495.581	-158.331	-0.194	-0.011
-494.566	-99.746	-0.380	-0.095
-493.551	-104.197	-0.314	0.073
-492.537	18.405	-0.316	0.251
-491.522	-93.823	0.028	0.008
-490.508	800.000	-0.099	-0.344
-489.493	542.954	-0.180	-0.428
-488.478	342.254	-0.105	0.205
-487.464	120.041	-0.105	-0.129
-486.449	38.238	0.205	0.182
-485.435	715.913	0.062	-0.163
-484.420	800.000	-0.072	0.242
-483.405	174.094	0.131	-0.189
-482.391	800.000	0.035	0.145
-481.376	-99.951	-0.190	-0.047
-480.362	569.135	-0.033	-0.080
-479.347	-200.000	-0.006	0.038
-478.332	-200.000	-0.087	0.397
-477.318	-55.054	0.176	0.079
-476.303	62.854	-0.114	0.114
-475.289	130.743	-0.190	0.243
-474.274	800.000	0.059	0.200
-473.259	800.000	-0.068	0.230
-472.245	177.269	-0.111	-0.160
-471.230	408.802	0.107	-0.225
-470.216	488.148	-0.097	-0.220
-469.201	-57.672	0.180	0.079
-468.186	126.926	-0.225	-0.284
-467.172	-200.000	-0.129	-0.583
-466.157	33.800	0.288	-0.249
-465.143	800.000	-0.034	-0.116
-464.128	-96.103	0.243	-0.064
-463.113	800.000	0.040	-0.113
-462.099	-125.560	0.172	-0.026
-461.084	1.759	0.074	-0.053
-460.070	800.000	-0.022	-0.074
-459.055	-200.000	0.017	-0.094
-458.040	-63.222	0.198	0.081
-457.026	-200.000	-0.024	-0.262
-456.011	-92.179	-0.250	0.070
-454.997	-200.000	-0.055	0.315
-453.982	-200.000	-0.009	0.128
-452.968	-200.000	0.024	0.136
-451.953	-122.156	0.142	-0.023
-450.938	-133.235	0.193	-0.024
-449.924	-200.000	-0.030	0.308
-448.909	-200.000	-0.002	-0.207
-447.895	-55.362	-0.102	0.045
-446.880	141.428	0.089	-0.117
-445.865	228.236	-0.262	-0.424
-444.851	-200.000	0.054	0.284
-443.836	116.355	0.163	0.199
-442.822	-124.648	-0.165	-0.025
-441.807	5.069	0.303	-0.222
-440.792	-35.391	-0.159	-0.086
-439.778	105.900	0.316	0.372
-438.763	-26.708	-0.252	0.146
-437.749	351.861	-0.147	0.289
-436.734	-47.002	0.093	0.045
-435.719	136.818	-0.027	0.036
-434.705	-200.000	0.001	0.438
-433.690	-61.086	-0.196	-0.082
-432.676	-200.000	-0.005	-0.138
-431.661	-200.000	0.034	-0.218
-430.646	67.275	0.219	0.222
-429.632	-41.407	0.302	-0.154
-428.617	34.976	-0.042	0.037
-427.603	800.000	0.073	-0.254
-426.588	-122.162	-0.138	0.022
-425.573	-200.000	-0.039	0.266
-424.559	800.000	0.138	-0.383
-423.544	82.918	0.145	0.156
-422.530	-155.769	0.137	-0.009
-421.515	800.000	-0.052	-0.152
-420.500	444.761	-0.080	-0.175
-419.486	-76.058	-0.301	0.106
-418.471	-152.482	0.292	0.021
-417.457	-63.572	0.160	-0.065
-416.442	-200.000	0.037	-0.329
-415.428	-134.848	-0.173	0.021
-414.413	132.908	0.110	-0.141
-413.398	-25.380	0.095	-0.056
-412.384	392.663	0.104	-0.216
-411.369	-200.000	0.003	-0.031
-410.355	519.302	0.051	-0.120
-409.340	59.130	0.307	0.300
-408.325	153.872	0.081	0.110
-407.311	165.722	0.049	0.068
-406.296	-96.353	0.276	0.072
-405.282	270.406	-0.101	0.176
-404.267	-54.757	0.040	0.018
-403.252	-200.000	-0.029	0.125
-402.238	-200.000	0.013	0.382
-401.223	-6.174	-0.197	-0.134
-400.209	180.488	-0.237	-0.345
-399.194	-61.445	-0.138	-0.058
-398.179	415.389	0.073	0.154
-397.165	35.417	-0.211	0.183
-396.150	-200.000	-0.042	-0.239
-395.136	55.833	-0.150	-0.144
-394.121	21.481	0.093	0.075
-393.106	161.361	0.170	0.236
-392.092	178.856	-0.030	-0.043
-391.077	-200.000	-0.027	0.146
-390.063	-132.147	-0.156	0.020
-389.048	102.834	-0.241	-0.280
-388.033	800.000	0.065	0.268
-387.019	-200.000	0.003	0.117
-386.004	289.957	-0.090	-0.162
-384.990	67.584	0.238	-0.241
-383.975	-126.839	-0.131	-0.019
-382.960	-122.661	-0.144	-0.023
-381.946	800.000	0.050	-0.173
-380.931	-200.000	0.004	0.352
-379.917	-103.020	-0.166	0.039
-378.902	56.130	0.062	-0.060
-377.888	48.844	-0.137	-0.127
-376.873	800.000	-0.049	0.155
-375.858	800.000	-0.087	-0.242
-374.844	-66.551	-0.273	-0.107
-373.829	90.916	0.175	-0.194
-372.815	-21.301	0.237	0.144
-371.800	2.701	0.140	-0.101
-370.785	-200.000	-0.072	-0.394
-369.771	-200.000	-0.020	0.129
-368.756	347.880	0.121	-0.236
-367.742	206.095	0.169	0.261
-366.727	800.000	0.103	0.305
-365.712	-13.912	0.123	0.079
-364.698	168.279	-0.091	-0.128
-363.683	-122.343	0.135	-0.022
-362.669	40.995	-0.239	-0.214
-361.654	800.000	0.019	-0.071
-360.639	286.047	-0.116	-0.207
-359.625	-200.000	0.051	0.230
-358.610	127.463	-0.077	0.097
-357.596	-131.391	0.276	-0.036
-356.581	242.118	0.152	-0.252
-355.566	-85.875	0.225	0.069
-354.552	-200.000	0.043	0.278
-353.537	148.482	-0.034	0.045
-352.523	800.000	0.086	-0.336
-351.508	-168.156	-0.165	-0.006
-350.493	106.380	0.076	0.090
-349.479	-200.000	-0.040	-0.217
-348.464	132.015	0.068	0.086
-347.450	-200.000	-0.015	0.185
-346.435	133.497	0.146	0.188
-345.420	-113.772	0.173	0.033
-344.406	168.239	-0.195	-0.275
-343.391	239.821	-0.112	-0.185
-342.377	-161.690	0.333	-0.017
-341.362	241.666	0.105	0.173
-340.348	800.000	-0.020	-0.068
-339.333	-200.000	0.063	-0.370
-338.318	-102.791	-0.287	0.068
-337.304	-134.683	0.155	-0.019
-336.289	-200.000	0.044	-0.346
-335.275	-64.859	-0.239	-0.096
-334.260	-200.000	0.028	0.179
-333.245	-93.967	0.075	0.020
-332.231	-200.000	-0.054	-0.263
-331.216	800.000	0.114	0.329
-330.202	800.000	-0.072	-0.225
-329.187	170.554	-0.190	0.270
-328.172	-136.320	0.196	-0.023
-327.158	800.000	0.016	-0.058
-326.143	800.000	-0.075	0.298
-325.129	-111.358	0.284	0.057
-324.114	105.965	-0.255	-0.299
-323.099	800.000	-0.129	0.367
-322.085	166.980	-0.157	0.221
-321.070	-18.562	0.287	0.177
-320.056	-56.615	0.449	-0.197
-319.041	-126.945	0.228	0.033
-318.026	312.603	0.063	0.117
-317.012	-200.000	0.009	0.091
-315.997	293.902	0.127	0.230
-314.983	104.360	0.104	0.121
-313.968	438.603	0.093	-0.201
-312.953	27.701	-0.204	0.170
-311.939	-200.000	-0.003	0.288
-310.924	-48.842	0.187	0.089
-309.910	-102.476	-0.146	0.035
-308.895	3.255	0.327	-0.236
-307.880	-200.000	-0.043	0.250
-306.866	-41.937	0.355	0.180
-305.851	800.000	0.012	-0.039
-304.837	-116.609	-0.093	-0.017
-303.822	800.000	-0.049	0.152
-302.807	-40.719	0.093	-0.048
-301.793	800.000	-0.076	0.302
-300.778	-76.906	0.149	-0.052
-299.764	-56.875	-0.146	-0.064
-298.749	-200.000	-0.016	-0.154
-297.735	76.518	-0.108	-0.113
-296.720	-8.842	-0.166	-0.110
-295.705	145.306	-0.207	0.274
-294.691	82.298	-0.078	-0.084
-293.676	-132.843	-0.076	-0.010
-292.662	483.484	0.074	0.166
-291.647	-200.000	0.018	-0.211
-290.632	213.710	-0.070	0.109
-289.618	108.790	0.107	-0.126
-288.603	800.000	0.068	0.254
-287.589	81.136	0.074	-0.079
-286.574	-74.973	0.039	0.014
-285.559	130.457	0.234	0.296
-284.545	217.917	-0.126	0.199
-283.530	-158.555	0.212	0.012
-282.516	800.000	0.051	-0.189
-281.501	-174.592	-0.213	-0.006
-280.486	-106.817	-0.132	0.029
-279.472	559.792	0.073	0.175
-278.457	800.000	0.016	0.064
-277.443	110.966	0.073	-0.087
-276.428	80.942	0.168	-0.179
-275.413	98.157	0.128	0.146
-274.399	-86.631	0.072	0.022
-273.384	-200.000	-0.001	-0.248
-272.370	95.805	0.177	-0.200
-271.355	-200.000	0.054	0.234
-270.340	35.223	0.190	0.164
-269.326	-116.943	-0.085	0.015
-268.311	-200.000	0.042	0.265
-267.297	-118.990	0.333	-0.058
-266.282	-42.253	0.466	0.235
-265.267	-116.171	0.106	-0.020
-264.253	143.373	-0.044	0.058
-263.238	456.271	0.040	0.088
-262.224	-54.193	-0.298	0.134
-261.209	133.640	-0.192	0.245
-260.195	800.000	-0.010	-0.036
-259.180	141.236	-0.238	0.312
-258.165	702.968	-0.098	-0.256
-257.151	-69.358	-0.236	-0.090
-256.136	-200.000	0.073	-0.353
-255.122	-91.349	-0.427	0.121
-254.107	26.510	0.074	0.062
-253.092	-101.892	0.352	-0.084
-252.078	-200.000	0.048	-0.213
-251.063	-200.000	-0.082	0.541
-250.049	-186.833	0.348	0.005
-249.034	214.506	0.213	0.332
-248.019	-200.000	0.049	0.231
-247.005	-64.824	0.186	-0.074
-245.990	42.480	-0.247	0.222
-244.976	-200.000	0.013	-0.083
-243.961	-200.000	0.001	0.177
-242.946	31.570	-0.076	-0.065
-241.932	189.774	-0.131	-0.193
-240.917	-75.003	-0.210	-0.074
-239.903	-122.469	0.364	0.058
-238.888	-58.859	0.240	0.102
-237.873	584.781	-0.010	-0.025
-236.859	56.582	-0.099	-0.095
-235.844	-106.067	-0.375	-0.083
-234.830	-56.016	0.112	0.049
-233.815	323.907	-0.118	0.223
-232.800	16.534	-0.140	0.109
-231.786	-167.997	-0.126	-0.005
-230.771	104.800	0.074	-0.087
-229.757	-79.837	-0.367	0.122
-228.742	-42.142	-0.063	-0.032
-227.727	-200.000	-0.031	-0.218
-226.713	800.000	-0.027	-0.112
-225.698	-51.945	-0.388	-0.178
-224.684	800.000	0.027	0.094
-223.669	-62.146	-0.219	-0.090
-222.655	-73.427	0.029	0.010
-221.640	-45.168	-0.254	-0.124
-220.625	413.758	-0.021	0.045
-219.611	-35.556	-0.186	0.100
-218.596	-200.000	-0.053	-0.274
-217.582	-196.528	0.386	0.003
-216.567	-129.483	-0.475	0.065
-215.552	-24.144	0.293	-0.173
-214.538	129.626	0.168	0.211
-213.523	97.755	-0.138	-0.157
-212.509	202.767	-0.041	-0.062
-211.494	-200.000	-0.014	-0.284
-210.479	800.000	-0.041	-0.161
-209.465	800.000	0.111	0.313
-208.450	166.736	-0.026	-0.036
-207.436	-135.429	-0.113	0.013
-206.421	624.093	0.186	-0.463
-205.406	173.231	-0.179	0.254
-204.392	-103.372	0.066	0.015
-203.377	-200.000	0.062	0.316
-202.363	330.862	-0.047	0.089
-201.348	481.122	-0.176	-0.394
-200.333	800.000	0.116	0.366
-199.319	-113.076	-0.150	-0.029
-198.304	-86.259	0.252	0.076
-197.290	99.558	0.075	0.085
-196.275	-187.949	0.146	0.002
-195.260	500.416	0.057	-0.130
-194.246	-65.410	-0.245	-0.097
-193.231	-110.592	0.252	-0.051
-192.217	-31.766	0.142	0.078
-191.202	85.024	0.138	-0.149
-190.187	121.140	0.189	-0.232
-189.173	369.771	0.224	-0.447
-188.158	163.125	-0.114	-0.158
-187.144	-6.053	0.235	-0.158
-186.129	96.407	0.045	0.051
-185.114	-77.306	-0.118	0.040
-184.100	-200.000	-0.003	-0.174
-183.085	800.000	0.096	-0.294
-182.071	102.549	0.052	-0.059
-181.056	-200.000	0.100	0.434
-180.042	382.957	-0.145	0.293
-179.027	-46.061	0.355	-0.172
-178.012	-200.000	0.024	-0.204
-176.998	6.865	0.221	0.162
-175.983	-200.000	-0.008	0.279
-174.969	129.285	0.113	-0.142
-173.954	-200.000	0.047	-0.345
-172.939	27.142	0.204	0.169
-171.925	-0.754	-0.108	0.075
-170.910	800.000	0.051	0.158
-169.896	-200.000	0.001	-0.112
-168.881	-6.082	0.158	-0.106
-167.866	19.466	0.149	0.118
-166.852	789.689	-0.024	-0.064
-165.837	-65.805	0.244	-0.096
-164.823	800.000	-0.008	0.028
-163.808	-117.865	-0.090	0.016
-162.793	-140.848	0.119	0.012
-161.779	800.000	-0.016	0.053
-160.764	-113.794	-0.307	-0.059
-159.750	620.180	-0.063	0.157
-158.735	-200.000	0.065	-0.406
-157.720	-126.472	0.158	-0.023
-156.706	-200.000	-0.019	0.518
-155.691	-200.000	-0.059	0.402
-154.677	283.843	0.162	0.286
-153.662	370.782	0.149	-0.298
-152.647	47.694	0.231	0.212
-151.633	11.900	0.162	0.123
-150.618	-68.429	0.097	0.037
-149.604	211.646	-0.049	0.075
-148.589	149.208	-0.044	0.058
-147.574	800.000	-0.085	0.361
-146.560	-128.107	0.271	-0.038
-145.545	-136.075	-0.369	-0.043
-144.531	-200.000	0.044	-0.214
-143.516	-200.000	0.036	0.198
-142.502	153.437	-0.073	0.099
-141.487	211.606	0.084	0.130
-140.472	-98.804	0.282	0.071
-139.458	-173.701	-0.205	0.006
-138.443	-188.008	-0.285	0.004
-137.429	31.500	-0.172	0.145
-136.414	800.000	0.072	0.268
-135.399	16.901	0.213	0.166
-134.385	-69.138	0.043	-0.016
-133.370	800.000	-0.057	-0.243
-132.356	-93.234	0.247	-0.067
-131.341	145.845	-0.081	-0.107
-130.326	430.134	0.062	-0.131
-129.312	800.000	-0.007	0.023
-128.297	116.156	0.014	0.017
-127.283	-162.594	0.207	0.010
-126.268	-200.000	-0.051	0.241
-125.253	487.188	-0.095	0.213
-124.239	16.792	0.104	0.081
-123.224	800.000	0.049	0.160
-122.210	7.711	0.328	0.241
-121.195	-61.722	-0.568	0.234
-120.180	-200.000	-0.029	0.242
-119.166	-200.000	0.018	0.166
-118.151	-144.158	0.112	0.010
-117.137	-16.827	0.041	-0.026
-116.122	-62.830	-0.400	0.163
-115.107	351.617	-0.120	-0.233
-114.093	-200.000	-0.098	0.438
-113.078	-49.642	0.081	0.038
-112.064	78.007	-0.203	-0.213
-111.049	-29.257	0.279	0.157
-110.034	-31.181	-0.059	0.033
-109.020	-83.829	0.129	-0.040
-108.005	-116.523	0.213	0.038
-106.991	-63.904	-0.184	0.074
-105.976	128.358	0.093	-0.117
-104.962	3.363	0.055	-0.040
-103.947	-22.366	0.177	0.105
-102.932	-100.379	-0.195	0.047
-101.918	-87.880	0.226	-0.067
-100.903	-200.000	-0.017	0.124
-99.889	95.840	-0.305	0.342
-98.874	-76.144	-0.047	0.016
-97.859	555.807	0.117	0.277
-96.845	-191.367	-0.141	-0.001
-95.830	-200.000	-0.014	0.103
-94.816	-123.883	-0.170	0.026
-93.801	57.764	-0.287	0.276
-92.786	-40.395	-0.262	0.134
-91.772	-22.338	0.408	-0.242
-90.757	143.632	0.048	-0.063
-89.743	800.000	0.100	-0.296
-88.728	800.000	0.078	0.226
-87.713	320.322	0.152	0.284
-86.699	153.101	-0.123	0.165
-85.684	-170.017	0.048	0.002
-84.670	800.000	0.055	0.153
-83.655	194.880	0.113	-0.169
-82.640	99.724	0.054	0.062
-81.626	314.406	0.057	0.105
-80.611	108.497	0.038	-0.044
-79.597	-111.525	0.258	0.051
-78.582	-50.319	0.176	0.082
-77.567	-150.263	0.115	-0.009
-76.553	-92.545	-0.092	-0.025
-75.538	-87.761	0.192	0.057
-74.524	793.353	-0.053	-0.142
-73.509	-143.115	0.206	0.019
-72.494	-68.316	-0.365	0.139
-71.480	-46.460	0.486	0.234
-70.465	-200.000	-0.042	0.203
-69.451	195.258	0.150	0.223
-68.436	52.481	0.068	-0.063
-67.422	-35.813	-0.321	-0.170
-66.407	-87.350	-0.194	-0.058
-65.392	-200.000	0.013	-0.123
-64.378	-100.232	-0.317	0.077
-63.363	-46.891	-0.322	-0.154
-62.349	442.945	0.061	0.132
-61.334	87.580	-0.765	-0.829
-60.319	159.252	0.509	0.694
-59.305	800.000	-0.428	-1.180
-58.290	351.303	0.648	1.257
-57.276	800.000	0.609	1.679
-56.261	-200.000	114.019	642.778
-55.246	462.875	1511.891	3306.976
-54.232	146.354	2679.018	3523.305
-53.217	103.529	2157.117	2479.856
-52.203	38.859	1603.960	1403.288
-51.188	30.596	1350.240	1131.248
-50.173	27.719	1312.560	1082.590
-49.159	55.767	1367.840	1298.499
-48.144	54.140	1382.697	1302.744
-47.130	31.046	1338.215	1123.705
-46.115	27.612	1320.019	1087.932
-45.100	27.302	1315.584	1082.385
-44.086	27.372	1312.472	1080.197
-43.071	27.195	1310.767	1077.702
-42.057	27.193	1308.942	1076.148
-41.042	27.240	1307.259	1075.001
-40.027	27.304	1304.859	1073.359
-39.013	27.269	1303.519	1072.008
-37.998	27.392	1300.995	1070.615
-36.984	27.364	1299.808	1069.430
-35.969	27.365	1297.875	1067.804
-34.954	27.405	1296.187	1066.605
-33.940	27.475	1294.967	1065.969
-32.925	27.494	1293.735	1065.025
-31.911	27.516	1291.931	1063.628
-30.896	27.480	1290.883	1062.510
-29.881	27.549	1289.398	1061.648
-28.867	27.644	1287.478	1060.579
-27.852	27.668	1286.189	1059.614
-26.838	27.584	1285.022	1058.123
-25.823	27.538	1283.948	1056.933
-24.809	27.496	1282.450	1055.414
-23.794	27.578	1280.927	1054.592
-22.779	27.540	1279.615	1053.250
-21.765	27.536	1278.502	1052.268
-20.750	27.606	1276.865	1051.283
-19.736	27.429	1276.164	1049.646
-18.721	27.366	1274.874	1048.179
-17.706	27.419	1273.453	1047.274
-16.692	27.450	1272.365	1046.515
-15.677	27.504	1271.075	1045.721
-14.663	27.369	1270.388	1044.343
-13.648	27.338	1269.394	1043.304
-12.633	27.361	1267.960	1042.215
-11.619	27.346	1267.425	1041.649
-10.604	27.415	1266.312	1041.086
-9.590	27.273	1265.611	1039.662
-8.575	27.322	1264.280	1038.806
-7.560	27.305	1263.614	1038.116
-6.546	27.377	1262.945	1037.940
-5.531	27.321	1261.927	1036.740
-4.517	27.426	1260.669	1036.266
-3.502	27.324	1260.617	1035.599
-2.487	27.328	1259.464	1034.635
-1.473	27.411	1254.722	1031.166
-0.458	25.735	1240.230	1009.823
0.556	21.065	1223.697	973.304
1.571	17.521	1229.891	958.238
2.586	16.682	1245.306	965.380
3.600	16.815	1234.156	957.398
4.615	15.522	1168.239	899.268
5.629	12.930	1101.473	834.693
6.644	11.438	1085.249	814.883
7.659	11.339	1083.270	812.834
8.673	11.344	1081.622	811.551
9.688	11.219	1080.566	810.061
10.702	11.466	1078.494	809.661
11.717	13.029	1079.862	818.372
12.731	15.867	1083.188	834.917
13.746	17.666	1085.259	845.369
14.761	17.755	1084.828	845.403
15.775	16.716	1082.585	838.436
16.790	15.657	1080.832	831.767
17.804	14.900	1079.030	826.564
18.819	14.485	1077.993	823.647
19.834	14.245	1076.797	821.479
20.848	14.060	1075.910	819.815
21.863	13.812	1074.943	817.783
22.877	13.751	1074.017	816.707
23.892	13.585	1074.018	815.817
24.907	13.624	1072.574	814.843
25.921	13.651	1071.606	814.165
26.936	13.647	1070.304	813.084
27.950	13.684	1068.800	812.054
28.965	13.773	1067.631	811.526
29.980	13.835	1066.018	810.534
30.994	13.745	1065.298	809.476
32.009	13.911	1063.873	809.128
33.023	13.878	1062.933	808.183
34.038	13.811	1061.626	806.791
35.053	13.672	1061.118	805.661
36.067	13.763	1059.986	805.168
37.082	13.847	1059.066	804.808
38.096	13.825	1059.072	804.636
39.111	13.840	1057.986	803.812
40.126	13.739	1056.681	802.258
41.140	13.548	1055.719	800.536
42.155	13.512	1054.303	799.215
43.169	13.596	1053.198	798.713
44.184	13.534	1052.194	797.581
45.199	13.528	1051.132	796.678
46.213	13.631	1049.851	796.130
47.228	13.741	1048.946	795.900
48.242	13.815	1047.895	795.389
49.257	13.745	1046.964	794.279
50.271	13.842	1046.030	793.963
51.286	13.763	1045.425	793.057
52.301	13.753	1044.071	791.912
53.315	13.819	1042.744	791.149
54.330	13.723	1042.140	790.164
55.344	13.658	1041.430	789.245
56.359	13.560	1040.906	788.310
57.374	13.728	1039.481	787.961
58.388	13.657	1038.505	786.814
59.403	13.513	1038.088	785.747
60.417	13.531	1037.162	785.059
61.432	13.551	1036.117	784.294
62.447	13.493	1035.631	783.583
63.461	13.455	1034.724	782.650
64.476	13.399	1033.806	781.618
65.490	13.512	1032.540	781.124
66.505	13.420	1032.229	780.390
67.520	13.598	1031.494	780.603
68.534	13.583	1030.914	780.022
69.549	13.436	1029.923	778.515
70.563	13.462	1029.627	778.344
71.578	13.464	1028.519	777.447
72.593	13.397	1027.575	776.349
73.607	13.468	1027.161	776.301
74.622	13.402	1026.633	775.525
75.636	13.517	1025.609	775.220
76.651	13.360	1025.021	773.970
77.666	13.417	1024.369	773.676
78.680	13.402	1023.672	773.014
79.695	13.393	1023.416	772.707
80.709	13.539	1022.509	772.637
81.724	13.498	1021.559	771.661
82.739	13.661	1021.024	771.946
83.753	13.744	1020.449	771.831
84.768	13.734	1019.299	770.844
85.782	13.893	1018.251	770.724
86.797	13.811	1017.296	769.554
87.812	13.675	1016.986	768.621
88.826	13.703	1015.707	767.715
89.841	13.728	1014.964	767.200
90.855	13.755	1013.932	766.475
91.870	13.805	1013.015	765.948
92.884	13.858	1012.142	765.462
93.899	13.908	1011.085	764.827
94.914	13.890	1010.600	764.308
95.928	13.867	1009.954	763.645
96.943	13.717	1009.186	762.310
97.957	13.824	1008.026	761.858
98.972	13.917	1006.541	761.093
99.987	13.836	1006.300	760.472
101.001	13.773	1005.399	759.437
102.016	13.847	1004.620	759.120
103.030	13.772	1003.587	757.927
104.045	13.833	1002.822	757.561
105.060	13.654	1001.879	755.967
106.074	13.616	1001.125	755.155
107.089	13.695	999.839	754.479
108.103	13.614	998.777	753.242
109.118	13.588	997.794	752.319
110.133	13.543	996.938	751.399
111.147	13.630	996.119	751.112
112.162	13.631	995.320	750.450
113.176	13.674	994.864	750.230
114.191	13.713	993.956	749.655
115.206	13.785	992.765	749.018
116.220	13.668	992.257	748.042
117.235	13.725	991.148	747.397
118.249	13.687	990.525	746.688
119.264	13.645	989.731	745.833
120.279	13.672	988.783	745.177
121.293	13.587	988.003	744.141
122.308	13.676	986.584	743.402
123.322	13.600	985.452	742.146
124.337	13.669	984.853	741.937
125.352	13.696	983.300	740.824
126.366	13.553	983.075	739.950
127.381	13.670	981.502	739.220
128.395	13.513	980.488	737.693
129.410	13.699	979.660	737.830
130.424	13.765	979.004	737.567
131.439	13.753	978.155	736.807
132.454	13.905	977.563	736.970
133.468	13.795	977.182	736.130
134.483	13.676	976.037	734.677
135.497	13.765	975.131	734.325
136.512	13.797	974.260	733.744
137.527	13.807	973.569	733.202
138.541	13.752	972.812	732.326
139.556	13.860	972.126	732.219
140.570	13.900	971.492	731.856
141.585	13.881	970.444	730.914
142.600	13.971	969.380	730.447
143.614	13.970	968.964	730.062
144.629	14.041	968.277	729.791
145.643	14.004	967.285	728.817
146.658	13.792	966.366	727.134
147.673	13.777	965.371	726.255
148.687	13.900	964.206	725.852
149.702	13.728	963.587	724.570
150.716	13.828	962.913	724.435
151.731	13.968	961.991	724.287
152.746	13.831	961.498	723.254
153.760	13.790	961.078	722.695
154.775	13.920	960.252	722.577
155.789	13.854	959.864	721.934
156.804	14.043	958.421	721.606
157.819	14.041	958.022	721.235
158.833	14.085	957.282	720.805
159.848	14.215	956.063	720.385
160.862	14.050	955.433	719.130
161.877	14.039	954.466	718.291
162.892	13.873	953.648	716.895
163.906	13.996	952.633	716.600
164.921	14.045	951.860	716.168
165.935	13.956	951.125	715.166
166.950	14.186	949.995	715.241
167.964	14.026	949.194	713.889
168.979	13.987	948.367	713.036
169.994	13.904	947.826	712.211
171.008	13.925	946.906	711.547
172.023	14.151	946.175	711.902
173.037	14.258	944.868	711.315
174.052	14.168	944.864	710.861
175.067	14.233	943.453	710.014
176.081	14.012	943.477	709.027
177.096	14.049	943.113	708.851
178.110	14.077	942.431	708.395
179.125	14.196	941.419	708.076
180.140	14.214	940.858	707.667
181.154	14.192	940.354	707.135
182.169	14.201	939.997	706.842
183.183	14.383	939.063	706.847
184.198	14.240	938.617	705.844
185.213	14.271	937.805	705.302
186.227	14.342	937.348	705.195
187.242	14.292	936.915	704.596
188.256	14.444	935.981	704.475
189.271	14.424	935.157	703.708
190.286	14.279	934.302	702.392
191.300	14.122	933.676	701.197
192.315	14.191	933.290	701.133
193.329	14.003	933.146	700.173
194.344	14.204	931.759	699.915
195.359	14.222	931.330	699.604
196.373	14.274	931.156	699.632
197.388	14.310	930.424	699.172
198.402	14.429	930.112	699.374
199.417	14.446	929.212	698.705
200.432	14.540	928.742	698.687
201.446	14.636	928.378	698.753
202.461	14.598	927.912	698.181
203.475	14.555	927.019	697.265
204.490	14.478	926.367	696.393
205.504	14.494	925.652	695.862
206.519	14.446	924.813	694.970
207.534	14.458	924.500	694.721
208.548	14.537	923.432	694.185
209.563	14.602	922.604	693.771
210.577	14.758	921.625	693.621
211.592	14.636	921.204	692.738
212.607	14.624	920.587	692.162
213.621	14.737	919.623	691.845
214.636	14.708	919.235	691.370
215.650	14.866	918.154	691.152
216.665	14.747	917.755	690.300
217.680	14.813	917.000	689.941
218.694	14.793	916.379	689.330
219.709	14.861	915.920	689.205
220.723	14.771	915.214	688.242
221.738	14.710	914.558	687.435
222.753	14.766	913.754	687.000
223.767	14.883	913.247	687.043
224.782	14.857	912.824	686.556
225.796	14.852	912.192	685.998
226.811	14.835	911.558	685.393
227.826	14.888	910.593	684.823
228.840	14.964	909.937	684.580
229.855	14.881	908.703	683.252
230.869	14.947	908.298	683.158
231.884	14.878	907.541	682.245
232.899	14.811	906.821	681.370
233.913	14.840	906.049	680.848
234.928	14.874	905.451	680.475
235.942	14.761	905.227	679.789
236.957	14.794	905.143	679.797
237.972	14.815	903.943	678.923
238.986	14.817	903.510	678.544
240.001	14.949	902.581	678.324
241.015	14.904	902.218	677.808
242.030	14.898	901.616	677.273
243.045	14.887	901.083	676.768
244.059	14.901	900.687	676.465
245.074	15.003	899.825	676.172
246.088	15.054	898.809	675.552
247.103	15.146	898.295	675.478
248.117	15.340	897.792	675.824
249.132	15.350	897.350	675.469
250.147	15.305	896.729	674.761
251.161	15.364	896.169	674.518
252.176	15.405	895.281	673.954
253.190	15.324	894.806	673.212
254.205	15.380	894.286	672.985
255.220	15.542	893.242	672.791
256.234	15.377	892.752	671.702
257.249	15.391	892.256	671.324
258.263	15.370	891.595	670.682
259.278	15.526	890.402	670.348
260.293	15.566	889.989	670.137
261.307	15.641	889.498	670.008
262.322	15.620	889.375	669.772
263.336	15.574	888.162	668.616
264.351	15.681	887.201	668.260
265.366	15.570	887.260	667.805
266.380	15.618	886.427	667.310
267.395	15.654	885.569	666.744
268.409	15.670	884.312	665.805
269.424	15.606	883.979	665.242
270.439	15.572	883.073	664.366
271.453	15.681	882.395	664.229
272.468	15.583	882.043	663.517
273.482	15.612	881.588	663.229
274.497	15.669	880.849	662.840
275.512	15.722	880.178	662.485
276.526	15.651	879.812	661.872
277.541	15.701	879.560	661.822
278.555	15.565	879.472	661.159
279.570	15.860	877.881	661.066
280.585	15.666	877.463	659.931
281.599	15.922	876.138	659.879
282.614	15.767	875.887	659.023
283.628	15.813	875.167	658.605
284.643	15.881	874.563	658.356
285.657	15.809	874.133	657.693
286.672	15.873	873.480	657.393
287.687	15.905	872.615	656.809
288.701	15.833	872.538	656.413
289.716	15.880	871.563	655.806
290.730	15.863	871.116	655.343
291.745	15.956	870.556	655.226
292.760	15.959	869.771	654.588
293.774	16.106	869.322	654.763
294.789	16.134	868.313	654.055
295.803	16.031	867.905	653.291
296.818	16.057	866.949	652.615
297.833	15.904	866.870	651.903
298.847	16.072	865.847	651.727
299.862	16.021	865.388	651.128
300.876	16.108	864.875	651.021
301.891	16.107	863.973	650.280
302.906	16.240	863.613	650.461
303.920	16.243	863.480	650.315
304.935	16.243	862.495	649.519
305.949	16.271	861.989	649.185
306.964	16.246	861.507	648.669
307.979	16.197	861.286	648.257
308.993	16.302	860.463	647.984
310.008	16.258	859.850	647.295
311.022	16.223	858.941	646.420
312.037	16.232	858.165	645.815
313.052	16.194	857.854	645.378
314.066	16.224	857.327	645.037
315.081	16.270	856.693	644.680
316.095	16.203	856.240	644.028
317.110	16.236	855.609	643.620
318.125	16.152	855.363	643.060
319.139	16.175	855.009	642.822
320.154	16.154	854.155	642.043
321.168	16.342	853.623	642.303
322.183	16.258	852.935	641.410
323.197	16.226	852.791	641.121
324.212	16.364	852.042	641.027
325.227	16.317	851.352	640.271
326.241	16.335	851.153	640.135
327.256	16.366	850.501	639.706
328.270	16.424	849.778	639.322
329.285	16.371	849.064	638.531
330.300	16.293	848.849	638.016
331.314	16.333	848.447	637.810
332.329	16.435	847.885	637.716
333.343	16.411	847.545	637.313
334.358	16.472	847.178	637.210
335.373	16.542	846.414	636.843
336.387	16.468	845.980	636.180
337.402	16.558	845.951	636.443
338.416	16.635	845.543	636.368
339.431	16.584	845.224	635.879
340.446	16.677	844.824	635.871
341.460	16.682	843.972	635.195
342.475	16.702	843.935	635.183
343.489	16.812	843.172	634.964
344.504	16.909	842.560	634.813
345.519	16.912	842.437	634.674
346.533	16.689	842.132	633.554
347.548	16.699	840.880	632.592
348.562	16.758	840.458	632.440
349.577	16.684	840.039	631.791
350.592	16.684	839.571	631.387
351.606	16.765	838.548	630.860
352.621	16.725	838.176	630.377
353.635	16.923	837.093	630.242
354.650	16.842	836.632	629.539
355.665	16.880	836.115	629.234
356.679	16.908	835.638	628.926
357.694	16.940	834.945	628.465
358.708	17.100	833.797	628.140
359.723	17.017	833.543	627.586
360.738	16.984	833.055	627.038
361.752	16.976	832.688	626.677
362.767	16.913	832.264	626.069
363.781	17.240	831.299	626.495
364.796	17.155	831.159	626.020
365.810	17.159	830.940	625.815
366.825	17.137	830.657	625.464
367.840	17.099	829.920	624.717
368.854	17.113	829.390	624.314
369.869	17.182	828.802	624.067
370.883	17.046	828.829	623.535
371.898	17.317	828.364	624.126
372.913	17.300	827.451	623.319
373.927	17.201	826.970	622.537
374.942	17.203	826.570	622.190
375.956	17.317	826.309	622.357
376.971	17.472	825.673	622.389
377.986	17.365	825.424	621.755
379.000	17.492	824.577	621.525
380.015	17.209	824.674	620.509
381.029	17.285	823.768	620.049
382.044	17.596	822.968	620.525
383.059	17.477	822.656	619.802
384.073	17.392	822.331	619.194
385.088	17.261	821.476	618.020
386.102	17.340	820.554	617.557
387.117	17.360	820.156	617.276
388.132	17.359	819.727	616.894
389.146	17.249	819.726	616.438
390.161	17.428	818.722	616.277
391.175	17.571	818.311	616.432
392.190	17.456	817.769	615.553
393.205	17.493	817.343	615.314
394.219	17.470	817.095	614.988
395.234	17.485	816.416	614.477
396.248	17.427	816.123	613.992
397.263	17.427	815.602	613.547
398.278	17.364	815.529	613.209
399.292	17.489	815.024	613.228
400.307	17.496	814.464	612.778
401.321	17.454	813.800	612.070
402.336	17.468	813.610	611.923
403.350	17.429	813.339	611.528
404.365	17.643	812.398	611.533
405.380	17.725	812.011	611.480
406.394	17.807	811.476	611.319
407.409	17.688	810.942	610.434
408.423	17.931	810.500	610.917
409.438	17.917	810.461	610.785
410.453	17.715	809.831	609.534
411.467	18.035	809.030	610.021
412.482	17.938	808.839	609.476
413.496	17.910	808.832	609.319
414.511	18.049	808.287	609.348
415.526	17.903	807.998	608.556
416.540	17.878	807.340	607.918
417.555	18.021	806.493	607.733
418.569	17.955	806.564	607.499
419.584	17.852	806.406	606.961
420.599	17.931	805.799	606.730
421.613	111.474	1294.748	1475.625
422.628	96.192	1365.943	1475.711
