DTS Sentinel unit serial number:	SN413079Multiplexer serial number:	ORYXHardware model number:	OX4-SRSoftware version number:	ORYX F/W v4.00 Oryx Data Collector v3.7.2.0data status	okinstallation	princeton_trtdifferential loss correction	single-endedforward channel	channel 1reverse channel	N/Adate	2019/09/16time	16:42:35forward acquisition time	60.00reverse acquisition time	0.00gamma	496.2192k internal	0.2296k external	0.2296temperature offset calibration	0.9962default loss term (dB/km)	0.3790temperature slope calibration	1.0000multiplexer offset coefficient	1.0000multiplexer slope coefficient	1.0000fibre end	0.00T internal ref (°C)	39.81T ext. ref 1 (°C)	15.16T ext. ref 2 (°C)	33.84length (m)	temperature (°C)	Stokes	anti-Stokes-747.200	401.108	0.043	0.092
-746.185	72.642	0.142	0.151
-745.171	-24.519	-0.192	0.117
-744.156	53.582	-0.197	0.193
-743.142	-126.825	0.231	0.035
-742.127	-42.246	-0.295	-0.154
-741.112	800.000	-0.001	-0.004
-740.098	-200.000	-0.055	0.368
-739.083	238.343	-0.200	0.339
-738.069	107.127	0.217	0.264
-737.054	-200.000	0.012	0.060
-736.039	21.374	0.208	0.173
-735.025	-200.000	0.036	0.190
-734.010	271.960	-0.127	-0.229
-732.996	-101.487	-0.168	0.042
-731.981	205.101	-0.154	0.244
-730.966	-200.000	0.085	-0.413
-729.952	800.000	0.057	-0.243
-728.937	-34.237	0.143	-0.080
-727.923	88.979	-0.125	-0.142
-726.908	-120.992	0.339	-0.058
-725.894	35.445	0.070	0.062
-724.879	-99.218	-0.237	-0.061
-723.864	-87.690	0.267	0.082
-722.850	49.981	-0.224	-0.215
-721.835	375.670	-0.012	-0.025
-720.821	31.358	-0.121	-0.106
-719.806	800.000	-0.060	-0.216
-718.791	208.415	0.090	-0.143
-717.777	-200.000	-0.008	0.041
-716.762	-200.000	-0.010	-0.151
-715.748	-200.000	-0.001	-0.065
-714.733	-7.893	0.319	-0.220
-713.718	800.000	0.014	0.063
-712.704	137.039	-0.191	0.255
-711.689	-28.582	-0.196	0.115
-710.675	246.953	-0.188	-0.323
-709.660	-76.741	-0.248	0.089
-708.645	-200.000	0.047	0.303
-707.631	-200.000	-0.043	-0.251
-706.616	-200.000	0.004	-0.049
-705.602	-44.339	-0.010	0.005
-704.587	31.352	-0.118	-0.103
-703.572	-200.000	0.038	0.256
-702.558	187.849	-0.135	0.206
-701.543	-144.158	0.274	-0.026
-700.529	-200.000	0.041	0.205
-699.514	14.331	0.218	-0.173
-698.499	-31.891	-0.158	-0.090
-697.485	-200.000	-0.047	0.246
-696.470	312.132	0.011	0.020
-695.456	-50.547	-0.283	0.136
-694.441	71.689	-0.093	-0.099
-693.426	-139.071	-0.108	0.012
-692.412	376.655	0.066	-0.137
-691.397	-132.590	-0.327	0.043
-690.383	772.275	-0.104	-0.289
-689.368	-47.245	-0.264	-0.131
-688.354	74.947	-0.103	0.110
-687.339	-105.229	-0.128	0.030
-686.324	-200.000	-0.028	-0.367
-685.310	201.741	-0.166	0.261
-684.295	-200.000	-0.061	-0.297
-683.281	-76.834	0.290	0.104
-682.266	55.661	-0.260	0.257
-681.251	309.482	-0.073	-0.139
-680.237	-67.064	-0.174	0.070
-679.222	-200.000	-0.023	0.161
-678.208	75.950	0.043	0.046
-677.193	-100.284	-0.254	-0.064
-676.178	-200.000	0.018	0.086
-675.164	-200.000	-0.034	-0.272
-674.149	-200.000	-0.018	-0.181
-673.135	-27.135	-0.318	-0.189
-672.120	-131.584	0.369	-0.049
-671.105	-84.026	-0.259	-0.084
-670.091	83.334	-0.319	-0.354
-669.076	-200.000	0.008	-0.055
-668.062	-200.000	0.009	-0.054
-667.047	-176.653	-0.386	-0.010
-666.032	300.607	0.158	0.297
-665.018	-141.181	-0.411	-0.043
-664.003	86.621	-0.216	0.243
-662.989	-56.335	-0.137	-0.062
-661.974	-200.000	-0.048	-0.261
-660.959	0.021	-0.280	-0.204
-659.945	114.673	-0.298	-0.370
-658.930	227.613	-0.089	-0.147
-657.916	-36.571	0.295	0.162
-656.901	-200.000	-0.022	0.172
-655.886	-149.124	0.277	-0.023
-654.872	233.162	-0.133	-0.223
-653.857	272.576	0.151	0.271
-652.843	11.008	0.459	-0.357
-651.828	34.316	-0.367	-0.326
-650.814	-110.009	-0.168	-0.036
-649.799	-109.765	-0.145	0.031
-648.784	-69.843	0.116	0.045
-647.770	-9.651	0.272	-0.184
-646.755	604.279	-0.113	0.286
-645.741	316.995	0.161	-0.310
-644.726	-200.000	0.063	-0.283
-643.711	-200.000	0.006	-0.091
-642.697	-62.384	0.088	0.037
-641.682	27.256	0.114	-0.097
-640.668	-87.691	-0.265	0.081
-639.653	414.068	0.017	-0.037
-638.638	197.153	0.087	-0.136
-637.624	800.000	-0.102	-0.331
-636.609	-200.000	-0.111	0.635
-635.595	800.000	0.127	0.478
-634.580	-200.000	0.016	-0.124
-633.565	-83.526	-0.334	0.109
-632.551	-68.730	-0.083	-0.033
-631.536	-200.000	0.010	-0.178
-630.522	-200.000	0.052	0.316
-629.507	69.879	0.175	-0.183
-628.492	320.028	0.054	-0.104
-627.478	-4.606	-0.271	0.190
-626.463	800.000	-0.028	0.104
-625.449	-76.347	0.078	-0.028
-624.434	50.974	-0.233	-0.224
-623.419	475.447	0.107	-0.246
-622.405	73.177	0.161	-0.171
-621.390	-58.737	-0.107	0.047
-620.376	-200.000	0.056	0.468
-619.361	39.244	0.043	-0.039
-618.346	-86.611	-0.127	-0.040
-617.332	800.000	0.025	0.079
-616.317	-113.628	0.170	-0.034
-615.303	-185.587	-0.277	0.004
-614.288	-140.516	0.359	-0.038
-613.273	800.000	-0.012	-0.045
-612.259	-41.242	-0.437	0.229
-611.244	55.658	-0.282	0.277
-610.230	158.634	0.073	-0.103
-609.215	-69.066	-0.159	0.062
-608.201	125.399	0.083	-0.106
-607.186	-200.000	0.016	-0.201
-606.171	-200.000	0.006	0.236
-605.157	219.289	0.142	0.232
-604.142	800.000	-0.039	0.166
-603.128	25.786	0.151	0.128
-602.113	-200.000	-0.040	0.413
-601.098	-69.821	0.226	0.088
-600.084	16.505	0.184	-0.148
-599.069	-200.000	-0.016	0.100
-598.055	-200.000	0.016	0.346
-597.040	-63.196	0.199	-0.083
-596.025	-21.893	-0.256	0.158
-595.011	-54.296	0.097	-0.045
-593.996	-200.000	0.008	-0.038
-592.982	35.230	-0.232	-0.207
-591.967	104.238	0.148	0.177
-590.952	800.000	-0.089	0.277
-589.938	-132.900	0.264	-0.034
-588.923	423.953	0.030	0.065
-587.909	800.000	-0.076	0.296
-586.894	-71.300	-0.359	0.137
-585.879	382.644	0.081	-0.169
-584.865	-200.000	-0.023	0.172
-583.850	-54.249	-0.263	-0.121
-582.836	-200.000	0.007	0.109
-581.821	800.000	0.023	-0.067
-580.806	-60.792	0.123	0.053
-579.792	-200.000	0.038	0.172
-578.777	5.881	-0.011	0.008
-577.763	151.623	0.033	-0.046
-576.748	-131.352	-0.571	-0.077
-575.733	112.189	0.214	-0.263
-574.719	-120.164	-0.171	-0.030
-573.704	-78.392	-0.076	0.027
-572.690	800.000	0.066	-0.238
-571.675	-200.000	-0.007	-0.144
-570.661	-52.308	0.214	0.100
-569.646	-200.000	-0.057	-0.266
-568.631	396.233	-0.125	0.264
-567.617	-147.287	0.030	0.003
-566.602	800.000	-0.092	-0.353
-565.588	304.754	0.041	0.076
-564.573	-37.080	0.305	-0.166
-563.558	70.921	0.085	0.090
-562.544	800.000	-0.035	0.154
-561.529	-106.052	0.258	-0.059
-560.515	553.025	-0.071	-0.174
-559.500	14.961	-0.020	0.016
-558.485	4.352	0.087	0.065
-557.471	-142.578	-0.310	-0.031
-556.456	465.299	0.151	-0.343
-555.442	-66.939	-0.334	0.134
-554.427	800.000	0.057	0.181
-553.412	-182.897	-0.055	-0.001
-552.398	478.473	0.062	-0.143
-551.383	37.494	-0.221	0.199
-550.369	-75.426	-0.168	0.061
-549.354	-200.000	0.027	-0.124
-548.339	200.875	0.123	-0.192
-547.325	800.000	-0.074	-0.255
-546.310	-200.000	0.015	0.157
-545.296	-114.063	0.131	-0.026
-544.281	-200.000	0.009	-0.352
-543.266	-200.000	0.009	0.068
-542.252	95.066	0.055	0.064
-541.237	-128.053	0.325	0.047
-540.223	-200.000	-0.004	-0.297
-539.208	145.050	0.057	0.077
-538.193	140.746	0.175	-0.235
-537.179	-109.371	0.207	-0.044
-536.164	-121.470	-0.291	0.049
-535.150	-35.426	-0.055	0.030
-534.135	-200.000	-0.019	-0.221
-533.121	-133.486	-0.136	0.017
-532.106	159.433	-0.163	-0.230
-531.091	239.301	-0.098	0.166
-530.077	-92.415	-0.088	-0.025
-529.062	-149.303	-0.044	-0.004
-528.048	441.682	-0.100	-0.221
-527.033	-200.000	-0.005	-0.063
-526.018	-200.000	-0.012	-0.232
-525.004	120.835	-0.240	-0.303
-523.989	-35.765	0.158	-0.087
-522.975	152.608	-0.049	-0.068
-521.960	461.897	-0.087	-0.196
-520.945	-68.481	-0.242	0.095
-519.931	-79.913	0.300	0.102
-518.916	-149.835	-0.249	0.020
-517.902	-200.000	-0.017	0.221
-516.887	0.274	0.186	-0.135
-515.872	773.671	0.210	0.581
-514.858	-99.753	-0.433	-0.110
-513.843	-145.536	-0.317	0.029
-512.829	63.325	-0.191	-0.193
-511.814	-200.000	0.102	-0.502
-510.799	-200.000	-0.031	-0.316
-509.785	-18.531	-0.266	-0.168
-508.770	-157.299	-0.224	0.014
-507.756	104.473	0.316	0.377
-506.741	-200.000	-0.004	0.032
-505.726	208.692	0.173	0.274
-504.712	-200.000	-0.039	-0.250
-503.697	113.584	-0.151	-0.186
-502.683	18.347	0.209	-0.169
-501.668	-200.000	0.015	-0.150
-500.653	-42.625	0.309	0.159
-499.639	-91.252	-0.141	0.041
-498.624	-200.000	-0.018	-0.105
-497.610	153.486	0.112	0.155
-496.595	18.315	-0.199	0.161
-495.581	255.302	-0.130	0.226
-494.566	-152.650	-0.135	-0.010
-493.551	-200.000	0.021	0.188
-492.537	19.469	0.298	-0.242
-491.522	-105.560	0.131	0.030
-490.508	-89.465	-0.093	0.028
-489.493	648.566	0.064	-0.165
-488.478	-25.601	0.220	0.131
-487.464	800.000	0.028	0.087
-486.449	-30.125	0.359	-0.207
-485.435	19.415	0.118	-0.096
-484.420	-200.000	0.031	0.512
-483.405	5.170	0.119	0.088
-482.391	-114.409	-0.412	0.080
-481.376	19.396	0.204	0.166
-480.362	-102.840	-0.094	-0.023
-479.347	-68.773	-0.111	-0.043
-478.332	-59.143	0.105	0.046
-477.318	-35.967	-0.220	-0.120
-476.303	-79.746	-0.354	0.120
-475.289	85.954	-0.170	0.190
-474.274	-200.000	-0.023	-0.192
-473.259	380.600	0.138	0.287
-472.245	-200.000	-0.034	0.293
-471.230	438.248	-0.163	0.358
-470.216	324.603	0.077	0.149
-469.201	-200.000	-0.009	-0.137
-468.186	-153.162	0.315	0.022
-467.172	-122.290	0.114	-0.019
-466.157	-200.000	0.027	-0.345
-465.143	-121.566	-0.352	0.059
-464.128	-52.338	0.224	-0.105
-463.113	-200.000	0.079	-0.511
-462.099	38.779	-0.225	-0.203
-461.084	-148.478	0.105	0.009
-460.070	-200.000	-0.021	-0.145
-459.055	-75.783	0.354	0.127
-458.040	-155.929	0.060	-0.004
-457.026	24.773	-0.319	0.267
-456.011	484.367	0.112	-0.257
-454.997	48.110	0.224	-0.211
-453.982	586.957	-0.053	0.131
-452.968	69.191	0.152	-0.158
-451.953	383.734	0.151	-0.313
-450.938	-115.645	-0.289	-0.055
-449.924	-136.397	0.084	-0.010
-448.909	391.653	0.084	-0.176
-447.895	43.514	-0.120	0.111
-446.880	158.383	0.041	-0.057
-445.865	231.340	-0.074	0.122
-444.851	-200.000	0.028	0.165
-443.836	800.000	-0.074	0.261
-442.822	86.145	0.176	-0.196
-441.807	-200.000	-0.015	0.249
-440.792	-35.292	-0.247	-0.135
-439.778	-127.393	-0.221	-0.032
-438.763	-174.931	-0.101	-0.003
-437.749	61.426	0.181	-0.182
-436.734	62.914	0.075	0.076
-435.719	787.677	-0.073	0.203
-434.705	-180.038	0.251	-0.005
-433.690	-88.474	0.185	0.056
-432.676	-118.787	0.439	0.078
-431.661	102.860	0.221	0.261
-430.646	313.636	0.067	-0.127
-429.632	-75.107	-0.251	-0.091
-428.617	37.537	0.077	-0.069
-427.603	-167.672	-0.107	-0.004
-426.588	-98.872	0.078	0.020
-425.573	-127.986	0.170	-0.025
-424.559	-32.893	-0.202	-0.113
-423.544	327.330	-0.195	-0.378
-422.530	-200.000	-0.014	-0.246
-421.515	76.021	0.216	0.231
-420.500	201.436	0.189	0.293
-419.486	479.303	0.117	0.268
-418.471	-33.811	-0.416	-0.231
-417.457	77.783	0.191	0.205
-416.442	122.403	0.130	-0.164
-415.428	276.865	-0.040	0.072
-414.413	-123.245	0.112	-0.018
-413.398	49.949	-0.364	0.346
-412.384	-200.000	-0.006	0.185
-411.369	295.376	0.171	-0.316
-410.355	-72.704	0.143	0.053
-409.340	576.876	-0.035	0.087
-408.325	245.277	-0.175	0.297
-407.311	-123.480	0.086	-0.014
-406.296	-200.000	0.032	0.241
-405.282	-20.756	-0.289	0.179
-404.267	-86.572	-0.214	0.066
-403.252	-24.322	-0.152	0.091
-402.238	-157.207	-0.076	-0.005
-401.223	85.911	0.179	-0.199
-400.209	-123.115	-0.056	-0.009
-399.194	800.000	-0.086	-0.276
-398.179	800.000	0.088	0.271
-397.165	461.700	0.127	-0.285
-396.150	-65.451	-0.092	0.037
-395.136	-7.614	-0.035	0.024
-394.121	-158.620	-0.177	-0.010
-393.106	-198.045	0.218	-0.001
-392.092	-109.875	0.121	0.026
-391.077	-101.413	0.067	0.016
-390.063	-51.292	-0.118	0.056
-389.048	-200.000	-0.008	-0.272
-388.033	-26.949	0.151	-0.089
-387.019	14.328	0.108	0.085
-386.004	61.131	-0.055	0.055
-384.990	-167.311	-0.421	0.017
-383.975	-200.000	-0.014	0.443
-382.960	-199.037	0.048	-0.000
-381.946	-70.914	-0.144	-0.055
-380.931	-119.004	0.227	0.040
-379.917	-200.000	-0.024	0.320
-378.902	164.276	-0.150	0.213
-377.888	122.631	0.154	-0.194
-376.873	51.742	0.191	0.183
-375.858	60.155	-0.136	0.135
-374.844	-69.239	0.135	-0.052
-373.829	-200.000	-0.007	0.094
-372.815	-161.328	0.160	0.008
-371.800	-156.529	-0.127	0.008
-370.785	-144.212	-0.223	0.021
-369.771	-200.000	0.052	-0.233
-368.756	2.808	0.282	-0.206
-367.742	-200.000	-0.016	-0.073
-366.727	204.752	-0.058	0.090
-365.712	169.715	-0.050	0.072
-364.698	324.685	0.095	-0.184
-363.683	83.811	0.049	-0.054
-362.669	59.773	-0.171	-0.170
-361.654	-84.818	0.266	0.084
-360.639	651.429	0.112	-0.288
-359.625	226.303	0.064	-0.105
-358.610	-32.838	0.225	-0.126
-357.596	17.045	-0.159	0.127
-356.581	-200.000	0.024	0.110
-355.566	180.219	0.074	-0.109
-354.552	-191.065	-0.089	0.001
-353.537	-97.923	0.303	-0.079
-352.523	509.132	-0.060	-0.139
-351.508	357.515	-0.022	-0.045
-350.493	800.000	-0.057	0.216
-349.479	208.542	0.117	-0.184
-348.464	-106.024	-0.508	-0.115
-347.450	51.438	-0.234	0.224
-346.435	-97.737	-0.242	-0.063
-345.420	-150.442	0.083	-0.006
-344.406	-8.852	0.035	-0.023
-343.391	800.000	-0.052	0.203
-342.377	57.695	0.043	0.042
-341.362	54.968	-0.080	-0.077
-340.348	94.522	-0.070	0.080
-339.333	21.252	0.076	0.062
-338.318	-19.511	0.053	-0.033
-337.304	-142.567	-0.107	-0.011
-336.289	-102.850	0.352	-0.084
-335.275	-200.000	0.019	0.143
-334.260	46.520	-0.335	0.312
-333.245	-200.000	-0.010	0.064
-332.231	388.716	0.061	0.126
-331.216	-13.579	-0.347	0.226
-330.202	545.989	0.022	0.052
-329.187	-121.639	-0.237	0.039
-328.172	-64.196	-0.281	0.115
-327.158	-97.073	-0.135	0.036
-326.143	91.602	0.244	-0.276
-325.129	-200.000	-0.009	-0.182
-324.114	535.477	0.134	0.319
-323.099	-200.000	-0.070	0.442
-322.085	205.032	-0.247	0.386
-321.070	50.635	-0.133	0.127
-320.056	83.051	-0.169	0.184
-319.041	-35.919	-0.148	-0.080
-318.026	-11.070	0.177	0.117
-317.012	-59.333	-0.215	0.093
-315.997	419.558	0.044	-0.095
-314.983	-108.919	-0.370	0.079
-313.968	800.000	-0.117	-0.491
-312.953	73.202	0.084	-0.089
-311.939	800.000	-0.060	-0.178
-310.924	-200.000	-0.019	-0.172
-309.910	91.422	0.174	0.196
-308.895	-200.000	0.011	-0.171
-307.880	248.462	-0.197	-0.335
-306.866	49.185	-0.135	0.127
-305.851	-101.279	-0.324	-0.080
-304.837	312.513	0.054	0.101
-303.822	-17.040	0.188	0.119
-302.807	-200.000	-0.039	-0.194
-301.793	-33.483	-0.270	-0.150
-300.778	608.577	-0.109	-0.274
-299.764	4.604	-0.183	-0.135
-298.749	259.771	-0.117	-0.202
-297.735	779.593	0.063	-0.174
-296.720	-54.813	-0.156	0.071
-295.705	-158.927	0.317	-0.018
-294.691	200.818	0.218	-0.337
-293.676	800.000	-0.062	-0.216
-292.662	20.748	0.090	-0.073
-291.647	70.359	0.213	-0.221
-290.632	198.610	0.033	0.051
-289.618	-112.431	-0.193	0.039
-288.603	30.512	0.211	0.181
-287.589	67.928	0.057	0.059
-286.574	262.307	-0.061	-0.107
-285.559	230.543	0.097	0.158
-284.545	411.847	-0.150	-0.319
-283.530	-200.000	-0.003	0.053
-282.516	-200.000	-0.009	0.305
-281.501	-200.000	-0.011	-0.261
-280.486	-200.000	-0.028	0.204
-279.472	-8.931	-0.198	-0.133
-278.457	-200.000	-0.023	-0.211
-277.443	783.426	0.043	0.118
-276.428	-51.361	-0.186	0.087
-275.413	-48.341	0.273	-0.132
-274.399	617.508	-0.150	0.379
-273.384	-98.397	0.310	0.080
-272.370	-76.465	0.193	-0.068
-271.355	63.260	-0.247	0.249
-270.340	-104.147	-0.181	-0.042
-269.326	4.354	0.160	0.117
-268.311	-200.000	-0.016	-0.275
-267.297	-153.887	0.226	0.015
-266.282	-7.948	0.194	-0.131
-265.267	9.067	-0.177	-0.134
-264.253	47.075	-0.164	0.153
-263.238	-200.000	0.002	-0.101
-262.224	-128.766	0.165	-0.023
-261.209	-200.000	0.046	0.214
-260.195	100.102	0.047	-0.055
-259.180	-200.000	-0.014	-0.063
-258.165	-129.715	0.494	-0.068
-257.151	53.294	0.125	-0.121
-256.136	518.786	0.148	-0.348
-255.122	-166.810	0.283	-0.012
-254.107	48.474	-0.244	-0.229
-253.092	-146.799	0.242	-0.021
-252.078	277.361	0.069	0.124
-251.063	-55.841	0.287	-0.129
-250.049	-89.432	0.185	-0.055
-249.034	800.000	-0.092	-0.384
-248.019	-200.000	-0.064	0.288
-247.005	-85.330	0.166	0.052
-245.990	65.149	0.113	-0.115
-244.976	-200.000	0.009	-0.103
-243.961	-67.642	-0.342	-0.134
-242.946	-200.000	0.005	-0.179
-241.932	-200.000	-0.011	-0.062
-240.917	-200.000	-0.006	0.038
-239.903	-103.667	0.341	0.080
-238.888	800.000	0.071	0.198
-237.873	800.000	0.061	-0.232
-236.859	-53.197	-0.103	0.047
-235.844	-140.346	0.352	-0.037
-234.830	-91.053	-0.466	-0.134
-233.815	164.367	-0.056	-0.079
-232.800	-17.255	-0.220	-0.139
-231.786	-9.026	-0.137	-0.092
-230.771	-73.446	0.118	-0.043
-229.757	-70.292	-0.089	0.034
-228.742	800.000	0.069	0.207
-227.727	-143.048	-0.489	0.047
-226.713	26.658	-0.105	-0.088
-225.698	-66.969	-0.115	-0.045
-224.684	-121.846	0.220	0.036
-223.669	149.719	-0.034	0.046
-222.655	-200.000	-0.093	0.601
-221.640	-20.880	0.093	0.057
-220.625	-96.070	-0.386	-0.103
-219.611	-64.485	-0.185	-0.075
-218.596	85.656	-0.269	-0.296
-217.582	-55.282	0.214	0.096
-216.567	-115.260	-0.123	-0.023
-215.552	800.000	-0.085	0.258
-214.538	-200.000	-0.010	-0.382
-213.523	800.000	0.091	0.337
-212.509	-120.853	0.283	0.048
-211.494	-107.256	-0.194	0.043
-210.479	800.000	0.061	-0.255
-209.465	-200.000	0.011	-0.229
-208.450	-83.339	0.321	-0.103
-207.436	-200.000	-0.029	0.164
-206.421	187.676	-0.182	0.272
-205.406	-200.000	0.027	0.181
-204.392	-140.396	0.234	0.024
-203.377	800.000	0.075	0.222
-202.363	-109.056	0.012	0.003
-201.348	200.818	-0.094	0.145
-200.333	-200.000	0.016	0.225
-199.319	71.943	0.126	0.131
-198.304	158.530	0.117	0.162
-197.290	800.000	-0.020	-0.073
-196.275	-80.760	0.133	-0.044
-195.260	-41.281	-0.157	0.081
-194.246	-166.824	-0.369	0.015
-193.231	800.000	-0.087	-0.264
-192.217	109.404	-0.118	-0.142
-191.202	-68.119	0.048	0.019
-190.187	-39.885	0.368	0.192
-189.173	-22.268	0.273	-0.165
-188.158	0.548	-0.159	-0.114
-187.144	22.010	-0.210	0.171
-186.129	800.000	0.032	0.105
-185.114	-131.995	0.478	-0.062
-184.100	373.681	-0.134	-0.273
-183.085	-70.998	0.068	-0.026
-182.071	800.000	-0.121	0.371
-181.056	103.210	0.099	0.116
-180.042	-200.000	0.038	0.458
-179.027	-200.000	0.027	0.197
-178.012	-51.458	-0.132	0.062
-176.998	-200.000	0.012	-0.163
-175.983	800.000	-0.064	-0.189
-174.969	800.000	-0.056	0.185
-173.954	-32.854	-0.058	0.032
-172.939	72.530	0.036	0.038
-171.925	-99.426	-0.178	0.045
-170.910	-1.969	-0.067	0.047
-169.896	-150.295	0.231	-0.018
-168.881	-200.000	-0.036	-0.216
-167.866	-34.743	0.131	-0.072
-166.852	-200.000	0.011	-0.055
-165.837	-200.000	0.023	-0.161
-164.823	73.132	0.135	0.141
-163.808	0.270	-0.196	0.140
-162.793	-114.403	0.307	-0.059
-161.779	-123.889	0.207	0.033
-160.764	125.131	0.065	-0.081
-159.750	3.970	0.292	0.213
-158.735	-74.991	0.348	-0.124
-157.720	-108.641	0.171	0.037
-156.706	-146.637	0.270	0.023
-155.691	-200.000	0.033	-0.204
-154.677	157.490	0.096	0.132
-153.662	-200.000	-0.022	-0.204
-152.647	40.125	0.014	0.013
-151.633	-71.804	0.120	0.045
-150.618	-200.000	0.028	-0.223
-149.604	56.798	0.162	-0.157
-148.589	-141.983	0.099	-0.010
-147.574	-200.000	-0.043	0.243
-146.560	38.802	-0.152	-0.136
-145.545	-131.401	0.181	-0.024
-144.531	-200.000	0.016	-0.164
-143.516	53.930	0.046	0.044
-142.502	800.000	-0.021	-0.090
-141.487	800.000	-0.103	0.384
-140.472	289.975	0.156	-0.282
-139.458	-6.065	0.132	-0.090
-138.443	185.967	0.254	0.377
-137.429	800.000	0.033	-0.097
-136.414	-95.288	-0.335	0.090
-135.399	-0.917	0.185	-0.130
-134.385	800.000	0.025	0.080
-133.370	-200.000	-0.010	0.146
-132.356	121.757	0.254	0.316
-131.341	-200.000	-0.017	0.204
-130.326	-200.000	0.280	0.001
-129.312	188.434	-0.159	0.237
-128.297	-82.830	0.260	0.084
-127.283	-200.000	0.035	-0.293
-126.268	-100.864	0.239	0.059
-125.253	-140.619	-0.072	0.007
-124.239	-200.000	-0.017	-0.094
-123.224	-200.000	-0.005	0.143
-122.210	800.000	0.064	-0.260
-121.195	-200.000	0.012	-0.115
-120.180	-200.000	0.005	-0.031
-119.166	-144.760	0.231	0.021
-118.151	26.807	-0.249	-0.208
-117.137	-58.016	0.399	0.174
-116.122	135.864	0.234	-0.303
-115.107	-114.588	-0.199	0.038
-114.093	198.733	-0.186	0.284
-113.078	-200.000	0.017	-0.250
-112.064	-200.000	-0.002	-0.110
-111.049	800.000	-0.057	0.181
-110.034	62.896	0.137	-0.137
-109.020	405.236	-0.148	-0.312
-108.005	-104.028	-0.319	0.074
-106.991	-32.355	0.052	-0.029
-105.976	-53.322	0.121	-0.055
-104.962	517.400	0.098	-0.229
-103.947	57.083	0.198	0.193
-102.932	-200.000	0.009	0.182
-101.918	117.140	-0.271	0.332
-100.903	-154.673	-0.310	0.021
-99.889	-85.237	0.120	0.037
-98.874	-0.681	0.052	0.037
-97.859	-67.701	-0.313	-0.122
-96.845	-154.069	0.249	0.017
-95.830	17.689	-0.048	-0.038
-94.816	-48.304	0.300	-0.144
-93.801	672.447	-0.112	0.289
-92.786	-29.393	0.316	-0.180
-91.772	-110.705	-0.360	-0.074
-90.757	-129.997	0.035	-0.005
-89.743	4.214	-0.170	-0.124
-88.728	30.196	-0.191	0.162
-87.713	-200.000	0.021	-0.262
-86.699	-86.661	0.145	0.044
-85.684	90.558	0.403	0.449
-84.670	-74.335	-0.378	-0.136
-83.655	109.315	-0.172	0.206
-82.640	-200.000	-0.037	0.244
-81.626	81.005	0.271	0.291
-80.611	396.378	0.064	-0.132
-79.597	108.750	-0.042	0.050
-78.582	-74.341	-0.330	0.119
-77.567	-25.103	0.267	0.158
-76.553	12.735	0.311	0.239
-75.538	21.010	0.086	-0.070
-74.524	800.000	0.025	-0.106
-73.509	222.065	0.182	-0.291
-72.494	156.997	-0.142	0.196
-71.480	-91.708	-0.171	-0.048
-70.465	457.767	-0.033	-0.074
-69.451	330.957	-0.269	-0.516
-68.436	98.321	-0.150	0.172
-67.422	124.811	-0.322	0.404
-66.407	555.254	-0.053	0.127
-65.392	-200.000	-0.009	-0.142
-64.378	-132.331	-0.323	-0.042
-63.363	91.896	0.129	0.145
-62.349	136.416	0.276	0.358
-61.334	160.856	-0.602	-0.836
-60.319	288.111	0.114	0.206
-59.305	800.000	0.155	-0.591
-58.290	213.733	0.571	0.898
-57.276	-200.000	0.289	1.302
-56.261	-200.000	80.384	510.533
-55.246	519.417	1321.654	3079.850
-54.232	151.692	2538.863	3440.976
-53.217	114.013	2218.777	2683.936
-52.203	50.881	1678.333	1581.500
-51.188	43.146	1410.982	1280.656
-50.173	39.832	1366.718	1219.992
-49.159	57.930	1405.415	1368.057
-48.144	63.582	1424.393	1421.800
-47.130	43.636	1384.922	1259.857
-46.115	39.954	1367.745	1221.471
-45.100	39.718	1362.713	1215.475
-44.086	39.577	1360.646	1212.713
-43.071	39.551	1358.449	1210.551
-42.057	39.647	1356.237	1209.117
-41.042	39.653	1354.615	1207.663
-40.027	39.660	1353.222	1206.417
-39.013	39.740	1351.501	1205.322
-37.998	39.697	1349.859	1203.548
-36.984	39.846	1347.575	1202.373
-35.969	39.759	1345.687	1200.109
-34.954	39.845	1343.631	1198.752
-33.940	39.923	1342.395	1198.074
-32.925	39.969	1341.138	1197.183
-31.911	39.919	1340.028	1195.840
-30.896	39.894	1338.350	1194.146
-29.881	39.954	1336.986	1193.242
-28.867	39.859	1335.430	1191.232
-27.852	39.952	1334.124	1190.580
-26.838	39.857	1332.457	1188.473
-25.823	39.839	1331.131	1187.140
-24.809	39.925	1329.326	1185.995
-23.794	39.891	1328.359	1184.885
-22.779	39.862	1326.703	1183.184
-21.765	40.010	1325.388	1182.850
-20.750	39.836	1323.889	1180.426
-19.736	39.805	1322.633	1179.077
-18.721	39.766	1321.634	1177.904
-17.706	39.777	1320.048	1176.510
-16.692	39.919	1318.895	1176.279
-15.677	39.773	1318.147	1174.700
-14.663	39.784	1317.227	1173.899
-13.648	39.734	1316.072	1172.523
-12.633	39.755	1314.769	1171.443
-11.619	39.591	1314.591	1170.265
-10.604	39.682	1313.617	1169.891
-9.590	39.755	1312.241	1169.048
-8.575	39.707	1311.738	1168.273
-7.560	39.808	1310.302	1167.545
-6.546	39.698	1309.929	1166.517
-5.531	39.726	1309.043	1165.846
-4.517	39.692	1308.657	1165.254
-3.502	39.850	1306.652	1164.356
-2.487	39.754	1305.977	1163.141
-1.473	39.692	1302.035	1159.219
-0.458	38.111	1286.092	1135.792
0.556	32.104	1265.824	1089.124
1.571	27.507	1269.697	1065.546
2.586	25.976	1284.667	1068.945
3.600	25.295	1274.791	1056.626
4.615	22.715	1206.233	985.324
5.629	17.957	1133.282	900.620
6.644	15.357	1112.193	870.309
7.659	15.159	1109.154	866.831
8.673	15.094	1107.724	865.300
9.688	15.050	1106.939	864.382
10.702	15.312	1105.319	864.389
11.717	18.387	1108.773	882.889
12.731	21.274	1112.135	900.390
13.746	19.873	1109.295	890.805
14.761	17.641	1105.747	876.412
15.775	16.417	1103.588	868.337
16.790	15.380	1101.153	861.026
17.804	14.655	1099.348	855.822
18.819	14.144	1098.181	852.221
19.834	13.795	1097.157	849.565
20.848	13.473	1096.308	847.185
21.863	13.362	1095.092	845.603
22.877	13.122	1094.492	843.838
23.892	13.177	1093.765	843.484
24.907	13.273	1092.876	843.212
25.921	13.176	1092.199	842.122
26.936	13.347	1090.421	841.548
27.950	13.282	1089.418	840.366
28.965	13.413	1087.410	839.411
29.980	13.488	1086.125	838.724
30.994	13.535	1084.471	837.609
32.009	13.548	1083.468	836.827
33.023	13.480	1082.611	835.746
34.038	13.488	1081.021	834.487
35.053	13.313	1081.049	833.553
36.067	13.362	1080.013	832.924
37.082	13.299	1079.533	832.164
38.096	13.394	1078.537	831.802
39.111	13.429	1077.576	831.163
40.126	13.270	1076.313	829.316
41.140	13.116	1075.376	827.751
42.155	13.192	1074.303	827.228
43.169	13.012	1072.922	825.196
44.184	13.184	1071.515	824.897
45.199	13.231	1070.522	824.297
46.213	13.082	1069.943	823.035
47.228	13.218	1068.617	822.617
48.242	13.420	1066.947	822.262
49.257	13.271	1066.079	820.781
50.271	13.190	1066.012	820.254
51.286	13.342	1064.411	819.704
52.301	13.223	1063.839	818.603
53.315	13.262	1062.407	817.619
54.330	13.104	1061.791	816.293
55.344	13.231	1060.769	816.060
56.359	13.254	1059.550	815.167
57.374	13.193	1058.773	814.194
58.388	13.250	1057.619	813.515
59.403	13.003	1057.344	812.019
60.417	13.223	1056.051	812.032
61.432	13.068	1055.568	810.830
62.447	12.951	1055.087	809.815
63.461	13.017	1053.503	808.849
64.476	13.027	1052.494	808.052
65.490	13.068	1051.722	807.590
66.505	13.119	1051.110	807.297
67.520	13.039	1050.560	806.413
68.534	13.110	1049.841	806.133
69.549	13.153	1048.992	805.621
70.563	13.042	1047.835	804.120
71.578	12.971	1046.921	803.002
72.593	12.929	1046.479	802.387
73.607	13.006	1045.854	802.213
74.622	12.951	1045.451	801.565
75.636	12.983	1044.542	800.954
76.651	13.074	1043.694	800.674
77.666	12.928	1043.207	799.519
78.680	13.049	1042.800	799.726
79.695	13.101	1041.572	798.964
80.709	13.114	1041.330	798.769
81.724	13.120	1040.256	797.905
82.739	13.246	1039.775	798.073
83.753	13.282	1038.946	797.540
84.768	13.409	1038.013	797.364
85.782	13.326	1037.448	796.462
86.797	13.361	1036.500	795.833
87.812	13.389	1035.512	795.136
88.826	13.270	1034.334	793.591
89.841	13.243	1033.436	792.703
90.855	13.397	1031.977	792.248
91.870	13.352	1031.782	791.816
92.884	13.283	1030.837	790.690
93.899	13.368	1029.790	790.224
94.914	13.539	1028.850	790.246
95.928	13.426	1028.351	789.255
96.943	13.402	1027.434	788.367
97.957	13.339	1026.748	787.471
98.972	13.289	1025.555	786.246
99.987	13.273	1024.943	785.633
101.001	13.280	1023.593	784.564
102.016	13.372	1022.652	784.208
103.030	13.364	1022.353	783.872
104.045	13.339	1021.085	782.714
105.060	13.457	1020.170	782.498
106.074	13.362	1019.142	781.193
107.089	13.088	1018.611	779.425
108.103	13.246	1016.676	778.618
109.118	13.194	1016.518	778.182
110.133	13.212	1015.768	777.624
111.147	13.329	1014.450	777.096
112.162	13.360	1013.820	776.694
113.176	13.352	1013.213	776.120
114.191	13.341	1012.772	775.662
115.206	13.220	1012.315	774.677
116.220	13.331	1010.738	773.921
117.235	13.245	1009.798	772.731
118.249	13.238	1009.118	772.107
119.264	13.275	1008.246	771.546
120.279	13.264	1007.390	770.771
121.293	13.106	1006.750	769.480
122.308	13.251	1005.665	769.254
123.322	13.115	1005.032	768.072
124.337	13.168	1003.684	767.216
125.352	13.210	1002.245	766.243
126.366	13.172	1001.203	765.206
127.381	13.210	1000.423	764.717
128.395	13.211	999.677	764.082
129.410	13.174	998.991	763.320
130.424	13.278	997.931	762.923
131.439	13.454	996.919	762.893
132.454	13.347	996.335	761.885
133.468	13.341	995.439	761.106
134.483	13.384	994.430	760.463
135.497	13.325	993.809	759.650
136.512	13.321	992.652	758.683
137.527	13.401	991.824	758.346
138.541	13.438	991.189	757.967
139.556	13.363	990.607	757.110
140.570	13.560	989.662	757.222
141.585	13.552	988.728	756.405
142.600	13.627	987.821	755.982
143.614	13.425	987.306	754.604
144.629	13.466	986.418	754.043
145.643	13.489	985.622	753.472
146.658	13.507	984.162	752.373
147.673	13.443	983.360	751.403
148.687	13.367	982.495	750.331
149.702	13.453	981.559	749.937
150.716	13.260	981.227	748.743
151.731	13.418	979.965	748.429
152.746	13.386	979.441	747.820
153.760	13.417	978.786	747.391
154.775	13.554	978.135	747.446
155.789	13.656	977.022	746.990
156.804	13.500	976.641	745.932
157.819	13.544	976.196	745.724
158.833	13.662	975.242	745.459
159.848	13.703	974.223	744.799
160.862	13.569	973.405	743.505
161.877	13.583	972.555	742.854
162.892	13.503	971.550	741.662
163.906	13.427	970.869	740.736
164.921	13.518	969.944	740.370
165.935	13.555	968.803	739.599
166.950	13.501	967.983	738.669
167.964	13.506	966.831	737.744
168.979	13.506	966.186	737.189
169.994	13.543	965.295	736.606
171.008	13.547	964.733	736.133
172.023	13.618	964.404	736.131
173.037	13.702	963.841	736.008
174.052	13.621	962.735	734.738
175.067	13.701	961.859	734.360
176.081	13.552	961.229	733.156
177.096	13.478	960.899	732.511
178.110	13.671	960.155	732.731
179.125	13.481	959.669	731.458
180.140	13.626	959.483	731.889
181.154	13.705	958.806	731.658
182.169	13.713	958.388	731.311
183.183	13.848	957.683	731.302
184.198	13.777	956.754	730.214
185.213	13.817	955.983	729.738
186.227	13.796	955.118	728.921
187.242	13.870	954.451	728.673
188.256	13.923	953.793	728.339
189.271	13.897	953.118	727.642
190.286	13.720	952.402	726.259
191.300	13.648	951.711	725.351
192.315	13.621	951.062	724.673
193.329	13.704	950.317	724.405
194.344	13.756	949.767	724.149
195.359	13.780	949.259	723.802
196.373	13.754	948.911	723.359
197.388	13.888	948.332	723.437
198.402	14.060	947.242	723.293
199.417	14.010	947.271	723.034
200.432	14.119	946.414	722.787
201.446	14.100	946.209	722.485
202.461	14.058	945.564	721.748
203.475	14.063	944.868	721.171
204.490	14.104	943.925	720.566
205.504	14.114	942.929	719.786
206.519	13.996	942.151	718.617
207.534	13.899	941.572	717.694
208.548	14.146	940.716	718.043
209.563	14.175	940.435	717.889
210.577	14.205	939.500	717.243
211.592	14.163	938.851	716.504
212.607	14.166	938.111	715.887
213.621	14.298	937.065	715.595
214.636	14.151	936.691	714.614
215.650	14.193	935.707	713.980
216.665	14.342	935.023	714.035
217.680	14.135	934.502	712.684
218.694	14.290	933.843	712.783
219.709	14.368	933.260	712.607
220.723	14.273	932.629	711.656
221.738	14.333	931.529	711.011
222.753	14.324	931.021	710.523
223.767	14.351	930.409	710.110
224.782	14.540	929.818	710.400
225.796	14.423	929.397	709.515
226.811	14.443	928.677	708.988
227.826	14.406	927.605	707.949
228.840	14.385	927.172	707.471
229.855	14.411	926.358	706.894
230.869	14.386	925.539	706.103
231.884	14.397	925.009	705.681
232.899	14.315	924.384	704.793
233.913	14.370	923.433	704.241
234.928	14.317	922.848	703.507
235.942	14.276	922.229	702.802
236.957	14.420	921.639	702.895
237.972	14.399	921.089	702.328
238.986	14.318	920.638	701.580
240.001	14.323	919.727	700.844
241.015	14.366	919.340	700.667
242.030	14.432	918.494	700.238
243.045	14.496	918.241	700.252
244.059	14.501	917.285	699.481
245.074	14.462	916.931	698.985
246.088	14.493	915.951	698.307
247.103	14.544	915.378	698.022
248.117	14.701	914.942	698.286
249.132	14.637	914.244	697.422
250.147	14.843	913.388	697.568
251.161	14.819	913.244	697.295
252.176	14.807	912.362	696.511
253.190	14.774	911.727	695.827
254.205	14.809	911.032	695.380
255.220	14.811	910.228	694.715
256.234	14.938	909.786	694.844
257.249	14.978	908.528	693.988
258.263	15.018	908.145	693.800
259.278	14.813	907.599	692.468
260.293	14.950	906.832	692.389
261.307	15.047	906.264	692.297
262.322	14.913	905.759	691.296
263.336	15.156	904.821	691.525
264.351	15.082	903.829	690.397
265.366	15.061	903.401	689.925
266.380	15.080	903.031	689.660
267.395	15.122	901.943	688.940
268.409	15.119	900.981	688.131
269.424	14.964	900.460	687.035
270.439	15.120	899.591	686.951
271.453	15.078	898.913	686.200
272.468	15.006	898.832	685.783
273.482	14.983	898.508	685.384
274.497	15.014	897.739	684.860
275.512	15.037	896.711	684.112
276.526	15.157	896.674	684.513
277.541	15.089	896.032	683.684
278.555	15.263	895.272	683.751
279.570	15.362	894.789	683.726
280.585	15.274	893.678	682.458
281.599	15.263	892.975	681.818
282.614	15.327	892.011	681.284
283.628	15.295	891.840	680.962
284.643	15.318	891.201	680.506
285.657	15.374	890.542	680.171
286.672	15.221	890.472	679.436
287.687	15.373	889.264	679.070
288.701	15.276	889.075	678.471
289.716	15.408	888.427	678.453
290.730	15.401	887.533	677.682
291.745	15.287	886.926	676.697
292.760	15.400	886.698	676.919
293.774	15.591	885.616	676.802
294.789	15.478	885.241	676.002
295.803	15.410	884.515	675.114
296.818	15.446	884.057	674.849
297.833	15.574	883.047	674.533
298.847	15.610	882.403	674.124
299.862	15.681	881.604	673.739
300.876	15.554	881.140	672.817
301.891	15.587	880.710	672.560
302.906	15.695	880.016	672.403
303.920	15.652	879.862	672.055
304.935	15.694	879.335	671.761
305.949	15.652	878.528	670.915
306.964	15.777	877.534	670.596
307.979	15.660	877.390	669.962
308.993	15.879	876.707	670.250
310.008	15.821	875.506	669.042
311.022	15.767	875.393	668.684
312.037	15.760	874.989	668.286
313.052	15.761	874.076	667.534
314.066	15.695	873.486	666.764
315.081	15.641	873.142	666.227
316.095	15.630	872.414	665.569
317.110	15.720	871.968	665.529
318.125	15.796	871.379	665.319
319.139	15.778	870.672	664.648
320.154	15.728	870.723	664.430
321.168	15.768	869.869	663.881
322.183	15.932	869.172	663.934
323.197	15.904	868.474	663.234
324.212	15.802	868.143	662.520
325.227	15.868	867.208	662.008
326.241	15.795	867.193	661.652
327.256	15.832	866.494	661.204
328.270	15.754	866.101	660.540
329.285	15.906	865.093	660.309
330.300	15.916	864.777	660.049
331.314	15.800	864.106	659.022
332.329	15.937	863.476	659.019
333.343	15.898	863.291	658.668
334.358	15.950	863.115	658.677
335.373	15.912	862.675	658.138
336.387	15.960	862.007	657.756
337.402	16.027	862.095	658.026
338.416	16.103	861.459	657.780
339.431	16.148	861.118	657.637
340.446	16.190	860.538	657.298
341.460	16.277	859.850	657.052
342.475	16.307	859.602	656.923
343.489	16.194	859.456	656.315
344.504	16.388	858.542	656.311
345.519	16.180	858.445	655.371
346.533	16.304	857.691	655.218
347.548	16.274	857.231	654.691
348.562	16.216	856.497	653.848
349.577	16.292	855.981	653.693
350.592	16.137	855.417	652.604
351.606	16.216	854.460	652.120
352.621	16.212	853.964	651.669
353.635	16.216	853.295	651.116
354.650	16.248	852.865	650.853
355.665	16.420	851.782	650.634
356.679	16.471	851.419	650.496
357.694	16.341	850.872	649.520
358.708	16.379	849.774	648.767
359.723	16.424	849.727	648.850
360.738	16.538	848.880	648.580
361.752	16.526	848.212	647.967
362.767	16.382	847.857	647.089
363.781	16.574	847.297	647.339
364.796	16.585	846.923	647.038
365.810	16.648	846.715	647.060
366.825	16.687	846.274	646.815
367.840	16.626	845.546	645.968
368.854	16.570	844.911	645.214
369.869	16.489	844.676	644.667
370.883	16.615	844.021	644.593
371.898	16.681	843.813	644.626
372.913	16.749	843.157	644.329
373.927	16.656	842.584	643.480
374.942	16.761	842.193	643.523
375.956	16.896	841.742	643.633
376.971	16.786	841.149	642.704
377.986	16.915	840.410	642.573
379.000	16.875	840.432	642.381
380.015	16.797	839.771	641.525
381.029	16.933	838.956	641.358
382.044	16.786	838.890	640.697
383.059	16.961	838.091	640.690
384.073	16.965	837.367	640.097
385.088	16.907	837.006	639.542
386.102	16.921	836.435	639.102
387.117	16.865	835.452	638.086
388.132	16.885	835.147	637.873
389.146	16.963	834.479	637.597
390.161	16.836	834.123	636.793
391.175	16.845	833.791	636.516
392.190	16.946	833.184	636.377
393.205	16.808	833.014	635.673
394.219	16.901	832.838	635.829
395.234	17.043	831.758	635.482
396.248	16.749	831.798	634.355
397.263	16.878	831.161	634.295
398.278	16.938	830.702	634.113
399.292	16.898	830.344	633.635
400.307	16.955	829.875	633.434
401.321	17.011	829.620	633.390
402.336	17.016	828.590	632.568
403.350	17.078	828.413	632.607
404.365	17.072	827.811	632.071
405.380	17.165	827.503	632.126
406.394	17.194	826.657	631.529
407.409	17.028	826.649	630.853
408.423	17.339	826.163	631.580
409.438	17.371	825.982	631.504
410.453	17.419	825.285	631.092
411.467	17.254	824.753	630.020
412.482	17.333	824.233	629.857
413.496	17.410	823.835	629.785
414.511	17.336	823.760	629.396
415.526	17.414	823.097	629.124
416.540	17.432	822.529	628.699
417.555	17.425	822.194	628.362
418.569	17.524	821.610	628.224
419.584	17.501	820.998	627.618
420.599	17.420	820.714	627.045
421.613	94.930	1272.590	1392.954
422.628	81.700	1338.437	1393.089
