DTS Sentinel unit serial number:	SN413079Multiplexer serial number:	ORYXHardware model number:	OX4-SRSoftware version number:	ORYX F/W v4.00 Oryx Data Collector v3.7.2.0data status	okinstallation	princeton_trtdifferential loss correction	single-endedforward channel	channel 1reverse channel	N/Adate	2019/09/12time	18:22:34forward acquisition time	15.00reverse acquisition time	0.00gamma	496.2192k internal	0.2318k external	0.2318temperature offset calibration	1.0099default loss term (dB/km)	0.3790temperature slope calibration	1.0000multiplexer offset coefficient	1.0000multiplexer slope coefficient	1.0000fibre end	0.00T internal ref (°C)	33.37T ext. ref 1 (°C)	2.96T ext. ref 2 (°C)	28.02length (m)	temperature (°C)	Stokes	anti-Stokes-747.200	800.000	-0.112	-0.432
-746.185	800.000	-0.122	-0.506
-745.171	-67.258	-0.374	-0.149
-744.156	-141.254	0.793	-0.082
-743.142	800.000	0.053	-0.191
-742.127	536.676	0.130	-0.312
-741.112	197.636	-0.193	0.299
-740.098	-200.000	-0.006	-0.461
-739.083	373.849	0.216	-0.444
-738.069	-200.000	-0.143	-0.658
-737.054	-200.000	0.134	-0.647
-736.039	-200.000	-0.105	0.502
-735.025	800.000	-0.175	-0.510
-734.010	28.187	0.460	0.393
-732.996	-200.000	-0.070	0.394
-731.981	15.907	0.756	-0.602
-730.966	800.000	-0.254	-0.866
-729.952	-200.000	-0.032	-0.423
-728.937	237.549	0.126	0.211
-727.923	68.397	-0.305	0.316
-726.908	515.209	-0.024	-0.058
-725.894	45.616	0.475	0.444
-724.879	-200.000	0.141	-0.676
-723.864	-95.528	-0.336	0.091
-722.850	83.079	0.207	-0.228
-721.835	11.319	0.315	0.244
-720.821	-15.699	-0.019	-0.012
-719.806	800.000	-0.084	0.314
-718.791	38.468	-0.388	0.349
-717.777	-5.139	0.287	0.200
-716.762	800.000	-0.053	-0.151
-715.748	-200.000	0.123	0.594
-714.733	-82.312	0.220	-0.072
-713.718	-160.837	0.378	-0.020
-712.704	431.075	-0.351	-0.769
-711.689	43.623	0.395	-0.365
-710.675	199.812	-0.618	-0.959
-709.660	-200.000	0.049	-0.452
-708.645	800.000	-0.163	0.558
-707.631	-200.000	0.012	0.507
-706.616	106.682	0.530	-0.635
-705.602	-116.482	-1.004	0.187
-704.587	-200.000	0.088	0.524
-703.572	-200.000	-0.014	-0.182
-702.558	-57.743	-0.428	0.189
-701.543	-184.751	0.461	-0.007
-700.529	661.381	0.053	-0.138
-699.514	71.371	-0.408	-0.428
-698.499	705.258	-0.096	0.257
-697.485	-200.000	-0.127	-0.684
-696.470	-95.304	1.069	0.291
-695.456	-79.034	-1.277	-0.439
-694.441	-152.805	-0.767	0.055
-693.426	-200.000	0.072	0.354
-692.412	433.729	0.094	-0.207
-691.397	329.857	-0.346	0.672
-690.383	-200.000	0.019	0.317
-689.368	-200.000	0.117	1.275
-688.354	-200.000	0.071	0.648
-687.339	61.857	0.626	-0.630
-686.324	-19.626	-0.404	0.252
-685.310	608.688	0.238	0.601
-684.295	-36.684	0.345	0.187
-683.281	800.000	-0.056	0.245
-682.266	-141.324	-0.282	-0.029
-681.251	-84.481	-0.124	-0.039
-680.237	-200.000	0.052	0.798
-679.222	105.269	0.078	-0.092
-678.208	-66.515	-0.980	-0.393
-677.193	338.893	0.137	0.270
-676.178	-49.473	-0.531	0.256
-675.164	303.885	0.242	-0.452
-674.149	800.000	0.211	0.693
-673.135	-129.898	-0.535	-0.074
-672.120	-200.000	-0.081	-0.442
-671.105	-200.000	0.057	-0.372
-670.091	81.544	-0.340	0.371
-669.076	72.692	-0.114	0.120
-668.062	-96.461	0.539	-0.144
-667.047	241.818	-0.138	-0.234
-666.032	255.741	-0.228	0.394
-665.018	800.000	-0.221	-0.651
-664.003	-38.507	0.273	0.146
-662.989	58.505	-0.560	-0.554
-661.974	800.000	0.136	-0.421
-660.959	485.146	-0.152	-0.350
-659.945	51.877	0.122	-0.117
-658.930	800.000	-0.162	-0.708
-657.916	-92.561	-0.477	0.135
-656.901	-200.000	0.115	0.529
-655.886	-64.064	0.815	0.335
-654.872	20.130	0.554	-0.451
-653.857	-200.000	-0.121	-0.837
-652.843	800.000	-0.184	0.797
-651.828	800.000	0.110	0.461
-650.814	-141.457	-0.316	0.032
-649.799	-46.252	0.778	0.386
-648.784	-82.756	0.355	-0.116
-647.770	175.412	-0.363	0.531
-646.755	57.296	-0.671	-0.661
-645.741	-180.242	0.362	-0.008
-644.726	-19.027	-0.745	-0.467
-643.711	349.761	-0.313	0.624
-642.697	351.552	0.162	0.323
-641.682	72.204	0.861	0.904
-640.668	85.374	0.204	-0.226
-639.653	19.208	0.414	0.335
-638.638	-200.000	0.007	0.091
-637.624	-111.579	0.273	-0.056
-636.609	59.873	-0.213	-0.212
-635.595	-13.467	-0.105	0.068
-634.580	-74.145	-0.233	-0.085
-633.565	-200.000	-0.022	0.181
-632.551	-200.000	-0.004	0.182
-631.536	-77.038	0.414	0.146
-630.522	-200.000	-0.083	-0.391
-629.507	14.193	0.334	-0.263
-628.492	110.848	0.400	0.485
-627.478	-73.922	-0.352	0.129
-626.463	800.000	0.287	1.101
-625.449	-84.602	-0.462	0.147
-624.434	-156.231	0.584	-0.037
-623.419	725.306	0.145	-0.388
-622.405	-200.000	-0.004	-0.371
-621.390	8.954	0.537	0.408
-620.376	800.000	-0.164	-0.538
-619.361	-200.000	-0.017	0.986
-618.346	-200.000	-0.048	0.707
-617.332	121.134	0.613	0.768
-616.317	100.283	0.536	0.627
-615.303	-144.621	0.913	-0.085
-614.288	234.200	0.295	0.490
-613.273	-200.000	-0.043	0.791
-612.259	-185.559	-0.096	0.001
-611.244	-141.088	-0.553	-0.057
-610.230	162.293	-0.425	0.600
-609.215	464.902	-0.271	0.611
-608.201	800.000	0.082	-0.268
-607.186	-189.607	0.214	0.002
-606.171	35.646	0.456	-0.403
-605.157	-15.022	0.619	0.399
-604.142	-200.000	0.049	0.384
-603.128	119.905	0.388	0.484
-602.113	-42.971	0.315	0.161
-601.098	107.801	-0.401	-0.480
-600.084	1.284	0.339	0.245
-599.069	433.233	0.034	-0.075
-598.055	59.079	-0.249	0.246
-597.040	113.275	-0.260	-0.318
-596.025	-200.000	-0.050	-0.446
-595.011	-80.996	-0.412	0.137
-593.996	48.056	-0.254	-0.238
-592.982	800.000	-0.188	-0.825
-591.967	-51.751	0.848	0.397
-590.952	-151.023	0.604	0.046
-589.938	800.000	-0.267	1.081
-588.923	-150.473	1.025	0.079
-587.909	-173.990	0.237	-0.007
-586.894	39.327	-0.523	0.471
-585.879	-79.803	0.549	0.186
-584.865	127.462	-0.171	0.219
-583.850	64.813	-0.202	0.205
-582.836	85.389	-0.398	-0.440
-581.821	800.000	-0.194	-0.761
-580.806	283.553	0.275	0.497
-579.792	246.481	0.457	0.774
-578.777	-29.302	0.212	-0.122
-577.763	542.190	-0.275	-0.659
-576.748	-119.672	0.150	-0.026
-575.733	21.417	-0.385	0.314
-574.719	-200.000	0.073	-0.496
-573.704	-40.515	-0.983	0.513
-572.690	-42.730	0.220	0.112
-571.675	-69.391	-0.318	0.123
-570.661	88.079	-0.218	-0.243
-569.646	733.494	0.110	-0.297
-568.631	534.475	0.127	-0.303
-567.617	-113.140	0.328	0.065
-566.602	-200.000	0.015	0.397
-565.588	-126.516	0.031	-0.005
-564.573	746.635	-0.155	-0.420
-563.558	660.420	0.303	-0.784
-562.544	-137.062	0.904	0.104
-561.529	800.000	-0.213	0.732
-560.515	-200.000	0.003	0.485
-559.500	-119.877	0.178	0.031
-558.485	-185.820	-0.664	0.010
-557.471	-27.878	-0.306	-0.178
-556.456	-135.363	-0.443	0.053
-555.442	87.233	0.463	0.514
-554.427	193.853	-0.297	-0.452
-553.412	-23.128	-0.171	-0.103
-552.398	-133.171	1.038	-0.132
-551.383	-200.000	0.051	-0.728
-550.369	7.450	-0.563	-0.423
-549.354	-200.000	-0.040	-0.421
-548.339	-7.285	-0.810	-0.551
-547.325	800.000	0.227	0.689
-546.310	-69.467	-0.612	-0.235
-545.296	-200.000	-0.081	0.800
-544.281	-86.187	0.409	0.127
-543.266	-76.408	-0.409	0.145
-542.252	800.000	-0.172	-0.490
-541.237	-200.000	-0.034	0.267
-540.223	800.000	-0.034	-0.132
-539.208	212.946	0.122	-0.194
-538.193	-200.000	0.072	0.336
-537.179	-164.617	0.139	-0.006
-536.164	33.218	-0.146	-0.127
-535.150	-76.134	-0.634	0.225
-534.135	-70.037	-0.147	0.056
-533.121	16.529	-0.457	0.363
-532.106	-170.430	0.313	-0.011
-531.091	44.551	-0.145	-0.134
-530.077	800.000	0.144	-0.451
-529.062	2.451	-0.596	-0.433
-528.048	-105.412	-0.200	-0.046
-527.033	-90.277	0.307	0.090
-526.018	-5.520	-0.209	0.144
-525.004	784.307	-0.292	-0.803
-523.989	-200.000	-0.052	0.370
-522.975	12.784	-0.538	-0.417
-521.960	256.594	-0.203	-0.350
-520.945	429.172	-0.081	-0.176
-519.931	800.000	-0.075	-0.306
-518.916	-176.552	-0.146	-0.004
-517.902	-62.651	0.741	-0.308
-516.887	44.007	-0.241	-0.222
-515.872	33.318	0.106	0.093
-514.858	14.460	-0.023	-0.018
-513.843	-30.202	-0.174	0.099
-512.829	-55.093	-0.532	0.240
-511.814	-200.000	-0.112	-1.109
-510.799	-200.000	0.111	0.935
-509.785	47.333	-0.125	-0.117
-508.770	-1.862	-0.173	-0.122
-507.756	25.567	-0.466	0.389
-506.741	-94.898	-0.208	0.056
-505.726	-82.372	0.503	0.164
-504.712	83.393	0.577	0.631
-503.697	-99.628	0.522	-0.131
-502.683	172.828	-0.134	-0.194
-501.668	686.138	0.383	-1.003
-500.653	-100.812	-0.755	-0.186
-499.639	-178.653	0.923	-0.021
-498.624	201.357	-0.383	-0.591
-497.610	233.579	-0.461	-0.761
-496.595	-135.747	-0.680	0.081
-495.581	-140.537	0.549	-0.057
-494.566	-67.548	0.684	-0.269
-493.551	-67.060	-0.343	0.136
-492.537	-200.000	-0.007	-0.066
-491.522	800.000	0.423	-1.369
-490.508	-77.841	-0.602	0.208
-489.493	-35.864	0.614	0.333
-488.478	800.000	-0.178	0.646
-487.464	39.906	0.681	-0.613
-486.449	-17.090	-0.584	0.369
-485.435	-142.612	-0.407	0.040
-484.420	-200.000	0.063	0.709
-483.405	-94.785	0.704	0.191
-482.391	800.000	-0.083	-0.344
-481.376	57.493	0.449	0.439
-480.362	333.859	0.211	-0.408
-479.347	-113.647	0.507	-0.099
-478.332	-200.000	0.025	-0.391
-477.318	757.768	-0.094	-0.255
-476.303	20.310	0.339	0.275
-475.289	-200.000	-0.072	1.147
-474.274	70.023	0.534	0.552
-473.259	-104.556	-1.090	0.252
-472.245	194.635	-0.039	-0.060
-471.230	175.791	-0.580	-0.842
-470.216	674.983	0.165	-0.430
-469.201	-85.606	-0.224	-0.070
-468.186	-23.227	-0.419	0.252
-467.172	-88.720	0.332	-0.099
-466.157	-83.497	0.481	-0.154
-465.143	-200.000	-0.019	-0.418
-464.128	694.048	-0.091	-0.238
-463.113	-69.089	-0.379	0.146
-462.099	569.248	0.157	0.382
-461.084	172.002	-0.112	0.161
-460.070	91.708	0.389	-0.438
-459.055	-48.009	-0.230	-0.111
-458.040	-200.000	0.012	-0.155
-457.026	800.000	0.212	0.644
-456.011	-200.000	0.061	0.519
-454.997	800.000	0.264	0.838
-453.982	38.269	0.233	-0.208
-452.968	42.773	0.450	0.410
-451.953	16.774	0.641	-0.508
-450.938	8.868	-0.389	0.294
-449.924	51.536	0.427	-0.406
-448.909	32.778	0.350	0.303
-447.895	-118.999	0.916	0.161
-446.880	19.886	0.302	-0.244
-445.865	-37.218	-0.103	0.055
-444.851	-200.000	0.004	-0.628
-443.836	-44.756	-0.634	0.316
-442.822	27.070	0.189	0.159
-441.807	-69.212	0.512	-0.197
-440.792	800.000	-0.279	-1.077
-439.778	-127.273	0.682	0.100
-438.763	86.285	-0.615	0.678
-437.749	392.140	0.068	-0.142
-436.734	160.667	-0.142	0.198
-435.719	187.768	0.337	-0.504
-434.705	237.348	0.304	0.504
-433.690	174.489	0.175	-0.253
-432.676	184.977	-0.506	0.751
-431.661	-58.396	0.072	0.031
-430.646	-200.000	-0.082	0.613
-429.632	521.839	-0.114	-0.267
-428.617	-200.000	0.105	-0.497
-427.603	-36.167	-0.590	0.319
-426.588	12.564	-0.330	0.255
-425.573	99.628	-0.209	-0.242
-424.559	-118.257	-0.576	0.102
-423.544	-110.828	0.496	-0.102
-422.530	-183.425	-0.563	-0.010
-421.515	15.767	-0.419	0.329
-420.500	800.000	0.251	0.834
-419.486	-200.000	0.014	0.822
-418.471	-75.014	-0.369	-0.132
-417.457	161.987	0.198	-0.278
-416.442	-95.912	-0.382	0.102
-415.428	-13.062	0.350	0.227
-414.413	800.000	-0.193	-0.562
-413.398	-18.186	-0.553	-0.346
-412.384	437.379	0.306	-0.667
-411.369	-153.058	0.462	-0.032
-410.355	416.015	0.151	0.321
-409.340	-53.458	0.677	-0.310
-408.325	217.002	0.287	0.457
-407.311	-200.000	0.071	0.503
-406.296	-145.904	-0.653	-0.058
-405.282	134.696	0.479	0.622
-404.267	-12.089	0.105	-0.069
-403.252	-83.338	-0.707	-0.227
-402.238	41.177	-0.163	-0.147
-401.223	-133.220	0.667	-0.084
-400.209	85.493	0.450	-0.493
-399.194	93.466	0.262	0.297
-398.179	-67.287	-0.431	0.169
-397.165	34.568	0.656	-0.573
-396.150	-86.329	0.464	0.143
-395.136	-70.928	-0.503	-0.189
-394.121	-200.000	0.034	-0.242
-393.106	-200.000	-0.075	-0.608
-392.092	800.000	0.079	0.312
-391.077	-108.194	-0.636	-0.137
-390.063	-27.121	-0.656	-0.382
-389.048	-200.000	-0.070	-0.587
-388.033	800.000	0.102	-0.371
-387.019	-200.000	-0.003	-0.218
-386.004	268.140	0.166	-0.290
-384.990	-100.324	-0.467	0.116
-383.975	-137.208	0.653	0.074
-382.960	-114.168	1.414	0.273
-381.946	-75.111	0.612	0.218
-380.931	-200.000	-0.035	-0.312
-379.917	-52.124	-0.459	0.213
-378.902	663.101	-0.232	-0.597
-377.888	-147.973	-0.652	0.054
-376.873	-106.477	-0.702	-0.156
-375.858	-200.000	-0.029	0.185
-374.844	-145.897	-0.159	0.014
-373.829	-8.474	0.091	0.061
-372.815	-111.637	0.383	-0.077
-371.800	-134.803	-0.801	0.097
-370.785	-149.921	0.498	-0.039
-369.771	661.038	-0.156	0.401
-368.756	-42.871	0.542	-0.274
-367.742	-200.000	0.184	-0.954
-366.727	-200.000	0.240	-1.128
-365.712	219.618	0.183	-0.292
-364.698	-130.679	-0.587	0.079
-363.683	-200.000	0.088	-0.965
-362.669	-200.000	-0.059	-0.803
-361.654	-18.245	-0.547	-0.341
-360.639	-60.086	0.978	-0.416
-359.625	800.000	-0.268	0.862
-358.610	251.917	0.260	0.442
-357.596	-103.658	-0.099	-0.023
-356.581	-200.000	-0.046	-0.392
-355.566	-22.010	0.919	-0.556
-354.552	-96.942	-1.045	-0.273
-353.537	-90.521	0.117	-0.034
-352.523	196.047	0.341	0.518
-351.508	-57.896	-0.631	0.275
-350.493	-88.657	-0.576	0.171
-349.479	-64.448	-0.608	0.246
-348.464	-114.510	-0.345	-0.066
-347.450	196.272	0.354	0.537
-346.435	-200.000	-0.160	-0.754
-345.420	-154.137	0.125	-0.008
-344.406	-45.943	-0.668	0.329
-343.391	34.788	-0.458	0.399
-342.377	-138.251	0.692	-0.076
-341.362	800.000	0.181	-0.735
-340.348	13.079	0.531	0.409
-339.333	-14.275	0.609	0.391
-338.318	123.888	-0.111	-0.139
-337.304	543.470	-0.145	-0.344
-336.289	800.000	0.023	-0.064
-335.275	122.424	-0.326	-0.406
-334.260	-151.373	0.182	-0.013
-333.245	-57.721	0.640	-0.279
-332.231	-153.839	-0.188	0.013
-331.216	-167.216	0.878	-0.035
-330.202	-200.000	0.057	0.436
-329.187	800.000	0.220	0.774
-328.172	74.403	0.576	0.603
-327.158	646.631	-0.305	-0.777
-326.143	-17.869	-0.298	-0.186
-325.129	33.991	-0.600	0.521
-324.114	116.722	0.278	-0.340
-323.099	401.259	-0.221	-0.463
-322.085	416.152	-0.103	0.219
-321.070	47.766	-0.905	0.841
-320.056	111.752	0.333	0.400
-319.041	621.374	-0.333	0.834
-318.026	800.000	0.155	0.502
-317.012	-188.040	1.021	0.013
-315.997	1.456	-0.736	0.527
-314.983	107.090	-0.157	-0.185
-313.968	-13.546	0.200	-0.129
-312.953	-200.000	-0.008	0.123
-311.939	-120.872	-0.482	0.081
-310.924	800.000	-0.135	0.475
-309.910	71.753	0.440	0.455
-308.895	-61.859	-0.450	-0.187
-307.880	353.781	0.076	0.150
-306.866	69.096	0.403	0.412
-305.851	-34.694	0.373	-0.203
-304.837	0.471	-0.668	-0.475
-303.822	180.729	-0.237	0.346
-302.807	-200.000	0.004	0.408
-301.793	-121.403	0.430	-0.071
-300.778	-53.622	0.187	0.085
-299.764	800.000	0.040	-0.140
-298.749	-22.807	0.581	-0.349
-297.735	122.142	-0.543	0.674
-296.720	-77.140	-0.970	-0.336
-295.705	99.042	-0.396	-0.455
-294.691	-55.520	0.954	-0.425
-293.676	-113.369	0.601	-0.117
-292.662	6.831	-0.168	0.124
-291.647	98.448	-0.332	-0.381
-290.632	38.162	-0.262	0.232
-289.618	194.889	0.578	0.872
-288.603	-111.217	-0.686	0.140
-287.589	-200.000	0.110	0.734
-286.574	-8.917	0.113	0.076
-285.559	-200.000	-0.052	0.922
-284.545	-174.807	-0.713	0.020
-283.530	800.000	-0.050	-0.214
-282.516	-110.981	-0.687	-0.140
-281.501	800.000	-0.221	-0.684
-280.486	-200.000	-0.042	-0.232
-279.472	301.340	-0.545	-1.000
-278.457	-200.000	-0.040	-0.649
-277.443	-159.760	-0.481	0.026
-276.428	-14.868	0.633	0.403
-275.413	82.242	-0.491	-0.530
-274.399	-200.000	-0.031	-0.487
-273.384	295.548	-0.383	0.696
-272.370	-97.465	0.446	-0.115
-271.355	-67.422	-1.590	-0.620
-270.340	-157.736	-0.607	-0.036
-269.326	-99.609	-0.436	0.109
-268.311	-11.435	-0.489	-0.320
-267.297	-136.451	0.523	-0.060
-266.282	-131.185	-0.751	0.099
-265.267	-58.271	0.687	0.297
-264.253	-200.000	0.093	0.783
-263.238	26.888	-0.536	-0.446
-262.224	544.901	0.255	-0.606
-261.209	67.495	0.258	-0.262
-260.195	-70.892	-0.447	-0.167
-259.180	-137.879	1.011	-0.112
-258.165	-65.636	0.393	0.157
-257.151	572.363	-0.155	0.375
-256.136	800.000	-0.190	-0.629
-255.122	-87.877	0.644	-0.192
-254.107	-200.000	0.052	0.610
-253.092	-87.161	0.448	0.135
-252.078	128.620	0.615	-0.778
-251.063	800.000	-0.192	0.555
-250.049	-32.083	-0.275	-0.153
-249.034	-198.477	0.299	0.002
-248.019	800.000	0.202	-0.774
-247.005	-60.898	-0.399	-0.167
-245.990	800.000	-0.139	0.519
-244.976	-200.000	0.004	-0.195
-243.961	-55.254	0.713	-0.318
-242.946	-108.558	0.318	0.068
-241.932	183.889	0.401	0.588
-240.917	-200.000	0.054	0.330
-239.903	-79.641	-0.318	0.107
-238.888	-145.246	-0.520	-0.047
-237.873	-94.601	-0.066	0.018
-236.859	-11.395	-0.601	0.392
-235.844	-200.000	0.115	0.877
-234.830	528.239	0.024	-0.055
-233.815	266.659	0.209	-0.363
-232.800	800.000	0.054	0.196
-231.786	538.465	-0.181	-0.427
-230.771	224.838	-0.160	0.256
-229.757	1.375	0.308	-0.220
-228.742	-74.565	-0.731	-0.261
-227.727	-30.822	0.916	0.514
-226.713	-200.000	0.147	-0.753
-225.698	-130.303	0.465	-0.063
-224.684	419.233	0.172	0.365
-223.669	135.885	0.592	0.765
-222.655	241.692	-0.393	0.651
-221.640	237.740	0.474	0.780
-220.625	-152.494	0.279	0.020
-219.611	116.486	-0.279	0.340
-218.596	-200.000	-0.010	0.148
-217.582	213.977	-0.143	0.224
-216.567	47.275	0.581	-0.537
-215.552	-20.263	-0.334	-0.204
-214.538	-147.257	-0.419	0.035
-213.523	-28.200	0.310	-0.178
-212.509	-164.938	-0.572	0.025
-211.494	-200.000	0.054	0.360
-210.479	168.890	-0.097	-0.137
-209.465	-182.897	0.368	-0.007
-208.450	769.628	-0.160	-0.432
-207.436	-90.368	0.423	0.122
-206.421	183.595	-0.069	0.101
-205.406	-33.373	-0.725	0.397
-204.392	-200.000	-0.035	-0.546
-203.377	-163.125	-0.809	-0.039
-202.363	800.000	0.127	-0.406
-201.348	800.000	-0.046	-0.154
-200.333	220.486	-0.117	0.186
-199.319	-33.838	-0.526	0.287
-198.304	-79.509	-0.153	-0.051
-197.290	800.000	0.071	0.281
-196.275	10.598	0.173	0.130
-195.260	-200.000	0.020	0.129
-194.246	-113.402	0.745	0.145
-193.231	-200.000	-0.060	-0.548
-192.217	-200.000	-0.018	-0.488
-191.202	-200.000	-0.069	0.689
-190.187	-151.450	0.326	0.024
-189.173	8.963	0.320	0.239
-188.158	196.452	-0.307	0.464
-187.144	-200.000	-0.600	0.000
-186.129	-158.243	1.034	0.060
-185.114	-58.075	-0.674	-0.291
-184.100	-200.000	-0.049	-0.373
-183.085	22.956	-0.804	-0.653
-182.071	-200.000	0.063	-0.306
-181.056	-170.483	1.060	0.037
-180.042	-129.895	-0.405	0.055
-179.027	-53.311	-0.478	0.217
-178.012	-200.000	0.019	-0.405
-176.998	-65.638	0.150	-0.059
-175.983	800.000	0.134	0.474
-174.969	-71.170	-0.981	0.365
-173.954	-181.476	0.541	-0.010
-172.939	800.000	-0.129	0.388
-171.925	26.296	-0.522	-0.432
-170.910	-76.946	0.183	0.063
-169.896	800.000	-0.077	0.283
-168.881	105.997	-0.771	-0.903
-167.866	-200.000	-0.074	-0.509
-166.852	338.117	-0.410	-0.789
-165.837	-8.729	0.637	-0.423
-164.823	-200.000	0.133	-0.924
-163.808	-200.000	0.098	0.477
-162.793	-106.028	0.272	0.061
-161.779	-57.922	-0.497	0.215
-160.764	592.559	0.494	-1.207
-159.750	-83.322	-0.472	-0.150
-158.735	-200.000	0.000	0.308
-157.720	-200.000	-0.230	1.005
-156.706	246.188	0.224	-0.374
-155.691	800.000	-0.041	-0.117
-154.677	117.119	0.375	-0.456
-153.662	99.748	-0.045	-0.051
-152.647	742.283	-0.015	-0.041
-151.633	721.541	0.202	-0.532
-150.618	151.140	0.305	-0.411
-149.604	-200.000	0.006	0.699
-148.589	-97.979	-0.794	-0.203
-147.574	116.286	0.435	-0.528
-146.560	-80.194	0.552	-0.183
-145.545	-99.706	-0.462	0.114
-144.531	-160.897	0.855	-0.045
-143.516	-97.687	0.137	-0.035
-142.502	129.800	-0.550	0.695
-141.487	-200.000	0.088	-0.833
-140.472	647.714	-0.143	-0.360
-139.458	800.000	0.123	0.411
-138.443	12.912	-0.159	0.122
-137.429	800.000	-0.179	-0.511
-136.414	-8.654	-0.189	0.125
-135.399	743.460	0.508	1.350
-134.385	800.000	-0.154	0.492
-133.370	8.940	-0.571	0.426
-132.356	530.624	-0.256	0.599
-131.341	300.891	0.376	-0.686
-130.326	-200.000	-0.077	-0.346
-129.312	220.297	0.263	0.416
-128.297	800.000	-0.125	0.462
-127.283	634.848	0.305	-0.765
-126.268	-25.570	0.686	0.400
-125.253	305.573	-0.035	-0.063
-124.239	22.866	-0.691	-0.559
-123.224	240.327	-0.239	-0.393
-122.210	231.509	-0.208	-0.337
-121.195	-200.000	0.036	0.359
-120.180	-180.642	0.497	0.010
-119.166	26.237	0.722	-0.595
-118.151	-200.000	-0.001	0.490
-117.137	369.461	-0.492	-0.985
-116.122	21.394	-0.493	0.396
-115.107	78.926	0.659	-0.697
-114.093	136.404	-0.705	-0.909
-113.078	556.567	0.253	0.603
-112.064	262.240	-0.516	0.883
-111.049	30.049	-0.319	0.269
-110.034	-130.090	-0.585	-0.079
-109.020	278.555	0.228	-0.401
-108.005	-91.303	0.076	0.021
-106.991	-200.000	0.019	0.167
-105.976	17.367	0.228	0.179
-104.962	-119.812	0.287	0.049
-103.947	-200.000	-0.043	0.380
-102.932	41.921	0.197	0.177
-101.918	800.000	-0.222	-0.643
-100.903	-83.863	-0.412	-0.130
-99.889	247.179	0.214	-0.356
-98.874	122.919	0.365	-0.451
-97.859	800.000	0.234	0.704
-96.845	34.535	0.254	0.219
-95.830	-123.827	0.455	0.071
-94.816	-200.000	0.018	0.111
-93.801	79.697	0.383	0.406
-92.786	-200.000	0.014	0.498
-91.772	-168.008	0.290	0.011
-90.757	-30.010	-0.305	-0.171
-89.743	-36.552	0.247	-0.131
-88.728	255.621	-0.211	-0.357
-87.713	-37.717	0.486	-0.255
-86.699	58.967	0.386	0.374
-85.684	-24.695	0.228	0.134
-84.670	548.084	-0.048	0.114
-83.655	800.000	-0.207	-0.622
-82.640	96.071	0.481	0.542
-81.626	-35.278	0.335	-0.180
-80.611	0.851	0.319	0.225
-79.597	185.058	-0.395	0.578
-78.582	21.640	0.137	0.110
-77.567	244.843	0.377	0.624
-76.553	-65.979	0.183	-0.072
-75.538	54.216	0.743	-0.705
-74.524	-24.871	0.331	0.194
-73.509	-125.360	-0.607	-0.091
-72.494	52.143	-0.233	-0.219
-71.480	-200.000	-0.090	-0.414
-70.465	800.000	0.158	-0.634
-69.451	-200.000	0.095	-0.614
-68.436	-200.000	-0.001	-0.516
-67.422	91.123	-0.486	-0.537
-66.407	-23.856	0.857	0.506
-65.392	325.755	0.456	-0.860
-64.378	110.045	0.415	0.491
-63.363	80.049	0.235	-0.249
-62.349	67.675	-0.198	0.199
-61.334	-72.049	-1.033	-0.378
-60.319	17.561	0.689	0.540
-59.305	-200.000	-0.189	-0.995
-58.290	-70.655	1.264	0.471
-57.276	531.126	0.759	1.767
-56.261	-200.000	94.669	567.750
-55.246	632.421	1371.379	3422.859
-54.232	199.280	2542.184	3839.149
-53.217	117.600	2133.777	2587.062
-52.203	44.863	1599.734	1450.584
-51.188	36.967	1339.572	1167.322
-50.173	33.634	1298.334	1111.841
-49.159	57.043	1347.577	1294.182
-48.144	57.925	1364.715	1315.841
-47.130	37.123	1321.269	1152.116
-46.115	33.536	1304.482	1116.354
-45.100	33.155	1300.751	1110.880
-44.086	33.269	1296.624	1107.979
-43.071	33.009	1294.649	1104.723
-42.057	33.103	1292.749	1103.609
-41.042	33.159	1291.762	1103.050
-40.027	33.430	1289.320	1102.499
-39.013	33.578	1287.044	1101.368
-37.998	33.460	1285.626	1099.426
-36.984	33.330	1284.095	1097.319
-35.969	33.352	1283.139	1096.588
-34.954	33.397	1281.182	1095.129
-33.940	33.328	1280.050	1093.722
-32.925	33.520	1277.949	1092.989
-31.911	33.727	1276.612	1092.992
-30.896	33.489	1275.141	1090.324
-29.881	33.466	1274.462	1089.566
-28.867	33.345	1272.566	1087.207
-27.852	33.480	1270.919	1086.531
-26.838	33.424	1270.540	1085.846
-25.823	33.426	1268.001	1083.645
-24.809	33.663	1266.663	1083.810
-23.794	33.350	1265.814	1081.255
-22.779	33.227	1265.602	1080.327
-21.765	33.466	1263.252	1079.642
-20.750	33.454	1262.217	1078.642
-19.736	33.431	1260.411	1076.927
-18.721	33.295	1259.549	1075.376
-17.706	33.458	1258.158	1075.069
-16.692	33.450	1256.893	1073.899
-15.677	33.229	1257.608	1073.214
-14.663	33.322	1255.039	1071.508
-13.648	33.463	1253.726	1071.144
-12.633	33.178	1254.434	1070.088
-11.619	33.215	1252.457	1068.570
-10.604	33.529	1251.716	1069.669
-9.590	33.314	1251.012	1067.811
-8.575	33.154	1249.849	1065.877
-7.560	32.898	1249.746	1064.300
-6.546	33.259	1248.321	1065.079
-5.531	33.305	1247.263	1064.391
-4.517	33.383	1245.947	1063.664
-3.502	33.401	1245.704	1063.516
-2.487	33.411	1244.725	1062.696
-1.473	33.242	1241.253	1058.740
-0.458	31.852	1226.296	1038.254
0.556	28.773	1208.251	997.727
1.571	24.881	1213.782	980.926
2.586	23.933	1228.633	987.578
3.600	23.360	1217.760	975.597
4.615	17.216	1145.346	885.584
5.629	7.329	1070.109	778.968
6.644	3.158	1049.681	743.897
7.659	2.981	1045.693	740.151
8.673	2.987	1044.804	739.486
9.688	2.714	1043.139	736.930
10.702	3.108	1042.357	738.204
11.717	9.056	1051.269	773.171
12.731	19.196	1065.342	832.723
13.746	24.326	1071.699	862.498
14.761	25.082	1072.761	866.936
15.775	25.260	1072.190	867.256
16.790	25.326	1071.132	866.640
17.804	25.027	1070.567	864.664
18.819	25.052	1070.425	864.596
19.834	25.224	1069.756	864.808
20.848	25.796	1068.422	866.405
21.863	25.494	1069.451	865.709
22.877	25.804	1067.619	865.639
23.892	25.637	1066.032	863.475
24.907	25.276	1066.221	861.816
25.921	25.058	1066.594	860.995
26.936	25.063	1064.675	859.396
27.950	25.334	1063.009	859.272
28.965	25.375	1060.945	857.725
29.980	25.639	1058.389	856.836
30.994	25.358	1059.203	856.082
32.009	25.316	1057.656	854.554
33.023	25.438	1056.544	854.161
34.038	25.158	1056.320	852.574
35.053	25.035	1055.612	851.342
36.067	25.651	1053.654	852.607
37.082	25.428	1053.589	851.425
38.096	25.399	1053.494	851.132
39.111	25.293	1053.236	850.349
40.126	25.545	1050.529	849.279
41.140	25.210	1049.871	847.092
42.155	24.849	1048.391	844.116
43.169	25.061	1046.859	843.807
44.184	25.091	1046.374	843.482
45.199	24.965	1045.457	842.077
46.213	25.458	1043.825	843.003
47.228	25.403	1044.272	843.031
48.242	25.174	1044.045	841.699
49.257	25.691	1041.903	842.318
50.271	25.502	1042.194	841.595
51.286	25.417	1040.235	839.541
52.301	25.469	1040.761	840.131
53.315	25.587	1038.530	838.806
54.330	25.346	1037.496	836.776
55.344	25.615	1038.236	838.554
56.359	25.533	1036.589	836.765
57.374	25.163	1035.603	834.175
58.388	25.378	1034.495	834.209
59.403	25.263	1033.783	833.025
60.417	25.040	1033.002	831.289
61.432	24.940	1033.010	830.759
62.447	25.250	1032.343	831.586
63.461	25.328	1031.073	830.851
64.476	25.137	1031.213	830.003
65.490	24.996	1030.339	828.576
66.505	25.203	1029.210	828.549
67.520	25.036	1029.029	827.559
68.534	24.571	1027.852	824.395
69.549	24.765	1027.252	824.734
70.563	24.695	1026.161	823.465
71.578	24.807	1024.835	822.844
72.593	24.524	1023.976	820.779
73.607	24.628	1023.081	820.466
74.622	24.993	1023.118	822.101
75.636	25.182	1022.019	822.009
76.651	25.214	1021.111	821.352
77.666	25.046	1021.395	820.741
78.680	24.978	1020.115	819.329
79.695	24.696	1020.125	817.975
80.709	24.779	1020.215	818.353
81.724	25.076	1018.215	818.031
82.739	25.207	1017.685	818.133
83.753	25.545	1016.606	818.731
84.768	25.895	1017.128	820.672
85.782	25.986	1016.000	820.106
86.797	25.915	1014.094	818.168
87.812	25.702	1013.484	816.638
88.826	25.371	1013.822	815.339
89.841	25.713	1012.301	815.593
90.855	25.702	1011.202	814.585
91.870	25.834	1010.984	814.936
92.884	25.780	1008.700	812.777
93.899	25.470	1008.589	811.217
94.914	25.724	1007.350	811.294
95.928	25.838	1005.769	810.462
96.943	25.616	1005.384	809.082
97.957	25.253	1005.301	807.311
98.972	25.532	1003.137	806.752
99.987	25.653	1002.895	807.027
101.001	25.715	1001.686	806.261
102.016	25.688	1001.156	805.643
103.030	25.492	999.461	803.332
104.045	25.294	999.262	802.217
105.060	25.362	997.863	801.327
106.074	25.781	997.118	802.523
107.089	25.570	996.539	801.048
108.103	25.576	995.653	800.289
109.118	25.743	994.124	799.733
110.133	25.202	993.550	796.800
111.147	24.982	992.528	794.933
112.162	24.952	991.721	794.082
113.176	25.232	991.861	795.365
114.191	25.335	989.976	794.240
115.206	25.246	989.175	793.131
116.220	24.636	989.143	790.342
117.235	25.032	987.533	790.734
118.249	24.978	988.018	790.813
119.264	24.769	985.581	787.870
120.279	25.081	984.895	788.626
121.293	25.141	983.690	787.855
122.308	25.274	982.728	787.599
123.322	25.021	981.966	785.807
124.337	24.678	981.816	784.114
125.352	24.586	980.457	782.559
126.366	24.896	978.654	782.403
127.381	24.699	980.329	782.813
128.395	25.285	979.326	784.504
129.410	25.384	978.226	783.986
130.424	25.647	976.452	783.640
131.439	25.698	976.530	783.855
132.454	25.548	975.878	782.610
133.468	25.382	974.786	780.941
134.483	25.661	974.112	781.547
135.497	25.688	973.948	781.463
136.512	25.704	972.458	780.269
137.527	25.637	971.356	779.023
138.541	25.738	970.275	778.523
139.556	25.867	970.017	778.805
140.570	26.033	968.831	778.502
141.585	25.952	968.350	777.697
142.600	25.854	967.290	776.353
143.614	26.230	966.987	777.661
144.629	26.256	966.054	776.957
145.643	25.846	964.987	774.268
146.658	25.861	963.494	773.063
147.673	25.667	963.044	771.804
148.687	25.585	961.681	770.293
149.702	25.680	960.525	769.703
150.716	25.797	959.274	769.131
151.731	25.498	959.681	768.113
152.746	26.016	958.662	769.439
153.760	25.970	957.912	768.574
154.775	25.761	957.670	767.420
155.789	26.078	957.054	768.209
156.804	25.874	955.845	766.304
157.819	26.186	955.389	767.198
158.833	26.092	954.008	765.619
159.848	25.865	954.488	764.973
160.862	25.897	952.560	763.498
161.877	26.155	950.646	762.984
162.892	26.351	949.475	762.808
163.906	25.787	950.029	760.801
164.921	26.128	947.948	760.505
165.935	25.781	948.163	759.148
166.950	26.178	946.658	759.543
167.964	26.204	945.727	758.839
168.979	25.806	944.132	755.823
169.994	26.020	943.271	755.967
171.008	25.824	943.901	755.579
172.023	26.164	943.394	756.533
173.037	26.162	941.992	755.333
174.052	25.966	940.205	753.015
175.067	25.834	940.046	752.272
176.081	25.682	940.559	751.981
177.096	25.733	939.669	751.413
178.110	25.644	937.971	749.618
179.125	25.291	937.441	747.658
180.140	25.515	936.876	748.072
181.154	25.654	937.370	748.982
182.169	25.429	937.447	748.042
183.183	25.839	936.815	749.173
184.198	25.967	935.132	748.295
185.213	25.549	934.844	746.263
186.227	25.804	934.030	746.602
187.242	26.208	932.959	747.356
188.256	26.280	931.844	746.693
189.271	26.162	932.031	746.287
190.286	25.770	930.865	743.669
191.300	25.157	929.256	739.792
192.315	24.474	928.349	736.187
193.329	24.594	927.941	736.292
194.344	25.782	927.458	740.737
195.359	25.958	927.209	741.193
196.373	25.845	927.882	741.204
197.388	25.955	927.185	741.030
198.402	26.375	925.558	741.389
199.417	26.212	925.568	740.661
200.432	26.060	925.512	739.929
201.446	25.826	924.369	737.991
202.461	25.726	924.198	737.378
203.475	25.011	922.252	732.836
204.490	24.373	920.783	729.000
205.504	25.104	921.946	732.845
206.519	25.939	920.274	734.855
207.534	26.158	919.843	735.341
208.548	25.920	920.741	735.023
209.563	25.973	919.275	734.002
210.577	25.886	918.834	733.233
211.592	26.152	918.622	734.080
212.607	26.291	916.978	733.266
213.621	26.262	916.674	732.839
214.636	26.364	915.491	732.241
215.650	26.382	914.879	731.761
216.665	26.411	914.759	731.717
217.680	26.240	914.315	730.607
218.694	25.628	914.324	728.071
219.709	25.797	911.825	726.701
220.723	26.172	912.075	728.346
221.738	26.203	910.957	727.514
222.753	26.034	911.006	726.809
223.767	25.888	911.090	726.226
224.782	26.432	910.392	727.793
225.796	26.291	908.887	725.960
226.811	25.607	908.382	722.744
227.826	25.480	906.265	720.487
228.840	25.375	906.633	720.293
229.855	25.158	907.163	719.781
230.869	25.379	904.846	718.763
231.884	25.547	904.898	719.413
232.899	25.942	904.716	720.784
233.913	25.760	904.680	719.964
234.928	25.943	903.708	719.858
235.942	25.757	902.200	717.852
236.957	25.469	901.573	716.141
237.972	25.380	901.041	715.303
238.986	25.767	900.904	716.669
240.001	25.990	899.918	716.709
241.015	25.684	899.801	715.337
242.030	25.767	898.816	714.818
243.045	25.904	899.467	715.816
244.059	26.437	898.616	717.190
245.074	26.304	896.925	715.252
246.088	25.994	896.202	713.385
247.103	25.924	896.422	713.222
248.117	26.673	896.104	715.865
249.132	26.719	896.056	715.945
250.147	26.892	895.434	716.067
251.161	27.049	895.664	716.809
252.176	26.811	894.590	714.946
253.190	27.114	893.265	715.018
254.205	27.329	892.882	715.493
255.220	27.007	892.553	713.901
256.234	27.071	892.128	713.750
257.249	26.298	892.237	710.733
258.263	26.952	890.279	711.677
259.278	26.978	890.206	711.657
260.293	27.093	889.575	711.541
261.307	26.709	889.036	709.544
262.322	26.637	889.036	709.199
263.336	26.309	886.546	705.868
264.351	25.430	884.388	700.662
265.366	25.407	885.283	701.219
266.380	25.991	885.233	703.397
267.395	26.217	884.866	703.924
268.409	26.560	884.567	704.961
269.424	27.050	883.517	705.963
270.439	26.639	882.494	703.490
271.453	26.990	881.211	703.765
272.468	27.123	881.819	704.705
273.482	27.329	880.537	704.415
274.497	26.569	880.579	701.443
275.512	26.287	879.674	699.568
276.526	27.055	878.772	701.758
277.541	26.967	878.969	701.514
278.555	26.843	878.090	700.271
279.570	26.540	878.237	699.154
280.585	26.793	877.617	699.578
281.599	26.672	875.848	697.639
282.614	26.284	874.345	694.890
283.628	26.158	874.303	694.308
284.643	26.362	874.424	695.126
285.657	26.032	873.304	692.907
286.672	25.901	872.614	691.799
287.687	26.457	872.426	693.721
288.701	26.754	870.942	693.613
289.716	26.295	871.110	691.929
290.730	26.212	870.456	691.031
291.745	25.738	869.473	688.377
292.760	26.322	869.281	690.398
293.774	26.745	870.073	692.581
294.789	27.386	869.213	694.282
295.803	27.163	869.005	693.202
296.818	27.470	867.722	693.287
297.833	27.295	866.464	691.556
298.847	26.822	865.913	689.258
299.862	27.278	865.779	690.822
300.876	27.370	866.033	691.314
301.891	27.409	865.682	691.119
302.906	27.076	864.178	688.598
303.920	27.594	862.758	689.365
304.935	27.428	863.619	689.363
305.949	27.370	863.110	688.675
306.964	26.983	862.711	686.831
307.979	26.921	862.508	686.376
308.993	27.670	861.767	688.555
310.008	27.837	860.553	688.154
311.022	27.567	859.515	686.247
312.037	27.307	859.307	685.039
313.052	26.807	858.995	682.847
314.066	26.266	857.372	679.462
315.081	25.820	855.991	676.632
316.095	26.531	857.446	680.396
317.110	26.942	857.078	681.589
318.125	26.110	855.864	677.441
319.139	25.310	854.185	673.056
320.154	25.229	853.559	672.201
321.168	26.189	853.751	675.887
322.183	26.971	853.162	678.282
323.197	27.143	852.245	678.135
324.212	27.386	852.052	678.831
325.227	26.962	852.867	677.835
326.241	26.765	851.779	676.176
327.256	27.065	850.982	676.600
328.270	27.084	850.233	676.018
329.285	26.758	849.331	674.025
330.300	26.391	849.039	672.372
331.314	26.609	849.218	673.264
332.329	27.076	848.340	674.244
333.343	27.258	848.321	674.844
334.358	27.100	847.444	673.499
335.373	27.222	847.306	673.782
336.387	27.526	847.701	675.164
337.402	27.806	846.970	675.560
338.416	27.490	847.209	674.520
339.431	27.846	846.524	675.232
340.446	27.847	846.984	675.542
341.460	27.525	845.987	673.499
342.475	27.936	844.456	673.736
343.489	27.986	844.132	673.600
344.504	27.986	844.560	673.885
345.519	27.993	843.748	673.201
346.533	28.160	844.077	674.020
347.548	27.877	843.116	672.150
348.562	28.021	842.834	672.396
349.577	27.786	842.356	671.090
350.592	27.764	841.912	670.596
351.606	27.945	840.289	669.911
352.621	27.543	839.455	667.712
353.635	28.096	838.560	668.964
354.650	27.128	837.660	664.648
355.665	26.389	836.448	660.927
356.679	26.620	837.187	662.300
357.694	27.149	836.571	663.685
358.708	26.953	836.282	662.683
359.723	27.484	835.246	663.740
360.738	28.009	834.336	664.867
361.752	27.950	833.571	663.983
362.767	28.253	833.953	665.330
363.781	28.548	833.692	666.135
364.796	28.270	832.906	664.439
365.810	28.346	833.331	664.995
366.825	28.479	831.947	664.316
367.840	28.172	830.903	662.310
368.854	27.671	831.036	660.542
369.869	27.943	829.880	660.552
370.883	28.330	829.413	661.517
371.898	28.049	829.691	660.666
372.913	28.050	828.846	659.938
373.927	27.989	827.981	658.972
374.942	27.945	828.948	659.524
375.956	28.191	827.710	659.367
376.971	28.534	826.649	659.695
377.986	28.523	827.243	660.073
379.000	28.135	826.866	658.317
380.015	28.058	825.988	657.285
381.029	28.080	825.622	657.015
382.044	28.357	825.188	657.607
383.059	28.554	823.629	657.010
384.073	28.686	823.767	657.534
385.088	28.359	823.467	656.066
386.102	28.321	822.000	654.703
387.117	28.194	821.943	654.145
388.132	27.509	821.190	651.041
389.146	27.171	820.134	648.939
390.161	28.016	819.907	651.717
391.175	28.018	819.380	651.248
392.190	27.718	818.399	649.343
393.205	26.325	816.437	642.778
394.219	25.224	815.023	637.697
395.234	24.873	814.971	636.355
396.248	26.723	815.568	643.338
397.263	28.000	815.947	648.111
398.278	27.712	816.406	647.397
399.292	27.660	815.658	646.563
400.307	27.583	815.678	646.247
401.321	27.634	814.955	645.797
402.336	28.289	814.072	647.359
403.350	28.820	814.768	649.732
404.365	28.800	814.268	649.203
405.380	28.850	813.089	648.384
406.394	28.889	813.613	648.882
407.409	29.033	813.222	649.020
408.423	28.995	812.464	648.226
409.438	29.072	811.435	647.616
410.453	28.888	810.608	646.252
411.467	28.474	811.493	645.444
412.482	29.249	810.439	647.272
413.496	28.758	810.499	645.537
414.511	28.909	810.250	645.813
415.526	28.824	810.293	645.493
416.540	28.699	809.500	644.365
417.555	28.768	808.284	643.580
418.569	28.219	808.766	641.981
419.584	28.651	807.394	642.349
420.599	28.388	806.428	640.603
421.613	159.454	1371.301	1793.277
422.628	138.568	1453.640	1793.334
