DTS Sentinel unit serial number:	SN413079Multiplexer serial number:	ORYXHardware model number:	OX4-SRSoftware version number:	ORYX F/W v4.00 Oryx Data Collector v3.7.2.0data status	okinstallation	princeton_trtdifferential loss correction	single-endedforward channel	channel 1reverse channel	N/Adate	2019/09/16time	17:42:35forward acquisition time	60.00reverse acquisition time	0.00gamma	496.2192k internal	0.2298k external	0.2298temperature offset calibration	0.9969default loss term (dB/km)	0.3790temperature slope calibration	1.0000multiplexer offset coefficient	1.0000multiplexer slope coefficient	1.0000fibre end	0.00T internal ref (°C)	38.12T ext. ref 1 (°C)	15.56T ext. ref 2 (°C)	32.17length (m)	temperature (°C)	Stokes	anti-Stokes-747.200	301.427	0.109	0.205
-746.185	-36.093	0.161	0.089
-745.171	332.731	-0.109	0.214
-744.156	164.873	-0.239	0.345
-743.142	441.879	-0.162	0.363
-742.127	-75.544	-0.277	0.101
-741.112	-140.286	0.192	-0.020
-740.098	-25.207	-0.144	0.087
-739.083	18.971	-0.074	-0.061
-738.069	-117.313	-0.379	0.070
-737.054	-111.365	-0.045	0.009
-736.039	9.375	-0.083	-0.064
-735.025	-55.756	0.099	0.045
-734.010	-116.617	-0.192	0.036
-732.996	405.537	-0.060	-0.130
-731.981	-170.969	-0.117	-0.004
-730.966	-183.271	0.306	0.005
-729.952	-83.647	-0.297	-0.097
-728.937	-200.000	0.021	-0.192
-727.923	195.804	-0.084	-0.130
-726.908	-200.000	-0.019	0.246
-725.894	-124.484	0.051	0.008
-724.879	-145.368	-0.174	-0.016
-723.864	246.114	0.053	0.090
-722.850	-200.000	0.020	0.185
-721.835	274.093	-0.019	0.033
-720.821	-145.821	0.448	-0.041
-719.806	8.392	-0.184	0.141
-718.791	386.599	-0.156	0.328
-717.777	-200.000	-0.006	-0.167
-716.762	160.943	-0.206	0.293
-715.748	-200.000	-0.027	0.287
-714.733	65.740	-0.245	-0.253
-713.718	-29.152	0.083	0.049
-712.704	24.110	-0.095	0.080
-711.689	800.000	0.057	-0.194
-710.675	-27.576	0.091	0.054
-709.660	48.061	-0.087	0.083
-708.645	-53.046	0.175	-0.082
-707.631	-136.929	-0.441	-0.052
-706.616	48.721	0.155	-0.148
-705.602	212.121	-0.211	-0.339
-704.587	800.000	0.052	-0.216
-703.572	-35.471	0.114	-0.063
-702.558	70.595	0.302	-0.319
-701.543	125.769	0.101	-0.131
-700.529	-69.401	-0.227	-0.089
-699.514	-200.000	0.031	0.194
-698.499	-39.161	0.081	0.043
-697.485	127.006	0.247	0.319
-696.470	-70.093	0.118	-0.046
-695.456	-60.644	-0.094	0.041
-694.441	492.157	-0.144	-0.336
-693.426	25.567	-0.205	0.174
-692.412	800.000	0.062	-0.234
-691.397	24.957	0.271	0.229
-690.383	-1.110	-0.311	0.224
-689.368	-200.000	-0.004	0.384
-688.354	-72.328	-0.503	-0.190
-687.339	-200.000	-0.011	0.062
-686.324	70.125	0.220	0.232
-685.310	-71.824	-0.351	0.133
-684.295	-200.000	0.056	-0.352
-683.281	-128.721	0.033	0.005
-682.266	800.000	0.031	0.123
-681.251	800.000	-0.071	-0.227
-680.237	114.802	-0.169	0.209
-679.222	-9.723	-0.092	0.062
-678.208	800.000	0.009	0.034
-677.193	146.340	0.079	0.108
-676.178	94.670	-0.068	-0.079
-675.164	800.000	-0.028	-0.121
-674.149	-200.000	-0.013	-0.298
-673.135	-3.937	-0.163	0.115
-672.120	-99.920	-0.388	-0.099
-671.105	800.000	-0.157	0.490
-670.091	105.579	-0.039	0.046
-669.076	-88.136	-0.313	0.096
-668.062	316.506	0.165	-0.317
-667.047	-22.283	0.173	-0.107
-666.032	65.636	-0.254	-0.262
-665.018	33.005	-0.369	0.325
-664.003	-101.606	0.140	-0.035
-662.989	260.203	0.080	0.141
-661.974	324.160	-0.165	0.320
-660.959	-40.652	0.279	0.147
-659.945	800.000	-0.064	-0.223
-658.930	-42.371	0.212	0.110
-657.916	-129.392	0.438	-0.062
-656.901	101.856	-0.063	-0.075
-655.886	195.257	-0.052	0.080
-654.872	-64.128	0.179	-0.074
-653.857	100.577	0.129	-0.153
-652.843	226.450	0.175	-0.289
-651.828	-136.747	-0.329	-0.039
-650.814	800.000	-0.034	-0.119
-649.799	214.323	0.146	-0.236
-648.784	-59.170	-0.313	0.137
-647.770	-200.000	-0.263	0.000
-646.755	55.561	-0.283	-0.279
-645.741	-26.508	0.117	0.069
-644.726	380.438	0.070	0.146
-643.711	-26.878	-0.160	-0.095
-642.697	-63.243	-0.162	-0.068
-641.682	0.018	-0.231	0.167
-640.668	446.930	0.158	-0.354
-639.653	23.123	0.121	-0.101
-638.638	800.000	-0.061	0.250
-637.624	171.395	0.263	-0.384
-636.609	-200.000	-0.053	0.296
-635.595	800.000	-0.060	-0.170
-634.580	-200.000	0.029	-0.292
-633.565	181.616	-0.088	-0.132
-632.551	-50.147	-0.144	-0.069
-631.536	51.969	0.121	-0.117
-630.522	74.580	0.111	0.119
-629.507	35.843	0.167	0.149
-628.492	-82.962	0.079	-0.026
-627.478	-7.804	-0.169	-0.116
-626.463	-103.934	-0.039	0.009
-625.449	128.440	-0.123	0.160
-624.434	-113.192	0.326	-0.065
-623.419	-27.666	0.122	0.072
-622.405	800.000	0.090	0.377
-621.390	77.295	-0.192	-0.207
-620.376	-82.640	-0.199	-0.066
-619.361	45.569	-0.099	0.093
-618.346	638.147	0.136	0.350
-617.332	-87.868	-0.218	-0.067
-616.317	31.594	-0.111	-0.097
-615.303	-58.516	-0.202	0.089
-614.288	351.312	-0.077	0.155
-613.273	155.997	-0.078	0.109
-612.259	-127.558	-0.336	-0.049
-611.244	524.747	0.151	-0.361
-610.230	-30.451	0.200	-0.115
-609.215	118.514	-0.149	0.186
-608.201	-81.665	0.122	-0.041
-607.186	17.612	-0.104	-0.084
-606.171	-13.717	-0.134	-0.088
-605.157	-200.000	-0.008	0.257
-604.142	-138.193	0.273	-0.031
-603.128	-128.728	-0.580	-0.083
-602.113	-121.582	0.241	-0.041
-601.098	-200.000	0.245	0.001
-600.084	800.000	-0.058	-0.250
-599.069	13.617	0.101	0.080
-598.055	127.524	0.114	0.147
-597.040	-177.396	-0.124	0.003
-596.025	-36.180	-0.173	-0.095
-595.011	-58.958	0.325	0.143
-593.996	-157.074	0.376	0.023
-592.982	163.154	0.162	0.231
-591.967	-102.504	0.116	-0.028
-590.952	-200.000	-0.000	-0.075
-589.938	-63.686	0.105	-0.044
-588.923	800.000	-0.057	-0.177
-587.909	-200.000	0.044	0.456
-586.894	-200.000	-0.017	-0.138
-585.879	62.354	0.221	0.224
-584.865	-108.324	-0.037	0.008
-583.850	-200.000	0.053	-0.427
-582.836	-107.531	0.045	0.010
-581.821	1.831	-0.216	0.158
-580.806	-173.792	-0.232	-0.007
-579.792	800.000	0.078	-0.277
-578.777	557.915	0.097	-0.237
-577.763	396.189	0.157	-0.332
-576.748	-200.000	0.022	-0.189
-575.733	800.000	0.076	-0.294
-574.719	144.624	0.205	-0.278
-573.704	-5.897	0.278	-0.193
-572.690	525.744	-0.050	-0.120
-571.675	800.000	-0.074	-0.316
-570.661	19.337	-0.473	-0.385
-569.646	620.483	-0.087	-0.222
-568.631	-92.996	0.042	0.012
-567.617	-166.007	0.520	0.023
-566.602	-130.330	0.151	-0.021
-565.588	-23.228	0.112	-0.068
-564.573	-200.000	0.009	0.118
-563.558	-48.623	0.262	0.128
-562.544	264.463	0.186	-0.329
-561.529	76.538	-0.037	-0.039
-560.515	800.000	0.036	0.104
-559.500	-90.682	0.125	-0.037
-558.485	-200.000	-0.001	-0.051
-557.471	-85.243	-0.342	0.108
-556.456	-169.663	0.433	-0.016
-555.442	-41.564	0.201	0.105
-554.427	335.863	-0.218	-0.430
-553.412	-200.000	0.073	-0.373
-552.398	12.623	-0.219	0.172
-551.383	-120.096	0.201	0.035
-550.369	-32.809	-0.258	0.145
-549.354	38.381	0.239	0.216
-548.339	-6.851	0.437	0.301
-547.325	-152.298	-0.151	-0.011
-546.310	179.098	0.079	0.117
-545.296	-200.000	0.056	0.271
-544.281	800.000	0.017	0.058
-543.266	800.000	-0.063	-0.258
-542.252	-113.245	0.194	-0.039
-541.237	-168.287	-0.332	-0.013
-540.223	119.516	-0.091	0.114
-539.208	103.726	-0.350	-0.417
-538.193	195.535	0.155	0.239
-537.179	-109.746	-0.119	-0.025
-536.164	-2.869	-0.261	0.185
-535.150	-200.000	0.004	-0.158
-534.135	741.337	-0.069	0.188
-533.121	-17.886	-0.110	0.070
-532.106	40.301	-0.032	0.029
-531.091	-200.000	0.010	0.129
-530.077	-200.000	-0.078	-0.495
-529.062	800.000	-0.128	-0.515
-528.048	-163.913	0.588	-0.028
-527.033	-23.038	-0.443	0.270
-526.018	-56.980	-0.280	-0.125
-525.004	-48.260	0.497	-0.243
-523.989	-5.492	-0.141	0.098
-522.975	-31.399	-0.404	0.230
-521.960	-39.290	0.115	0.061
-520.945	-200.000	0.018	-0.136
-519.931	-157.311	-0.187	0.011
-518.916	318.214	-0.088	-0.168
-517.902	-200.000	-0.047	0.227
-516.887	-167.831	-0.068	-0.003
-515.872	-130.734	-0.248	0.034
-514.858	383.159	0.119	-0.247
-513.843	84.830	-0.118	-0.130
-512.829	198.625	-0.051	-0.080
-511.814	-8.845	0.168	-0.114
-510.799	-109.515	0.013	-0.003
-509.785	108.266	0.156	-0.188
-508.770	179.643	-0.104	0.154
-507.756	-200.000	0.011	-0.251
-506.741	258.155	-0.039	-0.068
-505.726	-145.506	-0.286	0.026
-504.712	-150.274	0.305	0.024
-503.697	47.540	0.134	0.126
-502.683	86.359	-0.244	0.272
-501.668	-73.542	-0.201	0.074
-500.653	69.272	-0.086	-0.089
-499.639	12.930	0.073	-0.057
-498.624	-162.259	-0.210	-0.011
-497.610	800.000	0.048	-0.177
-496.595	-166.986	0.243	0.010
-495.581	78.065	0.057	-0.061
-494.566	-200.000	0.031	-0.253
-493.551	348.205	0.179	-0.356
-492.537	-117.013	0.048	0.009
-491.522	-94.766	0.144	-0.039
-490.508	114.165	0.102	0.126
-489.493	151.590	0.189	0.261
-488.478	228.985	0.080	-0.132
-487.464	-150.612	0.421	0.032
-486.449	-106.971	0.266	-0.060
-485.435	159.568	0.049	0.069
-484.420	-200.000	-0.021	0.360
-483.405	-158.400	-0.145	-0.008
-482.391	662.794	0.058	0.152
-481.376	-123.337	-0.178	-0.029
-480.362	-200.000	-0.003	-0.039
-479.347	585.500	-0.060	-0.150
-478.332	-135.679	-0.150	-0.018
-477.318	513.899	0.070	-0.165
-476.303	-64.178	0.054	-0.022
-475.289	-57.844	-0.315	0.139
-474.274	38.389	-0.053	-0.048
-473.259	-200.000	0.004	0.117
-472.245	106.172	0.114	-0.137
-471.230	-54.103	-0.203	0.093
-470.216	-93.113	0.232	-0.065
-469.201	347.266	-0.176	-0.350
-468.186	-189.785	-0.305	0.004
-467.172	-200.000	-0.054	0.394
-466.157	344.992	-0.056	0.110
-465.143	108.563	0.104	0.126
-464.128	-200.000	-0.048	-0.227
-463.113	-72.603	0.112	-0.042
-462.099	17.428	-0.137	-0.110
-461.084	800.000	-0.049	-0.155
-460.070	-129.170	-0.298	0.042
-459.055	-14.436	-0.125	0.081
-458.040	397.105	-0.183	0.386
-457.026	-181.527	-0.250	-0.005
-456.011	159.521	-0.105	0.148
-454.997	-200.000	-0.028	-0.209
-453.982	-42.035	-0.107	0.055
-452.968	-10.475	-0.220	0.147
-451.953	-200.000	-0.009	-0.048
-450.938	-130.994	-0.129	0.017
-449.924	-21.639	-0.266	0.164
-448.909	-200.000	0.026	-0.186
-447.895	18.172	0.261	-0.210
-446.880	-40.091	0.119	0.063
-445.865	98.688	-0.126	0.147
-444.851	-200.000	0.056	-0.325
-443.836	-69.561	0.310	0.120
-442.822	99.621	0.211	-0.247
-441.807	-200.000	0.021	-0.200
-440.792	-181.503	0.431	-0.008
-439.778	661.562	0.124	-0.322
-438.763	-2.834	-0.115	0.081
-437.749	-101.957	-0.251	0.061
-436.734	-26.193	-0.051	0.030
-435.719	800.000	-0.120	0.383
-434.705	-102.278	-0.413	0.100
-433.690	5.957	-0.322	0.241
-432.676	-123.755	-0.209	-0.033
-431.661	-200.000	-0.034	0.225
-430.646	-34.574	0.214	-0.118
-429.632	-200.000	0.030	0.265
-428.617	-64.259	-0.319	0.131
-427.603	-109.055	0.383	-0.082
-426.588	750.767	-0.079	0.215
-425.573	-35.497	0.061	0.033
-424.559	50.186	-0.143	-0.136
-423.544	800.000	-0.102	-0.284
-422.530	183.605	0.275	0.410
-421.515	122.083	0.082	-0.103
-420.500	-200.000	0.020	-0.519
-419.486	-121.727	-0.373	0.062
-418.471	-53.650	-0.146	0.067
-417.457	800.000	0.069	0.216
-416.442	-99.484	-0.108	0.027
-415.428	15.935	0.118	-0.093
-414.413	25.577	0.250	-0.210
-413.398	458.596	-0.179	-0.401
-412.384	6.092	-0.165	0.123
-411.369	-126.009	-0.150	0.023
-410.355	800.000	-0.083	-0.329
-409.340	52.634	-0.141	0.136
-408.325	800.000	0.073	0.249
-407.311	195.403	-0.043	0.067
-406.296	-127.883	-0.247	0.036
-405.282	175.966	-0.197	0.288
-404.267	800.000	0.112	0.424
-403.252	800.000	-0.121	-0.360
-402.238	800.000	-0.049	0.154
-401.223	-101.922	0.177	0.043
-400.209	36.029	0.126	-0.111
-399.194	242.853	0.096	-0.162
-398.179	-200.000	0.012	0.144
-397.165	149.529	-0.059	-0.081
-396.150	-91.413	-0.347	-0.100
-395.136	345.727	0.091	-0.181
-394.121	202.351	0.167	-0.260
-393.106	-133.784	0.301	0.038
-392.092	-14.745	0.110	0.071
-391.077	233.825	0.053	0.088
-390.063	-38.800	-0.227	0.120
-389.048	131.356	-0.082	0.106
-388.033	-93.576	0.134	0.037
-387.019	-140.439	0.209	-0.022
-386.004	14.467	-0.246	-0.193
-384.990	-13.214	-0.125	0.081
-383.975	102.117	0.230	0.271
-382.960	274.605	-0.116	0.206
-381.946	201.229	0.169	-0.262
-380.931	702.255	-0.047	0.126
-379.917	263.257	0.270	-0.472
-378.902	430.614	-0.081	-0.176
-377.888	398.821	0.177	-0.373
-376.873	-200.000	0.031	0.227
-375.858	-83.144	-0.241	-0.078
-374.844	-51.794	-0.312	0.146
-373.829	53.356	0.278	0.268
-372.815	800.000	-0.018	-0.072
-371.800	230.241	0.190	-0.312
-370.785	409.379	-0.062	-0.131
-369.771	-64.992	-0.272	0.111
-368.756	-15.971	0.124	0.079
-367.742	-43.584	0.387	0.196
-366.727	-200.000	-0.022	-0.450
-365.712	800.000	-0.040	0.148
-364.698	23.686	-0.021	0.017
-363.683	-175.972	-0.316	0.008
-362.669	-9.024	0.226	0.152
-361.654	-130.709	0.303	-0.041
-360.639	800.000	-0.026	0.098
-359.625	14.673	0.128	0.101
-358.610	426.540	0.130	-0.282
-357.596	300.446	-0.032	0.059
-356.581	292.609	0.048	0.089
-355.566	-177.268	0.102	-0.003
-354.552	-17.075	0.129	-0.082
-353.537	-200.000	-0.018	0.123
-352.523	-89.508	0.157	0.046
-351.508	-127.776	0.154	0.022
-350.493	95.973	-0.150	-0.173
-349.479	-25.561	-0.069	0.041
-348.464	-145.515	0.060	-0.005
-347.450	-105.337	0.211	-0.048
-346.435	60.814	0.362	-0.361
-345.420	102.924	-0.284	-0.334
-344.406	67.251	-0.216	0.221
-343.391	-68.698	0.271	0.106
-342.377	-200.000	-0.003	0.398
-341.362	-14.850	0.145	-0.094
-340.348	-57.511	0.142	-0.063
-339.333	-11.322	0.139	-0.092
-338.318	41.614	0.202	0.184
-337.304	247.667	0.136	0.231
-336.289	-150.488	-0.074	-0.006
-335.275	800.000	0.022	-0.066
-334.260	-47.432	-0.269	-0.131
-333.245	-93.286	-0.161	-0.045
-332.231	502.411	0.115	-0.268
-331.216	42.475	0.246	-0.225
-330.202	544.532	-0.085	0.205
-329.187	451.932	-0.125	0.276
-328.172	-133.281	0.107	0.014
-327.158	-200.000	0.021	-0.206
-326.143	-144.390	0.226	-0.021
-325.129	387.708	0.112	-0.232
-324.114	-51.815	0.037	-0.017
-323.099	-135.729	0.101	-0.012
-322.085	-120.060	-0.428	-0.074
-321.070	-105.889	0.178	-0.040
-320.056	15.483	-0.348	0.274
-319.041	92.965	0.048	0.055
-318.026	273.686	0.167	0.296
-317.012	-178.515	0.210	0.005
-315.997	-29.521	-0.233	0.134
-314.983	-57.417	0.246	0.108
-313.968	800.000	-0.073	0.268
-312.953	32.135	0.077	-0.067
-311.939	95.838	0.137	0.157
-310.924	546.837	-0.026	0.062
-309.910	800.000	0.013	0.044
-308.895	-200.000	-0.065	0.335
-307.880	164.496	-0.161	0.228
-306.866	-9.124	-0.271	-0.182
-305.851	-80.640	-0.203	0.068
-304.837	369.408	-0.084	0.171
-303.822	0.473	-0.205	-0.147
-302.807	26.102	-0.137	-0.115
-301.793	-200.000	0.015	0.297
-300.778	-22.628	-0.208	-0.126
-299.764	-143.526	0.106	-0.010
-298.749	800.000	-0.033	-0.132
-297.735	-50.056	0.246	-0.117
-296.720	800.000	-0.095	-0.263
-295.705	800.000	-0.062	0.249
-294.691	800.000	0.064	0.183
-293.676	-68.264	-0.168	0.066
-292.662	14.185	0.085	0.066
-291.647	-2.446	0.138	0.097
-290.632	175.721	0.043	0.063
-289.618	-200.000	0.007	0.132
-288.603	-23.904	-0.177	0.107
-287.589	-128.475	-0.347	-0.049
-286.574	201.074	-0.126	0.195
-285.559	15.281	0.119	0.094
-284.545	120.227	0.281	0.349
-283.530	-200.000	0.058	0.385
-282.516	800.000	0.048	0.188
-281.501	-200.000	-0.013	0.238
-280.486	800.000	-0.061	0.221
-279.472	-83.126	-0.193	-0.062
-278.457	-200.000	-0.011	-0.050
-277.443	-200.000	0.036	-0.183
-276.428	-200.000	0.035	0.230
-275.413	174.403	0.110	0.159
-274.399	-19.000	0.080	0.050
-273.384	310.909	0.204	0.383
-272.370	242.890	-0.209	-0.352
-271.355	-85.948	0.173	0.054
-270.340	24.014	0.160	0.132
-269.326	-97.714	-0.099	-0.026
-268.311	238.812	0.097	0.161
-267.297	289.654	0.079	-0.144
-266.282	503.687	-0.104	-0.240
-265.267	138.485	0.069	0.091
-264.253	-200.000	-0.025	0.173
-263.238	119.290	-0.148	-0.184
-262.224	-110.659	-0.119	-0.025
-261.209	-76.026	0.360	0.128
-260.195	0.593	0.261	0.187
-259.180	800.000	0.017	-0.055
-258.165	192.969	-0.042	0.063
-257.151	52.966	0.098	0.094
-256.136	-25.890	-0.167	-0.098
-255.122	165.158	-0.218	-0.308
-254.107	-200.000	-0.023	0.182
-253.092	-200.000	0.049	0.274
-252.078	0.503	-0.207	0.148
-251.063	131.118	0.119	-0.153
-250.049	-24.568	-0.197	0.118
-249.034	-10.315	0.226	-0.150
-248.019	441.386	0.062	0.136
-247.005	40.089	-0.210	0.189
-245.990	-200.000	-0.005	-0.168
-244.976	119.498	-0.166	0.205
-243.961	-132.359	0.065	0.008
-242.946	-200.000	-0.016	0.246
-241.932	178.914	-0.105	0.153
-240.917	800.000	0.029	0.106
-239.903	68.014	-0.054	0.055
-238.888	-59.019	0.317	0.137
-237.873	-200.000	-0.001	-0.440
-236.859	-115.838	0.176	-0.033
-235.844	-20.250	-0.235	0.145
-234.830	-200.000	0.064	0.334
-233.815	744.852	0.132	0.355
-232.800	-200.000	-0.005	-0.330
-231.786	96.795	0.126	-0.144
-230.771	-177.747	-0.164	0.004
-229.757	-50.884	0.089	-0.042
-228.742	581.122	0.118	-0.290
-227.727	-200.000	0.067	-0.347
-226.713	296.062	-0.203	0.372
-225.698	800.000	0.030	0.085
-224.684	-200.000	-0.025	0.195
-223.669	320.467	-0.199	-0.378
-222.655	363.446	0.104	-0.209
-221.640	-62.301	0.348	-0.145
-220.625	-200.000	0.008	-0.110
-219.611	800.000	0.062	0.254
-218.596	800.000	0.030	0.104
-217.582	-200.000	-0.041	0.217
-216.567	-200.000	-0.074	-0.423
-215.552	416.085	0.031	-0.067
-214.538	-39.543	-0.175	0.092
-213.523	-45.552	-0.261	-0.129
-212.509	102.085	-0.114	0.133
-211.494	76.230	0.050	0.053
-210.479	-9.014	0.050	0.033
-209.465	-200.000	-0.009	0.101
-208.450	-200.000	-0.013	-0.152
-207.436	-96.113	-0.222	-0.059
-206.421	-151.668	-0.136	-0.010
-205.406	50.836	-0.314	0.298
-204.392	340.492	-0.089	0.175
-203.377	564.521	0.025	-0.060
-202.363	800.000	-0.080	-0.306
-201.348	-41.489	0.058	-0.030
-200.333	-22.435	0.178	0.108
-199.319	-54.540	-0.208	0.094
-198.304	56.730	-0.080	-0.078
-197.290	19.172	0.139	0.111
-196.275	662.260	-0.064	0.164
-195.260	-63.312	0.126	-0.052
-194.246	37.632	0.093	-0.082
-193.231	-94.995	0.089	-0.024
-192.217	-200.000	-0.025	-0.258
-191.202	474.594	0.091	0.205
-190.187	-47.723	0.150	-0.072
-189.173	210.037	-0.168	0.263
-188.158	-168.236	-0.332	-0.013
-187.144	145.777	0.046	-0.062
-186.129	800.000	0.130	-0.559
-185.114	281.289	-0.081	-0.145
-184.100	357.728	-0.008	0.016
-183.085	147.608	0.094	0.126
-182.071	2.372	-0.082	-0.059
-181.056	-110.148	-0.205	0.043
-180.042	37.826	0.279	0.247
-179.027	-57.581	0.381	-0.167
-178.012	-65.608	0.245	-0.098
-176.998	-131.411	0.058	0.008
-175.983	225.046	0.111	0.179
-174.969	-93.707	-0.409	0.113
-173.954	-8.018	-0.099	-0.067
-172.939	126.607	-0.215	0.272
-171.925	800.000	0.016	-0.047
-170.910	27.939	0.233	-0.197
-169.896	-55.296	-0.093	0.042
-168.881	-200.000	0.021	0.338
-167.866	-200.000	-0.425	0.000
-166.852	-200.000	-0.037	0.295
-165.837	53.211	0.158	-0.151
-164.823	189.149	0.172	0.258
-163.808	333.150	0.159	-0.306
-162.793	124.664	0.351	-0.441
-161.779	34.005	0.170	-0.148
-160.764	-200.000	0.046	0.432
-159.750	-14.537	0.112	0.072
-158.735	-200.000	-0.000	-0.135
-157.720	130.803	-0.148	-0.189
-156.706	56.916	0.183	0.178
-155.691	628.046	0.050	0.127
-154.677	-200.000	0.022	0.221
-153.662	142.247	0.236	-0.313
-152.647	-200.000	0.030	-0.185
-151.633	137.854	-0.166	0.216
-150.618	-94.681	-0.394	0.107
-149.604	-200.000	-0.052	-0.382
-148.589	7.459	0.074	0.055
-147.574	62.110	0.162	-0.161
-146.560	-37.005	-0.366	-0.196
-145.545	98.199	-0.116	-0.133
-144.531	-200.000	-0.031	-0.294
-143.516	772.005	0.018	-0.050
-142.502	-9.591	-0.163	-0.108
-141.487	-200.000	0.005	-0.143
-140.472	340.504	0.056	0.109
-139.458	211.366	-0.126	-0.197
-138.443	-47.066	0.309	-0.151
-137.429	-78.096	-0.212	-0.073
-136.414	-12.116	-0.163	-0.106
-135.399	800.000	-0.099	-0.277
-134.385	55.695	0.244	-0.236
-133.370	-76.837	0.137	0.048
-132.356	-157.675	-0.100	-0.006
-131.341	256.349	0.099	0.169
-130.326	-54.821	0.256	-0.115
-129.312	-80.121	-0.339	0.113
-128.297	-200.000	-0.003	0.249
-127.283	-150.716	-0.506	0.038
-126.268	-200.000	-0.001	0.230
-125.253	2.886	-0.245	-0.177
-124.239	63.946	0.309	-0.309
-123.224	129.597	0.233	-0.297
-122.210	-200.000	-0.064	-0.330
-121.195	-200.000	-0.014	0.068
-120.180	35.288	0.222	0.194
-119.166	-38.377	0.224	-0.118
-118.151	579.756	-0.099	-0.240
-117.137	61.942	0.092	0.091
-116.122	133.264	0.114	-0.147
-115.107	208.472	-0.137	-0.213
-114.093	-16.880	-0.255	0.161
-113.078	387.704	0.061	0.125
-112.064	-200.000	0.016	-0.115
-111.049	241.321	0.095	-0.158
-110.034	29.476	0.125	0.106
-109.020	-120.392	0.199	0.034
-108.005	-138.333	0.103	-0.011
-106.991	-200.000	0.040	0.347
-105.976	187.823	0.102	-0.152
-104.962	-31.639	-0.049	0.028
-103.947	250.374	0.146	-0.248
-102.932	12.287	-0.407	0.312
-101.918	-30.867	-0.209	0.118
-100.903	-26.757	-0.074	-0.043
-99.889	800.000	-0.075	-0.326
-98.874	11.441	0.277	0.211
-97.859	-25.931	-0.219	-0.128
-96.845	87.162	-0.134	0.147
-95.830	-112.903	-0.478	0.094
-94.816	45.519	0.195	0.180
-93.801	-200.000	0.028	0.337
-92.786	-41.941	0.113	0.058
-91.772	88.367	0.140	-0.154
-90.757	10.177	0.183	0.139
-89.743	-44.247	-0.205	-0.102
-88.728	-200.000	-0.014	-0.071
-87.713	-27.267	-0.037	0.022
-86.699	-117.007	0.094	-0.017
-85.684	63.572	0.142	0.142
-84.670	800.000	-0.032	-0.129
-83.655	80.686	0.111	-0.119
-82.640	-58.595	0.140	-0.060
-81.626	242.855	0.082	0.137
-80.611	621.861	0.069	-0.173
-79.597	-200.000	-0.002	0.091
-78.582	103.856	-0.027	-0.031
-77.567	800.000	0.107	0.346
-76.553	-85.550	0.064	-0.020
-75.538	35.210	-0.219	0.191
-74.524	432.178	0.077	0.167
-73.509	78.585	0.237	0.252
-72.494	-1.009	0.103	-0.072
-71.480	-200.000	0.497	-0.001
-70.465	2.108	0.201	0.144
-69.451	123.230	0.052	0.065
-68.436	542.751	-0.080	0.189
-67.422	-48.144	-0.123	-0.059
-66.407	343.582	-0.108	0.211
-65.392	-1.416	0.456	0.320
-64.378	702.320	-0.076	-0.200
-63.363	125.196	-0.070	0.087
-62.349	-35.089	0.248	-0.134
-61.334	83.712	-0.825	-0.894
-60.319	800.000	0.155	0.476
-59.305	-200.000	-0.188	-0.839
-58.290	117.087	0.550	0.671
-57.276	693.767	0.541	1.410
-56.261	-200.000	86.746	511.077
-55.246	486.430	1367.229	3098.193
-54.232	149.624	2570.570	3461.419
-53.217	112.877	2205.445	2655.706
-52.203	48.984	1658.369	1547.462
-51.188	41.479	1391.024	1251.118
-50.173	38.247	1347.137	1191.924
-49.159	56.802	1390.388	1345.474
-48.144	61.703	1409.803	1394.567
-47.130	41.996	1366.729	1232.256
-46.115	38.206	1349.531	1193.605
-45.100	38.047	1344.633	1188.256
-44.086	38.024	1341.903	1185.656
-43.071	37.956	1339.717	1183.268
-42.057	37.936	1337.221	1180.893
-41.042	37.986	1336.163	1180.215
-40.027	38.008	1334.757	1179.057
-39.013	38.050	1332.545	1177.314
-37.998	37.978	1330.950	1175.423
-36.984	38.105	1329.085	1174.496
-35.969	38.181	1326.640	1172.740
-34.954	38.127	1325.686	1171.528
-33.940	38.122	1323.760	1169.751
-32.925	38.220	1322.689	1169.343
-31.911	38.281	1321.010	1168.181
-30.896	38.241	1319.607	1166.650
-29.881	38.150	1318.256	1164.867
-28.867	38.304	1316.661	1164.327
-27.852	38.181	1315.619	1162.630
-26.838	38.142	1314.443	1161.313
-25.823	38.348	1312.320	1160.612
-24.809	38.272	1311.295	1159.214
-23.794	38.182	1310.077	1157.554
-22.779	38.213	1308.268	1156.091
-21.765	38.220	1307.244	1155.185
-20.750	38.142	1305.917	1153.503
-19.736	38.047	1304.614	1151.748
-18.721	38.090	1302.854	1150.404
-17.706	38.096	1301.734	1149.403
-16.692	38.227	1300.437	1148.983
-15.677	38.148	1299.568	1147.704
-14.663	38.113	1298.575	1146.575
-13.648	37.981	1297.532	1144.835
-12.633	38.106	1296.451	1144.569
-11.619	38.083	1295.587	1143.625
-10.604	38.112	1294.454	1142.749
-9.590	38.012	1293.927	1141.653
-8.575	38.015	1292.711	1140.554
-7.560	37.981	1292.259	1139.909
-6.546	38.021	1290.736	1138.759
-5.531	38.011	1290.069	1138.063
-4.517	38.042	1288.645	1136.946
-3.502	38.034	1288.098	1136.369
-2.487	38.049	1287.274	1135.684
-1.473	38.061	1283.449	1132.334
-0.458	36.450	1267.783	1109.225
0.556	30.635	1248.310	1064.099
1.571	26.251	1251.718	1041.695
2.586	24.951	1265.688	1045.644
3.600	24.302	1256.396	1034.109
4.615	22.129	1189.221	966.792
5.629	18.019	1118.340	887.777
6.644	15.725	1098.574	860.288
7.659	15.551	1095.929	857.251
8.673	15.511	1094.243	855.651
9.688	15.453	1092.652	854.039
10.702	15.683	1091.485	854.218
11.717	18.193	1094.540	869.304
12.731	20.635	1097.564	884.057
13.746	19.616	1095.100	876.825
14.761	17.794	1091.967	865.012
15.775	16.453	1089.801	856.429
16.790	15.364	1087.236	848.828
17.804	14.634	1085.513	843.718
18.819	14.112	1083.857	839.720
19.834	14.034	1082.739	838.386
20.848	13.700	1081.535	835.699
21.863	13.353	1081.481	833.833
22.877	13.310	1080.061	832.450
23.892	13.192	1079.710	831.510
24.907	13.238	1078.785	830.957
25.921	13.249	1078.017	830.346
26.936	13.303	1076.503	829.380
27.950	13.365	1074.709	828.235
28.965	13.371	1073.604	827.338
29.980	13.440	1071.762	826.189
30.994	13.569	1070.450	825.745
32.009	13.557	1069.529	824.905
33.023	13.359	1068.460	823.020
34.038	13.388	1067.359	822.246
35.053	13.329	1066.345	821.098
36.067	13.476	1065.663	821.228
37.082	13.524	1064.725	820.671
38.096	13.407	1064.470	819.825
39.111	13.358	1063.032	818.402
40.126	13.266	1062.157	817.198
41.140	13.139	1060.931	815.557
42.155	13.254	1059.513	814.963
43.169	13.259	1058.350	814.019
44.184	13.165	1057.582	812.896
45.199	13.270	1055.963	812.097
46.213	13.177	1055.453	811.176
47.228	13.304	1054.239	810.790
48.242	13.250	1053.383	809.797
49.257	13.335	1052.082	809.142
50.271	13.412	1051.078	808.673
51.286	13.399	1050.085	807.777
52.301	13.375	1049.237	806.935
53.315	13.383	1048.105	806.032
54.330	13.250	1047.596	804.920
55.344	13.295	1046.459	804.195
56.359	13.271	1045.944	803.610
57.374	13.313	1044.723	802.807
58.388	13.155	1044.149	801.527
59.403	13.232	1042.998	800.949
60.417	13.240	1042.458	800.498
61.432	13.168	1041.309	799.197
62.447	13.182	1040.451	798.536
63.461	13.183	1039.795	797.966
64.476	12.986	1038.985	796.325
65.490	13.126	1038.073	796.229
66.505	13.148	1037.179	795.580
67.520	13.139	1036.601	795.022
68.534	13.169	1035.815	794.491
69.549	13.182	1034.850	793.746
70.563	13.180	1033.999	793.014
71.578	13.084	1033.639	792.204
72.593	13.004	1033.020	791.278
73.607	12.968	1032.194	790.404
74.622	13.029	1031.381	790.005
75.636	13.168	1030.433	789.873
76.651	13.039	1030.082	788.917
77.666	13.110	1029.113	788.441
78.680	13.117	1028.609	788.021
79.695	13.217	1027.895	787.879
80.709	13.304	1027.066	787.587
81.724	13.182	1027.000	786.889
82.739	13.308	1025.776	786.480
83.753	13.278	1025.571	786.109
84.768	13.434	1024.078	785.635
85.782	13.440	1023.242	784.954
86.797	13.437	1022.283	784.134
87.812	13.403	1021.697	783.455
88.826	13.437	1020.363	782.527
89.841	13.566	1019.276	782.233
90.855	13.339	1018.616	780.584
91.870	13.410	1018.211	780.537
92.884	13.492	1016.904	779.854
93.899	13.456	1016.136	779.025
94.914	13.592	1015.099	778.803
95.928	13.654	1014.249	778.373
96.943	13.419	1013.658	776.747
97.957	13.489	1012.590	776.191
98.972	13.563	1011.315	775.491
99.987	13.486	1010.500	774.434
101.001	13.351	1009.966	773.327
102.016	13.469	1008.961	773.039
103.030	13.433	1008.326	772.315
104.045	13.403	1007.529	771.497
105.060	13.443	1006.682	770.966
106.074	13.340	1005.834	769.772
107.089	13.221	1004.868	768.409
108.103	13.277	1003.552	767.597
109.118	13.406	1002.510	767.328
110.133	13.298	1001.585	766.055
111.147	13.350	1000.730	765.574
112.162	13.214	1000.571	764.754
113.176	13.377	999.334	764.493
114.191	13.349	998.713	763.821
115.206	13.388	997.543	763.037
116.220	13.311	996.603	761.895
117.235	13.399	995.700	761.545
118.249	13.362	994.787	760.608
119.264	13.382	994.099	760.105
120.279	13.424	993.475	759.753
121.293	13.320	992.423	758.405
122.308	13.272	991.806	757.650
123.322	13.275	990.851	756.867
124.337	13.315	990.009	756.340
125.352	13.397	988.227	755.283
126.366	13.186	987.854	753.969
127.381	13.297	986.951	753.721
128.395	13.191	986.005	752.448
129.410	13.330	985.347	752.514
130.424	13.433	983.951	751.848
131.439	13.316	983.348	750.788
132.454	13.380	982.911	750.680
133.468	13.468	981.634	750.035
134.483	13.562	980.778	749.740
135.497	13.518	980.137	748.985
136.512	13.425	979.527	748.031
137.527	13.478	978.752	747.616
138.541	13.430	978.244	746.945
139.556	13.555	977.236	746.670
140.570	13.468	976.509	745.656
141.585	13.615	975.554	745.523
142.600	13.600	974.542	744.619
143.614	13.676	973.809	744.331
144.629	13.587	972.941	743.206
145.643	13.703	971.970	742.917
146.658	13.670	970.860	741.854
147.673	13.383	970.437	740.184
148.687	13.440	969.440	739.609
149.702	13.408	968.438	738.640
150.716	13.506	967.336	738.168
151.731	13.317	967.084	737.069
152.746	13.539	965.788	737.004
153.760	13.522	965.300	736.492
154.775	13.544	964.878	736.203
155.789	13.582	964.323	735.883
156.804	13.609	963.377	735.216
157.819	13.534	963.294	734.752
158.833	13.662	962.244	734.455
159.848	13.735	961.517	734.158
160.862	13.646	960.426	732.867
161.877	13.631	958.845	731.528
162.892	13.663	958.108	731.045
163.906	13.606	957.395	730.182
164.921	13.603	956.377	729.328
165.935	13.486	955.828	728.333
166.950	13.616	954.958	728.174
167.964	13.641	953.724	727.279
168.979	13.626	952.885	726.512
169.994	13.699	951.883	726.003
171.008	13.719	951.663	725.858
172.023	13.878	950.675	725.732
173.037	13.804	949.724	724.621
174.052	13.723	949.494	724.029
175.067	13.646	948.675	723.005
176.081	13.609	948.184	722.402
177.096	13.452	947.899	721.437
178.110	13.694	946.879	721.653
179.125	13.744	946.023	721.151
180.140	13.682	945.530	720.441
181.154	13.713	945.536	720.519
182.169	13.826	944.703	720.310
183.183	13.884	944.139	720.070
184.198	13.947	943.290	719.632
185.213	13.900	942.317	718.620
186.227	13.814	942.033	717.968
187.242	14.006	941.146	718.058
188.256	14.029	940.557	717.644
189.271	13.919	940.133	716.783
190.286	13.922	938.982	715.853
191.300	13.661	938.533	714.325
192.315	13.742	937.397	713.745
193.329	13.664	937.543	713.458
194.344	13.757	936.568	713.052
195.359	13.843	935.786	712.763
196.373	13.985	935.104	712.790
197.388	13.897	934.887	712.185
198.402	14.023	934.119	712.077
199.417	14.241	933.295	712.321
200.432	14.052	933.026	711.242
201.446	14.066	932.874	711.122
202.461	14.349	931.894	711.522
203.475	14.175	931.490	710.409
204.490	14.076	930.404	709.093
205.504	14.099	929.773	708.648
206.519	14.099	929.155	708.115
207.534	14.081	928.067	707.145
208.548	14.189	927.714	707.275
209.563	14.177	927.016	706.628
210.577	14.165	926.155	705.858
211.592	14.174	925.779	705.547
212.607	14.381	924.469	705.364
213.621	14.289	924.111	704.638
214.636	14.255	923.602	704.043
215.650	14.188	922.728	703.032
216.665	14.263	922.271	702.939
217.680	14.401	921.312	702.728
218.694	14.263	920.750	701.654
219.709	14.430	920.111	701.812
220.723	14.383	919.526	701.102
221.738	14.232	919.236	700.185
222.753	14.396	918.233	700.047
223.767	14.489	917.548	699.853
224.782	14.418	917.631	699.558
225.796	14.520	916.964	699.413
226.811	14.537	915.838	698.566
227.826	14.477	914.808	697.467
228.840	14.398	914.302	696.689
229.855	14.482	913.478	696.350
230.869	14.426	912.549	695.346
231.884	14.288	911.921	694.234
232.899	14.413	911.462	694.343
233.913	14.470	910.397	693.707
234.928	14.413	909.974	693.085
235.942	14.615	908.853	693.012
236.957	14.461	909.124	692.515
237.972	14.373	908.326	691.481
238.986	14.394	907.240	690.681
240.001	14.476	906.884	690.689
241.015	14.463	906.207	690.055
242.030	14.521	905.392	689.614
243.045	14.673	904.905	689.811
244.059	14.648	904.149	689.071
245.074	14.650	903.670	688.655
246.088	14.631	902.969	687.981
247.103	14.800	902.104	687.954
248.117	14.711	901.891	687.367
249.132	14.792	901.182	687.098
250.147	14.927	900.815	687.311
251.161	14.816	900.209	686.332
252.176	15.045	899.253	686.485
253.190	14.968	898.418	685.471
254.205	14.869	898.154	684.799
255.220	14.926	897.579	684.536
256.234	14.921	896.927	683.958
257.249	14.968	896.251	683.573
258.263	15.026	895.193	682.944
259.278	15.128	894.277	682.599
260.293	15.004	894.085	681.889
261.307	15.161	893.761	682.220
262.322	15.115	892.942	681.348
263.336	15.094	892.228	680.656
264.351	15.176	891.383	680.285
265.366	15.298	890.641	680.154
266.380	15.158	890.448	679.377
267.395	15.085	889.943	678.635
268.409	15.147	888.491	677.718
269.424	15.037	888.380	677.129
270.439	15.251	887.128	676.980
271.453	15.123	886.917	676.243
272.468	15.203	886.047	675.840
273.482	15.148	885.956	675.490
274.497	15.260	885.148	675.266
275.512	15.302	884.415	674.815
276.526	15.151	884.282	674.048
277.541	15.226	883.527	673.715
278.555	15.296	882.686	673.294
279.570	15.412	881.931	673.126
280.585	15.229	881.529	672.026
281.599	15.317	880.653	671.650
282.614	15.430	879.682	671.303
283.628	15.444	879.476	671.143
284.643	15.326	878.427	669.809
285.657	15.407	878.581	670.194
286.672	15.297	877.435	668.818
287.687	15.228	877.372	668.438
288.701	15.524	876.303	668.741
289.716	15.472	875.793	668.086
290.730	15.461	875.349	667.645
291.745	15.475	874.566	667.043
292.760	15.491	874.175	666.752
293.774	15.556	873.318	666.296
294.789	15.560	872.822	665.875
295.803	15.554	872.100	665.239
296.818	15.465	871.159	664.112
297.833	15.585	870.123	663.736
298.847	15.671	870.005	663.928
299.862	15.611	869.668	663.376
300.876	15.670	868.826	662.909
301.891	15.697	868.267	662.529
302.906	15.705	867.902	662.225
303.920	15.770	867.398	662.036
304.935	15.817	866.616	661.566
305.949	15.888	866.397	661.619
306.964	15.744	865.661	660.434
307.979	15.639	865.322	659.703
308.993	15.729	864.927	659.695
310.008	15.855	863.916	659.361
311.022	15.964	863.145	659.140
312.037	15.763	863.043	658.217
313.052	15.547	862.449	656.864
314.066	15.744	861.430	656.797
315.081	15.707	860.854	656.157
316.095	15.782	860.495	656.117
317.110	15.799	859.780	655.580
318.125	15.806	859.118	655.046
319.139	15.589	859.111	654.136
320.154	15.819	858.129	654.225
321.168	15.970	857.482	654.260
322.183	15.930	857.005	653.681
323.197	15.899	856.550	653.158
324.212	15.862	856.154	652.656
325.227	15.963	855.331	652.361
326.241	15.990	854.706	651.930
327.256	15.837	854.087	650.810
328.270	15.700	854.069	650.207
329.285	15.717	853.339	649.661
330.300	15.817	852.740	649.533
331.314	15.792	852.522	649.215
332.329	15.899	851.856	649.062
333.343	15.852	850.960	648.140
334.358	15.987	850.499	648.250
335.373	15.979	850.452	648.129
336.387	15.913	850.258	647.669
337.402	16.133	849.452	647.842
338.416	16.233	849.185	647.964
339.431	16.294	849.025	648.020
340.446	16.232	848.513	647.334
341.460	16.298	848.217	647.303
342.475	16.246	847.433	646.450
343.489	16.238	847.328	646.283
344.504	16.476	846.572	646.559
345.519	16.395	846.197	645.903
346.533	16.304	845.894	645.270
347.548	16.346	845.138	644.796
348.562	16.303	844.615	644.174
349.577	16.321	843.964	643.688
350.592	16.225	843.148	642.644
351.606	16.293	842.611	642.436
352.621	16.422	842.068	642.456
353.635	16.234	841.375	641.156
354.650	16.375	840.924	641.291
355.665	16.408	840.261	640.856
356.679	16.578	839.225	640.652
357.694	16.538	838.616	639.978
358.708	16.392	838.433	639.232
359.723	16.383	837.747	638.619
360.738	16.530	836.786	638.382
361.752	16.538	836.343	638.018
362.767	16.694	835.615	637.993
363.781	16.706	835.266	637.716
364.796	16.641	834.867	637.112
365.810	16.762	834.572	637.284
366.825	16.567	834.552	636.479
367.840	16.775	833.494	636.398
368.854	16.748	832.979	635.847
369.869	16.754	832.735	635.625
370.883	16.598	832.197	634.576
371.898	16.729	831.965	634.831
372.913	16.781	831.685	634.758
373.927	16.849	830.735	634.233
374.942	16.747	830.551	633.654
375.956	16.857	829.998	633.585
376.971	16.862	829.817	633.411
377.986	16.938	829.044	633.050
379.000	16.983	828.855	633.016
380.015	16.939	828.375	632.431
381.029	16.850	827.886	631.668
382.044	16.881	827.361	631.328
383.059	16.817	826.664	630.503
384.073	16.974	825.670	630.272
385.088	16.930	825.411	629.852
386.102	16.976	824.561	629.319
387.117	17.032	823.852	628.930
388.132	16.868	823.655	628.117
389.146	16.937	822.980	627.803
390.161	17.036	822.640	627.853
391.175	16.979	822.421	627.422
392.190	16.855	821.667	626.333
393.205	17.003	820.892	626.232
394.219	16.991	820.697	625.984
395.234	17.014	820.435	625.814
396.248	16.942	819.710	624.938
397.263	16.955	819.631	624.872
398.278	16.780	819.189	623.835
399.292	16.980	818.540	624.021
400.307	16.913	818.660	623.811
401.321	17.037	817.778	623.540
402.336	16.871	817.384	622.574
403.350	16.963	817.080	622.624
404.365	17.193	816.366	622.870
405.380	17.232	815.873	622.581
406.394	17.311	815.113	622.236
407.409	17.353	815.047	622.282
408.423	17.217	814.742	621.499
409.438	17.276	814.148	621.206
410.453	17.319	813.596	620.885
411.467	17.423	813.119	620.847
412.482	17.443	812.723	620.564
413.496	17.433	812.376	620.207
414.511	17.359	812.085	619.659
415.526	17.464	811.684	619.680
416.540	17.573	810.853	619.388
417.555	17.623	810.428	619.192
418.569	17.566	810.312	618.840
419.584	17.377	809.938	617.814
420.599	17.481	809.321	617.665
421.613	98.276	1277.554	1413.418
422.628	84.397	1345.772	1413.523
