DTS Sentinel unit serial number:	SN413079Multiplexer serial number:	ORYXHardware model number:	OX4-SRSoftware version number:	ORYX F/W v4.00 Oryx Data Collector v3.7.2.0data status	okinstallation	princeton_trtdifferential loss correction	single-endedforward channel	channel 1reverse channel	N/Adate	2019/09/12time	07:00:11forward acquisition time	60.00reverse acquisition time	0.00gamma	496.2192k internal	0.2320k external	0.2320temperature offset calibration	1.0047default loss term (dB/km)	0.3790temperature slope calibration	1.0000multiplexer offset coefficient	1.0000multiplexer slope coefficient	1.0000fibre end	0.00T internal ref (°C)	32.16T ext. ref 1 (°C)	1.59T ext. ref 2 (°C)	27.42length (m)	temperature (°C)	Stokes	anti-Stokes-747.200	-11.434	0.296	-0.197
-746.185	15.766	-0.329	0.262
-745.171	300.265	0.157	0.292
-744.156	6.219	-0.459	0.344
-743.142	64.323	-0.194	0.197
-742.127	169.743	-0.202	0.291
-741.112	800.000	-0.056	0.201
-740.098	-200.000	0.003	-0.210
-739.083	243.720	0.052	0.088
-738.069	-96.810	0.366	0.097
-737.054	559.020	0.036	0.089
-736.039	-149.025	-0.103	0.008
-735.025	-58.242	0.373	-0.164
-734.010	-11.118	-0.282	-0.188
-732.996	-66.712	0.379	-0.152
-731.981	312.106	0.051	0.097
-730.966	222.612	-0.119	-0.194
-729.952	-122.648	-0.487	0.080
-728.937	-200.000	0.055	-0.727
-727.923	85.741	-0.189	0.210
-726.908	-200.000	0.013	0.269
-725.894	-69.579	-0.136	0.052
-724.879	-200.000	0.065	0.351
-723.864	800.000	-0.079	-0.331
-722.850	-74.924	0.406	0.147
-721.835	-59.822	0.201	0.087
-720.821	800.000	-0.046	-0.149
-719.806	669.351	0.053	-0.138
-718.791	132.180	-0.074	0.097
-717.777	-139.507	-0.580	0.063
-716.762	764.379	-0.062	-0.170
-715.748	-18.261	-0.316	-0.200
-714.733	-126.254	0.220	0.033
-713.718	-200.000	0.018	-0.126
-712.704	-200.000	-0.031	0.145
-711.689	34.424	-0.167	0.147
-710.675	-12.817	0.276	-0.182
-709.660	800.000	-0.094	0.364
-708.645	112.201	0.247	0.302
-707.631	-200.000	-0.009	-0.111
-706.616	800.000	0.129	-0.423
-705.602	-200.000	0.012	-0.388
-704.587	55.568	0.251	0.246
-703.572	-111.670	-0.222	0.045
-702.558	-61.209	-0.125	-0.053
-701.543	-200.000	-0.025	-0.239
-700.529	800.000	-0.058	-0.184
-699.514	-4.227	-0.171	0.119
-698.499	-200.000	-0.042	0.514
-697.485	294.709	0.022	0.040
-696.470	-102.751	-0.224	-0.054
-695.456	-151.153	0.103	-0.008
-694.441	-34.552	0.463	0.256
-693.426	225.277	-0.156	0.256
-692.412	-200.000	-0.034	-0.171
-691.397	-67.139	0.135	-0.053
-690.383	-45.280	-0.139	-0.070
-689.368	518.935	-0.152	-0.358
-688.354	206.265	0.149	0.235
-687.339	-80.747	-0.119	0.040
-686.324	301.493	0.209	-0.390
-685.310	-200.000	0.020	0.215
-684.295	4.899	-0.095	0.071
-683.281	-108.067	0.152	-0.033
-682.266	32.374	0.136	0.119
-681.251	-151.592	0.230	0.017
-680.237	-99.018	-0.373	0.095
-679.222	-146.709	0.108	-0.009
-678.208	4.296	-0.211	-0.156
-677.193	31.868	0.051	0.044
-676.178	-200.000	0.098	-0.456
-675.164	183.729	-0.088	0.131
-674.149	800.000	-0.032	0.118
-673.135	-74.812	-0.303	0.110
-672.120	-151.922	0.365	0.027
-671.105	-14.943	0.097	-0.063
-670.091	705.205	0.113	0.300
-669.076	-200.000	-0.002	-0.101
-668.062	88.718	0.151	-0.170
-667.047	-89.895	0.106	0.031
-666.032	97.718	0.224	-0.259
-665.018	694.215	-0.094	-0.249
-664.003	34.527	-0.289	0.255
-662.989	-200.000	0.006	0.164
-661.974	4.083	-0.252	0.186
-660.959	17.016	-0.399	-0.319
-659.945	4.726	0.311	-0.231
-658.930	-0.234	0.132	-0.094
-657.916	-86.844	0.168	0.052
-656.901	30.610	0.137	0.118
-655.886	-123.021	0.341	-0.055
-654.872	-32.746	-0.190	-0.107
-653.857	-200.000	-0.007	-0.191
-652.843	-180.123	-0.185	-0.004
-651.828	800.000	0.128	-0.376
-650.814	-173.631	0.440	-0.013
-649.799	800.000	0.078	0.249
-648.784	-200.000	-0.049	0.248
-647.770	800.000	-0.067	0.245
-646.755	-198.838	0.307	-0.002
-645.741	242.984	0.042	0.072
-644.726	22.844	-0.244	-0.202
-643.711	-125.540	0.041	0.006
-642.697	-200.000	-0.007	-0.123
-641.682	42.770	0.037	0.034
-640.668	-74.912	-0.320	-0.116
-639.653	-3.472	-0.082	0.057
-638.638	608.258	-0.133	0.334
-637.624	227.876	-0.076	-0.125
-636.609	638.613	0.222	-0.568
-635.595	-200.000	0.020	-0.551
-634.580	-42.846	-0.207	0.106
-633.565	-156.672	0.232	0.014
-632.551	-200.000	-0.039	-0.222
-631.536	-32.070	0.142	-0.080
-630.522	-88.633	-0.229	-0.069
-629.507	-113.522	-0.034	0.007
-628.492	71.668	-0.086	0.090
-627.478	-118.931	0.227	-0.040
-626.463	230.686	-0.151	0.249
-625.449	-108.026	-0.377	0.082
-624.434	-21.517	0.161	-0.099
-623.419	-96.172	0.159	-0.043
-622.405	-125.416	-0.133	-0.020
-621.390	-200.000	-0.018	-0.125
-620.376	304.790	0.034	-0.064
-619.361	-44.331	0.307	-0.155
-618.346	-200.000	0.009	0.230
-617.332	31.520	0.143	-0.124
-616.317	-152.370	-0.187	0.014
-615.303	300.779	-0.185	-0.343
-614.288	97.736	-0.238	-0.276
-613.273	-200.000	-0.041	-0.299
-612.259	-200.000	-0.018	-0.196
-611.244	-98.609	-0.219	0.056
-610.230	-200.000	-0.064	-0.526
-609.215	-43.445	-0.292	0.148
-608.201	-47.462	0.172	-0.084
-607.186	171.750	0.090	-0.131
-606.171	-77.359	-0.106	0.037
-605.157	363.589	0.026	0.052
-604.142	344.968	-0.157	-0.311
-603.128	774.897	0.015	0.041
-602.113	800.000	0.008	0.030
-601.098	800.000	0.182	0.576
-600.084	250.193	-0.167	0.285
-599.069	9.804	-0.103	-0.079
-598.055	-200.000	0.092	-0.406
-597.040	-66.579	0.243	-0.097
-596.025	-200.000	0.021	-0.189
-595.011	136.051	-0.017	0.022
-593.996	132.346	-0.191	0.248
-592.982	43.020	0.072	-0.066
-591.967	605.543	0.096	0.240
-590.952	-200.000	0.018	0.505
-589.938	-200.000	-0.058	0.353
-588.923	-90.149	0.313	0.092
-587.909	170.777	-0.032	0.046
-586.894	751.933	-0.072	-0.195
-585.879	-22.899	0.179	-0.109
-584.865	114.423	-0.133	-0.162
-583.850	-31.949	0.255	0.143
-582.836	800.000	-0.042	0.144
-581.821	-200.000	-0.048	0.309
-580.806	37.810	0.110	0.098
-579.792	50.779	0.113	0.108
-578.777	-200.000	-0.014	0.217
-577.763	37.183	-0.085	0.076
-576.748	32.562	0.076	0.066
-575.733	-75.549	0.187	0.067
-574.719	207.459	-0.210	-0.329
-573.704	83.709	0.252	-0.277
-572.690	128.156	-0.048	-0.061
-571.675	88.165	-0.120	0.134
-570.661	-85.228	-0.123	-0.039
-569.646	-200.000	-0.020	0.108
-568.631	-93.112	0.310	0.087
-567.617	280.541	0.096	-0.172
-566.602	-2.057	0.139	-0.098
-565.588	-200.000	-0.044	0.200
-564.573	719.099	-0.047	-0.126
-563.558	-40.902	-0.253	0.131
-562.544	62.252	0.108	0.108
-561.529	-200.000	0.025	0.130
-560.515	171.894	0.180	0.259
-559.500	555.201	0.107	0.259
-558.485	60.130	0.149	0.148
-557.471	-200.000	-0.003	0.256
-556.456	23.058	0.043	0.036
-555.442	-146.005	-0.231	0.021
-554.427	760.167	-0.034	0.092
-553.412	-69.205	0.352	0.136
-552.398	111.189	0.239	0.289
-551.383	199.383	-0.100	-0.153
-550.369	-78.833	-0.077	-0.026
-549.354	-200.000	-0.014	0.095
-548.339	-200.000	-0.002	-0.177
-547.325	-200.000	0.052	-0.343
-546.310	800.000	0.021	-0.090
-545.296	24.988	-0.323	-0.269
-544.281	-102.052	-0.127	-0.031
-543.266	-73.942	-0.176	-0.064
-542.252	-71.096	0.183	0.069
-541.237	534.019	0.029	-0.068
-540.223	-9.778	-0.393	-0.262
-539.208	26.984	0.309	-0.260
-538.193	63.166	0.109	-0.109
-537.179	-73.815	-0.142	0.052
-536.164	-200.000	-0.041	-0.254
-535.150	41.516	0.106	-0.097
-534.135	-61.850	-0.129	0.054
-533.121	504.099	-0.031	0.071
-532.106	-20.798	0.303	0.186
-531.091	-72.895	0.067	0.025
-530.077	283.332	-0.088	0.158
-529.062	-200.000	0.030	-0.292
-528.048	75.422	0.111	0.117
-527.033	16.568	0.160	-0.127
-526.018	147.858	0.158	-0.214
-525.004	-105.418	-0.165	0.038
-523.989	-15.096	-0.157	0.101
-522.975	-63.842	-0.332	-0.136
-521.960	-200.000	-0.084	0.471
-520.945	-176.205	0.138	0.004
-519.931	-13.231	-0.065	0.042
-518.916	-28.717	0.151	-0.087
-517.902	377.860	-0.015	-0.032
-516.887	554.387	0.125	-0.301
-515.872	-71.116	-0.079	0.030
-514.858	-130.881	0.379	-0.051
-513.843	-19.001	-0.189	0.118
-512.829	16.278	0.133	0.105
-511.814	99.760	-0.126	0.146
-510.799	31.977	-0.301	0.260
-509.785	-5.702	0.230	0.158
-508.770	-200.000	-0.056	0.280
-507.756	-21.225	-0.195	0.119
-506.741	800.000	-0.051	-0.164
-505.726	-200.000	-0.080	-0.363
-504.712	-200.000	-0.011	-0.122
-503.697	1.666	0.248	-0.179
-502.683	-44.787	0.129	-0.064
-501.668	232.400	0.139	-0.229
-500.653	325.226	0.115	0.220
-499.639	102.145	0.088	0.103
-498.624	-81.899	0.186	-0.061
-497.610	-200.000	0.010	-0.077
-496.595	74.979	0.084	-0.088
-495.581	-3.814	0.063	0.044
-494.566	-83.608	-0.109	0.035
-493.551	-200.000	0.009	0.183
-492.537	-129.771	-0.092	-0.013
-491.522	-1.677	-0.126	-0.089
-490.508	264.997	0.045	0.079
-489.493	154.297	-0.086	-0.118
-488.478	139.656	0.048	0.064
-487.464	47.253	0.358	-0.334
-486.449	12.545	0.132	0.102
-485.435	-200.000	-0.021	-0.378
-484.420	800.000	-0.036	-0.110
-483.405	92.498	0.063	-0.071
-482.391	241.155	-0.048	0.080
-481.376	-200.000	0.048	-0.245
-480.362	44.199	-0.155	-0.142
-479.347	-17.247	-0.278	0.175
-478.332	-200.000	-0.054	0.443
-477.318	-131.112	0.464	0.062
-476.303	121.689	0.077	0.096
-475.289	-200.000	-0.021	0.307
-474.274	-149.252	-0.153	-0.012
-473.259	209.416	0.121	0.190
-472.245	22.769	-0.036	0.030
-471.230	66.044	0.239	0.243
-470.216	678.219	-0.038	-0.098
-469.201	61.713	0.237	-0.236
-468.186	10.873	0.200	0.153
-467.172	-43.621	0.105	-0.053
-466.157	72.685	0.176	0.183
-465.143	113.985	-0.160	0.194
-464.128	-13.059	0.230	-0.150
-463.113	-200.000	0.016	0.131
-462.099	-74.393	-0.295	-0.106
-461.084	-200.000	-0.073	-0.494
-460.070	-200.000	-0.002	-0.232
-459.055	-191.924	0.071	-0.001
-458.040	126.793	0.036	0.046
-457.026	-200.000	-0.064	-0.464
-456.011	511.273	0.084	-0.196
-454.997	720.843	-0.012	0.033
-453.982	800.000	-0.052	0.151
-452.968	-64.889	0.163	0.066
-451.953	-190.705	-0.104	0.001
-450.938	64.188	0.137	-0.138
-449.924	47.472	-0.114	-0.106
-448.909	-93.910	0.250	0.069
-447.895	-101.769	0.294	-0.071
-446.880	87.225	-0.149	0.165
-445.865	59.955	0.166	0.163
-444.851	-145.143	-0.213	0.019
-443.836	329.990	-0.104	-0.201
-442.822	39.717	-0.101	-0.091
-441.807	800.000	0.152	0.462
-440.792	-200.000	0.023	-0.138
-439.778	800.000	0.059	-0.168
-438.763	89.296	-0.109	-0.121
-437.749	274.611	0.073	-0.129
-436.734	60.940	0.055	-0.054
-435.719	82.472	-0.217	-0.235
-434.705	-18.511	-0.362	-0.226
-433.690	83.493	0.289	0.314
-432.676	800.000	-0.122	0.533
-431.661	-75.955	-0.213	0.075
-430.646	-180.916	-0.321	-0.006
-429.632	-200.000	0.001	-0.007
-428.617	393.869	-0.072	-0.151
-427.603	42.491	0.281	-0.255
-426.588	-13.667	-0.335	-0.216
-425.573	-1.070	0.465	-0.328
-424.559	-45.017	0.247	-0.123
-423.544	-152.035	0.103	-0.007
-422.530	-172.440	0.185	-0.006
-421.515	52.247	0.087	0.083
-420.500	-92.799	0.087	-0.024
-419.486	-48.318	-0.262	-0.126
-418.471	-95.858	-0.114	-0.030
-417.457	-200.000	0.014	-0.118
-416.442	-191.565	0.321	-0.003
-415.428	-75.177	-0.093	0.033
-414.413	-200.000	-0.030	0.159
-413.398	800.000	-0.043	-0.161
-412.384	800.000	0.063	-0.256
-411.369	800.000	0.017	0.053
-410.355	-148.271	0.266	-0.022
-409.340	-71.169	0.036	-0.013
-408.325	696.284	-0.133	0.350
-407.311	800.000	0.015	0.063
-406.296	-116.263	-0.409	0.076
-405.282	800.000	-0.069	0.269
-404.267	-200.000	0.057	-0.306
-403.252	-200.000	0.005	-0.127
-402.238	800.000	0.108	0.357
-401.223	-64.006	-0.399	0.163
-400.209	-126.086	0.418	-0.063
-399.194	-98.994	0.282	0.071
-398.179	39.097	0.327	-0.292
-397.165	-45.678	0.267	-0.132
-396.150	-174.021	-0.302	-0.009
-395.136	-200.000	-0.032	-0.365
-394.121	-9.491	0.120	0.080
-393.106	286.178	-0.096	-0.173
-392.092	800.000	0.105	-0.425
-391.077	-114.371	0.341	0.066
-390.063	-15.831	0.159	-0.101
-389.048	-18.165	0.105	0.066
-388.033	800.000	-0.049	0.157
-387.019	158.413	0.131	-0.181
-386.004	-200.000	-0.003	-0.154
-384.990	322.383	0.064	-0.121
-383.975	-26.940	0.157	0.091
-382.960	-28.028	0.171	0.099
-381.946	511.254	-0.095	-0.220
-380.931	127.016	-0.086	0.109
-379.917	3.126	-0.076	0.055
-378.902	-101.538	-0.277	-0.067
-377.888	-200.000	0.006	0.086
-376.873	24.784	0.237	-0.196
-375.858	-134.321	0.335	0.041
-374.844	150.687	-0.093	0.126
-373.829	161.655	0.102	0.143
-372.815	47.509	-0.086	0.080
-371.800	-84.596	-0.182	0.057
-370.785	-200.000	0.010	-0.373
-369.771	-110.425	0.083	-0.017
-368.756	-200.000	0.026	-0.178
-367.742	420.054	-0.153	0.327
-366.727	-98.120	-0.130	0.033
-365.712	-25.142	-0.251	0.148
-364.698	-200.000	0.051	-0.229
-363.683	105.294	-0.324	0.381
-362.669	-138.850	0.291	0.032
-361.654	-200.000	0.017	0.113
-360.639	-111.413	0.166	0.034
-359.625	284.533	-0.052	0.094
-358.610	-119.950	0.374	0.064
-357.596	-86.111	-0.109	0.034
-356.581	462.052	-0.060	-0.132
-355.566	-57.822	0.312	-0.136
-354.552	-106.748	0.225	0.050
-353.537	-91.235	0.196	0.056
-352.523	-185.005	-0.119	-0.002
-351.508	191.109	0.087	0.130
-350.493	140.338	-0.080	-0.105
-349.479	-115.515	0.180	-0.034
-348.464	312.405	0.135	0.252
-347.450	136.376	-0.206	-0.267
-346.435	800.000	0.064	-0.216
-345.420	-200.000	0.071	0.330
-344.406	8.370	0.169	-0.126
-343.391	800.000	-0.109	-0.428
-342.377	290.245	0.116	0.209
-341.362	-97.802	-0.340	-0.087
-340.348	-173.600	0.102	0.003
-339.333	165.609	0.063	0.089
-338.318	-44.970	-0.562	0.278
-337.304	72.111	0.154	0.159
-336.289	-89.517	0.197	-0.058
-335.275	-200.000	0.062	-0.311
-334.260	-11.601	-0.365	0.239
-333.245	-26.267	-0.327	-0.191
-332.231	-200.000	-0.028	-0.145
-331.216	171.625	0.148	-0.212
-330.202	-104.092	-0.132	-0.031
-329.187	-148.334	-0.244	-0.020
-328.172	-80.314	0.130	-0.043
-327.158	177.432	0.022	-0.032
-326.143	-32.324	0.183	0.102
-325.129	359.874	0.115	0.228
-324.114	320.033	-0.183	-0.346
-323.099	800.000	0.122	-0.386
-322.085	214.035	-0.126	0.199
-321.070	166.438	-0.216	-0.304
-320.056	422.502	0.051	-0.109
-319.041	731.031	0.085	0.227
-318.026	-26.296	-0.050	-0.029
-317.012	53.883	-0.206	-0.197
-315.997	177.482	0.139	-0.201
-314.983	62.877	-0.269	-0.268
-313.968	-53.085	-0.212	0.097
-312.953	128.285	0.260	0.330
-311.939	800.000	-0.020	0.060
-310.924	8.052	-0.310	-0.231
-309.910	654.808	-0.145	0.369
-308.895	107.354	-0.021	0.025
-307.880	-200.000	-0.022	-0.127
-306.866	294.585	-0.261	0.475
-305.851	597.006	0.146	-0.361
-304.837	54.042	-0.138	0.132
-303.822	-200.000	-0.054	0.292
-302.807	800.000	0.044	0.178
-301.793	-82.935	-0.301	-0.097
-300.778	-82.608	0.056	0.018
-299.764	-126.486	0.211	-0.031
-298.749	38.957	0.164	0.145
-297.735	-6.696	0.070	-0.047
-296.720	234.618	-0.043	0.070
-295.705	581.489	-0.158	0.385
-294.691	-200.000	0.011	0.084
-293.676	138.539	0.057	0.074
-292.662	800.000	0.081	-0.256
-291.647	87.855	-0.066	-0.072
-290.632	109.743	-0.185	-0.220
-289.618	800.000	-0.054	-0.171
-288.603	786.976	0.036	0.097
-287.589	-200.000	-0.038	0.167
-286.574	135.680	0.180	-0.233
-285.559	172.274	0.148	0.212
-284.545	158.503	0.139	0.192
-283.530	800.000	0.046	0.129
-282.516	800.000	-0.081	-0.257
-281.501	59.915	0.163	-0.160
-280.486	-105.417	0.086	-0.020
-279.472	-22.334	0.252	-0.152
-278.457	-63.872	-0.261	-0.106
-277.443	-200.000	-0.029	0.346
-276.428	-101.363	-0.155	0.038
-275.413	-32.695	0.101	-0.056
-274.399	79.643	0.078	0.083
-273.384	4.845	-0.159	0.116
-272.370	-138.066	0.366	0.040
-271.355	-93.576	-0.116	0.032
-270.340	-18.723	0.100	-0.062
-269.326	-41.086	0.208	-0.107
-268.311	359.488	0.060	-0.119
-267.297	87.314	0.103	0.113
-266.282	-32.533	-0.207	0.115
-265.267	800.000	0.137	0.473
-264.253	-47.660	0.421	-0.203
-263.238	20.359	0.193	0.154
-262.224	800.000	-0.057	0.223
-261.209	800.000	0.109	-0.348
-260.195	800.000	0.101	-0.312
-259.180	-200.000	0.042	-0.308
-258.165	401.460	-0.211	0.439
-257.151	40.143	-0.271	0.242
-256.136	-158.475	0.105	-0.006
-255.122	291.462	0.141	0.255
-254.107	800.000	0.095	0.280
-253.092	-61.683	0.277	0.115
-252.078	415.124	0.024	-0.050
-251.063	-12.893	0.134	0.087
-250.049	800.000	-0.060	-0.171
-249.034	46.394	-0.119	-0.109
-248.019	-28.711	0.088	0.050
-247.005	-69.877	0.426	-0.161
-245.990	800.000	0.108	0.324
-244.976	-39.428	-0.102	-0.053
-243.961	510.534	-0.042	0.098
-242.946	758.485	0.058	0.156
-241.932	109.662	-0.096	0.114
-240.917	-200.000	0.004	-0.062
-239.903	645.155	-0.050	-0.127
-238.888	-200.000	-0.016	-0.227
-237.873	800.000	-0.039	-0.138
-236.859	-200.000	0.001	-0.257
-235.844	558.363	-0.021	-0.049
-234.830	248.681	-0.140	0.235
-233.815	33.703	0.211	0.182
-232.800	-102.852	-0.121	0.029
-231.786	-200.000	0.012	-0.134
-230.771	-157.337	-0.138	-0.008
-229.757	-200.000	0.036	0.187
-228.742	-102.470	0.057	0.013
-227.727	622.698	-0.098	0.244
-226.713	-40.113	0.237	0.123
-225.698	163.225	0.189	0.263
-224.684	-122.496	-0.479	0.077
-223.669	-67.954	-0.064	-0.025
-222.655	695.100	0.062	-0.162
-221.640	-123.083	-0.245	0.039
-220.625	-100.870	-0.226	0.055
-219.611	17.557	-0.177	-0.140
-218.596	-96.459	0.039	0.010
-217.582	-15.070	-0.391	-0.248
-216.567	-116.022	-0.031	0.006
-215.552	800.000	-0.004	0.014
-214.538	173.427	-0.124	0.177
-213.523	-79.143	-0.231	0.078
-212.509	-27.102	-0.093	-0.054
-211.494	-147.719	0.199	0.017
-210.479	151.235	-0.328	0.442
-209.465	490.823	0.115	-0.260
-208.450	235.147	-0.123	-0.202
-207.436	-200.000	0.021	0.286
-206.421	800.000	0.051	0.191
-205.406	176.170	0.151	-0.217
-204.392	196.964	-0.143	0.216
-203.377	-151.228	-0.153	-0.011
-202.363	-200.000	0.071	-0.566
-201.348	-150.045	-0.139	0.011
-200.333	-31.236	0.150	-0.083
-199.319	88.948	-0.358	0.395
-198.304	-65.428	-0.456	0.182
-197.290	-200.000	-0.012	0.085
-196.275	492.884	0.052	0.117
-195.260	264.735	0.095	-0.163
-194.246	-200.000	-0.030	0.223
-193.231	800.000	0.043	-0.147
-192.217	40.590	-0.284	-0.253
-191.202	-151.806	-0.087	0.006
-190.187	-111.771	-0.089	-0.018
-189.173	-200.000	-0.040	-0.403
-188.158	800.000	0.061	-0.238
-187.144	135.773	-0.246	0.317
-186.129	4.335	0.277	0.201
-185.114	-200.000	0.023	0.313
-184.100	224.006	-0.309	0.494
-183.085	-200.000	0.004	-0.170
-182.071	796.526	-0.028	-0.077
-181.056	-105.488	-0.074	-0.017
-180.042	797.463	0.077	0.210
-179.027	441.578	-0.081	0.175
-178.012	-55.732	0.080	0.036
-176.998	154.476	0.123	0.167
-175.983	-74.742	0.437	0.155
-174.969	14.345	0.063	0.048
-173.954	-27.650	-0.262	0.151
-172.939	-82.258	-0.264	-0.085
-171.925	174.414	0.124	-0.178
-170.910	398.867	0.126	-0.261
-169.896	-51.795	-0.364	0.167
-168.881	-200.000	-0.053	-0.261
-167.866	579.662	-0.066	0.160
-166.852	-200.000	-0.011	0.095
-165.837	-22.806	-0.154	-0.092
-164.823	431.747	0.090	0.193
-163.808	231.065	-0.164	0.265
-162.793	-142.673	-0.357	0.034
-161.779	182.708	-0.157	-0.229
-160.764	-200.000	-0.024	0.176
-159.750	311.275	0.103	-0.191
-158.735	-138.820	-0.601	-0.065
-157.720	-179.133	-0.312	-0.007
-156.706	-126.557	-0.150	0.022
-155.691	-13.487	0.200	-0.128
-154.677	-157.659	0.479	0.028
-153.662	490.968	0.077	0.175
-152.647	-93.390	-0.126	0.034
-151.633	39.785	-0.151	-0.134
-150.618	-19.238	0.471	0.289
-149.604	-200.000	-0.002	0.188
-148.589	-110.623	0.270	0.055
-147.574	173.436	-0.002	0.002
-146.560	372.748	-0.166	0.333
-145.545	-200.000	0.027	0.123
-144.531	92.345	0.075	0.084
-143.516	140.586	0.307	0.400
-142.502	-95.751	0.119	-0.031
-141.487	800.000	-0.015	-0.064
-140.472	-116.751	-0.140	0.025
-139.458	-31.329	-0.026	-0.014
-138.443	-122.107	0.259	-0.042
-137.429	128.676	-0.098	0.123
-136.414	-5.045	-0.400	0.272
-135.399	53.383	-0.140	0.132
-134.385	-137.664	0.181	0.020
-133.370	254.006	-0.087	-0.147
-132.356	28.459	-0.290	-0.242
-131.341	-87.385	-0.334	-0.100
-130.326	-92.556	0.327	0.091
-129.312	38.008	-0.268	-0.235
-128.297	258.796	0.098	0.167
-127.283	-58.639	-0.190	-0.081
-126.268	-77.205	0.309	-0.106
-125.253	32.708	-0.066	-0.056
-124.239	-34.197	0.114	0.062
-123.224	-38.317	-0.174	-0.091
-122.210	-200.000	-0.037	-0.173
-121.195	-143.163	0.204	0.019
-120.180	800.000	0.059	0.203
-119.166	98.180	-0.141	0.160
-118.151	-157.434	-0.297	-0.018
-117.137	124.199	0.170	-0.211
-116.122	-0.036	-0.278	0.195
-115.107	-15.717	-0.086	-0.054
-114.093	122.313	0.150	0.185
-113.078	-96.966	0.136	0.035
-112.064	624.263	0.041	0.101
-111.049	267.775	-0.128	0.222
-110.034	-154.711	0.223	0.015
-109.020	-200.000	-0.042	-0.250
-108.005	-200.000	-0.040	-0.268
-106.991	800.000	0.024	-0.085
-105.976	56.675	0.067	-0.065
-104.962	297.034	0.065	0.118
-103.947	-21.357	0.189	0.114
-102.932	568.493	-0.021	0.051
-101.918	36.397	0.131	-0.114
-100.903	48.702	-0.207	0.192
-99.889	-95.057	-0.281	-0.075
-98.874	-114.880	-0.167	-0.031
-97.859	39.267	-0.183	0.162
-96.845	65.610	0.102	0.102
-95.830	86.684	-0.107	-0.116
-94.816	-24.004	-0.129	-0.076
-93.801	-200.000	-0.025	0.298
-92.786	-172.613	-0.093	-0.003
-91.772	-91.758	0.351	0.098
-90.757	-193.805	0.223	0.002
-89.743	-98.234	-0.191	0.048
-88.728	800.000	0.064	-0.248
-87.713	272.561	-0.120	-0.209
-86.699	800.000	-0.060	0.187
-85.684	168.625	0.159	-0.224
-84.670	800.000	-0.096	0.336
-83.655	800.000	0.117	0.428
-82.640	104.860	-0.133	-0.154
-81.626	-6.818	0.224	0.150
-80.611	456.733	0.111	0.243
-79.597	-94.094	-0.127	-0.034
-78.582	-61.805	-0.248	-0.102
-77.567	-134.290	0.177	0.021
-76.553	800.000	-0.149	0.468
-75.538	-141.976	0.254	0.025
-74.524	311.124	0.112	0.206
-73.509	122.165	0.129	-0.158
-72.494	136.208	0.088	0.113
-71.480	446.151	-0.153	-0.331
-70.465	195.202	0.238	0.356
-69.451	800.000	-0.132	0.397
-68.436	69.298	-0.055	-0.056
-67.422	-95.539	-0.302	-0.080
-66.407	-92.645	-0.172	0.048
-65.392	-200.000	0.001	-0.104
-64.378	-200.000	0.016	-0.181
-63.363	-49.509	0.117	-0.055
-62.349	-46.309	0.091	0.044
-61.334	192.868	-0.757	-1.126
-60.319	105.031	0.429	0.498
-59.305	128.345	-0.741	-0.929
-58.290	260.069	0.603	1.025
-57.276	356.339	0.905	1.775
-56.261	-200.000	95.961	596.099
-55.246	565.404	1373.545	3278.699
-54.232	160.721	2551.497	3506.949
-53.217	113.252	2142.876	2559.147
-52.203	44.053	1604.162	1447.632
-51.188	35.573	1342.338	1160.361
-50.173	32.549	1300.431	1106.361
-49.159	54.662	1347.821	1279.320
-48.144	56.737	1364.424	1307.416
-47.130	35.854	1322.952	1145.099
-46.115	32.319	1305.855	1109.442
-45.100	32.122	1300.612	1103.789
-44.086	32.060	1298.214	1101.345
-43.071	31.999	1296.072	1099.127
-42.057	31.972	1293.663	1096.884
-41.042	32.106	1291.826	1096.061
-40.027	32.122	1290.297	1094.817
-39.013	32.111	1288.352	1093.056
-37.998	31.993	1286.678	1090.910
-36.984	32.188	1284.872	1090.464
-35.969	32.096	1283.417	1088.651
-34.954	32.165	1281.993	1087.805
-33.940	32.181	1280.346	1086.454
-32.925	32.234	1279.166	1085.716
-31.911	32.225	1277.446	1084.164
-30.896	32.260	1275.868	1082.981
-29.881	32.263	1274.535	1081.822
-28.867	32.349	1272.801	1080.802
-27.852	32.299	1271.724	1079.556
-26.838	32.329	1270.371	1078.541
-25.823	32.475	1268.374	1077.639
-24.809	32.183	1267.777	1075.415
-23.794	32.216	1266.412	1074.403
-22.779	32.229	1265.377	1073.556
-21.765	32.240	1264.111	1072.502
-20.750	32.222	1262.830	1071.269
-19.736	32.245	1261.001	1069.806
-18.721	32.072	1260.219	1068.116
-17.706	32.093	1258.781	1066.979
-16.692	32.047	1257.962	1065.979
-15.677	32.166	1256.492	1065.368
-14.663	32.143	1255.598	1064.435
-13.648	32.064	1254.616	1063.113
-12.633	32.167	1253.695	1062.873
-11.619	31.978	1253.057	1061.222
-10.604	32.060	1251.801	1060.580
-9.590	32.065	1250.988	1059.873
-8.575	32.030	1250.012	1058.807
-7.560	32.038	1249.512	1058.387
-6.546	32.050	1247.879	1057.031
-5.531	32.067	1247.110	1056.434
-4.517	32.159	1245.741	1055.747
-3.502	32.074	1245.678	1055.179
-2.487	32.175	1244.103	1054.365
-1.473	32.156	1240.242	1050.947
-0.458	30.745	1225.677	1030.758
0.556	27.108	1208.437	993.189
1.571	23.558	1214.217	978.313
2.586	22.566	1230.389	985.708
3.600	22.122	1218.704	973.802
4.615	15.746	1144.787	881.355
5.629	5.890	1069.000	774.493
6.644	1.806	1049.058	740.165
7.659	1.596	1046.684	737.410
8.673	1.493	1045.339	735.898
9.688	1.465	1043.827	734.632
10.702	1.698	1042.108	734.480
11.717	7.691	1051.042	769.809
12.731	17.929	1065.297	830.201
13.746	23.439	1072.779	862.860
14.761	24.835	1073.883	870.465
15.775	24.921	1073.658	870.621
16.790	24.722	1072.561	868.691
17.804	24.648	1071.990	867.794
18.819	24.779	1071.964	868.328
19.834	24.836	1071.411	868.080
20.848	24.913	1070.930	867.989
21.863	24.965	1070.252	867.616
22.877	24.899	1069.529	866.630
23.892	24.755	1068.981	865.416
24.907	24.878	1068.349	865.421
25.921	24.886	1067.450	864.657
26.936	24.972	1065.408	863.340
27.950	24.773	1064.344	861.441
28.965	24.704	1062.920	859.880
29.980	24.703	1061.381	858.555
30.994	24.930	1060.611	858.948
32.009	24.957	1059.454	858.061
33.023	24.764	1057.863	855.775
34.038	24.916	1057.154	855.851
35.053	24.982	1056.655	855.690
36.067	24.834	1055.883	854.279
37.082	25.005	1055.006	854.312
38.096	25.109	1054.441	854.275
39.111	25.116	1053.826	853.735
40.126	25.051	1052.101	851.951
41.140	24.719	1050.652	849.123
42.155	24.506	1049.572	847.167
43.169	24.608	1048.501	846.714
44.184	24.452	1047.613	845.183
45.199	24.389	1046.706	844.074
46.213	24.468	1045.929	843.750
47.228	24.809	1044.736	844.321
48.242	24.756	1044.427	843.744
49.257	24.847	1043.782	843.580
50.271	24.980	1042.789	843.328
51.286	24.939	1041.909	842.350
52.301	25.046	1041.129	842.148
53.315	24.873	1040.034	840.376
54.330	24.901	1039.397	839.919
55.344	24.842	1038.489	838.833
56.359	24.752	1037.852	837.822
57.374	24.677	1036.664	836.439
58.388	24.683	1035.925	835.795
59.403	24.697	1034.776	834.861
60.417	24.632	1033.853	833.739
61.432	24.693	1033.254	833.468
62.447	24.648	1033.396	833.299
63.461	24.750	1032.023	832.589
64.476	24.662	1030.973	831.263
65.490	24.544	1030.420	830.191
66.505	24.646	1029.705	830.016
67.520	24.758	1028.626	829.595
68.534	24.417	1028.008	827.440
69.549	24.130	1026.557	824.872
70.563	24.084	1026.408	824.464
71.578	24.181	1025.537	824.140
72.593	24.046	1024.237	822.400
73.607	24.134	1024.030	822.566
74.622	24.354	1023.606	823.171
75.636	24.480	1023.225	823.372
76.651	24.391	1021.830	821.768
77.666	24.226	1021.023	820.286
78.680	24.351	1020.662	820.497
79.695	24.325	1020.048	819.811
80.709	24.456	1019.375	819.801
81.724	24.479	1018.547	819.166
82.739	24.539	1017.835	818.797
83.753	24.936	1017.376	820.172
84.768	25.147	1016.565	820.416
85.782	25.340	1015.673	820.502
86.797	25.234	1014.528	819.024
87.812	25.064	1013.615	817.439
88.826	25.120	1012.919	817.057
89.841	25.133	1012.240	816.497
90.855	25.203	1011.011	815.750
91.870	25.321	1009.639	815.110
92.884	24.997	1009.539	813.484
93.899	25.129	1008.176	812.912
94.914	25.169	1007.432	812.423
95.928	24.945	1006.575	810.647
96.943	24.700	1005.202	808.360
97.957	24.510	1004.329	806.728
98.972	24.237	1003.472	804.737
99.987	24.735	1002.737	806.322
101.001	24.900	1001.588	806.072
102.016	24.876	1001.042	805.451
103.030	24.772	1000.342	804.350
104.045	24.678	999.470	803.153
105.060	24.555	998.078	801.411
106.074	24.717	997.721	801.782
107.089	24.898	997.382	802.252
108.103	24.837	996.079	800.856
109.118	24.556	995.288	798.894
110.133	24.730	993.690	798.317
111.147	24.417	992.406	795.822
112.162	24.326	991.830	794.881
113.176	24.671	991.164	795.815
114.191	24.565	990.195	794.496
115.206	24.161	989.574	792.131
116.220	24.141	988.988	791.501
117.235	24.299	987.887	791.251
118.249	24.392	986.618	790.576
119.264	24.127	986.503	789.242
120.279	24.231	985.546	788.866
121.293	24.308	984.474	788.279
122.308	24.351	984.180	788.165
123.322	24.250	983.065	786.756
124.337	24.010	981.655	784.498
125.352	23.574	979.735	780.976
126.366	23.504	979.173	780.151
127.381	24.401	979.139	784.001
128.395	24.772	979.079	785.510
129.410	24.865	977.649	784.703
130.424	24.821	976.840	783.791
131.439	24.779	976.249	783.062
132.454	24.869	974.918	782.319
133.468	24.758	973.980	781.013
134.483	24.947	973.147	781.101
135.497	25.191	972.362	781.464
136.512	25.183	971.771	780.886
137.527	25.166	970.789	779.954
138.541	25.033	970.486	779.065
139.556	24.981	969.787	778.207
140.570	25.084	968.890	777.865
141.585	25.281	967.468	777.508
142.600	25.195	966.552	776.332
143.614	25.340	966.132	776.552
144.629	25.395	965.302	776.055
145.643	25.190	964.575	774.517
146.658	25.056	962.803	772.449
147.673	25.015	961.982	771.546
148.687	24.872	961.196	770.231
149.702	24.923	959.912	769.353
150.716	24.852	959.016	768.262
151.731	25.031	958.469	768.523
152.746	25.223	957.926	768.843
153.760	25.347	957.409	768.892
154.775	25.326	956.868	768.296
155.789	25.368	955.667	767.447
156.804	25.316	954.787	766.450
157.819	25.211	954.549	765.740
158.833	25.451	953.378	765.759
159.848	25.358	952.656	764.713
160.862	25.243	951.030	762.850
161.877	25.383	950.239	762.746
162.892	25.319	949.205	761.574
163.906	25.264	948.158	760.434
164.921	25.181	947.591	759.563
165.935	25.349	946.505	759.333
166.950	25.297	946.110	758.731
167.964	25.392	945.016	758.186
168.979	25.037	943.888	755.719
169.994	25.061	943.371	755.341
171.008	25.257	942.583	755.465
172.023	25.150	942.172	754.620
173.037	25.143	940.151	752.903
174.052	24.977	939.887	751.932
175.067	24.980	939.160	751.293
176.081	25.069	938.755	751.276
177.096	25.085	937.988	750.664
178.110	24.751	936.895	748.326
179.125	24.508	936.247	746.724
180.140	24.575	936.343	747.015
181.154	24.912	935.748	747.885
182.169	25.057	935.671	748.364
183.183	25.295	935.205	748.915
184.198	25.062	934.209	747.080
185.213	25.171	933.362	746.790
186.227	25.240	932.946	746.677
187.242	25.183	932.237	745.807
188.256	25.278	931.691	745.699
189.271	25.466	930.564	745.514
190.286	25.018	930.330	743.402
191.300	24.336	928.349	738.929
192.315	23.556	926.804	734.405
193.329	23.554	926.218	733.866
194.344	24.650	926.981	738.942
195.359	25.107	926.736	740.571
196.373	25.270	926.100	740.669
197.388	25.002	925.653	739.141
198.402	25.059	925.578	739.247
199.417	25.029	924.516	738.212
200.432	24.938	923.473	736.937
201.446	24.799	922.557	735.570
202.461	24.756	922.582	735.351
203.475	23.928	920.222	730.005
204.490	23.200	919.089	726.057
205.504	24.111	919.382	729.962
206.519	24.660	919.527	732.263
207.534	24.883	919.128	732.792
208.548	25.225	919.099	734.104
209.563	24.976	917.564	731.796
210.577	24.918	917.469	731.417
211.592	25.304	917.190	732.707
212.607	25.381	915.938	731.955
213.621	25.324	915.614	731.400
214.636	25.279	915.216	730.834
215.650	25.184	914.078	729.476
216.665	25.465	913.534	730.118
217.680	25.534	912.108	729.192
218.694	24.800	911.648	725.785
219.709	24.701	911.036	724.831
220.723	24.894	910.738	725.311
221.738	25.072	909.964	725.352
222.753	25.080	909.133	724.657
223.767	25.268	908.538	724.879
224.782	25.461	908.693	725.720
225.796	25.469	907.922	725.071
226.811	24.657	906.693	720.754
227.826	24.160	904.773	717.163
228.840	24.329	904.732	717.747
229.855	24.337	904.092	717.206
230.869	23.982	903.195	715.007
231.884	24.457	903.211	716.863
232.899	25.094	903.217	719.361
233.913	25.062	902.351	718.480
234.928	25.042	901.721	717.835
235.942	24.996	901.286	717.239
236.957	24.607	900.520	715.010
237.972	24.826	899.694	715.168
238.986	24.896	899.288	715.061
240.001	24.756	898.861	714.101
241.015	24.936	898.303	714.309
242.030	25.026	898.069	714.420
243.045	25.218	897.812	714.917
244.059	25.330	896.777	714.478
245.074	25.036	895.888	712.536
246.088	24.647	894.750	710.023
247.103	25.038	894.699	711.472
248.117	25.616	894.893	713.856
249.132	25.883	894.438	714.489
250.147	26.000	894.008	714.549
251.161	25.989	893.617	714.128
252.176	26.133	892.321	713.599
253.190	26.122	892.182	713.380
254.205	26.262	891.690	713.478
255.220	26.145	891.203	712.565
256.234	26.021	889.991	711.040
257.249	25.955	889.337	710.198
258.263	26.048	888.448	709.791
259.278	26.031	888.547	709.738
260.293	26.094	887.782	709.313
261.307	26.008	886.999	708.287
262.322	25.852	886.036	706.844
263.336	24.898	884.627	701.919
264.351	24.016	882.511	696.725
265.366	24.174	882.050	696.921
266.380	25.166	883.226	701.670
267.395	25.665	882.700	703.138
268.409	25.528	881.713	701.757
269.424	25.776	881.245	702.291
270.439	25.859	880.594	702.034
271.453	25.998	879.963	702.007
272.468	26.022	880.251	702.269
273.482	26.108	879.783	702.166
274.497	25.700	877.968	699.072
275.512	25.314	877.315	696.993
276.526	25.768	877.248	698.638
277.541	25.837	877.188	698.798
278.555	25.654	876.117	697.174
279.570	25.443	875.549	695.842
280.585	25.722	874.923	696.363
281.599	25.671	873.776	695.193
282.614	24.977	872.764	691.648
283.628	24.989	872.527	691.442
284.643	25.306	872.552	692.627
285.657	24.935	871.142	690.015
286.672	24.683	870.381	688.384
287.687	25.419	870.045	690.887
288.701	25.469	869.688	690.735
289.716	25.125	868.663	688.540
290.730	24.984	868.125	687.509
291.745	24.874	867.010	686.143
292.760	25.214	866.816	687.233
293.774	25.988	867.637	690.790
294.789	26.390	867.281	691.984
295.803	26.230	866.870	690.982
296.818	26.434	866.022	691.022
297.833	26.012	864.692	688.292
298.847	25.822	864.453	687.315
299.862	26.121	864.037	688.063
300.876	26.351	864.029	688.873
301.891	26.402	862.766	688.002
302.906	25.806	861.958	685.027
303.920	25.956	861.746	685.370
304.935	26.296	861.960	686.773
305.949	26.462	860.685	686.327
306.964	25.957	859.925	683.743
307.979	26.079	859.974	684.185
308.993	26.513	859.669	685.528
310.008	26.533	859.004	685.012
311.022	26.239	857.820	682.895
312.037	26.053	857.881	682.180
313.052	25.743	856.613	679.940
314.066	24.983	854.860	675.625
315.081	24.621	854.180	673.663
316.095	25.495	854.931	677.489
317.110	26.053	854.117	678.887
318.125	25.145	853.046	674.560
319.139	24.095	851.401	669.255
320.154	24.251	851.170	669.602
321.168	25.050	851.887	673.110
322.183	25.787	852.024	675.927
323.197	25.790	851.749	675.659
324.212	25.979	851.286	675.939
325.227	26.244	850.265	676.059
326.241	26.043	849.367	674.534
327.256	25.877	849.101	673.646
328.270	25.872	848.369	672.986
329.285	25.702	847.379	671.506
330.300	25.542	846.435	670.103
331.314	25.687	846.517	670.649
332.329	26.171	846.389	672.290
333.343	26.190	846.340	672.263
334.358	26.151	846.058	671.832
335.373	26.414	845.195	672.067
336.387	26.461	845.445	672.381
337.402	26.737	845.123	673.092
338.416	26.517	845.053	672.160
339.431	26.796	844.312	672.544
340.446	26.999	843.998	672.985
341.460	26.712	843.530	671.491
342.475	26.594	842.844	670.448
343.489	26.733	842.704	670.792
344.504	26.857	842.663	671.157
345.519	27.135	841.953	671.561
346.533	27.065	841.590	670.954
347.548	27.015	841.107	670.325
348.562	27.045	840.691	670.043
349.577	27.089	839.804	669.441
350.592	26.864	839.569	668.367
351.606	26.955	838.500	667.788
352.621	26.958	837.606	667.029
353.635	26.806	836.625	665.630
354.650	26.251	834.816	662.101
355.665	25.157	833.700	657.149
356.679	25.627	833.639	658.767
357.694	25.964	833.412	659.760
358.708	25.916	832.803	659.046
359.723	26.501	832.615	660.977
360.738	26.639	832.142	661.047
361.752	26.665	831.666	660.705
362.767	27.124	831.851	662.464
363.781	27.301	831.290	662.607
364.796	27.278	831.199	662.391
365.810	27.474	830.642	662.600
366.825	27.323	830.068	661.534
367.840	26.958	829.417	659.633
368.854	26.771	828.388	658.079
369.869	26.699	827.921	657.387
370.883	26.819	827.473	657.408
371.898	26.741	827.011	656.700
372.913	26.897	826.798	657.037
373.927	26.897	826.034	656.370
374.942	27.046	826.054	656.870
375.956	27.114	825.722	656.791
376.971	27.217	824.927	656.474
377.986	27.545	824.746	657.455
379.000	27.366	824.117	656.250
380.015	27.134	823.525	654.886
381.029	27.301	822.950	654.970
382.044	27.552	822.234	655.247
383.059	27.393	821.795	654.266
384.073	27.476	821.463	654.241
385.088	27.262	820.973	653.028
386.102	27.185	820.049	651.958
387.117	26.950	819.631	650.724
388.132	26.612	818.284	648.389
389.146	26.312	817.508	646.641
390.161	26.700	817.348	647.845
391.175	27.021	817.330	648.921
392.190	26.816	816.120	647.174
393.205	25.487	813.848	640.581
394.219	23.991	812.049	633.785
395.234	23.891	812.321	633.582
396.248	25.328	813.663	639.698
397.263	26.957	814.374	646.003
398.278	26.882	814.049	645.422
399.292	26.475	813.356	643.370
400.307	26.599	812.862	643.363
401.321	26.786	812.290	643.517
402.336	27.065	812.548	644.655
403.350	27.490	812.703	646.229
404.365	27.909	811.878	646.998
405.380	28.136	811.866	647.737
406.394	28.203	811.407	647.550
407.409	27.951	810.782	646.102
408.423	28.028	810.608	646.180
409.438	28.029	810.133	645.747
410.453	28.062	809.566	645.353
411.467	27.957	809.292	644.710
412.482	28.040	808.804	644.554
413.496	28.185	808.277	644.588
414.511	28.130	808.072	644.175
415.526	28.015	807.800	643.494
416.540	27.980	806.712	642.449
417.555	27.672	805.975	640.725
418.569	27.982	805.579	641.441
419.584	27.746	805.224	640.273
420.599	27.644	804.309	639.131
421.613	110.230	1287.024	1458.984
422.628	95.142	1357.314	1459.075
