DTS Sentinel unit serial number:	SN413079Multiplexer serial number:	ORYXHardware model number:	OX4-SRSoftware version number:	ORYX F/W v4.00 Oryx Data Collector v3.7.2.0data status	okinstallation	princeton_trtdifferential loss correction	single-endedforward channel	channel 1reverse channel	N/Adate	2019/09/16time	08:30:35forward acquisition time	60.00reverse acquisition time	0.00gamma	496.2192k internal	0.2324k external	0.2324temperature offset calibration	0.9977default loss term (dB/km)	0.3790temperature slope calibration	1.0000multiplexer offset coefficient	1.0000multiplexer slope coefficient	1.0000fibre end	0.00T internal ref (°C)	29.30T ext. ref 1 (°C)	11.90T ext. ref 2 (°C)	25.83length (m)	temperature (°C)	Stokes	anti-Stokes-747.200	17.005	0.107	0.086
-746.185	498.544	0.039	0.091
-745.171	606.796	-0.070	-0.177
-744.156	-52.926	0.036	-0.017
-743.142	-37.512	-0.170	-0.091
-742.127	131.337	-0.225	0.291
-741.112	-26.022	0.216	0.128
-740.098	-2.242	-0.111	0.079
-739.083	86.280	-0.076	0.085
-738.069	-101.094	-0.192	-0.048
-737.054	800.000	0.028	0.119
-736.039	-200.000	0.001	0.136
-735.025	166.608	0.105	0.150
-734.010	388.842	-0.059	0.123
-732.996	-71.330	0.132	-0.050
-731.981	450.599	-0.173	-0.385
-730.966	26.181	-0.238	0.200
-729.952	-14.471	-0.239	0.155
-728.937	-67.795	0.144	-0.057
-727.923	59.492	-0.231	0.230
-726.908	-124.743	-0.217	0.034
-725.894	600.429	-0.033	0.084
-724.879	-200.000	0.010	-0.116
-723.864	-200.000	0.061	-0.342
-722.850	-90.253	0.139	0.041
-721.835	108.213	-0.255	0.306
-720.821	800.000	0.029	0.094
-719.806	10.333	-0.274	-0.210
-718.791	-200.000	-0.026	-0.175
-717.777	-38.036	0.142	0.076
-716.762	88.865	0.226	0.254
-715.748	429.385	0.192	0.418
-714.733	166.827	0.158	0.225
-713.718	-49.833	-0.150	0.072
-712.704	50.724	-0.162	-0.154
-711.689	-200.000	0.031	0.165
-710.675	119.223	0.113	0.141
-709.660	-15.551	-0.155	0.100
-708.645	47.718	0.026	0.024
-707.631	251.082	0.118	-0.202
-706.616	-17.181	-0.063	-0.040
-705.602	178.542	-0.165	-0.243
-704.587	90.478	0.063	0.071
-703.572	153.324	-0.133	0.184
-702.558	639.973	-0.065	-0.167
-701.543	52.257	-0.109	-0.105
-700.529	-100.182	-0.091	-0.023
-699.514	31.786	-0.068	-0.059
-698.499	-200.000	0.004	-0.246
-697.485	800.000	0.090	-0.394
-696.470	194.034	-0.201	-0.307
-695.456	40.397	-0.245	-0.222
-694.441	-53.888	0.118	0.054
-693.426	800.000	0.058	-0.192
-692.412	800.000	-0.066	-0.209
-691.397	169.663	-0.160	-0.230
-690.383	-122.524	-0.321	-0.053
-689.368	-200.000	0.042	-0.303
-688.354	130.682	0.173	-0.223
-687.339	392.674	-0.057	-0.120
-686.324	324.973	0.196	0.377
-685.310	81.495	0.025	-0.027
-684.295	-59.253	-0.363	-0.157
-683.281	100.721	-0.195	-0.228
-682.266	-79.549	-0.191	0.065
-681.251	-151.491	-0.242	0.018
-680.237	118.676	0.260	-0.323
-679.222	428.475	-0.059	0.128
-678.208	356.379	0.123	-0.247
-677.193	265.284	-0.172	0.302
-676.178	484.852	-0.047	-0.108
-675.164	358.235	0.053	0.107
-674.149	412.995	0.012	0.027
-673.135	-120.401	0.029	0.005
-672.120	332.189	0.188	-0.365
-671.105	-200.000	0.022	0.229
-670.091	-112.257	-0.340	-0.069
-669.076	-0.438	0.159	-0.114
-668.062	-11.012	0.040	0.027
-667.047	-137.429	-0.141	-0.016
-666.032	667.337	-0.028	0.072
-665.018	800.000	0.095	-0.366
-664.003	25.225	0.060	-0.050
-662.989	-96.092	-0.563	0.151
-661.974	-34.698	0.114	-0.063
-660.959	800.000	-0.099	0.301
-659.945	-200.000	-0.019	-0.223
-658.930	800.000	0.037	0.111
-657.916	-200.000	-0.014	-0.231
-656.901	-200.000	-0.004	0.038
-655.886	58.469	0.109	-0.107
-654.872	-79.301	-0.234	0.080
-653.857	-163.286	-0.211	0.010
-652.843	-23.457	-0.226	0.136
-651.828	-62.766	-0.205	-0.085
-650.814	-194.417	-0.148	-0.001
-649.799	-108.707	0.191	0.041
-648.784	87.567	0.073	-0.081
-647.770	723.892	0.094	0.252
-646.755	-200.000	0.035	0.328
-645.741	74.441	-0.252	0.267
-644.726	-200.000	-0.038	-0.245
-643.711	-200.000	0.070	0.326
-642.697	-91.370	0.171	0.049
-641.682	-78.581	0.349	0.120
-640.668	84.642	-0.111	0.122
-639.653	217.691	-0.050	-0.081
-638.638	44.643	0.204	0.188
-637.624	-186.030	-0.247	0.004
-636.609	2.331	-0.111	0.081
-635.595	800.000	-0.024	-0.073
-634.580	53.392	-0.138	0.133
-633.565	65.089	0.284	-0.288
-632.551	-121.279	0.511	-0.086
-631.536	-142.576	-0.234	-0.023
-630.522	-61.106	0.234	0.099
-629.507	137.957	-0.194	-0.256
-628.492	-115.400	0.395	-0.075
-627.478	-200.000	0.041	0.510
-626.463	-70.754	-0.088	0.034
-625.449	96.016	-0.097	0.111
-624.434	-11.099	-0.010	0.006
-623.419	-24.275	0.082	0.049
-622.405	800.000	-0.063	-0.266
-621.390	-117.647	0.261	-0.047
-620.376	-173.214	0.077	0.002
-619.361	-112.628	-0.058	0.012
-618.346	-187.234	0.423	0.006
-617.332	-121.067	-0.285	0.048
-616.317	-37.110	-0.231	-0.124
-615.303	63.289	0.142	-0.143
-614.288	-0.527	-0.165	-0.117
-613.273	-141.537	0.140	0.014
-612.259	800.000	0.036	-0.115
-611.244	-200.000	-0.000	-0.126
-610.230	-98.707	-0.317	0.081
-609.215	-122.986	0.025	0.004
-608.201	-31.643	0.235	-0.133
-607.186	-200.000	-0.047	-0.397
-606.171	191.865	0.110	-0.167
-605.157	-7.728	0.229	-0.155
-604.142	255.993	-0.122	-0.210
-603.128	-200.000	-0.005	0.053
-602.113	-3.810	-0.402	0.280
-601.098	782.272	0.014	-0.040
-600.084	-200.000	0.004	-0.304
-599.069	-111.308	0.229	0.047
-598.055	-123.198	0.066	-0.011
-597.040	-129.660	0.229	0.032
-596.025	-200.000	-0.016	0.103
-595.011	-147.811	0.280	-0.024
-593.996	271.436	0.058	0.102
-592.982	-170.831	-0.338	-0.012
-591.967	-172.417	-0.298	0.009
-590.952	800.000	0.044	0.138
-589.938	-28.626	-0.112	-0.065
-588.923	794.709	-0.105	0.290
-587.909	39.737	0.331	-0.298
-586.894	-49.757	0.288	-0.137
-585.879	-72.212	0.328	0.122
-584.865	-120.269	-0.142	0.024
-583.850	-200.000	-0.024	-0.199
-582.836	10.205	0.209	-0.160
-581.821	-200.000	0.027	-0.171
-580.806	-103.243	0.055	-0.013
-579.792	800.000	0.036	0.126
-578.777	800.000	-0.037	0.159
-577.763	-7.254	-0.232	0.157
-576.748	800.000	0.044	0.122
-575.733	-9.457	-0.169	-0.113
-574.719	-185.445	0.277	0.004
-573.704	-200.000	-0.060	0.295
-572.690	-96.131	-0.053	0.014
-571.675	-200.000	0.040	0.276
-570.661	284.818	0.146	0.264
-569.646	110.831	0.234	0.282
-568.631	-90.192	0.100	-0.029
-567.617	567.674	0.080	0.195
-566.602	-77.754	-0.214	-0.074
-565.588	125.062	0.132	0.167
-564.573	78.776	-0.038	-0.040
-563.558	15.296	-0.236	-0.186
-562.544	-94.899	0.251	0.068
-561.529	-142.060	0.119	-0.012
-560.515	-200.000	-0.035	-0.258
-559.500	-67.230	-0.279	-0.110
-558.485	-84.301	-0.188	0.060
-557.471	-200.000	-0.026	-0.263
-556.456	205.623	0.134	-0.208
-555.442	-59.338	0.222	0.096
-554.427	-83.338	0.256	-0.082
-553.412	-151.888	-0.241	-0.018
-552.398	800.000	0.025	-0.109
-551.383	-161.998	-0.490	0.025
-550.369	361.940	0.121	-0.242
-549.354	-118.160	-0.039	0.007
-548.339	-19.822	-0.111	0.069
-547.325	-105.223	-0.130	0.030
-546.310	-94.623	-0.110	-0.030
-545.296	60.495	-0.087	0.086
-544.281	-137.321	-0.125	0.014
-543.266	-20.040	0.252	-0.156
-542.252	-125.507	-0.094	-0.014
-541.237	-106.868	-0.223	0.050
-540.223	-200.000	-0.002	-0.089
-539.208	-200.000	0.013	-0.253
-538.193	64.695	-0.203	0.205
-537.179	128.534	0.279	0.356
-536.164	59.411	0.114	0.112
-535.150	452.249	-0.047	0.104
-534.135	86.860	-0.227	-0.251
-533.121	301.748	-0.061	-0.113
-532.106	618.152	-0.071	0.179
-531.091	376.018	-0.100	0.204
-530.077	-200.000	-0.029	-0.524
-529.062	-200.000	0.009	-0.162
-528.048	-8.521	0.072	-0.048
-527.033	35.489	-0.144	0.126
-526.018	533.657	-0.095	-0.226
-525.004	48.897	-0.070	0.066
-523.989	84.521	0.127	-0.139
-522.975	8.692	0.409	0.309
-521.960	102.904	-0.109	0.128
-520.945	494.916	-0.138	-0.317
-519.931	40.356	-0.054	0.049
-518.916	-51.375	-0.138	0.065
-517.902	-162.747	-0.120	0.006
-516.887	27.326	0.166	0.139
-515.872	-26.250	-0.396	-0.233
-514.858	761.656	-0.061	0.165
-513.843	631.101	0.188	0.477
-512.829	76.090	0.203	-0.215
-511.814	-13.680	-0.075	0.049
-510.799	-200.000	-0.034	-0.219
-509.785	60.250	-0.295	0.292
-508.770	-126.622	-0.477	-0.071
-507.756	-41.985	0.155	0.079
-506.741	544.238	-0.005	0.011
-505.726	38.952	0.384	0.343
-504.712	248.218	0.080	-0.136
-503.697	-156.401	0.384	0.024
-502.683	289.984	-0.162	0.294
-501.668	127.228	-0.213	0.270
-500.653	560.051	-0.026	0.063
-499.639	800.000	0.072	0.266
-498.624	800.000	-0.064	0.238
-497.610	-200.000	-0.001	0.337
-496.595	-19.981	-0.329	0.203
-495.581	800.000	-0.108	0.326
-494.566	648.953	0.153	0.390
-493.551	43.116	-0.138	-0.126
-492.537	-200.000	-0.150	-0.000
-491.522	26.930	-0.163	0.137
-490.508	59.701	0.173	0.170
-489.493	270.018	-0.084	0.147
-488.478	-55.719	0.189	0.084
-487.464	800.000	-0.122	0.389
-486.449	-125.532	-0.164	-0.025
-485.435	-31.887	-0.324	0.181
-484.420	368.467	0.108	0.217
-483.405	-200.000	0.003	0.047
-482.391	96.907	0.177	-0.202
-481.376	-19.271	0.142	0.088
-480.362	86.221	-0.083	0.091
-479.347	4.377	-0.208	0.152
-478.332	-200.000	-0.031	0.220
-477.318	-15.034	0.271	-0.173
-476.303	77.932	0.107	0.114
-475.289	-134.977	-0.145	0.017
-474.274	-56.325	-0.239	0.106
-473.259	-106.586	0.193	0.043
-472.245	-86.841	-0.267	-0.081
-471.230	-87.145	0.141	-0.043
-470.216	-32.048	0.055	0.031
-469.201	-200.000	0.006	0.222
-468.186	-90.216	0.220	-0.064
-467.172	656.262	-0.042	0.108
-466.157	84.222	0.138	0.150
-465.143	422.614	0.076	0.163
-464.128	-191.496	-0.090	-0.001
-463.113	-47.359	0.324	-0.158
-462.099	385.280	0.057	-0.118
-461.084	-200.000	0.009	-0.198
-460.070	-200.000	0.011	-0.263
-459.055	-143.873	-0.190	0.018
-458.040	43.006	0.194	0.176
-457.026	-63.373	-0.298	0.122
-456.011	10.370	-0.186	-0.142
-454.997	-170.585	0.336	-0.012
-453.982	-200.000	-0.004	0.139
-452.968	-100.863	-0.142	0.035
-451.953	-200.000	-0.249	0.000
-450.938	-79.226	0.186	0.063
-449.924	45.503	0.064	-0.059
-448.909	12.989	-0.343	-0.265
-447.895	800.000	-0.038	0.150
-446.880	-59.810	0.076	0.032
-445.865	354.971	-0.070	0.139
-444.851	47.018	-0.049	-0.045
-443.836	22.970	0.407	0.333
-442.822	-81.702	0.131	0.043
-441.807	-192.190	-0.077	0.001
-440.792	-106.806	0.360	0.080
-439.778	-74.360	-0.093	-0.034
-438.763	800.000	0.032	-0.116
-437.749	-200.000	-0.002	-0.270
-436.734	-41.675	0.401	-0.205
-435.719	-128.051	-0.172	0.025
-434.705	-66.963	-0.152	-0.060
-433.690	89.767	0.203	0.226
-432.676	-85.368	0.387	-0.120
-431.661	-158.146	0.109	0.006
-430.646	-131.982	-0.093	0.012
-429.632	266.290	0.025	-0.044
-428.617	299.030	-0.027	0.050
-427.603	166.257	0.127	0.179
-426.588	347.320	-0.111	0.217
-425.573	-200.000	0.003	-0.028
-424.559	-53.009	0.076	0.035
-423.544	-44.122	-0.300	-0.150
-422.530	-20.152	-0.101	0.062
-421.515	-80.145	-0.272	0.091
-420.500	160.091	-0.140	-0.195
-419.486	-167.977	0.034	0.001
-418.471	-77.511	-0.225	0.078
-417.457	44.759	0.073	0.067
-416.442	-200.000	-0.003	-0.339
-415.428	-29.822	0.414	-0.235
-414.413	-87.927	-0.157	0.047
-413.398	-16.306	-0.358	0.226
-412.384	800.000	0.044	0.122
-411.369	630.514	0.112	-0.281
-410.355	800.000	0.049	0.191
-409.340	44.209	0.121	0.111
-408.325	139.212	-0.041	-0.053
-407.311	219.325	-0.091	-0.145
-406.296	194.744	-0.149	-0.226
-405.282	-76.078	0.435	-0.153
-404.267	11.120	0.402	0.306
-403.252	73.085	-0.193	-0.201
-402.238	-196.624	-0.259	0.002
-401.223	-75.733	-0.302	0.107
-400.209	47.780	-0.217	-0.201
-399.194	-200.000	-0.028	-0.301
-398.179	387.849	0.056	-0.116
-397.165	-152.919	0.192	-0.014
-396.150	39.751	-0.219	-0.196
-395.136	-85.040	0.102	-0.032
-394.121	-21.368	0.046	-0.028
-393.106	-148.125	-0.155	0.013
-392.092	227.024	-0.038	-0.062
-391.077	-56.819	0.352	0.155
-390.063	229.608	-0.010	-0.016
-389.048	95.709	0.099	-0.113
-388.033	-99.492	-0.233	-0.058
-387.019	-155.795	0.138	0.009
-386.004	2.112	-0.069	0.050
-384.990	-200.000	-0.036	0.228
-383.975	-66.070	0.250	0.099
-382.960	-9.383	-0.086	0.057
-381.946	-82.394	0.223	-0.072
-380.931	487.629	-0.104	-0.237
-379.917	-200.000	-0.048	-0.265
-378.902	-47.659	0.112	-0.054
-377.888	-68.808	-0.194	0.075
-376.873	91.246	-0.153	-0.171
-375.858	-102.548	0.296	0.070
-374.844	104.177	-0.120	0.141
-373.829	-11.618	-0.191	0.125
-372.815	41.479	0.227	-0.204
-371.800	-200.000	0.001	0.135
-370.785	617.603	-0.043	-0.108
-369.771	-74.771	-0.132	0.047
-368.756	132.968	-0.109	-0.140
-367.742	-22.755	0.055	-0.033
-366.727	-200.000	0.001	0.273
-365.712	37.251	-0.205	-0.181
-364.698	142.335	0.235	0.310
-363.683	-70.386	-0.286	-0.108
-362.669	-200.000	0.009	-0.050
-361.654	61.937	0.054	0.054
-360.639	29.571	0.256	0.217
-359.625	276.904	0.083	-0.147
-358.610	800.000	0.030	0.092
-357.596	37.819	0.076	-0.067
-356.581	-94.436	-0.333	0.090
-355.566	-115.217	0.240	0.045
-354.552	148.025	0.049	-0.066
-353.537	-156.304	-0.044	-0.003
-352.523	-46.206	-0.204	0.100
-351.508	-87.543	0.250	-0.075
-350.493	-61.329	-0.185	-0.077
-349.479	-200.000	-0.096	-0.472
-348.464	800.000	0.122	-0.413
-347.450	-117.139	0.330	0.060
-346.435	189.921	0.079	-0.118
-345.420	-47.650	-0.037	0.018
-344.406	-200.000	0.038	-0.337
-343.391	290.249	0.111	-0.201
-342.377	-26.945	0.280	-0.162
-341.362	-28.835	-0.177	-0.101
-340.348	-200.000	-0.018	-0.380
-339.333	-200.000	-0.007	0.118
-338.318	26.571	-0.044	-0.036
-337.304	484.115	-0.036	-0.082
-336.289	254.634	-0.175	-0.297
-335.275	-130.469	0.190	-0.026
-334.260	13.979	0.302	-0.233
-333.245	800.000	0.097	0.415
-332.231	-0.034	0.141	0.099
-331.216	63.387	-0.130	0.129
-330.202	21.407	0.080	-0.065
-329.187	381.144	0.130	-0.266
-328.172	-200.000	-0.005	0.290
-327.158	161.981	-0.086	0.120
-326.143	-172.441	-0.254	-0.008
-325.129	60.375	0.013	-0.013
-324.114	-169.526	-0.176	0.006
-323.099	175.801	-0.278	-0.401
-322.085	-200.000	0.014	0.281
-321.070	-50.922	0.013	0.006
-320.056	41.914	0.129	0.116
-319.041	-4.892	-0.193	0.132
-318.026	90.615	0.184	0.205
-317.012	-167.729	-0.459	0.018
-315.997	-126.796	-0.445	0.065
-314.983	-117.878	-0.313	0.056
-313.968	44.192	0.234	0.213
-312.953	86.026	-0.109	0.119
-311.939	800.000	-0.045	-0.154
-310.924	-71.362	-0.244	-0.091
-309.910	-200.000	-0.021	-0.346
-308.895	-200.000	-0.002	0.033
-307.880	176.743	0.168	0.243
-306.866	-182.234	-0.283	-0.005
-305.851	-49.139	0.212	-0.101
-304.837	108.245	-0.162	-0.192
-303.822	-200.000	-0.026	-0.141
-302.807	-106.581	-0.249	0.055
-301.793	49.305	-0.110	-0.103
-300.778	-152.717	-0.470	0.033
-299.764	684.716	0.195	0.505
-298.749	742.505	0.038	-0.101
-297.735	61.130	0.287	0.283
-296.720	-10.434	0.085	0.056
-295.705	68.484	0.255	-0.260
-294.691	-68.019	0.188	-0.073
-293.676	-200.000	-0.014	0.065
-292.662	401.548	0.149	-0.309
-291.647	-200.000	-0.008	-0.141
-290.632	-95.908	0.110	0.029
-289.618	50.837	-0.249	0.234
-288.603	72.248	-0.178	-0.184
-287.589	258.408	-0.104	0.178
-286.574	340.193	-0.087	0.168
-285.559	800.000	0.024	-0.078
-284.545	-35.518	-0.072	0.039
-283.530	14.573	-0.160	-0.123
-282.516	-133.392	-0.175	-0.022
-281.501	26.151	0.137	0.113
-280.486	637.627	0.132	-0.333
-279.472	-100.699	-0.457	0.112
-278.457	-26.161	0.377	-0.220
-277.443	-73.402	0.027	-0.010
-276.428	430.705	-0.050	0.108
-275.413	-84.982	-0.540	-0.168
-274.399	-172.630	0.203	0.006
-273.384	138.164	-0.061	-0.079
-272.370	-200.000	0.056	-0.410
-271.355	-200.000	0.011	0.083
-270.340	-200.000	-0.086	-0.393
-269.326	131.122	-0.252	0.320
-268.311	781.162	0.160	-0.433
-267.297	399.640	0.097	-0.201
-266.282	345.471	0.070	-0.137
-265.267	-69.971	-0.433	-0.164
-264.253	-83.274	-0.241	0.077
-263.238	555.822	0.067	0.160
-262.224	401.768	-0.133	-0.277
-261.209	208.947	0.118	0.183
-260.195	1.514	-0.154	-0.110
-259.180	36.427	0.049	-0.043
-258.165	-50.080	0.134	0.063
-257.151	702.001	-0.124	0.323
-256.136	800.000	-0.045	0.154
-255.122	35.866	0.152	0.132
-254.107	-181.437	-0.410	0.008
-253.092	784.231	-0.128	-0.347
-252.078	-6.938	0.099	0.067
-251.063	42.426	-0.318	0.287
-250.049	800.000	-0.115	0.472
-249.034	-200.000	0.088	-0.462
-248.019	186.084	0.212	0.312
-247.005	-117.976	0.128	0.023
-245.990	242.336	-0.064	0.106
-244.976	149.474	0.072	-0.097
-243.961	63.774	-0.463	-0.460
-242.946	568.625	-0.027	-0.066
-241.932	134.862	-0.288	0.370
-240.917	-200.000	0.018	0.230
-239.903	-92.801	-0.078	0.022
-238.888	199.775	-0.100	-0.151
-237.873	310.496	-0.058	-0.108
-236.859	172.596	-0.123	0.175
-235.844	5.263	-0.176	-0.128
-234.830	17.880	-0.053	0.042
-233.815	-200.000	0.024	0.132
-232.800	307.957	0.171	-0.316
-231.786	-200.000	0.022	0.233
-230.771	-163.213	0.285	-0.014
-229.757	10.076	0.218	-0.164
-228.742	100.145	-0.152	0.174
-227.727	200.414	0.207	0.314
-226.713	413.036	-0.131	-0.275
-225.698	-46.278	0.210	0.102
-224.684	530.237	0.068	0.158
-223.669	-99.492	0.200	0.050
-222.655	217.356	0.258	0.406
-221.640	-200.000	0.029	-0.249
-220.625	800.000	-0.024	0.085
-219.611	70.729	-0.181	0.185
-218.596	800.000	0.042	0.128
-217.582	28.983	0.314	-0.263
-216.567	-124.907	0.303	-0.046
-215.552	161.725	-0.136	-0.188
-214.538	-145.505	0.241	0.021
-213.523	-200.000	0.011	0.148
-212.509	-200.000	0.016	-0.137
-211.494	196.301	0.118	-0.177
-210.479	-141.736	0.504	0.050
-209.465	-116.597	0.303	-0.055
-208.450	-200.000	-0.005	-0.026
-207.436	204.225	0.201	-0.307
-206.421	-70.076	0.184	-0.069
-205.406	226.764	0.128	0.205
-204.392	800.000	-0.061	-0.264
-203.377	-146.908	0.279	0.024
-202.363	15.687	0.526	-0.409
-201.348	-158.920	0.176	0.010
-200.333	392.458	-0.089	-0.183
-199.319	0.300	0.085	0.060
-198.304	-200.000	-0.052	-0.347
-197.290	800.000	0.028	0.107
-196.275	95.465	-0.145	-0.163
-195.260	88.866	0.250	0.274
-194.246	364.605	0.053	-0.106
-193.231	800.000	0.020	0.083
-192.217	-147.414	0.323	-0.027
-191.202	-81.744	-0.267	0.087
-190.187	800.000	-0.053	0.165
-189.173	-146.536	-0.196	0.017
-188.158	800.000	-0.072	0.208
-187.144	5.987	0.114	-0.083
-186.129	-200.000	-0.037	-0.186
-185.114	-114.416	0.091	-0.017
-184.100	800.000	-0.022	0.093
-183.085	-120.399	0.088	0.015
-182.071	800.000	-0.049	-0.134
-181.056	255.085	0.045	0.077
-180.042	-200.000	0.023	-0.360
-179.027	-51.555	0.090	0.042
-178.012	-82.662	0.038	0.012
-176.998	-107.890	0.275	-0.059
-175.983	-200.000	-0.270	0.001
-174.969	167.853	0.221	-0.310
-173.954	-68.748	-0.123	-0.047
-172.939	-21.667	-0.221	0.133
-171.925	674.604	-0.026	0.067
-170.910	-147.931	-0.376	-0.031
-169.896	-200.000	0.021	-0.245
-168.881	262.626	0.123	0.211
-167.866	-127.174	-0.382	0.055
-166.852	-200.000	-0.049	0.288
-165.837	34.899	0.042	0.036
-164.823	45.685	0.210	-0.191
-163.808	-200.000	-0.062	-0.303
-162.793	-15.685	0.038	-0.024
-161.779	-25.622	-0.280	-0.163
-160.764	110.922	-0.070	-0.083
-159.750	-200.000	-0.016	0.167
-158.735	-31.001	0.368	-0.205
-157.720	58.887	-0.181	0.175
-156.706	1.796	-0.180	0.128
-155.691	178.532	0.128	-0.184
-154.677	-120.157	-0.316	0.053
-153.662	-200.000	-0.052	0.238
-152.647	-104.409	0.113	-0.026
-151.633	660.116	0.015	0.038
-150.618	212.229	-0.080	-0.124
-149.604	176.639	-0.011	0.015
-148.589	-4.189	0.479	0.327
-147.574	74.093	-0.222	0.229
-146.560	153.830	0.078	-0.105
-145.545	135.283	-0.136	0.174
-144.531	-147.248	0.074	0.006
-143.516	800.000	0.101	0.319
-142.502	-148.639	-0.319	0.026
-141.487	800.000	0.019	0.066
-140.472	1.711	0.314	0.223
-139.458	109.738	0.076	0.089
-138.443	-200.000	0.005	-0.036
-137.429	800.000	0.050	0.168
-136.414	-64.525	-0.214	0.086
-135.399	-92.212	-0.179	0.050
-134.385	-200.000	-0.018	-0.095
-133.370	-147.823	-0.198	0.016
-132.356	-115.218	0.123	0.023
-131.341	-8.346	0.288	-0.191
-130.326	-38.740	-0.227	-0.118
-129.312	-9.333	0.123	-0.081
-128.297	56.697	0.226	0.217
-127.283	-42.485	0.290	0.146
-126.268	-62.499	0.270	0.111
-125.253	149.199	0.279	0.372
-124.239	-136.256	-0.123	0.014
-123.224	6.775	-0.343	-0.252
-122.210	186.582	-0.091	0.134
-121.195	-31.722	0.172	-0.095
-120.180	800.000	0.060	-0.169
-119.166	-200.000	0.047	0.389
-118.151	75.689	0.211	-0.219
-117.137	-107.485	-0.073	0.016
-116.122	-83.605	0.102	0.032
-115.107	236.686	-0.140	-0.228
-114.093	40.287	0.510	0.452
-113.078	-200.000	-0.031	0.351
-112.064	94.624	0.099	0.111
-111.049	-22.404	-0.311	-0.185
-110.034	208.742	-0.103	0.158
-109.020	-158.471	0.081	-0.005
-108.005	-99.302	0.036	0.009
-106.991	341.538	0.151	-0.291
-105.976	-67.570	0.122	0.047
-104.962	68.702	0.071	-0.072
-103.947	-124.441	0.170	-0.026
-102.932	36.515	0.119	-0.103
-101.918	-200.000	-0.010	-0.132
-100.903	-92.276	0.265	0.074
-99.889	740.712	-0.096	-0.254
-98.874	-200.000	0.015	0.072
-97.859	-43.164	-0.207	-0.103
-96.845	72.425	-0.042	-0.043
-95.830	-21.563	-0.054	-0.032
-94.816	-54.670	0.145	-0.065
-93.801	130.253	0.118	-0.148
-92.786	-22.485	0.424	0.253
-91.772	86.620	-0.164	0.178
-90.757	-125.810	-0.055	0.008
-89.743	-125.217	-0.496	-0.075
-88.728	-44.133	0.500	-0.247
-87.713	-96.400	0.294	0.077
-86.699	-89.714	-0.128	-0.037
-85.684	-66.030	-0.226	-0.089
-84.670	-41.478	-0.138	-0.070
-83.655	-136.762	0.071	-0.008
-82.640	-37.670	0.229	0.120
-81.626	53.413	0.347	0.327
-80.611	-138.626	0.204	-0.022
-79.597	193.738	-0.072	0.107
-78.582	284.249	0.054	0.095
-77.567	-200.000	-0.016	0.142
-76.553	-172.714	-0.352	-0.011
-75.538	800.000	-0.037	-0.110
-74.524	157.343	0.124	0.169
-73.509	-131.965	-0.138	0.018
-72.494	60.830	0.131	-0.128
-71.480	800.000	0.042	-0.150
-70.465	238.089	-0.063	0.102
-69.451	15.776	0.105	-0.081
-68.436	-50.160	0.330	-0.153
-67.422	-51.092	0.207	-0.096
-66.407	23.395	-0.117	0.094
-65.392	227.205	0.166	-0.265
-64.378	-105.533	0.402	-0.090
-63.363	800.000	-0.033	0.102
-62.349	320.404	-0.198	0.370
-61.334	46.295	-1.059	-0.965
-60.319	256.919	0.519	0.876
-59.305	277.640	-0.413	-0.722
-58.290	358.150	0.598	1.174
-57.276	494.249	0.779	1.757
-56.261	-200.000	105.681	575.652
-55.246	445.107	1470.776	3172.885
-54.232	146.519	2666.082	3517.958
-53.217	106.218	2171.815	2527.387
-52.203	40.933	1613.533	1430.644
-51.188	32.702	1350.243	1147.318
-50.173	29.666	1309.217	1094.462
-49.159	53.575	1361.913	1283.512
-48.144	53.556	1377.463	1298.000
-47.130	32.872	1333.230	1133.705
-46.115	29.451	1315.603	1098.350
-45.100	29.274	1310.481	1092.982
-44.086	29.222	1308.236	1090.755
-43.071	29.060	1306.030	1087.918
-42.057	29.192	1303.520	1086.558
-41.042	29.231	1301.733	1085.259
-40.027	29.250	1299.855	1083.763
-39.013	29.061	1298.439	1081.425
-37.998	29.210	1296.575	1080.705
-36.984	29.284	1294.680	1079.519
-35.969	29.227	1293.089	1077.811
-34.954	29.264	1290.951	1076.206
-33.940	29.307	1290.185	1075.776
-32.925	29.270	1288.957	1074.491
-31.911	29.483	1287.120	1074.160
-30.896	29.441	1285.471	1072.494
-29.881	29.317	1284.660	1071.056
-28.867	29.446	1283.042	1070.415
-27.852	29.553	1281.345	1069.576
-26.838	29.379	1280.192	1067.560
-25.823	29.419	1278.864	1066.645
-24.809	29.366	1277.795	1065.404
-23.794	29.315	1276.575	1064.048
-22.779	29.339	1275.453	1063.211
-21.765	29.406	1273.999	1062.342
-20.750	29.420	1272.476	1061.113
-19.736	29.243	1271.433	1059.182
-18.721	29.338	1269.675	1058.220
-17.706	29.263	1268.722	1056.954
-16.692	29.258	1267.845	1056.154
-15.677	29.203	1266.956	1055.057
-14.663	29.284	1265.395	1054.180
-13.648	29.233	1264.257	1052.895
-12.633	29.243	1263.216	1052.043
-11.619	29.248	1262.482	1051.422
-10.604	29.311	1261.477	1050.903
-9.590	29.218	1260.782	1049.751
-8.575	29.253	1259.559	1048.889
-7.560	29.157	1258.893	1047.746
-6.546	29.341	1257.755	1047.802
-5.531	29.221	1257.265	1046.673
-4.517	29.258	1256.336	1046.068
-3.502	29.356	1255.428	1045.828
-2.487	29.211	1254.611	1044.283
-1.473	29.299	1250.450	1041.272
-0.458	28.184	1236.716	1023.562
0.556	23.874	1220.644	990.159
1.571	20.677	1227.048	977.336
2.586	19.754	1242.495	984.301
3.600	19.656	1231.610	975.037
4.615	17.693	1164.901	911.659
5.629	13.951	1097.763	840.145
6.644	12.057	1080.179	817.183
7.659	11.852	1077.703	814.215
8.673	11.940	1076.189	813.437
9.688	11.732	1075.272	811.641
10.702	12.058	1073.325	811.716
11.717	14.488	1075.867	825.611
12.731	17.532	1079.654	843.544
13.746	18.270	1080.325	847.652
14.761	17.760	1078.435	843.571
15.775	16.667	1076.719	836.756
16.790	15.560	1074.682	829.637
17.804	14.879	1073.199	825.058
18.819	14.421	1071.597	821.493
19.834	14.092	1070.747	819.150
20.848	13.944	1069.660	817.518
21.863	13.748	1068.793	815.819
22.877	13.540	1068.482	814.488
23.892	13.454	1067.527	813.261
24.907	13.494	1066.633	812.707
25.921	13.533	1066.079	812.407
26.936	13.631	1064.083	811.292
27.950	13.565	1063.170	810.202
28.965	13.601	1062.002	809.417
29.980	13.650	1060.197	808.209
30.994	13.742	1058.632	807.391
32.009	13.844	1057.959	807.302
33.023	13.878	1056.446	806.239
34.038	13.741	1055.467	804.759
35.053	13.737	1054.709	804.089
36.067	13.763	1053.622	803.313
37.082	13.725	1052.832	802.457
38.096	13.652	1052.294	801.622
39.111	13.680	1051.638	801.188
40.126	13.614	1050.258	799.748
41.140	13.479	1049.139	798.173
42.155	13.486	1048.189	797.412
43.169	13.457	1047.101	796.376
44.184	13.450	1046.008	795.439
45.199	13.486	1045.315	795.014
46.213	13.487	1044.058	793.996
47.228	13.549	1043.196	793.566
48.242	13.602	1041.990	792.833
49.257	13.566	1041.050	791.876
50.271	13.629	1040.280	791.519
51.286	13.673	1039.418	791.005
52.301	13.690	1038.142	790.044
53.315	13.543	1037.187	788.547
54.330	13.537	1036.375	787.830
55.344	13.534	1035.045	786.735
56.359	13.440	1034.508	785.813
57.374	13.501	1033.649	785.379
58.388	13.421	1032.788	784.278
59.403	13.483	1031.789	783.745
60.417	13.488	1031.028	783.120
61.432	13.368	1030.448	782.042
62.447	13.408	1029.447	781.402
63.461	13.393	1028.161	780.284
64.476	13.383	1027.738	779.846
65.490	13.403	1026.999	779.315
66.505	13.370	1026.545	778.743
67.520	13.463	1025.436	778.270
68.534	13.460	1025.105	777.938
69.549	13.525	1024.028	777.356
70.563	13.424	1023.271	776.239
71.578	13.440	1022.458	775.628
72.593	13.373	1021.552	774.558
73.607	13.323	1021.160	773.959
74.622	13.390	1020.676	773.838
75.636	13.341	1019.362	772.546
76.651	13.320	1018.736	771.902
77.666	13.287	1018.623	771.594
78.680	13.256	1017.701	770.684
79.695	13.489	1016.886	771.085
80.709	13.386	1016.536	770.268
81.724	13.502	1015.597	770.029
82.739	13.524	1015.334	769.867
83.753	13.653	1014.477	769.748
84.768	13.749	1013.283	769.215
85.782	13.651	1012.944	768.436
86.797	13.601	1011.768	767.247
87.812	13.626	1010.561	766.380
88.826	13.659	1009.773	765.867
89.841	13.713	1008.810	765.317
90.855	13.638	1007.880	764.196
91.870	13.710	1007.007	763.800
92.884	13.779	1006.251	763.474
93.899	13.842	1005.464	763.103
94.914	13.861	1004.546	762.427
95.928	13.885	1003.780	761.886
96.943	13.764	1002.956	760.640
97.957	13.812	1001.921	760.007
98.972	13.818	1001.311	759.502
99.987	13.648	1000.602	758.119
101.001	13.719	999.498	757.543
102.016	13.752	998.429	756.813
103.030	13.655	998.311	756.217
104.045	13.645	997.456	755.458
105.060	13.633	996.581	754.673
106.074	13.577	995.427	753.478
107.089	13.571	994.137	752.408
108.103	13.597	993.075	751.654
109.118	13.572	992.470	751.014
110.133	13.648	991.650	750.675
111.147	13.556	990.934	749.649
112.162	13.504	990.062	748.686
113.176	13.686	989.543	749.051
114.191	13.667	988.555	748.151
115.206	13.629	987.741	747.297
116.220	13.671	986.941	746.817
117.235	13.670	985.960	746.002
118.249	13.618	985.093	745.049
119.264	13.486	984.741	744.119
120.279	13.527	984.124	743.776
121.293	13.712	982.525	743.329
122.308	13.513	981.944	741.931
123.322	13.565	980.952	741.349
124.337	13.626	979.480	740.445
125.352	13.576	978.741	739.598
126.366	13.551	978.074	738.915
127.381	13.570	976.783	737.958
128.395	13.606	975.946	737.421
129.410	13.539	975.345	736.604
130.424	13.653	973.905	735.958
131.439	13.647	973.384	735.473
132.454	13.669	972.942	735.173
133.468	13.585	972.163	734.145
134.483	13.648	971.041	733.513
135.497	13.587	970.320	732.633
136.512	13.689	969.250	732.212
137.527	13.674	968.486	731.504
138.541	13.755	967.372	730.951
139.556	13.691	967.311	730.561
140.570	13.715	966.610	730.071
141.585	13.821	965.850	729.899
142.600	13.714	964.914	728.660
143.614	13.775	964.283	728.385
144.629	13.896	963.441	728.217
145.643	13.839	962.123	726.905
146.658	13.734	961.214	725.693
147.673	13.809	960.121	725.131
148.687	13.619	959.960	724.119
149.702	13.701	958.677	723.442
150.716	13.701	958.231	723.042
151.731	13.613	957.565	722.090
152.746	13.661	956.890	721.728
153.760	13.783	956.470	721.880
154.775	13.926	955.596	721.775
155.789	13.709	955.509	720.702
156.804	13.887	954.281	720.488
157.819	14.034	953.016	720.106
158.833	14.046	952.526	719.721
159.848	13.960	952.056	718.930
160.862	13.981	950.996	718.157
161.877	13.968	949.896	717.210
162.892	13.762	949.184	715.718
163.906	13.772	948.533	715.208
164.921	13.937	947.202	714.849
165.935	13.916	946.782	714.380
166.950	13.950	945.722	713.664
167.964	14.005	944.820	713.154
168.979	13.781	944.154	711.627
169.994	13.896	943.234	711.366
171.008	13.890	942.952	711.066
172.023	13.900	941.762	710.146
173.037	14.082	941.145	710.398
174.052	13.904	940.661	709.205
175.067	13.953	939.790	708.698
176.081	13.928	939.039	707.960
177.096	14.050	938.574	708.066
178.110	13.951	938.103	707.229
179.125	13.917	937.629	706.663
180.140	13.892	936.941	705.977
181.154	14.081	936.307	706.239
182.169	14.102	936.120	706.126
183.183	14.214	935.012	705.702
184.198	14.216	934.129	704.982
185.213	14.261	933.263	704.457
186.227	14.236	932.978	704.071
187.242	14.249	932.028	703.347
188.256	14.246	931.658	702.994
189.271	14.215	930.993	702.298
190.286	14.217	930.275	701.703
191.300	14.048	929.604	700.422
192.315	13.917	928.904	699.283
193.329	13.973	928.338	699.029
194.344	14.098	927.851	699.126
195.359	14.238	927.117	699.099
196.373	14.167	926.420	698.216
197.388	14.269	925.974	698.244
198.402	14.340	925.684	698.264
199.417	14.466	924.736	698.013
200.432	14.518	924.486	697.982
201.446	14.318	924.343	696.972
202.461	14.550	923.440	697.200
203.475	14.571	922.673	696.649
204.490	14.353	921.699	694.942
205.504	14.408	920.976	694.562
206.519	14.333	920.288	693.670
207.534	14.294	919.861	693.125
208.548	14.440	919.292	693.242
209.563	14.462	918.865	692.951
210.577	14.508	917.698	692.202
211.592	14.451	917.403	691.681
212.607	14.546	916.701	691.483
213.621	14.585	915.719	690.841
214.636	14.538	915.020	690.062
215.650	14.591	914.154	689.565
216.665	14.623	913.733	689.319
217.680	14.603	913.369	688.901
218.694	14.642	912.467	688.319
219.709	14.721	911.617	687.943
220.723	14.570	911.135	686.899
221.738	14.516	910.260	685.955
222.753	14.715	909.453	686.103
223.767	14.676	909.466	685.891
224.782	14.753	908.676	685.552
225.796	14.863	907.733	685.230
226.811	14.871	907.162	684.771
227.826	14.742	906.492	683.676
228.840	14.706	905.744	682.906
229.855	14.846	905.016	682.867
230.869	14.732	904.284	681.792
231.884	14.733	903.449	681.106
232.899	14.730	902.802	680.543
233.913	14.734	902.531	680.295
234.928	14.703	901.819	679.572
235.942	14.687	901.244	679.016
236.957	14.703	900.497	678.455
237.972	14.660	900.016	677.859
238.986	14.683	899.181	677.265
240.001	14.744	898.486	676.930
241.015	14.688	897.808	676.132
242.030	14.823	897.347	676.268
243.045	14.855	896.826	675.948
244.059	15.039	895.950	675.971
245.074	14.994	895.494	675.384
246.088	14.817	895.040	674.267
247.103	14.963	894.582	674.451
248.117	14.916	893.895	673.684
249.132	15.098	893.560	674.106
250.147	15.186	892.857	673.870
251.161	15.244	891.762	673.216
252.176	15.154	891.435	672.548
253.190	15.278	890.701	672.432
254.205	15.289	890.337	672.142
255.220	15.230	889.532	671.240
256.234	15.321	888.760	670.962
257.249	15.329	888.058	670.405
258.263	15.220	887.454	669.454
259.278	15.339	886.662	669.272
260.293	15.406	886.146	669.090
261.307	15.411	885.510	668.572
262.322	15.481	884.783	668.242
263.336	15.400	883.973	667.247
264.351	15.535	883.394	667.291
265.366	15.524	882.489	666.504
266.380	15.453	882.180	665.928
267.395	15.493	881.731	665.689
268.409	15.345	880.895	664.415
269.424	15.486	880.027	664.257
270.439	15.466	879.021	663.360
271.453	15.391	878.722	662.777
272.468	15.447	877.885	662.310
273.482	15.559	877.025	662.047
274.497	15.514	876.869	661.689
275.512	15.453	876.749	661.301
276.526	15.588	875.783	661.045
277.541	15.605	875.356	660.730
278.555	15.475	875.226	660.062
279.570	15.771	873.969	660.220
280.585	15.736	873.490	659.663
281.599	15.558	872.349	658.044
282.614	15.655	871.878	658.011
283.628	15.541	871.807	657.451
284.643	15.488	871.175	656.710
285.657	15.658	870.168	656.557
286.672	15.646	869.714	656.109
287.687	15.544	869.349	655.379
288.701	15.771	868.408	655.495
289.716	15.697	867.862	654.738
290.730	15.704	867.343	654.317
291.745	15.738	866.779	653.964
292.760	15.925	865.961	654.017
293.774	15.843	865.720	653.458
294.789	15.963	864.668	653.070
295.803	15.863	864.114	652.206
296.818	15.828	863.585	651.614
297.833	15.843	862.971	651.150
298.847	15.852	862.076	650.454
299.862	15.891	861.600	650.188
300.876	15.953	861.103	649.994
301.891	15.963	860.588	649.588
302.906	16.023	859.610	649.022
303.920	16.113	859.476	649.210
304.935	16.135	858.769	648.705
305.949	16.045	858.253	647.909
306.964	16.077	857.572	647.462
307.979	16.033	856.890	646.722
308.993	16.154	856.493	646.827
310.008	15.944	856.228	645.765
311.022	16.179	855.179	645.816
312.037	16.011	854.967	644.956
313.052	15.978	854.372	644.323
314.066	16.071	853.534	643.991
315.081	16.070	853.199	643.676
316.095	16.079	852.660	643.246
317.110	16.016	852.091	642.522
318.125	15.988	851.499	641.913
319.139	16.031	851.126	641.739
320.154	15.993	851.058	641.486
321.168	16.025	850.181	640.889
322.183	16.220	848.899	640.604
323.197	16.195	848.471	640.133
324.212	16.288	848.344	640.331
325.227	16.042	847.970	639.061
326.241	16.176	847.337	639.033
327.256	16.038	846.666	637.950
328.270	16.269	846.089	638.332
329.285	16.056	845.590	637.094
330.300	16.189	844.793	636.937
331.314	16.201	844.248	636.518
332.329	16.241	843.761	636.245
333.343	16.311	843.359	636.148
334.358	16.255	843.091	635.678
335.373	16.354	842.521	635.565
336.387	16.308	842.475	635.300
337.402	16.392	842.015	635.216
338.416	16.371	842.109	635.151
339.431	16.507	841.385	635.060
340.446	16.427	840.890	634.329
341.460	16.479	840.507	634.180
342.475	16.550	839.668	633.756
343.489	16.626	839.425	633.799
344.504	16.665	839.013	633.578
345.519	16.644	838.403	632.984
346.533	16.729	837.956	632.908
347.548	16.620	837.536	632.127
348.562	16.604	837.021	631.625
349.577	16.455	836.593	630.688
350.592	16.596	835.883	630.623
351.606	16.369	835.408	629.364
352.621	16.548	834.511	629.298
353.635	16.618	834.013	629.125
354.650	16.788	832.887	628.852
355.665	16.587	832.664	627.883
356.679	16.687	832.045	627.732
357.694	16.841	831.302	627.686
358.708	16.744	830.544	626.701
359.723	16.516	830.556	625.809
360.738	16.673	829.603	625.618
361.752	16.724	829.387	625.588
362.767	16.707	828.357	624.693
363.781	16.944	828.070	625.294
364.796	16.871	827.557	624.583
365.810	16.938	827.123	624.446
366.825	17.077	826.492	624.426
367.840	17.036	826.411	624.158
368.854	17.030	825.210	623.173
369.869	17.030	825.271	623.166
370.883	16.941	825.169	622.704
371.898	17.129	824.631	622.934
372.913	17.143	824.254	622.645
373.927	17.065	823.720	621.900
374.942	17.087	823.149	621.496
375.956	17.132	822.957	621.460
376.971	17.158	822.411	621.087
377.986	17.129	822.076	620.673
379.000	17.324	821.632	620.998
380.015	17.339	820.878	620.427
381.029	17.263	820.305	619.662
382.044	17.375	819.604	619.485
383.059	17.213	819.339	618.641
384.073	17.297	818.649	618.371
385.088	17.320	817.722	617.699
386.102	17.150	817.389	616.774
387.117	17.232	816.988	616.714
388.132	17.188	816.299	615.982
389.146	17.101	816.058	615.431
390.161	17.265	815.233	615.348
391.175	17.201	815.093	614.956
392.190	17.251	814.327	614.504
393.205	17.204	814.356	614.300
394.219	17.364	813.512	614.189
395.234	17.408	813.225	614.076
396.248	17.216	812.863	613.056
397.263	17.220	812.334	612.616
398.278	17.257	811.870	612.346
399.292	17.174	811.622	611.804
400.307	17.181	811.335	611.559
401.321	17.221	810.348	610.904
402.336	17.253	810.109	610.788
403.350	17.366	809.439	610.632
404.365	17.423	809.315	610.691
405.380	17.460	808.764	610.353
406.394	17.536	808.132	610.096
407.409	17.700	807.347	610.033
408.423	17.577	807.316	609.518
409.438	17.641	807.340	609.711
410.453	17.647	806.583	609.107
411.467	17.734	806.247	609.108
412.482	17.702	805.703	608.529
413.496	17.721	805.331	608.262
414.511	17.799	804.999	608.238
415.526	17.787	804.415	607.697
416.540	17.877	804.010	607.661
417.555	17.775	803.632	606.958
418.569	17.840	803.357	606.926
419.584	17.737	803.077	606.296
420.599	17.675	802.424	605.529
421.613	110.010	1291.472	1470.108
422.628	94.797	1362.718	1470.201
