DTS Sentinel unit serial number:	SN413079Multiplexer serial number:	ORYXHardware model number:	OX4-SRSoftware version number:	ORYX F/W v4.00 Oryx Data Collector v3.7.2.0data status	okinstallation	princeton_trtdifferential loss correction	single-endedforward channel	channel 1reverse channel	N/Adate	2019/09/13time	05:02:35forward acquisition time	60.00reverse acquisition time	0.00gamma	496.2192k internal	0.2335k external	0.2335temperature offset calibration	1.0158default loss term (dB/km)	0.3790temperature slope calibration	1.0000multiplexer offset coefficient	1.0000multiplexer slope coefficient	1.0000fibre end	0.00T internal ref (°C)	26.47T ext. ref 1 (°C)	4.06T ext. ref 2 (°C)	20.90length (m)	temperature (°C)	Stokes	anti-Stokes-747.200	421.939	-0.074	0.160
-746.185	-114.387	-0.157	-0.030
-745.171	205.516	0.135	-0.210
-744.156	800.000	-0.032	0.126
-743.142	463.997	-0.104	-0.233
-742.127	345.862	-0.087	0.172
-741.112	326.074	0.139	-0.267
-740.098	-181.353	0.056	-0.001
-739.083	-200.000	-0.055	0.396
-738.069	-200.000	-0.040	0.264
-737.054	-200.000	-0.036	-0.239
-736.039	-147.965	-0.399	0.033
-735.025	800.000	0.104	0.292
-734.010	305.046	0.036	-0.066
-732.996	-200.000	-0.008	-0.531
-731.981	108.657	0.189	-0.227
-730.966	133.251	-0.218	0.284
-729.952	-151.619	-0.327	-0.024
-728.937	0.188	-0.274	-0.196
-727.923	-127.732	-0.153	-0.022
-726.908	800.000	-0.107	0.325
-725.894	-200.000	0.001	0.072
-724.879	-147.542	-0.209	0.018
-723.864	-102.688	0.250	0.060
-722.850	800.000	0.086	-0.309
-721.835	-91.595	0.117	0.033
-720.821	-76.968	0.347	0.122
-719.806	800.000	-0.027	-0.098
-718.791	364.016	-0.140	-0.283
-717.777	682.278	-0.037	0.097
-716.762	33.703	-0.368	-0.322
-715.748	43.401	-0.098	-0.090
-714.733	40.664	0.101	-0.091
-713.718	-29.466	0.410	0.235
-712.704	358.171	-0.026	-0.052
-711.689	-2.290	0.151	0.107
-710.675	-200.000	-0.004	0.017
-709.660	665.045	-0.072	-0.186
-708.645	28.967	-0.134	0.114
-707.631	243.500	0.165	-0.278
-706.616	800.000	0.012	0.042
-705.602	-119.377	-0.211	0.037
-704.587	800.000	-0.022	0.078
-703.572	331.276	-0.132	0.256
-702.558	-200.000	-0.008	0.098
-701.543	800.000	-0.027	-0.099
-700.529	169.495	0.048	0.069
-699.514	800.000	-0.103	0.357
-698.499	73.830	-0.097	0.102
-697.485	12.679	-0.251	-0.194
-696.470	54.998	0.183	-0.177
-695.456	362.024	0.109	-0.220
-694.441	-179.890	0.132	0.003
-693.426	-40.766	-0.117	-0.061
-692.412	-120.015	-0.303	-0.052
-691.397	-66.010	-0.050	0.020
-690.383	386.678	-0.200	-0.413
-689.368	-25.087	-0.013	-0.008
-688.354	-22.210	-0.037	0.022
-687.339	-200.000	-0.026	0.178
-686.324	34.982	-0.187	0.164
-685.310	101.788	-0.076	-0.088
-684.295	-19.373	0.117	-0.073
-683.281	41.603	-0.132	-0.119
-682.266	-200.000	0.011	-0.204
-681.251	588.207	-0.052	-0.129
-680.237	-10.691	-0.281	-0.186
-679.222	-64.485	-0.118	-0.048
-678.208	-156.603	-0.200	-0.012
-677.193	142.808	-0.232	-0.309
-676.178	212.490	-0.117	-0.185
-675.164	203.099	0.079	-0.123
-674.149	-127.711	-0.253	-0.037
-673.135	9.257	-0.168	-0.127
-672.120	320.600	0.132	-0.251
-671.105	70.753	-0.061	-0.063
-670.091	800.000	0.095	0.310
-669.076	-121.860	-0.180	-0.030
-668.062	196.321	0.130	-0.198
-667.047	-8.457	0.297	0.200
-666.032	528.186	0.055	0.129
-665.018	-140.381	-0.340	0.036
-664.003	147.136	0.154	0.208
-662.989	12.258	-0.165	0.127
-661.974	-200.000	0.006	-0.163
-660.959	800.000	0.063	-0.196
-659.945	-99.036	-0.210	-0.053
-658.930	-200.000	-0.009	-0.230
-657.916	-154.925	-0.420	-0.028
-656.901	-200.000	0.024	-0.200
-655.886	-140.144	0.103	-0.011
-654.872	-176.129	-0.368	-0.010
-653.857	-57.076	-0.252	0.111
-652.843	-95.294	0.103	-0.028
-651.828	-71.158	-0.103	-0.039
-650.814	800.000	-0.060	-0.196
-649.799	-1.281	-0.113	0.080
-648.784	29.885	-0.173	0.148
-647.770	800.000	-0.026	-0.105
-646.755	193.933	0.062	-0.094
-645.741	113.787	-0.052	-0.063
-644.726	-108.738	0.385	0.083
-643.711	13.320	-0.268	-0.208
-642.697	17.922	-0.138	-0.110
-641.682	-128.342	0.069	0.010
-640.668	453.341	-0.133	0.294
-639.653	-130.002	0.291	-0.040
-638.638	-86.849	0.290	-0.089
-637.624	800.000	-0.060	0.212
-636.609	-200.000	-0.018	0.221
-635.595	89.213	-0.095	-0.106
-634.580	25.576	0.055	-0.046
-633.565	-69.703	-0.363	-0.139
-632.551	-47.252	0.228	-0.111
-631.536	-12.994	0.069	-0.045
-630.522	-119.872	0.207	-0.036
-629.507	126.346	0.113	0.143
-628.492	-200.000	-0.018	0.107
-627.478	800.000	-0.063	0.185
-626.463	-200.000	0.044	0.262
-625.449	492.253	0.035	0.080
-624.434	-28.797	0.109	0.063
-623.419	-70.445	-0.241	0.091
-622.405	250.692	-0.137	-0.233
-621.390	-109.543	-0.258	0.054
-620.376	46.373	0.341	0.316
-619.361	54.836	-0.155	0.149
-618.346	-32.934	0.110	-0.061
-617.332	800.000	0.083	0.298
-616.317	-200.000	-0.040	0.312
-615.303	73.685	0.046	0.048
-614.288	-200.000	0.014	-0.083
-613.273	-9.091	0.390	-0.261
-612.259	-200.000	-0.028	0.232
-611.244	606.665	-0.051	0.127
-610.230	84.889	-0.212	0.233
-609.215	-27.297	0.069	-0.040
-608.201	-84.961	-0.363	0.114
-607.186	1.696	-0.093	-0.067
-606.171	800.000	-0.112	0.341
-605.157	-47.339	0.168	-0.082
-604.142	204.843	0.116	0.179
-603.128	146.397	-0.166	-0.223
-602.113	-178.135	0.047	-0.001
-601.098	147.309	0.118	-0.158
-600.084	18.071	-0.130	-0.103
-599.069	-80.197	-0.040	0.013
-598.055	-169.107	-0.086	0.003
-597.040	-64.029	-0.143	0.058
-596.025	-85.754	-0.232	-0.072
-595.011	-127.973	-0.021	0.003
-593.996	-200.000	0.000	-0.086
-592.982	-59.285	-0.177	-0.076
-591.967	-200.000	-0.075	0.365
-590.952	41.257	0.073	-0.066
-589.938	-156.083	-0.166	0.010
-588.923	-200.000	0.029	0.205
-587.909	800.000	-0.058	0.214
-586.894	-49.401	-0.160	0.076
-585.879	-9.332	0.078	-0.052
-584.865	800.000	0.048	0.200
-583.850	800.000	0.036	-0.148
-582.836	-95.133	0.127	0.034
-581.821	-39.987	0.375	0.195
-580.806	-33.239	-0.185	0.102
-579.792	45.037	0.165	0.152
-578.777	395.314	0.066	0.137
-577.763	-54.145	0.210	-0.095
-576.748	-75.178	-0.233	0.083
-575.733	162.912	0.148	-0.207
-574.719	7.373	-0.124	0.092
-573.704	-200.000	-0.004	-0.049
-572.690	78.267	0.069	-0.073
-571.675	-130.813	0.135	-0.018
-570.661	436.269	0.110	0.240
-569.646	-200.000	0.011	-0.059
-568.631	8.303	-0.131	0.098
-567.617	78.842	-0.084	-0.089
-566.602	554.575	-0.083	-0.200
-565.588	-137.957	-0.231	0.026
-564.573	-33.247	-0.167	-0.092
-563.558	63.171	0.213	-0.213
-562.544	49.499	-0.282	-0.265
-561.529	426.499	-0.051	-0.110
-560.515	121.161	-0.203	-0.252
-559.500	-32.605	-0.151	0.084
-558.485	29.923	0.132	-0.112
-557.471	-115.606	-0.296	-0.055
-556.456	-111.546	-0.282	0.057
-555.442	219.447	0.093	0.148
-554.427	293.087	0.073	-0.133
-553.412	-5.599	-0.094	-0.064
-552.398	-85.796	0.252	0.078
-551.383	62.406	-0.093	0.093
-550.369	-87.898	-0.214	0.064
-549.354	219.053	0.086	0.138
-548.339	-13.593	-0.094	-0.061
-547.325	-66.705	0.271	-0.107
-546.310	98.590	0.169	-0.194
-545.296	-61.733	0.180	0.075
-544.281	-200.000	-0.003	-0.305
-543.266	800.000	0.092	-0.278
-542.252	25.342	-0.118	0.098
-541.237	784.744	-0.062	-0.170
-540.223	-200.000	-0.015	-0.200
-539.208	14.366	0.172	-0.133
-538.193	4.105	-0.152	-0.111
-537.179	190.552	0.177	0.265
-536.164	-156.111	0.050	0.003
-535.150	-86.503	0.188	-0.058
-534.135	800.000	-0.110	0.395
-533.121	-58.802	-0.123	0.053
-532.106	526.028	-0.035	0.081
-531.091	-24.830	0.353	-0.209
-530.077	-200.000	0.044	0.216
-529.062	800.000	-0.123	0.420
-528.048	-168.196	-0.264	-0.010
-527.033	35.619	0.210	-0.183
-526.018	-147.609	-0.186	0.016
-525.004	-148.798	-0.284	0.023
-523.989	-30.074	-0.193	-0.110
-522.975	800.000	0.070	-0.252
-521.960	328.711	-0.124	0.237
-520.945	46.110	0.221	-0.203
-519.931	107.669	-0.269	0.319
-518.916	112.480	-0.114	-0.138
-517.902	-56.972	0.135	-0.059
-516.887	-104.136	-0.332	-0.077
-515.872	46.000	-0.053	-0.048
-514.858	17.449	-0.269	-0.213
-513.843	-200.000	-0.029	0.253
-512.829	-200.000	0.031	-0.387
-511.814	-144.843	-0.260	0.024
-510.799	557.074	-0.022	-0.053
-509.785	324.852	0.039	0.074
-508.770	-200.000	-0.010	0.092
-507.756	147.576	0.189	-0.253
-506.741	51.094	-0.021	-0.019
-505.726	-154.522	0.134	0.009
-504.712	520.036	-0.194	0.452
-503.697	-200.000	-0.066	0.296
-502.683	-200.000	0.005	0.165
-501.668	-4.222	-0.149	-0.102
-500.653	-36.597	-0.128	-0.068
-499.639	123.851	0.193	-0.241
-498.624	177.083	-0.084	-0.122
-497.610	-0.394	0.033	-0.023
-496.595	-15.991	0.255	0.161
-495.581	-21.033	0.122	0.075
-494.566	56.343	-0.111	0.107
-493.551	-105.073	0.136	0.031
-492.537	800.000	-0.053	0.172
-491.522	-200.000	-0.009	-0.178
-490.508	800.000	-0.108	0.372
-489.493	-200.000	-0.003	-0.279
-488.478	242.237	0.018	-0.030
-487.464	-200.000	0.021	-0.260
-486.449	-70.932	-0.498	-0.187
-485.435	-84.262	0.214	-0.067
-484.420	-92.851	0.087	-0.024
-483.405	-25.491	0.195	0.115
-482.391	-122.571	0.273	0.044
-481.376	-200.000	-0.071	-0.336
-480.362	59.746	0.187	-0.184
-479.347	420.417	-0.092	-0.195
-478.332	738.061	-0.091	0.244
-477.318	147.318	0.196	-0.263
-476.303	381.763	-0.078	0.159
-475.289	18.935	0.225	-0.179
-474.274	221.742	0.047	0.074
-473.259	-200.000	-0.009	0.163
-472.245	344.662	-0.093	0.182
-471.230	44.273	-0.170	0.155
-470.216	-117.414	0.120	0.022
-469.201	-28.056	0.241	-0.139
-468.186	179.388	0.116	-0.169
-467.172	-121.419	0.397	0.066
-466.157	151.997	-0.085	0.115
-465.143	-200.000	0.005	-0.050
-464.128	-93.921	-0.128	0.035
-463.113	-156.627	0.306	-0.019
-462.099	201.571	-0.064	0.098
-461.084	800.000	0.009	0.028
-460.070	-74.346	-0.295	-0.106
-459.055	800.000	-0.044	-0.176
-458.040	-200.000	-0.003	-0.277
-457.026	-175.143	0.096	-0.003
-456.011	62.559	-0.120	-0.119
-454.997	-91.689	0.326	0.092
-453.982	-200.000	-0.000	0.058
-452.968	-39.111	0.140	-0.073
-451.953	-107.965	0.330	-0.071
-450.938	-147.580	0.172	-0.014
-449.924	-166.114	-0.069	0.003
-448.909	-26.782	-0.300	-0.174
-447.895	15.543	-0.297	-0.232
-446.880	111.594	-0.095	0.114
-445.865	800.000	0.038	0.131
-444.851	-172.766	-0.431	0.013
-443.836	33.457	-0.043	-0.037
-442.822	-200.000	0.039	-0.228
-441.807	-105.606	-0.095	-0.021
-440.792	248.322	0.113	0.191
-439.778	-200.000	0.032	0.174
-438.763	-200.000	0.007	0.429
-437.749	186.958	0.099	0.146
-436.734	800.000	0.088	0.276
-435.719	-200.000	0.002	0.117
-434.705	67.424	0.230	-0.233
-433.690	-74.913	0.127	0.045
-432.676	11.013	0.247	0.187
-431.661	221.603	-0.040	-0.064
-430.646	-145.952	-0.171	0.015
-429.632	-120.807	-0.146	0.024
-428.617	283.485	-0.107	0.190
-427.603	60.348	-0.245	0.240
-426.588	32.707	0.124	0.106
-425.573	118.722	0.100	-0.122
-424.559	800.000	-0.053	-0.163
-423.544	33.354	0.193	-0.166
-422.530	-90.461	-0.067	-0.019
-421.515	-200.000	-0.018	-0.135
-420.500	-125.067	0.101	-0.015
-419.486	326.507	-0.074	0.141
-418.471	800.000	0.077	-0.248
-417.457	-200.000	0.024	0.108
-416.442	800.000	0.045	-0.189
-415.428	-6.811	0.281	-0.190
-414.413	12.005	-0.086	-0.066
-413.398	41.085	0.217	-0.195
-412.384	-151.972	-0.188	-0.014
-411.369	179.784	0.161	0.235
-410.355	-200.000	-0.024	-0.107
-409.340	2.039	-0.148	-0.106
-408.325	-26.909	0.179	0.104
-407.311	-17.535	-0.128	-0.080
-406.296	-200.000	-0.034	0.162
-405.282	35.039	0.291	-0.253
-404.267	-46.310	0.278	0.135
-403.252	-144.246	0.432	0.040
-402.238	54.089	0.260	0.247
-401.223	-200.000	-0.011	-0.084
-400.209	-16.550	-0.220	-0.138
-399.194	-65.347	-0.211	-0.084
-398.179	800.000	0.055	0.174
-397.165	-200.000	0.030	-0.154
-396.150	-5.484	0.443	0.301
-395.136	292.617	-0.068	0.123
-394.121	-200.000	-0.018	-0.081
-393.106	10.490	0.186	-0.140
-392.092	-144.543	0.345	0.032
-391.077	116.345	-0.042	0.052
-390.063	-17.387	-0.275	0.171
-389.048	-174.594	0.255	0.007
-388.033	800.000	0.015	-0.055
-387.019	-149.923	0.043	0.003
-386.004	-200.000	0.023	-0.203
-384.990	-30.288	-0.261	-0.147
-383.975	-6.221	0.150	-0.101
-382.960	-86.910	-0.429	-0.130
-381.946	-200.000	-0.045	0.269
-380.931	-200.000	0.012	0.235
-379.917	-23.798	0.214	0.127
-378.902	800.000	-0.019	0.066
-377.888	-32.459	0.192	-0.106
-376.873	-151.276	0.121	0.009
-375.858	-88.526	0.145	0.043
-374.844	-96.249	-0.312	-0.082
-373.829	-23.466	-0.116	-0.069
-372.815	-54.182	0.341	0.153
-371.800	-200.000	-0.038	-0.176
-370.785	-200.000	0.000	0.040
-369.771	389.824	-0.099	0.203
-368.756	160.243	-0.040	-0.056
-367.742	800.000	0.061	-0.186
-366.727	-88.364	0.141	0.042
-365.712	-155.530	-0.088	-0.006
-364.698	-5.235	0.233	-0.159
-363.683	-7.470	0.186	0.125
-362.669	-134.450	-0.297	-0.036
-361.654	800.000	-0.056	0.199
-360.639	-28.974	-0.183	0.104
-359.625	-155.862	0.384	0.024
-358.610	94.018	-0.355	0.399
-357.596	-70.408	-0.248	-0.093
-356.581	208.630	0.078	-0.120
-355.566	70.490	0.234	0.240
-354.552	245.191	0.172	-0.287
-353.537	-200.000	0.008	-0.340
-352.523	-200.000	-0.075	-0.367
-351.508	-112.788	-0.211	-0.041
-350.493	-139.686	-0.368	-0.039
-349.479	251.670	0.112	0.188
-348.464	-42.361	0.156	0.079
-347.450	105.762	0.102	0.119
-346.435	-96.641	0.094	-0.024
-345.420	184.217	0.155	-0.227
-344.406	-200.000	0.025	0.140
-343.391	-42.826	0.252	0.127
-342.377	106.860	0.119	-0.140
-341.362	-95.692	-0.101	-0.027
-340.348	495.895	-0.061	-0.138
-339.333	-17.440	0.152	-0.095
-338.318	-200.000	-0.058	0.394
-337.304	176.328	0.113	0.163
-336.289	-74.683	-0.218	-0.078
-335.275	34.157	-0.108	0.093
-334.260	-24.644	0.238	0.140
-333.245	-44.404	0.120	0.059
-332.231	310.842	0.163	-0.302
-331.216	347.060	0.093	0.181
-330.202	180.563	0.081	0.117
-329.187	-16.705	0.109	-0.068
-328.172	598.620	-0.110	-0.271
-327.158	402.691	0.055	-0.114
-326.143	800.000	-0.073	0.301
-325.129	-168.100	0.020	0.001
-324.114	-31.982	-0.276	-0.153
-323.099	-200.000	0.038	-0.282
-322.085	132.754	-0.323	0.412
-321.070	262.944	-0.234	-0.401
-320.056	-5.135	-0.284	-0.193
-319.041	82.866	0.147	0.158
-318.026	-200.000	-0.049	0.324
-317.012	5.303	-0.317	-0.231
-315.997	-111.911	-0.176	-0.035
-314.983	800.000	0.051	-0.212
-313.968	-200.000	-0.030	-0.217
-312.953	177.532	-0.061	0.087
-311.939	394.237	0.066	-0.136
-310.924	-93.180	0.267	0.073
-309.910	214.498	-0.088	-0.137
-308.895	732.875	-0.093	-0.245
-307.880	243.644	0.126	-0.209
-306.866	167.853	0.019	0.026
-305.851	93.248	-0.332	-0.371
-304.837	-200.000	-0.012	-0.230
-303.822	-200.000	-0.008	0.262
-302.807	800.000	0.069	0.231
-301.793	-200.000	-0.017	-0.177
-300.778	-154.119	-0.139	-0.009
-299.764	398.257	0.190	0.393
-298.749	-200.000	0.007	0.241
-297.735	-72.261	0.256	0.094
-296.720	-200.000	0.026	-0.276
-295.705	-85.948	-0.403	0.123
-294.691	-124.364	-0.319	-0.049
-293.676	19.641	0.033	-0.026
-292.662	-79.491	-0.161	-0.054
-291.647	-139.057	0.321	0.034
-290.632	209.454	-0.017	0.026
-289.618	800.000	0.059	0.207
-288.603	655.867	-0.087	0.221
-287.589	21.143	-0.198	0.159
-286.574	-9.752	0.044	-0.029
-285.559	-86.801	-0.298	-0.090
-284.545	242.302	-0.252	0.416
-283.530	273.780	0.110	-0.192
-282.516	5.880	-0.053	0.039
-281.501	496.081	0.045	-0.103
-280.486	-182.953	0.259	-0.005
-279.472	-176.676	0.139	0.003
-278.457	-19.905	-0.030	-0.018
-277.443	351.432	0.235	-0.460
-276.428	109.572	-0.204	-0.241
-275.413	-200.000	0.027	0.138
-274.399	-200.000	0.060	-0.486
-273.384	76.209	-0.052	0.054
-272.370	721.039	-0.013	-0.034
-271.355	117.907	-0.215	-0.261
-270.340	800.000	-0.074	-0.209
-269.326	119.279	0.260	-0.317
-268.311	178.802	0.202	-0.291
-267.297	640.798	-0.070	0.177
-266.282	-81.643	0.357	0.116
-265.267	800.000	0.054	0.176
-264.253	-200.000	0.021	0.099
-263.238	-200.000	0.002	-0.192
-262.224	-143.664	-0.204	-0.019
-261.209	-159.537	0.056	0.003
-260.195	-45.290	-0.464	-0.227
-259.180	23.127	-0.071	-0.058
-258.165	800.000	0.049	0.197
-257.151	-200.000	0.024	0.171
-256.136	-200.000	0.014	0.169
-255.122	800.000	0.060	0.200
-254.107	-124.839	-0.170	0.026
-253.092	76.774	0.170	-0.178
-252.078	304.610	-0.063	-0.115
-251.063	-200.000	0.009	0.219
-250.049	-175.512	0.178	0.005
-249.034	389.210	-0.125	-0.256
-248.019	34.040	0.052	-0.045
-247.005	-164.934	0.400	0.018
-245.990	-200.000	-0.059	0.383
-244.976	-24.118	0.247	-0.145
-243.961	146.689	-0.085	-0.112
-242.946	-200.000	-0.025	-0.143
-241.932	-60.949	-0.428	0.178
-240.917	26.290	-0.144	-0.119
-239.903	503.339	-0.139	-0.317
-238.888	-1.836	-0.158	-0.110
-237.873	146.482	-0.095	0.126
-236.859	84.967	0.219	0.237
-235.844	-68.729	0.347	0.132
-234.830	800.000	-0.016	-0.055
-233.815	23.250	-0.094	0.076
-232.800	-200.000	-0.027	-0.461
-231.786	334.257	0.087	-0.166
-230.771	-44.261	-0.440	-0.217
-229.757	38.388	-0.267	-0.235
-228.742	-200.000	-0.075	-0.332
-227.727	94.521	0.151	0.169
-226.713	68.626	-0.152	0.154
-225.698	-200.000	0.031	0.394
-224.684	264.066	-0.191	-0.327
-223.669	-135.251	-0.593	-0.070
-222.655	-16.582	-0.206	-0.128
-221.640	-146.567	0.285	0.024
-220.625	-70.101	0.314	-0.118
-219.611	-200.000	-0.003	0.081
-218.596	-166.777	-0.425	-0.017
-217.582	-200.000	0.036	0.155
-216.567	349.489	-0.068	-0.133
-215.552	-82.066	0.222	0.071
-214.538	-131.619	0.257	-0.033
-213.523	11.743	-0.312	-0.236
-212.509	90.153	0.106	0.117
-211.494	-200.000	0.007	0.036
-210.479	-64.367	-0.307	-0.123
-209.465	752.987	0.106	0.281
-208.450	94.526	-0.105	0.117
-207.436	-37.368	0.230	-0.121
-206.421	-170.874	-0.085	-0.003
-205.406	-77.729	0.180	0.061
-204.392	-77.001	-0.110	0.038
-203.377	117.569	0.172	-0.208
-202.363	227.401	0.142	0.226
-201.348	-167.568	0.200	-0.008
-200.333	800.000	-0.070	0.193
-199.319	-106.417	0.169	-0.037
-198.304	167.406	-0.079	0.110
-197.290	361.349	-0.168	-0.331
-196.275	-59.526	0.425	0.180
-195.260	-85.507	0.222	0.068
-194.246	-98.385	-0.145	-0.036
-193.231	-33.832	0.195	0.106
-192.217	535.109	0.067	0.155
-191.202	240.425	0.059	0.097
-190.187	-200.000	0.004	0.708
-189.173	-130.735	-0.072	0.010
-188.158	-200.000	-0.054	0.247
-187.144	84.123	-0.265	0.285
-186.129	346.261	0.167	-0.324
-185.114	349.334	0.057	0.110
-184.100	-11.425	0.235	-0.152
-183.085	346.300	-0.165	-0.319
-182.071	-4.410	0.211	0.143
-181.056	-200.000	-0.033	-0.295
-180.042	-200.000	0.040	-0.183
-179.027	27.123	-0.068	-0.056
-178.012	55.967	0.393	-0.375
-176.998	800.000	-0.070	0.266
-175.983	215.209	0.015	0.023
-174.969	-22.966	-0.192	0.114
-173.954	59.287	0.263	0.255
-172.939	-116.669	-0.210	0.038
-171.925	-116.777	-0.186	-0.034
-170.910	800.000	0.063	0.206
-169.896	305.897	0.106	0.195
-168.881	86.463	0.173	0.187
-167.866	-197.499	-0.132	-0.001
-166.852	5.760	-0.417	0.303
-165.837	-101.366	0.277	-0.066
-164.823	240.897	-0.176	0.288
-163.808	800.000	-0.058	0.181
-162.793	-84.754	0.146	0.045
-161.779	-94.833	-0.272	0.072
-160.764	-200.000	0.045	-0.265
-159.750	800.000	0.113	-0.351
-158.735	-200.000	-0.026	-0.179
-157.720	350.040	0.170	0.330
-156.706	800.000	-0.062	-0.242
-155.691	-115.919	-0.178	0.033
-154.677	102.004	0.114	0.131
-153.662	133.378	-0.044	-0.055
-152.647	-64.982	0.210	-0.083
-151.633	681.439	0.020	-0.052
-150.618	-200.000	0.049	0.331
-149.604	800.000	0.074	-0.245
-148.589	73.407	-0.090	0.092
-147.574	-72.381	-0.271	-0.099
-146.560	-74.401	0.157	-0.055
-145.545	172.484	0.207	0.292
-144.531	10.024	0.130	0.097
-143.516	261.212	-0.097	-0.164
-142.502	-56.188	-0.153	-0.067
-141.487	561.899	0.125	0.298
-140.472	800.000	-0.045	0.145
-139.458	-145.684	0.250	-0.022
-138.443	800.000	0.107	-0.340
-137.429	-40.293	-0.197	-0.101
-136.414	-34.756	-0.247	0.132
-135.399	55.863	0.099	-0.094
-134.385	-89.802	0.148	0.043
-133.370	-54.563	-0.169	-0.075
-132.356	-98.278	-0.151	0.038
-131.341	-200.000	-0.020	-0.117
-130.326	800.000	0.088	-0.266
-129.312	-7.762	0.227	0.151
-128.297	-8.897	-0.193	-0.127
-127.283	-20.982	-0.206	-0.124
-126.268	-87.474	0.194	-0.058
-125.253	-95.189	-0.142	0.038
-124.239	-120.185	0.196	-0.033
-123.224	-73.826	-0.152	-0.054
-122.210	-76.184	-0.137	-0.047
-121.195	38.839	0.049	0.043
-120.180	-48.071	-0.225	0.107
-119.166	-200.000	0.102	-0.544
-118.151	64.151	-0.142	-0.140
-117.137	225.983	-0.130	0.207
-116.122	20.964	-0.149	0.118
-115.107	-106.492	0.284	-0.062
-114.093	800.000	-0.062	-0.187
-113.078	-200.000	-0.111	0.000
-112.064	-35.430	-0.116	-0.062
-111.049	-200.000	-0.009	-0.066
-110.034	115.576	0.044	0.053
-109.020	374.090	0.037	-0.074
-108.005	800.000	0.080	0.299
-106.991	24.960	-0.191	0.155
-105.976	800.000	-0.065	-0.220
-104.962	-165.130	-0.368	0.016
-103.947	-200.000	-0.056	0.256
-102.932	161.378	0.117	-0.161
-101.918	-153.281	0.254	0.017
-100.903	-124.782	0.335	-0.051
-99.889	-3.788	0.274	0.187
-98.874	-65.650	-0.307	0.120
-97.859	800.000	-0.027	-0.072
-96.845	-19.807	-0.281	-0.170
-95.830	-29.893	-0.079	0.044
-94.816	87.660	0.158	-0.172
-93.801	-16.871	0.291	0.180
-92.786	-74.033	0.139	0.049
-91.772	800.000	0.105	0.440
-90.757	-140.230	0.197	0.020
-89.743	30.696	-0.153	0.129
-88.728	-138.144	-0.399	0.043
-87.713	110.003	0.259	-0.304
-86.699	97.406	0.198	-0.223
-85.684	-168.557	0.111	-0.004
-84.670	320.172	0.070	-0.130
-83.655	-51.970	0.177	0.081
-82.640	-52.937	0.256	-0.115
-81.626	-200.000	0.017	0.098
-80.611	-52.581	0.152	0.069
-79.597	142.576	0.157	-0.205
-78.582	82.991	0.164	-0.174
-77.567	-200.000	0.064	0.423
-76.553	60.740	-0.229	-0.222
-75.538	158.319	0.022	0.030
-74.524	746.420	0.067	-0.176
-73.509	-162.948	0.190	-0.009
-72.494	-123.650	-0.354	-0.055
-71.480	-200.000	0.024	-0.157
-70.465	-200.000	-0.033	-0.376
-69.451	103.068	-0.358	-0.411
-68.436	-59.891	-0.229	-0.096
-67.422	-146.493	0.364	0.031
-66.407	-16.750	-0.158	0.098
-65.392	105.406	0.018	0.021
-64.378	132.543	0.137	0.173
-63.363	-47.112	-0.684	-0.327
-62.349	-154.874	-0.229	0.015
-61.334	-6.849	-1.249	-0.831
-60.319	132.074	0.451	0.568
-59.305	800.000	-0.439	-1.301
-58.290	236.946	0.572	0.927
-57.276	191.033	0.873	1.285
-56.261	-200.000	116.778	655.383
-55.246	505.398	1546.281	3503.416
-54.232	175.336	2711.837	3843.580
-53.217	106.473	2148.953	2491.822
-52.203	38.012	1584.539	1378.084
-51.188	29.748	1328.284	1105.992
-50.173	26.980	1289.747	1057.754
-49.159	53.102	1348.189	1262.133
-48.144	51.302	1361.565	1263.898
-47.130	29.831	1316.083	1096.151
-46.115	26.524	1297.729	1061.461
-45.100	26.370	1292.280	1056.061
-44.086	26.321	1289.804	1053.709
-43.071	26.261	1287.632	1051.547
-42.057	26.255	1285.440	1049.681
-41.042	26.344	1283.960	1048.945
-40.027	26.331	1282.205	1047.393
-39.013	26.328	1280.478	1045.922
-37.998	26.366	1278.706	1044.656
-36.984	26.444	1277.222	1043.850
-35.969	26.464	1275.147	1042.230
-34.954	26.381	1273.410	1040.290
-33.940	26.484	1272.004	1039.694
-32.925	26.439	1271.012	1038.581
-31.911	26.718	1268.720	1038.268
-30.896	26.597	1267.919	1036.876
-29.881	26.548	1266.772	1035.617
-28.867	26.624	1265.166	1034.701
-27.852	26.517	1263.751	1032.888
-26.838	26.517	1262.346	1031.702
-25.823	26.502	1260.963	1030.441
-24.809	26.475	1259.896	1029.380
-23.794	26.654	1257.845	1028.677
-22.779	26.568	1257.250	1027.664
-21.765	26.642	1255.274	1026.423
-20.750	26.533	1254.924	1025.479
-19.736	26.534	1253.112	1023.968
-18.721	26.469	1251.937	1022.596
-17.706	26.471	1250.993	1021.797
-16.692	26.543	1249.730	1021.128
-15.677	26.379	1248.894	1019.483
-14.663	26.553	1247.058	1018.924
-13.648	26.357	1246.886	1017.638
-12.633	26.307	1246.149	1016.713
-11.619	26.382	1244.733	1015.939
-10.604	26.452	1244.268	1015.914
-9.590	26.357	1243.344	1014.587
-8.575	26.311	1242.480	1013.583
-7.560	26.467	1241.275	1013.436
-6.546	26.442	1240.370	1012.515
-5.531	26.339	1239.536	1011.217
-4.517	26.385	1238.608	1010.678
-3.502	26.470	1237.729	1010.397
-2.487	26.475	1236.619	1009.474
-1.473	26.268	1233.129	1005.437
-0.458	24.813	1218.054	985.102
0.556	22.926	1201.087	947.549
1.571	19.205	1206.895	931.952
2.586	18.184	1221.575	937.611
3.600	18.039	1210.530	928.264
4.615	14.087	1140.067	853.898
5.629	7.196	1069.435	767.626
6.644	4.285	1051.750	740.976
7.659	4.086	1050.140	738.827
8.673	3.946	1048.426	736.889
9.688	3.913	1047.048	735.695
10.702	4.191	1045.353	735.758
11.717	8.694	1050.743	760.934
12.731	16.297	1061.740	805.220
13.746	21.278	1068.062	833.775
14.761	22.334	1069.070	839.533
15.775	21.657	1067.349	834.878
16.790	20.612	1065.664	828.513
17.804	20.076	1063.931	824.541
18.819	19.855	1063.056	822.742
19.834	19.814	1062.460	822.010
20.848	19.772	1061.834	821.256
21.863	19.642	1060.944	819.877
22.877	19.412	1060.520	818.386
23.892	19.294	1059.460	816.936
24.907	19.334	1059.033	816.721
25.921	19.369	1057.659	815.756
26.936	19.263	1056.377	814.196
27.950	19.337	1055.435	813.744
28.965	19.554	1053.832	813.460
29.980	19.662	1052.379	812.775
30.994	19.757	1051.364	812.365
32.009	19.806	1050.560	811.901
33.023	19.608	1049.726	810.257
34.038	19.606	1048.359	809.122
35.053	19.566	1047.439	808.154
36.067	19.508	1046.455	807.052
37.082	19.549	1045.967	806.797
38.096	19.643	1045.860	807.080
39.111	19.645	1045.112	806.440
40.126	19.440	1043.464	804.141
41.140	19.150	1041.543	801.242
42.155	19.032	1040.614	799.909
43.169	18.854	1039.135	797.874
44.184	18.811	1038.195	796.883
45.199	19.009	1037.327	797.064
46.213	19.163	1036.711	797.231
47.228	19.326	1036.238	797.553
48.242	19.443	1035.367	797.351
49.257	19.458	1034.008	796.305
50.271	19.530	1033.443	796.132
51.286	19.566	1032.805	795.736
52.301	19.538	1031.378	794.437
53.315	19.303	1030.398	792.528
54.330	19.302	1028.800	791.227
55.344	19.130	1028.413	790.067
56.359	19.132	1027.776	789.519
57.374	19.050	1027.196	788.626
58.388	19.041	1025.772	787.424
59.403	18.959	1024.949	786.348
60.417	18.839	1024.805	785.619
61.432	18.864	1023.692	784.810
62.447	18.884	1022.375	783.821
63.461	18.637	1022.012	782.346
64.476	18.752	1020.652	781.759
65.490	18.709	1019.843	780.876
66.505	18.865	1019.594	781.329
67.520	18.901	1018.864	780.860
68.534	18.712	1018.083	779.338
69.549	18.790	1017.373	779.079
70.563	18.670	1016.050	777.451
71.578	18.546	1015.131	776.121
72.593	18.433	1014.248	774.862
73.607	18.324	1014.483	774.480
74.622	18.510	1013.400	774.425
75.636	18.585	1012.293	773.852
76.651	18.563	1012.161	773.583
77.666	18.666	1011.731	773.649
78.680	18.563	1010.832	772.432
79.695	18.614	1010.066	772.006
80.709	18.879	1009.929	773.025
81.724	18.905	1009.263	772.563
82.739	19.067	1008.584	772.702
83.753	19.522	1007.949	774.190
84.768	19.715	1007.775	774.854
85.782	19.998	1007.054	775.495
86.797	19.859	1005.927	773.940
87.812	19.542	1005.093	771.810
88.826	19.572	1003.963	771.008
89.841	19.754	1002.609	770.715
90.855	19.749	1002.382	770.446
91.870	19.775	1001.732	769.997
92.884	19.671	1000.831	768.772
93.899	19.727	999.949	768.276
94.914	19.845	998.883	767.913
95.928	19.879	997.644	767.044
96.943	19.646	997.021	765.462
97.957	19.623	996.038	764.541
98.972	19.783	995.137	764.487
99.987	19.694	994.552	763.576
101.001	19.594	993.599	762.337
102.016	19.544	992.975	761.571
103.030	19.684	991.740	761.175
104.045	19.652	991.324	760.644
105.060	19.511	990.163	759.065
106.074	19.120	989.086	756.456
107.089	19.006	987.729	754.853
108.103	18.840	986.393	753.038
109.118	18.818	985.650	752.305
110.133	18.716	984.898	751.221
111.147	18.815	983.945	750.856
112.162	18.785	983.465	750.293
113.176	19.119	982.381	750.860
114.191	19.063	982.199	750.408
115.206	18.961	981.559	749.410
116.220	19.107	980.371	749.069
117.235	18.960	979.488	747.692
118.249	18.847	978.910	746.693
119.264	18.887	977.752	745.918
120.279	18.645	977.510	744.615
121.293	18.723	976.362	744.012
122.308	18.636	975.165	742.660
123.322	18.560	974.158	741.496
124.337	18.549	973.062	740.553
125.352	18.515	972.035	739.555
126.366	18.532	971.290	738.997
127.381	18.538	970.471	738.336
128.395	18.605	969.318	737.683
129.410	18.500	968.692	736.688
130.424	18.939	967.395	737.521
131.439	18.816	967.710	737.168
132.454	18.994	966.885	737.235
133.468	18.930	966.193	736.369
134.483	18.877	965.087	735.234
135.497	18.932	964.302	734.808
136.512	18.977	963.518	734.338
137.527	18.949	962.848	733.641
138.541	19.192	961.648	733.697
139.556	19.095	961.640	733.213
140.570	19.290	960.782	733.322
141.585	19.567	960.197	733.990
142.600	19.474	959.475	732.977
143.614	19.733	958.839	733.529
144.629	19.806	957.908	733.059
145.643	19.632	957.169	731.691
146.658	19.490	955.540	729.780
147.673	19.220	954.935	728.114
148.687	19.247	953.367	726.967
149.702	19.218	952.633	726.223
150.716	19.017	952.163	724.950
151.731	19.198	950.999	724.763
152.746	19.193	950.191	724.061
153.760	19.174	949.729	723.566
154.775	19.296	949.872	724.126
155.789	19.479	948.746	723.970
156.804	19.442	947.795	723.026
157.819	19.454	947.681	722.923
158.833	19.748	946.742	723.373
159.848	19.946	945.967	723.547
160.862	19.531	945.095	721.082
161.877	19.218	943.607	718.578
162.892	19.034	942.764	717.105
163.906	19.039	941.382	716.011
164.921	19.130	940.525	715.673
165.935	19.245	939.667	715.436
166.950	19.309	939.347	715.396
167.964	19.304	938.436	714.614
168.979	19.106	937.382	712.930
169.994	19.166	936.194	712.210
171.008	19.267	935.978	712.401
172.023	19.642	935.270	713.349
173.037	19.634	934.876	712.952
174.052	19.487	933.921	711.555
175.067	19.117	933.109	709.351
176.081	19.009	931.957	707.964
177.096	19.073	931.186	707.581
178.110	19.202	930.814	707.764
179.125	19.162	930.448	707.261
180.140	19.151	930.474	707.172
181.154	19.401	930.058	707.821
182.169	19.565	929.933	708.334
183.183	19.544	929.184	707.614
184.198	19.625	928.289	707.205
185.213	19.543	927.568	706.256
186.227	19.711	927.248	706.634
187.242	19.883	926.650	706.820
188.256	19.871	925.952	706.175
189.271	20.009	924.924	705.894
190.286	19.462	924.012	702.907
191.300	19.041	922.684	700.122
192.315	18.911	922.029	699.035
193.329	18.933	921.824	698.906
194.344	19.185	920.899	699.165
195.359	19.332	920.594	699.470
196.373	19.482	920.426	699.888
197.388	19.712	919.626	700.149
198.402	19.998	919.497	701.146
199.417	19.950	919.438	700.846
200.432	20.148	918.492	700.865
201.446	20.260	918.223	701.050
202.461	20.312	917.773	700.852
203.475	20.043	917.148	699.229
204.490	19.894	915.798	697.538
205.504	19.824	914.832	696.457
206.519	19.565	914.418	695.037
207.534	19.576	913.610	694.408
208.548	19.838	912.781	694.769
209.563	19.947	911.905	694.475
210.577	19.886	911.609	693.947
211.592	20.094	911.395	694.554
212.607	20.163	910.646	694.199
213.621	19.974	910.026	692.909
214.636	19.977	909.194	692.224
215.650	20.068	908.657	692.118
216.665	20.233	907.624	691.930
217.680	20.126	907.678	691.484
218.694	20.234	906.722	691.122
219.709	20.091	906.235	690.120
220.723	20.016	905.364	689.099
221.738	20.067	904.486	688.574
222.753	19.969	904.329	688.000
223.767	20.130	903.870	688.229
224.782	20.293	903.330	688.406
225.796	20.352	902.824	688.194
226.811	20.291	901.813	687.119
227.826	20.047	900.894	685.392
228.840	20.189	899.824	685.079
229.855	20.074	899.162	684.064
230.869	19.972	898.366	682.993
231.884	19.872	898.080	682.322
232.899	19.863	897.324	681.649
233.913	19.644	896.632	680.205
234.928	19.572	896.002	679.380
235.942	19.761	895.041	679.336
236.957	19.535	895.152	678.469
237.972	19.590	894.020	677.768
238.986	19.721	893.542	677.859
240.001	19.688	893.046	677.296
241.015	19.872	892.242	677.347
242.030	20.068	891.687	677.632
243.045	20.061	891.611	677.486
244.059	20.072	890.937	676.956
245.074	20.125	889.979	676.377
246.088	20.108	889.851	676.153
247.103	20.338	889.255	676.537
248.117	20.639	888.781	677.288
249.132	20.797	888.944	677.966
250.147	21.086	888.375	678.597
251.161	21.123	887.728	678.187
252.176	21.087	887.111	677.514
253.190	21.202	886.308	677.289
254.205	21.168	885.776	676.689
255.220	21.211	884.890	676.122
256.234	21.021	884.384	674.938
257.249	20.963	883.846	674.244
258.263	20.991	883.161	673.772
259.278	21.032	882.596	673.439
260.293	21.094	882.220	673.329
261.307	21.390	881.333	673.737
262.322	21.259	881.091	672.987
263.336	21.325	880.025	672.368
264.351	21.335	879.418	671.880
265.366	21.253	878.733	670.982
266.380	21.172	878.046	670.087
267.395	21.156	877.139	669.276
268.409	20.891	876.648	667.826
269.424	20.945	876.153	667.598
270.439	20.943	875.169	666.778
271.453	20.735	874.383	665.327
272.468	20.824	873.883	665.229
273.482	20.766	873.398	664.580
274.497	20.815	872.595	664.096
275.512	20.819	871.972	663.578
276.526	20.826	871.872	663.469
277.541	21.014	871.376	663.750
278.555	21.288	870.966	664.421
279.570	21.354	869.895	663.796
280.585	21.250	869.696	663.192
281.599	20.992	868.853	661.509
282.614	20.996	867.939	660.771
283.628	20.919	867.116	659.795
284.643	20.791	867.015	659.174
285.657	20.813	866.009	658.435
286.672	20.939	865.419	658.402
287.687	20.980	864.901	658.106
288.701	20.968	864.507	657.703
289.716	21.092	863.854	657.614
290.730	20.970	863.629	656.926
291.745	21.139	862.974	657.006
292.760	21.241	862.490	656.962
293.774	21.540	861.446	657.233
294.789	21.277	861.034	655.872
295.803	21.078	860.334	654.534
296.818	21.000	859.367	653.448
297.833	21.089	858.608	653.147
298.847	21.056	858.248	652.691
299.862	21.269	857.491	652.855
300.876	21.312	857.325	652.832
301.891	21.473	857.114	653.213
302.906	21.587	856.505	653.117
303.920	21.728	856.073	653.256
304.935	21.687	855.847	652.874
305.949	21.418	854.714	650.950
306.964	21.362	853.619	649.848
307.979	21.367	853.531	649.745
308.993	21.465	853.059	649.693
310.008	21.569	852.439	649.549
311.022	21.562	851.691	648.893
312.037	21.340	850.589	647.174
313.052	21.108	850.269	646.015
314.066	21.081	849.635	645.377
315.081	21.010	849.140	644.680
316.095	20.963	848.498	643.964
317.110	21.083	848.035	643.996
318.125	20.921	847.767	643.140
319.139	21.013	846.996	642.837
320.154	20.967	846.523	642.251
321.168	21.102	846.174	642.427
322.183	21.212	845.447	642.225
323.197	21.139	845.421	641.879
324.212	21.272	844.329	641.480
325.227	21.123	843.954	640.593
326.241	21.153	843.716	640.465
327.256	21.053	842.990	639.489
328.270	21.005	842.411	638.819
329.285	21.073	841.394	638.238
330.300	21.044	840.625	637.493
331.314	21.255	840.471	638.090
332.329	21.411	840.374	638.530
333.343	21.396	840.089	638.202
334.358	21.632	839.138	638.283
335.373	21.499	839.112	637.725
336.387	21.612	838.800	637.843
337.402	21.554	838.941	637.680
338.416	21.785	838.332	638.001
339.431	21.900	838.281	638.325
340.446	21.980	838.402	638.654
341.460	22.078	837.388	638.181
342.475	22.164	837.358	638.414
343.489	22.033	837.069	637.660
344.504	22.241	836.569	637.979
345.519	22.402	835.503	637.692
346.533	22.377	834.669	636.909
347.548	21.856	834.352	634.725
348.562	21.594	833.748	633.262
349.577	21.530	833.151	632.522
350.592	21.415	832.083	631.238
351.606	21.426	831.638	630.885
352.621	21.540	830.881	630.666
353.635	21.675	830.030	630.449
354.650	21.717	829.860	630.416
355.665	21.824	829.041	630.122
356.679	21.784	828.968	629.867
357.694	21.990	828.153	629.934
358.708	21.962	827.161	629.023
359.723	21.657	826.904	627.677
360.738	21.898	825.963	627.771
361.752	21.901	825.504	627.378
362.767	22.130	825.052	627.798
363.781	22.267	824.920	628.128
364.796	22.418	824.742	628.476
365.810	22.452	824.765	628.559
366.825	22.544	823.963	628.220
367.840	22.537	823.392	627.706
368.854	22.280	822.624	626.150
369.869	22.111	822.371	625.299
370.883	22.109	821.999	624.956
371.898	22.399	821.506	625.556
372.913	22.401	821.454	625.470
373.927	22.401	820.650	624.801
374.942	22.392	820.346	624.483
375.956	22.465	819.846	624.305
376.971	22.553	819.690	624.443
377.986	22.769	819.031	624.649
379.000	22.771	818.382	624.107
380.015	22.628	818.338	623.513
381.029	22.560	817.704	622.735
382.044	22.697	816.717	622.409
383.059	22.699	816.150	621.929
384.073	22.492	815.449	620.612
385.088	22.283	814.523	619.117
386.102	22.202	813.843	618.259
387.117	22.134	813.652	617.821
388.132	22.069	813.273	617.251
389.146	22.288	812.631	617.478
390.161	22.536	811.797	617.659
391.175	22.543	811.742	617.588
392.190	22.496	810.775	616.633
393.205	22.179	810.410	615.191
394.219	22.191	810.162	614.992
395.234	22.285	809.703	614.917
396.248	21.961	809.295	613.417
397.263	21.985	808.634	612.947
398.278	21.961	808.089	612.396
399.292	21.976	807.871	612.231
400.307	21.856	807.492	611.469
401.321	21.804	807.063	610.911
402.336	22.222	806.057	611.547
403.350	22.264	805.688	611.360
404.365	22.383	805.798	611.803
405.380	22.667	805.401	612.434
406.394	22.793	804.815	612.373
407.409	22.743	804.833	612.159
408.423	22.872	804.854	612.566
409.438	22.947	804.131	612.223
410.453	23.073	803.762	612.323
411.467	22.974	803.209	611.506
412.482	23.047	803.304	611.777
413.496	23.284	802.519	611.943
414.511	23.163	801.970	611.053
415.526	22.949	801.476	609.884
416.540	22.970	800.783	609.376
417.555	23.057	800.179	609.162
418.569	23.015	800.169	608.956
419.584	23.109	799.780	608.930
420.599	23.044	799.160	608.180
421.613	165.487	1371.610	1798.310
422.628	143.787	1454.985	1798.390
