DTS Sentinel unit serial number:	SN413079Multiplexer serial number:	ORYXHardware model number:	OX4-SRSoftware version number:	ORYX F/W v4.00 Oryx Data Collector v3.7.2.0data status	okinstallation	princeton_trtdifferential loss correction	single-endedforward channel	channel 1reverse channel	N/Adate	2019/09/12time	19:53:34forward acquisition time	15.00reverse acquisition time	0.00gamma	496.2192k internal	0.2324k external	0.2324temperature offset calibration	1.0139default loss term (dB/km)	0.3790temperature slope calibration	1.0000multiplexer offset coefficient	1.0000multiplexer slope coefficient	1.0000fibre end	0.00T internal ref (°C)	31.87T ext. ref 1 (°C)	3.45T ext. ref 2 (°C)	26.44length (m)	temperature (°C)	Stokes	anti-Stokes-747.200	-138.414	0.448	-0.050
-746.185	-200.000	0.056	0.467
-745.171	470.671	-0.321	0.728
-744.156	-115.456	0.797	-0.152
-743.142	-63.478	-0.526	-0.218
-742.127	-2.114	0.368	0.261
-741.112	404.845	0.125	0.266
-740.098	774.066	0.160	-0.441
-739.083	800.000	0.198	0.630
-738.069	-74.949	0.376	0.136
-737.054	800.000	-0.024	-0.089
-736.039	-1.045	0.614	0.438
-735.025	414.065	0.356	0.764
-734.010	-200.000	-0.018	0.376
-732.996	-200.000	0.083	-0.464
-731.981	58.194	-0.421	-0.417
-730.966	-114.478	0.480	-0.093
-729.952	3.401	0.373	0.274
-728.937	10.993	-0.421	-0.325
-727.923	362.693	0.202	-0.409
-726.908	-119.972	-0.380	-0.066
-725.894	-200.000	-0.041	0.266
-724.879	357.443	-0.122	0.246
-723.864	-141.115	0.515	0.053
-722.850	-144.180	-0.795	0.075
-721.835	-200.000	0.108	0.487
-720.821	-186.978	0.166	0.002
-719.806	-74.277	0.233	-0.085
-718.791	-53.425	0.338	-0.156
-717.777	-200.000	0.052	-0.238
-716.762	-102.433	0.429	-0.104
-715.748	-113.676	-0.881	0.173
-714.733	57.223	0.611	-0.601
-713.718	-21.963	-0.287	0.176
-712.704	-75.279	0.465	0.167
-711.689	65.925	-0.418	-0.427
-710.675	-28.888	-0.480	0.278
-709.660	800.000	-0.090	-0.344
-708.645	0.508	0.802	-0.578
-707.631	800.000	-0.130	0.424
-706.616	-200.000	-0.200	1.252
-705.602	-200.000	-0.091	0.806
-704.587	-98.170	-0.425	0.110
-703.572	-200.000	0.232	-1.069
-702.558	-10.288	0.431	-0.288
-701.543	-96.020	0.312	-0.084
-700.529	-200.000	-0.045	-0.235
-699.514	69.104	-0.642	-0.665
-698.499	-92.809	-1.243	-0.350
-697.485	111.559	-0.330	-0.401
-696.470	26.424	-0.816	-0.687
-695.456	-93.080	-0.626	-0.176
-694.441	63.913	-0.587	-0.594
-693.426	55.018	-0.312	-0.303
-692.412	800.000	0.031	0.125
-691.397	91.312	0.322	0.364
-690.383	-90.757	0.317	0.092
-689.368	-133.427	0.475	-0.060
-688.354	195.912	0.301	-0.462
-687.339	-200.000	0.071	-0.416
-686.324	25.071	0.466	0.389
-685.310	-200.000	-0.938	0.004
-684.295	800.000	-0.312	1.125
-683.281	62.523	0.415	0.417
-682.266	310.168	-0.126	0.238
-681.251	-69.287	-0.500	0.194
-680.237	-20.185	-0.673	0.418
-679.222	-77.212	-0.497	0.174
-678.208	125.066	0.393	-0.499
-677.193	-200.000	-0.021	0.455
-676.178	-119.153	-0.559	-0.098
-675.164	41.257	-0.151	-0.138
-674.149	49.097	0.384	0.363
-673.135	-27.081	0.722	-0.424
-672.120	800.000	-0.232	-0.872
-671.105	366.184	-0.066	-0.134
-670.091	-34.539	0.454	-0.250
-669.076	-60.777	-0.303	-0.129
-668.062	264.997	-0.069	-0.122
-667.047	800.000	0.036	0.123
-666.032	-1.055	-0.040	0.028
-665.018	471.811	-0.321	0.728
-664.003	8.915	-0.210	0.160
-662.989	800.000	0.141	-0.542
-661.974	-0.966	0.393	-0.280
-660.959	-34.166	0.160	0.088
-659.945	-200.000	0.023	0.614
-658.930	-91.517	0.646	-0.186
-657.916	-68.645	0.253	-0.099
-656.901	778.229	-0.258	-0.708
-655.886	111.402	-0.296	-0.359
-654.872	13.920	0.432	0.338
-653.857	216.105	0.309	0.494
-652.843	-5.441	-0.397	0.274
-651.828	-34.816	-0.944	0.519
-650.814	-200.000	-0.065	-0.743
-649.799	-79.096	-0.051	-0.017
-648.784	751.834	-0.150	-0.409
-647.770	7.671	-0.321	-0.241
-646.755	800.000	-0.130	0.506
-645.741	685.787	-0.183	-0.480
-644.726	395.013	0.148	0.310
-643.711	-170.393	-0.381	-0.013
-642.697	-109.363	0.403	0.086
-641.682	386.004	0.202	-0.419
-640.668	-63.891	0.065	0.027
-639.653	-156.807	-0.604	-0.037
-638.638	-110.194	0.581	-0.122
-637.624	-99.261	0.303	0.077
-636.609	29.722	-0.627	0.537
-635.595	237.402	0.367	0.612
-634.580	-22.973	-0.467	0.283
-633.565	-64.983	-0.098	0.040
-632.551	-78.076	-0.393	-0.136
-631.536	40.958	-0.459	0.417
-630.522	-77.914	-0.702	0.244
-629.507	-147.051	0.350	0.030
-628.492	32.546	0.448	0.389
-627.478	-112.761	0.673	-0.134
-626.463	95.411	0.174	-0.200
-625.449	-42.282	-0.781	-0.401
-624.434	-200.000	-0.067	0.441
-623.419	14.700	-0.888	-0.697
-622.405	403.199	-0.253	-0.535
-621.390	64.340	-0.474	0.479
-620.376	-46.386	1.420	-0.701
-619.361	800.000	0.175	-0.487
-618.346	235.484	0.281	0.467
-617.332	516.067	-0.406	0.952
-616.317	47.051	-0.451	0.422
-615.303	-128.920	-0.405	0.057
-614.288	-83.877	0.494	-0.158
-613.273	-10.676	0.613	-0.408
-612.259	123.518	-0.163	0.205
-611.244	-44.678	0.752	-0.377
-610.230	-41.015	-0.587	0.305
-609.215	208.944	-0.101	-0.158
-608.201	0.450	-0.658	-0.472
-607.186	-5.774	0.230	0.158
-606.171	-200.000	0.077	-0.388
-605.157	-11.317	-0.143	0.094
-604.142	-50.716	0.718	-0.340
-603.128	-200.000	-0.089	-0.553
-602.113	-200.000	-0.005	-0.618
-601.098	-200.000	-0.047	-0.423
-600.084	-200.000	0.071	-0.415
-599.069	153.934	-0.519	0.714
-598.055	716.760	0.158	0.421
-597.040	-102.096	-1.379	-0.333
-596.025	38.719	-0.655	-0.587
-595.011	-200.000	0.045	0.486
-593.996	-119.137	-0.763	0.134
-592.982	99.157	-0.262	-0.304
-591.967	47.950	0.142	-0.133
-590.952	377.760	0.114	0.235
-589.938	-52.298	-0.102	-0.048
-588.923	-26.625	-0.674	-0.396
-587.909	-169.720	0.173	-0.006
-586.894	-88.798	0.459	0.137
-585.879	-128.323	-0.041	0.006
-584.865	119.238	0.367	-0.456
-583.850	149.871	-0.132	-0.179
-582.836	-34.379	0.483	0.266
-581.821	315.050	-0.615	-1.162
-580.806	-65.845	0.520	-0.209
-579.792	-36.576	0.677	0.365
-578.777	800.000	0.032	-0.103
-577.763	-88.621	0.787	0.235
-576.748	412.917	-0.266	0.568
-575.733	-200.000	0.045	-0.339
-574.719	-45.334	-0.373	0.185
-573.704	268.460	-0.434	-0.763
-572.690	-92.098	-0.398	-0.113
-571.675	-35.519	0.749	0.408
-570.661	102.897	-0.782	-0.919
-569.646	-200.000	-0.005	0.150
-568.631	534.781	0.152	-0.361
-567.617	-143.462	0.366	0.035
-566.602	787.658	-0.169	0.464
-565.588	644.034	-0.014	0.037
-564.573	-4.071	0.346	-0.241
-563.558	501.736	-0.208	-0.482
-562.544	-136.009	-0.593	0.070
-561.529	-81.878	-0.364	-0.119
-560.515	-200.000	-0.020	0.676
-559.500	27.170	0.244	-0.206
-558.485	-17.112	0.217	-0.137
-557.471	161.837	0.085	-0.119
-556.456	-200.000	0.054	-0.724
-555.442	1.076	-0.852	-0.613
-554.427	405.826	0.326	-0.690
-553.412	207.303	-0.286	-0.447
-552.398	7.707	0.155	0.116
-551.383	-116.199	1.026	0.191
-550.369	-200.000	-0.062	-0.539
-549.354	736.094	-0.256	0.687
-548.339	150.738	0.365	0.497
-547.325	-200.000	0.103	-0.564
-546.310	-119.655	0.425	-0.074
-545.296	-200.000	0.027	-0.130
-544.281	800.000	0.021	0.075
-543.266	3.456	0.340	-0.248
-542.252	-13.800	-0.615	-0.398
-541.237	48.200	-0.631	-0.591
-540.223	-70.242	-0.308	0.117
-539.208	75.245	-0.700	-0.739
-538.193	-26.540	0.361	-0.212
-537.179	51.460	0.225	-0.214
-536.164	433.957	0.171	0.373
-535.150	302.872	-0.143	0.264
-534.135	51.234	-0.524	0.498
-533.121	-110.221	-0.135	0.028
-532.106	800.000	0.154	-0.533
-531.091	-200.000	0.094	-0.700
-530.077	-102.551	-1.057	0.253
-529.062	-200.000	0.068	0.577
-528.048	-34.913	-0.555	-0.303
-527.033	36.846	0.617	0.546
-526.018	-18.833	0.394	-0.245
-525.004	800.000	-0.290	-1.027
-523.989	-200.000	-0.020	-0.519
-522.975	121.342	-0.622	0.775
-521.960	-86.427	-0.242	0.074
-520.945	-200.000	-0.065	-0.594
-519.931	-116.230	0.267	0.050
-518.916	20.421	-0.518	0.419
-517.902	-200.000	0.012	-0.368
-516.887	-108.870	-0.228	0.049
-515.872	247.991	-0.040	-0.067
-514.858	800.000	-0.027	0.081
-513.843	-60.457	-0.877	-0.373
-512.829	800.000	-0.130	-0.384
-511.814	-200.000	0.013	-0.483
-510.799	-126.866	1.062	0.157
-509.785	800.000	-0.278	1.114
-508.770	23.146	0.717	0.589
-507.756	91.123	-0.365	0.410
-506.741	-133.362	-0.454	0.057
-505.726	563.542	-0.195	-0.471
-504.712	-3.354	0.742	0.517
-503.697	144.272	0.291	0.389
-502.683	53.358	-0.027	0.026
-501.668	87.384	0.200	-0.222
-500.653	3.126	-0.060	0.043
-499.639	-200.000	0.006	0.163
-498.624	-200.000	-0.019	-0.295
-497.610	160.621	-0.416	0.581
-496.595	-166.474	0.617	-0.026
-495.581	-94.628	-1.127	-0.306
-494.566	-106.359	-0.554	-0.124
-493.551	246.450	0.234	-0.395
-492.537	45.832	-0.274	-0.254
-491.522	96.425	0.550	0.629
-490.508	22.070	-0.676	-0.551
-489.493	154.857	-0.122	0.168
-488.478	40.426	0.560	-0.504
-487.464	-200.000	-0.044	0.793
-486.449	-5.581	0.579	0.397
-485.435	25.326	0.629	-0.522
-484.420	44.245	-0.320	-0.293
-483.405	107.304	-0.011	-0.013
-482.391	-200.000	-0.104	0.872
-481.376	361.403	0.285	0.571
-480.362	652.906	-0.276	-0.708
-479.347	-67.735	-0.724	-0.283
-478.332	-200.000	-0.036	0.349
-477.318	-60.956	-1.101	-0.465
-476.303	-29.002	0.175	-0.101
-475.289	800.000	-0.210	0.790
-474.274	195.143	0.763	1.158
-473.259	-55.725	0.357	-0.160
-472.245	97.282	-0.034	0.038
-471.230	-161.225	0.577	0.030
-470.216	800.000	-0.140	-0.583
-469.201	800.000	0.058	0.200
-468.186	-200.000	0.177	0.790
-467.172	-43.806	-0.202	-0.102
-466.157	-60.136	-1.016	-0.433
-465.143	-35.509	-0.233	0.126
-464.128	-31.478	0.487	-0.273
-463.113	-200.000	-0.109	0.546
-462.099	-94.380	0.368	-0.100
-461.084	800.000	-0.113	-0.460
-460.070	-200.000	-0.100	-0.600
-459.055	-126.896	-0.716	-0.105
-458.040	80.282	0.357	-0.383
-457.026	800.000	-0.203	0.582
-456.011	-183.546	0.142	0.002
-454.997	-200.000	-0.043	-0.430
-453.982	-96.514	0.306	-0.081
-452.968	-58.891	-0.730	0.315
-451.953	-74.624	-0.594	0.213
-450.938	-200.000	0.005	0.783
-449.924	-147.294	-0.691	-0.059
-448.909	48.623	-0.401	-0.375
-447.895	-60.335	0.389	-0.165
-446.880	-0.805	-0.473	0.334
-445.865	-102.098	0.224	-0.054
-444.851	16.470	0.449	0.354
-443.836	-31.410	-0.470	0.264
-442.822	64.487	-0.486	-0.488
-441.807	-135.018	-0.385	0.046
-440.792	75.831	-0.374	-0.394
-439.778	-116.129	-0.419	0.078
-438.763	800.000	-0.057	0.213
-437.749	48.127	-0.739	0.689
-436.734	-107.180	-0.273	-0.060
-435.719	-160.488	0.318	-0.017
-434.705	-42.348	-0.579	0.295
-433.690	-200.000	-0.053	0.306
-432.676	535.316	-0.184	0.436
-431.661	21.051	0.546	0.442
-430.646	800.000	-0.122	0.336
-429.632	131.209	0.190	0.244
-428.617	-177.118	0.368	-0.009
-427.603	463.109	0.130	-0.290
-426.588	-45.611	0.448	0.221
-425.573	545.869	0.268	0.639
-424.559	-200.000	-0.007	-0.422
-423.544	-141.077	0.580	-0.059
-422.530	-200.000	-0.039	-0.583
-421.515	41.020	-0.173	-0.156
-420.500	204.037	0.326	0.504
-419.486	-200.000	-0.012	-0.517
-418.471	12.959	1.006	-0.776
-417.457	-51.369	-0.517	-0.241
-416.442	62.922	0.099	0.099
-415.428	-200.000	0.013	-0.376
-414.413	-107.176	-0.256	0.056
-413.398	-81.097	0.372	-0.123
-412.384	-29.428	0.156	-0.089
-411.369	-38.040	-0.502	0.266
-410.355	25.484	-0.521	-0.432
-409.340	53.979	-0.108	-0.103
-408.325	-200.000	0.105	-0.720
-407.311	276.143	0.022	-0.039
-406.296	43.631	0.621	-0.566
-405.282	134.229	-0.254	-0.329
-404.267	61.219	0.737	0.730
-403.252	29.521	0.339	0.287
-402.238	397.382	0.522	-1.088
-401.223	-66.329	0.347	0.138
-400.209	283.019	-0.186	0.333
-399.194	-34.606	-1.023	0.558
-398.179	-151.219	0.157	-0.012
-397.165	68.941	-0.663	-0.678
-396.150	-129.741	-0.352	0.048
-395.136	-38.146	-0.428	-0.226
-394.121	215.877	-0.318	0.503
-393.106	-56.629	0.783	-0.345
-392.092	-17.211	0.278	-0.175
-391.077	-100.470	-0.445	-0.110
-390.063	9.466	-0.429	0.323
-389.048	800.000	0.112	-0.414
-388.033	800.000	0.284	-0.797
-387.019	515.546	-0.212	-0.494
-386.004	-62.163	-0.739	-0.307
-384.990	269.396	0.235	-0.411
-383.975	-143.803	-0.210	-0.020
-382.960	-43.529	0.786	-0.395
-381.946	-200.000	0.097	-0.798
-380.931	800.000	-0.176	0.565
-379.917	319.136	-0.087	-0.164
-378.902	134.882	0.132	-0.170
-377.888	235.085	-0.308	-0.506
-376.873	41.565	-0.391	0.353
-375.858	-65.319	0.627	0.251
-374.844	-47.495	0.619	-0.299
-373.829	36.942	-0.449	0.395
-372.815	-42.314	0.452	-0.229
-371.800	195.671	0.094	-0.143
-370.785	-69.474	0.442	-0.169
-369.771	-200.000	0.045	-0.898
-368.756	380.142	0.052	0.106
-367.742	-200.000	-0.132	1.444
-366.727	81.954	0.304	0.327
-365.712	-159.145	-0.817	-0.046
-364.698	616.516	0.123	0.307
-363.683	-86.626	0.310	-0.095
-362.669	-76.833	0.249	0.087
-361.654	-200.000	0.075	-0.367
-360.639	-117.184	-0.240	-0.043
-359.625	-54.386	-0.532	-0.240
-358.610	65.802	0.616	-0.621
-357.596	32.992	0.076	-0.065
-356.581	800.000	0.243	0.775
-355.566	144.094	0.184	-0.244
-354.552	-81.800	-0.233	0.076
-353.537	-49.750	0.587	-0.278
-352.523	70.645	-0.544	0.560
-351.508	163.350	0.128	0.178
-350.493	-200.000	0.126	1.294
-349.479	319.748	0.486	0.916
-348.464	-200.000	-0.037	0.503
-347.450	-109.384	0.505	-0.106
-346.435	-46.894	-0.095	0.046
-345.420	274.954	0.239	0.421
-344.406	187.532	0.309	0.458
-343.391	119.504	-0.402	-0.495
-342.377	-134.181	0.276	-0.034
-341.362	-54.811	0.833	0.374
-340.348	69.304	0.157	0.161
-339.333	439.145	0.125	0.271
-338.318	76.829	0.379	0.399
-337.304	-80.949	-0.469	-0.154
-336.289	41.700	-0.314	-0.283
-335.275	-41.843	0.491	0.250
-334.260	-154.615	-0.895	0.059
-333.245	141.041	-0.290	-0.381
-332.231	-6.005	0.261	0.177
-331.216	-200.000	0.058	0.363
-330.202	-200.000	0.066	0.686
-329.187	-76.596	-0.603	0.210
-328.172	88.328	0.206	-0.227
-327.158	-200.000	0.011	0.509
-326.143	135.476	-0.287	-0.371
-325.129	-171.847	-0.571	-0.019
-324.114	-6.198	0.930	0.631
-323.099	-78.185	0.104	-0.036
-322.085	800.000	-0.237	-0.680
-321.070	242.376	0.167	-0.277
-320.056	-167.500	-0.503	-0.020
-319.041	-63.655	0.434	0.177
-318.026	76.438	-0.445	0.468
-317.012	5.778	-0.310	0.228
-315.997	-35.028	0.608	-0.329
-314.983	-8.397	-0.377	-0.251
-313.968	-200.000	0.021	0.632
-312.953	506.149	0.099	0.228
-311.939	-200.000	-0.014	0.518
-310.924	800.000	-0.238	0.708
-309.910	-200.000	0.201	-0.000
-308.895	-142.094	-0.344	-0.034
-307.880	64.707	0.460	-0.460
-306.866	31.378	-0.200	-0.170
-305.851	177.582	0.590	-0.853
-304.837	-200.000	0.011	0.323
-303.822	58.885	0.028	-0.027
-302.807	-87.749	-0.475	-0.142
-301.793	-13.890	0.116	-0.074
-300.778	800.000	0.074	0.225
-299.764	-200.000	0.024	0.164
-298.749	-200.000	0.005	0.083
-297.735	-174.590	-0.299	0.008
-296.720	194.539	-0.250	0.377
-295.705	49.679	0.471	0.441
-294.691	482.491	0.164	-0.370
-293.676	-129.617	-0.314	-0.043
-292.662	86.935	0.841	-0.921
-291.647	800.000	-0.089	0.290
-290.632	243.262	0.225	-0.374
-289.618	-184.915	0.726	-0.011
-288.603	-26.716	1.111	-0.645
-287.589	8.050	0.482	0.359
-286.574	-151.153	0.446	-0.033
-285.559	11.185	-0.273	0.207
-284.545	-200.000	-0.117	0.580
-283.530	193.665	-0.148	-0.221
-282.516	262.901	-0.417	0.718
-281.501	-124.127	0.401	0.062
-280.486	117.060	-0.109	-0.132
-279.472	-143.137	-0.132	0.013
-278.457	589.782	0.203	0.496
-277.443	-151.699	0.108	0.008
-276.428	291.464	0.352	0.635
-275.413	800.000	0.190	0.572
-274.399	704.801	-0.153	0.400
-273.384	109.720	-0.309	0.368
-272.370	-22.867	0.202	-0.121
-271.355	433.363	0.231	-0.497
-270.340	-200.000	0.048	0.314
-269.326	800.000	0.114	-0.358
-268.311	-96.322	0.916	0.240
-267.297	32.428	0.208	0.178
-266.282	800.000	-0.321	1.060
-265.267	-200.000	-0.027	-0.441
-264.253	310.736	0.268	-0.498
-263.238	587.631	0.095	-0.233
-262.224	-35.906	0.595	0.319
-261.209	-35.089	-0.714	0.385
-260.195	-37.939	0.419	-0.220
-259.180	-132.979	-0.378	0.048
-258.165	765.361	0.145	-0.390
-257.151	134.836	0.559	-0.718
-256.136	-150.617	0.404	0.031
-255.122	-200.000	0.031	-0.206
-254.107	-68.333	0.925	0.356
-253.092	8.400	0.247	0.184
-252.078	-149.104	-0.282	-0.022
-251.063	-32.129	-0.451	-0.250
-250.049	-24.840	0.952	-0.560
-249.034	-64.380	0.137	-0.055
-248.019	800.000	-0.089	-0.267
-247.005	308.112	-0.156	0.287
-245.990	-28.711	-0.392	-0.223
-244.976	126.619	0.222	-0.279
-243.961	72.737	-0.670	-0.692
-242.946	-117.009	-0.505	0.091
-241.932	161.715	0.137	0.190
-240.917	442.094	-0.286	-0.621
-239.903	-69.614	1.109	-0.420
-238.888	330.054	0.071	-0.135
-237.873	-58.028	-0.423	-0.183
-236.859	114.657	0.594	0.717
-235.844	16.453	0.395	-0.309
-234.830	736.541	0.081	-0.216
-233.815	800.000	0.075	0.251
-232.800	-87.159	-0.677	0.204
-231.786	111.305	0.583	0.695
-230.771	118.285	-0.741	0.904
-229.757	800.000	0.158	0.614
-228.742	119.372	0.133	-0.162
-227.727	467.446	0.074	-0.165
-226.713	-200.000	0.020	-0.655
-225.698	749.790	0.129	0.343
-224.684	-132.623	0.529	0.067
-223.669	-200.000	0.021	-0.236
-222.655	-54.232	-0.427	0.192
-221.640	280.736	0.252	-0.446
-220.625	507.248	0.307	-0.705
-219.611	-168.439	-1.132	0.043
-218.596	-200.000	0.106	0.636
-217.582	-200.000	0.111	-0.647
-216.567	800.000	-0.222	0.714
-215.552	-200.000	-0.020	-0.314
-214.538	-150.565	-0.415	-0.031
-213.523	148.386	0.281	0.375
-212.509	310.979	0.219	0.407
-211.494	319.521	0.027	-0.050
-210.479	-20.533	-0.383	0.233
-209.465	-64.520	0.431	-0.173
-208.450	800.000	0.054	0.222
-207.436	87.703	0.461	0.505
-206.421	-200.000	0.100	-0.599
-205.406	-60.094	0.679	0.286
-204.392	-65.808	-1.064	0.421
-203.377	-70.770	0.590	-0.220
-202.363	-73.224	-0.171	-0.062
-201.348	216.523	-0.169	0.266
-200.333	60.433	-0.225	-0.220
-199.319	-68.818	0.419	-0.160
-198.304	-200.000	0.036	0.440
-197.290	695.987	0.357	0.925
-196.275	800.000	0.202	0.853
-195.260	112.674	-0.941	1.125
-194.246	28.517	0.310	0.259
-193.231	-103.716	1.192	0.276
-192.217	-46.855	0.880	0.425
-191.202	181.716	0.256	-0.372
-190.187	-200.000	0.031	0.243
-189.173	-119.106	0.650	-0.112
-188.158	459.541	-0.160	-0.352
-187.144	-111.199	0.514	0.104
-186.129	800.000	0.026	-0.093
-185.114	206.751	0.280	-0.431
-184.100	-55.946	0.455	0.201
-183.085	-66.529	-0.134	-0.053
-182.071	411.543	0.246	-0.516
-181.056	-200.000	-0.129	-0.564
-180.042	-14.124	-0.753	0.479
-179.027	-17.467	0.384	-0.239
-178.012	800.000	-0.042	0.179
-176.998	159.946	0.490	-0.674
-175.983	-15.532	-0.364	-0.229
-174.969	800.000	0.052	-0.172
-173.954	-56.527	-0.369	0.162
-172.939	800.000	-0.273	0.785
-171.925	797.878	-0.118	-0.322
-170.910	-124.403	-0.044	-0.007
-169.896	800.000	0.100	-0.336
-168.881	-159.573	0.796	0.044
-167.866	191.107	-0.121	-0.180
-166.852	800.000	0.106	0.296
-165.837	59.004	-0.228	-0.221
-164.823	800.000	0.264	0.746
-163.808	-32.853	0.684	0.375
-162.793	-18.199	-0.325	0.201
-161.779	800.000	-0.107	-0.364
-160.764	544.578	-0.333	-0.785
-159.750	-30.928	-0.330	0.184
-158.735	30.362	-0.838	-0.706
-157.720	-157.692	-0.609	-0.036
-156.706	-159.526	-0.539	0.030
-155.691	216.588	-0.181	0.284
-154.677	-75.323	-0.576	0.203
-153.662	-53.878	0.082	0.037
-152.647	-200.000	0.169	0.888
-151.633	800.000	-0.140	-0.430
-150.618	-200.000	0.037	-0.303
-149.604	526.412	-0.468	-1.088
-148.589	-200.000	0.013	-0.187
-147.574	-200.000	-0.034	-0.804
-146.560	800.000	0.071	0.253
-145.545	-200.000	-0.025	-0.595
-144.531	-63.165	-0.586	0.238
-143.516	65.048	0.458	0.456
-142.502	507.099	-0.054	0.123
-141.487	416.740	-0.248	0.521
-140.472	13.959	0.256	-0.196
-139.458	800.000	-0.087	-0.364
-138.443	-57.066	-0.532	-0.231
-137.429	-200.000	0.027	-0.499
-136.414	30.074	0.217	0.182
-135.399	-90.119	-0.259	0.074
-134.385	-80.641	0.838	0.275
-133.370	-44.890	0.897	-0.441
-132.356	-11.791	-0.285	-0.185
-131.341	-200.000	0.033	0.663
-130.326	800.000	0.050	0.207
-129.312	800.000	-0.091	-0.306
-128.297	-130.962	0.273	0.036
-127.283	-200.000	0.136	-0.635
-126.268	378.267	0.309	0.623
-125.253	800.000	-0.165	-0.575
-124.239	-67.063	-0.804	0.313
-123.224	-90.979	-0.539	-0.153
-122.210	-200.000	-0.006	-0.589
-121.195	-97.495	-0.989	-0.253
-120.180	-132.268	0.517	0.066
-119.166	9.832	-0.818	0.611
-118.151	-200.000	-0.010	-0.116
-117.137	-56.177	0.232	0.101
-116.122	3.283	0.841	-0.603
-115.107	-200.000	-0.036	0.355
-114.093	12.998	-0.074	0.057
-113.078	66.056	0.451	0.451
-112.064	-50.474	-0.180	0.084
-111.049	41.610	0.449	0.400
-110.034	39.596	-0.361	0.318
-109.020	-89.585	-0.991	0.287
-108.005	134.707	0.508	-0.649
-106.991	-129.372	0.872	0.119
-105.976	-120.572	0.430	0.072
-104.962	241.627	0.410	0.674
-103.947	-44.850	0.679	0.333
-102.932	800.000	0.053	-0.165
-101.918	800.000	0.069	-0.234
-100.903	-34.471	0.766	0.413
-99.889	308.617	-0.308	0.566
-98.874	-52.387	-0.191	-0.087
-97.859	-5.321	0.510	-0.345
-96.845	48.727	-0.303	-0.279
-95.830	-37.759	0.732	0.384
-94.816	-14.717	-0.527	-0.333
-93.801	-21.273	0.657	0.395
-92.786	-200.000	0.043	0.628
-91.772	-61.813	-0.794	0.327
-90.757	-132.474	0.593	-0.075
-89.743	-36.933	1.090	-0.575
-88.728	10.071	-0.376	-0.281
-87.713	151.916	-0.505	-0.678
-86.699	155.495	-0.084	-0.114
-85.684	-200.000	0.036	0.295
-84.670	67.729	0.500	0.503
-83.655	120.315	0.084	0.103
-82.640	-82.051	-0.982	-0.315
-81.626	53.507	-0.328	-0.310
-80.611	800.000	0.056	0.192
-79.597	739.873	-0.110	0.292
-78.582	-200.000	-0.056	0.727
-77.567	-105.630	-0.140	0.031
-76.553	-200.000	-0.148	0.699
-75.538	794.399	-0.113	-0.306
-74.524	33.963	-0.762	0.653
-73.509	-122.021	0.945	-0.153
-72.494	-46.482	-0.321	0.155
-71.480	800.000	0.260	0.733
-70.465	-200.000	-0.088	-0.680
-69.451	-28.877	-0.420	0.237
-68.436	170.488	0.676	-0.952
-67.422	-99.461	-1.032	-0.255
-66.407	177.384	-0.249	-0.357
-65.392	264.564	-0.076	0.131
-64.378	-55.646	-0.246	-0.108
-63.363	204.533	-0.473	0.722
-62.349	-0.179	0.428	0.300
-61.334	5.413	-1.053	-0.764
-60.319	47.342	0.919	0.841
-59.305	800.000	-0.306	-1.279
-58.290	96.477	1.281	1.441
-57.276	800.000	0.534	2.014
-56.261	-200.000	96.698	603.879
-55.246	644.524	1365.577	3424.208
-54.232	202.381	2532.151	3840.315
-53.217	120.097	2118.914	2583.131
-52.203	44.135	1586.463	1429.698
-51.188	35.655	1325.610	1144.357
-50.173	32.453	1284.368	1090.199
-49.159	56.232	1335.533	1274.568
-48.144	57.238	1352.335	1296.482
-47.130	35.860	1309.379	1131.371
-46.115	31.982	1292.760	1094.399
-45.100	32.008	1287.192	1089.793
-44.086	31.979	1284.248	1087.089
-43.071	31.760	1282.623	1084.408
-42.057	31.833	1279.416	1082.075
-41.042	31.962	1278.043	1081.611
-40.027	31.749	1277.629	1079.988
-39.013	31.871	1275.190	1078.590
-37.998	31.816	1273.385	1076.700
-36.984	31.962	1270.989	1075.471
-35.969	31.909	1269.774	1074.100
-34.954	31.796	1268.440	1072.278
-33.940	31.795	1266.349	1070.464
-32.925	31.931	1265.862	1070.785
-31.911	31.865	1263.654	1068.501
-30.896	32.078	1263.174	1069.263
-29.881	31.971	1260.992	1066.764
-28.867	31.906	1259.976	1065.497
-27.852	32.045	1258.010	1064.579
-26.838	31.845	1258.687	1063.975
-25.823	31.963	1255.936	1062.274
-24.809	32.025	1254.403	1061.286
-23.794	31.722	1253.529	1058.796
-22.779	31.970	1251.889	1058.769
-21.765	32.059	1250.414	1057.977
-20.750	31.939	1249.591	1056.564
-19.736	31.719	1248.455	1054.323
-18.721	31.707	1247.662	1053.546
-17.706	31.797	1245.983	1052.588
-16.692	32.035	1243.919	1052.138
-15.677	31.970	1243.905	1051.721
-14.663	31.778	1242.571	1049.478
-13.648	31.754	1241.609	1048.490
-12.633	32.033	1239.695	1048.389
-11.619	31.894	1239.496	1047.403
-10.604	31.843	1237.944	1045.766
-9.590	31.798	1238.247	1045.725
-8.575	31.846	1236.360	1044.358
-7.560	31.794	1235.111	1042.975
-6.546	31.904	1235.070	1043.510
-5.531	31.651	1234.791	1041.826
-4.517	31.833	1233.370	1041.599
-3.502	32.027	1231.611	1041.144
-2.487	31.791	1230.859	1039.159
-1.473	31.830	1227.374	1036.392
-0.458	30.328	1212.188	1015.321
0.556	27.930	1195.603	976.421
1.571	24.252	1201.109	961.040
2.586	23.411	1214.665	967.217
3.600	22.507	1204.434	954.089
4.615	17.056	1133.074	869.629
5.629	7.948	1058.956	768.872
6.644	3.578	1040.126	734.376
7.659	3.566	1035.392	730.913
8.673	3.226	1034.197	728.393
9.688	3.430	1032.953	728.417
10.702	3.748	1032.431	729.485
11.717	9.588	1039.546	762.142
12.731	18.943	1052.698	816.339
13.746	23.751	1058.242	843.454
14.761	24.219	1059.813	846.853
15.775	23.973	1058.065	844.218
16.790	23.346	1056.616	840.011
17.804	23.394	1055.568	839.331
18.819	22.976	1056.064	837.674
19.834	23.379	1055.016	838.676
20.848	23.288	1054.732	837.943
21.863	23.367	1053.884	837.570
22.877	22.950	1053.747	835.413
23.892	23.097	1052.982	835.427
24.907	23.042	1051.811	834.165
25.921	22.937	1050.467	832.533
26.936	22.941	1048.831	831.183
27.950	22.909	1048.274	830.515
28.965	22.921	1046.492	829.088
29.980	22.821	1045.403	827.682
30.994	23.079	1044.442	828.055
32.009	23.101	1042.538	826.576
33.023	22.904	1043.451	826.303
34.038	23.065	1041.378	825.342
35.053	22.751	1040.382	823.014
36.067	22.653	1039.587	821.858
37.082	23.086	1038.171	822.682
38.096	23.237	1038.568	823.622
39.111	23.219	1037.339	822.493
40.126	23.055	1034.846	819.683
41.140	22.663	1034.154	817.246
42.155	22.499	1032.864	815.394
43.169	22.566	1031.709	814.724
44.184	22.302	1031.447	813.223
45.199	22.342	1030.561	812.635
46.213	22.593	1030.582	813.739
47.228	22.632	1030.431	813.729
48.242	23.138	1029.000	814.858
49.257	23.333	1027.460	814.464
50.271	23.707	1026.559	815.392
51.286	23.158	1027.220	813.325
52.301	23.210	1026.111	812.614
53.315	23.238	1024.229	811.180
54.330	23.062	1024.195	810.275
55.344	22.865	1023.066	808.407
56.359	22.875	1021.232	806.932
57.374	22.772	1021.498	806.603
58.388	22.658	1019.980	804.808
59.403	22.550	1019.144	803.587
60.417	22.576	1018.455	803.091
61.432	22.539	1018.043	802.527
62.447	22.441	1016.748	800.991
63.461	22.703	1014.894	800.648
64.476	22.583	1014.272	799.542
65.490	22.453	1014.299	798.900
66.505	22.510	1014.200	799.010
67.520	22.247	1013.490	797.187
68.534	22.271	1012.247	796.250
69.549	22.143	1011.706	795.175
70.563	21.963	1011.118	793.826
71.578	21.847	1009.058	791.616
72.593	21.750	1008.056	790.324
73.607	21.770	1008.957	791.048
74.622	22.016	1006.988	790.542
75.636	21.975	1006.995	790.295
76.651	22.124	1006.840	790.773
77.666	21.925	1005.709	788.920
78.680	21.944	1004.843	788.256
79.695	21.948	1005.204	788.491
80.709	22.087	1004.232	788.281
81.724	22.439	1004.148	789.723
82.739	22.301	1002.230	787.526
83.753	22.824	1003.740	790.987
84.768	23.425	1002.448	792.589
85.782	23.523	1000.741	791.605
86.797	23.914	999.675	792.437
87.812	23.121	999.988	789.075
88.826	23.356	998.718	789.051
89.841	23.245	998.873	788.612
90.855	23.145	997.281	786.841
91.870	23.608	995.407	787.347
92.884	23.549	994.177	786.041
93.899	23.124	994.481	784.331
94.914	23.442	993.402	784.818
95.928	23.268	992.690	783.415
96.943	23.111	990.945	781.274
97.957	23.172	989.846	780.607
98.972	23.538	988.959	781.454
99.987	23.289	988.231	779.710
101.001	23.200	987.671	778.810
102.016	22.967	987.029	777.210
103.030	23.447	985.849	778.318
104.045	23.324	986.180	777.972
105.060	23.225	984.857	776.427
106.074	22.762	982.978	772.847
107.089	22.733	982.034	771.909
108.103	22.581	981.451	770.719
109.118	22.687	979.266	769.397
110.133	22.044	978.758	766.125
111.147	22.098	978.009	765.710
112.162	22.236	978.142	766.345
113.176	22.662	975.843	766.329
114.191	22.676	976.038	766.474
115.206	22.599	975.403	765.573
116.220	22.708	974.181	765.018
117.235	22.073	974.565	762.497
118.249	22.318	973.294	762.496
119.264	21.943	971.989	759.786
120.279	21.400	971.949	757.333
121.293	22.234	969.988	759.342
122.308	21.931	969.714	757.755
123.322	21.650	967.633	754.849
124.337	21.716	966.913	754.505
125.352	21.777	966.212	754.152
126.366	22.003	964.346	753.599
127.381	22.030	964.064	753.428
128.395	22.333	963.754	754.419
129.410	22.313	963.247	753.870
130.424	22.495	963.019	754.403
131.439	22.348	962.969	753.668
132.454	22.698	961.459	753.916
133.468	22.859	960.177	753.533
134.483	22.485	960.135	751.836
135.497	22.714	958.290	751.303
136.512	22.508	958.322	750.382
137.527	22.491	957.689	749.749
138.541	22.887	956.243	750.234
139.556	22.908	955.926	750.007
140.570	22.629	956.315	749.062
141.585	23.410	955.234	751.458
142.600	23.472	953.887	750.595
143.614	23.504	954.354	751.032
144.629	23.604	952.770	750.142
145.643	23.438	951.482	748.363
146.658	22.744	950.935	744.935
147.673	22.882	949.876	744.622
148.687	23.170	948.073	744.356
149.702	22.976	946.123	741.944
150.716	22.609	946.565	740.685
151.731	22.874	945.379	740.802
152.746	22.914	946.745	741.973
153.760	22.749	945.215	740.018
154.775	22.930	944.961	740.511
155.789	23.059	943.708	740.005
156.804	23.068	942.695	739.183
157.819	22.903	942.863	738.559
158.833	23.374	941.883	739.693
159.848	23.739	940.893	740.371
160.862	23.068	940.166	736.937
161.877	23.205	938.245	735.935
162.892	22.730	937.350	733.196
163.906	22.445	935.959	730.861
164.921	22.692	934.629	730.782
165.935	22.668	934.566	730.568
166.950	22.565	934.667	730.154
167.964	22.505	933.393	728.846
168.979	22.753	931.662	728.456
169.994	22.652	932.025	728.257
171.008	22.783	930.957	727.897
172.023	23.138	930.206	728.711
173.037	23.598	929.470	729.963
174.052	23.421	927.570	727.677
175.067	22.715	927.410	724.591
176.081	22.562	926.315	723.041
177.096	22.099	927.088	721.681
178.110	22.300	925.904	721.518
179.125	22.053	924.761	719.552
180.140	22.652	924.047	721.384
181.154	22.789	924.382	722.141
182.169	23.077	924.901	723.662
183.183	23.548	923.005	724.038
184.198	23.078	923.431	722.388
185.213	23.052	921.793	720.939
186.227	22.960	922.083	720.726
187.242	22.896	920.676	719.302
188.256	23.420	920.260	721.043
189.271	23.171	919.815	719.619
190.286	23.065	918.818	718.344
191.300	22.153	917.943	713.896
192.315	22.179	916.817	713.062
193.329	22.081	916.894	712.662
194.344	22.505	915.468	713.205
195.359	22.477	915.194	712.817
196.373	23.413	914.584	716.062
197.388	23.454	913.871	715.607
198.402	23.728	914.303	716.987
199.417	23.803	913.496	716.593
200.432	23.793	912.899	716.021
201.446	23.891	912.167	715.777
202.461	23.666	912.395	714.988
203.475	23.610	911.362	713.889
204.490	23.095	910.245	710.880
205.504	23.295	909.615	711.130
206.519	23.319	908.486	710.281
207.534	23.216	907.730	709.214
208.548	23.177	907.829	709.072
209.563	22.999	907.303	707.888
210.577	23.362	907.060	709.087
211.592	23.453	906.708	709.113
212.607	23.557	906.420	709.240
213.621	23.987	904.048	709.035
214.636	23.348	904.404	706.703
215.650	23.292	904.168	706.234
216.665	23.472	902.610	705.671
217.680	23.487	902.738	705.767
218.694	23.513	902.350	705.504
219.709	23.756	901.160	705.479
220.723	23.255	900.517	702.923
221.738	23.495	898.593	702.310
222.753	23.237	898.336	701.026
223.767	23.351	898.598	701.619
224.782	23.591	898.087	702.108
225.796	23.645	897.534	701.828
226.811	23.523	896.291	700.311
227.826	23.222	895.052	698.094
228.840	23.036	894.448	696.827
229.855	23.258	893.991	697.285
230.869	22.826	893.473	695.121
231.884	23.117	892.551	695.483
232.899	23.128	893.165	695.946
233.913	22.973	892.640	694.867
234.928	23.033	890.633	693.478
235.942	22.429	890.822	691.191
236.957	22.565	889.696	690.790
237.972	22.832	889.336	691.494
238.986	22.395	888.678	689.210
240.001	22.848	887.213	689.785
241.015	22.814	887.430	689.759
242.030	22.910	887.054	689.782
243.045	22.923	887.121	689.825
244.059	22.940	886.816	689.592
245.074	23.570	885.050	690.609
246.088	23.154	885.413	689.214
247.103	23.262	885.514	689.651
248.117	24.072	885.443	692.689
249.132	24.251	885.131	693.079
250.147	24.570	884.208	693.534
251.161	24.456	883.676	692.611
252.176	24.260	883.587	691.722
253.190	24.581	883.196	692.596
254.205	24.558	882.728	692.079
255.220	24.259	881.428	689.845
256.234	24.386	880.845	689.818
257.249	24.153	880.253	688.391
258.263	24.198	878.907	687.453
259.278	24.328	878.498	687.573
260.293	24.421	878.137	687.587
261.307	24.210	878.461	686.966
262.322	24.437	877.765	687.237
263.336	24.147	876.387	684.981
264.351	24.318	874.546	684.137
265.366	24.545	874.221	684.692
266.380	24.220	874.344	683.485
267.395	24.334	874.009	683.598
268.409	24.272	872.350	682.001
269.424	24.627	872.022	683.045
270.439	24.190	871.470	680.879
271.453	24.329	870.135	680.306
272.468	24.118	869.933	679.283
273.482	24.010	869.936	678.814
274.497	24.073	869.013	678.274
275.512	23.979	868.238	677.251
276.526	23.876	869.177	677.532
277.541	24.321	867.712	678.021
278.555	24.777	867.969	679.897
279.570	24.891	866.787	679.342
280.585	24.431	865.998	676.922
281.599	24.127	865.279	675.148
282.614	24.014	863.759	673.475
283.628	23.755	863.922	672.560
284.643	24.014	863.841	673.416
285.657	23.995	862.698	672.396
286.672	24.124	862.123	672.377
287.687	23.732	862.109	670.824
288.701	24.495	860.525	672.409
289.716	24.109	860.840	671.139
290.730	24.341	860.040	671.330
291.745	24.031	859.468	669.656
292.760	24.436	858.445	670.325
293.774	24.770	858.404	671.486
294.789	24.821	857.616	671.002
295.803	24.747	855.923	669.342
296.818	23.987	855.854	666.380
297.833	23.843	855.450	665.470
298.847	24.391	855.081	667.173
299.862	24.405	854.641	666.825
300.876	24.490	854.096	666.657
301.891	24.782	853.752	667.420
302.906	24.973	853.497	667.873
303.920	24.853	853.266	667.186
304.935	25.090	852.963	667.774
305.949	24.538	852.058	664.950
306.964	24.313	851.107	663.314
307.979	24.443	850.429	663.208
308.993	24.636	850.671	664.056
310.008	24.567	850.632	663.709
311.022	24.580	849.137	662.535
312.037	24.477	848.247	661.400
313.052	23.933	847.749	658.936
314.066	24.006	846.901	658.489
315.081	23.720	846.378	656.966
316.095	23.673	845.794	656.281
317.110	24.282	843.907	657.005
318.125	24.019	843.607	655.743
319.139	23.695	843.604	654.489
320.154	23.872	843.571	655.058
321.168	23.661	843.321	654.029
322.183	23.994	842.387	654.472
323.197	23.948	842.505	654.337
324.212	23.995	842.372	654.348
325.227	23.796	841.157	652.616
326.241	24.154	839.093	652.268
327.256	24.083	839.248	652.072
328.270	24.108	837.397	650.667
329.285	23.991	837.427	650.205
330.300	23.614	836.952	648.400
331.314	23.816	836.944	649.075
332.329	24.096	836.570	649.750
333.343	24.357	836.657	650.712
334.358	24.397	836.585	650.744
335.373	24.271	835.922	649.713
336.387	24.576	835.439	650.389
337.402	24.450	835.738	650.107
338.416	24.738	836.409	651.621
339.431	25.003	836.191	652.357
340.446	25.048	835.388	651.839
341.460	25.170	834.903	651.844
342.475	25.656	833.488	652.443
343.489	25.535	833.792	652.187
344.504	25.568	833.322	651.881
345.519	25.472	833.180	651.365
346.533	25.180	832.209	649.491
347.548	24.923	831.267	647.768
348.562	24.625	831.376	646.716
349.577	24.815	829.896	646.196
350.592	24.306	829.632	644.095
351.606	24.549	827.767	643.463
352.621	24.632	827.973	643.867
353.635	24.171	827.734	641.961
354.650	24.378	826.619	641.787
355.665	24.565	825.940	641.874
356.679	24.504	825.772	641.467
357.694	24.996	824.550	642.226
358.708	24.707	824.734	641.277
359.723	24.785	822.950	640.110
360.738	24.495	823.453	639.406
361.752	24.373	822.706	638.336
362.767	24.852	822.853	640.107
363.781	25.539	821.326	641.314
364.796	25.564	821.216	641.259
365.810	25.471	821.693	641.244
366.825	25.287	821.317	640.236
367.840	25.483	819.466	639.436
368.854	25.297	819.481	638.728
369.869	25.299	818.883	638.213
370.883	24.636	818.909	635.819
371.898	25.170	818.996	637.730
372.913	25.292	818.029	637.352
373.927	25.306	817.117	636.636
374.942	25.034	817.213	635.688
375.956	25.656	817.148	637.789
376.971	25.647	816.332	637.064
377.986	25.702	815.120	636.253
379.000	25.729	815.286	636.423
380.015	25.707	814.668	635.808
381.029	25.794	814.280	635.755
382.044	25.571	813.892	634.610
383.059	25.566	813.135	633.947
384.073	25.225	812.279	632.019
385.088	24.930	811.981	630.694
386.102	24.978	810.096	629.343
387.117	25.005	808.824	628.393
388.132	25.153	808.505	628.609
389.146	24.968	808.762	628.104
390.161	25.273	808.331	628.781
391.175	25.546	808.610	629.900
392.190	25.154	807.826	627.862
393.205	24.523	807.797	625.573
394.219	24.597	806.512	624.783
395.234	24.357	806.356	623.766
396.248	24.742	805.464	624.367
397.263	24.290	806.446	623.491
398.278	24.266	805.228	622.411
399.292	24.470	804.192	622.267
400.307	24.495	802.820	621.237
401.321	24.334	803.306	620.997
402.336	24.517	803.216	621.511
403.350	25.296	802.761	623.810
404.365	25.333	802.775	623.894
405.380	25.944	801.557	625.013
406.394	26.026	800.997	624.807
407.409	25.893	801.245	624.483
408.423	26.046	801.064	624.816
409.438	26.025	801.142	624.749
410.453	25.655	800.994	623.295
411.467	25.673	800.405	622.846
412.482	25.787	800.233	623.052
413.496	25.986	799.548	623.150
414.511	26.130	798.428	622.718
415.526	25.488	799.194	621.044
416.540	25.655	797.304	620.097
417.555	26.207	796.422	621.254
418.569	25.694	797.337	620.147
419.584	25.732	796.616	619.661
420.599	25.624	795.803	618.604
421.613	162.213	1370.435	1793.590
422.628	140.718	1454.150	1793.606
