DTS Sentinel unit serial number:	SN413079Multiplexer serial number:	ORYXHardware model number:	OX4-SRSoftware version number:	ORYX F/W v4.00 Oryx Data Collector v3.7.2.0data status	okinstallation	princeton_trtdifferential loss correction	single-endedforward channel	channel 1reverse channel	N/Adate	2019/09/13time	11:58:35forward acquisition time	60.00reverse acquisition time	0.00gamma	496.2192k internal	0.2312k external	0.2312temperature offset calibration	1.0168default loss term (dB/km)	0.3790temperature slope calibration	1.0000multiplexer offset coefficient	1.0000multiplexer slope coefficient	1.0000fibre end	0.00T internal ref (°C)	33.56T ext. ref 1 (°C)	4.59T ext. ref 2 (°C)	30.81length (m)	temperature (°C)	Stokes	anti-Stokes-747.200	206.065	-0.029	0.045
-746.185	599.501	0.093	0.234
-745.171	-146.000	0.026	0.002
-744.156	-200.000	0.009	0.270
-743.142	-114.991	0.260	-0.050
-742.127	-1.544	-0.144	0.103
-741.112	-200.000	-0.057	0.267
-740.098	-94.758	0.026	0.007
-739.083	-41.127	-0.215	0.113
-738.069	-57.545	-0.198	0.088
-737.054	18.425	-0.160	0.130
-736.039	-55.270	-0.275	-0.125
-735.025	134.328	0.054	-0.071
-734.010	-40.338	-0.309	0.163
-732.996	-117.539	-0.467	0.086
-731.981	63.063	0.075	0.077
-730.966	234.262	-0.116	-0.193
-729.952	-5.532	-0.225	-0.156
-728.937	-200.000	0.012	0.158
-727.923	-175.764	-0.194	0.005
-726.908	-180.939	0.143	0.003
-725.894	-104.370	-0.267	0.063
-724.879	138.712	-0.144	0.192
-723.864	422.023	-0.107	-0.232
-722.850	288.055	-0.205	-0.376
-721.835	288.166	0.141	-0.259
-720.821	259.107	-0.177	-0.309
-719.806	-122.547	-0.356	-0.059
-718.791	-144.764	-0.414	0.039
-717.777	800.000	0.020	-0.080
-716.762	800.000	0.055	0.174
-715.748	-192.781	0.216	0.002
-714.733	32.035	-0.225	-0.197
-713.718	-200.000	-0.001	-0.124
-712.704	11.939	-0.050	0.039
-711.689	-111.812	0.227	-0.047
-710.675	740.710	0.138	0.376
-709.660	-24.295	-0.205	0.124
-708.645	351.949	-0.082	-0.165
-707.631	-200.000	-0.041	-0.565
-706.616	60.515	0.209	-0.210
-705.602	572.039	0.007	-0.018
-704.587	762.701	0.055	-0.152
-703.572	122.299	-0.150	0.190
-702.558	-71.251	-0.281	0.107
-701.543	-51.995	-0.060	0.028
-700.529	-39.253	-0.153	-0.082
-699.514	-69.271	-0.035	0.014
-698.499	736.784	0.108	0.293
-697.485	36.535	-0.182	0.163
-696.470	-165.874	-0.363	-0.016
-695.456	213.746	-0.051	-0.082
-694.441	-170.121	-0.362	0.013
-693.426	-16.162	0.099	-0.064
-692.412	-62.033	-0.341	0.144
-691.397	491.411	0.120	-0.279
-690.383	-200.000	-0.000	-0.187
-689.368	113.214	0.108	-0.133
-688.354	11.067	0.133	0.103
-687.339	67.317	0.122	0.126
-686.324	371.079	0.032	-0.065
-685.310	481.227	-0.093	0.214
-684.295	-70.231	0.183	-0.070
-683.281	136.727	0.114	-0.150
-682.266	800.000	0.042	0.149
-681.251	116.113	0.120	-0.148
-680.237	345.730	0.199	0.395
-679.222	64.704	-0.112	0.114
-678.208	-174.167	0.215	0.006
-677.193	-86.667	-0.370	-0.115
-676.178	-151.895	-0.148	0.011
-675.164	-200.000	-0.002	-0.101
-674.149	242.097	0.180	-0.306
-673.135	-54.360	-0.074	0.034
-672.120	-200.000	0.058	0.318
-671.105	20.514	0.040	0.033
-670.091	260.527	-0.190	-0.333
-669.076	-27.139	0.161	0.095
-668.062	168.860	0.203	0.293
-667.047	800.000	0.024	-0.080
-666.032	20.803	-0.109	0.090
-665.018	336.844	-0.118	0.232
-664.003	-200.000	0.008	0.070
-662.989	-86.629	0.300	0.093
-661.974	138.617	0.113	0.150
-660.959	535.317	0.124	0.297
-659.945	-200.000	-0.010	0.094
-658.930	339.497	0.080	-0.158
-657.916	-98.317	0.040	0.010
-656.901	800.000	-0.013	0.047
-655.886	-200.000	0.005	0.153
-654.872	114.929	-0.275	-0.339
-653.857	32.398	-0.076	0.066
-652.843	353.049	0.066	-0.133
-651.828	-151.419	0.124	0.009
-650.814	323.276	0.061	-0.117
-649.799	363.182	-0.078	0.159
-648.784	-200.000	0.020	-0.107
-647.770	-19.786	-0.218	-0.136
-646.755	48.728	0.014	-0.013
-645.741	414.007	-0.186	-0.401
-644.726	33.546	0.289	-0.254
-643.711	-127.426	0.182	-0.027
-642.697	528.208	-0.157	-0.373
-641.682	16.445	0.116	-0.093
-640.668	-65.555	-0.222	0.090
-639.653	458.194	-0.165	-0.371
-638.638	479.026	-0.088	-0.202
-637.624	-49.393	-0.045	-0.022
-636.609	-112.959	0.505	0.101
-635.595	129.528	-0.108	-0.140
-634.580	158.303	0.125	0.175
-633.565	-200.000	0.078	0.541
-632.551	-200.000	-0.008	-0.100
-631.536	158.859	-0.046	-0.064
-630.522	-74.635	-0.468	-0.170
-629.507	169.621	-0.111	0.160
-628.492	-200.000	-0.001	-0.143
-627.478	12.749	0.242	0.189
-626.463	-200.000	-0.053	-0.343
-625.449	-117.623	0.174	-0.032
-624.434	-181.680	0.263	0.005
-623.419	477.704	0.071	0.163
-622.405	-17.519	-0.316	0.201
-621.390	-35.914	0.168	-0.092
-620.376	87.296	0.193	-0.216
-619.361	-55.706	0.142	-0.064
-618.346	-200.000	-0.030	-0.255
-617.332	5.388	0.198	0.148
-616.317	-2.476	-0.150	0.106
-615.303	-200.000	-0.004	-0.260
-614.288	165.612	-0.081	-0.115
-613.273	-121.016	0.220	0.037
-612.259	21.411	-0.215	-0.176
-611.244	210.046	-0.137	0.216
-610.230	308.898	-0.179	0.338
-609.215	-200.000	-0.039	0.191
-608.201	84.656	-0.333	0.368
-607.186	-91.058	0.192	-0.056
-606.171	-7.881	-0.045	0.031
-605.157	38.687	0.226	-0.203
-604.142	9.088	0.242	-0.185
-603.128	-9.311	-0.130	-0.087
-602.113	-103.415	0.311	-0.074
-601.098	213.531	0.174	-0.277
-600.084	317.426	0.082	-0.156
-599.069	0.037	-0.148	-0.106
-598.055	238.540	-0.080	-0.134
-597.040	51.584	-0.066	-0.064
-596.025	-200.000	0.011	0.088
-595.011	-26.550	0.155	0.092
-593.996	-117.101	-0.160	0.029
-592.982	-200.000	0.010	-0.252
-591.967	-47.807	-0.083	-0.040
-590.952	116.732	-0.169	0.209
-589.938	299.886	-0.176	-0.327
-588.923	-127.405	-0.262	-0.039
-587.909	4.465	-0.325	-0.241
-586.894	800.000	-0.071	0.261
-585.879	258.739	0.038	-0.066
-584.865	-13.921	-0.181	-0.118
-583.850	37.019	0.029	0.026
-582.836	-160.959	-0.161	-0.009
-581.821	35.952	0.115	0.102
-580.806	125.230	-0.072	0.092
-579.792	-200.000	0.013	0.243
-578.777	-200.000	-0.007	0.033
-577.763	749.445	0.031	0.085
-576.748	66.596	0.189	0.194
-575.733	277.676	0.086	-0.155
-574.719	-108.909	0.095	0.020
-573.704	-200.000	-0.023	-0.388
-572.690	-101.598	-0.081	-0.020
-571.675	-153.096	-0.106	-0.008
-570.661	-200.000	0.061	-0.312
-569.646	-8.925	0.074	-0.050
-568.631	-128.307	-0.472	-0.068
-567.617	85.927	-0.147	0.163
-566.602	159.652	0.124	-0.174
-565.588	-72.964	0.160	-0.059
-564.573	-156.520	0.489	-0.031
-563.558	-200.000	-0.182	0.000
-562.544	734.909	-0.084	-0.227
-561.529	-65.044	0.209	-0.085
-560.515	-62.728	-0.487	-0.203
-559.500	213.698	-0.048	0.077
-558.485	515.661	0.087	-0.205
-557.471	28.024	0.190	-0.161
-556.456	232.352	0.062	-0.103
-555.442	800.000	0.024	0.098
-554.427	-96.214	-0.129	-0.035
-553.412	229.503	-0.147	0.241
-552.398	-200.000	-0.002	-0.116
-551.383	-63.262	0.182	0.076
-550.369	-200.000	-0.079	0.373
-549.354	-200.000	-0.029	0.257
-548.339	-35.027	-0.105	0.058
-547.325	-141.463	-0.095	0.010
-546.310	90.799	-0.042	0.047
-545.296	176.208	0.077	-0.113
-544.281	133.101	-0.094	0.123
-543.266	307.745	0.102	-0.192
-542.252	-200.000	-0.009	-0.042
-541.237	-200.000	0.048	0.215
-540.223	-88.743	-0.128	0.038
-539.208	-200.000	0.015	0.384
-538.193	-96.719	-0.451	-0.119
-537.179	800.000	0.015	-0.064
-536.164	-72.372	0.104	0.039
-535.150	-200.000	0.025	0.142
-534.135	-84.307	-0.069	-0.022
-533.121	800.000	0.052	0.151
-532.106	20.883	-0.148	0.121
-531.091	631.697	-0.042	-0.107
-530.077	-121.863	-0.184	-0.030
-529.062	-157.085	-0.149	0.009
-528.048	233.904	0.114	0.189
-527.033	355.423	0.048	-0.095
-526.018	325.132	0.047	0.090
-525.004	0.934	-0.070	-0.051
-523.989	-167.634	-0.380	-0.015
-522.975	800.000	0.097	-0.281
-521.960	-99.261	-0.090	-0.023
-520.945	800.000	0.074	-0.255
-519.931	-107.132	0.045	0.010
-518.916	-200.000	0.065	0.388
-517.902	-84.601	-0.389	0.123
-516.887	140.235	0.109	-0.145
-515.872	110.971	0.306	-0.370
-514.858	-193.014	-0.502	0.005
-513.843	-8.422	-0.098	0.066
-512.829	59.548	0.122	-0.121
-511.814	16.603	0.368	-0.292
-510.799	-135.744	-0.281	-0.033
-509.785	61.831	0.296	0.296
-508.770	3.579	-0.364	0.267
-507.756	-200.000	-0.033	-0.210
-506.741	800.000	-0.059	0.227
-505.726	167.171	0.137	0.196
-504.712	242.646	0.213	-0.359
-503.697	66.391	0.241	-0.246
-502.683	-53.000	-0.349	-0.161
-501.668	-66.283	0.333	-0.133
-500.653	-108.108	-0.306	-0.067
-499.639	-76.393	0.106	0.038
-498.624	800.000	-0.054	0.230
-497.610	-72.251	0.149	0.055
-496.595	-124.089	-0.186	0.029
-495.581	122.219	0.066	-0.082
-494.566	-13.899	-0.065	-0.042
-493.551	800.000	-0.010	-0.034
-492.537	15.574	-0.222	-0.175
-491.522	-200.000	0.039	-0.219
-490.508	-138.097	0.293	-0.033
-489.493	-200.000	-0.003	-0.053
-488.478	800.000	-0.012	-0.049
-487.464	800.000	-0.056	-0.193
-486.449	166.284	-0.151	-0.215
-485.435	84.895	0.086	0.094
-484.420	800.000	-0.044	0.154
-483.405	347.068	0.180	0.355
-482.391	90.623	0.031	0.035
-481.376	-134.893	-0.343	0.042
-480.362	335.901	0.065	0.126
-479.347	-78.719	-0.018	0.006
-478.332	-155.846	-0.208	0.013
-477.318	-200.000	-0.208	0.001
-476.303	800.000	0.063	-0.265
-475.289	-200.000	-0.006	-0.042
-474.274	90.382	-0.210	0.236
-473.259	121.654	0.109	0.136
-472.245	800.000	-0.079	0.322
-471.230	-26.304	-0.145	-0.085
-470.216	-200.000	0.049	-0.274
-469.201	-200.000	0.014	0.243
-468.186	35.631	0.160	-0.141
-467.172	-200.000	-0.012	0.214
-466.157	445.155	-0.002	-0.004
-465.143	-200.000	0.020	0.164
-464.128	540.848	0.161	0.385
-463.113	-73.935	-0.197	0.072
-462.099	187.744	0.206	-0.309
-461.084	185.522	-0.151	-0.225
-460.070	-200.000	0.005	0.280
-459.055	258.178	-0.149	-0.258
-458.040	48.387	-0.187	-0.176
-457.026	57.529	0.150	0.147
-456.011	41.794	0.189	-0.172
-454.997	-78.434	-0.030	-0.010
-453.982	668.361	0.103	0.268
-452.968	-144.838	0.232	0.021
-451.953	-115.036	0.081	-0.016
-450.938	-129.797	-0.212	0.029
-449.924	-200.000	-0.002	0.050
-448.909	-58.027	-0.386	0.169
-447.895	58.372	0.146	-0.144
-446.880	-200.000	-0.023	0.358
-445.865	-200.000	-0.023	-0.289
-444.851	301.442	0.067	-0.124
-443.836	97.234	0.073	0.084
-442.822	164.423	0.163	-0.230
-441.807	-3.610	-0.304	0.212
-440.792	72.302	-0.040	0.042
-439.778	-44.249	-0.307	-0.154
-438.763	-200.000	-0.034	0.296
-437.749	23.808	-0.041	-0.034
-436.734	115.904	0.109	0.134
-435.719	-118.295	-0.329	0.059
-434.705	310.436	-0.049	0.092
-433.690	-50.482	0.134	0.063
-432.676	-121.959	-0.180	-0.030
-431.661	-3.747	-0.176	0.123
-430.646	800.000	0.057	-0.205
-429.632	800.000	-0.033	0.133
-428.617	-200.000	0.025	0.190
-427.603	800.000	0.044	0.165
-426.588	68.109	-0.159	-0.163
-425.573	-30.197	0.106	-0.061
-424.559	3.224	-0.234	-0.171
-423.544	-94.952	-0.562	0.152
-422.530	0.938	0.086	-0.062
-421.515	-165.381	0.218	-0.010
-420.500	23.577	0.043	0.035
-419.486	468.177	0.033	-0.074
-418.471	-29.065	0.219	-0.126
-417.457	206.668	-0.154	-0.241
-416.442	-97.481	0.039	-0.010
-415.428	-34.952	0.138	-0.075
-414.413	226.196	-0.197	0.320
-413.398	-68.291	-0.070	0.027
-412.384	-108.821	0.027	0.006
-411.369	59.227	0.129	-0.127
-410.355	-165.208	0.206	-0.009
-409.340	-97.480	0.121	-0.031
-408.325	-56.664	-0.337	-0.150
-407.311	668.511	0.072	0.186
-406.296	269.352	-0.062	0.110
-405.282	-200.000	0.027	0.164
-404.267	-51.087	0.286	-0.134
-403.252	715.722	-0.078	0.208
-402.238	-179.236	-0.162	-0.004
-401.223	248.473	0.061	0.103
-400.209	213.141	0.165	-0.261
-399.194	-71.661	0.332	-0.124
-398.179	-92.996	0.300	0.084
-397.165	-83.851	0.412	-0.131
-396.150	115.582	-0.137	0.167
-395.136	-200.000	0.009	-0.098
-394.121	49.858	-0.121	0.115
-393.106	136.758	0.110	-0.144
-392.092	800.000	0.009	0.036
-391.077	564.511	0.145	0.352
-390.063	125.803	-0.098	-0.123
-389.048	-66.439	0.052	-0.021
-388.033	-200.000	-0.051	0.265
-387.019	71.509	0.228	0.237
-386.004	567.379	0.064	-0.155
-384.990	-31.602	0.187	0.105
-383.975	-200.000	0.006	0.140
-382.960	-200.000	-0.049	0.489
-381.946	-200.000	0.011	-0.090
-380.931	-200.000	-0.005	0.142
-379.917	-197.160	-0.247	0.002
-378.902	-86.665	0.286	-0.088
-377.888	-200.000	-0.009	0.054
-376.873	-200.000	-0.005	0.183
-375.858	800.000	-0.104	0.319
-374.844	-99.255	-0.362	-0.091
-373.829	-95.698	-0.473	-0.127
-372.815	-93.397	-0.271	-0.075
-371.800	494.684	-0.084	-0.194
-370.785	-200.000	-0.078	-0.448
-369.771	255.009	-0.123	0.211
-368.756	172.940	-0.138	0.199
-367.742	-200.000	0.057	-0.417
-366.727	259.893	-0.097	-0.168
-365.712	-160.436	0.214	-0.011
-364.698	92.573	0.019	0.021
-363.683	-200.000	0.016	0.151
-362.669	-71.861	0.146	-0.054
-361.654	-61.195	-0.384	-0.162
-360.639	52.864	0.233	-0.223
-359.625	-106.035	0.369	-0.083
-358.610	151.999	-0.141	-0.192
-357.596	-161.296	0.070	-0.004
-356.581	-89.056	0.400	0.118
-355.566	-59.129	-0.034	0.015
-354.552	-200.000	-0.007	0.194
-353.537	63.490	-0.146	-0.146
-352.523	307.361	-0.120	-0.223
-351.508	60.959	0.160	-0.159
-350.493	-200.000	-0.045	-0.257
-349.479	800.000	0.041	-0.148
-348.464	156.403	-0.088	0.121
-347.450	112.207	0.149	0.180
-346.435	-50.157	-0.268	0.127
-345.420	-93.766	-0.077	-0.021
-344.406	-140.767	0.130	0.013
-343.391	584.400	0.100	-0.244
-342.377	-9.756	-0.057	-0.038
-341.362	125.973	0.066	-0.084
-340.348	15.689	0.193	0.152
-339.333	-124.782	-0.150	-0.023
-338.318	-200.000	-0.026	0.495
-337.304	-59.455	-0.205	0.088
-336.289	159.545	0.118	0.165
-335.275	-73.816	-0.216	-0.078
-334.260	-154.280	-0.385	-0.026
-333.245	-38.429	0.401	0.212
-332.231	-24.464	0.227	0.135
-331.216	-69.133	0.217	0.083
-330.202	8.095	0.023	0.017
-329.187	-76.846	-0.449	-0.157
-328.172	-148.366	0.318	0.026
-327.158	-103.730	0.179	-0.042
-326.143	702.951	-0.116	-0.304
-325.129	59.396	0.153	0.150
-324.114	-40.311	0.180	-0.094
-323.099	-61.361	0.142	-0.060
-322.085	-156.483	-0.388	-0.024
-321.070	-200.000	-0.050	-0.345
-320.056	32.783	0.330	-0.285
-319.041	-200.000	-0.068	0.347
-318.026	-21.768	0.204	0.124
-317.012	8.752	-0.137	0.103
-315.997	134.343	-0.198	0.256
-314.983	-124.238	0.187	-0.029
-313.968	800.000	-0.011	0.044
-312.953	68.106	0.314	0.321
-311.939	-70.678	-0.274	0.103
-310.924	-171.148	-0.200	-0.007
-309.910	800.000	0.234	-0.651
-308.895	32.843	-0.111	0.096
-307.880	34.919	0.199	0.174
-306.866	-74.357	-0.168	0.061
-305.851	-200.000	0.011	0.190
-304.837	800.000	0.079	-0.280
-303.822	-38.193	0.138	-0.073
-302.807	-200.000	-0.016	0.102
-301.793	-8.287	0.497	0.333
-300.778	-46.726	0.170	-0.083
-299.764	-33.696	-0.144	-0.079
-298.749	-200.000	0.028	0.163
-297.735	800.000	-0.071	0.240
-296.720	-24.989	0.273	-0.162
-295.705	-44.592	-0.068	-0.034
-294.691	-78.259	0.377	-0.129
-293.676	800.000	-0.049	-0.136
-292.662	-93.736	-0.155	-0.043
-291.647	-18.486	0.203	-0.126
-290.632	-82.775	0.209	-0.067
-289.618	-169.628	0.347	0.013
-288.603	-200.000	0.035	0.237
-287.589	52.871	-0.217	-0.206
-286.574	-44.659	-0.112	0.056
-285.559	-2.968	-0.190	0.132
-284.545	387.637	0.138	0.285
-283.530	-200.000	0.022	0.343
-282.516	-200.000	0.054	0.359
-281.501	-106.474	0.193	0.043
-280.486	-65.358	0.296	-0.119
-279.472	800.000	0.016	-0.053
-278.457	47.695	0.100	-0.093
-277.443	12.053	-0.098	-0.075
-276.428	65.875	0.178	0.180
-275.413	-103.054	0.142	-0.034
-274.399	800.000	-0.115	0.322
-273.384	-200.000	-0.012	-0.088
-272.370	701.667	-0.117	-0.308
-271.355	-200.000	-0.008	0.107
-270.340	-194.057	0.169	-0.001
-269.326	81.406	0.112	-0.121
-268.311	769.217	-0.078	-0.211
-267.297	58.262	-0.328	-0.321
-266.282	-200.000	-0.079	0.463
-265.267	582.828	0.097	0.238
-264.253	-200.000	0.020	-0.366
-263.238	-41.620	0.117	0.060
-262.224	-123.638	-0.211	0.033
-261.209	146.293	-0.017	0.022
-260.195	800.000	0.042	0.126
-259.180	740.622	0.157	0.419
-258.165	800.000	0.033	-0.094
-257.151	146.651	-0.058	-0.078
-256.136	241.358	-0.118	-0.195
-255.122	-134.974	0.454	-0.055
-254.107	-151.443	-0.491	-0.036
-253.092	-200.000	0.001	0.285
-252.078	-200.000	0.064	0.332
-251.063	800.000	0.014	0.054
-250.049	-87.963	0.030	0.009
-249.034	699.580	0.034	-0.088
-248.019	-200.000	-0.027	-0.193
-247.005	-147.974	-0.234	-0.019
-245.990	800.000	0.066	0.205
-244.976	-153.515	0.268	-0.018
-243.961	-200.000	-0.008	0.170
-242.946	-200.000	0.015	-0.143
-241.932	-141.834	0.199	-0.020
-240.917	-84.644	0.317	-0.099
-239.903	-85.198	-0.275	0.085
-238.888	159.568	0.205	0.284
-237.873	-200.000	0.029	-0.136
-236.859	51.401	-0.307	-0.291
-235.844	-72.553	-0.372	0.137
-234.830	-200.000	-0.010	0.048
-233.815	314.798	-0.125	0.233
-232.800	558.470	0.150	-0.360
-231.786	393.661	0.077	0.160
-230.771	-200.000	-0.008	0.275
-229.757	316.556	-0.170	-0.319
-228.742	-132.617	-0.040	-0.005
-227.727	21.310	-0.173	-0.140
-226.713	-200.000	-0.010	-0.053
-225.698	467.510	-0.080	-0.179
-224.684	-34.513	-0.481	0.262
-223.669	-200.000	-0.056	0.270
-222.655	-98.734	-0.267	-0.068
-221.640	-7.375	-0.189	0.127
-220.625	-200.000	-0.047	-0.439
-219.611	-200.000	0.020	-0.114
-218.596	-43.716	-0.263	0.132
-217.582	-145.292	-0.139	-0.013
-216.567	-96.801	0.187	-0.049
-215.552	201.195	-0.034	-0.053
-214.538	64.521	-0.151	0.151
-213.523	-93.937	0.028	0.008
-212.509	-172.038	-0.159	-0.005
-211.494	-55.977	-0.199	0.088
-210.479	-20.371	-0.263	-0.161
-209.465	-95.737	0.385	-0.102
-208.450	41.841	0.237	0.214
-207.436	351.026	0.106	0.209
-206.421	-200.000	-0.031	-0.375
-205.406	202.785	0.246	-0.378
-204.392	-200.000	-0.019	0.227
-203.377	70.234	0.056	-0.058
-202.363	-94.523	0.080	-0.022
-201.348	123.743	0.056	-0.070
-200.333	-5.968	0.014	-0.010
-199.319	800.000	0.027	-0.075
-198.304	107.696	-0.232	0.275
-197.290	-200.000	-0.005	0.030
-196.275	-200.000	-0.033	-0.190
-195.260	-49.816	0.261	0.123
-194.246	-200.000	-0.012	0.284
-193.231	407.890	-0.109	-0.228
-192.217	450.255	-0.024	-0.052
-191.202	199.383	0.433	-0.660
-190.187	800.000	0.042	-0.156
-189.173	-200.000	0.001	-0.078
-188.158	-48.376	0.421	0.202
-187.144	-74.146	0.304	0.109
-186.129	129.522	-0.181	-0.230
-185.114	47.699	0.181	0.168
-184.100	175.929	-0.139	0.200
-183.085	-161.059	0.132	-0.007
-182.071	-200.000	0.020	0.130
-181.056	257.957	0.014	-0.024
-180.042	-100.563	0.362	0.089
-179.027	750.285	0.063	0.168
-178.012	-57.315	0.217	-0.095
-176.998	800.000	0.021	-0.063
-175.983	-200.000	0.049	0.275
-174.969	800.000	0.072	0.239
-173.954	-33.384	0.181	0.100
-172.939	406.197	0.058	0.121
-171.925	-135.078	0.218	-0.026
-170.910	-61.022	-0.405	0.170
-169.896	-90.308	-0.080	0.023
-168.881	-200.000	-0.019	0.140
-167.866	64.109	0.165	0.165
-166.852	161.419	0.033	0.046
-165.837	169.955	-0.145	0.205
-164.823	-101.001	0.117	0.028
-163.808	689.754	0.063	-0.164
-162.793	-200.000	0.018	0.221
-161.779	-35.297	0.226	-0.122
-160.764	-108.886	0.190	-0.040
-159.750	47.429	-0.173	-0.160
-158.735	50.534	0.127	0.119
-157.720	-74.162	-0.168	0.060
-156.706	-16.535	0.132	0.083
-155.691	-92.401	0.317	-0.089
-154.677	-200.000	0.052	-0.401
-153.662	-114.377	-0.379	-0.072
-152.647	555.036	-0.028	0.066
-151.633	-131.638	-0.186	-0.024
-150.618	800.000	-0.079	0.341
-149.604	4.889	0.116	-0.085
-148.589	-100.247	0.193	-0.047
-147.574	800.000	-0.042	-0.152
-146.560	-12.270	0.221	-0.143
-145.545	800.000	0.057	-0.214
-144.531	-149.127	0.251	-0.020
-143.516	668.119	-0.076	-0.195
-142.502	-45.129	0.183	-0.090
-141.487	-69.887	0.101	0.038
-140.472	-100.511	-0.109	-0.027
-139.458	-57.022	-0.326	0.142
-138.443	-200.000	0.031	-0.168
-137.429	-86.004	-0.167	0.051
-136.414	-117.088	0.235	0.042
-135.399	-85.375	-0.196	0.061
-134.385	21.207	-0.114	-0.092
-133.370	-18.773	-0.241	-0.149
-132.356	-70.815	-0.086	-0.032
-131.341	-200.000	-0.024	-0.141
-130.326	657.794	-0.151	0.385
-129.312	58.043	-0.210	0.204
-128.297	-10.167	0.217	-0.142
-127.283	-73.084	0.270	-0.098
-126.268	800.000	0.003	0.014
-125.253	-138.394	-0.237	0.026
-124.239	-141.384	-0.060	-0.006
-123.224	-97.018	-0.140	0.036
-122.210	-80.019	0.275	0.091
-121.195	-38.810	0.089	-0.047
-120.180	257.030	-0.174	0.296
-119.166	-48.053	0.276	0.132
-118.151	800.000	-0.061	0.169
-117.137	776.147	-0.058	0.158
-116.122	-200.000	-0.040	-0.249
-115.107	17.683	0.066	0.052
-114.093	6.690	0.210	-0.154
-113.078	16.069	-0.184	0.143
-112.064	23.095	0.067	-0.054
-111.049	89.131	0.073	-0.080
-110.034	-113.391	-0.334	-0.065
-109.020	-200.000	-0.013	0.330
-108.005	35.172	0.142	0.123
-106.991	-136.135	-0.125	0.014
-105.976	-200.000	-0.031	-0.279
-104.962	43.078	0.107	-0.097
-103.947	-88.371	0.116	0.034
-102.932	153.750	-0.159	-0.215
-101.918	-119.832	0.169	-0.029
-100.903	-187.774	0.246	-0.003
-99.889	341.106	-0.084	-0.162
-98.874	5.078	0.398	-0.290
-97.859	-34.379	-0.181	0.098
-96.845	-200.000	-0.021	0.148
-95.830	12.343	-0.062	-0.047
-94.816	800.000	0.083	0.299
-93.801	-200.000	-0.004	-0.046
-92.786	-148.043	-0.135	-0.011
-91.772	-115.160	0.158	-0.030
-90.757	82.588	-0.082	0.088
-89.743	-38.604	-0.281	-0.147
-88.728	2.374	-0.012	-0.008
-87.713	-23.609	0.088	0.052
-86.699	521.634	0.055	0.127
-85.684	800.000	0.094	-0.368
-84.670	-23.231	0.188	-0.112
-83.655	92.708	-0.107	-0.119
-82.640	-42.632	0.539	-0.271
-81.626	559.088	-0.092	0.219
-80.611	-200.000	0.045	0.210
-79.597	-44.904	0.230	-0.113
-78.582	55.521	0.121	-0.116
-77.567	250.893	0.174	-0.293
-76.553	-100.104	0.564	0.139
-75.538	-148.773	0.169	-0.014
-74.524	-115.129	-0.064	-0.012
-73.509	0.292	0.349	0.246
-72.494	-76.390	0.134	-0.047
-71.480	8.105	0.238	0.176
-70.465	-91.848	-0.205	-0.058
-69.451	-96.563	0.056	0.015
-68.436	-179.655	0.177	-0.004
-67.422	444.633	-0.146	-0.316
-66.407	-200.000	0.042	0.350
-65.392	35.088	0.073	0.063
-64.378	-133.456	-0.242	0.030
-63.363	-121.262	-0.208	0.034
-62.349	-200.000	0.071	0.318
-61.334	90.025	-0.817	-0.902
-60.319	332.696	0.173	0.329
-59.305	-200.000	-0.137	-0.711
-58.290	215.312	0.694	1.087
-57.276	347.359	0.805	1.567
-56.261	-200.000	97.761	586.429
-55.246	610.498	1428.296	3525.752
-54.232	181.229	2642.398	3837.164
-53.217	119.986	2197.817	2692.167
-52.203	45.453	1638.958	1494.256
-51.188	37.039	1371.948	1199.027
-50.173	33.670	1329.020	1141.242
-49.159	56.767	1378.850	1325.924
-48.144	60.120	1395.835	1362.665
-47.130	37.405	1350.713	1182.508
-46.115	33.724	1332.610	1144.469
-45.100	33.512	1327.916	1139.118
-44.086	33.464	1325.696	1136.876
-43.071	33.412	1323.406	1134.557
-42.057	33.310	1321.367	1132.157
-41.042	33.436	1319.558	1131.315
-40.027	33.522	1317.851	1130.318
-39.013	33.502	1316.379	1128.890
-37.998	33.527	1314.291	1127.201
-36.984	33.498	1312.681	1125.608
-35.969	33.706	1310.418	1124.852
-34.954	33.654	1309.097	1123.366
-33.940	33.553	1307.944	1121.736
-32.925	33.739	1306.285	1121.365
-31.911	33.612	1304.952	1119.427
-30.896	33.542	1303.407	1117.644
-29.881	33.603	1302.127	1116.865
-28.867	33.670	1300.511	1115.827
-27.852	33.591	1299.541	1114.489
-26.838	33.719	1297.502	1113.448
-25.823	33.646	1296.300	1111.941
-24.809	33.680	1294.901	1110.899
-23.794	33.675	1293.126	1109.298
-22.779	33.661	1292.322	1108.488
-21.765	33.637	1290.813	1107.004
-20.750	33.660	1289.631	1106.086
-19.736	33.509	1288.020	1103.778
-18.721	33.604	1286.919	1103.344
-17.706	33.557	1286.281	1102.477
-16.692	33.530	1284.419	1100.684
-15.677	33.544	1283.711	1100.112
-14.663	33.494	1282.892	1099.079
-13.648	33.415	1281.834	1097.673
-12.633	33.513	1280.711	1097.231
-11.619	33.472	1279.908	1096.262
-10.604	33.496	1279.343	1095.874
-9.590	33.453	1277.885	1094.333
-8.575	33.461	1276.909	1093.504
-7.560	33.555	1275.786	1093.038
-6.546	33.404	1275.287	1091.698
-5.531	33.467	1274.391	1091.251
-4.517	33.377	1273.874	1090.246
-3.502	33.503	1272.894	1090.086
-2.487	33.462	1271.788	1088.861
-1.473	33.467	1267.800	1085.434
-0.458	32.513	1252.913	1067.239
0.556	30.815	1234.282	1026.196
1.571	26.648	1239.365	1007.215
2.586	25.371	1253.894	1011.744
3.600	23.672	1241.265	991.979
4.615	17.921	1166.849	902.130
5.629	9.093	1091.246	799.800
6.644	4.919	1070.488	764.081
7.659	4.639	1067.453	760.480
8.673	4.425	1066.356	758.583
9.688	4.359	1065.188	757.365
10.702	5.050	1063.739	759.636
11.717	10.783	1072.182	793.673
12.731	19.354	1083.454	844.080
13.746	22.391	1087.912	862.386
14.761	22.300	1086.292	860.580
15.775	21.301	1084.737	854.388
16.790	20.304	1082.649	847.797
17.804	19.662	1081.051	843.339
18.819	19.313	1080.176	840.882
19.834	19.210	1079.701	839.936
20.848	19.173	1078.601	838.826
21.863	18.960	1077.881	837.152
22.877	18.763	1077.351	835.707
23.892	18.805	1076.218	834.959
24.907	18.741	1075.531	834.044
25.921	18.767	1074.620	833.391
26.936	18.767	1073.096	832.132
27.950	18.874	1071.542	831.370
28.965	18.921	1070.136	830.434
29.980	19.035	1068.594	829.715
30.994	19.136	1067.900	829.588
32.009	19.155	1066.954	828.870
33.023	19.025	1066.035	827.461
34.038	19.019	1064.803	826.399
35.053	18.919	1063.593	824.908
36.067	18.891	1063.019	824.256
37.082	19.045	1061.910	824.062
38.096	19.013	1061.652	823.635
39.111	19.150	1060.930	823.658
40.126	18.860	1059.106	820.786
41.140	18.566	1057.836	818.327
42.155	18.469	1056.706	816.914
43.169	18.425	1055.619	815.792
44.184	18.308	1055.116	814.775
45.199	18.502	1053.449	814.338
46.213	18.603	1052.809	814.249
47.228	18.773	1051.939	814.311
48.242	18.779	1051.446	813.885
49.257	18.867	1050.034	813.138
50.271	18.873	1049.612	812.770
51.286	18.951	1048.657	812.324
52.301	18.881	1047.412	810.956
53.315	18.679	1046.188	808.985
54.330	18.568	1045.309	807.715
55.344	18.511	1044.803	806.980
56.359	18.753	1043.250	806.850
57.374	18.530	1042.602	805.228
58.388	18.433	1041.621	803.944
59.403	18.464	1040.800	803.387
60.417	18.445	1039.783	802.439
61.432	18.338	1039.080	801.328
62.447	18.178	1038.903	800.370
63.461	18.231	1037.266	799.288
64.476	18.341	1036.609	799.221
65.490	18.310	1035.704	798.311
66.505	18.352	1035.272	798.102
67.520	18.388	1034.572	797.660
68.534	18.418	1033.518	796.914
69.549	18.220	1033.216	795.692
70.563	18.142	1031.946	794.278
71.578	18.148	1031.371	793.796
72.593	17.955	1030.644	792.271
73.607	18.007	1029.774	791.771
74.622	18.054	1029.487	791.701
75.636	18.245	1028.431	791.701
76.651	18.164	1027.963	790.894
77.666	18.205	1027.236	790.454
78.680	18.215	1026.407	789.793
79.695	18.293	1025.775	789.600
80.709	18.312	1025.754	789.601
81.724	18.568	1024.873	790.033
82.739	18.584	1024.029	789.385
83.753	18.793	1023.705	790.025
84.768	19.194	1022.567	790.918
85.782	19.293	1021.824	790.729
86.797	19.102	1021.055	789.190
87.812	18.907	1019.857	787.299
88.826	19.004	1018.706	786.786
89.841	19.026	1018.202	786.429
90.855	19.112	1017.413	786.143
91.870	19.229	1016.401	785.823
92.884	19.191	1015.147	784.612
93.899	19.127	1014.627	783.848
94.914	19.219	1013.778	783.543
95.928	19.200	1012.840	782.661
96.943	19.106	1011.846	781.395
97.957	18.873	1011.457	779.972
98.972	19.034	1010.526	779.913
99.987	18.989	1009.798	779.077
101.001	19.084	1008.142	778.163
102.016	19.039	1007.716	777.562
103.030	19.044	1007.123	777.058
104.045	19.104	1006.187	776.535
105.060	18.861	1005.498	774.839
106.074	18.668	1004.225	772.921
107.089	18.417	1003.184	770.923
108.103	18.333	1002.281	769.784
109.118	18.444	1001.060	769.277
110.133	18.348	1000.051	768.001
111.147	18.404	999.134	767.481
112.162	18.317	998.625	766.632
113.176	18.558	998.067	767.213
114.191	18.612	997.342	766.832
115.206	18.606	996.355	765.977
116.220	18.492	995.806	764.976
117.235	18.469	994.562	763.853
118.249	18.469	993.647	763.080
119.264	18.441	993.002	762.393
120.279	18.284	991.903	760.787
121.293	18.289	990.875	759.952
122.308	18.284	990.199	759.345
123.322	18.131	989.161	757.801
124.337	18.206	988.498	757.558
125.352	18.125	987.053	756.027
126.366	18.116	985.801	754.964
127.381	18.171	984.935	754.474
128.395	18.247	984.036	754.053
129.410	18.356	983.539	754.086
130.424	18.493	982.514	753.837
131.439	18.614	981.853	753.792
132.454	18.628	981.138	753.238
133.468	18.631	980.116	752.403
134.483	18.606	979.233	751.551
135.497	18.686	978.421	751.209
136.512	18.600	978.057	750.487
137.527	18.796	976.663	750.206
138.541	18.619	976.481	749.228
139.556	18.551	976.376	748.785
140.570	18.776	975.669	749.158
141.585	18.916	974.865	749.083
142.600	18.984	973.641	748.373
143.614	19.143	972.920	748.443
144.629	19.229	972.179	748.183
145.643	19.170	971.065	747.003
146.658	18.809	970.099	744.630
147.673	18.825	968.879	743.694
148.687	18.762	967.639	742.404
149.702	18.622	966.934	741.195
150.716	18.573	965.681	739.956
151.731	18.715	965.643	740.472
152.746	18.733	964.768	739.816
153.760	18.726	964.766	739.718
154.775	18.734	963.726	738.889
155.789	18.878	963.307	739.122
156.804	19.086	961.881	738.856
157.819	19.002	961.952	738.486
158.833	19.223	961.319	738.881
159.848	19.251	960.313	738.162
160.862	19.124	959.306	736.778
161.877	18.720	958.460	734.336
162.892	18.763	956.588	733.019
163.906	18.542	955.745	731.368
164.921	18.595	955.037	730.987
165.935	18.674	954.135	730.568
166.950	18.865	953.186	730.591
167.964	18.923	952.362	730.139
168.979	18.704	951.576	728.544
169.994	18.743	950.593	727.892
171.008	18.866	950.320	728.139
172.023	19.114	949.564	728.544
173.037	19.181	948.832	728.203
174.052	19.003	948.132	726.846
175.067	18.697	947.264	724.826
176.081	18.622	946.538	723.889
177.096	18.711	946.008	723.795
178.110	18.699	945.739	723.475
179.125	18.631	945.431	722.890
180.140	18.829	944.644	723.058
181.154	18.951	944.485	723.384
182.169	19.149	943.687	723.542
183.183	19.256	942.759	723.216
184.198	19.067	942.451	722.123
185.213	19.034	941.778	721.404
186.227	19.163	940.768	721.108
187.242	19.181	940.801	721.143
188.256	19.383	940.168	721.438
189.271	19.491	938.766	720.750
190.286	19.057	937.666	718.034
191.300	18.579	936.802	715.314
192.315	18.453	936.006	714.116
193.329	18.728	935.826	715.061
194.344	18.782	934.975	714.575
195.359	18.950	934.553	714.887
196.373	19.040	933.929	714.721
197.388	19.245	934.296	715.788
198.402	19.451	933.632	716.071
199.417	19.415	932.832	715.246
200.432	19.672	932.227	715.785
201.446	19.603	931.912	715.195
202.461	19.659	931.581	715.107
203.475	19.809	930.500	714.834
204.490	19.338	930.024	712.461
205.504	19.161	929.066	710.931
206.519	19.221	927.981	710.288
207.534	19.234	927.392	709.826
208.548	19.368	926.679	709.771
209.563	19.390	926.000	709.278
210.577	19.301	925.629	708.564
211.592	19.598	925.389	709.540
212.607	19.693	924.090	708.871
213.621	19.541	923.236	707.527
214.636	19.524	922.870	707.117
215.650	19.548	922.453	706.831
216.665	19.634	921.683	706.529
217.680	19.712	920.907	706.192
218.694	19.804	920.199	705.961
219.709	19.732	919.623	705.165
220.723	19.694	918.950	704.430
221.738	19.624	918.493	703.734
222.753	19.644	917.223	702.779
223.767	19.815	917.447	703.583
224.782	19.816	916.848	703.067
225.796	19.964	916.469	703.314
226.811	19.740	915.245	701.404
227.826	19.540	914.508	699.967
228.840	19.625	913.483	699.464
229.855	19.619	913.029	699.033
230.869	19.741	912.133	698.778
231.884	19.489	911.253	697.024
232.899	19.452	910.727	696.410
233.913	19.372	909.934	695.419
234.928	19.397	909.266	694.948
235.942	19.417	908.629	694.479
236.957	19.315	908.311	693.764
237.972	19.289	907.859	693.254
238.986	19.442	906.928	693.095
240.001	19.518	906.495	693.008
241.015	19.505	906.082	692.580
242.030	19.610	905.719	692.662
243.045	19.698	904.705	692.179
244.059	19.732	904.349	691.981
245.074	19.784	903.313	691.336
246.088	19.816	903.143	691.271
247.103	19.948	902.963	691.600
248.117	20.126	902.247	691.699
249.132	20.321	902.213	692.389
250.147	20.433	901.726	692.403
251.161	20.523	900.756	691.954
252.176	20.633	900.392	692.049
253.190	20.633	899.737	691.488
254.205	20.738	898.531	690.915
255.220	20.608	898.291	690.155
256.234	20.485	897.885	689.295
257.249	20.486	896.925	688.500
258.263	20.615	895.905	688.165
259.278	20.628	895.216	687.628
260.293	20.582	895.244	687.407
261.307	20.651	894.660	687.170
262.322	20.638	893.934	686.501
263.336	20.750	892.908	686.094
264.351	20.730	892.412	685.572
265.366	20.824	891.404	685.108
266.380	20.767	891.202	684.664
267.395	20.525	890.388	683.029
268.409	20.588	889.401	682.459
269.424	20.553	888.568	681.623
270.439	20.639	887.695	681.230
271.453	20.604	886.988	680.491
272.468	20.430	887.015	679.769
273.482	20.419	886.049	678.925
274.497	20.380	885.445	678.250
275.512	20.393	884.849	677.783
276.526	20.530	884.349	677.876
277.541	20.579	883.966	677.715
278.555	20.683	883.634	677.802
279.570	20.810	882.901	677.677
280.585	20.698	882.508	676.878
281.599	20.828	880.752	675.976
282.614	20.549	880.197	674.411
283.628	20.506	879.666	673.774
284.643	20.529	879.307	673.529
285.657	20.465	878.922	672.929
286.672	20.476	878.072	672.259
287.687	20.605	877.638	672.368
288.701	20.378	877.369	671.222
289.716	20.559	876.541	671.229
290.730	20.810	875.784	671.557
291.745	20.891	874.905	671.139
292.760	20.807	874.779	670.657
293.774	20.824	874.319	670.310
294.789	20.839	873.415	669.615
295.803	20.753	872.621	668.620
296.818	20.500	871.926	667.056
297.833	20.676	870.975	666.945
298.847	20.651	870.404	666.352
299.862	20.747	870.520	666.748
300.876	20.889	869.820	666.698
301.891	20.990	869.557	666.825
302.906	21.172	868.615	666.736
303.920	21.219	868.436	666.721
304.935	21.457	867.971	667.211
305.949	21.248	866.847	665.492
306.964	21.219	866.091	664.743
307.979	20.925	866.136	663.601
308.993	21.283	865.134	664.134
310.008	21.044	864.986	663.054
311.022	21.003	864.167	662.211
312.037	20.880	863.248	660.983
313.052	20.731	862.360	659.680
314.066	20.647	861.715	658.808
315.081	20.670	861.345	658.555
316.095	20.683	860.848	658.167
317.110	20.644	860.701	657.848
318.125	20.671	859.846	657.238
319.139	20.706	859.020	656.680
320.154	20.746	858.730	656.552
321.168	20.858	858.248	656.549
322.183	20.935	857.858	656.480
323.197	20.899	857.392	655.932
324.212	20.949	856.573	655.433
325.227	20.899	855.876	654.653
326.241	20.846	855.359	654.003
327.256	20.846	854.624	653.384
328.270	20.799	854.377	652.958
329.285	20.776	853.707	652.305
330.300	20.789	852.734	651.552
331.314	20.909	852.566	651.815
332.329	21.053	852.387	652.158
333.343	21.198	851.618	652.054
334.358	21.064	851.349	651.291
335.373	21.195	851.072	651.508
336.387	21.157	850.804	651.105
337.402	21.350	850.900	651.841
338.416	21.300	850.545	651.324
339.431	21.422	849.997	651.302
340.446	21.608	849.836	651.811
341.460	21.672	849.107	651.432
342.475	21.717	848.597	651.153
343.489	21.693	848.556	650.974
344.504	21.787	848.165	650.964
345.519	21.758	847.736	650.472
346.533	21.845	846.655	649.905
347.548	21.432	846.230	647.994
348.562	21.474	845.197	647.301
349.577	21.380	844.296	646.204
350.592	21.327	843.816	645.586
351.606	21.114	843.260	644.315
352.621	21.118	842.441	643.647
353.635	21.293	842.053	643.939
354.650	21.214	841.838	643.426
355.665	21.463	840.898	643.568
356.679	21.529	840.258	643.265
357.694	21.607	839.615	643.000
358.708	21.516	839.203	642.297
359.723	21.502	838.232	641.443
360.738	21.518	837.874	641.172
361.752	21.446	837.697	640.716
362.767	21.655	836.892	640.807
363.781	21.808	836.549	641.047
364.796	21.926	836.132	641.103
365.810	21.973	835.766	640.938
366.825	22.137	835.395	641.194
367.840	22.062	834.701	640.331
368.854	21.923	834.089	639.297
369.869	21.783	834.201	638.818
370.883	21.979	833.609	639.021
371.898	22.138	833.007	639.083
372.913	22.121	832.758	638.772
373.927	22.011	832.030	637.756
374.942	21.960	831.486	637.100
375.956	22.028	831.789	637.522
376.971	22.299	830.770	637.668
377.986	22.301	830.481	637.398
379.000	22.234	830.022	636.745
380.015	22.243	829.234	636.118
381.029	22.084	828.903	635.231
382.044	22.237	828.013	635.044
383.059	22.178	827.838	634.642
384.073	22.222	826.793	633.944
385.088	22.071	825.807	632.586
386.102	21.905	825.167	631.443
387.117	22.034	824.554	631.383
388.132	21.921	824.310	630.734
389.146	21.895	824.315	630.588
390.161	22.169	823.314	630.751
391.175	22.179	822.995	630.488
392.190	21.973	822.776	629.524
393.205	22.084	822.045	629.307
394.219	22.017	821.441	628.547
395.234	21.883	821.096	627.751
396.248	21.881	820.673	627.364
397.263	21.692	820.255	626.312
398.278	21.744	819.724	626.037
399.292	21.706	819.421	625.615
400.307	21.782	818.909	625.439
401.321	21.798	818.349	625.013
402.336	21.935	817.800	625.030
403.350	22.026	817.662	625.189
404.365	22.167	817.325	625.381
405.380	22.289	816.682	625.265
406.394	22.490	816.508	625.790
407.409	22.460	816.248	625.430
408.423	22.458	815.648	624.907
409.438	22.444	815.233	624.486
410.453	22.616	815.127	624.958
411.467	22.632	814.305	624.331
412.482	22.614	814.087	624.043
413.496	22.689	813.501	623.805
414.511	22.621	813.347	623.389
415.526	22.672	812.543	622.899
416.540	22.757	811.993	622.723
417.555	22.599	811.798	621.961
418.569	22.615	811.253	621.546
419.584	22.798	810.605	621.640
420.599	22.757	810.128	621.073
421.613	160.878	1369.269	1789.793
422.628	140.040	1450.757	1789.902
