DTS Sentinel unit serial number:	SN413079Multiplexer serial number:	ORYXHardware model number:	OX4-SRSoftware version number:	ORYX F/W v4.00 Oryx Data Collector v3.7.2.0data status	okinstallation	princeton_trtdifferential loss correction	single-endedforward channel	channel 1reverse channel	N/Adate	2019/09/19time	04:50:35forward acquisition time	60.00reverse acquisition time	0.00gamma	496.2192k internal	0.2343k external	0.2343temperature offset calibration	1.0023default loss term (dB/km)	0.3790temperature slope calibration	1.0000multiplexer offset coefficient	1.0000multiplexer slope coefficient	1.0000fibre end	0.00T internal ref (°C)	19.87T ext. ref 1 (°C)	0.61T ext. ref 2 (°C)	12.88length (m)	temperature (°C)	Stokes	anti-Stokes-747.200	-200.000	0.022	0.348
-746.185	162.964	-0.183	0.257
-745.171	800.000	-0.031	-0.102
-744.156	-54.906	-0.271	-0.123
-743.142	98.765	-0.252	0.291
-742.127	800.000	0.081	-0.281
-741.112	-200.000	0.002	0.066
-740.098	496.213	-0.062	0.143
-739.083	-154.064	-0.389	0.026
-738.069	-108.252	-0.102	0.022
-737.054	19.593	0.284	0.228
-736.039	-123.986	-0.189	-0.030
-735.025	-179.275	-0.180	-0.004
-734.010	-200.000	-0.058	-0.278
-732.996	-134.895	-0.132	-0.016
-731.981	-117.017	-0.271	-0.050
-730.966	-46.513	0.342	-0.168
-729.952	71.570	-0.132	0.138
-728.937	-56.516	-0.241	-0.107
-727.923	-200.000	-0.028	0.125
-726.908	-124.216	-0.058	-0.009
-725.894	-138.253	-0.162	0.018
-724.879	-98.830	-0.124	0.032
-723.864	-200.000	-0.024	-0.252
-722.850	-57.399	-0.208	0.091
-721.835	179.319	0.133	0.195
-720.821	-109.980	-0.079	0.016
-719.806	-44.855	0.145	-0.072
-718.791	-200.000	-0.015	-0.233
-717.777	-200.000	0.045	-0.229
-716.762	-82.600	0.201	-0.065
-715.748	80.647	-0.023	-0.025
-714.733	184.377	0.020	-0.029
-713.718	-151.379	-0.094	-0.007
-712.704	800.000	0.069	0.192
-711.689	786.117	-0.119	-0.327
-710.675	54.807	0.187	0.180
-709.660	-200.000	0.017	0.202
-708.645	-83.186	-0.060	-0.019
-707.631	403.930	0.121	0.255
-706.616	-77.185	-0.314	0.110
-705.602	28.087	0.059	-0.050
-704.587	-100.453	0.294	-0.073
-703.572	-61.865	-0.059	-0.025
-702.558	-91.187	0.267	-0.076
-701.543	-192.366	-0.409	-0.004
-700.529	33.839	0.191	-0.166
-699.514	-88.189	-0.242	-0.073
-698.499	-81.797	0.189	-0.062
-697.485	-4.297	-0.140	0.097
-696.470	-77.970	-0.047	-0.016
-695.456	629.143	0.121	0.307
-694.441	800.000	0.070	-0.213
-693.426	-45.163	-0.406	0.202
-692.412	-148.604	0.444	0.036
-691.397	-200.000	0.026	0.126
-690.383	-96.887	-0.281	-0.074
-689.368	-112.540	-0.109	0.022
-688.354	800.000	-0.067	-0.200
-687.339	-200.000	-0.018	-0.226
-686.324	800.000	0.087	-0.349
-685.310	-123.165	0.187	-0.030
-684.295	560.668	0.035	0.085
-683.281	-159.785	-0.380	-0.021
-682.266	-168.541	0.183	-0.007
-681.251	182.110	0.113	0.167
-680.237	800.000	0.044	-0.128
-679.222	-65.377	-0.234	0.094
-678.208	-200.000	0.016	0.157
-677.193	-129.407	0.033	-0.005
-676.178	-153.483	-0.358	0.025
-675.164	-200.000	-0.022	0.189
-674.149	211.808	-0.145	0.229
-673.135	12.220	-0.245	-0.188
-672.120	151.084	-0.182	-0.247
-671.105	-109.335	0.294	0.062
-670.091	-44.216	0.089	-0.045
-669.076	-69.584	-0.265	-0.101
-668.062	97.370	0.160	-0.184
-667.047	724.377	-0.174	-0.463
-666.032	-54.161	0.329	0.149
-665.018	-200.000	0.021	0.234
-664.003	-81.881	-0.263	0.086
-662.989	108.125	-0.033	0.039
-661.974	430.220	-0.131	-0.284
-660.959	-26.651	-0.118	0.069
-659.945	800.000	0.003	0.013
-658.930	168.979	0.077	-0.110
-657.916	-170.130	-0.402	-0.014
-656.901	-72.334	-0.147	-0.054
-655.886	-56.566	-0.147	-0.065
-654.872	800.000	-0.098	-0.291
-653.857	-200.000	-0.008	0.216
-652.843	-16.450	0.215	0.136
-651.828	-200.000	0.023	-0.135
-650.814	-151.748	-0.303	0.022
-649.799	323.331	0.111	0.211
-648.784	-200.000	0.089	0.000
-647.770	-63.723	0.230	-0.094
-646.755	-122.043	-0.338	0.055
-645.741	32.313	-0.424	-0.365
-644.726	-112.650	0.401	-0.080
-643.711	108.973	0.338	-0.404
-642.697	37.866	-0.209	0.185
-641.682	-37.573	-0.187	0.099
-640.668	-132.446	-0.186	-0.024
-639.653	-17.796	-0.226	0.142
-638.638	28.974	0.238	0.201
-637.624	-60.949	0.125	-0.053
-636.609	258.861	-0.122	0.209
-635.595	-116.143	0.282	0.052
-634.580	800.000	0.047	-0.181
-633.565	-103.953	-0.316	0.074
-632.551	156.988	-0.178	-0.246
-631.536	-200.000	0.026	-0.362
-630.522	800.000	0.034	-0.140
-629.507	-169.527	-0.326	-0.012
-628.492	-58.503	0.254	0.110
-627.478	193.711	0.159	0.239
-626.463	27.781	0.081	-0.068
-625.449	-22.082	0.173	0.105
-624.434	-37.840	-0.099	-0.053
-623.419	-200.000	0.019	0.260
-622.405	-200.000	-0.307	-0.001
-621.390	67.673	0.130	0.133
-620.376	800.000	0.107	-0.347
-619.361	-25.887	0.065	0.038
-618.346	-130.651	0.332	0.045
-617.332	-41.654	-0.187	0.096
-616.317	14.680	0.090	-0.070
-615.303	258.174	-0.128	-0.220
-614.288	174.911	0.124	-0.179
-613.273	147.316	0.152	0.204
-612.259	-187.195	0.131	-0.002
-611.244	391.934	0.077	0.158
-610.230	17.320	-0.135	-0.107
-609.215	800.000	0.053	-0.148
-608.201	-34.793	0.312	-0.170
-607.186	35.836	-0.109	0.095
-606.171	-113.099	-0.107	0.021
-605.157	37.604	-0.058	0.051
-604.142	-107.950	0.284	-0.061
-603.128	-144.019	-0.176	0.016
-602.113	189.934	-0.120	0.180
-601.098	800.000	-0.080	0.329
-600.084	419.887	0.065	0.139
-599.069	-200.000	0.044	-0.198
-598.055	800.000	-0.061	0.182
-597.040	-139.360	-0.069	0.007
-596.025	-13.112	0.192	-0.125
-595.011	800.000	-0.039	-0.159
-593.996	-200.000	-0.012	-0.239
-592.982	-43.238	-0.302	0.152
-591.967	-200.000	-0.086	-0.459
-590.952	-43.740	-0.341	0.171
-589.938	170.917	0.148	0.211
-588.923	414.868	0.041	-0.087
-587.909	88.549	0.081	0.089
-586.894	135.009	-0.168	-0.217
-585.879	6.468	0.017	0.013
-584.865	208.491	0.116	0.181
-583.850	754.323	0.017	-0.045
-582.836	-5.699	0.268	-0.183
-581.821	26.010	-0.140	0.117
-580.806	-105.965	-0.568	-0.127
-579.792	-200.000	0.017	0.261
-578.777	-27.557	0.318	0.184
-577.763	-143.890	0.079	0.007
-576.748	-200.000	0.018	0.275
-575.733	-53.600	-0.198	0.090
-574.719	800.000	-0.053	0.169
-573.704	-71.339	-0.549	0.205
-572.690	55.704	0.095	-0.091
-571.675	504.878	0.146	0.336
-570.661	-200.000	0.002	0.059
-569.646	77.765	-0.306	-0.325
-568.631	800.000	0.038	0.111
-567.617	125.721	0.075	-0.094
-566.602	-29.753	0.276	-0.157
-565.588	175.235	0.092	-0.132
-564.573	-200.000	-0.021	0.361
-563.558	5.402	0.176	0.129
-562.544	-85.538	-0.095	0.029
-561.529	-106.546	-0.161	-0.036
-560.515	-18.050	0.363	0.226
-559.500	100.308	-0.165	-0.191
-558.485	558.017	0.043	0.104
-557.471	-200.000	0.004	0.309
-556.456	-200.000	-0.004	0.389
-555.442	800.000	0.075	0.213
-554.427	-48.064	-0.171	0.082
-553.412	412.166	0.047	-0.099
-552.398	-85.152	-0.175	-0.054
-551.383	-61.401	0.146	-0.061
-550.369	223.751	0.088	0.141
-549.354	0.738	0.011	0.008
-548.339	-44.018	0.101	0.050
-547.325	-20.542	-0.111	-0.068
-546.310	-200.000	0.021	-0.538
-545.296	-200.000	0.016	0.140
-544.281	-200.000	0.013	0.071
-543.266	93.599	-0.126	-0.142
-542.252	-200.000	0.036	0.499
-541.237	-200.000	0.024	-0.308
-540.223	-200.000	-0.017	-0.111
-539.208	158.176	-0.133	-0.183
-538.193	119.052	-0.208	-0.255
-537.179	57.046	-0.262	0.254
-536.164	-93.105	0.098	-0.027
-535.150	267.414	0.126	-0.219
-534.135	27.616	0.296	0.247
-533.121	469.534	-0.147	-0.329
-532.106	-132.443	-0.139	0.018
-531.091	-200.000	-0.076	-0.348
-530.077	602.979	0.127	-0.314
-529.062	-85.060	0.172	0.053
-528.048	-200.000	-0.038	0.174
-527.033	-200.000	0.031	-0.359
-526.018	-200.000	0.046	-0.209
-525.004	-41.129	-0.097	0.050
-523.989	-127.068	-0.126	-0.018
-522.975	151.089	0.144	-0.195
-521.960	-92.707	-0.179	-0.050
-520.945	-75.617	-0.247	-0.087
-519.931	800.000	0.046	-0.170
-518.916	290.754	0.126	0.228
-517.902	800.000	0.034	-0.117
-516.887	-62.698	0.346	0.142
-515.872	800.000	0.127	-0.365
-514.858	-98.689	-0.179	0.045
-513.843	-200.000	-0.019	-0.103
-512.829	-139.640	-0.139	0.015
-511.814	53.483	-0.367	0.349
-510.799	55.678	-0.157	0.150
-509.785	-76.623	0.298	-0.104
-508.770	-200.000	-0.027	-0.167
-507.756	-138.659	-0.578	-0.063
-506.741	-200.000	-0.015	-0.277
-505.726	-157.913	0.327	0.019
-504.712	-200.000	0.052	-0.292
-503.697	800.000	0.071	-0.229
-502.683	120.819	-0.174	0.215
-501.668	-138.858	0.044	-0.005
-500.653	49.161	-0.299	-0.279
-499.639	78.416	0.112	0.119
-498.624	194.608	-0.233	0.350
-497.610	-114.060	-0.263	-0.051
-496.595	447.137	0.088	-0.192
-495.581	75.359	-0.166	0.174
-494.566	-43.985	-0.132	-0.066
-493.551	68.159	0.223	-0.226
-492.537	160.541	0.061	0.085
-491.522	-43.718	0.196	0.098
-490.508	-91.152	0.296	-0.084
-489.493	-49.938	-0.271	-0.128
-488.478	-200.000	-0.025	0.153
-487.464	-140.432	0.316	0.033
-486.449	-200.000	0.007	-0.066
-485.435	123.778	-0.215	-0.267
-484.420	-110.224	-0.517	-0.107
-483.405	-52.318	-0.342	0.157
-482.391	-200.000	0.052	-0.260
-481.376	-36.742	0.234	-0.124
-480.362	800.000	0.043	0.144
-479.347	483.378	0.208	-0.468
-478.332	-123.463	0.309	0.049
-477.318	-200.000	0.022	0.217
-476.303	-200.000	0.000	-0.311
-475.289	-111.036	-0.332	0.068
-474.274	44.072	-0.126	0.114
-473.259	-38.256	0.139	-0.073
-472.245	42.014	-0.139	-0.125
-471.230	-40.554	-0.172	-0.088
-470.216	25.370	0.305	-0.251
-469.201	-200.000	0.025	0.154
-468.186	-92.446	0.242	-0.067
-467.172	-170.834	0.328	0.011
-466.157	-200.000	0.015	0.249
-465.143	-200.000	0.019	0.268
-464.128	324.801	0.121	0.230
-463.113	41.601	0.277	-0.248
-462.099	-200.000	0.012	-0.144
-461.084	-24.214	0.097	0.057
-460.070	-77.439	-0.309	0.106
-459.055	-52.020	0.348	-0.160
-458.040	-37.752	-0.020	0.011
-457.026	128.120	0.232	-0.293
-456.011	-152.644	0.172	-0.012
-454.997	-91.837	-0.329	-0.093
-453.982	-43.213	-0.136	0.068
-452.968	-5.431	0.181	-0.123
-451.953	352.948	0.122	-0.240
-450.938	-200.000	-0.023	-0.170
-449.924	800.000	-0.029	-0.089
-448.909	125.089	0.029	-0.037
-447.895	223.609	-0.082	0.130
-446.880	-167.142	0.314	-0.013
-445.865	2.423	-0.103	-0.074
-444.851	-63.557	-0.423	-0.172
-443.836	-160.209	0.125	0.007
-442.822	278.221	-0.234	0.413
-441.807	-193.943	0.109	0.001
-440.792	-150.579	-0.196	0.015
-439.778	800.000	0.029	0.085
-438.763	-41.846	0.080	-0.040
-437.749	116.852	0.030	0.037
-436.734	246.995	0.065	0.108
-435.719	284.511	0.188	0.335
-434.705	-114.004	0.275	0.053
-433.690	-27.043	0.138	0.080
-432.676	-113.667	-0.102	0.020
-431.661	-200.000	-0.036	0.276
-430.646	280.663	-0.124	0.219
-429.632	-35.019	0.287	0.155
-428.617	-116.615	-0.420	0.076
-427.603	163.051	0.052	0.072
-426.588	130.239	0.065	-0.083
-425.573	-153.383	-0.349	-0.024
-424.559	-168.693	-0.111	-0.004
-423.544	-200.000	-0.055	0.280
-422.530	-124.633	-0.260	0.040
-421.515	-109.073	-0.245	-0.052
-420.500	-45.463	0.345	-0.169
-419.486	-200.000	-0.002	0.107
-418.471	249.817	-0.022	0.036
-417.457	162.153	0.183	0.254
-416.442	30.408	-0.355	-0.300
-415.428	-77.052	-0.180	-0.062
-414.413	-200.000	-0.019	-0.201
-413.398	-33.847	0.091	-0.049
-412.384	-160.886	0.256	-0.013
-411.369	800.000	0.047	0.152
-410.355	-82.676	-0.260	0.083
-409.340	-200.000	-0.010	-0.072
-408.325	-5.580	-0.119	0.081
-407.311	-139.392	-0.165	-0.018
-406.296	-75.291	-0.189	-0.067
-405.282	-7.549	0.141	0.094
-404.267	300.776	-0.021	-0.039
-403.252	-154.998	0.206	-0.013
-402.238	196.014	0.315	0.473
-401.223	489.041	-0.122	-0.275
-400.209	-200.000	-0.065	-0.399
-399.194	-79.487	0.148	0.049
-398.179	90.898	0.252	-0.279
-397.165	516.857	-0.175	-0.403
-396.150	260.229	0.039	0.067
-395.136	237.615	-0.044	0.072
-394.121	800.000	0.066	-0.260
-393.106	-134.109	0.128	-0.016
-392.092	-176.484	-0.308	-0.008
-391.077	-200.000	-0.047	0.218
-390.063	-119.866	-0.118	-0.020
-389.048	-16.386	0.140	0.088
-388.033	16.133	0.086	0.067
-387.019	34.472	-0.041	-0.035
-386.004	-63.183	-0.110	-0.045
-384.990	242.650	-0.191	-0.316
-383.975	-1.815	0.274	0.190
-382.960	102.970	-0.112	-0.130
-381.946	800.000	0.085	-0.263
-380.931	322.033	-0.144	0.271
-379.917	-135.566	0.135	-0.016
-378.902	-200.000	-0.046	-0.385
-377.888	-173.860	0.228	-0.007
-376.873	-26.988	0.332	0.191
-375.858	336.359	0.085	0.162
-374.844	-99.551	-0.170	-0.042
-373.829	200.289	-0.071	-0.108
-372.815	-83.041	-0.295	-0.094
-371.800	-154.422	0.175	0.012
-370.785	115.979	0.193	0.233
-369.771	-139.558	-0.137	-0.014
-368.756	-9.519	0.017	-0.011
-367.742	800.000	-0.035	-0.144
-366.727	88.085	-0.066	0.073
-365.712	314.257	-0.088	0.163
-364.698	800.000	0.046	0.157
-363.683	-200.000	-0.050	0.248
-362.669	13.138	-0.142	0.108
-361.654	27.038	-0.196	-0.163
-360.639	276.590	0.060	0.105
-359.625	240.055	0.112	-0.183
-358.610	85.607	0.074	-0.080
-357.596	-200.000	0.013	-0.190
-356.581	-130.158	-0.178	0.024
-355.566	227.422	-0.025	-0.040
-354.552	90.732	-0.085	-0.094
-353.537	26.981	0.084	-0.070
-352.523	79.255	0.103	0.109
-351.508	800.000	-0.097	0.405
-350.493	-200.000	-0.043	0.217
-349.479	-37.183	-0.234	0.123
-348.464	-78.718	0.205	0.069
-347.450	333.127	-0.125	0.238
-346.435	800.000	-0.058	-0.190
-345.420	581.131	-0.120	-0.290
-344.406	-102.848	0.271	-0.064
-343.391	800.000	-0.045	0.195
-342.377	46.596	0.146	0.133
-341.362	-91.985	0.206	0.058
-340.348	269.464	-0.121	0.209
-339.333	-139.428	-0.107	-0.011
-338.318	138.884	-0.185	0.240
-337.304	260.360	-0.028	0.047
-336.289	-200.000	-0.038	-0.220
-335.275	-200.000	0.006	-0.224
-334.260	-41.637	0.137	0.069
-333.245	2.432	0.314	-0.224
-332.231	100.734	0.040	0.045
-331.216	176.704	-0.086	0.124
-330.202	228.643	0.244	0.392
-329.187	61.020	-0.088	0.086
-328.172	278.600	0.147	-0.258
-327.158	34.565	-0.079	-0.068
-326.143	-200.000	-0.011	-0.257
-325.129	-200.000	-0.012	0.199
-324.114	-11.037	-0.230	0.150
-323.099	64.137	-0.104	-0.103
-322.085	6.351	-0.252	-0.184
-321.070	-21.765	-0.027	-0.016
-320.056	800.000	0.024	0.093
-319.041	-42.744	-0.170	0.085
-318.026	-71.282	0.323	0.119
-317.012	-117.655	0.202	0.036
-315.997	70.129	-0.136	-0.138
-314.983	451.297	-0.120	-0.261
-313.968	323.066	-0.133	-0.250
-312.953	31.982	-0.287	0.244
-311.939	-86.619	0.091	-0.028
-310.924	92.970	0.249	0.278
-309.910	-97.905	-0.385	0.098
-308.895	188.580	0.084	0.123
-307.880	49.005	-0.060	0.056
-306.866	800.000	0.108	-0.415
-305.851	565.202	0.114	-0.271
-304.837	98.687	-0.256	-0.291
-303.822	-135.310	-0.429	0.051
-302.807	800.000	-0.044	-0.152
-301.793	239.205	-0.169	0.277
-300.778	645.904	-0.086	-0.216
-299.764	-200.000	0.068	-0.329
-298.749	-77.617	0.074	0.025
-297.735	800.000	0.032	-0.126
-296.720	155.117	0.128	-0.173
-295.705	800.000	0.097	0.311
-294.691	-200.000	0.095	0.481
-293.676	150.530	-0.225	0.301
-292.662	-155.184	-0.194	-0.012
-291.647	800.000	-0.060	0.204
-290.632	115.782	-0.015	0.018
-289.618	-22.096	-0.141	-0.084
-288.603	82.846	-0.113	0.121
-287.589	-117.639	0.336	-0.060
-286.574	192.391	0.220	-0.327
-285.559	99.876	0.228	0.260
-284.545	209.433	-0.118	-0.182
-283.530	-135.203	-0.199	-0.023
-282.516	-69.688	-0.408	0.153
-281.501	-200.000	-0.001	-0.265
-280.486	110.672	0.214	0.253
-279.472	-200.000	0.025	0.202
-278.457	18.790	0.059	-0.046
-277.443	702.333	-0.059	0.152
-276.428	-200.000	0.033	0.143
-275.413	99.121	0.197	0.224
-274.399	-36.192	-0.048	0.026
-273.384	-109.980	0.307	-0.063
-272.370	800.000	0.067	0.195
-271.355	-59.131	-0.179	-0.076
-270.340	-28.734	-0.100	-0.057
-269.326	600.641	-0.068	0.167
-268.311	18.653	-0.038	-0.030
-267.297	-200.000	-0.012	0.064
-266.282	800.000	-0.081	0.270
-265.267	-200.000	0.006	-0.215
-264.253	-32.100	0.233	0.128
-263.238	800.000	0.029	0.122
-262.224	800.000	-0.066	0.180
-261.209	-92.355	-0.224	-0.062
-260.195	-83.830	-0.176	0.055
-259.180	-53.676	-0.245	0.110
-258.165	-3.741	-0.118	-0.080
-257.151	22.452	0.295	-0.237
-256.136	800.000	-0.051	-0.147
-255.122	-18.920	-0.218	0.133
-254.107	618.517	-0.074	-0.183
-253.092	-182.037	0.112	-0.002
-252.078	-200.000	-0.035	0.223
-251.063	416.125	0.170	-0.356
-250.049	147.673	-0.099	-0.132
-249.034	162.446	-0.058	0.079
-248.019	800.000	0.038	0.111
-247.005	800.000	-0.090	0.355
-245.990	-14.955	-0.248	-0.156
-244.976	101.477	-0.255	-0.292
-243.961	-114.790	-0.170	0.032
-242.946	374.750	0.092	0.184
-241.932	-63.677	0.332	-0.134
-240.917	-200.000	0.042	0.186
-239.903	-119.370	-0.110	0.019
-238.888	-130.125	-0.294	0.039
-237.873	169.844	-0.088	-0.123
-236.859	-157.748	-0.041	0.002
-235.844	385.957	0.057	-0.116
-234.830	800.000	0.039	0.115
-233.815	-15.857	-0.174	0.109
-232.800	-104.544	0.290	0.066
-231.786	-149.365	0.376	0.029
-230.771	98.110	0.229	0.259
-229.757	230.371	0.076	-0.121
-228.742	454.157	0.051	0.110
-227.727	-41.447	-0.070	-0.035
-226.713	68.693	0.180	-0.182
-225.698	-20.527	-0.133	0.080
-224.684	420.198	0.149	-0.313
-223.669	-86.213	-0.223	-0.067
-222.655	168.501	0.079	-0.110
-221.640	-57.843	-0.096	0.041
-220.625	800.000	0.081	0.262
-219.611	-200.000	0.029	-0.216
-218.596	473.566	0.070	-0.155
-217.582	-51.359	-0.144	0.066
-216.567	251.637	0.113	-0.188
-215.552	1.629	-0.084	-0.060
-214.538	77.973	0.144	-0.151
-213.523	800.000	0.026	0.070
-212.509	44.801	-0.209	0.189
-211.494	-22.944	-0.198	0.117
-210.479	-68.657	0.145	0.055
-209.465	121.316	0.167	0.204
-208.450	563.433	-0.060	-0.144
-207.436	-168.223	0.113	-0.004
-206.421	236.920	-0.027	0.044
-205.406	-48.759	0.180	-0.085
-204.392	-78.032	-0.295	0.100
-203.377	-24.789	0.258	-0.150
-202.363	800.000	0.126	0.397
-201.348	-30.756	-0.065	-0.036
-200.333	-62.226	-0.222	-0.091
-199.319	-200.000	-0.001	-0.032
-198.304	-131.370	0.351	-0.046
-197.290	110.788	0.227	0.268
-196.275	-200.000	-0.007	-0.118
-195.260	800.000	0.065	-0.201
-194.246	-200.000	-0.034	-0.264
-193.231	800.000	-0.129	-0.489
-192.217	-0.122	0.172	0.120
-191.202	304.225	-0.043	0.079
-190.187	-111.295	0.084	-0.017
-189.173	-200.000	0.017	0.107
-188.158	-134.449	-0.192	-0.023
-187.144	40.919	0.164	-0.145
-186.129	-200.000	-0.034	0.258
-185.114	9.772	0.474	0.352
-184.100	-50.540	0.192	-0.089
-183.085	-95.996	-0.234	0.061
-182.071	-61.088	0.080	0.033
-181.056	-99.491	0.134	0.033
-180.042	156.135	-0.087	-0.118
-179.027	-87.057	0.453	0.135
-178.012	-200.000	0.042	0.219
-176.998	11.738	0.045	0.034
-175.983	-172.690	0.232	-0.007
-174.969	-200.000	0.011	0.193
-173.954	272.880	0.218	0.376
-172.939	-95.284	0.453	0.119
-171.925	-200.000	-0.063	-0.286
-170.910	-54.496	-0.146	0.065
-169.896	800.000	0.079	-0.240
-168.881	-8.368	-0.106	-0.070
-167.866	-31.766	-0.130	-0.072
-166.852	386.647	0.174	-0.351
-165.837	156.714	0.048	-0.065
-164.823	-110.846	0.210	-0.042
-163.808	-143.946	-0.295	-0.027
-162.793	36.532	0.268	0.232
-161.779	494.486	0.018	-0.039
-160.764	102.892	-0.192	0.220
-159.750	99.760	0.102	0.115
-158.735	-61.426	0.376	-0.155
-157.720	129.232	-0.105	-0.132
-156.706	122.168	0.206	0.252
-155.691	34.867	0.149	0.128
-154.677	-200.000	0.004	-0.052
-153.662	-70.691	-0.314	-0.116
-152.647	-48.363	-0.321	0.151
-151.633	-200.000	0.218	0.000
-150.618	-200.000	-0.011	-0.107
-149.604	214.300	-0.091	0.141
-148.589	-200.000	-0.001	0.223
-147.574	322.243	-0.136	0.253
-146.560	-112.457	-0.165	-0.032
-145.545	292.336	-0.135	0.240
-144.531	-200.000	0.039	0.363
-143.516	-119.586	-0.262	-0.044
-142.502	54.459	-0.057	-0.054
-141.487	-174.208	0.600	-0.017
-140.472	-146.186	-0.126	-0.011
-139.458	-78.865	0.175	0.058
-138.443	-125.960	-0.417	0.061
-137.429	-150.126	0.244	0.019
-136.414	589.233	-0.084	-0.202
-135.399	-111.206	0.317	0.064
-134.385	-45.382	0.301	0.146
-133.370	-7.008	0.418	0.278
-132.356	225.307	-0.093	-0.148
-131.341	-200.000	0.006	0.113
-130.326	-200.000	-0.061	0.320
-129.312	-122.643	0.369	0.058
-128.297	800.000	-0.034	-0.115
-127.283	82.936	-0.323	-0.343
-126.268	363.522	0.168	-0.329
-125.253	16.572	0.209	0.161
-124.239	-45.205	-0.181	0.088
-123.224	120.152	-0.126	0.153
-122.210	800.000	0.058	0.185
-121.195	-49.114	-0.348	0.163
-120.180	86.675	-0.115	-0.124
-119.166	-200.000	-0.026	0.332
-118.151	198.482	0.073	0.109
-117.137	-200.000	0.061	0.274
-116.122	-15.335	0.267	0.167
-115.107	800.000	0.075	-0.202
-114.093	800.000	-0.056	-0.200
-113.078	-74.211	0.063	0.022
-112.064	-92.604	0.134	0.037
-111.049	-122.825	-0.065	0.010
-110.034	197.670	0.101	-0.151
-109.020	234.739	0.381	-0.614
-108.005	-200.000	0.021	0.141
-106.991	17.300	0.472	0.366
-105.976	-200.000	-0.007	0.141
-104.962	317.612	0.082	0.151
-103.947	-127.023	-0.195	0.028
-102.932	-200.000	0.026	-0.116
-101.918	800.000	-0.071	0.196
-100.903	51.457	0.042	-0.039
-99.889	448.303	-0.154	-0.332
-98.874	-23.075	0.038	0.022
-97.859	-1.236	0.305	-0.211
-96.845	-200.000	0.007	-0.049
-95.830	-72.661	0.298	0.107
-94.816	24.222	-0.365	0.294
-93.801	114.053	-0.119	-0.141
-92.786	241.438	0.095	-0.155
-91.772	439.369	-0.031	-0.067
-90.757	42.821	-0.115	0.102
-89.743	-200.000	-0.007	-0.130
-88.728	-200.000	-0.046	0.213
-87.713	80.186	-0.038	0.040
-86.699	64.285	0.175	0.172
-85.684	68.196	0.253	-0.252
-84.670	800.000	0.089	0.335
-83.655	152.701	-0.155	-0.206
-82.640	-136.487	-0.100	-0.011
-81.626	800.000	0.041	-0.137
-80.611	505.241	-0.085	0.192
-79.597	-16.285	-0.104	0.064
-78.582	194.867	-0.151	-0.224
-77.567	-112.064	0.138	0.027
-76.553	-84.623	-0.172	-0.053
-75.538	-52.952	-0.223	-0.100
-74.524	-200.000	0.009	0.088
-73.509	537.345	-0.135	-0.313
-72.494	15.836	0.078	0.060
-71.480	-200.000	0.024	0.110
-70.465	9.522	0.384	-0.283
-69.451	18.716	0.244	-0.190
-68.436	92.946	0.139	-0.153
-67.422	-200.000	-0.029	-0.173
-66.407	61.359	-0.100	-0.097
-65.392	363.114	-0.084	0.164
-64.378	-48.263	0.309	-0.145
-63.363	800.000	-0.078	0.245
-62.349	20.682	-0.179	0.142
-61.334	85.829	-1.271	-1.363
-60.319	2.590	0.774	0.547
-59.305	800.000	-0.364	-1.353
-58.290	284.578	0.762	1.338
-57.276	800.000	0.302	1.193
-56.261	-200.000	137.516	638.811
-55.246	340.422	1656.440	3151.517
-54.232	135.788	2786.409	3536.838
-53.217	83.484	2160.432	2295.120
-52.203	30.422	1594.847	1328.443
-51.188	22.848	1347.319	1076.250
-50.173	20.937	1312.623	1037.131
-49.159	47.356	1388.234	1260.499
-48.144	43.086	1396.239	1241.491
-47.130	22.980	1343.905	1074.155
-46.115	20.056	1325.409	1041.774
-45.100	19.833	1319.882	1036.051
-44.086	19.720	1317.401	1033.386
-43.071	19.701	1315.186	1031.494
-42.057	19.664	1313.411	1029.842
-41.042	19.743	1311.723	1028.949
-40.027	19.772	1309.793	1027.566
-39.013	19.829	1307.799	1026.302
-37.998	19.806	1306.489	1025.093
-36.984	19.842	1304.671	1023.841
-35.969	19.834	1303.063	1022.493
-34.954	19.854	1301.831	1021.604
-33.940	19.878	1300.168	1020.395
-32.925	19.813	1299.291	1019.284
-31.911	19.982	1297.356	1018.719
-30.896	19.991	1295.837	1017.542
-29.881	19.993	1294.653	1016.583
-28.867	20.022	1292.900	1015.335
-27.852	20.039	1291.585	1014.365
-26.838	19.921	1290.663	1012.906
-25.823	19.997	1288.516	1011.625
-24.809	19.963	1287.378	1010.493
-23.794	19.993	1286.545	1009.972
-22.779	19.871	1285.292	1008.241
-21.765	19.936	1283.763	1007.378
-20.750	19.883	1282.733	1006.223
-19.736	19.859	1281.285	1004.911
-18.721	19.768	1280.723	1003.898
-17.706	19.832	1279.191	1003.031
-16.692	19.799	1278.224	1002.039
-15.677	19.826	1276.933	1001.143
-14.663	19.902	1275.266	1000.240
-13.648	19.822	1274.165	998.873
-12.633	19.877	1273.069	998.288
-11.619	19.843	1272.618	997.703
-10.604	19.935	1271.415	997.250
-9.590	19.906	1270.925	996.657
-8.575	19.732	1269.874	994.790
-7.560	19.814	1268.846	994.422
-6.546	19.811	1268.410	994.021
-5.531	19.802	1267.390	993.128
-4.517	19.821	1266.997	992.891
-3.502	19.855	1265.886	992.176
-2.487	19.813	1264.896	991.122
-1.473	19.703	1260.553	987.050
-0.458	17.904	1245.040	964.711
0.556	13.269	1229.719	926.192
1.571	9.740	1237.244	911.854
2.586	8.954	1252.842	918.767
3.600	9.231	1240.437	911.161
4.615	6.964	1169.822	847.079
5.629	2.684	1101.481	775.903
6.644	0.772	1086.065	755.429
7.659	0.483	1084.717	752.984
8.673	0.573	1083.280	752.365
9.688	0.612	1082.554	751.989
10.702	0.831	1079.300	750.750
11.717	3.531	1082.186	766.113
12.731	9.487	1090.397	801.588
13.746	15.062	1097.826	834.851
14.761	17.181	1100.248	847.198
15.775	16.488	1098.605	842.407
16.790	15.599	1096.456	836.265
17.804	14.843	1094.959	831.290
18.819	14.545	1093.632	828.727
19.834	14.333	1092.968	827.096
20.848	14.213	1091.863	825.591
21.863	13.890	1091.224	823.437
22.877	13.763	1090.183	821.949
23.892	13.638	1089.220	820.529
24.907	13.674	1089.084	820.534
25.921	13.818	1088.265	820.555
26.936	13.852	1087.347	819.957
27.950	13.705	1086.460	818.492
28.965	13.856	1085.109	818.146
29.980	13.928	1083.391	817.134
30.994	13.936	1082.887	816.721
32.009	13.929	1081.819	815.808
33.023	13.883	1080.820	814.755
34.038	13.802	1079.963	813.640
35.053	13.871	1079.175	813.315
36.067	13.910	1077.745	812.354
37.082	13.934	1076.815	811.699
38.096	13.944	1075.963	811.034
39.111	13.815	1075.692	810.127
40.126	13.828	1074.196	808.995
41.140	13.732	1072.958	807.520
42.155	13.706	1071.802	806.452
43.169	13.781	1070.835	806.020
44.184	13.715	1070.175	805.131
45.199	13.642	1069.183	803.957
46.213	13.780	1067.752	803.479
47.228	13.754	1066.549	802.376
48.242	13.740	1065.629	801.547
49.257	13.923	1064.445	801.468
50.271	13.786	1063.909	800.333
51.286	13.832	1062.667	799.548
52.301	13.868	1061.907	799.081
53.315	13.751	1061.138	797.866
54.330	13.796	1059.467	796.757
55.344	13.821	1059.061	796.502
56.359	13.759	1058.174	795.468
57.374	13.680	1057.100	794.212
58.388	13.672	1056.246	793.463
59.403	13.584	1055.742	792.589
60.417	13.709	1054.262	792.007
61.432	13.750	1053.569	791.612
62.447	13.677	1053.170	790.894
63.461	13.582	1052.592	789.939
64.476	13.762	1050.859	789.421
65.490	13.560	1050.431	788.071
66.505	13.676	1049.559	787.896
67.520	13.670	1048.942	787.336
68.534	13.724	1047.940	786.772
69.549	13.746	1047.194	786.247
70.563	13.645	1046.615	785.261
71.578	13.501	1046.064	784.099
72.593	13.621	1045.142	783.903
73.607	13.471	1044.980	783.004
74.622	13.620	1043.661	782.653
75.636	13.614	1042.954	782.024
76.651	13.484	1042.437	780.953
77.666	13.623	1041.624	780.928
78.680	13.503	1041.516	780.217
79.695	13.609	1040.569	779.934
80.709	13.541	1039.746	778.929
81.724	13.507	1039.439	778.471
82.739	13.698	1038.057	778.265
83.753	13.765	1037.277	777.926
84.768	13.984	1036.241	778.104
85.782	13.851	1035.925	777.173
86.797	13.854	1034.781	776.262
87.812	13.708	1033.946	774.885
88.826	13.856	1032.771	774.629
89.841	13.881	1031.819	773.962
90.855	13.835	1030.723	772.854
91.870	13.957	1029.918	772.750
92.884	13.864	1029.364	771.835
93.899	13.907	1028.308	771.174
94.914	13.909	1027.450	770.474
95.928	13.971	1026.549	770.017
96.943	13.846	1025.946	768.917
97.957	13.963	1024.505	768.311
98.972	13.779	1023.913	766.946
99.987	14.025	1022.675	767.089
101.001	13.787	1021.810	765.274
102.016	13.787	1021.115	764.687
103.030	13.839	1019.975	764.002
104.045	13.882	1019.481	763.762
105.060	13.823	1018.690	762.834
106.074	13.909	1017.372	762.170
107.089	13.724	1016.487	760.592
108.103	13.694	1015.539	759.678
109.118	13.842	1014.496	759.507
110.133	13.695	1013.941	758.354
111.147	13.734	1013.116	757.849
112.162	13.849	1012.160	757.591
113.176	13.774	1011.305	756.542
114.191	13.846	1010.529	756.224
115.206	13.812	1009.918	755.544
116.220	13.769	1008.987	754.587
117.235	13.839	1007.998	754.096
118.249	13.816	1006.809	753.037
119.264	13.965	1005.870	752.943
120.279	13.903	1005.335	752.197
121.293	13.889	1004.312	751.297
122.308	13.795	1003.806	750.429
123.322	13.727	1002.719	749.244
124.337	13.781	1001.520	748.524
125.352	13.806	1000.279	747.643
126.366	13.747	999.507	746.736
127.381	13.749	998.562	745.970
128.395	13.743	997.649	745.195
129.410	13.821	997.063	745.043
130.424	13.808	996.045	744.157
131.439	13.856	994.910	743.461
132.454	13.752	994.664	742.746
133.468	13.832	993.394	742.087
134.483	13.929	992.471	741.765
135.497	13.882	991.753	740.956
136.512	13.921	990.526	740.146
137.527	13.915	989.696	739.431
138.541	14.034	988.953	739.341
139.556	13.847	988.775	738.310
140.570	13.877	988.293	738.022
141.585	14.046	986.984	737.729
142.600	13.991	986.110	736.763
143.614	13.920	985.657	736.044
144.629	14.057	984.546	735.758
145.643	14.080	983.511	735.022
146.658	13.982	982.711	733.927
147.673	13.950	981.766	733.013
148.687	14.011	981.228	732.815
149.702	14.046	980.230	732.158
150.716	13.931	979.773	731.250
151.731	14.005	978.354	730.448
152.746	13.979	977.974	729.985
153.760	14.128	976.959	729.819
154.775	14.002	976.480	728.845
155.789	14.145	976.050	729.086
156.804	14.146	975.163	728.360
157.819	14.105	974.561	727.668
158.833	14.100	974.345	727.421
159.848	14.332	972.616	727.079
160.862	14.157	972.095	725.862
161.877	14.131	970.872	724.770
162.892	14.113	970.336	724.227
163.906	14.121	969.156	723.318
164.921	14.139	968.714	723.003
165.935	14.192	967.741	722.441
166.950	14.179	966.533	721.418
167.964	14.201	965.628	720.778
168.979	14.137	964.959	719.936
169.994	14.135	963.923	719.092
171.008	14.270	963.169	719.050
172.023	14.308	962.587	718.715
173.037	14.249	962.114	718.041
174.052	14.315	961.314	717.668
175.067	14.282	960.607	716.933
176.081	14.192	960.057	716.073
177.096	14.182	959.621	715.639
178.110	14.345	958.617	715.527
179.125	14.354	957.919	714.983
180.140	14.263	958.018	714.603
181.154	14.428	956.585	714.178
182.169	14.400	956.495	713.927
183.183	14.328	956.120	713.277
184.198	14.450	954.948	712.860
185.213	14.539	953.949	712.431
186.227	14.365	954.030	711.687
187.242	14.500	952.661	711.178
188.256	14.514	952.383	710.967
189.271	14.618	951.270	710.515
190.286	14.382	951.075	709.301
191.300	14.355	949.989	708.316
192.315	14.300	949.738	707.833
193.329	14.329	949.006	707.348
194.344	14.393	948.324	707.048
195.359	14.462	947.588	706.727
196.373	14.463	947.200	706.380
197.388	14.599	946.607	706.451
198.402	14.625	945.940	706.000
199.417	14.840	945.105	706.223
200.432	14.666	944.645	705.084
201.446	14.676	944.286	704.796
202.461	14.775	943.919	704.876
203.475	14.734	942.945	703.912
204.490	14.618	942.318	702.896
205.504	14.735	941.434	702.666
206.519	14.665	940.901	701.911
207.534	14.662	940.254	701.353
208.548	14.624	939.190	700.340
209.563	14.600	939.021	700.052
210.577	14.752	937.896	699.785
211.592	14.883	937.264	699.802
212.607	14.964	936.168	699.261
213.621	14.811	935.864	698.331
214.636	14.848	934.658	697.525
215.650	14.851	934.233	697.159
216.665	14.892	933.892	697.012
217.680	14.981	932.925	696.598
218.694	14.941	932.273	695.884
219.709	14.926	931.750	695.369
220.723	14.976	930.632	694.681
221.738	14.952	930.227	694.221
222.753	14.985	929.730	693.925
223.767	14.960	929.405	693.516
224.782	14.935	928.963	693.023
225.796	15.076	928.014	692.837
226.811	15.039	927.549	692.273
227.826	15.075	926.587	691.642
228.840	15.036	926.100	691.059
229.855	15.004	925.235	690.217
230.869	15.006	924.241	689.423
231.884	15.071	923.755	689.270
232.899	15.052	922.889	688.483
233.913	15.027	922.293	687.874
234.928	14.995	921.463	687.062
235.942	15.005	921.004	686.701
236.957	15.126	920.021	686.404
237.972	15.114	919.884	686.193
238.986	14.998	919.484	685.356
240.001	15.114	918.326	684.907
241.015	15.180	917.838	684.755
242.030	15.174	917.100	684.120
243.045	15.159	916.741	683.730
244.059	15.111	916.020	682.934
245.074	15.241	915.298	682.865
246.088	15.371	914.114	682.449
247.103	15.360	913.695	682.033
248.117	15.326	913.452	681.653
249.132	15.519	912.335	681.541
250.147	15.353	911.749	680.372
251.161	15.416	911.613	680.463
252.176	15.380	910.625	679.522
253.190	15.579	909.629	679.523
254.205	15.628	909.403	679.492
255.220	15.564	908.811	678.729
256.234	15.562	908.010	678.066
257.249	15.759	906.975	678.028
258.263	15.549	906.524	676.783
259.278	15.627	905.521	676.288
260.293	15.651	905.433	676.260
261.307	15.540	904.764	675.251
262.322	15.692	903.999	675.232
263.336	15.714	902.910	674.447
264.351	15.846	902.262	674.435
265.366	15.831	901.611	673.829
266.380	15.744	901.492	673.331
267.395	15.782	900.556	672.724
268.409	15.624	899.909	671.548
269.424	15.703	899.038	671.156
270.439	15.766	898.203	670.724
271.453	15.871	897.578	670.618
272.468	15.858	896.596	669.770
273.482	15.720	896.888	669.379
274.497	15.721	896.147	668.772
275.512	15.787	895.614	668.579
276.526	15.850	895.093	668.378
277.541	15.851	894.362	667.777
278.555	15.994	893.444	667.601
279.570	16.021	893.183	667.454
280.585	15.945	892.371	666.488
281.599	15.990	891.200	665.732
282.614	15.885	891.231	665.281
283.628	15.964	889.962	664.588
284.643	16.107	889.352	664.636
285.657	16.061	888.906	664.062
286.672	16.202	888.172	664.012
287.687	16.017	887.904	663.024
288.701	16.029	887.280	662.546
289.716	16.026	886.421	661.833
290.730	16.123	885.984	661.829
291.745	16.058	885.330	661.026
292.760	16.187	884.843	661.110
293.774	16.319	884.250	661.127
294.789	16.227	883.447	660.108
295.803	16.209	882.739	659.450
296.818	16.193	881.802	658.632
297.833	16.213	881.053	658.089
298.847	16.147	880.849	657.622
299.862	16.250	880.270	657.532
300.876	16.307	879.392	657.041
301.891	16.285	879.112	656.688
302.906	16.339	878.558	656.427
303.920	16.407	877.710	655.996
304.935	16.387	877.676	655.836
305.949	16.358	876.819	655.027
306.964	16.237	876.177	654.018
307.979	16.368	875.784	654.177
308.993	16.425	874.470	653.356
310.008	16.524	874.093	653.401
311.022	16.545	873.541	653.009
312.037	16.478	873.196	652.437
313.052	16.624	872.214	652.206
314.066	16.453	871.832	651.205
315.081	16.408	871.652	650.839
316.095	16.267	870.849	649.642
317.110	16.463	870.098	649.774
318.125	16.483	869.850	649.610
319.139	16.512	869.398	649.328
320.154	16.497	868.783	648.754
321.168	16.494	867.954	648.064
322.183	16.528	867.658	647.915
323.197	16.560	867.081	647.549
324.212	16.641	866.526	647.387
325.227	16.783	865.526	647.126
326.241	16.572	865.409	646.176
327.256	16.527	864.630	645.364
328.270	16.522	864.251	645.006
329.285	16.600	863.871	644.962
330.300	16.612	862.985	644.290
331.314	16.521	862.434	643.475
332.329	16.636	861.916	643.470
333.343	16.694	861.605	643.401
334.358	16.670	861.260	642.995
335.373	16.719	861.004	642.933
336.387	16.780	860.560	642.774
337.402	16.726	860.482	642.455
338.416	16.897	859.689	642.455
339.431	16.758	859.280	641.564
340.446	16.783	858.823	641.262
341.460	16.929	858.566	641.567
342.475	16.868	858.205	641.011
343.489	16.956	857.313	640.618
344.504	16.999	856.921	640.431
345.519	16.825	856.843	639.659
346.533	16.987	855.854	639.474
347.548	17.040	855.369	639.257
348.562	16.924	854.939	638.443
349.577	16.906	854.728	638.159
350.592	16.963	853.865	637.674
351.606	17.023	852.840	637.077
352.621	16.986	852.382	636.540
353.635	16.999	851.597	635.944
354.650	16.987	851.290	635.615
355.665	17.019	850.543	635.121
356.679	17.061	849.697	634.589
357.694	17.004	849.384	634.088
358.708	17.001	848.711	633.516
359.723	17.277	848.009	633.968
360.738	16.964	847.651	632.477
361.752	17.145	846.736	632.410
362.767	17.079	846.290	631.777
363.781	17.053	845.855	631.299
364.796	17.277	845.567	631.860
365.810	17.248	844.800	631.126
366.825	17.317	844.416	631.038
367.840	17.142	844.279	630.230
368.854	17.297	843.781	630.376
369.869	17.326	843.058	629.890
370.883	17.258	843.047	629.573
371.898	17.460	842.294	629.704
372.913	17.286	841.768	628.612
373.927	17.461	841.045	628.660
374.942	17.469	840.764	628.427
375.956	17.511	840.297	628.177
376.971	17.562	839.582	627.773
377.986	17.605	839.198	627.590
379.000	17.645	838.836	627.409
380.015	17.550	838.631	626.851
381.029	17.587	838.277	626.667
382.044	17.490	837.223	625.467
383.059	17.618	836.594	625.414
384.073	17.475	836.511	624.772
385.088	17.711	835.422	624.768
386.102	17.625	834.752	623.895
387.117	17.525	834.150	623.025
388.132	17.556	833.728	622.766
389.146	17.565	833.581	622.638
390.161	17.584	832.986	622.206
391.175	17.739	832.170	622.105
392.190	17.742	831.785	621.774
393.205	17.713	831.236	621.205
394.219	17.534	831.386	620.608
395.234	17.688	830.896	620.749
396.248	17.642	830.095	619.928
397.263	17.784	829.636	620.046
398.278	17.596	829.572	619.259
399.292	17.512	829.286	618.687
400.307	17.676	828.672	618.769
401.321	17.644	827.863	617.995
402.336	17.787	827.352	618.075
403.350	17.725	827.449	617.871
404.365	17.862	826.584	617.667
405.380	17.966	825.750	617.362
406.394	17.969	825.432	617.081
407.409	17.919	825.332	616.770
408.423	17.996	825.006	616.753
409.438	18.012	824.623	616.468
410.453	17.913	823.992	615.585
411.467	18.073	823.219	615.529
412.482	18.243	822.985	615.912
413.496	18.034	822.663	614.863
414.511	18.024	822.280	614.489
415.526	18.121	821.877	614.482
416.540	18.186	821.160	614.123
417.555	18.253	820.665	613.941
418.569	18.320	820.187	613.767
419.584	18.280	819.776	613.263
420.599	18.199	819.477	612.696
421.613	115.757	1302.341	1492.599
422.628	100.409	1372.627	1492.680
