DTS Sentinel unit serial number:	SN413079Multiplexer serial number:	ORYXHardware model number:	OX4-SRSoftware version number:	ORYX F/W v4.00 Oryx Data Collector v3.7.2.0data status	okinstallation	princeton_trtdifferential loss correction	single-endedforward channel	channel 1reverse channel	N/Adate	2019/09/12time	16:08:11forward acquisition time	60.00reverse acquisition time	0.00gamma	496.2192k internal	0.2299k external	0.2299temperature offset calibration	1.0086default loss term (dB/km)	0.3790temperature slope calibration	1.0000multiplexer offset coefficient	1.0000multiplexer slope coefficient	1.0000fibre end	0.00T internal ref (°C)	38.58T ext. ref 1 (°C)	2.53T ext. ref 2 (°C)	31.39length (m)	temperature (°C)	Stokes	anti-Stokes-747.200	330.014	0.045	0.089
-746.185	-200.000	0.049	0.276
-745.171	-8.993	-0.208	-0.142
-744.156	351.862	-0.174	0.351
-743.142	227.387	0.241	0.400
-742.127	-153.853	-0.111	0.008
-741.112	-123.024	-0.264	0.043
-740.098	-200.000	-0.043	0.315
-739.083	800.000	0.010	0.035
-738.069	272.497	-0.039	0.070
-737.054	800.000	0.020	0.059
-736.039	-200.000	0.013	-0.155
-735.025	-121.862	0.200	-0.034
-734.010	67.750	-0.164	0.171
-732.996	-56.349	-0.238	0.108
-731.981	662.787	0.064	-0.168
-730.966	-162.384	0.164	0.008
-729.952	-85.772	-0.189	-0.060
-728.937	-9.979	0.192	0.130
-727.923	30.268	0.030	-0.026
-726.908	-200.000	0.035	-0.248
-725.894	-26.433	-0.199	0.119
-724.879	49.110	0.065	-0.063
-723.864	-200.000	-0.039	0.310
-722.850	-66.660	0.302	-0.122
-721.835	800.000	0.053	-0.152
-720.821	-61.821	-0.102	0.044
-719.806	311.063	-0.169	0.324
-718.791	-69.203	-0.108	0.042
-717.777	388.006	-0.090	-0.191
-716.762	-60.379	-0.097	-0.042
-715.748	800.000	-0.096	0.276
-714.733	-200.000	0.040	0.329
-713.718	43.920	-0.251	0.234
-712.704	382.597	-0.209	-0.437
-711.689	31.645	0.114	-0.100
-710.675	163.270	0.083	0.118
-709.660	-200.000	-0.018	0.177
-708.645	-7.604	0.235	0.162
-707.631	658.146	0.113	0.297
-706.616	46.176	-0.187	-0.176
-705.602	647.233	0.018	-0.047
-704.587	208.431	-0.157	0.250
-703.572	800.000	0.137	0.412
-702.558	-50.874	-0.171	-0.082
-701.543	-200.000	0.046	-0.278
-700.529	142.051	-0.048	0.064
-699.514	800.000	-0.037	-0.166
-698.499	-42.228	0.173	0.090
-697.485	-200.000	0.043	-0.294
-696.470	52.994	0.114	0.111
-695.456	6.930	0.063	0.047
-694.441	-36.915	0.089	0.049
-693.426	-200.000	-0.007	0.306
-692.412	322.660	0.042	-0.082
-691.397	92.321	-0.263	-0.302
-690.383	-200.000	0.009	-0.198
-689.368	800.000	0.016	-0.058
-688.354	-70.672	0.134	-0.052
-687.339	-200.000	0.023	0.277
-686.324	1.811	0.052	-0.038
-685.310	401.146	0.234	0.500
-684.295	59.348	0.183	0.183
-683.281	-91.512	-0.341	0.099
-682.266	399.954	-0.136	-0.291
-681.251	42.342	-0.198	-0.183
-680.237	220.898	-0.199	-0.325
-679.222	-48.611	-0.067	0.033
-678.208	243.453	0.080	-0.137
-677.193	-197.441	-0.203	-0.001
-676.178	-33.425	-0.179	-0.101
-675.164	-122.746	0.262	0.043
-674.149	-83.623	-0.144	-0.047
-673.135	-200.000	-0.015	-0.241
-672.120	-200.000	-0.003	0.254
-671.105	-200.000	-0.010	-0.341
-670.091	-30.489	-0.427	-0.247
-669.076	120.523	-0.290	-0.366
-668.062	-200.000	0.070	-0.381
-667.047	-200.000	-0.070	-0.322
-666.032	-200.000	0.002	0.088
-665.018	111.917	-0.334	-0.411
-664.003	321.422	0.045	-0.088
-662.989	-200.000	-0.051	-0.406
-661.974	800.000	0.052	-0.191
-660.959	246.968	-0.093	-0.160
-659.945	-161.829	-0.038	0.002
-658.930	800.000	0.010	-0.046
-657.916	154.845	0.159	0.223
-656.901	800.000	-0.063	-0.256
-655.886	193.607	-0.167	0.257
-654.872	35.959	0.211	0.189
-653.857	11.030	-0.253	0.197
-652.843	800.000	0.048	0.141
-651.828	-105.293	-0.412	-0.096
-650.814	-167.685	-0.178	0.007
-649.799	163.392	0.156	-0.223
-648.784	-200.000	-0.001	-0.289
-647.770	117.679	0.244	0.306
-646.755	-200.000	-0.012	-0.309
-645.741	-200.000	-0.010	0.198
-644.726	94.908	0.195	0.225
-643.711	184.397	-0.070	-0.105
-642.697	43.047	-0.246	-0.228
-641.682	-145.201	-0.077	-0.007
-640.668	-9.151	0.285	0.194
-639.653	-88.443	-0.062	0.019
-638.638	-89.623	0.153	-0.046
-637.624	-200.000	0.017	0.168
-636.609	34.815	-0.189	-0.168
-635.595	630.959	0.042	-0.108
-634.580	-200.000	0.007	-0.265
-633.565	-181.894	-0.345	-0.007
-632.551	245.021	-0.195	0.333
-631.536	-110.676	-0.113	0.024
-630.522	72.398	0.138	0.146
-629.507	40.578	0.211	-0.193
-628.492	224.538	0.065	0.107
-627.478	142.421	-0.137	0.184
-626.463	423.538	0.020	-0.043
-625.449	-198.777	0.186	0.001
-624.434	800.000	-0.045	-0.138
-623.419	146.435	-0.175	0.239
-622.405	283.690	0.098	0.179
-621.390	-10.316	-0.136	0.092
-620.376	-160.536	-0.374	-0.020
-619.361	-51.856	0.321	-0.152
-618.346	219.019	0.110	0.178
-617.332	-139.582	0.244	-0.026
-616.317	-150.879	0.163	0.013
-615.303	-155.919	0.299	0.019
-614.288	-60.890	0.185	0.080
-613.273	-119.379	-0.045	0.008
-612.259	-41.273	0.075	-0.039
-611.244	59.055	0.059	-0.059
-610.230	-62.308	-0.021	-0.009
-609.215	125.121	-0.114	0.146
-608.201	-200.000	0.084	-0.383
-607.186	800.000	0.073	0.243
-606.171	-200.000	0.008	-0.236
-605.157	800.000	-0.064	-0.220
-604.142	-119.938	0.183	0.032
-603.128	-108.384	0.293	0.064
-602.113	-183.925	0.220	0.004
-601.098	25.688	-0.191	-0.162
-600.084	-56.546	0.039	0.017
-599.069	179.322	-0.179	0.265
-598.055	53.593	0.068	-0.066
-597.040	793.446	-0.237	-0.660
-596.025	-126.533	-0.222	-0.033
-595.011	-2.013	0.058	-0.041
-593.996	-154.756	0.132	-0.009
-592.982	800.000	-0.020	0.086
-591.967	-11.463	-0.051	-0.034
-590.952	276.676	0.104	-0.188
-589.938	34.643	0.140	-0.124
-588.923	-8.321	-0.246	0.168
-587.909	-200.000	0.035	0.259
-586.894	-200.000	-0.011	0.112
-585.879	648.637	-0.065	0.167
-584.865	-25.096	0.271	0.163
-583.850	800.000	-0.098	-0.312
-582.836	15.784	-0.158	-0.126
-581.821	18.736	0.124	-0.101
-580.806	-92.466	-0.174	-0.050
-579.792	-84.407	-0.360	0.115
-578.777	-200.000	0.014	-0.085
-577.763	-161.419	0.042	-0.002
-576.748	-200.000	0.033	0.274
-575.733	-2.396	0.182	0.129
-574.719	157.626	-0.245	0.344
-573.704	173.708	-0.029	-0.042
-572.690	593.381	-0.062	-0.155
-571.675	-12.622	-0.041	0.027
-570.661	-88.396	-0.141	0.043
-569.646	228.901	0.028	-0.046
-568.631	-200.000	0.026	-0.142
-567.617	124.133	-0.087	-0.110
-566.602	91.687	0.046	0.053
-565.588	-47.887	-0.147	0.072
-564.573	-135.184	0.334	0.041
-563.558	-155.880	0.526	0.034
-562.544	104.995	0.089	0.107
-561.529	74.614	-0.266	-0.283
-560.515	800.000	0.035	-0.110
-559.500	-127.245	0.142	0.021
-558.485	-48.888	-0.158	-0.077
-557.471	45.792	-0.131	0.123
-556.456	405.384	-0.017	-0.037
-555.442	78.612	-0.092	-0.100
-554.427	134.689	-0.201	0.264
-553.412	-64.875	0.214	-0.088
-552.398	-132.714	-0.137	-0.018
-551.383	-95.284	0.288	-0.078
-550.369	-171.987	0.343	-0.011
-549.354	197.123	-0.041	-0.063
-548.339	-77.122	0.157	-0.056
-547.325	55.657	0.235	-0.230
-546.310	-200.000	0.016	-0.256
-545.296	-2.174	0.329	-0.234
-544.281	-25.764	0.040	0.024
-543.266	-76.608	-0.189	0.067
-542.252	76.335	0.174	0.186
-541.237	17.431	-0.104	-0.084
-540.223	-90.426	-0.473	-0.139
-539.208	-200.000	0.009	0.198
-538.193	800.000	-0.030	0.112
-537.179	-43.901	0.258	0.131
-536.164	-122.206	0.029	0.005
-535.150	350.735	-0.097	-0.194
-534.135	95.674	0.328	0.379
-533.121	800.000	-0.069	0.302
-532.106	-79.972	-0.201	-0.068
-531.091	35.487	-0.124	-0.110
-530.077	123.869	0.175	0.223
-529.062	299.225	0.083	-0.155
-528.048	-200.000	0.016	0.223
-527.033	63.325	-0.083	0.084
-526.018	-121.411	-0.141	-0.024
-525.004	-200.000	-0.007	0.071
-523.989	-92.388	0.324	0.092
-522.975	-26.319	-0.124	-0.073
-521.960	18.889	0.198	0.160
-520.945	-64.209	0.285	-0.117
-519.931	453.948	-0.070	-0.157
-518.916	162.782	-0.124	0.176
-517.902	31.101	-0.043	0.037
-516.887	800.000	-0.015	-0.042
-515.872	-71.007	0.163	0.062
-514.858	401.404	-0.114	0.242
-513.843	-122.948	0.143	0.023
-512.829	-46.402	-0.130	-0.065
-511.814	-89.204	0.076	-0.023
-510.799	-76.605	0.307	0.109
-509.785	-166.246	-0.233	-0.010
-508.770	-53.869	-0.102	0.047
-507.756	-4.461	-0.126	0.088
-506.741	-200.000	0.004	-0.143
-505.726	800.000	-0.024	-0.096
-504.712	800.000	-0.058	-0.168
-503.697	118.504	-0.261	0.326
-502.683	-69.164	-0.370	-0.144
-501.668	-16.875	-0.233	-0.149
-500.653	-96.842	0.327	-0.087
-499.639	-200.000	0.035	-0.183
-498.624	-92.792	0.209	0.059
-497.610	379.987	0.110	0.229
-496.595	-86.715	-0.149	0.046
-495.581	-200.000	0.309	0.001
-494.566	-45.900	0.126	0.063
-493.551	-103.008	-0.504	-0.121
-492.537	714.413	-0.136	0.365
-491.522	37.001	-0.069	0.062
-490.508	800.000	-0.046	-0.129
-489.493	-94.413	-0.174	-0.048
-488.478	152.255	-0.020	0.027
-487.464	36.397	-0.121	-0.108
-486.449	-122.873	-0.060	-0.010
-485.435	66.701	0.104	-0.107
-484.420	-88.171	-0.168	0.051
-483.405	-84.521	-0.420	0.134
-482.391	595.285	0.137	0.343
-481.376	-32.239	-0.248	0.140
-480.362	177.176	-0.140	-0.206
-479.347	212.711	-0.127	-0.203
-478.332	324.628	-0.139	0.268
-477.318	-176.584	0.217	-0.006
-476.303	-20.237	0.297	-0.185
-475.289	-55.722	0.197	0.089
-474.274	-12.428	0.256	0.169
-473.259	800.000	0.121	0.529
-472.245	110.050	-0.089	-0.108
-471.230	-51.045	0.041	-0.019
-470.216	800.000	0.121	-0.364
-469.201	-200.000	0.022	0.138
-468.186	-63.576	-0.408	0.169
-467.172	499.493	-0.148	-0.344
-466.157	30.241	-0.099	-0.086
-465.143	800.000	0.028	-0.120
-464.128	161.507	-0.125	-0.177
-463.113	-200.000	-0.020	-0.274
-462.099	-200.000	0.020	0.295
-461.084	141.054	0.127	-0.170
-460.070	23.664	-0.063	0.052
-459.055	102.272	-0.170	0.201
-458.040	-200.000	0.004	-0.254
-457.026	800.000	0.160	0.460
-456.011	119.041	-0.116	0.145
-454.997	-75.718	0.175	0.063
-453.982	-100.080	-0.518	0.130
-452.968	545.704	-0.022	0.054
-451.953	-133.926	0.166	0.021
-450.938	420.139	-0.080	-0.173
-449.924	90.508	-0.045	-0.051
-448.909	33.062	0.262	0.229
-447.895	-54.676	0.274	-0.125
-446.880	-200.000	-0.071	-0.333
-445.865	176.587	0.123	-0.180
-444.851	800.000	0.059	0.248
-443.836	-106.330	0.178	0.040
-442.822	85.982	-0.196	0.217
-441.807	-88.517	-0.257	0.077
-440.792	-119.095	-0.137	0.024
-439.778	227.600	0.099	-0.162
-438.763	323.346	0.102	-0.196
-437.749	-200.000	0.006	0.161
-436.734	-116.063	-0.252	-0.047
-435.719	102.262	-0.215	0.254
-434.705	697.394	0.048	-0.126
-433.690	-33.485	0.314	0.175
-432.676	-200.000	0.061	0.271
-431.661	-13.598	0.127	-0.083
-430.646	800.000	-0.087	-0.241
-429.632	800.000	-0.047	-0.185
-428.617	-200.000	0.018	-0.108
-427.603	-91.777	0.290	-0.083
-426.588	-152.405	0.203	0.015
-425.573	-200.000	-0.069	0.363
-424.559	-53.614	0.203	0.093
-423.544	800.000	-0.014	-0.047
-422.530	-200.000	0.021	-0.104
-421.515	328.837	0.087	0.168
-420.500	47.720	0.193	-0.182
-419.486	526.095	0.105	-0.249
-418.471	-62.179	0.118	0.050
-417.457	-25.186	-0.192	-0.115
-416.442	-45.509	-0.211	-0.105
-415.428	-200.000	0.041	0.196
-414.413	-81.915	0.213	0.070
-413.398	-23.750	-0.124	-0.075
-412.384	-105.096	-0.144	0.033
-411.369	800.000	-0.036	0.141
-410.355	-200.000	0.055	0.303
-409.340	200.431	0.099	0.153
-408.325	135.502	-0.210	0.276
-407.311	30.887	0.224	-0.193
-406.296	-52.325	0.072	-0.034
-405.282	-35.004	0.090	-0.049
-404.267	132.612	-0.189	0.246
-403.252	800.000	-0.051	0.180
-402.238	800.000	-0.029	-0.122
-401.223	205.632	0.173	0.271
-400.209	26.544	-0.555	-0.467
-399.194	220.591	-0.269	-0.434
-398.179	800.000	-0.056	-0.181
-397.165	446.111	-0.052	-0.115
-396.150	177.106	-0.086	0.127
-395.136	241.504	-0.131	-0.221
-394.121	5.658	0.095	-0.071
-393.106	-200.000	0.019	-0.094
-392.092	-200.000	0.060	-0.394
-391.077	-13.107	0.259	-0.170
-390.063	12.508	-0.057	0.045
-389.048	292.405	0.141	0.259
-388.033	-114.894	0.117	-0.022
-387.019	181.263	0.122	0.180
-386.004	-16.352	0.144	0.092
-384.990	-200.000	0.026	-0.333
-383.975	-200.000	-0.009	0.127
-382.960	-118.432	-0.264	-0.047
-381.946	-68.042	-0.162	-0.064
-380.931	79.193	0.173	-0.187
-379.917	20.928	0.113	-0.092
-378.902	-200.000	0.001	-0.164
-377.888	-47.009	0.138	0.068
-376.873	3.413	-0.285	0.209
-375.858	-42.281	-0.307	0.157
-374.844	-200.000	-0.008	-0.093
-373.829	-52.890	-0.136	-0.063
-372.815	-200.000	0.020	0.310
-371.800	-101.938	0.227	-0.055
-370.785	353.846	0.139	-0.277
-369.771	-137.899	0.223	-0.025
-368.756	-156.318	-0.173	0.011
-367.742	-38.511	0.262	-0.139
-366.727	430.457	-0.005	0.011
-365.712	232.660	-0.132	-0.218
-364.698	145.843	0.081	0.110
-363.683	121.933	0.040	0.050
-362.669	-183.666	0.101	-0.002
-361.654	-44.678	-0.127	-0.064
-360.639	434.592	0.041	-0.090
-359.625	143.781	0.156	-0.209
-358.610	152.762	-0.126	0.174
-357.596	-153.431	-0.292	-0.020
-356.581	175.412	0.024	0.034
-355.566	239.741	0.136	0.227
-354.552	42.251	-0.112	-0.102
-353.537	524.639	0.122	-0.288
-352.523	-192.650	0.101	0.001
-351.508	-45.376	0.216	-0.108
-350.493	-45.350	0.377	-0.188
-349.479	-109.360	0.141	0.030
-348.464	-51.510	-0.306	-0.144
-347.450	-43.749	0.178	0.090
-346.435	32.911	0.075	0.065
-345.420	-109.494	-0.363	0.077
-344.406	-85.228	-0.394	-0.124
-343.391	60.710	0.083	0.082
-342.377	-24.494	-0.211	0.126
-341.362	119.074	-0.032	-0.040
-340.348	25.964	0.036	-0.030
-339.333	-62.316	0.147	0.062
-338.318	-151.730	0.120	-0.009
-337.304	-150.374	0.240	0.019
-336.289	168.106	-0.127	0.182
-335.275	57.385	-0.187	0.184
-334.260	138.948	0.209	0.276
-333.245	800.000	0.035	0.124
-332.231	69.740	0.070	0.073
-331.216	-20.692	0.179	0.110
-330.202	-187.634	-0.417	0.006
-329.187	1.526	-0.200	0.144
-328.172	-133.998	-0.223	0.028
-327.158	72.247	0.194	0.203
-326.143	-200.000	-0.007	-0.065
-325.129	-27.377	0.332	0.194
-324.114	11.950	-0.188	-0.145
-323.099	70.847	-0.175	0.182
-322.085	-65.961	-0.339	-0.136
-321.070	-103.052	-0.350	-0.083
-320.056	46.343	-0.228	0.212
-319.041	-119.174	0.183	-0.032
-318.026	658.553	-0.084	0.218
-317.012	32.701	-0.129	-0.112
-315.997	-13.443	-0.175	0.114
-314.983	-98.015	-0.075	-0.019
-313.968	660.330	0.049	0.125
-312.953	111.225	0.089	-0.108
-311.939	800.000	-0.072	-0.219
-310.924	129.440	-0.013	0.017
-309.910	-36.848	0.042	0.023
-308.895	119.130	-0.090	0.111
-307.880	336.876	0.179	-0.349
-306.866	78.038	-0.131	-0.140
-305.851	800.000	0.070	0.249
-304.837	-102.824	-0.247	-0.059
-303.822	-113.029	0.248	0.049
-302.807	-150.265	0.207	0.016
-301.793	-82.077	-0.292	-0.095
-300.778	800.000	0.107	0.327
-299.764	800.000	0.042	0.157
-298.749	-0.148	-0.096	-0.068
-297.735	518.259	0.034	0.080
-296.720	-48.409	0.185	-0.090
-295.705	-200.000	-0.034	-0.215
-294.691	-74.154	0.044	-0.016
-293.676	-0.724	-0.103	-0.073
-292.662	-13.363	0.140	-0.091
-291.647	158.577	0.191	0.265
-290.632	134.168	0.212	-0.276
-289.618	-88.857	0.190	0.056
-288.603	-55.351	-0.182	0.082
-287.589	-200.000	0.022	0.105
-286.574	-200.000	-0.048	-0.409
-285.559	83.341	-0.150	-0.164
-284.545	800.000	-0.083	-0.230
-283.530	626.817	-0.204	0.515
-282.516	43.426	-0.149	-0.137
-281.501	800.000	0.069	0.238
-280.486	-42.383	0.095	-0.049
-279.472	-85.990	0.157	-0.049
-278.457	-131.592	-0.322	-0.042
-277.443	28.896	0.104	-0.088
-276.428	-200.000	0.035	0.400
-275.413	-84.240	0.227	0.072
-274.399	10.906	-0.031	0.023
-273.384	-67.010	-0.038	-0.015
-272.370	-78.430	-0.207	0.071
-271.355	-86.410	0.135	-0.042
-270.340	-0.540	-0.117	0.083
-269.326	-200.000	0.001	-0.058
-268.311	-200.000	-0.008	-0.042
-267.297	144.210	0.217	0.290
-266.282	-108.942	0.238	-0.051
-265.267	800.000	0.087	-0.245
-264.253	-100.734	-0.125	-0.031
-263.238	-99.590	-0.282	-0.071
-262.224	39.432	-0.206	0.184
-261.209	275.532	-0.040	-0.072
-260.195	53.486	-0.294	-0.283
-259.180	-77.399	0.269	-0.094
-258.165	-200.000	0.032	-0.167
-257.151	732.161	-0.050	-0.135
-256.136	-122.788	-0.158	0.026
-255.122	51.264	0.118	0.112
-254.107	98.198	0.049	-0.057
-253.092	293.447	-0.080	0.146
-252.078	-90.606	0.221	0.064
-251.063	-70.836	-0.288	0.109
-250.049	-168.206	0.303	-0.012
-249.034	-38.643	-0.172	-0.091
-248.019	34.892	-0.020	-0.017
-247.005	-31.677	0.013	0.007
-245.990	274.342	0.042	0.074
-244.976	-98.436	-0.015	-0.004
-243.961	224.951	-0.115	0.186
-242.946	316.461	0.247	0.466
-241.932	-100.549	-0.262	-0.065
-240.917	-93.760	-0.306	-0.084
-239.903	800.000	0.047	-0.200
-238.888	-3.578	-0.211	0.147
-237.873	-200.000	-0.053	0.285
-236.859	-41.364	-0.153	0.079
-235.844	562.227	-0.179	-0.433
-234.830	67.175	-0.150	0.153
-233.815	58.148	0.093	-0.091
-232.800	251.583	-0.163	-0.277
-231.786	13.935	0.107	0.083
-230.771	-200.000	0.029	0.307
-229.757	120.892	0.311	-0.387
-228.742	279.049	0.019	0.035
-227.727	-200.000	-0.019	-0.095
-226.713	402.806	0.128	0.270
-225.698	22.714	0.086	0.070
-224.684	462.545	0.111	-0.248
-223.669	-102.256	-0.222	-0.053
-222.655	165.969	0.102	-0.145
-221.640	-200.000	0.024	0.254
-220.625	131.376	0.043	-0.055
-219.611	15.319	-0.252	0.198
-218.596	-200.000	0.005	0.086
-217.582	-131.506	0.285	0.038
-216.567	-200.000	-0.018	-0.342
-215.552	-173.917	0.161	-0.005
-214.538	-168.778	0.215	-0.008
-213.523	288.035	0.088	0.160
-212.509	-123.855	0.299	0.047
-211.494	800.000	-0.032	-0.138
-210.479	259.259	-0.220	-0.379
-209.465	800.000	0.088	0.254
-208.450	299.008	-0.088	0.162
-207.436	122.557	-0.171	-0.214
-206.421	-200.000	-0.001	0.026
-205.406	-67.918	0.204	0.079
-204.392	134.919	-0.184	0.239
-203.377	-200.000	-0.027	-0.251
-202.363	46.785	-0.133	-0.124
-201.348	708.706	-0.018	-0.048
-200.333	-20.441	0.067	-0.041
-199.319	-200.000	-0.073	-0.358
-198.304	-200.000	-0.010	-0.074
-197.290	-26.541	0.105	-0.061
-196.275	123.336	0.182	0.228
-195.260	-10.566	0.136	0.090
-194.246	162.440	0.092	-0.129
-193.231	800.000	-0.117	-0.361
-192.217	-102.983	-0.166	-0.039
-191.202	-90.228	0.252	-0.073
-190.187	98.200	0.131	-0.150
-189.173	-39.724	-0.096	0.050
-188.158	786.024	0.057	-0.157
-187.144	-200.000	0.009	-0.149
-186.129	-43.223	0.214	-0.108
-185.114	429.280	0.055	0.120
-184.100	-200.000	-0.011	-0.297
-183.085	-16.656	0.232	0.147
-182.071	64.025	0.034	-0.035
-181.056	-40.317	0.149	-0.078
-180.042	-200.000	0.101	0.473
-179.027	-122.551	0.216	-0.035
-178.012	-22.159	0.171	-0.103
-176.998	-4.266	-0.132	0.091
-175.983	-200.000	0.033	0.151
-174.969	19.275	0.148	0.118
-173.954	-200.000	0.005	0.163
-172.939	-200.000	0.014	-0.097
-171.925	-50.888	-0.181	0.085
-170.910	105.363	0.144	0.170
-169.896	75.484	0.128	-0.135
-168.881	98.648	-0.181	0.208
-167.866	-192.916	-0.292	-0.003
-166.852	272.256	0.090	0.159
-165.837	149.910	-0.067	0.090
-164.823	-88.575	-0.132	0.039
-163.808	-200.000	-0.273	0.001
-162.793	172.542	-0.208	-0.299
-161.779	-200.000	0.009	-0.180
-160.764	-26.747	0.441	-0.257
-159.750	-118.709	-0.212	0.037
-158.735	-200.000	0.017	-0.088
-157.720	-51.270	-0.620	0.289
-156.706	-106.837	-0.375	0.083
-155.691	-104.150	0.215	-0.050
-154.677	-200.000	0.015	-0.104
-153.662	-76.859	0.290	0.101
-152.647	-187.788	-0.284	-0.004
-151.633	-101.906	0.274	-0.066
-150.618	696.854	-0.006	-0.015
-149.604	800.000	0.117	-0.439
-148.589	719.106	0.073	-0.193
-147.574	94.462	-0.102	0.116
-146.560	-200.000	-0.017	-0.083
-145.545	-4.128	0.128	-0.088
-144.531	800.000	0.143	0.401
-143.516	-64.422	0.231	-0.094
-142.502	691.392	0.086	0.225
-141.487	174.732	-0.127	-0.184
-140.472	800.000	0.016	0.053
-139.458	336.659	-0.147	0.285
-138.443	-200.000	0.032	0.161
-137.429	-44.297	-0.220	-0.110
-136.414	62.288	-0.125	-0.125
-135.399	62.333	-0.296	-0.295
-134.385	140.376	-0.065	0.085
-133.370	4.991	-0.181	-0.133
-132.356	800.000	-0.048	-0.199
-131.341	3.623	-0.226	-0.165
-130.326	800.000	-0.068	0.256
-129.312	-67.224	0.053	-0.021
-128.297	133.747	0.141	0.182
-127.283	209.473	-0.017	0.026
-126.268	-6.207	0.089	0.060
-125.253	423.119	0.148	-0.316
-124.239	9.684	-0.307	-0.232
-123.224	-46.513	-0.357	0.174
-122.210	227.930	0.125	-0.203
-121.195	-139.839	0.297	0.031
-120.180	4.134	0.209	0.152
-119.166	24.093	-0.187	-0.154
-118.151	-200.000	0.058	0.331
-117.137	-65.007	-0.098	0.039
-116.122	800.000	-0.120	0.486
-115.107	140.397	-0.144	0.189
-114.093	84.331	0.210	-0.229
-113.078	50.590	-0.198	-0.187
-112.064	-200.000	-0.077	-0.393
-111.049	-83.400	0.149	0.048
-110.034	-180.471	0.461	0.010
-109.020	-135.157	0.219	-0.026
-108.005	-200.000	0.033	-0.174
-106.991	-91.193	-0.251	-0.072
-105.976	800.000	-0.069	0.193
-104.962	137.432	0.276	0.359
-103.947	-200.000	0.046	0.242
-102.932	-69.636	-0.220	0.084
-101.918	-200.000	-0.035	-0.233
-100.903	-116.260	-0.063	-0.012
-99.889	65.792	-0.132	0.133
-98.874	-78.528	0.180	0.061
-97.859	-139.982	-0.035	0.004
-96.845	-5.018	0.344	0.236
-95.830	-100.416	-0.251	-0.062
-94.816	-200.000	-0.011	0.091
-93.801	159.623	-0.318	-0.440
-92.786	-81.719	0.357	0.117
-91.772	385.085	0.184	0.378
-90.757	518.683	0.129	0.302
-89.743	800.000	-0.121	-0.420
-88.728	800.000	0.077	-0.308
-87.713	-115.394	-0.120	0.023
-86.699	163.842	-0.274	-0.383
-85.684	-5.734	0.078	0.053
-84.670	22.232	0.057	0.047
-83.655	142.377	-0.020	-0.026
-82.640	-200.000	0.036	0.180
-81.626	800.000	0.038	0.139
-80.611	88.868	-0.032	0.036
-79.597	25.237	-0.262	0.217
-78.582	-16.947	-0.257	-0.161
-77.567	-200.000	-0.051	0.490
-76.553	-35.134	0.234	0.127
-75.538	800.000	0.039	0.136
-74.524	-14.680	-0.289	-0.184
-73.509	630.049	0.045	-0.113
-72.494	15.989	-0.169	-0.132
-71.480	215.151	0.044	0.070
-70.465	-200.000	0.001	0.077
-69.451	82.591	-0.169	0.183
-68.436	654.455	-0.152	0.389
-67.422	-80.733	-0.438	-0.145
-66.407	305.763	0.131	0.242
-65.392	800.000	0.085	0.359
-64.378	-78.595	-0.207	-0.070
-63.363	-4.197	-0.130	0.090
-62.349	-70.764	-0.216	0.081
-61.334	17.316	-0.752	-0.593
-60.319	294.041	0.295	0.535
-59.305	449.911	-0.356	-0.780
-58.290	437.727	0.443	0.960
-57.276	710.664	0.541	1.421
-56.261	-200.000	85.921	503.920
-55.246	483.995	1370.258	3096.605
-54.232	148.450	2579.500	3459.955
-53.217	113.207	2205.487	2657.014
-52.203	49.383	1662.224	1553.053
-51.188	41.944	1396.734	1258.398
-50.173	38.506	1352.859	1197.826
-49.159	57.205	1396.117	1352.654
-48.144	62.302	1415.134	1402.673
-47.130	42.354	1372.084	1238.522
-46.115	38.631	1354.919	1200.227
-45.100	38.501	1350.226	1195.229
-44.086	38.376	1347.785	1192.261
-43.071	38.413	1344.656	1189.669
-42.057	38.458	1342.987	1188.417
-41.042	38.422	1341.498	1186.835
-40.027	38.471	1339.857	1185.636
-39.013	38.444	1337.670	1183.485
-37.998	38.348	1336.080	1181.450
-36.984	38.401	1334.781	1180.575
-35.969	38.519	1332.801	1179.492
-34.954	38.582	1330.670	1177.939
-33.940	38.581	1329.198	1176.583
-32.925	38.706	1327.622	1175.889
-31.911	38.664	1326.621	1174.704
-30.896	38.725	1324.760	1173.374
-29.881	38.769	1323.253	1172.256
-28.867	38.743	1322.041	1170.984
-27.852	38.650	1321.246	1169.677
-26.838	38.689	1319.689	1168.485
-25.823	38.666	1318.338	1167.101
-24.809	38.681	1316.464	1165.490
-23.794	38.638	1315.142	1164.015
-22.779	38.633	1313.844	1162.793
-21.765	38.716	1312.482	1162.030
-20.750	38.628	1311.162	1160.294
-19.736	38.467	1309.972	1158.243
-18.721	38.563	1308.196	1157.196
-17.706	38.471	1307.506	1155.995
-16.692	38.559	1306.267	1155.375
-15.677	38.588	1305.395	1154.725
-14.663	38.613	1303.989	1153.581
-13.648	38.562	1303.004	1152.367
-12.633	38.537	1302.036	1151.315
-11.619	38.434	1301.873	1150.521
-10.604	38.577	1300.308	1149.933
-9.590	38.550	1299.377	1148.908
-8.575	38.500	1298.490	1147.785
-7.560	38.621	1297.113	1147.230
-6.546	38.575	1296.497	1146.371
-5.531	38.500	1295.349	1144.871
-4.517	38.394	1294.944	1143.849
-3.502	38.471	1294.145	1143.547
-2.487	38.547	1292.812	1142.769
-1.473	38.446	1288.401	1138.232
-0.458	36.602	1272.511	1113.546
0.556	32.500	1252.098	1064.833
1.571	27.799	1255.227	1040.669
2.586	26.599	1270.060	1045.949
3.600	25.363	1259.357	1029.959
4.615	18.566	1183.668	931.193
5.629	7.894	1102.232	812.815
6.644	2.941	1079.824	771.397
7.659	2.633	1076.566	767.460
8.673	2.268	1075.405	764.738
9.688	2.281	1074.119	763.821
10.702	2.724	1072.916	765.110
11.717	9.217	1082.759	804.663
12.731	19.853	1098.280	869.884
13.746	25.189	1104.444	901.590
14.761	26.013	1105.098	906.187
15.775	26.060	1104.713	906.025
16.790	25.745	1104.055	903.825
17.804	25.581	1103.789	902.705
18.819	25.857	1103.053	903.404
19.834	25.966	1102.306	903.259
20.848	25.820	1102.433	902.551
21.863	25.938	1101.615	902.394
22.877	25.906	1101.041	901.685
23.892	25.881	1100.131	900.731
24.907	25.941	1099.210	900.201
25.921	25.926	1098.056	899.099
26.936	25.905	1096.615	897.734
27.950	25.797	1095.058	895.843
28.965	25.600	1093.689	893.667
29.980	25.911	1091.669	893.481
30.994	26.008	1091.162	893.464
32.009	25.850	1090.550	892.103
33.023	25.777	1088.798	890.229
34.038	25.873	1087.913	889.900
35.053	26.027	1087.305	890.084
36.067	25.889	1086.587	888.738
37.082	26.035	1085.717	888.669
38.096	26.157	1085.416	888.944
39.111	26.230	1084.458	888.442
40.126	26.121	1082.982	886.615
41.140	25.683	1081.604	883.259
42.155	25.579	1079.810	881.209
43.169	25.554	1079.283	880.576
44.184	25.582	1078.252	879.794
45.199	25.334	1077.602	877.974
46.213	25.512	1076.639	877.984
47.228	25.537	1076.180	877.654
48.242	25.810	1075.388	878.261
49.257	25.817	1074.587	877.562
50.271	25.934	1073.738	877.359
51.286	26.126	1072.308	877.045
52.301	25.976	1072.094	876.068
53.315	25.879	1071.079	874.691
54.330	25.865	1069.823	873.518
55.344	25.790	1069.593	872.891
56.359	25.684	1068.654	871.535
57.374	25.590	1067.617	870.153
58.388	25.690	1066.647	869.768
59.403	25.608	1066.012	868.779
60.417	25.599	1064.632	867.536
61.432	25.561	1064.511	867.175
62.447	25.557	1064.170	866.801
63.461	25.697	1063.152	866.572
64.476	25.543	1062.450	865.179
65.490	25.306	1061.393	863.104
66.505	25.630	1060.446	863.813
67.520	25.623	1059.659	863.062
68.534	25.413	1059.039	861.474
69.549	25.258	1057.518	859.420
70.563	25.129	1056.994	858.299
71.578	25.173	1055.972	857.602
72.593	25.021	1054.787	855.841
73.607	25.139	1054.546	856.132
74.622	25.421	1054.083	857.025
75.636	25.439	1053.443	856.517
76.651	25.232	1052.915	855.022
77.666	25.161	1052.336	854.140
78.680	25.414	1051.026	854.207
79.695	25.410	1050.782	853.912
80.709	25.556	1049.987	853.883
81.724	25.435	1049.119	852.529
82.739	25.489	1048.427	852.147
83.753	25.856	1047.881	853.367
84.768	26.252	1046.945	854.400
85.782	26.404	1045.796	854.107
86.797	26.185	1044.954	852.308
87.812	25.889	1044.639	850.578
88.826	26.059	1043.346	850.250
89.841	26.148	1042.481	849.892
90.855	26.212	1041.422	849.252
91.870	26.087	1040.646	847.957
92.884	26.099	1039.090	846.671
93.899	25.904	1038.684	845.352
94.914	26.122	1038.132	845.850
95.928	25.889	1036.825	843.621
96.943	25.681	1035.395	841.411
97.957	25.636	1033.740	839.781
98.972	25.320	1033.321	837.891
99.987	25.659	1032.798	838.973
101.001	25.816	1031.586	838.644
102.016	25.862	1030.766	838.120
103.030	25.776	1030.088	837.094
104.045	25.625	1029.184	835.582
105.060	25.407	1028.007	833.543
106.074	25.667	1027.310	834.108
107.089	25.788	1027.590	834.821
108.103	25.850	1026.212	833.916
109.118	25.551	1024.853	831.356
110.133	25.487	1024.210	830.463
111.147	25.284	1022.588	828.141
112.162	25.290	1021.680	827.358
113.176	25.535	1021.472	828.248
114.191	25.462	1020.431	826.992
115.206	25.105	1019.306	824.365
116.220	25.166	1017.881	823.421
117.235	25.195	1017.776	823.396
118.249	25.248	1016.787	822.769
119.264	25.241	1015.593	821.695
120.279	25.317	1014.872	821.387
121.293	25.300	1014.070	820.589
122.308	25.276	1013.693	820.102
123.322	25.250	1012.473	818.922
124.337	25.039	1011.408	817.029
125.352	24.525	1009.458	813.042
126.366	24.483	1008.833	812.274
127.381	25.283	1008.505	815.572
128.395	25.603	1008.610	817.043
129.410	25.854	1007.304	817.049
130.424	25.858	1006.569	816.397
131.439	25.817	1005.382	815.179
132.454	25.767	1005.027	814.591
133.468	25.741	1003.937	813.519
134.483	25.878	1003.242	813.501
135.497	25.906	1002.554	813.000
136.512	26.063	1001.469	812.755
137.527	26.034	1001.131	812.277
138.541	26.103	1000.191	811.756
139.556	26.094	999.353	810.963
140.570	26.193	998.354	810.524
141.585	26.137	997.442	809.459
142.600	26.137	996.312	808.472
143.614	26.306	995.710	808.667
144.629	26.375	994.973	808.307
145.643	26.164	993.806	806.346
146.658	26.049	992.487	804.688
147.673	25.980	991.006	803.110
148.687	25.923	989.990	801.964
149.702	25.757	989.581	800.823
150.716	25.623	988.571	799.338
151.731	25.951	987.710	800.027
152.746	26.099	987.636	800.554
153.760	26.261	986.815	800.533
154.775	26.214	985.991	799.586
155.789	26.286	984.628	798.732
156.804	26.034	984.292	797.273
157.819	26.260	983.323	797.414
158.833	26.233	982.695	796.717
159.848	26.395	981.786	796.621
160.862	26.130	980.702	794.507
161.877	26.213	979.367	793.720
162.892	26.204	978.649	793.028
163.906	26.078	977.188	791.221
164.921	26.299	975.836	791.024
165.935	26.246	974.866	789.935
166.950	26.211	974.532	789.443
167.964	26.252	973.348	788.592
168.979	25.970	972.695	786.765
169.994	25.863	971.593	785.337
171.008	26.106	971.769	786.470
172.023	26.208	970.470	785.789
173.037	26.008	969.208	783.831
174.052	25.777	968.555	782.230
175.067	26.060	967.761	782.746
176.081	25.933	967.657	782.045
177.096	25.990	966.519	781.301
178.110	25.713	965.412	779.139
179.125	25.472	964.574	777.353
180.140	25.580	964.595	777.767
181.154	25.776	964.076	778.126
182.169	25.968	963.991	778.820
183.183	26.233	963.514	779.508
184.198	26.150	962.493	778.253
185.213	26.092	961.814	777.386
186.227	26.193	960.802	776.936
187.242	26.199	960.618	776.742
188.256	26.267	959.790	776.297
189.271	26.263	959.115	775.663
190.286	25.821	958.165	772.930
191.300	25.344	956.490	769.469
192.315	24.511	954.705	764.401
193.329	24.373	954.744	763.772
194.344	25.239	955.283	767.843
195.359	25.956	955.058	770.664
196.373	26.018	954.440	770.361
197.388	25.973	953.802	769.585
198.402	26.145	953.156	769.729
199.417	26.069	952.267	768.620
200.432	25.863	951.061	766.702
201.446	25.566	951.028	765.342
202.461	25.732	949.826	765.012
203.475	24.905	947.979	759.950
204.490	24.089	946.467	755.209
205.504	24.900	947.515	759.422
206.519	25.589	946.904	761.785
207.534	25.710	946.334	761.770
208.548	26.017	946.670	763.271
209.563	25.930	945.291	761.727
210.577	25.843	944.636	760.761
211.592	26.256	944.731	762.514
212.607	26.182	943.965	761.519
213.621	26.164	943.297	760.836
214.636	26.274	942.448	760.548
215.650	26.120	941.854	759.351
216.665	26.331	941.087	759.555
217.680	26.201	939.998	758.064
218.694	25.714	939.389	755.462
219.709	25.595	938.759	754.387
220.723	25.836	938.231	754.905
221.738	26.108	937.210	755.155
222.753	25.989	936.977	754.404
223.767	26.099	936.602	754.494
224.782	26.378	936.050	755.150
225.796	26.308	935.697	754.505
226.811	25.803	933.835	750.834
227.826	25.036	932.726	746.681
228.840	25.413	931.870	747.498
229.855	25.484	930.962	746.999
230.869	24.836	930.391	743.783
231.884	25.401	930.212	745.922
232.899	26.048	930.190	748.524
233.913	26.051	929.549	747.951
234.928	25.906	929.299	747.084
235.942	25.889	928.573	746.363
236.957	25.601	927.703	744.405
237.972	25.501	927.478	743.745
238.986	25.683	926.687	743.800
240.001	25.793	926.196	743.794
241.015	25.813	925.604	743.336
242.030	26.019	925.024	743.653
243.045	26.132	924.650	743.752
244.059	26.249	924.172	743.782
245.074	26.082	923.230	742.274
246.088	25.770	922.263	740.148
247.103	26.035	921.978	740.941
248.117	26.469	922.076	742.737
249.132	26.860	921.412	743.740
250.147	26.800	921.305	743.340
251.161	26.845	920.710	742.981
252.176	26.994	920.190	743.103
253.190	27.081	919.679	742.983
254.205	27.202	918.816	742.713
255.220	27.103	918.348	741.865
256.234	26.905	917.917	740.643
257.249	26.769	916.911	739.214
258.263	26.785	916.384	738.788
259.278	26.962	915.729	738.916
260.293	26.941	915.149	738.295
261.307	26.950	914.264	737.553
262.322	26.701	913.576	735.922
263.336	25.992	911.489	731.300
264.351	25.014	909.473	725.658
265.366	25.108	909.734	726.183
266.380	26.034	910.373	730.380
267.395	26.572	909.672	731.931
268.409	26.455	909.159	730.980
269.424	26.754	908.778	731.816
270.439	26.840	908.026	731.493
271.453	26.766	907.723	730.883
272.468	26.935	907.569	731.378
273.482	26.958	906.608	730.633
274.497	26.625	905.338	728.204
275.512	26.260	904.606	726.086
276.526	26.677	904.677	727.754
277.541	26.786	904.335	727.852
278.555	26.594	903.395	726.260
279.570	26.368	902.766	724.785
280.585	26.666	902.021	725.314
281.599	26.607	901.181	724.340
282.614	26.040	899.761	720.868
283.628	25.878	899.502	719.952
284.643	26.408	898.943	721.554
285.657	25.996	897.914	719.023
286.672	25.739	897.038	717.234
287.687	26.343	897.101	719.625
288.701	26.227	896.835	718.887
289.716	26.000	895.715	717.025
290.730	25.905	895.044	716.047
291.745	25.865	893.984	714.975
292.760	26.143	893.795	715.863
293.774	26.963	894.548	719.658
294.789	27.336	894.131	720.734
295.803	27.447	893.194	720.355
296.818	27.416	892.674	719.748
297.833	27.021	891.473	717.157
298.847	26.804	890.922	715.797
299.862	27.148	890.660	716.878
300.876	27.426	890.418	717.715
301.891	27.186	889.913	716.300
302.906	26.815	888.842	713.915
303.920	26.911	888.637	714.064
304.935	27.265	888.505	715.287
305.949	27.376	887.117	714.541
306.964	26.871	886.858	712.287
307.979	27.104	886.255	712.653
308.993	27.415	886.065	713.659
310.008	27.426	885.756	713.389
311.022	26.990	884.809	710.855
312.037	27.094	883.885	710.457
313.052	26.627	882.990	707.853
314.066	25.863	881.608	703.700
315.081	25.472	880.927	701.567
316.095	26.292	881.192	704.917
317.110	26.860	880.934	706.863
318.125	25.986	879.416	702.180
319.139	25.051	877.727	697.133
320.154	25.060	876.995	696.526
321.168	25.822	878.029	700.250
322.183	26.598	877.825	703.037
323.197	26.842	877.504	703.667
324.212	26.996	877.085	703.864
325.227	27.053	876.792	703.786
326.241	26.970	875.889	702.681
327.256	26.836	875.546	701.823
328.270	26.721	874.500	700.479
329.285	26.613	873.721	699.376
330.300	26.297	873.308	697.764
331.314	26.526	872.862	698.227
332.329	26.889	872.915	699.609
333.343	27.176	872.483	700.307
334.358	27.142	871.517	699.337
335.373	27.163	871.223	699.121
336.387	27.425	871.755	700.495
337.402	27.529	871.584	700.693
338.416	27.468	871.018	699.945
339.431	27.692	870.652	700.450
340.446	27.673	870.107	699.873
341.460	27.698	869.310	699.268
342.475	27.532	869.024	698.342
343.489	27.531	868.830	698.119
344.504	27.813	868.419	698.805
345.519	27.989	867.924	699.020
346.533	28.057	867.433	698.821
347.548	27.930	866.955	697.891
348.562	27.945	866.165	697.250
349.577	28.073	865.164	696.868
350.592	28.025	864.781	696.315
351.606	27.791	864.378	695.041
352.621	27.808	863.464	694.306
353.635	27.563	863.000	692.941
354.650	27.053	861.167	689.473
355.665	26.096	859.470	684.424
356.679	26.484	859.451	685.819
357.694	26.949	858.998	687.160
358.708	26.969	858.104	686.460
359.723	27.213	858.270	687.454
360.738	27.688	857.940	688.924
361.752	27.696	857.911	688.871
362.767	27.897	857.588	689.307
363.781	28.372	856.943	690.519
364.796	28.376	856.552	690.159
365.810	28.314	856.412	689.751
366.825	28.352	855.864	689.391
367.840	28.129	854.624	687.495
368.854	27.588	853.935	684.845
369.869	27.649	853.760	684.873
370.883	27.708	853.237	684.618
371.898	27.646	852.501	683.731
372.913	27.734	852.301	683.841
373.927	27.922	851.617	683.936
374.942	27.890	851.380	683.564
375.956	28.019	851.110	683.769
376.971	28.195	850.601	683.958
377.986	28.266	850.739	684.276
379.000	28.455	849.375	683.822
380.015	28.215	848.895	682.479
381.029	28.200	848.392	681.958
382.044	28.228	848.335	681.958
383.059	28.297	847.233	681.269
384.073	28.365	846.937	681.224
385.088	28.269	846.207	680.221
386.102	28.014	845.637	678.754
387.117	27.853	845.123	677.683
388.132	27.596	843.580	675.433
389.146	27.205	842.580	673.126
390.161	27.576	842.753	674.577
391.175	27.957	842.515	675.737
392.190	27.655	841.584	673.817
393.205	26.242	839.755	667.078
394.219	24.750	837.869	660.019
395.234	24.698	837.257	659.286
396.248	26.177	839.027	666.082
397.263	27.766	839.787	672.490
398.278	27.890	839.082	672.323
399.292	27.396	838.856	670.262
400.307	27.452	838.096	669.803
401.321	27.646	837.756	670.185
402.336	28.006	837.525	671.263
403.350	28.452	837.677	672.963
404.365	28.645	837.616	673.562
405.380	28.905	837.280	674.186
406.394	29.174	836.476	674.465
407.409	28.985	835.869	673.223
408.423	28.918	835.587	672.691
409.438	28.957	835.258	672.510
410.453	29.163	834.418	672.526
411.467	29.017	834.347	671.876
412.482	28.952	833.955	671.263
413.496	29.256	833.338	671.817
414.511	28.935	833.353	670.597
415.526	29.009	832.607	670.209
416.540	28.847	831.935	669.020
417.555	28.567	831.460	667.557
418.569	28.809	830.699	667.768
419.584	28.555	830.135	666.332
420.599	28.403	829.432	665.158
421.613	101.568	1276.934	1411.928
422.628	88.022	1342.187	1412.047
