DTS Sentinel unit serial number:	SN413079Multiplexer serial number:	ORYXHardware model number:	OX4-SRSoftware version number:	ORYX F/W v4.00 Oryx Data Collector v3.7.2.0data status	okinstallation	princeton_trtdifferential loss correction	single-endedforward channel	channel 1reverse channel	N/Adate	2019/09/16time	12:26:35forward acquisition time	60.00reverse acquisition time	0.00gamma	496.2192k internal	0.2295k external	0.2295temperature offset calibration	0.9961default loss term (dB/km)	0.3790temperature slope calibration	1.0000multiplexer offset coefficient	1.0000multiplexer slope coefficient	1.0000fibre end	0.00T internal ref (°C)	39.47T ext. ref 1 (°C)	13.33T ext. ref 2 (°C)	36.73length (m)	temperature (°C)	Stokes	anti-Stokes-747.200	-11.391	-0.104	0.070
-746.185	-200.000	0.065	0.320
-745.171	-50.943	0.131	0.063
-744.156	175.959	-0.269	0.399
-743.142	70.302	0.032	-0.034
-742.127	-22.667	-0.368	0.227
-741.112	-143.934	-0.131	0.013
-740.098	429.381	-0.057	0.125
-739.083	46.377	-0.260	-0.246
-738.069	630.329	0.131	0.338
-737.054	-200.000	0.032	0.227
-736.039	359.316	-0.176	0.359
-735.025	800.000	-0.084	0.245
-734.010	495.227	-0.098	-0.231
-732.996	800.000	-0.064	0.190
-731.981	-38.750	-0.182	0.098
-730.966	-200.000	0.002	0.076
-729.952	-200.000	-0.020	-0.112
-728.937	-55.319	-0.249	-0.114
-727.923	129.058	-0.339	-0.442
-726.908	-54.209	-0.181	0.084
-725.894	56.769	-0.196	0.195
-724.879	325.121	-0.121	-0.235
-723.864	800.000	-0.065	-0.265
-722.850	162.684	0.058	-0.083
-721.835	45.886	-0.136	-0.129
-720.821	-105.631	-0.111	0.026
-719.806	-89.050	0.419	-0.126
-718.791	16.135	-0.040	-0.032
-717.777	-200.000	-0.003	-0.167
-716.762	-200.000	0.016	0.111
-715.748	800.000	-0.060	-0.254
-714.733	-110.269	0.124	0.026
-713.718	-200.000	0.043	-0.428
-712.704	322.071	-0.077	0.149
-711.689	-121.319	-0.116	-0.020
-710.675	800.000	0.043	0.143
-709.660	247.295	0.238	-0.411
-708.645	39.623	-0.076	-0.070
-707.631	800.000	0.098	0.325
-706.616	-200.000	-0.001	0.210
-705.602	800.000	-0.031	0.124
-704.587	800.000	0.083	-0.361
-703.572	92.705	0.144	0.166
-702.558	800.000	0.014	0.055
-701.543	-76.756	0.176	-0.063
-700.529	800.000	0.009	-0.036
-699.514	49.530	0.129	-0.124
-698.499	-7.874	0.297	0.205
-697.485	51.395	-0.347	0.336
-696.470	300.003	0.123	0.232
-695.456	-160.984	-0.180	0.010
-694.441	-200.000	-0.025	-0.156
-693.426	-157.133	-0.285	0.018
-692.412	-58.729	0.317	-0.140
-691.397	-87.537	-0.152	-0.047
-690.383	-59.533	0.454	-0.199
-689.368	522.483	-0.080	0.192
-688.354	-190.890	0.380	-0.004
-687.339	78.205	0.144	-0.157
-686.324	621.823	0.020	-0.051
-685.310	372.279	-0.079	0.164
-684.295	-80.634	-0.404	0.137
-683.281	-94.033	-0.065	0.018
-682.266	742.471	-0.012	0.033
-681.251	1.567	0.340	-0.250
-680.237	-200.000	-0.039	0.204
-679.222	800.000	-0.036	0.103
-678.208	800.000	0.096	-0.417
-677.193	65.185	0.076	0.078
-676.178	-22.340	-0.322	-0.199
-675.164	-85.497	0.282	-0.089
-674.149	417.345	0.106	-0.230
-673.135	757.275	0.061	-0.168
-672.120	-37.117	-0.467	0.255
-671.105	37.168	-0.136	0.123
-670.091	-68.648	-0.091	-0.036
-669.076	-200.000	-0.012	0.415
-668.062	6.330	-0.216	0.163
-667.047	-13.894	0.190	0.125
-666.032	308.586	0.106	-0.201
-665.018	45.593	-0.075	-0.071
-664.003	-13.536	-0.202	0.133
-662.989	329.566	0.154	0.303
-661.974	73.017	-0.242	-0.258
-660.959	-119.431	0.433	0.077
-659.945	236.645	0.089	0.149
-658.930	173.626	-0.261	-0.383
-657.916	358.110	0.067	0.135
-656.901	213.080	-0.105	-0.169
-655.886	-130.967	0.200	-0.027
-654.872	-200.000	-0.018	-0.186
-653.857	-200.000	-0.010	-0.069
-652.843	-178.838	-0.102	0.002
-651.828	-200.000	0.006	-0.041
-650.814	529.921	0.111	-0.267
-649.799	-200.000	-0.023	-0.322
-648.784	-200.000	-0.032	-0.293
-647.770	-200.000	-0.010	-0.174
-646.755	97.451	-0.218	-0.255
-645.741	-200.000	-0.029	-0.221
-644.726	93.682	-0.255	-0.294
-643.711	-82.793	-0.084	0.028
-642.697	-200.000	-0.006	-0.280
-641.682	151.635	-0.216	0.299
-640.668	37.360	0.238	0.215
-639.653	-190.299	-0.088	0.001
-638.638	-81.438	-0.177	0.059
-637.624	-200.000	-0.061	-0.274
-636.609	54.278	0.203	0.199
-635.595	59.779	0.102	-0.102
-634.580	78.269	-0.093	-0.101
-633.565	-200.000	-0.043	-0.464
-632.551	-8.954	-0.131	-0.089
-631.536	800.000	0.037	-0.148
-630.522	-200.000	0.014	0.137
-629.507	198.321	-0.076	0.118
-628.492	749.675	0.135	-0.372
-627.478	355.312	0.152	-0.308
-626.463	-58.723	0.237	-0.104
-625.449	-142.557	-0.192	0.019
-624.434	530.388	-0.048	-0.115
-623.419	800.000	0.031	0.110
-622.405	-186.112	-0.221	-0.003
-621.390	351.652	-0.058	-0.118
-620.376	-200.000	-0.023	-0.261
-619.361	235.974	-0.130	-0.219
-618.346	-102.677	0.148	-0.036
-617.332	-140.552	-0.454	0.048
-616.317	424.659	0.076	0.166
-615.303	395.225	-0.140	0.296
-614.288	-38.480	0.132	-0.071
-613.273	5.997	0.114	-0.086
-612.259	108.718	0.108	-0.131
-611.244	-3.616	0.081	-0.057
-610.230	177.244	0.112	-0.166
-609.215	-53.406	0.143	0.067
-608.201	99.035	0.229	-0.269
-607.186	197.010	-0.134	-0.208
-606.171	646.417	0.021	0.055
-605.157	800.000	0.094	0.318
-604.142	-96.099	-0.334	0.090
-603.128	-55.063	0.220	0.101
-602.113	-200.000	0.011	-0.224
-601.098	550.322	0.026	-0.065
-600.084	-200.000	-0.006	-0.160
-599.069	44.020	-0.105	-0.098
-598.055	-123.825	0.097	-0.016
-597.040	11.074	-0.100	-0.078
-596.025	-173.424	-0.357	0.011
-595.011	112.838	-0.146	0.180
-593.996	62.866	0.111	0.113
-592.982	407.147	0.057	-0.122
-591.967	8.638	-0.177	0.135
-590.952	-1.664	0.056	-0.040
-589.938	271.252	0.086	0.153
-588.923	512.110	0.090	0.213
-587.909	-200.000	0.011	0.072
-586.894	82.920	-0.137	0.152
-585.879	800.000	-0.047	0.146
-584.865	-122.072	0.103	0.017
-583.850	-42.944	-0.273	-0.141
-582.836	-200.000	-0.019	0.263
-581.821	149.557	0.064	-0.088
-580.806	-200.000	0.004	0.064
-579.792	234.518	-0.108	0.181
-578.777	-117.158	0.368	-0.068
-577.763	-97.744	-0.346	-0.091
-576.748	-84.074	-0.143	0.046
-575.733	-95.802	0.091	-0.025
-574.719	-25.116	-0.302	-0.182
-573.704	-66.914	0.136	-0.055
-572.690	134.619	-0.150	0.198
-571.675	209.506	-0.175	-0.279
-570.661	-200.000	0.008	-0.170
-569.646	85.063	0.110	0.122
-568.631	-189.664	0.224	0.003
-567.617	21.576	0.173	-0.143
-566.602	800.000	-0.044	-0.142
-565.588	800.000	-0.071	-0.227
-564.573	-43.264	0.134	-0.069
-563.558	262.564	0.067	-0.118
-562.544	348.532	-0.067	0.135
-561.529	-97.343	-0.110	0.029
-560.515	59.988	-0.032	-0.032
-559.500	-6.957	0.120	-0.083
-558.485	-200.000	-0.011	0.065
-557.471	800.000	-0.043	-0.181
-556.456	-104.706	-0.122	0.028
-555.442	-91.579	-0.169	0.049
-554.427	-31.666	0.272	0.155
-553.412	800.000	-0.054	0.199
-552.398	-111.393	0.377	-0.078
-551.383	-200.000	0.014	-0.277
-550.369	-103.002	-0.444	-0.107
-549.354	800.000	-0.046	-0.167
-548.339	306.691	0.137	0.260
-547.325	42.346	0.107	-0.099
-546.310	551.890	-0.079	-0.193
-545.296	139.959	0.169	-0.226
-544.281	800.000	-0.069	0.298
-543.266	-21.365	0.384	-0.238
-542.252	-200.000	0.048	-0.217
-541.237	127.927	-0.317	0.408
-540.223	-91.004	0.198	0.058
-539.208	-33.875	-0.327	-0.183
-538.193	63.065	-0.063	-0.064
-537.179	-39.090	-0.258	-0.137
-536.164	121.262	0.061	-0.077
-535.150	-13.002	0.229	-0.151
-534.135	-0.259	-0.155	0.112
-533.121	170.426	-0.099	0.144
-532.106	800.000	-0.011	0.038
-531.091	-106.799	0.237	-0.053
-530.077	-74.200	-0.311	-0.114
-529.062	800.000	-0.024	-0.081
-528.048	131.067	-0.016	-0.020
-527.033	-34.746	-0.019	-0.010
-526.018	800.000	-0.027	-0.116
-525.004	-81.357	-0.111	-0.037
-523.989	-200.000	0.077	-0.416
-522.975	-86.312	-0.008	-0.002
-521.960	120.040	-0.155	0.195
-520.945	-116.591	-0.306	-0.057
-519.931	104.804	0.103	-0.123
-518.916	-68.821	-0.071	0.028
-517.902	-200.000	0.040	0.241
-516.887	-179.631	-0.242	0.005
-515.872	7.429	-0.088	-0.066
-514.858	34.573	0.091	-0.080
-513.843	-174.149	0.133	-0.004
-512.829	144.207	0.163	-0.220
-511.814	147.000	-0.304	-0.414
-510.799	175.316	0.268	0.394
-509.785	-112.269	0.209	0.042
-508.770	-200.000	0.007	-0.288
-507.756	659.301	0.030	0.079
-506.741	-61.683	0.201	0.085
-505.726	-78.408	0.088	0.031
-504.712	-200.000	-0.027	-0.343
-503.697	800.000	-0.067	0.290
-502.683	-2.186	0.035	-0.025
-501.668	-136.840	-0.128	0.015
-500.653	-200.000	-0.060	-0.342
-499.639	-68.682	-0.299	-0.117
-498.624	90.470	-0.140	-0.158
-497.610	800.000	0.027	0.076
-496.595	300.579	0.051	-0.095
-495.581	31.275	0.053	-0.046
-494.566	-200.000	-0.057	0.441
-493.551	46.915	-0.210	-0.198
-492.537	145.409	0.081	0.109
-491.522	34.009	-0.058	0.051
-490.508	-200.000	0.011	0.090
-489.493	4.216	-0.184	-0.136
-488.478	549.465	-0.122	-0.297
-487.464	-159.178	0.285	-0.016
-486.449	-41.202	-0.241	-0.126
-485.435	-200.000	-0.040	0.235
-484.420	-200.000	-0.039	-0.320
-483.405	-173.915	-0.262	0.008
-482.391	39.560	0.312	0.283
-481.376	-200.000	-0.015	0.124
-480.362	185.784	-0.119	-0.179
-479.347	-4.951	-0.407	-0.284
-478.332	-37.065	0.302	-0.164
-477.318	-117.627	-0.094	-0.017
-476.303	-132.878	-0.092	-0.012
-475.289	53.693	0.080	0.078
-474.274	63.583	-0.222	0.226
-473.259	-82.200	-0.121	0.040
-472.245	-44.441	-0.126	-0.064
-471.230	-167.900	0.121	-0.005
-470.216	-176.033	-0.101	-0.003
-469.201	800.000	-0.080	0.247
-468.186	-106.398	-0.369	-0.083
-467.172	-200.000	-0.011	-0.143
-466.157	365.936	0.061	-0.125
-465.143	800.000	0.071	-0.277
-464.128	-121.067	-0.204	0.035
-463.113	-200.000	0.000	0.089
-462.099	779.507	0.072	-0.198
-461.084	361.211	-0.125	0.252
-460.070	-200.000	0.021	0.256
-459.055	92.726	0.179	0.205
-458.040	-126.106	0.028	0.004
-457.026	284.477	-0.041	0.075
-456.011	800.000	-0.064	-0.279
-454.997	18.630	0.210	-0.170
-453.982	0.885	-0.209	0.151
-452.968	14.224	0.202	0.159
-451.953	615.344	-0.074	-0.187
-450.938	610.107	-0.137	-0.345
-449.924	-13.312	0.073	0.048
-448.909	-165.277	-0.118	-0.005
-447.895	-108.425	-0.158	0.034
-446.880	800.000	-0.063	-0.202
-445.865	800.000	0.063	-0.204
-444.851	209.825	0.136	0.215
-443.836	-200.000	0.110	0.493
-442.822	-65.694	0.114	0.046
-441.807	800.000	-0.010	0.040
-440.792	162.660	-0.117	0.165
-439.778	128.387	0.140	-0.180
-438.763	91.359	0.168	-0.191
-437.749	-200.000	0.028	0.196
-436.734	-96.806	0.317	-0.084
-435.719	-200.000	-0.004	0.138
-434.705	-12.892	0.295	0.194
-433.690	289.435	0.154	0.282
-432.676	-3.621	0.118	-0.083
-431.661	-65.202	0.335	-0.136
-430.646	-155.893	-0.110	-0.007
-429.632	-78.901	0.231	-0.080
-428.617	-134.061	-0.299	0.037
-427.603	88.933	-0.054	0.061
-426.588	145.191	0.165	0.223
-425.573	25.749	0.236	-0.199
-424.559	84.170	-0.139	-0.153
-423.544	-88.814	-0.102	0.031
-422.530	-200.000	-0.004	-0.193
-421.515	98.731	0.193	-0.225
-420.500	-200.000	-0.002	0.071
-419.486	408.750	0.143	0.306
-418.471	-152.917	0.220	0.016
-417.457	88.649	0.068	0.076
-416.442	89.850	0.229	-0.259
-415.428	-200.000	-0.033	-0.250
-414.413	-200.000	0.030	-0.378
-413.398	-51.538	-0.310	-0.146
-412.384	45.222	-0.244	-0.227
-411.369	-138.835	-0.088	0.010
-410.355	159.212	-0.049	0.068
-409.340	-28.816	-0.379	-0.220
-408.325	84.613	0.114	0.126
-407.311	25.893	0.109	-0.092
-406.296	379.696	0.100	0.207
-405.282	128.907	-0.162	-0.208
-404.267	-200.000	-0.276	0.000
-403.252	800.000	-0.115	0.346
-402.238	313.732	-0.084	0.160
-401.223	800.000	0.062	0.223
-400.209	229.410	-0.145	0.240
-399.194	-139.622	-0.239	-0.026
-398.179	-46.032	-0.154	-0.077
-397.165	-119.663	0.178	-0.031
-396.150	71.562	0.252	0.264
-395.136	152.478	-0.092	-0.127
-394.121	81.589	-0.206	-0.224
-393.106	573.988	-0.031	-0.076
-392.092	187.812	-0.248	0.373
-391.077	-26.174	0.005	0.003
-390.063	-200.000	-0.013	0.123
-389.048	800.000	0.049	-0.200
-388.033	8.464	-0.105	0.080
-387.019	37.867	-0.078	-0.070
-386.004	-129.215	-0.090	0.013
-384.990	-182.031	0.225	0.004
-383.975	41.037	-0.219	0.199
-382.960	-200.000	-0.019	-0.156
-381.946	-129.587	0.072	0.010
-380.931	45.918	0.031	-0.029
-379.917	-113.907	0.205	0.040
-378.902	-26.307	-0.240	-0.142
-377.888	-115.768	0.170	-0.032
-376.873	54.988	0.046	0.045
-375.858	-200.000	0.037	0.241
-374.844	-200.000	-0.005	0.040
-373.829	-0.317	-0.088	0.063
-372.815	409.902	-0.072	0.153
-371.800	-200.000	0.015	0.115
-370.785	-47.199	0.123	-0.060
-369.771	-40.684	0.009	-0.005
-368.756	-13.892	-0.190	0.124
-367.742	-138.459	0.339	0.038
-366.727	-200.000	-0.028	0.374
-365.712	431.172	-0.067	0.146
-364.698	229.361	-0.198	-0.326
-363.683	36.789	0.146	-0.130
-362.669	-127.924	-0.033	0.005
-361.654	-58.821	0.538	-0.234
-360.639	-132.163	0.125	-0.016
-359.625	800.000	-0.045	-0.151
-358.610	39.292	0.106	0.096
-357.596	-200.000	-0.011	-0.207
-356.581	38.887	0.113	0.101
-355.566	144.421	0.174	-0.233
-354.552	45.249	-0.287	0.266
-353.537	686.839	-0.071	-0.186
-352.523	115.162	0.077	-0.094
-351.508	-39.899	-0.175	0.092
-350.493	166.006	-0.096	0.137
-349.479	-86.562	0.112	-0.035
-348.464	-136.732	0.164	-0.019
-347.450	69.844	0.107	0.112
-346.435	7.936	-0.097	-0.073
-345.420	58.754	-0.045	-0.045
-344.406	-154.193	0.053	-0.004
-343.391	-120.007	-0.698	-0.120
-342.377	50.867	-0.286	-0.273
-341.362	284.315	0.081	-0.147
-340.348	-144.358	-0.114	0.011
-339.333	174.732	-0.104	0.151
-338.318	-92.898	0.291	0.082
-337.304	800.000	0.072	-0.212
-336.289	800.000	0.065	0.283
-335.275	-19.975	-0.068	-0.042
-334.260	-116.036	0.148	-0.028
-333.245	623.485	0.102	-0.257
-332.231	172.641	0.107	0.155
-331.216	-200.000	0.004	-0.025
-330.202	-19.883	0.117	-0.072
-329.187	-91.498	0.184	-0.053
-328.172	-85.557	0.118	0.037
-327.158	-13.533	0.144	0.094
-326.143	-118.112	0.061	-0.011
-325.129	-200.000	0.028	0.136
-324.114	-200.000	0.004	-0.044
-323.099	-72.267	-0.217	0.081
-322.085	-200.000	-0.013	-0.062
-321.070	-53.473	0.424	0.195
-320.056	274.704	0.111	0.197
-319.041	109.605	0.147	-0.177
-318.026	112.623	0.182	-0.222
-317.012	574.183	0.021	0.053
-315.997	-68.158	0.185	-0.073
-314.983	393.287	-0.089	-0.185
-313.968	209.189	0.087	0.137
-312.953	-200.000	-0.021	-0.126
-311.939	83.985	-0.132	-0.144
-310.924	-108.765	-0.168	0.036
-309.910	-200.000	0.048	0.243
-308.895	-81.215	-0.210	0.070
-307.880	29.830	-0.258	0.221
-306.866	548.308	0.088	-0.213
-305.851	0.436	-0.252	0.181
-304.837	-200.000	0.048	-0.309
-303.822	-44.177	-0.195	0.098
-302.807	-74.952	0.179	0.064
-301.793	-134.087	0.343	0.043
-300.778	-77.014	-0.140	0.049
-299.764	-4.326	-0.103	0.071
-298.749	-200.000	-0.018	-0.163
-297.735	-120.478	0.480	-0.082
-296.720	29.873	-0.201	0.172
-295.705	-200.000	0.042	-0.293
-294.691	-140.809	0.280	-0.029
-293.676	23.991	-0.262	0.217
-292.662	-149.340	0.155	0.012
-291.647	-65.327	-0.323	-0.131
-290.632	427.495	0.171	0.370
-289.618	501.415	-0.106	0.247
-288.603	127.815	0.205	0.261
-287.589	428.727	0.096	0.208
-286.574	15.115	-0.234	-0.184
-285.559	-119.928	-0.287	-0.050
-284.545	-200.000	0.005	0.208
-283.530	165.407	0.139	0.198
-282.516	426.269	0.096	-0.208
-281.501	800.000	0.042	0.125
-280.486	95.901	0.329	0.377
-279.472	156.498	0.072	0.099
-278.457	16.956	0.121	0.096
-277.443	-136.285	-0.254	-0.030
-276.428	-200.000	-0.070	-0.355
-275.413	684.692	-0.119	-0.313
-274.399	-200.000	0.062	0.278
-273.384	-98.941	0.196	0.050
-272.370	19.883	-0.292	-0.236
-271.355	197.669	0.093	-0.142
-270.340	-200.000	-0.020	0.236
-269.326	-86.798	0.165	-0.051
-268.311	32.067	-0.225	-0.195
-267.297	-6.769	-0.131	0.089
-266.282	-81.529	0.196	0.065
-265.267	-118.000	0.160	-0.029
-264.253	267.643	-0.070	0.123
-263.238	-200.000	-0.002	-0.089
-262.224	6.268	0.132	0.098
-261.209	-44.411	0.143	-0.072
-260.195	315.960	-0.008	0.016
-259.180	-171.373	-0.052	0.002
-258.165	800.000	-0.046	-0.156
-257.151	-109.228	-0.331	-0.070
-256.136	562.664	0.066	0.160
-255.122	97.715	0.159	0.183
-254.107	-200.000	-0.030	-0.172
-253.092	478.763	-0.084	0.191
-252.078	-62.788	-0.103	0.043
-251.063	-200.000	0.024	0.228
-250.049	28.358	0.035	-0.029
-249.034	27.142	0.173	0.146
-248.019	-14.243	0.230	0.148
-247.005	-197.178	0.445	-0.003
-245.990	-200.000	-0.073	-0.368
-244.976	-200.000	0.013	-0.150
-243.961	27.886	-0.231	0.195
-242.946	-200.000	0.080	0.421
-241.932	84.492	0.173	0.189
-240.917	57.284	0.178	-0.174
-239.903	-200.000	0.008	-0.087
-238.888	-5.635	0.136	0.093
-237.873	134.385	0.070	-0.090
-236.859	82.072	0.177	0.192
-235.844	-123.770	0.427	0.068
-234.830	200.838	0.200	0.308
-233.815	-119.949	-0.393	-0.068
-232.800	-144.860	-0.347	-0.032
-231.786	-57.696	0.450	-0.197
-230.771	-4.756	0.081	0.056
-229.757	-111.856	-0.376	-0.076
-228.742	78.299	-0.224	0.240
-227.727	161.868	0.150	0.210
-226.713	-138.683	-0.209	-0.023
-225.698	84.311	-0.054	0.059
-224.684	-40.600	-0.040	-0.021
-223.669	-200.000	0.002	0.420
-222.655	167.589	0.203	0.289
-221.640	-62.637	-0.209	-0.087
-220.625	-16.261	-0.142	0.090
-219.611	-105.122	-0.590	-0.135
-218.596	-23.629	-0.273	0.164
-217.582	477.645	0.035	0.079
-216.567	-103.935	-0.238	0.056
-215.552	168.476	0.172	0.245
-214.538	-78.556	-0.304	0.104
-213.523	-200.000	0.001	0.294
-212.509	52.924	0.141	-0.135
-211.494	50.129	-0.199	-0.188
-210.479	313.554	0.111	-0.208
-209.465	-46.584	0.173	-0.085
-208.450	-40.831	-0.129	-0.067
-207.436	-200.000	-0.059	0.316
-206.421	103.309	-0.066	-0.078
-205.406	-200.000	-0.034	0.162
-204.392	139.172	0.123	0.162
-203.377	-109.493	-0.185	0.039
-202.363	-4.721	0.036	0.025
-201.348	-184.639	0.188	-0.003
-200.333	-200.000	0.033	0.184
-199.319	-48.978	-0.114	0.054
-198.304	-200.000	-0.010	0.386
-197.290	-200.000	0.024	-0.342
-196.275	282.850	0.113	0.202
-195.260	-122.376	-0.192	0.031
-194.246	385.975	-0.155	-0.319
-193.231	-12.498	-0.171	-0.112
-192.217	-109.261	0.106	-0.022
-191.202	-200.000	-0.008	0.088
-190.187	258.838	0.078	-0.135
-189.173	46.238	0.083	0.076
-188.158	-65.446	0.163	0.066
-187.144	800.000	0.051	-0.143
-186.129	-87.580	0.371	0.112
-185.114	800.000	-0.035	-0.141
-184.100	-200.000	0.012	-0.120
-183.085	-165.768	0.436	-0.019
-182.071	142.562	0.203	0.269
-181.056	53.495	0.231	0.222
-180.042	-200.000	-0.044	0.211
-179.027	-71.927	-0.185	-0.069
-178.012	-136.426	0.278	-0.032
-176.998	800.000	-0.092	0.309
-175.983	800.000	0.094	0.287
-174.969	-200.000	0.021	-0.146
-173.954	409.567	0.162	0.344
-172.939	36.306	-0.154	0.136
-171.925	-69.226	0.190	0.073
-170.910	-129.921	0.183	0.025
-169.896	-99.569	0.331	0.083
-168.881	34.094	-0.135	0.118
-167.866	44.301	-0.067	0.061
-166.852	800.000	-0.054	-0.224
-165.837	1.554	-0.080	0.057
-164.823	166.985	0.142	0.201
-163.808	347.635	-0.123	0.242
-162.793	800.000	0.044	0.188
-161.779	-76.464	0.172	-0.061
-160.764	-81.566	0.155	0.051
-159.750	-168.300	0.012	-0.000
-158.735	29.618	0.193	0.164
-157.720	2.678	-0.209	0.151
-156.706	-72.640	0.175	-0.064
-155.691	800.000	-0.033	-0.113
-154.677	104.317	0.286	-0.337
-153.662	-43.900	-0.174	0.088
-152.647	-147.886	0.169	0.014
-151.633	800.000	-0.048	0.157
-150.618	175.354	-0.132	0.191
-149.604	-2.692	-0.059	-0.041
-148.589	-200.000	-0.057	0.268
-147.574	549.555	0.053	0.128
-146.560	-14.664	-0.085	0.055
-145.545	24.861	0.154	0.127
-144.531	-200.000	-0.052	0.319
-143.516	-200.000	-0.036	0.257
-142.502	100.443	0.210	0.243
-141.487	-16.410	-0.206	0.131
-140.472	-123.035	0.090	0.015
-139.458	-200.000	0.056	-0.272
-138.443	800.000	0.073	-0.210
-137.429	-79.884	0.117	-0.039
-136.414	248.440	0.050	0.085
-135.399	121.681	-0.241	0.300
-134.385	80.686	0.439	0.473
-133.370	11.774	-0.258	0.197
-132.356	33.834	0.178	-0.155
-131.341	-200.000	0.030	-0.171
-130.326	-76.076	-0.167	0.059
-129.312	-104.318	0.089	-0.021
-128.297	-116.893	0.188	-0.034
-127.283	77.838	-0.126	0.134
-126.268	16.624	0.328	0.259
-125.253	69.505	-0.197	-0.202
-124.239	92.781	0.098	0.110
-123.224	-69.975	-0.188	0.071
-122.210	800.000	-0.039	0.120
-121.195	197.284	0.073	-0.110
-120.180	102.296	0.126	0.147
-119.166	-77.797	0.237	0.082
-118.151	283.615	0.067	-0.119
-117.137	15.464	-0.158	-0.124
-116.122	-200.000	0.019	0.377
-115.107	23.268	-0.094	-0.077
-114.093	-149.333	-0.345	0.027
-113.078	-200.000	0.041	0.258
-112.064	800.000	0.029	0.090
-111.049	-3.398	-0.349	-0.243
-110.034	-29.687	0.131	-0.074
-109.020	-82.227	-0.264	-0.086
-108.005	800.000	-0.040	0.125
-106.991	109.720	0.078	-0.094
-105.976	800.000	-0.073	-0.221
-104.962	164.414	-0.110	0.155
-103.947	-73.505	0.427	0.155
-102.932	-131.995	0.135	0.018
-101.918	-200.000	-0.020	-0.128
-100.903	-33.310	0.058	-0.032
-99.889	-200.000	-0.009	0.215
-98.874	-104.777	0.341	-0.078
-97.859	30.646	0.113	-0.096
-96.845	-200.000	0.010	-0.075
-95.830	-75.825	-0.128	-0.045
-94.816	-3.627	-0.115	-0.080
-93.801	159.191	-0.392	-0.543
-92.786	800.000	-0.007	0.024
-91.772	-81.511	0.267	-0.087
-90.757	21.658	0.195	-0.158
-89.743	35.104	0.211	-0.184
-88.728	129.660	0.149	-0.190
-87.713	-200.000	-0.022	0.127
-86.699	800.000	0.035	0.142
-85.684	205.154	-0.166	0.257
-84.670	-49.007	0.384	-0.183
-83.655	-20.197	0.193	0.118
-82.640	65.916	-0.220	0.222
-81.626	-159.503	0.039	-0.002
-80.611	-200.000	0.024	0.171
-79.597	117.593	0.066	-0.081
-78.582	104.768	-0.126	0.148
-77.567	800.000	-0.068	-0.199
-76.553	-104.047	0.437	0.101
-75.538	180.133	0.134	-0.195
-74.524	33.078	-0.116	0.100
-73.509	800.000	-0.060	-0.214
-72.494	-96.506	-0.071	0.019
-71.480	800.000	0.033	0.136
-70.465	-132.636	0.164	0.021
-69.451	-200.000	-0.017	-0.092
-68.436	-138.760	-0.307	0.033
-67.422	-128.103	0.277	0.039
-66.407	-132.322	0.186	0.024
-65.392	78.809	0.113	-0.120
-64.378	3.684	-0.071	0.052
-63.363	-53.056	0.184	0.084
-62.349	17.189	0.237	0.187
-61.334	14.658	-0.726	-0.564
-60.319	-91.434	0.162	0.046
-59.305	800.000	-0.265	-0.980
-58.290	374.770	0.372	0.754
-57.276	800.000	0.451	1.496
-56.261	-200.000	78.120	509.497
-55.246	491.737	1352.349	3082.029
-54.232	143.412	2595.873	3438.897
-53.217	112.187	2259.310	2717.521
-52.203	50.541	1707.733	1607.271
-51.188	42.865	1435.155	1301.307
-50.173	39.582	1390.305	1239.977
-49.159	57.279	1427.822	1386.336
-48.144	62.858	1446.579	1439.950
-47.130	43.378	1407.886	1279.632
-46.115	39.560	1391.207	1240.448
-45.100	39.339	1386.386	1234.715
-44.086	39.247	1384.343	1232.268
-43.071	39.297	1381.508	1230.011
-42.057	39.258	1378.942	1227.434
-41.042	39.347	1377.447	1226.606
-40.027	39.402	1376.300	1225.880
-39.013	39.361	1373.884	1223.427
-37.998	39.315	1372.507	1221.866
-36.984	39.349	1370.915	1220.610
-35.969	39.410	1368.451	1218.746
-34.954	39.486	1366.723	1217.625
-33.940	39.587	1364.814	1216.500
-32.925	39.539	1364.358	1215.753
-31.911	39.635	1362.662	1214.785
-30.896	39.627	1361.185	1213.370
-29.881	39.587	1360.200	1212.195
-28.867	39.655	1357.807	1210.431
-27.852	39.709	1356.110	1209.207
-26.838	39.681	1354.483	1207.532
-25.823	39.589	1353.392	1205.949
-24.809	39.465	1352.147	1204.033
-23.794	39.537	1350.386	1202.861
-22.779	39.424	1349.386	1201.233
-21.765	39.578	1347.760	1200.674
-20.750	39.491	1346.390	1198.875
-19.736	39.439	1345.615	1197.824
-18.721	39.430	1343.877	1196.171
-17.706	39.451	1342.870	1195.355
-16.692	39.422	1341.780	1194.161
-15.677	39.447	1340.179	1192.843
-14.663	39.493	1339.208	1192.209
-13.648	39.356	1338.720	1190.901
-12.633	39.357	1337.450	1189.725
-11.619	39.357	1336.135	1188.513
-10.604	39.539	1334.897	1188.458
-9.590	39.467	1334.069	1187.241
-8.575	39.317	1333.779	1186.030
-7.560	39.441	1332.314	1185.431
-6.546	39.316	1331.740	1184.118
-5.531	39.324	1330.794	1183.279
-4.517	39.325	1330.046	1182.571
-3.502	39.374	1328.781	1181.696
-2.487	39.399	1327.736	1180.869
-1.473	39.490	1324.099	1178.132
-0.458	38.498	1309.609	1159.323
0.556	33.557	1290.575	1119.614
1.571	29.458	1295.013	1099.017
2.586	27.884	1309.691	1101.887
3.600	26.401	1298.726	1083.684
4.615	22.696	1225.828	1001.768
5.629	16.751	1149.939	907.891
6.644	13.582	1128.090	873.873
7.659	13.282	1125.575	870.271
8.673	13.259	1124.108	868.938
9.688	13.208	1122.788	867.577
10.702	13.532	1121.536	868.227
11.717	17.265	1126.298	891.455
12.731	20.971	1131.123	914.673
13.746	20.096	1128.072	907.546
14.761	17.879	1124.732	893.191
15.775	16.521	1122.310	884.095
16.790	15.574	1120.007	877.257
17.804	14.819	1118.271	871.884
18.819	14.214	1117.407	867.979
19.834	13.988	1115.913	865.561
20.848	13.802	1114.554	863.464
21.863	13.530	1113.867	861.444
22.877	13.284	1113.678	859.940
23.892	13.297	1112.621	859.118
24.907	13.207	1112.161	858.215
25.921	13.344	1110.638	857.674
26.936	13.424	1109.445	857.093
27.950	13.467	1107.795	855.967
28.965	13.456	1106.382	854.742
29.980	13.635	1104.632	854.234
30.994	13.557	1103.293	852.722
32.009	13.680	1102.095	852.356
33.023	13.734	1100.966	851.682
34.038	13.486	1100.218	849.759
35.053	13.355	1099.436	848.404
36.067	13.381	1098.518	847.757
37.082	13.504	1097.745	847.716
38.096	13.479	1097.030	846.957
39.111	13.538	1096.453	846.737
40.126	13.426	1094.861	844.863
41.140	13.404	1093.338	843.500
42.155	13.371	1092.027	842.245
43.169	13.274	1091.218	841.057
44.184	13.231	1090.154	839.942
45.199	13.345	1088.385	839.082
46.213	13.276	1088.106	838.445
47.228	13.366	1086.913	837.906
48.242	13.358	1086.084	837.154
49.257	13.303	1084.884	835.877
50.271	13.384	1084.046	835.566
51.286	13.403	1082.941	834.739
52.301	13.456	1081.804	834.052
53.315	13.345	1080.367	832.314
54.330	13.337	1079.464	831.505
55.344	13.291	1078.894	830.758
56.359	13.368	1077.799	830.229
57.374	13.311	1076.662	828.993
58.388	13.186	1075.917	827.720
59.403	13.261	1075.005	827.321
60.417	13.246	1074.495	826.783
61.432	13.270	1073.493	826.057
62.447	13.194	1072.428	824.786
63.461	13.155	1071.913	824.119
64.476	13.222	1070.483	823.285
65.490	13.170	1069.701	822.351
66.505	13.208	1069.220	822.096
67.520	13.214	1068.329	821.366
68.534	13.299	1067.861	821.360
69.549	13.171	1067.302	820.220
70.563	13.157	1066.019	819.091
71.578	13.194	1065.192	818.566
72.593	13.200	1064.476	817.974
73.607	13.180	1063.925	817.382
74.622	13.087	1063.376	816.427
75.636	13.167	1062.726	816.249
76.651	13.167	1061.862	815.514
77.666	13.206	1061.516	815.369
78.680	13.125	1061.065	814.549
79.695	13.135	1059.837	813.586
80.709	13.205	1060.029	814.007
81.724	13.224	1058.815	813.094
82.739	13.314	1058.018	812.853
83.753	13.528	1056.913	812.981
84.768	13.521	1056.147	812.288
85.782	13.513	1055.263	811.494
86.797	13.535	1054.198	810.713
87.812	13.397	1053.326	809.298
88.826	13.530	1052.127	808.953
89.841	13.513	1051.381	808.223
90.855	13.618	1050.261	807.804
91.870	13.441	1050.023	806.685
92.884	13.423	1048.961	805.709
93.899	13.566	1047.739	805.395
94.914	13.643	1047.171	805.265
95.928	13.692	1046.124	804.626
96.943	13.675	1045.202	803.760
97.957	13.608	1044.486	802.816
98.972	13.368	1043.685	800.969
99.987	13.526	1042.982	801.119
101.001	13.571	1041.556	800.170
102.016	13.509	1040.598	799.064
103.030	13.573	1039.958	798.812
104.045	13.581	1039.123	798.137
105.060	13.452	1038.453	796.934
106.074	13.438	1037.160	795.801
107.089	13.358	1035.949	794.418
108.103	13.374	1034.736	793.494
109.118	13.221	1034.352	792.396
110.133	13.261	1033.063	791.530
111.147	13.273	1032.498	791.086
112.162	13.349	1031.552	790.656
113.176	13.380	1030.873	790.210
114.191	13.374	1030.210	789.604
115.206	13.315	1029.418	788.649
116.220	13.405	1028.485	788.292
117.235	13.344	1027.410	787.107
118.249	13.302	1026.814	786.383
119.264	13.261	1026.023	785.509
120.279	13.419	1024.651	785.138
121.293	13.355	1023.770	784.094
122.308	13.220	1023.587	783.245
123.322	13.313	1021.816	782.261
124.337	13.276	1020.767	781.214
125.352	13.428	1019.586	780.958
126.366	13.362	1018.599	779.821
127.381	13.320	1017.629	778.812
128.395	13.347	1016.845	778.270
129.410	13.307	1016.307	777.599
130.424	13.303	1015.170	776.641
131.439	13.464	1014.232	776.611
132.454	13.561	1013.400	776.359
133.468	13.591	1012.357	775.633
134.483	13.561	1011.583	774.832
135.497	13.562	1010.725	774.110
136.512	13.497	1009.985	773.171
137.527	13.600	1008.819	772.689
138.541	13.638	1008.185	772.312
139.556	13.512	1007.771	771.341
140.570	13.708	1006.534	771.239
141.585	13.605	1005.790	770.121
142.600	13.561	1005.057	769.286
143.614	13.798	1003.949	769.470
144.629	13.712	1003.377	768.564
145.643	13.621	1002.413	767.336
146.658	13.558	1001.472	766.257
147.673	13.460	1000.256	764.809
148.687	13.533	999.403	764.422
149.702	13.554	998.468	763.739
150.716	13.450	997.512	762.460
151.731	13.514	997.067	762.348
152.746	13.472	995.918	761.208
153.760	13.535	995.729	761.289
154.775	13.596	994.915	760.875
155.789	13.720	994.311	760.917
156.804	13.658	993.024	759.581
157.819	13.773	992.403	759.562
158.833	13.658	992.036	758.692
159.848	13.843	990.779	758.507
160.862	13.735	990.019	757.365
161.877	13.714	988.839	756.300
162.892	13.505	988.240	754.821
163.906	13.619	987.090	754.394
164.921	13.556	986.236	753.391
165.935	13.711	985.141	753.191
166.950	13.822	984.094	752.828
167.964	13.841	983.318	752.251
168.979	13.807	982.143	751.134
169.994	13.662	981.550	749.957
171.008	13.772	980.846	749.850
172.023	13.737	980.197	749.130
173.037	13.751	979.763	748.796
174.052	13.834	978.714	748.300
175.067	13.678	978.251	747.181
176.081	13.771	977.339	746.833
177.096	13.748	976.612	746.110
178.110	13.722	976.239	745.641
179.125	13.702	975.642	745.031
180.140	13.787	975.409	745.168
181.154	13.859	974.969	745.087
182.169	13.870	974.269	744.537
183.183	13.989	973.629	744.517
184.198	14.122	972.310	744.034
185.213	14.027	971.447	742.883
186.227	13.982	971.212	742.441
187.242	13.966	970.702	741.911
188.256	14.158	969.799	742.012
189.271	14.125	968.968	741.162
190.286	13.919	968.306	739.675
191.300	13.666	968.058	738.294
192.315	13.903	966.815	738.335
193.329	13.752	966.397	737.277
194.344	13.850	966.302	737.574
195.359	13.913	965.311	737.031
196.373	13.998	964.805	736.957
197.388	13.982	964.350	736.475
198.402	14.134	963.548	736.472
199.417	14.272	962.478	736.197
200.432	14.141	962.890	735.868
201.446	14.189	962.132	735.436
202.461	14.273	961.414	735.192
203.475	14.275	960.919	734.761
204.490	14.171	960.105	733.612
205.504	14.174	958.871	732.618
206.519	14.175	957.846	731.773
207.534	14.219	957.199	731.410
208.548	14.152	957.134	731.001
209.563	14.209	955.880	730.228
210.577	14.386	955.192	730.412
211.592	14.394	954.611	729.941
212.607	14.327	953.759	728.929
213.621	14.382	952.964	728.500
214.636	14.347	952.325	727.794
215.650	14.390	951.743	727.471
216.665	14.474	950.535	726.851
217.680	14.538	950.040	726.688
218.694	14.440	949.812	726.022
219.709	14.443	948.661	725.089
220.723	14.542	947.797	724.793
221.738	14.430	947.439	723.971
222.753	14.401	947.078	723.507
223.767	14.448	946.137	722.925
224.782	14.486	945.754	722.736
225.796	14.629	944.899	722.635
226.811	14.610	944.606	722.267
227.826	14.545	943.675	721.211
228.840	14.457	943.056	720.290
229.855	14.548	942.321	720.059
230.869	14.434	941.104	718.575
231.884	14.557	940.129	718.295
232.899	14.596	939.732	718.098
233.913	14.579	938.701	717.172
234.928	14.548	938.010	716.449
235.942	14.632	937.277	716.184
236.957	14.455	937.451	715.495
237.972	14.485	936.855	715.105
238.986	14.630	935.849	714.897
240.001	14.468	935.242	713.675
241.015	14.760	934.264	714.113
242.030	14.613	933.925	713.165
243.045	14.720	933.203	713.005
244.059	14.636	932.706	712.204
245.074	14.739	932.157	712.163
246.088	14.803	931.453	711.833
247.103	14.604	931.063	710.626
248.117	14.732	930.479	710.662
249.132	14.905	929.711	710.747
250.147	14.908	929.130	710.255
251.161	15.050	928.270	710.135
252.176	15.057	927.635	709.616
253.190	15.147	926.664	709.190
254.205	15.098	926.473	708.774
255.220	15.206	925.444	708.382
256.234	15.071	924.793	707.253
257.249	15.199	923.964	707.093
258.263	15.194	923.668	706.785
259.278	15.083	922.873	705.647
260.293	15.191	922.062	705.417
261.307	15.337	921.396	705.459
262.322	15.298	920.625	704.645
263.336	15.188	919.993	703.636
264.351	15.251	919.187	703.220
265.366	15.329	918.382	702.869
266.380	15.298	918.257	702.583
267.395	15.142	917.291	701.126
268.409	15.232	916.426	700.780
269.424	15.323	915.437	700.343
270.439	15.159	914.905	699.188
271.453	15.304	914.328	699.290
272.468	15.298	913.852	698.842
273.482	15.198	913.640	698.199
274.497	15.410	912.399	698.070
275.512	15.239	912.070	697.047
276.526	15.243	911.530	696.589
277.541	15.354	910.720	696.369
278.555	15.525	910.121	696.558
279.570	15.521	909.422	695.948
280.585	15.486	908.643	695.145
281.599	15.373	908.171	694.255
282.614	15.389	907.449	693.708
283.628	15.477	906.708	693.443
284.643	15.417	906.252	692.784
285.657	15.505	905.534	692.535
286.672	15.564	904.676	692.063
287.687	15.464	904.370	691.355
288.701	15.451	903.708	690.734
289.716	15.608	903.175	690.913
290.730	15.497	902.510	689.888
291.745	15.525	901.924	689.493
292.760	15.624	900.960	689.099
293.774	15.601	900.231	688.388
294.789	15.556	899.904	687.892
295.803	15.668	899.155	687.717
296.818	15.588	898.158	686.568
297.833	15.706	897.541	686.517
298.847	15.501	897.550	685.627
299.862	15.660	896.860	685.687
300.876	15.714	895.992	685.183
301.891	15.581	895.753	684.396
302.906	15.756	894.803	684.323
303.920	15.799	894.623	684.298
304.935	15.958	893.458	683.994
305.949	15.892	892.806	683.167
306.964	15.876	892.563	682.855
307.979	15.786	892.482	682.366
308.993	15.909	891.262	681.874
310.008	15.945	890.921	681.698
311.022	15.860	890.218	680.753
312.037	15.820	889.674	680.118
313.052	15.820	888.845	679.422
314.066	15.855	887.743	678.662
315.081	15.886	887.616	678.630
316.095	15.768	887.201	677.776
317.110	15.731	886.778	677.243
318.125	15.926	885.884	677.287
319.139	15.871	885.227	676.504
320.154	15.957	885.059	676.661
321.168	15.940	884.537	676.134
322.183	16.040	883.175	675.433
323.197	15.932	883.203	674.961
324.212	15.892	882.449	674.167
325.227	15.998	882.068	674.240
326.241	16.006	881.384	673.688
327.256	15.978	880.863	673.119
328.270	16.062	879.859	672.626
329.285	16.024	879.415	672.076
330.300	16.055	878.975	671.805
331.314	16.010	878.548	671.238
332.329	16.054	878.056	670.980
333.343	15.991	877.724	670.416
334.358	16.115	876.892	670.215
335.373	16.085	876.798	669.964
336.387	16.177	876.416	669.977
337.402	16.255	875.999	669.908
338.416	16.244	875.870	669.706
339.431	16.217	875.517	669.269
340.446	16.224	875.146	668.955
341.460	16.266	874.468	668.543
342.475	16.387	873.762	668.426
343.489	16.387	873.522	668.182
344.504	16.454	873.111	668.073
345.519	16.437	872.788	667.701
346.533	16.498	872.050	667.315
347.548	16.401	871.381	666.362
348.562	16.277	870.619	665.232
349.577	16.315	870.304	665.083
350.592	16.308	869.644	664.494
351.606	16.294	868.897	663.808
352.621	16.453	868.057	663.731
353.635	16.394	867.362	662.912
354.650	16.407	867.157	662.745
355.665	16.432	866.175	662.036
356.679	16.453	865.504	661.547
357.694	16.423	864.995	660.979
358.708	16.420	864.407	660.459
359.723	16.580	863.788	660.555
360.738	16.645	862.967	660.123
361.752	16.680	862.423	659.784
362.767	16.576	862.054	659.039
363.781	16.715	861.602	659.173
364.796	16.725	860.829	658.563
365.810	16.789	860.781	658.718
366.825	16.690	860.659	658.180
367.840	16.800	859.828	657.917
368.854	16.758	859.027	657.082
369.869	16.772	858.614	656.762
370.883	16.870	857.961	656.584
371.898	16.788	857.832	656.109
372.913	16.980	857.391	656.458
373.927	17.005	856.562	655.859
374.942	16.891	856.298	655.159
375.956	16.943	855.976	655.055
376.971	17.080	855.372	655.064
377.986	17.044	854.942	654.539
379.000	17.176	854.495	654.647
380.015	16.946	854.010	653.332
381.029	16.897	853.727	652.869
382.044	17.132	853.068	653.212
383.059	17.156	852.252	652.621
384.073	17.154	851.537	652.007
385.088	17.064	851.214	651.358
386.102	17.044	850.579	650.736
387.117	17.008	849.928	650.045
388.132	17.021	849.464	649.680
389.146	16.988	848.886	649.054
390.161	17.203	848.340	649.400
391.175	17.099	847.795	648.531
392.190	17.043	847.486	648.022
393.205	17.102	846.799	647.666
394.219	17.089	846.521	647.346
395.234	17.094	845.873	646.811
396.248	17.125	845.338	646.465
397.263	17.130	845.038	646.196
398.278	16.943	845.033	645.422
399.292	17.080	844.293	645.321
400.307	17.105	843.983	645.122
401.321	17.127	843.330	644.648
402.336	17.079	843.175	644.294
403.350	17.230	842.699	644.446
404.365	17.262	841.886	643.888
405.380	17.255	841.431	643.456
406.394	17.372	840.705	643.285
407.409	17.363	840.355	642.926
408.423	17.507	840.006	643.148
409.438	17.446	839.936	642.806
410.453	17.347	839.221	641.829
411.467	17.510	838.882	642.127
412.482	17.416	838.457	641.391
413.496	17.580	838.261	641.800
414.511	17.495	837.549	640.878
415.526	17.497	837.249	640.603
416.540	17.580	836.333	640.154
417.555	17.619	836.158	640.110
418.569	17.505	835.619	639.215
419.584	17.667	835.007	639.297
420.599	17.589	835.018	638.956
421.613	94.048	1274.134	1390.894
422.628	81.245	1338.107	1391.005
